399.19301,4.23353
401.12148,1.03135
403.04995,0.51944
404.97842,0.36699
406.90689,0.35043
408.83536,0.34069
410.76382,0.30845
412.69229,0.14095
414.62076,-0.13109
416.54923,-0.29544
418.47770,-0.23177
420.40617,-0.05123
422.33464,0.03769
424.26311,0.02538
426.19157,-0.02936
428.12004,-0.01187
430.04851,0.06942
431.97698,0.14201
433.90545,0.17066
435.83392,0.16438
437.76239,0.13408
439.69085,0.08611
441.61932,0.06409
443.54779,0.03370
445.47626,-0.01994
447.40473,-0.03853
449.33320,-0.05713
451.26167,-0.10257
453.19013,-0.08178
455.11860,-0.00929
457.04707,-0.03838
458.97554,-0.13313
460.90401,-0.14420
462.83248,-0.07497
464.76095,0.02951
466.68942,0.09320
468.61788,0.09082
470.54635,0.10546
472.47482,0.14370
474.40329,0.10735
476.33176,0.09127
478.26023,0.09300
480.18870,0.05264
482.11716,0.03852
484.04563,0.07193
485.97410,0.07897
487.90257,0.07362
489.83104,0.09557
491.75951,0.09415
493.68798,0.03985
495.61645,0.03752
497.54491,0.10517
499.47338,0.14690
501.40185,0.12402
503.33032,0.06382
505.25879,0.02740
507.18726,0.05924
509.11573,0.13154
511.04419,0.14184
512.97266,0.08610
514.90113,0.02916
516.82960,0.00978
518.75807,0.01878
520.68654,0.04055
522.61501,0.05917
524.54348,0.05112
526.47194,0.01914
528.40041,-0.01920
530.32888,-0.01832
532.25735,0.00992
534.18582,0.01646
536.11429,-0.01039
538.04276,-0.03067
539.97122,-0.00813
541.89969,0.03345
543.82816,0.07275
545.75663,0.10692
547.68510,0.13754
549.61357,0.25554
551.54204,0.54714
553.47051,0.70809
555.39897,0.48682
557.32744,0.19346
559.25591,0.10534
561.18438,0.11136
563.11285,0.10481
565.04132,0.08033
566.96979,0.03751
568.89825,0.02535
570.82672,0.07312
572.75519,0.11389
574.68366,0.10574
576.61213,0.09730
578.54060,0.11393
580.46907,0.11513
582.39754,0.10076
584.32600,0.09664
586.25447,0.09347
588.18294,0.07950
590.11141,0.07319
592.03988,0.07867
593.96835,0.09310
595.89682,0.11252
597.82528,0.09455
599.75375,0.05544
601.68222,0.04783
603.61069,0.06005
605.53916,0.05694
607.46763,0.04908
609.39610,0.05199
611.32456,0.04357
613.25303,0.03252
615.18150,0.04800
617.10997,0.06823
619.03844,0.06061
620.96691,0.04400
622.89538,0.04335
624.82385,0.05054
626.75231,0.06060
628.68078,0.07404
630.60925,0.07658
632.53772,0.06264
634.46619,0.05905
636.39466,0.07174
638.32313,0.08136
640.25159,0.09706
642.18006,0.11365
644.10853,0.11412
646.03700,0.11681
647.96547,0.12718
649.89394,0.12154
651.82241,0.09592
653.75088,0.07206
655.67934,0.05903
657.60781,0.05389
659.53628,0.06138
661.46475,0.08231
663.39322,0.10375
665.32169,0.10367
667.25016,0.06960
669.17862,0.04610
671.10709,0.07337
673.03556,0.09552
674.96403,0.09135
676.89250,0.07398
678.82097,0.07659
680.74944,0.10837
682.67791,0.12896
684.60637,0.11607
686.53484,0.10039
688.46331,0.09406
690.39178,0.08044
692.32025,0.07114
694.24872,0.07326
696.17719,0.07917
698.10565,0.08972
700.03412,0.09647
701.96259,0.10115
703.89106,0.11277
705.81953,0.11682
707.74800,0.10555
709.67647,0.10236
711.60494,0.11143
713.53340,0.11402
715.46187,0.10893
717.39034,0.09979
719.31881,0.08724
721.24728,0.07822
723.17575,0.08361
725.10422,0.09591
727.03268,0.09165
728.96115,0.07512
730.88962,0.07545
732.81809,0.09216
734.74656,0.10008
736.67503,0.10064
738.60350,0.10191
740.53197,0.09425
742.46043,0.08145
744.38890,0.07903
746.31737,0.08497
748.24584,0.08945
750.17431,0.09200
752.10278,0.09299
754.03125,0.08360
755.95971,0.06941
757.88818,0.07135
759.81665,0.08284
761.74512,0.08811
763.67359,0.08898
765.60206,0.09006
767.53053,0.08972
769.45900,0.09426
771.38746,0.10569
773.31593,0.11062
775.24440,0.11279
777.17287,0.11833
779.10134,0.11558
781.02981,0.09890
782.95828,0.08902
784.88674,0.09872
786.81521,0.10608
788.74368,0.10202
790.67215,0.10141
792.60062,0.10443
794.52909,0.09502
796.45756,0.07946
798.38602,0.07574
800.31449,0.08023
802.24296,0.08742
804.17143,0.10460
806.09990,0.12200
808.02837,0.11988
809.95684,0.10975
811.88531,0.10274
813.81377,0.09527
815.74224,0.08951
817.67071,0.08832
819.59918,0.09076
821.52765,0.09393
823.45612,0.09871
825.38459,0.09966
827.31305,0.09645
829.24152,0.10018
831.16999,0.10438
833.09846,0.09470
835.02693,0.08499
836.95540,0.09090
838.88387,0.09535
840.81234,0.09103
842.74080,0.09326
844.66927,0.10564
846.59774,0.11910
848.52621,0.12720
850.45468,0.12572
852.38315,0.11686
854.31162,0.10669
856.24008,0.10071
858.16855,0.09759
860.09702,0.08856
862.02549,0.07921
863.95396,0.08121
865.88243,0.09292
867.81090,0.10525
869.73937,0.11179
871.66783,0.11054
873.59630,0.10473
875.52477,0.10637
877.45324,0.11326
879.38171,0.10850
881.31018,0.09981
883.23865,0.10394
885.16711,0.10962
887.09558,0.10799
889.02405,0.11413
890.95252,0.12350
892.88099,0.12008
894.80946,0.11709
896.73793,0.12335
898.66640,0.12758
900.59486,0.12825
902.52333,0.12725
904.45180,0.12457
906.38027,0.12312
908.30874,0.12170
910.23721,0.11442
912.16568,0.10111
914.09414,0.09165
916.02261,0.09174
917.95108,0.09885
919.87955,0.10822
921.80802,0.11559
923.73649,0.12079
925.66496,0.12233
927.59343,0.11858
929.52189,0.11604
931.45036,0.11861
933.37883,0.12027
935.30730,0.12040
937.23577,0.12257
939.16424,0.12431
941.09271,0.12638
943.02117,0.12664
944.94964,0.12394
946.87811,0.12498
948.80658,0.12478
950.73505,0.11842
952.66352,0.11266
954.59199,0.11313
956.52045,0.11749
958.44892,0.11670
960.37739,0.11127
962.30586,0.11030
964.23433,0.11475
966.16280,0.12179
968.09127,0.12943
970.01974,0.13164
971.94820,0.12629
973.87667,0.12330
975.80514,0.12652
977.73361,0.12444
979.66208,0.11857
981.59055,0.11739
983.51902,0.11580
985.44748,0.11669
987.37595,0.12007
989.30442,0.11848
991.23289,0.11883
993.16136,0.12137
995.08983,0.11868
997.01830,0.11820
998.94677,0.12637
1000.87523,0.13811
1002.80370,0.14269
1004.73217,0.13566
1006.66064,0.12708
1008.58911,0.12151
1010.51758,0.11667
1012.44605,0.11264
1014.37451,0.11068
1016.30298,0.11443
1018.23145,0.12002
1020.15992,0.12382
1022.08839,0.12623
1024.01686,0.13024
1025.94533,0.14722
1027.87380,0.16425
1029.80226,0.15232
1031.73073,0.12761
1033.65920,0.12086
1035.58767,0.12409
1037.51614,0.12197
1039.44461,0.11402
1041.37308,0.10897
1043.30154,0.11672
1045.23001,0.12976
1047.15848,0.13304
1049.08695,0.12936
1051.01542,0.13145
1052.94389,0.13764
1054.87236,0.13528
1056.80083,0.12600
1058.72929,0.12331
1060.65776,0.12722
1062.58623,0.13061
1064.51470,0.13273
1066.44317,0.13291
1068.37164,0.13139
1070.30011,0.12812
1072.22857,0.12410
1074.15704,0.12299
1076.08551,0.12117
1078.01398,0.11798
1079.94245,0.12317
1081.87092,0.13235
1083.79939,0.13409
1085.72786,0.13457
1087.65632,0.14074
1089.58479,0.15169
1091.51326,0.16331
1093.44173,0.16217
1095.37020,0.14668
1097.29867,0.13959
1099.22714,0.15229
1101.15560,0.16429
1103.08407,0.16004
1105.01254,0.15131
1106.94101,0.14937
1108.86948,0.15213
1110.79795,0.15346
1112.72642,0.15022
1114.65489,0.14612
1116.58335,0.14562
1118.51182,0.14545
1120.44029,0.14428
1122.36876,0.14761
1124.29723,0.14782
1126.22570,0.13770
1128.15417,0.13224
1130.08263,0.13732
1132.01110,0.13910
1133.93957,0.13565
1135.86804,0.13707
1137.79651,0.14380
1139.72498,0.14714
1141.65345,0.14281
1143.58191,0.13584
1145.51038,0.13178
1147.43885,0.13124
1149.36732,0.13445
1151.29579,0.13800
1153.22426,0.13671
1155.15273,0.13369
1157.08120,0.13438
1159.00966,0.13749
1160.93813,0.13874
1162.86660,0.13779
1164.79507,0.13880
1166.72354,0.14118
1168.65201,0.14154
1170.58048,0.14387
1172.50894,0.14884
1174.43741,0.14938
1176.36588,0.14389
1178.29435,0.13850
1180.22282,0.13801
1182.15129,0.14255
1184.07976,0.15324
1186.00823,0.16231
1187.93669,0.15811
1189.86516,0.14988
1191.79363,0.14692
1193.72210,0.14555
1195.65057,0.14500
1197.57904,0.14551
1199.50751,0.14696
1201.43597,0.14560
1203.36444,0.13953
1205.29291,0.13655
1207.22138,0.13914
1209.14985,0.14136
1211.07832,0.14445
1213.00679,0.15041
1214.93526,0.15289
1216.86372,0.15079
1218.79219,0.14817
1220.72066,0.14549
1222.64913,0.14097
1224.57760,0.13553
1226.50607,0.13445
1228.43454,0.13816
1230.36300,0.14196
1232.29147,0.14222
1234.21994,0.13825
1236.14841,0.13439
1238.07688,0.13399
1240.00535,0.13533
1241.93382,0.13722
1243.86229,0.13841
1245.79075,0.13794
1247.71922,0.13828
1249.64769,0.13970
1251.57616,0.14072
1253.50463,0.14166
1255.43310,0.14294
1257.36157,0.14289
1259.29003,0.13748
1261.21850,0.12827
1263.14697,0.12481
1265.07544,0.13032
1267.00391,0.13671
1268.93238,0.13844
1270.86085,0.13944
1272.78932,0.14264
1274.71778,0.14407
1276.64625,0.14353
1278.57472,0.14505
1280.50319,0.14456
1282.43166,0.14114
1284.36013,0.14095
1286.28860,0.13933
1288.21706,0.13449
1290.14553,0.13477
1292.07400,0.13805
1294.00247,0.13848
1295.93094,0.13638
1297.85941,0.13067
1299.78788,0.11862
1301.71634,0.09794
1303.64481,0.07715
1305.57328,0.08186
1307.50175,0.11546
1309.43022,0.14377
1311.35869,0.15127
1313.28716,0.15086
1315.21563,0.14867
1317.14409,0.14695
1319.07256,0.14644
1321.00103,0.14517
1322.92950,0.14530
1324.85797,0.14448
1326.78644,0.14164
1328.71491,0.13969
1330.64337,0.13431
1332.57184,0.13111
1334.50031,0.13753
1336.42878,0.14357
1338.35725,0.14428
1340.28572,0.13562
1342.21419,0.11720
1344.14266,0.11015
1346.07112,0.12215
1347.99959,0.13684
1349.92806,0.14372
1351.85653,0.14426
1353.78500,0.13844
1355.71347,0.13213
1357.64194,0.13518
1359.57040,0.14542
1361.49887,0.15406
1363.42734,0.15647
1365.35581,0.15548
1367.28428,0.15423
1369.21275,0.15409
1371.14122,0.15803
1373.06969,0.16468
1374.99815,0.16616
1376.92662,0.16193
1378.85509,0.16100
1380.78356,0.16379
1382.71203,0.16504
1384.64050,0.16611
1386.56897,0.17026
1388.49743,0.16976
1390.42590,0.16175
1392.35437,0.15965
1394.28284,0.16967
1396.21131,0.18193
1398.13978,0.18547
1400.06825,0.18058
1401.99672,0.17600
1403.92518,0.17472
1405.85365,0.17003
1407.78212,0.16322
1409.71059,0.16199
1411.63906,0.16623
1413.56753,0.17138
1415.49600,0.17507
1417.42446,0.17870
1419.35293,0.18020
1421.28140,0.17834
1423.20987,0.17702
1425.13834,0.17347
1427.06681,0.17228
1428.99528,0.17720
1430.92375,0.17897
1432.85221,0.17883
1434.78068,0.18298
1436.70915,0.18183
1438.63762,0.17261
1440.56609,0.16724
1442.49456,0.16759
1444.42303,0.17325
1446.35149,0.17947
1448.27996,0.17851
1450.20843,0.17332
1452.13690,0.17432
1454.06537,0.18653
1455.99384,0.21145
1457.92231,0.22218
1459.85077,0.20106
1461.77924,0.18894
1463.70771,0.18871
1465.63618,0.18461
1467.56465,0.17831
1469.49312,0.18289
1471.42159,0.19937
1473.35006,0.20999
1475.27852,0.19888
1477.20699,0.18529
1479.13546,0.18082
1481.06393,0.18134
1482.99240,0.17966
1484.92087,0.18048
1486.84934,0.19060
1488.77780,0.20250
1490.70627,0.20047
1492.63474,0.19361
1494.56321,0.19647
1496.49168,0.20497
1498.42015,0.20313
1500.34862,0.19484
1502.27709,0.19404
1504.20555,0.20744
1506.13402,0.23922
1508.06249,0.24566
1509.99096,0.21871
1511.91943,0.20023
1513.84790,0.19746
1515.77637,0.20799
1517.70483,0.21801
1519.63330,0.22646
1521.56177,0.23253
1523.49024,0.22119
1525.41871,0.21080
1527.34718,0.20554
1529.27565,0.19961
1531.20412,0.20022
1533.13258,0.20525
1535.06105,0.20228
1536.98952,0.20435
1538.91799,0.22985
1540.84646,0.25675
1542.77493,0.23867
1544.70340,0.21039
1546.63186,0.19391
1548.56033,0.19268
1550.48880,0.19616
1552.41727,0.19753
1554.34574,0.20278
1556.27421,0.22005
1558.20268,0.24652
1560.13115,0.22486
1562.05961,0.19476
1563.98808,0.18705
1565.91655,0.18897
1567.84502,0.19769
1569.77349,0.20474
1571.70196,0.19781
1573.63043,0.19263
1575.55889,0.19559
1577.48736,0.19038
1579.41583,0.17909
1581.34430,0.17500
1583.27277,0.17654
1585.20124,0.17896
1587.12971,0.18077
1589.05818,0.18175
1590.98664,0.18212
1592.91511,0.18157
1594.84358,0.17922
1596.77205,0.17530
1598.70052,0.17260
1600.62899,0.17357
1602.55746,0.17639
1604.48592,0.17747
1606.41439,0.17955
1608.34286,0.18328
1610.27133,0.18186
1612.19980,0.17985
1614.12827,0.18536
1616.05674,0.19421
1617.98521,0.19444
1619.91367,0.19347
1621.84214,0.20409
1623.77061,0.21555
1625.69908,0.21155
1627.62755,0.20212
1629.55602,0.19392
1631.48449,0.19195
1633.41295,0.20337
1635.34142,0.22175
1637.26989,0.21473
1639.19836,0.19751
1641.12683,0.19270
1643.05530,0.19947
1644.98377,0.21750
1646.91223,0.23563
1648.84070,0.23026
1650.76917,0.22808
1652.69764,0.24151
1654.62611,0.22745
1656.55458,0.19834
1658.48305,0.17592
1660.41152,0.16619
1662.33998,0.18050
1664.26845,0.19721
1666.19692,0.20377
1668.12539,0.21815
1670.05386,0.22790
1671.98233,0.21674
1673.91080,0.20748
1675.83926,0.20396
1677.76773,0.20235
1679.69620,0.20543
1681.62467,0.21753
1683.55314,0.23646
1685.48161,0.22966
1687.41008,0.20973
1689.33855,0.20178
1691.26701,0.20103
1693.19548,0.20704
1695.12395,0.22459
1697.05242,0.24081
1698.98089,0.23733
1700.90936,0.21968
1702.83783,0.20773
1704.76629,0.20536
1706.69476,0.20240
1708.62323,0.19554
1710.55170,0.19155
1712.48017,0.19559
1714.40864,0.20975
1716.33711,0.22633
1718.26558,0.22259
1720.19404,0.20646
1722.12251,0.19635
1724.05098,0.19131
1725.97945,0.18738
1727.90792,0.18679
1729.83639,0.19228
1731.76486,0.20005
1733.69332,0.20379
1735.62179,0.19916
1737.55026,0.19830
1739.47873,0.20409
1741.40720,0.20822
1743.33567,0.20913
1745.26414,0.21170
1747.19261,0.21603
1749.12107,0.21603
1751.04954,0.20527
1752.97801,0.19272
1754.90648,0.18889
1756.83495,0.19194
1758.76342,0.19539
1760.69189,0.19718
1762.62035,0.19286
1764.54882,0.18436
1766.47729,0.18207
1768.40576,0.18854
1770.33423,0.20432
1772.26270,0.22000
1774.19117,0.21231
1776.11964,0.19478
1778.04810,0.18731
1779.97657,0.19143
1781.90504,0.19763
1783.83351,0.19677
1785.76198,0.19120
1787.69045,0.18852
1789.61892,0.19269
1791.54738,0.20306
1793.47585,0.20824
1795.40432,0.20232
1797.33279,0.19509
1799.26126,0.19329
1801.18973,0.19431
1803.11820,0.19214
1805.04666,0.18999
1806.97513,0.19095
1808.90360,0.19344
1810.83207,0.19342
1812.76054,0.18801
1814.68901,0.16970
1816.61748,0.13145
1818.54595,0.10962
1820.47441,0.13850
1822.40288,0.17861
1824.33135,0.19224
1826.25982,0.19261
1828.18829,0.19604
1830.11676,0.19778
1832.04523,0.19354
1833.97369,0.18933
1835.90216,0.18778
1837.83063,0.18781
1839.75910,0.19020
1841.68757,0.19593
1843.61604,0.20243
1845.54451,0.20159
1847.47298,0.19525
1849.40144,0.19001
1851.32991,0.18619
1853.25838,0.18362
1855.18685,0.18196
1857.11532,0.18071
1859.04379,0.18136
1860.97226,0.18359
1862.90072,0.18466
1864.82919,0.18727
1866.75766,0.19488
1868.68613,0.20024
1870.61460,0.19523
1872.54307,0.18787
1874.47154,0.18382
1876.40001,0.18098
1878.32847,0.17953
1880.25694,0.18132
1882.18541,0.18494
1884.11388,0.18678
1886.04235,0.18615
1887.97082,0.18684
1889.89929,0.18714
1891.82775,0.18468
1893.75622,0.18491
1895.68469,0.18810
1897.61316,0.18921
1899.54163,0.18782
1901.47010,0.18683
1903.39857,0.18765
1905.32704,0.18944
1907.25550,0.19206
1909.18397,0.19335
1911.11244,0.19061
1913.04091,0.18716
1914.96938,0.18658
1916.89785,0.18946
1918.82632,0.19359
1920.75478,0.19703
1922.68325,0.19900
1924.61172,0.19536
1926.54019,0.18817
1928.46866,0.18430
1930.39713,0.18434
1932.32560,0.18483
1934.25407,0.18517
1936.18253,0.18615
1938.11100,0.18730
1940.03947,0.18987
1941.96794,0.19302
1943.89641,0.19316
1945.82488,0.19165
1947.75335,0.19019
1949.68181,0.18825
1951.61028,0.18805
1953.53875,0.19111
1955.46722,0.19263
1957.39569,0.19003
1959.32416,0.18824
1961.25263,0.18877
1963.18110,0.18974
1965.10956,0.19116
1967.03803,0.19206
1968.96650,0.19227
1970.89497,0.19123
1972.82344,0.18717
1974.75191,0.18384
1976.68038,0.18358
1978.60884,0.18373
1980.53731,0.18468
1982.46578,0.18482
1984.39425,0.18416
1986.32272,0.18684
1988.25119,0.19096
1990.17966,0.19377
1992.10812,0.19523
1994.03659,0.19403
1995.96506,0.19108
1997.89353,0.18849
1999.82200,0.18616
2001.75047,0.18512
2003.67894,0.18686
2005.60741,0.18836
2007.53587,0.18736
2009.46434,0.18551
2011.39281,0.18400
2013.32128,0.18465
2015.24975,0.18828
2017.17822,0.18976
2019.10669,0.18746
2021.03515,0.18698
2022.96362,0.18873
2024.89209,0.19008
2026.82056,0.19048
2028.74903,0.18961
2030.67750,0.18858
2032.60597,0.18841
2034.53444,0.18808
2036.46290,0.18784
2038.39137,0.18881
2040.31984,0.19049
2042.24831,0.19173
2044.17678,0.19241
2046.10525,0.19367
2048.03372,0.19479
2049.96218,0.19422
2051.89065,0.19200
2053.81912,0.18811
2055.74759,0.18511
2057.67606,0.18696
2059.60453,0.19083
2061.53300,0.19107
2063.46147,0.18815
2065.38993,0.18679
2067.31840,0.18943
2069.24687,0.19245
2071.17534,0.19247
2073.10381,0.19090
2075.03228,0.18947
2076.96075,0.18885
2078.88921,0.18922
2080.81768,0.19038
2082.74615,0.19175
2084.67462,0.19103
2086.60309,0.18806
2088.53156,0.18698
2090.46003,0.18764
2092.38850,0.18668
2094.31696,0.18570
2096.24543,0.18571
2098.17390,0.18529
2100.10237,0.18613
2102.03084,0.18903
2103.95931,0.19111
2105.88778,0.19046
2107.81624,0.18797
2109.74471,0.18676
2111.67318,0.18778
2113.60165,0.18781
2115.53012,0.18675
2117.45859,0.18895
2119.38706,0.19346
2121.31553,0.19528
2123.24399,0.19518
2125.17246,0.19449
2127.10093,0.19147
2129.02940,0.18662
2130.95787,0.18308
2132.88634,0.18312
2134.81481,0.18359
2136.74327,0.18336
2138.67174,0.18648
2140.60021,0.19055
2142.52868,0.19110
2144.45715,0.19016
2146.38562,0.18920
2148.31409,0.18849
2150.24255,0.18982
2152.17102,0.19133
2154.09949,0.19025
2156.02796,0.18922
2157.95643,0.19110
2159.88490,0.19408
2161.81337,0.19508
2163.74184,0.19311
2165.67030,0.19033
2167.59877,0.18937
2169.52724,0.19006
2171.45571,0.19018
2173.38418,0.18895
2175.31265,0.18942
2177.24112,0.19236
2179.16958,0.19347
2181.09805,0.19004
2183.02652,0.18525
2184.95499,0.18357
2186.88346,0.18471
2188.81193,0.18608
2190.74040,0.18765
2192.66887,0.19160
2194.59733,0.19614
2196.52580,0.19620
2198.45427,0.19245
2200.38274,0.18886
2202.31121,0.18659
2204.23968,0.18842
2206.16815,0.19396
2208.09661,0.19642
2210.02508,0.19485
2211.95355,0.19337
2213.88202,0.19275
2215.81049,0.19205
2217.73896,0.19161
2219.66743,0.19179
2221.59590,0.19123
2223.52436,0.18899
2225.45283,0.18627
2227.38130,0.18689
2229.30977,0.19230
2231.23824,0.19765
2233.16671,0.19854
2235.09518,0.19467
2237.02364,0.18912
2238.95211,0.18659
2240.88058,0.18783
2242.80905,0.19047
2244.73752,0.19270
2246.66599,0.19324
2248.59446,0.19195
2250.52293,0.19071
2252.45139,0.19046
2254.37986,0.18951
2256.30833,0.18899
2258.23680,0.19045
2260.16527,0.19061
2262.09374,0.18857
2264.02221,0.18869
2265.95067,0.19166
2267.87914,0.19284
2269.80761,0.19162
2271.73608,0.19023
2273.66455,0.18857
2275.59302,0.18891
2277.52149,0.19175
2279.44996,0.19375
2281.37842,0.19427
2283.30689,0.19422
2285.23536,0.19392
2287.16383,0.19367
2289.09230,0.19622
2291.02077,0.20274
2292.94924,0.20707
2294.87770,0.20565
2296.80617,0.20230
2298.73464,0.20041
2300.66311,0.19882
2302.59158,0.19506
2304.52005,0.19267
2306.44852,0.19584
2308.37699,0.20165
2310.30545,0.20674
2312.23392,0.21145
2314.16239,0.21408
2316.09086,0.21240
2318.01933,0.21111
2319.94780,0.21741
2321.87627,0.23097
2323.80473,0.23848
2325.73320,0.23042
2327.66167,0.21934
2329.59014,0.21476
2331.51861,0.21058
2333.44708,0.21263
2335.37555,0.23156
2337.30401,0.25181
2339.23248,0.25289
2341.16095,0.24087
2343.08942,0.22919
2345.01789,0.22738
2346.94636,0.23331
2348.87483,0.23633
2350.80330,0.23879
2352.73176,0.25146
2354.66023,0.27500
2356.58870,0.28649
2358.51717,0.27000
2360.44564,0.24524
2362.37411,0.24412
2364.30258,0.26346
2366.23104,0.27153
2368.15951,0.25540
2370.08798,0.23192
2372.01645,0.21928
2373.94492,0.21606
2375.87339,0.21245
2377.80186,0.20658
2379.73033,0.20223
2381.65879,0.19798
2383.58726,0.19251
2385.51573,0.19022
2387.44420,0.19204
2389.37267,0.19523
2391.30114,0.19772
2393.22961,0.19653
2395.15807,0.19265
2397.08654,0.19102
2399.01501,0.19262
2400.94348,0.19530
2402.87195,0.19669
2404.80042,0.19676
2406.72889,0.19694
2408.65736,0.19631
2410.58582,0.19565
2412.51429,0.19631
2414.44276,0.19640
2416.37123,0.19529
2418.29970,0.19489
2420.22817,0.19468
2422.15664,0.19298
2424.08510,0.19194
2426.01357,0.19215
2427.94204,0.19183
2429.87051,0.19220
2431.79898,0.19343
2433.72745,0.19217
2435.65592,0.18889
2437.58439,0.18781
2439.51285,0.18869
2441.44132,0.19008
2443.36979,0.19255
2445.29826,0.19462
2447.22673,0.19327
2449.15520,0.18896
2451.08367,0.18767
2453.01213,0.19214
2454.94060,0.19711
2456.86907,0.19792
2458.79754,0.19465
2460.72601,0.19157
2462.65448,0.19298
2464.58295,0.19565
2466.51142,0.19634
2468.43988,0.19603
2470.36835,0.19494
2472.29682,0.19517
2474.22529,0.19712
2476.15376,0.19672
2478.08223,0.19271
2480.01070,0.18916
2481.93916,0.18862
2483.86763,0.18851
2485.79610,0.18863
2487.72457,0.19186
2489.65304,0.19529
2491.58151,0.19474
2493.50998,0.19283
2495.43844,0.19405
2497.36691,0.19822
2499.29538,0.20011
2501.22385,0.19758
2503.15232,0.19428
2505.08079,0.19335
2507.00926,0.19429
2508.93773,0.19346
2510.86619,0.19038
2512.79466,0.18956
2514.72313,0.19191
2516.65160,0.19344
2518.58007,0.19389
2520.50854,0.19508
2522.43701,0.19669
2524.36547,0.19844
2526.29394,0.19805
2528.22241,0.19441
2530.15088,0.19149
2532.07935,0.19223
2534.00782,0.19430
2535.93629,0.19518
2537.86476,0.19522
2539.79322,0.19465
2541.72169,0.19402
2543.65016,0.19454
2545.57863,0.19609
2547.50710,0.19740
2549.43557,0.19729
2551.36404,0.19648
2553.29250,0.19751
2555.22097,0.20102
2557.14944,0.20287
2559.07791,0.20010
2561.00638,0.19697
2562.93485,0.19724
2564.86332,0.19938
2566.79179,0.20199
2568.72025,0.20393
2570.64872,0.20427
2572.57719,0.20212
2574.50566,0.19669
2576.43413,0.19246
2578.36260,0.19262
2580.29107,0.19364
2582.21953,0.19357
2584.14800,0.19331
2586.07647,0.19490
2588.00494,0.19862
2589.93341,0.19996
2591.86188,0.19739
2593.79035,0.19608
2595.71882,0.19897
2597.64728,0.20103
2599.57575,0.19935
2601.50422,0.19846
2603.43269,0.19931
2605.36116,0.19774
2607.28963,0.19560
2609.21810,0.19864
2611.14656,0.20256
2613.07503,0.20014
2615.00350,0.19613
2616.93197,0.19790
2618.86044,0.20246
2620.78891,0.20336
2622.71738,0.20076
2624.64585,0.19895
2626.57431,0.19961
2628.50278,0.20029
2630.43125,0.20002
2632.35972,0.19867
2634.28819,0.19631
2636.21666,0.19568
2638.14513,0.19589
2640.07359,0.19601
2642.00206,0.19732
2643.93053,0.19756
2645.85900,0.19662
2647.78747,0.19656
2649.71594,0.19780
2651.64441,0.20026
2653.57288,0.20067
2655.50134,0.19692
2657.42981,0.19221
2659.35828,0.19049
2661.28675,0.19386
2663.21522,0.19833
2665.14369,0.19960
2667.07216,0.20057
2669.00062,0.20174
2670.92909,0.20062
2672.85756,0.19898
2674.78603,0.19901
2676.71450,0.20108
2678.64297,0.20492
2680.57144,0.20889
2682.49990,0.20881
2684.42837,0.20378
2686.35684,0.20018
2688.28531,0.20028
2690.21378,0.20042
2692.14225,0.20070
2694.07072,0.20218
2695.99919,0.20283
2697.92765,0.20132
2699.85612,0.19954
2701.78459,0.19992
2703.71306,0.20208
2705.64153,0.20389
2707.57000,0.20397
2709.49847,0.20281
2711.42693,0.20224
2713.35540,0.20248
2715.28387,0.20185
2717.21234,0.20051
2719.14081,0.20062
2721.06928,0.20272
2722.99775,0.20409
2724.92622,0.20271
2726.85468,0.20138
2728.78315,0.20289
2730.71162,0.20510
2732.64009,0.20600
2734.56856,0.20717
2736.49703,0.20742
2738.42550,0.20508
2740.35396,0.20372
2742.28243,0.20427
2744.21090,0.20500
2746.13937,0.20714
2748.06784,0.21064
2749.99631,0.21315
2751.92478,0.21221
2753.85325,0.20925
2755.78171,0.20933
2757.71018,0.21325
2759.63865,0.21610
2761.56712,0.21382
2763.49559,0.20903
2765.42406,0.20655
2767.35253,0.20678
2769.28099,0.20783
2771.20946,0.20755
2773.13793,0.20618
2775.06640,0.20625
2776.99487,0.20690
2778.92334,0.20564
2780.85181,0.20181
2782.78028,0.19850
2784.70874,0.20083
2786.63721,0.20664
2788.56568,0.21037
2790.49415,0.20997
2792.42262,0.20687
2794.35109,0.20596
2796.27956,0.20877
2798.20802,0.21241
2800.13649,0.21312
2802.06496,0.21169
2803.99343,0.21190
2805.92190,0.21259
2807.85037,0.21282
2809.77884,0.21377
2811.70731,0.21458
2813.63577,0.21260
2815.56424,0.20758
2817.49271,0.20540
2819.42118,0.20813
2821.34965,0.21021
2823.27812,0.21109
2825.20659,0.21388
2827.13505,0.21557
2829.06352,0.21396
2830.99199,0.21333
2832.92046,0.21523
2834.84893,0.21518
2836.77740,0.21152
2838.70587,0.20809
2840.63433,0.20859
2842.56280,0.21067
2844.49127,0.20920
2846.41974,0.20615
2848.34821,0.20574
2850.27668,0.20761
2852.20515,0.21038
2854.13362,0.21321
2856.06208,0.21505
2857.99055,0.21495
2859.91902,0.21417
2861.84749,0.21435
2863.77596,0.21505
2865.70443,0.21626
2867.63290,0.21808
2869.56136,0.21833
2871.48983,0.21556
2873.41830,0.21307
2875.34677,0.21399
2877.27524,0.21657
2879.20371,0.21628
2881.13218,0.20889
2883.06065,0.20009
2884.98911,0.19992
2886.91758,0.20557
2888.84605,0.20962
2890.77452,0.21133
2892.70299,0.20962
2894.63146,0.20404
2896.55993,0.20050
2898.48839,0.20169
2900.41686,0.20520
2902.34533,0.20827
2904.27380,0.20605
2906.20227,0.20051
2908.13074,0.19816
2910.05921,0.19767
2911.98768,0.19658
2913.91614,0.19422
2915.84461,0.19083
2917.77308,0.19201
2919.70155,0.19992
2921.63002,0.21102
2923.55849,0.21825
2925.48696,0.21280
2927.41542,0.20102
2929.34389,0.19598
2931.27236,0.19950
2933.20083,0.20383
2935.12930,0.19567
2937.05777,0.18166
2938.98624,0.18583
2940.91471,0.20430
2942.84317,0.21455
2944.77164,0.20725
2946.70011,0.18976
2948.62858,0.18559
2950.55705,0.20159
2952.48552,0.21619
2954.41399,0.21449
2956.34245,0.19806
2958.27092,0.18749
2960.19939,0.19770
2962.12786,0.21214
2964.05633,0.21550
2965.98480,0.20607
2967.91327,0.19274
2969.84174,0.19399
2971.77020,0.20676
2973.69867,0.21352
2975.62714,0.20694
2977.55561,0.19416
2979.48408,0.19307
2981.41255,0.20555
2983.34102,0.21623
2985.26948,0.21376
2987.19795,0.20072
2989.12642,0.19672
2991.05489,0.20978
2992.98336,0.22254
2994.91183,0.22337
2996.84030,0.21544
2998.76877,0.20659
3000.69723,0.20470
3002.62570,0.20771
3004.55417,0.20836
3006.48264,0.20546
3008.41111,0.19988
3010.33958,0.18653
3012.26805,0.15661
3014.19651,0.11123
3016.12498,0.07860
3018.05345,0.09835
3019.98192,0.15779
3021.91039,0.20146
3023.83886,0.21405
3025.76733,0.21419
3027.69579,0.20974
3029.62426,0.20811
3031.55273,0.21502
3033.48120,0.22084
3035.40967,0.21904
3037.33814,0.21426
3039.26661,0.21349
3041.19508,0.21737
3043.12354,0.21845
3045.05201,0.21289
3046.98048,0.20397
3048.90895,0.19925
3050.83742,0.20088
3052.76589,0.20428
3054.69436,0.20178
3056.62282,0.19160
3058.55129,0.19106
3060.47976,0.20348
3062.40823,0.21159
3064.33670,0.20575
3066.26517,0.18977
3068.19364,0.18682
3070.12211,0.20301
3072.05057,0.21504
3073.97904,0.21029
3075.90751,0.19766
3077.83598,0.19487
3079.76445,0.19979
3081.69292,0.19813
3083.62139,0.18756
3085.54985,0.17962
3087.47832,0.19062
3089.40679,0.21056
3091.33526,0.21584
3093.26373,0.20236
3095.19220,0.19119
3097.12067,0.20038
3099.04914,0.21431
3100.97760,0.21357
3102.90607,0.19829
3104.83454,0.19135
3106.76301,0.20614
3108.69148,0.21802
3110.61995,0.21019
3112.54842,0.19638
3114.47688,0.19724
3116.40535,0.21235
3118.33382,0.22095
3120.26229,0.21543
3122.19076,0.20920
3124.11923,0.21396
3126.04770,0.22184
3127.97617,0.22199
3129.90463,0.21749
3131.83310,0.21687
3133.76157,0.21855
3135.69004,0.21453
3137.61851,0.20677
3139.54698,0.20255
3141.47545,0.20461
3143.40391,0.21182
3145.33238,0.22022
3147.26085,0.22107
3149.18932,0.21497
3151.11779,0.21337
3153.04626,0.21532
3154.97473,0.21416
3156.90320,0.21461
3158.83166,0.22215
3160.76013,0.22936
3162.68860,0.23108
3164.61707,0.22936
3166.54554,0.22304
3168.47401,0.21684
3170.40248,0.21440
3172.33094,0.21300
3174.25941,0.21471
3176.18788,0.21996
3178.11635,0.22415
3180.04482,0.22678
3181.97329,0.22809
3183.90176,0.22613
3185.83022,0.22542
3187.75869,0.22876
3189.68716,0.22834
3191.61563,0.22354
3193.54410,0.22400
3195.47257,0.22621
3197.40104,0.22090
3199.32951,0.21641
3201.25797,0.21901
3203.18644,0.22110
3205.11491,0.22284
3207.04338,0.22844
3208.97185,0.23091
3210.90032,0.22767
3212.82879,0.22562
3214.75725,0.22426
3216.68572,0.22004
3218.61419,0.21667
3220.54266,0.21774
3222.47113,0.22049
3224.39960,0.22139
3226.32807,0.22031
3228.25654,0.21994
3230.18500,0.22299
3232.11347,0.22831
3234.04194,0.23208
3235.97041,0.22840
3237.89888,0.21713
3239.82735,0.20805
3241.75582,0.20926
3243.68428,0.22144
3245.61275,0.23374
3247.54122,0.23382
3249.46969,0.22733
3251.39816,0.22542
3253.32663,0.22500
3255.25510,0.21907
3257.18357,0.21111
3259.11203,0.20559
3261.04050,0.20561
3262.96897,0.21166
3264.89744,0.21638
3266.82591,0.21896
3268.75438,0.22052
3270.68285,0.21918
3272.61131,0.22016
3274.53978,0.22196
3276.46825,0.21859
3278.39672,0.21699
3280.32519,0.22256
3282.25366,0.22336
3284.18213,0.21333
3286.11060,0.20842
3288.03906,0.21446
3289.96753,0.21960
3291.89600,0.22275
3293.82447,0.22799
3295.75294,0.23108
3297.68141,0.22727
3299.60988,0.21854
3301.53834,0.21235
3303.46681,0.21144
3305.39528,0.21270
3307.32375,0.21499
3309.25222,0.21811
3311.18069,0.21947
3313.10916,0.21704
3315.03763,0.21326
3316.96609,0.21134
3318.89456,0.21291
3320.82303,0.21834
3322.75150,0.22413
3324.67997,0.22818
3326.60844,0.22985
3328.53691,0.22660
3330.46537,0.22001
3332.39384,0.21447
3334.32231,0.21069
3336.25078,0.20895
3338.17925,0.21366
3340.10772,0.22138
3342.03619,0.22239
3343.96466,0.21852
3345.89312,0.21611
3347.82159,0.21552
3349.75006,0.21435
3351.67853,0.21286
3353.60700,0.21514
3355.53547,0.21974
3357.46394,0.22003
3359.39240,0.21875
3361.32087,0.22272
3363.24934,0.22777
3365.17781,0.22623
3367.10628,0.22071
3369.03475,0.21996
3370.96322,0.22384
3372.89168,0.22693
3374.82015,0.22610
3376.74862,0.21920
3378.67709,0.21283
3380.60556,0.21436
3382.53403,0.22084
3384.46250,0.22668
3386.39097,0.22833
3388.31943,0.22584
3390.24790,0.22131
3392.17637,0.21718
3394.10484,0.21941
3396.03331,0.22847
3397.96178,0.23198
3399.89025,0.22558
3401.81871,0.21949
3403.74718,0.21557
3405.67565,0.21035
3407.60412,0.20902
3409.53259,0.21260
3411.46106,0.21572
3413.38953,0.21911
3415.31800,0.22338
3417.24646,0.22617
3419.17493,0.22451
3421.10340,0.21801
3423.03187,0.21434
3424.96034,0.21671
3426.88881,0.21726
3428.81728,0.21250
3430.74574,0.21008
3432.67421,0.21152
3434.60268,0.21023
3436.53115,0.20651
3438.45962,0.20317
3440.38809,0.20159
3442.31656,0.20549
3444.24503,0.21454
3446.17349,0.21910
3448.10196,0.21423
3450.03043,0.20950
3451.95890,0.20998
3453.88737,0.20871
3455.81584,0.20402
3457.74431,0.20197
3459.67277,0.20136
3461.60124,0.19774
3463.52971,0.19454
3465.45818,0.19579
3467.38665,0.19912
3469.31512,0.19972
3471.24359,0.19624
3473.17206,0.19302
3475.10052,0.19464
3477.02899,0.19938
3478.95746,0.20282
3480.88593,0.20371
3482.81440,0.20212
3484.74287,0.19798
3486.67134,0.19457
3488.59980,0.19410
3490.52827,0.19157
3492.45674,0.18647
3494.38521,0.18657
3496.31368,0.19263
3498.24215,0.19739
3500.17062,0.19826
3502.09909,0.19549
3504.02755,0.18848
3505.95602,0.18314
3507.88449,0.18279
3509.81296,0.18306
3511.74143,0.18221
3513.66990,0.17950
3515.59837,0.17725
3517.52683,0.18101
3519.45530,0.18653
3521.38377,0.18906
3523.31224,0.19096
3525.24071,0.19062
3527.16918,0.18922
3529.09765,0.18983
3531.02611,0.18676
3532.95458,0.18102
3534.88305,0.18042
3536.81152,0.18100
3538.73999,0.17663
3540.66846,0.17447
3542.59693,0.17869
3544.52540,0.18179
3546.45386,0.17932
3548.38233,0.17769
3550.31080,0.18300
3552.23927,0.19075
3554.16774,0.19076
3556.09621,0.18629
3558.02468,0.18355
3559.95314,0.17846
3561.88161,0.17258
3563.81008,0.17588
3565.73855,0.18699
3567.66702,0.18630
3569.59549,0.17300
3571.52396,0.16520
3573.45243,0.16444
3575.38089,0.16578
3577.30936,0.16497
3579.23783,0.16320
3581.16630,0.16365
3583.09477,0.16849
3585.02324,0.17906
3586.95171,0.18491
3588.88017,0.17329
3590.80864,0.16111
3592.73711,0.15665
3594.66558,0.15508
3596.59405,0.15854
3598.52252,0.16700
3600.45099,0.17120
3602.37946,0.16719
3604.30792,0.16455
3606.23639,0.17052
3608.16486,0.17732
3610.09333,0.17493
3612.02180,0.17185
3613.95027,0.17083
3615.87874,0.16796
3617.80720,0.16706
3619.73567,0.16453
3621.66414,0.15834
3623.59261,0.15511
3625.52108,0.15699
3627.44955,0.16726
3629.37802,0.17608
3631.30649,0.16854
3633.23495,0.15761
3635.16342,0.14621
3637.09189,0.13743
3639.02036,0.13789
3640.94883,0.14375
3642.87730,0.14722
3644.80577,0.15358
3646.73423,0.17253
3648.66270,0.19574
3650.59117,0.18680
3652.51964,0.16592
3654.44811,0.16096
3656.37658,0.15825
3658.30505,0.14247
3660.23352,0.12818
3662.16198,0.12412
3664.09045,0.12612
3666.01892,0.13204
3667.94739,0.14371
3669.87586,0.15696
3671.80433,0.15842
3673.73280,0.15335
3675.66126,0.14692
3677.58973,0.14473
3679.51820,0.14637
3681.44667,0.14401
3683.37514,0.14005
3685.30361,0.14105
3687.23208,0.14735
3689.16055,0.15240
3691.08901,0.14858
3693.01748,0.14237
3694.94595,0.13812
3696.87442,0.13562
3698.80289,0.13847
3700.73136,0.14439
3702.65983,0.14173
3704.58829,0.13422
3706.51676,0.13545
3708.44523,0.14752
3710.37370,0.16328
3712.30217,0.16565
3714.23064,0.15244
3716.15911,0.14032
3718.08757,0.13575
3720.01604,0.13790
3721.94451,0.14335
3723.87298,0.14770
3725.80145,0.14549
3727.72992,0.13524
3729.65839,0.13039
3731.58686,0.14470
3733.51532,0.16914
3735.44379,0.17394
3737.37226,0.15784
3739.30073,0.14588
3741.22920,0.14571
3743.15767,0.15237
3745.08614,0.15302
3747.01460,0.14927
3748.94307,0.15684
3750.87154,0.16738
3752.80001,0.15596
3754.72848,0.14010
3756.65695,0.13693
3758.58542,0.14262
3760.51389,0.14264
3762.44235,0.13870
3764.37082,0.14063
3766.29929,0.14358
3768.22776,0.14442
3770.15623,0.14452
3772.08470,0.13784
3774.01317,0.12919
3775.94163,0.12568
3777.87010,0.12654
3779.79857,0.12824
3781.72704,0.12968
3783.65551,0.12877
3785.58398,0.12357
3787.51245,0.12031
3789.44092,0.12173
3791.36938,0.12648
3793.29785,0.13542
3795.22632,0.14394
3797.15479,0.14418
3799.08326,0.14117
3801.01173,0.14254
3802.94020,0.14168
3804.86866,0.14076
3806.79713,0.14118
3808.72560,0.13371
3810.65407,0.12384
3812.58254,0.12065
3814.51101,0.12433
3816.43948,0.12868
3818.36795,0.13258
3820.29641,0.14120
3822.22488,0.14704
3824.15335,0.14484
3826.08182,0.13894
3828.01029,0.13045
3829.93876,0.12932
3831.86723,0.14003
3833.79569,0.14981
3835.72416,0.15383
3837.65263,0.15689
3839.58110,0.15497
3841.50957,0.15000
3843.43804,0.14290
3845.36651,0.13400
3847.29498,0.12962
3849.22344,0.13115
3851.15191,0.13792
3853.08038,0.14913
3855.00885,0.14530
3856.93732,0.13247
3858.86579,0.12727
3860.79426,0.12887
3862.72272,0.13146
3864.65119,0.13090
3866.57966,0.12841
3868.50813,0.12394
3870.43660,0.11912
3872.36507,0.12247
3874.29354,0.12514
3876.22200,0.11839
3878.15047,0.11546
3880.07894,0.12434
3882.00741,0.13155
3883.93588,0.12728
3885.86435,0.11793
3887.79282,0.11438
3889.72129,0.11946
3891.64975,0.12687
3893.57822,0.12886
3895.50669,0.12514
3897.43516,0.11767
3899.36363,0.11072
3901.29210,0.11673
3903.22057,0.13185
3905.14903,0.13283
3907.07750,0.12047
3909.00597,0.11122
3910.93444,0.11141
3912.86291,0.11741
3914.79138,0.12019
3916.71985,0.11643
3918.64832,0.11069
3920.57678,0.10947
3922.50525,0.11412
3924.43372,0.11730
3926.36219,0.11396
3928.29066,0.11094
3930.21913,0.11164
3932.14760,0.11173
3934.07606,0.10965
3936.00453,0.10881
3937.93300,0.10958
3939.86147,0.11110
3941.78994,0.11298
3943.71841,0.10997
3945.64688,0.10337
3947.57535,0.10313
3949.50381,0.10630
3951.43228,0.10544
3953.36075,0.10436
3955.28922,0.10148
3957.21769,0.09596
3959.14616,0.09466
3961.07463,0.09718
3963.00309,0.10183
3964.93156,0.10757
3966.86003,0.11135
3968.78850,0.11606
3970.71697,0.12014
3972.64544,0.11622
3974.57391,0.10937
3976.50238,0.10669
3978.43084,0.10295
3980.35931,0.09810
3982.28778,0.09869
3984.21625,0.10212
3986.14472,0.10233
3988.07319,0.09943
3990.00166,0.09643
3991.93012,0.09570
3993.85859,0.09740
3995.78706,0.09856
3997.71553,0.09657
3999.64400,0.09280
4001.57247,0.09210
4003.50094,0.09526
4005.42941,0.09707
4007.35787,0.09789
4009.28634,0.10011
4011.21481,0.10149
4013.14328,0.10074
4015.07175,0.09819
4017.00022,0.09592
4018.92869,0.09381
4020.85715,0.09280
4022.78562,0.09647
4024.71409,0.10132
4026.64256,0.10361
4028.57103,0.10089
4030.49950,0.09365
4032.42797,0.09158
4034.35644,0.09423
4036.28490,0.09359
4038.21337,0.09196
4040.14184,0.09220
4042.07031,0.09614
4043.99878,0.10267
4045.92725,0.10275
4047.85572,0.09478
4049.78418,0.08910
4051.71265,0.08930
4053.64112,0.08886
4055.56959,0.08747
4057.49806,0.08951
4059.42653,0.09311
4061.35500,0.09341
4063.28346,0.09146
4065.21193,0.09291
4067.14040,0.09598
4069.06887,0.09547
4070.99734,0.09229
4072.92581,0.09037
4074.85428,0.09011
4076.78275,0.08818
4078.71121,0.08527
4080.63968,0.08458
4082.56815,0.08268
4084.49662,0.07460
4086.42509,0.06896
4088.35356,0.07443
4090.28203,0.07984
4092.21049,0.07719
4094.13896,0.07665
4096.06743,0.08269
4097.99590,0.08577
4099.92437,0.08193
4101.85284,0.07756
4103.78131,0.07570
4105.70978,0.07472
4107.63824,0.07558
4109.56671,0.07763
4111.49518,0.07845
4113.42365,0.08244
4115.35212,0.09071
4117.28059,0.09376
4119.20906,0.08766
4121.13752,0.07942
4123.06599,0.07560
4124.99446,0.07431
4126.92293,0.07217
4128.85140,0.07145
4130.77987,0.07224
4132.70834,0.07214
4134.63681,0.07086
4136.56527,0.07065
4138.49374,0.07448
4140.42221,0.07950
4142.35068,0.08078
4144.27915,0.07744
4146.20762,0.07411
4148.13609,0.07457
4150.06455,0.07324
4151.99302,0.06622
4153.92149,0.05919
4155.84996,0.05924
4157.77843,0.06570
4159.70690,0.07178
4161.63537,0.07418
4163.56384,0.07471
4165.49230,0.07441
4167.42077,0.07129
4169.34924,0.06554
4171.27771,0.05985
4173.20618,0.05591
4175.13465,0.05729
4177.06312,0.06450
4178.99158,0.06969
4180.92005,0.06915
4182.84852,0.06760
4184.77699,0.06760
4186.70546,0.06876
4188.63393,0.06856
4190.56240,0.06278
4192.49087,0.05597
4194.41933,0.05736
4196.34780,0.06286
4198.27627,0.06348
4200.20474,0.06211
4202.13321,0.06323
4204.06168,0.06684
4205.99015,0.07381
4207.91861,0.07886
4209.84708,0.07772
4211.77555,0.07686
4213.70402,0.07483
4215.63249,0.06636
4217.56096,0.06146
4219.48943,0.06303
4221.41789,0.05918
4223.34636,0.05016
4225.27483,0.04795
4227.20330,0.05439
4229.13177,0.05956
4231.06024,0.05734
4232.98871,0.05069
4234.91718,0.04704
4236.84564,0.05181
4238.77411,0.05723
4240.70258,0.05302
4242.63105,0.04574
4244.55952,0.04317
4246.48799,0.04508
4248.41646,0.05187
4250.34492,0.05546
4252.27339,0.05048
4254.20186,0.04929
4256.13033,0.05394
4258.05880,0.05185
4259.98727,0.04373
4261.91574,0.04079
4263.84421,0.04854
4265.77267,0.05769
4267.70114,0.05604
4269.62961,0.04720
4271.55808,0.03998
4273.48655,0.03699
4275.41502,0.03535
4277.34349,0.03236
4279.27195,0.03142
4281.20042,0.03445
4283.12889,0.04142
4285.05736,0.04844
4286.98583,0.04471
4288.91430,0.03541
4290.84277,0.03644
4292.77124,0.04432
4294.69970,0.04784
4296.62817,0.04614
4298.55664,0.04450
4300.48511,0.04283
4302.41358,0.03716
4304.34205,0.03384
4306.27052,0.03681
4308.19898,0.03695
4310.12745,0.03077
4312.05592,0.02636
4313.98439,0.02630
4315.91286,0.02575
4317.84133,0.02678
4319.76980,0.03377
4321.69827,0.04295
4323.62673,0.04743
4325.55520,0.04822
4327.48367,0.04953
4329.41214,0.04914
4331.34061,0.04524
4333.26908,0.04259
4335.19755,0.04346
4337.12601,0.03789
4339.05448,0.02399
4340.98295,0.01631
4342.91142,0.02020
4344.83989,0.02727
4346.76836,0.03169
4348.69683,0.03451
4350.62530,0.03368
4352.55376,0.02866
4354.48223,0.02783
4356.41070,0.03328
4358.33917,0.03355
4360.26764,0.02590
4362.19611,0.02309
4364.12458,0.02469
4366.05304,0.02454
4367.98151,0.02954
4369.90998,0.03559
4371.83845,0.03526
4373.76692,0.03489
4375.69539,0.03439
4377.62386,0.02761
4379.55232,0.01720
4381.48079,0.00912
4383.40926,0.00947
4385.33773,0.02079
4387.26620,0.02993
4389.19467,0.02798
4391.12314,0.02398
4393.05161,0.01946
4394.98007,0.01394
4396.90854,0.01301
4398.83701,0.01465
4400.76548,0.01689
4402.69395,0.01943
4404.62242,0.01735
4406.55089,0.01048
4408.47935,0.00656
4410.40782,0.00873
4412.33629,0.01189
4414.26476,0.01369
4416.19323,0.01900
4418.12170,0.02367
4420.05017,0.01787
4421.97864,0.00792
4423.90710,0.00389
4425.83557,0.00645
4427.76404,0.01345
4429.69251,0.02203
4431.62098,0.02348
4433.54945,0.01519
4435.47792,0.00879
4437.40638,0.00568
4439.33485,0.00369
4441.26332,0.00565
4443.19179,0.00703
4445.12026,0.00264
4447.04873,-0.00878
4448.97720,-0.01596
4450.90567,-0.00512
4452.83413,0.01181
4454.76260,0.01456
4456.69107,0.00959
4458.61954,0.01205
4460.54801,0.01421
4462.47648,0.00741
4464.40495,0.00252
4466.33341,0.00618
4468.26188,0.01094
4470.19035,0.01174
4472.11882,0.01464
4474.04729,0.01950
4475.97576,0.01811
4477.90423,0.01409
4479.83270,0.00901
4481.76116,0.00266
4483.68963,0.00522
4485.61810,0.01019
4487.54657,0.00795
4489.47504,0.00581
4491.40351,0.00334
4493.33198,0.00174
4495.26044,0.00406
4497.18891,0.00304
4499.11738,0.00127
4501.04585,0.00303
4502.97432,0.00617
4504.90279,0.01299
4506.83126,0.02024
4508.75973,0.01895
4510.68819,0.00969
4512.61666,0.00309
4514.54513,0.00248
4516.47360,0.00256
4518.40207,0.00164
4520.33054,0.00165
4522.25901,0.00742
4524.18747,0.01438
4526.11594,0.01178
4528.04441,0.00462
4529.97288,0.00320
4531.90135,0.00701
4533.82982,0.00958
4535.75829,0.00864
4537.68676,0.00605
4539.61522,0.00444
4541.54369,0.00728
4543.47216,0.00893
4545.40063,0.00429
4547.32910,0.00100
4549.25757,0.00115
4551.18604,0.00136
4553.11450,0.00194
4555.04297,0.00194
4556.97144,0.00284
4558.89991,0.00577
4560.82838,0.00458
4562.75685,-0.00096
4564.68532,-0.00254
4566.61378,-0.00384
4568.54225,-0.00918
4570.47072,-0.00602
4572.39919,0.00576
4574.32766,0.01231
4576.25613,0.01278
4578.18460,0.00965
4580.11307,0.00606
4582.04153,0.00773
4583.97000,0.01096
4585.89847,0.01067
4587.82694,0.00781
4589.75541,0.00673
4591.68388,0.01124
4593.61235,0.01708
4595.54081,0.01540
4597.46928,0.00761
4599.39775,0.00708
4601.32622,0.01050
4603.25469,-0.00176
4605.18316,-0.02093
4607.11163,-0.02331
4609.04010,-0.01410
4610.96856,-0.00522
4612.89703,-0.00065
4614.82550,-0.00109
4616.75397,0.00512
4618.68244,0.01893
4620.61091,0.01757
4622.53938,0.00070
4624.46784,-0.00899
4626.39631,-0.00777
4628.32478,-0.00148
4630.25325,0.00821
4632.18172,0.01158
4634.11019,0.00503
4636.03866,0.00390
4637.96713,0.00933
4639.89559,0.00799
4641.82406,0.00684
4643.75253,0.01375
4645.68100,0.01365
4647.60947,0.00194
4649.53794,-0.00470
4651.46641,-0.00109
4653.39487,0.00625
4655.32334,0.01312
4657.25181,0.01184
4659.18028,0.01004
4661.10875,0.02247
4663.03722,0.03094
4664.96569,0.02203
4666.89416,0.01068
4668.82262,-0.00131
4670.75109,-0.00796
4672.67956,0.00416
4674.60803,0.01830
4676.53650,0.02061
4678.46497,0.02031
4680.39344,0.01613
4682.32190,0.00224
4684.25037,-0.01216
4686.17884,-0.01568
4688.10731,-0.00820
4690.03578,0.00287
4691.96425,0.01140
4693.89272,0.01235
4695.82119,0.00546
4697.74965,-0.00384
4699.67812,-0.00888
4701.60659,-0.00078
4703.53506,0.01251
4705.46353,0.01307
4707.39200,0.00546
4709.32047,-0.00206
4711.24893,-0.00490
4713.17740,0.00420
4715.10587,0.01378
4717.03434,0.01149
4718.96281,0.00708
4720.89128,0.00750
4722.81975,0.01003
4724.74821,0.01434
4726.67668,0.01540
4728.60515,0.01050
4730.53362,0.00232
4732.46209,-0.00770
4734.39056,-0.01230
4736.31903,-0.00952
4738.24750,0.00085
4740.17596,0.01791
4742.10443,0.02555
4744.03290,0.02125
4745.96137,0.01874
4747.88984,0.02228
4749.81831,0.02678
4751.74678,0.02380
4753.67524,0.01379
4755.60371,0.00296
4757.53218,-0.00480
4759.46065,-0.00189
4761.38912,0.01094
4763.31759,0.01546
4765.24606,0.00376
4767.17453,-0.00601
4769.10299,-0.00214
4771.03146,0.00238
4772.95993,0.00312
4774.88840,0.00834
4776.81687,0.01069
4778.74534,0.00503
4780.67381,0.00788
4782.60227,0.02316
4784.53074,0.02993
4786.45921,0.02691
4788.38768,0.02707
4790.31615,0.01967
4792.24462,0.00234
4794.17309,0.00011
4796.10156,0.01634
4798.03002,0.02724
4799.95849,0.02250
4801.88696,0.01000
4803.81543,0.00621
4805.74390,0.01387
4807.67237,0.01523
4809.60084,0.00412
4811.52930,-0.01095
4813.45777,-0.01463
4815.38624,-0.00133
4817.31471,0.01455
4819.24318,0.02782
4821.17165,0.03858
4823.10012,0.03649
4825.02859,0.02000
4826.95705,0.00359
4828.88552,0.00489
4830.81399,0.01579
4832.74246,0.01472
4834.67093,0.00224
4836.59940,-0.00652
4838.52787,-0.00876
4840.45633,-0.01215
4842.38480,-0.00957
4844.31327,-0.00187
4846.24174,-0.00474
4848.17021,-0.00801
4850.09868,-0.00192
4852.02715,0.00462
4853.95562,0.01091
4855.88408,0.01491
4857.81255,0.01339
4859.74102,0.00717
4861.66949,-0.00460
4863.59796,-0.01182
4865.52643,-0.00521
4867.45490,0.00356
4869.38336,0.00618
4871.31183,0.00853
4873.24030,0.00837
4875.16877,0.00474
4877.09724,0.00838
4879.02571,0.01869
4880.95418,0.02189
4882.88265,0.00994
4884.81111,-0.00813
4886.73958,-0.01047
4888.66805,0.00338
4890.59652,0.01267
4892.52499,0.01015
4894.45346,0.00824
4896.38193,0.01038
4898.31039,0.00072
4900.23886,-0.01541
4902.16733,-0.02106
4904.09580,-0.01612
4906.02427,-0.00047
4907.95274,0.02002
4909.88121,0.03229
4911.80967,0.03777
4913.73814,0.04745
4915.66661,0.04816
4917.59508,0.03252
4919.52355,0.01872
4921.45202,0.01145
4923.38049,0.00593
4925.30896,-0.00334
4927.23742,-0.01363
4929.16589,-0.01304
4931.09436,-0.00381
4933.02283,0.00565
4934.95130,0.01111
4936.87977,0.00697
4938.80824,-0.00657
4940.73670,-0.01156
4942.66517,0.00236
4944.59364,0.02191
4946.52211,0.02785
4948.45058,0.01133
4950.37905,-0.00521
4952.30752,-0.00053
4954.23599,0.00918
4956.16445,0.00891
4958.09292,0.00513
4960.02139,0.01186
4961.94986,0.03035
4963.87833,0.03568
4965.80680,0.01629
4967.73527,-0.00318
4969.66373,-0.00072
4971.59220,0.01299
4973.52067,0.01581
4975.44914,0.00666
4977.37761,0.00252
4979.30608,0.01387
4981.23455,0.02188
4983.16302,0.00489
4985.09148,-0.01536
4987.01995,-0.01270
4988.94842,0.00319
4990.87689,0.01828
4992.80536,0.02323
4994.73383,0.01301
4996.66230,0.00831
4998.59076,0.01462
5000.51923,0.00924
5002.44770,-0.00307
5004.37617,-0.00108
5006.30464,0.01150
5008.23311,0.01798
5010.16158,0.01030
5012.09005,-0.00357
5014.01851,-0.01018
5015.94698,-0.00776
5017.87545,0.00084
5019.80392,0.01135
5021.73239,0.01614
5023.66086,0.01629
5025.58933,0.01644
5027.51779,0.02060
5029.44626,0.02940
5031.37473,0.03958
5033.30320,0.03980
5035.23167,0.01504
5037.16014,-0.01092
5039.08861,-0.01128
5041.01708,-0.00223
5042.94554,0.00514
5044.87401,0.01178
5046.80248,0.00933
5048.73095,-0.00200
5050.65942,-0.01123
5052.58789,-0.01547
5054.51636,-0.01969
5056.44482,-0.02727
5058.37329,-0.02831
5060.30176,-0.01302
5062.23023,0.00449
5064.15870,0.01842
5066.08717,0.02611
5068.01564,0.00831
5069.94410,-0.01555
5071.87257,-0.00541
5073.80104,0.01700
5075.72951,0.01141
5077.65798,-0.00120
5079.58645,0.00643
5081.51492,0.01915
5083.44339,0.02171
5085.37185,0.01984
5087.30032,0.01700
5089.22879,0.01517
5091.15726,0.02363
5093.08573,0.03492
5095.01420,0.03369
5096.94267,0.01681
5098.87113,-0.00144
5100.79960,-0.00073
5102.72807,0.01312
5104.65654,0.01837
5106.58501,0.00826
5108.51348,0.00306
5110.44195,0.01625
5112.37042,0.02792
5114.29888,0.02546
5116.22735,0.01705
5118.15582,0.01044
5120.08429,0.01047
5122.01276,0.01377
5123.94123,0.00754
5125.86970,-0.00906
5127.79816,-0.01743
5129.72663,-0.01353
5131.65510,-0.00718
5133.58357,0.00629
5135.51204,0.01831
5137.44051,0.01591
5139.36898,0.01034
5141.29745,0.00499
5143.22591,-0.00301
5145.15438,0.00058
5147.08285,0.02120
5149.01132,0.03351
5150.93979,0.02455
5152.86826,0.01301
5154.79673,0.01076
5156.72519,0.01532
5158.65366,0.01701
5160.58213,0.01581
5162.51060,0.01470
5164.43907,0.00992
5166.36754,0.01509
5168.29601,0.03505
5170.22448,0.04739
5172.15294,0.04654
5174.08141,0.04727
5176.00988,0.04764
5177.93835,0.04018
5179.86682,0.03004
5181.79529,0.03540
5183.72376,0.05179
5185.65222,0.04721
5187.58069,0.03201
5189.50916,0.02799
5191.43763,0.01414
5193.36610,-0.00761
5195.29457,-0.00517
5197.22304,0.01323
5199.15151,0.02666
5201.07997,0.03707
5203.00844,0.03955
5204.93691,0.03802
5206.86538,0.03016
5208.79385,0.01180
5210.72232,0.00845
5212.65079,0.01710
5214.57925,0.02138
5216.50772,0.03201
5218.43619,0.04516
5220.36466,0.03669
5222.29313,0.01889
5224.22160,0.01186
5226.15007,0.00263
5228.07854,-0.01824
5230.00700,-0.03255
5231.93547,-0.01618
5233.86394,0.02334
5235.79241,0.03909
5237.72088,0.02047
5239.64935,0.01587
5241.57782,0.04114
5243.50628,0.05610
5245.43475,0.04614
5247.36322,0.03541
5249.29169,0.02893
5251.22016,0.02762
5253.14863,0.03900
5255.07710,0.04882
5257.00556,0.04170
5258.93403,0.03245
5260.86250,0.03527
5262.79097,0.03829
5264.71944,0.03650
5266.64791,0.03436
5268.57638,0.03314
5270.50485,0.04615
5272.43331,0.05360
5274.36178,0.02428
5276.29025,-0.00770
5278.21872,0.00267
5280.14719,0.03317
5282.07566,0.04805
5284.00413,0.06017
5285.93259,0.07917
5287.86106,0.08411
5289.78953,0.07393
5291.71800,0.06886
5293.64647,0.06326
5295.57494,0.04024
5297.50341,0.01463
5299.43188,0.01077
5301.36034,0.02755
5303.28881,0.04385
5305.21728,0.04920
5307.14575,0.05389
5309.07422,0.05528
5311.00269,0.04770
5312.93116,0.03434
5314.85962,0.00601
5316.78809,-0.01602
5318.71656,-0.00269
5320.64503,0.01990
5322.57350,0.02444
5324.50197,0.01663
5326.43044,0.01511
5328.35891,0.02399
5330.28737,0.03498
5332.21584,0.03569
5334.14431,0.01228
5336.07278,-0.00495
5338.00125,0.00979
5339.92972,0.03073
5341.85819,0.04128
5343.78665,0.04651
5345.71512,0.05574
5347.64359,0.07979
5349.57206,0.11286
5351.50053,0.12431
5353.42900,0.08972
5355.35747,0.04771
5357.28594,0.03746
5359.21440,0.04092
5361.14287,0.03981
5363.07134,0.03790
5364.99981,0.03629
5366.92828,0.02900
5368.85675,0.02281
5370.78522,0.02191
5372.71368,0.01659
5374.64215,-0.00168
5376.57062,-0.01504
5378.49909,0.00623
5380.42756,0.04314
5382.35603,0.06471
5384.28450,0.07001
5386.21297,0.06596
5388.14143,0.04473
5390.06990,0.01768
5391.99837,0.01290
5393.92684,0.03138
5395.85531,0.04415
5397.78378,0.04781
5399.71225,0.05382
5401.64071,0.05741
5403.56918,0.05589
5405.49765,0.05990
5407.42612,0.07335
5409.35459,0.07843
5411.28306,0.05467
5413.21153,0.01310
5415.13999,0.00303
5417.06846,0.03856
5418.99693,0.08059
5420.92540,0.09325
5422.85387,0.08328
5424.78234,0.07448
5426.71081,0.05884
5428.63928,0.03043
5430.56774,0.01433
5432.49621,0.01559
5434.42468,0.02659
5436.35315,0.03686
5438.28162,0.03610
5440.21009,0.04367
5442.13856,0.06230
5444.06702,0.05594
5445.99549,0.02548
5447.92396,0.01454
5449.85243,0.03694
5451.78090,0.05712
5453.70937,0.05129
5455.63784,0.04375
5457.56631,0.06086
5459.49477,0.07998
5461.42324,0.07505
5463.35171,0.06708
5465.28018,0.07409
5467.20865,0.07473
5469.13712,0.07252
5471.06559,0.08135
5472.99405,0.07268
5474.92252,0.04093
5476.85099,0.03829
5478.77946,0.06497
5480.70793,0.06677
5482.63640,0.04185
5484.56487,0.02201
5486.49334,0.02306
5488.42180,0.03456
5490.35027,0.03612
5492.27874,0.04060
5494.20721,0.06222
5496.13568,0.07231
5498.06415,0.05081
5499.99262,0.02841
5501.92108,0.03697
5503.84955,0.06098
5505.77802,0.07934
5507.70649,0.07721
5509.63496,0.05180
5511.56343,0.03285
5513.49190,0.05285
5515.42037,0.07329
5517.34883,0.04426
5519.27730,0.01058
5521.20577,0.02197
5523.13424,0.05573
5525.06271,0.06527
5526.99118,0.05597
5528.91965,0.07129
5530.84811,0.09438
5532.77658,0.08112
5534.70505,0.06743
5536.63352,0.08578
5538.56199,0.09266
5540.49046,0.07639
5542.41893,0.06309
5544.34740,0.05539
5546.27586,0.05828
5548.20433,0.06314
5550.13280,0.06100
5552.06127,0.06186
5553.98974,0.06056
5555.91821,0.05211
5557.84668,0.03146
5559.77514,0.01425
5561.70361,0.02387
5563.63208,0.02887
5565.56055,0.00787
5567.48902,-0.00675
5569.41749,0.01284
5571.34596,0.05281
5573.27443,0.07261
5575.20289,0.06048
5577.13136,0.05561
5579.05983,0.07812
5580.98830,0.10063
5582.91677,0.09193
5584.84524,0.05678
5586.77371,0.04070
5588.70217,0.05782
5590.63064,0.06416
5592.55911,0.05677
5594.48758,0.06000
5596.41605,0.06347
5598.34452,0.06176
5600.27299,0.06261
5602.20145,0.05287
5604.12992,0.04513
5606.05839,0.06816
5607.98686,0.08651
5609.91533,0.05700
5611.84380,0.00712
5613.77227,-0.00546
5615.70074,0.03211
5617.62920,0.07716
5619.55767,0.08693
5621.48614,0.07825
5623.41461,0.07369
5625.34308,0.05611
5627.27155,0.03657
5629.20002,0.04386
5631.12848,0.05898
5633.05695,0.05437
5634.98542,0.04217
5636.91389,0.04272
5638.84236,0.06355
5640.77083,0.09586
5642.69930,0.10277
5644.62777,0.07251
5646.55623,0.03847
5648.48470,0.02469
5650.41317,0.02783
5652.34164,0.05209
5654.27011,0.07261
5656.19858,0.04924
5658.12705,0.01187
5660.05551,0.01710
5661.98398,0.06650
5663.91245,0.09449
5665.84092,0.08173
5667.76939,0.08220
5669.69786,0.09817
5671.62633,0.10810
5673.55480,0.10835
5675.48326,0.07966
5677.41173,0.03626
5679.34020,0.02714
5681.26867,0.04911
5683.19714,0.05370
5685.12561,0.03862
5687.05408,0.04742
5688.98254,0.07273
5690.91101,0.07718
5692.83948,0.07616
5694.76795,0.08549
5696.69642,0.08716
5698.62489,0.07553
5700.55336,0.07895
5702.48183,0.09782
5704.41029,0.07800
5706.33876,0.02570
5708.26723,0.01120
5710.19570,0.03472
5712.12417,0.05234
5714.05264,0.06909
5715.98111,0.09607
5717.90957,0.12540
5719.83804,0.14019
5721.76651,0.12182
5723.69498,0.09192
5725.62345,0.07175
5727.55192,0.05027
5729.48039,0.03721
5731.40886,0.05365
5733.33732,0.07915
5735.26579,0.07320
5737.19426,0.03905
5739.12273,0.02605
5741.05120,0.04153
5742.97967,0.04732
5744.90814,0.05293
5746.83660,0.08636
5748.76507,0.11393
5750.69354,0.11566
5752.62201,0.12659
5754.55048,0.13468
5756.47895,0.11968
5758.40742,0.10605
5760.33588,0.10968
5762.26435,0.13348
5764.19282,0.15529
5766.12129,0.15235
5768.04976,0.14756
5769.97823,0.16105
5771.90670,0.15850
5773.83517,0.12023
5775.76363,0.08918
5777.69210,0.08675
5779.62057,0.10644
5781.54904,0.11700
5783.47751,0.08061
5785.40598,0.03363
5787.33445,0.02398
5789.26291,0.02780
5791.19138,0.01649
5793.11985,0.00904
5795.04832,0.02321
5796.97679,0.04582
5798.90526,0.06697
5800.83373,0.08504
5802.76220,0.08025
5804.69066,0.05701
5806.61913,0.05903
5808.54760,0.08329
5810.47607,0.07897
5812.40454,0.04106
5814.33301,0.03560
5816.26148,0.08688
5818.18994,0.13014
5820.11841,0.12162
5822.04688,0.09209
5823.97535,0.06888
5825.90382,0.04853
5827.83229,0.02739
5829.76076,0.00898
5831.68923,0.00882
5833.61769,0.03701
5835.54616,0.07729
5837.47463,0.08578
5839.40310,0.05415
5841.33157,0.02849
5843.26004,0.02646
5845.18851,0.04026
5847.11697,0.07772
5849.04544,0.11393
5850.97391,0.10583
5852.90238,0.07700
5854.83085,0.05224
5856.75932,0.02283
5858.68779,-0.00377
5860.61626,0.00208
5862.54472,0.04899
5864.47319,0.07731
5866.40166,0.05249
5868.33013,0.01697
5870.25860,0.00318
5872.18707,0.00983
5874.11554,0.03080
5876.04400,0.05247
5877.97247,0.05014
5879.90094,0.04219
5881.82941,0.04779
5883.75788,0.04837
5885.68635,0.03470
5887.61482,-0.00191
5889.54329,-0.03460
5891.47175,-0.00842
5893.40022,0.05116
5895.32869,0.08043
5897.25716,0.08100
5899.18563,0.06521
5901.11410,0.04996
5903.04257,0.07573
5904.97103,0.09987
5906.89950,0.06849
5908.82797,0.02759
5910.75644,0.02455
5912.68491,0.03935
5914.61338,0.05612
5916.54185,0.06664
5918.47032,0.05189
5920.39878,0.02689
5922.32725,0.01580
5924.25572,0.01852
5926.18419,0.04629
5928.11266,0.08999
5930.04113,0.09682
5931.96960,0.07404
5933.89806,0.08291
5935.82653,0.12117
5937.75500,0.14107
5939.68347,0.12315
5941.61194,0.07473
5943.54041,0.01235
5945.46888,-0.02559
5947.39734,0.01679
5949.32581,0.10977
5951.25428,0.15558
5953.18275,0.16110
5955.11122,0.18353
5957.03969,0.20450
5958.96816,0.19060
5960.89663,0.17856
5962.82509,0.18020
5964.75356,0.14464
5966.68203,0.09168
5968.61050,0.06380
5970.53897,0.04605
5972.46744,0.04892
5974.39591,0.08441
5976.32437,0.10208
5978.25284,0.08376
5980.18131,0.07342
5982.10978,0.08639
5984.03825,0.09057
5985.96672,0.06448
5987.89519,0.02035
5989.82366,-0.01412
5991.75212,-0.02078
5993.68059,-0.01834
5995.60906,-0.02514
5997.53753,-0.02449
5999.46600,-0.00364
6001.39447,0.03811
6003.32294,0.06202
6005.25140,0.03388
6007.17987,0.02114
6009.10834,0.07493
6011.03681,0.11797
6012.96528,0.08662
6014.89375,0.03155
6016.82222,0.00558
6018.75069,0.03564
6020.67915,0.10122
6022.60762,0.12109
6024.53609,0.10586
6026.46456,0.09210
6028.39303,0.06047
6030.32150,0.02882
6032.24997,0.02765
6034.17843,0.04860
6036.10690,0.04992
6038.03537,0.00630
6039.96384,-0.01913
6041.89231,0.01812
6043.82078,0.07139
6045.74925,0.09812
6047.67772,0.10659
6049.60618,0.11848
6051.53465,0.12618
6053.46312,0.09767
6055.39159,0.04292
6057.32006,-0.00487
6059.24853,-0.03018
6061.17700,-0.01587
6063.10546,0.00683
6065.03393,-0.02524
6066.96240,-0.06350
6068.89087,-0.01606
6070.81934,0.07519
6072.74781,0.08621
6074.67628,0.01781
6076.60475,-0.01626
6078.53321,0.02488
6080.46168,0.09239
6082.39015,0.13571
6084.31862,0.14026
6086.24709,0.11413
6088.17556,0.09627
6090.10403,0.10185
6092.03249,0.09220
6093.96096,0.07557
6095.88943,0.07675
6097.81790,0.08209
6099.74637,0.06579
6101.67484,0.03482
6103.60331,0.03842
6105.53177,0.06578
6107.46024,0.08669
6109.38871,0.10593
6111.31718,0.10276
6113.24565,0.07347
6115.17412,0.05806
6117.10259,0.06819
6119.03106,0.07816
6120.95952,0.07034
6122.88799,0.03604
6124.81646,-0.01851
6126.74493,-0.05150
6128.67340,-0.03410
6130.60187,0.00439
6132.53034,0.04576
6134.45880,0.09872
6136.38727,0.12282
6138.31574,0.09705
6140.24421,0.05831
6142.17268,0.03117
6144.10115,0.05213
6146.02962,0.09497
6147.95809,0.08988
6149.88655,0.08194
6151.81502,0.12019
6153.74349,0.12262
6155.67196,0.06701
6157.60043,0.06658
6159.52890,0.13918
6161.45737,0.19472
6163.38583,0.20774
6165.31430,0.17858
6167.24277,0.11803
6169.17124,0.07447
6171.09971,0.04252
6173.02818,0.00180
6174.95665,0.01397
6176.88512,0.08218
6178.81358,0.12270
6180.74205,0.12649
6182.67052,0.10988
6184.59899,0.08272
6186.52746,0.07829
6188.45593,0.08928
6190.38440,0.08759
6192.31286,0.07735
6194.24133,0.06558
6196.16980,0.07288
6198.09827,0.10654
6200.02674,0.12906
6201.95521,0.12552
6203.88368,0.11359
6205.81215,0.10910
6207.74061,0.10132
6209.66908,0.07903
6211.59755,0.05524
6213.52602,0.02127
6215.45449,-0.00824
6217.38296,0.00188
6219.31143,0.03256
6221.23989,0.06588
6223.16836,0.09815
6225.09683,0.09297
6227.02530,0.04863
6228.95377,0.03113
6230.88224,0.06560
6232.81071,0.10886
6234.73918,0.11337
6236.66764,0.08121
6238.59611,0.07353
6240.52458,0.09432
6242.45305,0.05578
6244.38152,-0.01238
6246.30999,-0.01517
6248.23846,0.00061
6250.16692,-0.00252
6252.09539,0.00832
6254.02386,0.01102
6255.95233,0.00663
6257.88080,0.01175
6259.80927,-0.02279
6261.73774,-0.06531
6263.66621,-0.02353
6265.59467,0.04451
6267.52314,0.03287
6269.45161,0.00091
6271.38008,0.00343
6273.30855,-0.01490
6275.23702,-0.04643
6277.16549,0.00099
6279.09395,0.07372
6281.02242,0.07473
6282.95089,0.03243
6284.87936,0.00718
6286.80783,0.01294
6288.73630,0.04762
6290.66477,0.09422
6292.59323,0.11688
6294.52170,0.09077
6296.45017,0.02464
6298.37864,-0.02912
6300.30711,-0.03958
6302.23558,-0.00354
6304.16405,0.05685
6306.09252,0.07319
6308.02098,0.05873
6309.94945,0.08174
6311.87792,0.11099
6313.80639,0.11927
6315.73486,0.11866
6317.66333,0.10430
6319.59180,0.09455
6321.52026,0.08470
6323.44873,0.08141
6325.37720,0.11145
6327.30567,0.12599
6329.23414,0.08713
6331.16261,0.01882
6333.09108,-0.04798
6335.01955,-0.05912
6336.94801,0.00259
6338.87648,0.06914
6340.80495,0.09482
6342.73342,0.09095
6344.66189,0.07693
6346.59036,0.05881
6348.51883,0.00015
6350.44729,-0.09001
6352.37576,-0.09011
6354.30423,0.02644
6356.23270,0.13900
6358.16117,0.16977
6360.08964,0.14730
6362.01811,0.09388
6363.94658,0.02524
6365.87504,0.00912
6367.80351,0.02470
6369.73198,-0.00134
6371.66045,-0.03216
6373.58892,-0.03123
6375.51739,-0.02882
6377.44586,-0.03178
6379.37432,-0.02497
6381.30279,0.01360
6383.23126,0.09165
6385.15973,0.14034
6387.08820,0.08949
6389.01667,-0.00305
6390.94514,-0.03320
6392.87361,-0.05493
6394.80207,-0.09617
6396.73054,-0.03112
6398.65901,0.10163
6400.58748,0.16981
6402.51595,0.15235
6404.44442,0.12993
6406.37289,0.14267
6408.30135,0.15319
6410.22982,0.09981
6412.15829,0.01786
6414.08676,0.00040
6416.01523,0.01903
6417.94370,-0.00650
6419.87217,-0.05767
6421.80064,-0.05011
6423.72910,-0.00307
6425.65757,0.02903
6427.58604,0.08431
6429.51451,0.17178
6431.44298,0.20460
6433.37145,0.15484
6435.29992,0.07856
6437.22838,0.03414
6439.15685,0.02901
6441.08532,0.00534
6443.01379,-0.02217
6444.94226,-0.00042
6446.87073,0.03718
6448.79920,0.05115
6450.72766,0.04995
6452.65613,0.05415
6454.58460,0.06814
6456.51307,0.09392
6458.44154,0.10580
6460.37001,0.07578
6462.29848,0.04421
6464.22695,0.04110
6466.15541,0.01640
6468.08388,-0.02141
6470.01235,0.02082
6471.94082,0.12311
6473.86929,0.13916
6475.79776,0.04540
6477.72623,-0.05388
6479.65469,-0.09997
6481.58316,-0.10249
6483.51163,-0.10156
6485.44010,-0.09697
6487.36857,-0.04554
6489.29704,0.04149
6491.22551,0.08505
6493.15398,0.04737
6495.08244,0.00784
6497.01091,-0.00034
6498.93938,-0.03052
6500.86785,-0.06571
6502.79632,-0.02356
6504.72479,0.08051
6506.65326,0.16619
6508.58172,0.18591
6510.51019,0.16690
6512.43866,0.15343
6514.36713,0.10134
6516.29560,0.01508
6518.22407,-0.02338
6520.15254,-0.01080
6522.08101,0.01361
6524.00947,0.03968
6525.93794,0.05753
6527.86641,0.06746
6529.79488,0.12665
6531.72335,0.19198
6533.65182,0.15954
6535.58029,0.11471
6537.50875,0.12780
6539.43722,0.10983
6541.36569,0.04645
6543.29416,0.03996
6545.22263,0.09042
6547.15110,0.08003
6549.07957,0.00922
6551.00804,-0.02777
6552.93650,-0.04084
6554.86497,-0.06480
6556.79344,-0.06839
6558.72191,-0.05188
6560.65038,0.02291
6562.57885,0.13344
6564.50732,0.13805
6566.43578,0.08404
6568.36425,0.08954
6570.29272,0.06343
6572.22119,0.00380
6574.14966,0.03423
6576.07813,0.10054
6578.00660,0.07874
6579.93507,0.00872
6581.86353,-0.02338
6583.79200,0.01059
6585.72047,0.08094
6587.64894,0.07604
6589.57741,0.00820
6591.50588,0.00210
6593.43435,0.04747
6595.36281,0.06557
6597.29128,0.05604
6599.21975,0.07821
6601.14822,0.14498
6603.07669,0.16761
6605.00516,0.12079
6606.93363,0.04657
6608.86210,0.00777
6610.79056,0.03337
6612.71903,0.06645
6614.64750,0.05794
6616.57597,0.03183
6618.50444,0.03365
6620.43291,0.00612
6622.36138,-0.07517
6624.28984,-0.06301
6626.21831,0.06000
6628.14678,0.13980
6630.07525,0.12142
6632.00372,0.05057
6633.93219,0.01003
6635.86066,0.04059
6637.78912,0.06334
6639.71759,0.06291
6641.64606,0.07004
6643.57453,0.06654
6645.50300,0.05426
6647.43147,0.03975
6649.35994,-0.00197
6651.28841,-0.05200
6653.21687,-0.06906
6655.14534,-0.07831
6657.07381,-0.07994
6659.00228,-0.03649
6660.93075,-0.00316
6662.85922,-0.03316
6664.78769,-0.05638
6666.71615,-0.00868
6668.64462,0.06257
6670.57309,0.13168
6672.50156,0.17865
6674.43003,0.14020
6676.35850,0.07377
6678.28697,0.05438
6680.21544,0.09989
6682.14390,0.18774
6684.07237,0.21943
6686.00084,0.14939
6687.92931,0.05354
6689.85778,-0.00038
6691.78625,-0.02329
6693.71472,-0.04034
6695.64318,-0.03123
6697.57165,0.01502
6699.50012,0.05603
6701.42859,0.05315
6703.35706,0.01910
6705.28553,0.04477
6707.21400,0.15882
6709.14247,0.21057
6711.07093,0.14495
6712.99940,0.06441
6714.92787,0.01419
6716.85634,0.01622
6718.78481,0.04582
6720.71328,0.08939
6722.64175,0.18244
6724.57021,0.21160
6726.49868,0.16152
6728.42715,0.15318
6730.35562,0.17126
6732.28409,0.16216
6734.21256,0.13168
6736.14103,0.10937
6738.06950,0.11499
6739.99796,0.10351
6741.92643,0.05722
6743.85490,0.05287
6745.78337,0.08880
6747.71184,0.10836
6749.64031,0.11078
6751.56878,0.09298
6753.49724,0.05548
6755.42571,0.06774
6757.35418,0.16501
6759.28265,0.24533
6761.21112,0.19015
6763.13959,0.07804
6765.06806,0.03829
6766.99653,0.07895
6768.92499,0.09519
6770.85346,0.03342
6772.78193,-0.00921
6774.71040,0.03318
6776.63887,0.09729
6778.56734,0.07682
6780.49581,-0.00558
6782.42427,-0.00655
6784.35274,0.07746
6786.28121,0.10734
6788.20968,0.08451
6790.13815,0.08450
6792.06662,0.08959
6793.99509,0.03496
6795.92355,-0.01897
6797.85202,0.04649
6799.78049,0.18352
6801.70896,0.24912
6803.63743,0.17681
6805.56590,0.03469
6807.49437,-0.07711
6809.42284,-0.14863
6811.35130,-0.15499
6813.27977,-0.07418
6815.20824,0.01438
6817.13671,0.07021
6819.06518,0.11227
6820.99365,0.14631
6822.92212,0.12867
6824.85058,0.08706
6826.77905,0.08234
6828.70752,0.04701
6830.63599,-0.03055
6832.56446,-0.12062
6834.49293,-0.20255
6836.42140,-0.17048
6838.34987,-0.04537
6840.27833,0.04203
6842.20680,0.06621
6844.13527,0.02879
6846.06374,-0.03604
6847.99221,-0.01014
6849.92068,0.08947
6851.84915,0.06843
6853.77761,-0.04153
6855.70608,-0.02931
6857.63455,0.09013
6859.56302,0.13551
6861.49149,0.10022
6863.41996,0.05049
6865.34843,0.06144
6867.27690,0.07819
6869.20536,-0.02308
6871.13383,-0.11081
6873.06230,-0.03770
6874.99077,0.07686
6876.91924,0.15417
6878.84771,0.17510
6880.77618,0.06796
6882.70464,-0.00314
6884.63311,0.09284
6886.56158,0.19003
6888.49005,0.17645
6890.41852,0.06384
6892.34699,-0.06693
6894.27546,-0.09564
6896.20393,-0.06819
6898.13239,-0.06403
6900.06086,-0.12676
6901.98933,-0.22609
6903.91780,-0.22494
6905.84627,-0.15558
6907.77474,-0.15488
6909.70321,-0.16760
6911.63167,-0.15817
6913.56014,-0.13562
6915.48861,-0.07079
6917.41708,0.02838
6919.34555,0.11495
6921.27402,0.15091
6923.20249,0.12782
6925.13096,0.05283
6927.05942,0.00004
6928.98789,0.05582
6930.91636,0.15769
6932.84483,0.15624
6934.77330,0.05980
6936.70177,-0.03952
6938.63024,-0.09329
6940.55870,-0.06415
6942.48717,0.04817
6944.41564,0.18409
6946.34411,0.29658
6948.27258,0.35535
6950.20105,0.33988
6952.12952,0.31215
6954.05799,0.31164
6955.98645,0.23508
6957.91492,0.12421
6959.84339,0.12711
6961.77186,0.15607
6963.70033,0.08324
6965.62880,-0.01350
6967.55727,-0.03674
6969.48573,0.00826
6971.41420,0.04132
6973.34267,-0.01619
6975.27114,-0.11909
6977.19961,-0.09470
6979.12808,0.04525
6981.05655,0.09651
6982.98501,0.02358
6984.91348,0.04080
6986.84195,0.15612
6988.77042,0.15787
6990.69889,0.06991
6992.62736,0.03166
6994.55583,0.01450
6996.48430,-0.04279
6998.41276,-0.08613
7000.34123,-0.04621
7002.26970,-0.00571
7004.19817,0.00505
7006.12664,0.05847
7008.05511,0.09913
7009.98358,0.06773
7011.91204,0.05049
7013.84051,0.04571
7015.76898,-0.00582
7017.69745,-0.03075
7019.62592,-0.02212
7021.55439,-0.05464
7023.48286,-0.13953
7025.41133,-0.18609
7027.33979,-0.06736
7029.26826,0.15562
7031.19673,0.31252
7033.12520,0.36431
7035.05367,0.25369
7036.98214,0.10373
7038.91061,0.04617
7040.83907,0.03062
7042.76754,0.05178
7044.69601,0.13293
7046.62448,0.21288
7048.55295,0.24892
7050.48142,0.26825
7052.40989,0.26356
7054.33836,0.16956
7056.26682,0.06709
7058.19529,0.14452
7060.12376,0.29170
7062.05223,0.26152
7063.98070,0.12215
7065.90917,0.09955
7067.83764,0.13631
7069.76610,0.09984
7071.69457,0.02709
7073.62304,0.01111
7075.55151,0.03537
7077.47998,0.02674
7079.40845,-0.03136
7081.33692,-0.06654
7083.26539,-0.04439
7085.19385,0.02948
7087.12232,0.17105
7089.05079,0.27097
7090.97926,0.24569
7092.90773,0.13517
7094.83620,0.04753
7096.76467,0.04441
7098.69313,-0.00297
7100.62160,-0.13317
7102.55007,-0.19305
7104.47854,-0.08046
7106.40701,0.11380
7108.33548,0.17429
7110.26395,0.15739
7112.19242,0.15013
7114.12088,0.09218
7116.04935,-0.01756
7117.97782,-0.12526
7119.90629,-0.12931
7121.83476,-0.03186
7123.76323,-0.01403
7125.69170,-0.10696
7127.62016,-0.12597
7129.54863,-0.04360
7131.47710,-0.05361
7133.40557,-0.19372
7135.33404,-0.25431
7137.26251,-0.16167
7139.19098,-0.09468
7141.11944,-0.16686
7143.04791,-0.21932
7144.97638,-0.12364
7146.90485,0.00102
7148.83332,0.03283
7150.76179,-0.00699
7152.69026,0.02563
7154.61873,0.24585
7156.54719,0.35849
7158.47566,0.18707
7160.40413,0.02177
7162.33260,0.04734
7164.26107,0.04613
7166.18954,-0.04869
7168.11801,-0.02840
7170.04647,0.06912
7171.97494,0.08031
7173.90341,0.06185
7175.83188,0.07831
7177.76035,0.06084
7179.68882,-0.01668
7181.61729,-0.01919
7183.54576,0.05851
7185.47422,0.04144
7187.40269,-0.04157
7189.33116,-0.15174
7191.25963,-0.17706
7193.18810,-0.00716
7195.11657,0.12975
7197.04504,0.07888
7198.97350,0.01703
7200.90197,0.08040
7202.83044,0.11777
7204.75891,-0.03400
7206.68738,-0.13757
7208.61585,-0.00815
7210.54432,0.14367
7212.47279,0.15913
7214.40125,0.15789
7216.32972,0.32266
7218.25819,0.50287
7220.18666,0.38330
7222.11513,0.17936
7224.04360,0.11263
7225.97207,0.13975
7227.90053,0.12588
7229.82900,0.10285
7231.75747,0.13982
7233.68594,0.12590
7235.61441,0.01699
7237.54288,-0.11421
7239.47135,-0.17124
7241.39982,-0.11695
7243.32828,-0.00127
7245.25675,0.11401
7247.18522,0.21389
7249.11369,0.24755
7251.04216,0.21776
7252.97063,0.23472
7254.89910,0.26500
7256.82756,0.15631
7258.75603,-0.02446
7260.68450,-0.09376
7262.61297,-0.03038
7264.54144,-0.05456
7266.46991,-0.09826
7268.39838,-0.07002
7270.32685,-0.07746
7272.25531,-0.06649
7274.18378,0.09994
7276.11225,0.24345
7278.04072,0.21726
7279.96919,0.07718
7281.89766,0.09762
7283.82613,0.29996
7285.75459,0.46849
7287.68306,0.47908
7289.61153,0.32599
7291.54000,0.10727
7293.46847,0.00035
7295.39694,0.00229
7297.32541,-0.03739
7299.25387,-0.12101
7301.18234,-0.10520
7303.11081,0.06660
7305.03928,0.22595
7306.96775,0.28018
7308.89622,0.31972
7310.82469,0.29925
7312.75316,0.22303
7314.68162,0.20057
7316.61009,0.18132
7318.53856,0.08327
7320.46703,0.03533
7322.39550,0.01692
7324.32397,-0.00719
7326.25244,0.07275
7328.18090,0.14483
7330.10937,0.12764
7332.03784,0.20619
7333.96631,0.20836
7335.89478,0.01242
7337.82325,-0.14054
7339.75172,-0.01281
7341.68019,0.17326
7343.60865,0.21198
7345.53712,0.28027
7347.46559,0.24405
7349.39406,-0.04681
7351.32253,-0.23497
7353.25100,-0.14223
7355.17947,-0.01514
7357.10793,-0.02682
7359.03640,-0.05053
7360.96487,0.10887
7362.89334,0.16206
7364.82181,-0.03231
7366.75028,-0.20006
7368.67875,-0.19093
7370.60722,-0.05405
7372.53568,0.12541
7374.46415,0.30372
7376.39262,0.32234
7378.32109,0.21149
7380.24956,0.17267
7382.17803,0.26728
7384.10650,0.40662
7386.03496,0.41192
7387.96343,0.18129
7389.89190,-0.06076
7391.82037,-0.07420
7393.74884,0.10840
7395.67731,0.26757
7397.60578,0.29561
7399.53425,0.20801
7401.46271,0.00216
7403.39118,-0.14664
7405.31965,-0.05983
7407.24812,0.04734
7409.17659,0.03736
7411.10506,0.03571
7413.03353,0.13962
7414.96199,0.28214
7416.89046,0.39074
7418.81893,0.38822
7420.74740,0.21301
7422.67587,0.12066
7424.60434,0.17206
7426.53281,0.26315
7428.46128,0.37631
7430.38974,0.36731
7432.31821,0.11743
7434.24668,-0.18403
7436.17515,-0.33828
7438.10362,-0.27761
7440.03209,-0.06435
7441.96056,0.03596
7443.88902,-0.11770
7445.81749,-0.18021
7447.74596,-0.08185
7449.67443,-0.03221
7451.60290,0.05981
7453.53137,0.15869
7455.45984,0.12498
7457.38831,0.06105
7459.31677,0.00882
7461.24524,0.02824
7463.17371,0.19001
7465.10218,0.38748
7467.03065,0.40165
7468.95912,0.27751
7470.88759,0.19779
7472.81605,0.23079
7474.74452,0.37014
7476.67299,0.44051
7478.60146,0.26040
7480.52993,-0.02489
7482.45840,-0.19350
7484.38687,-0.11195
7486.31533,0.05373
7488.24380,0.05301
7490.17227,0.02460
7492.10074,0.09694
7494.02921,0.17199
7495.95768,0.30823
7497.88615,0.55492
