399.19301,1.84425
401.12148,-0.34525
403.04995,-0.04030
404.97842,-0.07232
406.90689,-0.13770
408.83536,-0.01860
410.76382,0.11305
412.69229,0.05811
414.62076,0.04881
416.54923,0.17877
418.47770,0.13576
420.40617,-0.12640
422.33464,-0.05871
424.26311,0.10011
426.19157,0.02567
428.12004,-0.13630
430.04851,-0.21489
431.97698,-0.17148
433.90545,-0.07677
435.83392,0.02511
437.76239,0.11775
439.69085,0.17958
441.61932,0.17683
443.54779,0.16548
445.47626,0.17885
447.40473,0.08535
449.33320,0.00047
451.26167,0.08830
453.19013,0.18660
455.11860,0.19756
457.04707,0.18901
458.97554,0.17266
460.90401,0.15534
462.83248,0.10963
464.76095,0.00895
466.68942,-0.04638
468.61788,0.01351
470.54635,0.10927
472.47482,0.13861
474.40329,0.12390
476.33176,0.10229
478.26023,0.03750
480.18870,-0.03333
482.11716,-0.06474
484.04563,-0.07925
485.97410,-0.09642
487.90257,-0.05583
489.83104,0.02786
491.75951,0.08936
493.68798,0.13416
495.61645,0.18157
497.54491,0.15872
499.47338,0.05534
501.40185,-0.02699
503.33032,-0.05333
505.25879,-0.06626
507.18726,-0.07641
509.11573,-0.06074
511.04419,-0.01512
512.97266,0.05945
514.90113,0.12305
516.82960,0.13148
518.75807,0.10001
520.68654,0.05605
522.61501,0.03180
524.54348,0.05852
526.47194,0.08675
528.40041,0.06776
530.32888,0.05515
532.25735,0.03846
534.18582,0.02064
536.11429,0.06840
538.04276,0.12604
539.97122,0.11580
541.89969,0.07313
543.82816,0.02295
545.75663,-0.02572
547.68510,-0.01366
549.61357,0.21766
551.54204,1.13298
553.47051,2.12416
555.39897,1.70602
557.32744,0.48849
559.25591,-0.01494
561.18438,-0.01511
563.11285,0.01643
565.04132,0.05856
566.96979,0.09462
568.89825,0.09996
570.82672,0.07742
572.75519,0.04949
574.68366,0.01780
576.61213,0.00324
578.54060,0.00979
580.46907,0.02634
582.39754,0.03467
584.32600,0.03403
586.25447,0.03345
588.18294,0.03115
590.11141,0.03300
592.03988,0.05933
593.96835,0.09646
595.89682,0.09690
597.82528,0.07752
599.75375,0.07061
601.68222,0.06620
603.61069,0.05198
605.53916,0.06061
607.46763,0.08550
609.39610,0.07051
611.32456,0.02648
613.25303,-0.01147
615.18150,-0.01842
617.10997,0.02410
619.03844,0.07742
620.96691,0.09381
622.89538,0.08598
624.82385,0.07823
626.75231,0.08420
628.68078,0.09367
630.60925,0.07508
632.53772,0.04966
634.46619,0.06031
636.39466,0.09584
638.32313,0.11753
640.25159,0.11845
642.18006,0.12091
644.10853,0.12134
646.03700,0.11228
647.96547,0.10822
649.89394,0.10497
651.82241,0.09208
653.75088,0.08026
655.67934,0.07199
657.60781,0.06183
659.53628,0.05474
661.46475,0.07221
663.39322,0.11007
665.32169,0.13930
667.25016,0.15163
669.17862,0.13772
671.10709,0.11825
673.03556,0.10883
674.96403,0.10073
676.89250,0.09012
678.82097,0.09164
680.74944,0.11111
682.67791,0.11414
684.60637,0.10568
686.53484,0.11947
688.46331,0.13224
690.39178,0.11945
692.32025,0.10733
694.24872,0.11243
696.17719,0.11839
698.10565,0.10662
700.03412,0.08962
701.96259,0.09318
703.89106,0.10954
705.81953,0.11649
707.74800,0.12720
709.67647,0.20267
711.60494,0.29341
713.53340,0.25104
715.46187,0.14238
717.39034,0.11126
719.31881,0.11476
721.24728,0.09252
723.17575,0.06819
725.10422,0.06928
727.03268,0.08116
728.96115,0.08393
730.88962,0.08296
732.81809,0.08647
734.74656,0.09447
736.67503,0.09621
738.60350,0.08951
740.53197,0.08984
742.46043,0.09955
744.38890,0.10088
746.31737,0.09566
748.24584,0.09995
750.17431,0.10044
752.10278,0.08537
754.03125,0.07440
755.95971,0.08129
757.88818,0.09520
759.81665,0.10009
761.74512,0.09396
763.67359,0.08644
765.60206,0.08504
767.53053,0.09513
769.45900,0.11007
771.38746,0.10863
773.31593,0.09627
775.24440,0.10036
777.17287,0.11121
779.10134,0.10167
781.02981,0.08637
782.95828,0.09037
784.88674,0.10420
786.81521,0.10649
788.74368,0.09297
790.67215,0.08400
792.60062,0.09235
794.52909,0.09342
796.45756,0.07900
798.38602,0.07928
800.31449,0.09827
802.24296,0.10911
804.17143,0.10282
806.09990,0.09641
808.02837,0.10008
809.95684,0.10493
811.88531,0.09862
813.81377,0.08651
815.74224,0.08412
817.67071,0.09228
819.59918,0.10142
821.52765,0.10894
823.45612,0.12107
825.38459,0.12918
827.31305,0.12775
829.24152,0.12776
831.16999,0.12046
833.09846,0.10645
835.02693,0.10374
836.95540,0.10046
838.88387,0.08662
840.81234,0.08472
842.74080,0.10371
844.66927,0.12271
846.59774,0.12617
848.52621,0.12474
850.45468,0.12918
852.38315,0.12928
854.31162,0.12124
856.24008,0.11250
858.16855,0.10419
860.09702,0.10439
862.02549,0.11897
863.95396,0.12992
865.88243,0.12500
867.81090,0.11436
869.73937,0.10467
871.66783,0.10044
873.59630,0.10552
875.52477,0.10974
877.45324,0.10638
879.38171,0.10806
881.31018,0.11840
883.23865,0.11827
885.16711,0.10146
887.09558,0.08847
889.02405,0.09045
890.95252,0.09483
892.88099,0.09493
894.80946,0.09883
896.73793,0.11092
898.66640,0.12014
900.59486,0.11975
902.52333,0.11923
904.45180,0.12040
906.38027,0.12185
908.30874,0.12771
910.23721,0.13290
912.16568,0.12754
914.09414,0.11273
916.02261,0.10591
917.95108,0.11556
919.87955,0.12655
921.80802,0.13153
923.73649,0.13190
925.66496,0.12586
927.59343,0.12185
929.52189,0.12269
931.45036,0.12320
933.37883,0.12319
935.30730,0.12162
937.23577,0.11711
939.16424,0.10667
941.09271,0.09464
943.02117,0.08902
944.94964,0.09144
946.87811,0.10348
948.80658,0.11802
950.73505,0.12175
952.66352,0.11588
954.59199,0.11104
956.52045,0.10968
958.44892,0.11171
960.37739,0.11797
962.30586,0.12544
964.23433,0.13064
966.16280,0.12852
968.09127,0.11623
970.01974,0.10118
971.94820,0.09364
973.87667,0.09677
975.80514,0.10941
977.73361,0.12394
979.66208,0.13352
981.59055,0.13465
983.51902,0.12502
985.44748,0.11777
987.37595,0.12254
989.30442,0.12982
991.23289,0.13470
993.16136,0.13522
995.08983,0.12696
997.01830,0.11821
998.94677,0.11439
1000.87523,0.11061
1002.80370,0.10956
1004.73217,0.11268
1006.66064,0.11171
1008.58911,0.10513
1010.51758,0.10379
1012.44605,0.10913
1014.37451,0.11284
1016.30298,0.11429
1018.23145,0.11521
1020.15992,0.11775
1022.08839,0.11843
1024.01686,0.11330
1025.94533,0.12233
1027.87380,0.15264
1029.80226,0.16908
1031.73073,0.15694
1033.65920,0.13881
1035.58767,0.13065
1037.51614,0.13119
1039.44461,0.13104
1041.37308,0.13443
1043.30154,0.13855
1045.23001,0.13237
1047.15848,0.12718
1049.08695,0.12859
1051.01542,0.13511
1052.94389,0.14913
1054.87236,0.15332
1056.80083,0.13977
1058.72929,0.13122
1060.65776,0.13163
1062.58623,0.12758
1064.51470,0.12231
1066.44317,0.12416
1068.37164,0.13379
1070.30011,0.14154
1072.22857,0.14094
1074.15704,0.13208
1076.08551,0.11937
1078.01398,0.11686
1079.94245,0.12614
1081.87092,0.13184
1083.79939,0.12466
1085.72786,0.11153
1087.65632,0.10835
1089.58479,0.11815
1091.51326,0.12781
1093.44173,0.13473
1095.37020,0.14185
1097.29867,0.14015
1099.22714,0.13347
1101.15560,0.13401
1103.08407,0.13703
1105.01254,0.13655
1106.94101,0.13713
1108.86948,0.13940
1110.79795,0.13784
1112.72642,0.13516
1114.65489,0.13749
1116.58335,0.13895
1118.51182,0.13393
1120.44029,0.13232
1122.36876,0.14115
1124.29723,0.15039
1126.22570,0.15126
1128.15417,0.14955
1130.08263,0.14677
1132.01110,0.13719
1133.93957,0.12787
1135.86804,0.12619
1137.79651,0.12747
1139.72498,0.12773
1141.65345,0.12912
1143.58191,0.13334
1145.51038,0.13769
1147.43885,0.14414
1149.36732,0.15323
1151.29579,0.15443
1153.22426,0.14523
1155.15273,0.13506
1157.08120,0.12944
1159.00966,0.12969
1160.93813,0.13576
1162.86660,0.14192
1164.79507,0.14528
1166.72354,0.14790
1168.65201,0.14803
1170.58048,0.14628
1172.50894,0.14677
1174.43741,0.14718
1176.36588,0.14097
1178.29435,0.13086
1180.22282,0.12693
1182.15129,0.13313
1184.07976,0.13464
1186.00823,0.12565
1187.93669,0.13254
1189.86516,0.14616
1191.79363,0.14003
1193.72210,0.13425
1195.65057,0.13685
1197.57904,0.13657
1199.50751,0.13687
1201.43597,0.13963
1203.36444,0.14123
1205.29291,0.14326
1207.22138,0.14872
1209.14985,0.15199
1211.07832,0.15231
1213.00679,0.15417
1214.93526,0.15400
1216.86372,0.14896
1218.79219,0.14407
1220.72066,0.14151
1222.64913,0.14094
1224.57760,0.14471
1226.50607,0.14623
1228.43454,0.14120
1230.36300,0.13962
1232.29147,0.14587
1234.21994,0.15106
1236.14841,0.14925
1238.07688,0.14588
1240.00535,0.14516
1241.93382,0.14401
1243.86229,0.14269
1245.79075,0.14566
1247.71922,0.15056
1249.64769,0.15198
1251.57616,0.14940
1253.50463,0.14625
1255.43310,0.14704
1257.36157,0.14886
1259.29003,0.14691
1261.21850,0.14601
1263.14697,0.14963
1265.07544,0.15289
1267.00391,0.15322
1268.93238,0.15097
1270.86085,0.14767
1272.78932,0.14747
1274.71778,0.15160
1276.64625,0.15656
1278.57472,0.15805
1280.50319,0.15457
1282.43166,0.14945
1284.36013,0.14767
1286.28860,0.15123
1288.21706,0.15977
1290.14553,0.16802
1292.07400,0.16692
1294.00247,0.15701
1295.93094,0.14818
1297.85941,0.14853
1299.78788,0.15483
1301.71634,0.15486
1303.64481,0.14813
1305.57328,0.14692
1307.50175,0.15297
1309.43022,0.15721
1311.35869,0.15923
1313.28716,0.16128
1315.21563,0.16133
1317.14409,0.16188
1319.07256,0.16287
1321.00103,0.16070
1322.92950,0.15647
1324.85797,0.15191
1326.78644,0.14693
1328.71491,0.14491
1330.64337,0.14974
1332.57184,0.15789
1334.50031,0.16094
1336.42878,0.15876
1338.35725,0.16026
1340.28572,0.16956
1342.21419,0.21414
1344.14266,0.28110
1346.07112,0.27461
1347.99959,0.19338
1349.92806,0.14285
1351.85653,0.14039
1353.78500,0.14846
1355.71347,0.15443
1357.64194,0.15597
1359.57040,0.16054
1361.49887,0.16841
1363.42734,0.16887
1365.35581,0.16497
1367.28428,0.16372
1369.21275,0.16187
1371.14122,0.16149
1373.06969,0.16676
1374.99815,0.17246
1376.92662,0.17050
1378.85509,0.16463
1380.78356,0.16038
1382.71203,0.15849
1384.64050,0.16387
1386.56897,0.17466
1388.49743,0.17476
1390.42590,0.16519
1392.35437,0.16383
1394.28284,0.17576
1396.21131,0.18678
1398.13978,0.18518
1400.06825,0.17545
1401.99672,0.16835
1403.92518,0.16843
1405.85365,0.16990
1407.78212,0.16764
1409.71059,0.16306
1411.63906,0.15919
1413.56753,0.16218
1415.49600,0.17463
1417.42446,0.18965
1419.35293,0.18958
1421.28140,0.17810
1423.20987,0.17284
1425.13834,0.16730
1427.06681,0.16377
1428.99528,0.16819
1430.92375,0.16855
1432.85221,0.16414
1434.78068,0.17065
1436.70915,0.18733
1438.63762,0.18824
1440.56609,0.17568
1442.49456,0.16611
1444.42303,0.16460
1446.35149,0.16977
1448.27996,0.17560
1450.20843,0.17755
1452.13690,0.17812
1454.06537,0.18215
1455.99384,0.19424
1457.92231,0.19923
1459.85077,0.18776
1461.77924,0.18736
1463.70771,0.19643
1465.63618,0.19383
1467.56465,0.18254
1469.49312,0.18426
1471.42159,0.20434
1473.35006,0.22329
1475.27852,0.21159
1477.20699,0.18858
1479.13546,0.17652
1481.06393,0.17475
1482.99240,0.17153
1484.92087,0.17066
1486.84934,0.18262
1488.77780,0.19978
1490.70627,0.19953
1492.63474,0.18953
1494.56321,0.18975
1496.49168,0.19814
1498.42015,0.19874
1500.34862,0.19152
1502.27709,0.18817
1504.20555,0.19842
1506.13402,0.22798
1508.06249,0.23023
1509.99096,0.20425
1511.91943,0.19268
1513.84790,0.19577
1515.77637,0.20880
1517.70483,0.21812
1519.63330,0.21956
1521.56177,0.22023
1523.49024,0.21454
1525.41871,0.20840
1527.34718,0.20196
1529.27565,0.19516
1531.20412,0.19876
1533.13258,0.21205
1535.06105,0.22062
1536.98952,0.23156
1538.91799,0.25698
1540.84646,0.26603
1542.77493,0.24003
1544.70340,0.21627
1546.63186,0.20009
1548.56033,0.19521
1550.48880,0.19637
1552.41727,0.19914
1554.34574,0.20830
1556.27421,0.22647
1558.20268,0.24507
1560.13115,0.21708
1562.05961,0.19054
1563.98808,0.18826
1565.91655,0.19564
1567.84502,0.20447
1569.77349,0.20337
1571.70196,0.19158
1573.63043,0.19134
1575.55889,0.20645
1577.48736,0.20996
1579.41583,0.19688
1581.34430,0.18898
1583.27277,0.18751
1585.20124,0.18595
1587.12971,0.18287
1589.05818,0.18193
1590.98664,0.18373
1592.91511,0.18429
1594.84358,0.18227
1596.77205,0.17997
1598.70052,0.17959
1600.62899,0.18123
1602.55746,0.18413
1604.48592,0.18539
1606.41439,0.18165
1608.34286,0.17508
1610.27133,0.17035
1612.19980,0.16927
1614.12827,0.17483
1616.05674,0.19200
1617.98521,0.20564
1619.91367,0.20596
1621.84214,0.20823
1623.77061,0.20868
1625.69908,0.20311
1627.62755,0.20082
1629.55602,0.19831
1631.48449,0.19685
1633.41295,0.20812
1635.34142,0.22771
1637.26989,0.22021
1639.19836,0.20037
1641.12683,0.19109
1643.05530,0.19346
1644.98377,0.21095
1646.91223,0.23485
1648.84070,0.23546
1650.76917,0.23417
1652.69764,0.24311
1654.62611,0.22472
1656.55458,0.19857
1658.48305,0.18650
1660.41152,0.19081
1662.33998,0.20543
1664.26845,0.20941
1666.19692,0.20712
1668.12539,0.21345
1670.05386,0.22033
1671.98233,0.21548
1673.91080,0.20896
1675.83926,0.20028
1677.76773,0.19327
1679.69620,0.19675
1681.62467,0.21415
1683.55314,0.24061
1685.48161,0.23838
1687.41008,0.21887
1689.33855,0.20639
1691.26701,0.19924
1693.19548,0.20118
1695.12395,0.21474
1697.05242,0.23309
1698.98089,0.24353
1700.90936,0.23747
1702.83783,0.22765
1704.76629,0.22457
1706.69476,0.21398
1708.62323,0.19787
1710.55170,0.19377
1712.48017,0.20556
1714.40864,0.22722
1716.33711,0.24148
1718.26558,0.22331
1720.19404,0.19843
1722.12251,0.18926
1724.05098,0.18627
1725.97945,0.18305
1727.90792,0.18633
1729.83639,0.19828
1731.76486,0.21300
1733.69332,0.22121
1735.62179,0.21139
1737.55026,0.20213
1739.47873,0.20117
1741.40720,0.20174
1743.33567,0.19923
1745.26414,0.19568
1747.19261,0.19682
1749.12107,0.20301
1751.04954,0.20324
1752.97801,0.19602
1754.90648,0.19262
1756.83495,0.19466
1758.76342,0.19692
1760.69189,0.19745
1762.62035,0.19365
1764.54882,0.19098
1766.47729,0.19795
1768.40576,0.21008
1770.33423,0.22114
1772.26270,0.22272
1774.19117,0.20657
1776.11964,0.19108
1778.04810,0.18435
1779.97657,0.18022
1781.90504,0.17626
1783.83351,0.17828
1785.76198,0.18212
1787.69045,0.18131
1789.61892,0.18592
1791.54738,0.19817
1793.47585,0.19825
1795.40432,0.18858
1797.33279,0.18730
1799.26126,0.19411
1801.18973,0.19652
1803.11820,0.19150
1805.04666,0.18720
1806.97513,0.18633
1808.90360,0.18866
1810.83207,0.18996
1812.76054,0.18567
1814.68901,0.17767
1816.61748,0.15876
1818.54595,0.12981
1820.47441,0.12263
1822.40288,0.15038
1824.33135,0.18065
1826.25982,0.18955
1828.18829,0.19708
1830.11676,0.20506
1832.04523,0.19635
1833.97369,0.18492
1835.90216,0.18102
1837.83063,0.18052
1839.75910,0.18219
1841.68757,0.19050
1843.61604,0.20188
1845.54451,0.20151
1847.47298,0.19234
1849.40144,0.18638
1851.32991,0.18508
1853.25838,0.18410
1855.18685,0.18251
1857.11532,0.18394
1859.04379,0.18690
1860.97226,0.18713
1862.90072,0.18528
1864.82919,0.18566
1866.75766,0.19280
1868.68613,0.20041
1870.61460,0.19431
1872.54307,0.18487
1874.47154,0.18401
1876.40001,0.18592
1878.32847,0.18413
1880.25694,0.18280
1882.18541,0.18581
1884.11388,0.18914
1886.04235,0.18856
1887.97082,0.18721
1889.89929,0.18607
1891.82775,0.18258
1893.75622,0.18174
1895.68469,0.18437
1897.61316,0.18486
1899.54163,0.18320
1901.47010,0.18156
1903.39857,0.18188
1905.32704,0.18431
1907.25550,0.18659
1909.18397,0.18768
1911.11244,0.18846
1913.04091,0.19041
1914.96938,0.19410
1916.89785,0.19740
1918.82632,0.19610
1920.75478,0.19323
1922.68325,0.19248
1924.61172,0.19011
1926.54019,0.18702
1928.46866,0.18669
1930.39713,0.18624
1932.32560,0.18481
1934.25407,0.18575
1936.18253,0.18731
1938.11100,0.18700
1940.03947,0.18772
1941.96794,0.19051
1943.89641,0.19154
1945.82488,0.19041
1947.75335,0.18941
1949.68181,0.18921
1951.61028,0.19121
1953.53875,0.19226
1955.46722,0.18814
1957.39569,0.18377
1959.32416,0.18423
1961.25263,0.18700
1963.18110,0.18886
1965.10956,0.18930
1967.03803,0.18769
1968.96650,0.18413
1970.89497,0.18134
1972.82344,0.18034
1974.75191,0.17970
1976.68038,0.17849
1978.60884,0.17880
1980.53731,0.18368
1982.46578,0.18977
1984.39425,0.19269
1986.32272,0.19394
1988.25119,0.19416
1990.17966,0.19182
1992.10812,0.18848
1994.03659,0.18784
1995.96506,0.18867
1997.89353,0.18751
1999.82200,0.18557
2001.75047,0.18583
2003.67894,0.18763
2005.60741,0.18755
2007.53587,0.18421
2009.46434,0.18027
2011.39281,0.17849
2013.32128,0.17986
2015.24975,0.18642
2017.17822,0.19399
2019.10669,0.19380
2021.03515,0.18909
2022.96362,0.18606
2024.89209,0.18482
2026.82056,0.18486
2028.74903,0.18476
2030.67750,0.18434
2032.60597,0.18564
2034.53444,0.18723
2036.46290,0.18658
2038.39137,0.18586
2040.31984,0.18689
2042.24831,0.18754
2044.17678,0.18653
2046.10525,0.18546
2048.03372,0.18599
2049.96218,0.18741
2051.89065,0.18797
2053.81912,0.18859
2055.74759,0.19028
2057.67606,0.19033
2059.60453,0.18895
2061.53300,0.18948
2063.46147,0.19086
2065.38993,0.19086
2067.31840,0.19170
2069.24687,0.19444
2071.17534,0.19553
2073.10381,0.19396
2075.03228,0.19142
2076.96075,0.18901
2078.88921,0.18775
2080.81768,0.18814
2082.74615,0.18913
2084.67462,0.18803
2086.60309,0.18414
2088.53156,0.18144
2090.46003,0.18455
2092.38850,0.19089
2094.31696,0.19473
2096.24543,0.19429
2098.17390,0.19065
2100.10237,0.18803
2102.03084,0.18900
2103.95931,0.19016
2105.88778,0.18902
2107.81624,0.18859
2109.74471,0.18973
2111.67318,0.18998
2113.60165,0.19027
2115.53012,0.19072
2117.45859,0.18979
2119.38706,0.18868
2121.31553,0.18848
2123.24399,0.18881
2125.17246,0.18932
2127.10093,0.18958
2129.02940,0.19032
2130.95787,0.19222
2132.88634,0.18979
2134.81481,0.17992
2136.74327,0.17501
2138.67174,0.18204
2140.60021,0.18909
2142.52868,0.19031
2144.45715,0.19068
2146.38562,0.19296
2148.31409,0.19676
2150.24255,0.19820
2152.17102,0.19492
2154.09949,0.18997
2156.02796,0.18861
2157.95643,0.19290
2159.88490,0.19727
2161.81337,0.19556
2163.74184,0.19101
2165.67030,0.19061
2167.59877,0.19334
2169.52724,0.19377
2171.45571,0.19103
2173.38418,0.18918
2175.31265,0.19168
2177.24112,0.19454
2179.16958,0.19204
2181.09805,0.18842
2183.02652,0.18953
2184.95499,0.19019
2186.88346,0.18771
2188.81193,0.18722
2190.74040,0.18752
2192.66887,0.18689
2194.59733,0.18835
2196.52580,0.18957
2198.45427,0.18866
2200.38274,0.19008
2202.31121,0.19317
2204.23968,0.19250
2206.16815,0.18894
2208.09661,0.18799
2210.02508,0.19093
2211.95355,0.19288
2213.88202,0.19166
2215.81049,0.18987
2217.73896,0.18829
2219.66743,0.18780
2221.59590,0.18914
2223.52436,0.19027
2225.45283,0.18967
2227.38130,0.18754
2229.30977,0.18450
2231.23824,0.18272
2233.16671,0.18442
2235.09518,0.18838
2237.02364,0.19235
2238.95211,0.19590
2240.88058,0.19860
2242.80905,0.19842
2244.73752,0.19564
2246.66599,0.19500
2248.59446,0.19726
2250.52293,0.19771
2252.45139,0.19460
2254.37986,0.19036
2256.30833,0.18931
2258.23680,0.19269
2260.16527,0.19569
2262.09374,0.19564
2264.02221,0.19504
2265.95067,0.19557
2267.87914,0.19560
2269.80761,0.19486
2271.73608,0.19481
2273.66455,0.19461
2275.59302,0.19277
2277.52149,0.18947
2279.44996,0.18846
2281.37842,0.19119
2283.30689,0.19415
2285.23536,0.19657
2287.16383,0.19798
2289.09230,0.19483
2291.02077,0.18823
2292.94924,0.18554
2294.87770,0.18894
2296.80617,0.19426
2298.73464,0.19800
2300.66311,0.20009
2302.59158,0.20248
2304.52005,0.20365
2306.44852,0.20364
2308.37699,0.20656
2310.30545,0.21442
2312.23392,0.22102
2314.16239,0.21754
2316.09086,0.20874
2318.01933,0.20307
2319.94780,0.20203
2321.87627,0.20786
2323.80473,0.21732
2325.73320,0.21896
2327.66167,0.21450
2329.59014,0.21398
2331.51861,0.21935
2333.44708,0.23006
2335.37555,0.23933
2337.30401,0.24239
2339.23248,0.23778
2341.16095,0.22642
2343.08942,0.21821
2345.01789,0.21427
2346.94636,0.21294
2348.87483,0.21493
2350.80330,0.21859
2352.73176,0.22409
2354.66023,0.23404
2356.58870,0.24536
2358.51717,0.25431
2360.44564,0.26141
2362.37411,0.25477
2364.30258,0.24145
2366.23104,0.23838
2368.15951,0.23418
2370.08798,0.22335
2372.01645,0.21752
2373.94492,0.21598
2375.87339,0.20986
2377.80186,0.20394
2379.73033,0.20290
2381.65879,0.20083
2383.58726,0.19800
2385.51573,0.19700
2387.44420,0.19387
2389.37267,0.18936
2391.30114,0.18857
2393.22961,0.19072
2395.15807,0.19180
2397.08654,0.19197
2399.01501,0.19308
2400.94348,0.19381
2402.87195,0.19394
2404.80042,0.19448
2406.72889,0.19465
2408.65736,0.19427
2410.58582,0.19440
2412.51429,0.19515
2414.44276,0.19494
2416.37123,0.19276
2418.29970,0.19062
2420.22817,0.19223
2422.15664,0.19658
2424.08510,0.19854
2426.01357,0.19679
2427.94204,0.19381
2429.87051,0.19180
2431.79898,0.19160
2433.72745,0.19308
2435.65592,0.19537
2437.58439,0.19558
2439.51285,0.19234
2441.44132,0.18928
2443.36979,0.18887
2445.29826,0.18988
2447.22673,0.19088
2449.15520,0.18961
2451.08367,0.18433
2453.01213,0.18365
2454.94060,0.19530
2456.86907,0.20534
2458.79754,0.20407
2460.72601,0.20104
2462.65448,0.19882
2464.58295,0.19473
2466.51142,0.19032
2468.43988,0.18764
2470.36835,0.18816
2472.29682,0.19003
2474.22529,0.19086
2476.15376,0.18988
2478.08223,0.19029
2480.01070,0.19450
2481.93916,0.19628
2483.86763,0.19257
2485.79610,0.18861
2487.72457,0.18840
2489.65304,0.19281
2491.58151,0.19809
2493.50998,0.19805
2495.43844,0.19439
2497.36691,0.19253
2499.29538,0.19317
2501.22385,0.19584
2503.15232,0.19822
2505.08079,0.19732
2507.00926,0.19426
2508.93773,0.19219
2510.86619,0.19258
2512.79466,0.19438
2514.72313,0.19599
2516.65160,0.19566
2518.58007,0.19543
2520.50854,0.19871
2522.43701,0.20218
2524.36547,0.20192
2526.29394,0.19804
2528.22241,0.19427
2530.15088,0.19483
2532.07935,0.19652
2534.00782,0.19437
2535.93629,0.19078
2537.86476,0.19126
2539.79322,0.19652
2541.72169,0.20040
2543.65016,0.20013
2545.57863,0.20033
2547.50710,0.20034
2549.43557,0.19781
2551.36404,0.19731
2553.29250,0.20039
2555.22097,0.20277
2557.14944,0.20105
2559.07791,0.19764
2561.00638,0.19732
2562.93485,0.19903
2564.86332,0.19823
2566.79179,0.19591
2568.72025,0.19897
2570.64872,0.20629
2572.57719,0.20829
2574.50566,0.20417
2576.43413,0.20122
2578.36260,0.20296
2580.29107,0.20619
2582.21953,0.20513
2584.14800,0.20023
2586.07647,0.19731
2588.00494,0.19685
2589.93341,0.19625
2591.86188,0.19620
2593.79035,0.19757
2595.71882,0.19894
2597.64728,0.19765
2599.57575,0.19453
2601.50422,0.19353
2603.43269,0.19353
2605.36116,0.19282
2607.28963,0.19753
2609.21810,0.20775
2611.14656,0.21092
2613.07503,0.20134
2615.00350,0.18937
2616.93197,0.18699
2618.86044,0.19345
2620.78891,0.20098
2622.71738,0.20461
2624.64585,0.20338
2626.57431,0.20002
2628.50278,0.19711
2630.43125,0.19617
2632.35972,0.19559
2634.28819,0.19533
2636.21666,0.19929
2638.14513,0.20388
2640.07359,0.20406
2642.00206,0.20130
2643.93053,0.19761
2645.85900,0.19479
2647.78747,0.19516
2649.71594,0.19835
2651.64441,0.20138
2653.57288,0.20274
2655.50134,0.20274
2657.42981,0.20271
2659.35828,0.20436
2661.28675,0.20720
2663.21522,0.20778
2665.14369,0.20372
2667.07216,0.19857
2669.00062,0.19582
2670.92909,0.19423
2672.85756,0.19501
2674.78603,0.19834
2676.71450,0.20127
2678.64297,0.20442
2680.57144,0.20773
2682.49990,0.20974
2684.42837,0.20963
2686.35684,0.20662
2688.28531,0.20297
2690.21378,0.20136
2692.14225,0.20236
2694.07072,0.20531
2695.99919,0.20792
2697.92765,0.20846
2699.85612,0.20801
2701.78459,0.20935
2703.71306,0.21220
2705.64153,0.21169
2707.57000,0.20619
2709.49847,0.20168
2711.42693,0.20286
2713.35540,0.20599
2715.28387,0.20671
2717.21234,0.20707
2719.14081,0.20762
2721.06928,0.20610
2722.99775,0.20363
2724.92622,0.20171
2726.85468,0.20008
2728.78315,0.19986
2730.71162,0.20262
2732.64009,0.20474
2734.56856,0.20285
2736.49703,0.20103
2738.42550,0.20140
2740.35396,0.20235
2742.28243,0.20405
2744.21090,0.20522
2746.13937,0.20532
2748.06784,0.20537
2749.99631,0.20484
2751.92478,0.20430
2753.85325,0.20365
2755.78171,0.20431
2757.71018,0.20942
2759.63865,0.21276
2761.56712,0.20939
2763.49559,0.20624
2765.42406,0.20577
2767.35253,0.20363
2769.28099,0.20156
2771.20946,0.20433
2773.13793,0.20773
2775.06640,0.20741
2776.99487,0.20892
2778.92334,0.21310
2780.85181,0.21543
2782.78028,0.21489
2784.70874,0.21258
2786.63721,0.21112
2788.56568,0.21122
2790.49415,0.21248
2792.42262,0.21335
2794.35109,0.21310
2796.27956,0.21355
2798.20802,0.21212
2800.13649,0.20841
2802.06496,0.20776
2803.99343,0.21077
2805.92190,0.21277
2807.85037,0.21067
2809.77884,0.20724
2811.70731,0.20881
2813.63577,0.21266
2815.56424,0.21099
2817.49271,0.20821
2819.42118,0.21087
2821.34965,0.21485
2823.27812,0.21516
2825.20659,0.21478
2827.13505,0.21759
2829.06352,0.21933
2830.99199,0.21511
2832.92046,0.20991
2834.84893,0.21051
2836.77740,0.21325
2838.70587,0.21223
2840.63433,0.20999
2842.56280,0.21097
2844.49127,0.21470
2846.41974,0.21852
2848.34821,0.22048
2850.27668,0.22051
2852.20515,0.21995
2854.13362,0.21774
2856.06208,0.21402
2857.99055,0.21226
2859.91902,0.21344
2861.84749,0.21405
2863.77596,0.21046
2865.70443,0.20755
2867.63290,0.21121
2869.56136,0.21666
2871.48983,0.21839
2873.41830,0.21782
2875.34677,0.21634
2877.27524,0.21309
2879.20371,0.21012
2881.13218,0.20898
2883.06065,0.20708
2884.98911,0.20490
2886.91758,0.20659
2888.84605,0.21073
2890.77452,0.21212
2892.70299,0.21069
2894.63146,0.20882
2896.55993,0.20909
2898.48839,0.21264
2900.41686,0.21507
2902.34533,0.21507
2904.27380,0.21658
2906.20227,0.21766
2908.13074,0.21372
2910.05921,0.20759
2911.98768,0.20614
2913.91614,0.20838
2915.84461,0.20723
2917.77308,0.20349
2919.70155,0.20340
2921.63002,0.20667
2923.55849,0.20711
2925.48696,0.20419
2927.41542,0.20477
2929.34389,0.20963
2931.27236,0.21297
2933.20083,0.21106
2935.12930,0.20690
2937.05777,0.20641
2938.98624,0.21033
2940.91471,0.21389
2942.84317,0.21406
2944.77164,0.21384
2946.70011,0.21412
2948.62858,0.21493
2950.55705,0.21698
2952.48552,0.21705
2954.41399,0.21437
2956.34245,0.21120
2958.27092,0.21192
2960.19939,0.21547
2962.12786,0.21546
2964.05633,0.21367
2965.98480,0.21023
2967.91327,0.20306
2969.84174,0.20086
2971.77020,0.20750
2973.69867,0.21314
2975.62714,0.21394
2977.55561,0.21435
2979.48408,0.21482
2981.41255,0.21631
2983.34102,0.22049
2985.26948,0.22267
2987.19795,0.22047
2989.12642,0.21964
2991.05489,0.22033
2992.98336,0.21846
2994.91183,0.21685
2996.84030,0.21728
2998.76877,0.21807
3000.69723,0.21938
3002.62570,0.21990
3004.55417,0.21587
3006.48264,0.21104
3008.41111,0.21265
3010.33958,0.21816
3012.26805,0.21880
3014.19651,0.20564
3016.12498,0.18585
3018.05345,0.18162
3019.98192,0.19384
3021.91039,0.20668
3023.83886,0.21649
3025.76733,0.22294
3027.69579,0.22342
3029.62426,0.22265
3031.55273,0.22284
3033.48120,0.21807
3035.40967,0.21408
3037.33814,0.22059
3039.26661,0.22892
3041.19508,0.22996
3043.12354,0.22749
3045.05201,0.22551
3046.98048,0.22441
3048.90895,0.22250
3050.83742,0.21808
3052.76589,0.21537
3054.69436,0.21723
3056.62282,0.21616
3058.55129,0.21188
3060.47976,0.21267
3062.40823,0.21465
3064.33670,0.21071
3066.26517,0.20561
3068.19364,0.20578
3070.12211,0.20693
3072.05057,0.20865
3073.97904,0.21400
3075.90751,0.21717
3077.83598,0.21764
3079.76445,0.21881
3081.69292,0.21673
3083.62139,0.20660
3085.54985,0.19701
3087.47832,0.20244
3089.40679,0.21577
3091.33526,0.21961
3093.26373,0.21423
3095.19220,0.20975
3097.12067,0.21007
3099.04914,0.21496
3100.97760,0.21934
3102.90607,0.21681
3104.83454,0.21148
3106.76301,0.20694
3108.69148,0.20307
3110.61995,0.20188
3112.54842,0.20390
3114.47688,0.20989
3116.40535,0.21622
3118.33382,0.21740
3120.26229,0.21527
3122.19076,0.21465
3124.11923,0.21607
3126.04770,0.21831
3127.97617,0.22161
3129.90463,0.22401
3131.83310,0.22451
3133.76157,0.22483
3135.69004,0.22353
3137.61851,0.21815
3139.54698,0.21362
3141.47545,0.21643
3143.40391,0.22244
3145.33238,0.22518
3147.26085,0.22508
3149.18932,0.22458
3151.11779,0.22477
3153.04626,0.22697
3154.97473,0.23046
3156.90320,0.23216
3158.83166,0.23087
3160.76013,0.22654
3162.68860,0.21918
3164.61707,0.21015
3166.54554,0.20604
3168.47401,0.21170
3170.40248,0.21970
3172.33094,0.22114
3174.25941,0.21856
3176.18788,0.22095
3178.11635,0.23086
3180.04482,0.23798
3181.97329,0.23279
3183.90176,0.22476
3185.83022,0.22413
3187.75869,0.22404
3189.68716,0.22190
3191.61563,0.22455
3193.54410,0.23067
3195.47257,0.23155
3197.40104,0.22657
3199.32951,0.22265
3201.25797,0.22017
3203.18644,0.21876
3205.11491,0.22158
3207.04338,0.22578
3208.97185,0.22700
3210.90032,0.22768
3212.82879,0.23071
3214.75725,0.23233
3216.68572,0.22948
3218.61419,0.22515
3220.54266,0.21965
3222.47113,0.21259
3224.39960,0.20993
3226.32807,0.21513
3228.25654,0.22105
3230.18500,0.22366
3232.11347,0.22621
3234.04194,0.22513
3235.97041,0.22256
3237.89888,0.22349
3239.82735,0.22221
3241.75582,0.22532
3243.68428,0.23742
3245.61275,0.24099
3247.54122,0.23301
3249.46969,0.22740
3251.39816,0.22465
3253.32663,0.22233
3255.25510,0.22269
3257.18357,0.22519
3259.11203,0.22786
3261.04050,0.22642
3262.96897,0.22331
3264.89744,0.22319
3266.82591,0.22311
3268.75438,0.22303
3270.68285,0.22562
3272.61131,0.22912
3274.53978,0.22821
3276.46825,0.22317
3278.39672,0.22096
3280.32519,0.22008
3282.25366,0.21582
3284.18213,0.21392
3286.11060,0.21715
3288.03906,0.21955
3289.96753,0.22198
3291.89600,0.22912
3293.82447,0.23565
3295.75294,0.23353
3297.68141,0.22581
3299.60988,0.22062
3301.53834,0.21988
3303.46681,0.21944
3305.39528,0.21853
3307.32375,0.21991
3309.25222,0.21921
3311.18069,0.21376
3313.10916,0.20925
3315.03763,0.20882
3316.96609,0.21015
3318.89456,0.20980
3320.82303,0.20934
3322.75150,0.21272
3324.67997,0.21654
3326.60844,0.21875
3328.53691,0.22336
3330.46537,0.22624
3332.39384,0.22445
3334.32231,0.22672
3336.25078,0.23473
3338.17925,0.23684
3340.10772,0.22800
3342.03619,0.21715
3343.96466,0.21472
3345.89312,0.22046
3347.82159,0.22527
3349.75006,0.22606
3351.67853,0.22462
3353.60700,0.22263
3355.53547,0.22399
3357.46394,0.23002
3359.39240,0.23530
3361.32087,0.23219
3363.24934,0.22377
3365.17781,0.22034
3367.10628,0.22066
3369.03475,0.21728
3370.96322,0.21561
3372.89168,0.22004
3374.82015,0.22297
3376.74862,0.22362
3378.67709,0.22376
3380.60556,0.22198
3382.53403,0.22104
3384.46250,0.22248
3386.39097,0.22298
3388.31943,0.22236
3390.24790,0.22540
3392.17637,0.23112
3394.10484,0.23288
3396.03331,0.22972
3397.96178,0.22780
3399.89025,0.22702
3401.81871,0.22420
3403.74718,0.22143
3405.67565,0.21707
3407.60412,0.21052
3409.53259,0.20689
3411.46106,0.20893
3413.38953,0.21267
3415.31800,0.21178
3417.24646,0.20774
3419.17493,0.20837
3421.10340,0.21173
3423.03187,0.20981
3424.96034,0.20622
3426.88881,0.20428
3428.81728,0.20404
3430.74574,0.20982
3432.67421,0.21724
3434.60268,0.21837
3436.53115,0.21855
3438.45962,0.22182
3440.38809,0.22265
3442.31656,0.21993
3444.24503,0.21455
3446.17349,0.20770
3448.10196,0.20153
3450.03043,0.19674
3451.95890,0.19724
3453.88737,0.20233
3455.81584,0.20541
3457.74431,0.20387
3459.67277,0.20208
3461.60124,0.20282
3463.52971,0.20264
3465.45818,0.20065
3467.38665,0.19994
3469.31512,0.20183
3471.24359,0.20118
3473.17206,0.19798
3475.10052,0.20197
3477.02899,0.20935
3478.95746,0.20859
3480.88593,0.20049
3482.81440,0.19089
3484.74287,0.18719
3486.67134,0.19205
3488.59980,0.19457
3490.52827,0.18840
3492.45674,0.18150
3494.38521,0.17965
3496.31368,0.18198
3498.24215,0.18721
3500.17062,0.19561
3502.09909,0.20208
3504.02755,0.19848
3505.95602,0.18956
3507.88449,0.18314
3509.81296,0.17739
3511.74143,0.17366
3513.66990,0.17687
3515.59837,0.18470
3517.52683,0.18966
3519.45530,0.18971
3521.38377,0.19132
3523.31224,0.19586
3525.24071,0.19883
3527.16918,0.19742
3529.09765,0.18950
3531.02611,0.18058
3532.95458,0.17729
3534.88305,0.17825
3536.81152,0.18265
3538.73999,0.18845
3540.66846,0.18931
3542.59693,0.18734
3544.52540,0.18663
3546.45386,0.18267
3548.38233,0.17680
3550.31080,0.17523
3552.23927,0.17563
3554.16774,0.17534
3556.09621,0.17593
3558.02468,0.17306
3559.95314,0.16649
3561.88161,0.16520
3563.81008,0.17188
3565.73855,0.18349
3567.66702,0.18739
3569.59549,0.17672
3571.52396,0.16732
3573.45243,0.16510
3575.38089,0.16709
3577.30936,0.17166
3579.23783,0.17449
3581.16630,0.17150
3583.09477,0.17039
3585.02324,0.18120
3586.95171,0.20068
3588.88017,0.20044
3590.80864,0.18010
3592.73711,0.16736
3594.66558,0.16641
3596.59405,0.16619
3598.52252,0.16149
3600.45099,0.15416
3602.37946,0.14919
3604.30792,0.15256
3606.23639,0.16445
3608.16486,0.17376
3610.09333,0.17296
3612.02180,0.17313
3613.95027,0.17639
3615.87874,0.17885
3617.80720,0.18425
3619.73567,0.18553
3621.66414,0.17489
3623.59261,0.16341
3625.52108,0.15809
3627.44955,0.16400
3629.37802,0.17637
3631.30649,0.17237
3633.23495,0.15936
3635.16342,0.14897
3637.09189,0.14394
3639.02036,0.14359
3640.94883,0.14628
3642.87730,0.15013
3644.80577,0.15784
3646.73423,0.17128
3648.66270,0.18281
3650.59117,0.17721
3652.51964,0.16643
3654.44811,0.16341
3656.37658,0.15981
3658.30505,0.14809
3660.23352,0.13756
3662.16198,0.13301
3664.09045,0.13386
3666.01892,0.14121
3667.94739,0.15879
3669.87586,0.17809
3671.80433,0.18278
3673.73280,0.18866
3675.66126,0.18848
3677.58973,0.16932
3679.51820,0.15724
3681.44667,0.14899
3683.37514,0.14109
3685.30361,0.14158
3687.23208,0.14788
3689.16055,0.15084
3691.08901,0.14800
3693.01748,0.13787
3694.94595,0.12546
3696.87442,0.12078
3698.80289,0.12555
3700.73136,0.13430
3702.65983,0.14061
3704.58829,0.13959
3706.51676,0.13715
3708.44523,0.14321
3710.37370,0.15654
3712.30217,0.15916
3714.23064,0.15203
3716.15911,0.14640
3718.08757,0.14441
3720.01604,0.14992
3721.94451,0.15715
3723.87298,0.15654
3725.80145,0.15115
3727.72992,0.14640
3729.65839,0.14994
3731.58686,0.16552
3733.51532,0.18180
3735.44379,0.18407
3737.37226,0.17534
3739.30073,0.16625
3741.22920,0.16430
3743.15767,0.16900
3745.08614,0.16886
3747.01460,0.16887
3748.94307,0.18093
3750.87154,0.18500
3752.80001,0.16405
3754.72848,0.14914
3756.65695,0.14683
3758.58542,0.14365
3760.51389,0.13440
3762.44235,0.13235
3764.37082,0.13699
3766.29929,0.13751
3768.22776,0.13686
3770.15623,0.14091
3772.08470,0.14038
3774.01317,0.13232
3775.94163,0.12560
3777.87010,0.12640
3779.79857,0.12983
3781.72704,0.13076
3783.65551,0.13352
3785.58398,0.13555
3787.51245,0.13066
3789.44092,0.12310
3791.36938,0.12084
3793.29785,0.12449
3795.22632,0.12890
3797.15479,0.12976
3799.08326,0.12740
3801.01173,0.12939
3802.94020,0.13489
3804.86866,0.13516
3806.79713,0.13441
3808.72560,0.13418
3810.65407,0.13328
3812.58254,0.13189
3814.51101,0.12965
3816.43948,0.13078
3818.36795,0.13963
3820.29641,0.14956
3822.22488,0.15134
3824.15335,0.15116
3826.08182,0.15120
3828.01029,0.14569
3829.93876,0.13857
3831.86723,0.13525
3833.79569,0.14188
3835.72416,0.15853
3837.65263,0.16523
3839.58110,0.14997
3841.50957,0.13571
3843.43804,0.12721
3845.36651,0.12002
3847.29498,0.11930
3849.22344,0.12600
3851.15191,0.13908
3853.08038,0.15237
3855.00885,0.14268
3856.93732,0.13121
3858.86579,0.12841
3860.79426,0.12549
3862.72272,0.12369
3864.65119,0.12776
3866.57966,0.13549
3868.50813,0.14388
3870.43660,0.14290
3872.36507,0.13785
3874.29354,0.13994
3876.22200,0.13788
3878.15047,0.13052
3880.07894,0.12523
3882.00741,0.12583
3883.93588,0.12597
3885.86435,0.11676
3887.79282,0.10940
3889.72129,0.11667
3891.64975,0.12576
3893.57822,0.11736
3895.50669,0.10925
3897.43516,0.11806
3899.36363,0.13384
3901.29210,0.13711
3903.22057,0.13010
3905.14903,0.12387
3907.07750,0.11806
3909.00597,0.11377
3910.93444,0.11405
3912.86291,0.11718
3914.79138,0.11571
3916.71985,0.10713
3918.64832,0.10586
3920.57678,0.11450
3922.50525,0.12037
3924.43372,0.12137
3926.36219,0.11825
3928.29066,0.11564
3930.21913,0.11699
3932.14760,0.11943
3934.07606,0.12002
3936.00453,0.11508
3937.93300,0.10723
3939.86147,0.10402
3941.78994,0.10564
3943.71841,0.10829
3945.64688,0.10952
3947.57535,0.10801
3949.50381,0.10528
3951.43228,0.10293
3953.36075,0.10236
3955.28922,0.10368
3957.21769,0.10118
3959.14616,0.09591
3961.07463,0.09708
3963.00309,0.10305
3964.93156,0.10631
3966.86003,0.10557
3968.78850,0.09963
3970.71697,0.09229
3972.64544,0.09329
3974.57391,0.10026
3976.50238,0.10265
3978.43084,0.09811
3980.35931,0.09105
3982.28778,0.08849
3984.21625,0.09456
3986.14472,0.10148
3988.07319,0.10146
3990.00166,0.09962
3991.93012,0.09741
3993.85859,0.09090
3995.78706,0.08744
3997.71553,0.09151
3999.64400,0.09364
4001.57247,0.08901
4003.50094,0.08745
4005.42941,0.09608
4007.35787,0.10336
4009.28634,0.09999
4011.21481,0.09925
4013.14328,0.10624
4015.07175,0.10769
4017.00022,0.10344
4018.92869,0.09812
4020.85715,0.09008
4022.78562,0.08668
4024.71409,0.09189
4026.64256,0.09859
4028.57103,0.10280
4030.49950,0.10275
4032.42797,0.09861
4034.35644,0.09400
4036.28490,0.08977
4038.21337,0.08713
4040.14184,0.08743
4042.07031,0.09052
4043.99878,0.09612
4045.92725,0.10127
4047.85572,0.10075
4049.78418,0.09307
4051.71265,0.08847
4053.64112,0.09464
4055.56959,0.10016
4057.49806,0.09609
4059.42653,0.09059
4061.35500,0.09023
4063.28346,0.09341
4065.21193,0.09705
4067.14040,0.09605
4069.06887,0.09106
4070.99734,0.08788
4072.92581,0.08693
4074.85428,0.08756
4076.78275,0.08922
4078.71121,0.08906
4080.63968,0.08830
4082.56815,0.09185
4084.49662,0.09652
4086.42509,0.09376
4088.35356,0.08887
4090.28203,0.09110
4092.21049,0.09253
4094.13896,0.08450
4096.06743,0.07488
4097.99590,0.07685
4099.92437,0.08449
4101.85284,0.08046
4103.78131,0.07319
4105.70978,0.07924
4107.63824,0.08723
4109.56671,0.08429
4111.49518,0.07536
4113.42365,0.06992
4115.35212,0.07508
4117.28059,0.08325
4119.20906,0.08130
4121.13752,0.07751
4123.06599,0.08178
4124.99446,0.08478
4126.92293,0.08383
4128.85140,0.08416
4130.77987,0.08019
4132.70834,0.07063
4134.63681,0.06666
4136.56527,0.07265
4138.49374,0.07829
4140.42221,0.07451
4142.35068,0.06466
4144.27915,0.05937
4146.20762,0.06784
4148.13609,0.08091
4150.06455,0.08122
4151.99302,0.07693
4153.92149,0.08271
4155.84996,0.08607
4157.77843,0.07576
4159.70690,0.07012
4161.63537,0.07902
4163.56384,0.08038
4165.49230,0.06805
4167.42077,0.06478
4169.34924,0.07317
4171.27771,0.07471
4173.20618,0.06753
4175.13465,0.06284
4177.06312,0.06130
4178.99158,0.05640
4180.92005,0.05172
4182.84852,0.05139
4184.77699,0.05165
4186.70546,0.05330
4188.63393,0.05848
4190.56240,0.06172
4192.49087,0.05959
4194.41933,0.05858
4196.34780,0.06324
4198.27627,0.07065
4200.20474,0.07527
4202.13321,0.07111
4204.06168,0.05672
4205.99015,0.04594
4207.91861,0.05212
4209.84708,0.05974
4211.77555,0.05489
4213.70402,0.05252
4215.63249,0.06284
4217.56096,0.07158
4219.48943,0.06477
4221.41789,0.05318
4223.34636,0.05051
4225.27483,0.05425
4227.20330,0.05783
4229.13177,0.05680
4231.06024,0.05687
4232.98871,0.06084
4234.91718,0.05661
4236.84564,0.04472
4238.77411,0.04046
4240.70258,0.04642
4242.63105,0.05251
4244.55952,0.05673
4246.48799,0.06083
4248.41646,0.05805
4250.34492,0.04966
4252.27339,0.04382
4254.20186,0.04297
4256.13033,0.04657
4258.05880,0.04534
4259.98727,0.03947
4261.91574,0.04187
4263.84421,0.04628
4265.77267,0.04366
4267.70114,0.04037
4269.62961,0.04017
4271.55808,0.04156
4273.48655,0.04198
4275.41502,0.04000
4277.34349,0.03904
4279.27195,0.04243
4281.20042,0.04986
4283.12889,0.05555
4285.05736,0.05363
4286.98583,0.04591
4288.91430,0.03627
4290.84277,0.03194
4292.77124,0.03694
4294.69970,0.04306
4296.62817,0.04483
4298.55664,0.04141
4300.48511,0.03530
4302.41358,0.03319
4304.34205,0.03228
4306.27052,0.02524
4308.19898,0.01941
4310.12745,0.02600
4312.05592,0.03506
4313.98439,0.03370
4315.91286,0.02974
4317.84133,0.03157
4319.76980,0.03356
4321.69827,0.03279
4323.62673,0.03228
4325.55520,0.02931
4327.48367,0.02459
4329.41214,0.02438
4331.34061,0.02872
4333.26908,0.03233
4335.19755,0.03023
4337.12601,0.02675
4339.05448,0.03079
4340.98295,0.03814
4342.91142,0.04163
4344.83989,0.04215
4346.76836,0.03568
4348.69683,0.02341
4350.62530,0.01855
4352.55376,0.02004
4354.48223,0.02004
4356.41070,0.02510
4358.33917,0.03383
4360.26764,0.03284
4362.19611,0.02285
4364.12458,0.01056
4366.05304,0.00061
4367.98151,0.00333
4369.90998,0.01839
4371.83845,0.02962
4373.76692,0.02860
4375.69539,0.02112
4377.62386,0.01424
4379.55232,0.01453
4381.48079,0.02566
4383.40926,0.03641
4385.33773,0.03659
4387.26620,0.03315
4389.19467,0.02925
4391.12314,0.02211
4393.05161,0.01683
4394.98007,0.01327
4396.90854,0.00599
4398.83701,0.00078
4400.76548,0.00702
4402.69395,0.02274
4404.62242,0.03609
4406.55089,0.03623
4408.47935,0.02295
4410.40782,0.00593
4412.33629,-0.00355
4414.26476,-0.00432
4416.19323,-0.00419
4418.12170,0.00070
4420.05017,0.01513
4421.97864,0.02208
4423.90710,0.01078
4425.83557,-0.00080
4427.76404,0.00299
4429.69251,0.01198
4431.62098,0.01496
4433.54945,0.01316
4435.47792,0.00527
4437.40638,-0.00808
4439.33485,-0.01334
4441.26332,-0.00066
4443.19179,0.01448
4445.12026,0.01488
4447.04873,0.01165
4448.97720,0.01746
4450.90567,0.02553
4452.83413,0.02849
4454.76260,0.02555
4456.69107,0.01613
4458.61954,0.00463
4460.54801,0.00127
4462.47648,0.00431
4464.40495,0.00437
4466.33341,0.00535
4468.26188,0.00888
4470.19035,0.01108
4472.11882,0.01608
4474.04729,0.02403
4475.97576,0.02978
4477.90423,0.02866
4479.83270,0.02016
4481.76116,0.01149
4483.68963,0.00373
4485.61810,-0.00225
4487.54657,-0.00167
4489.47504,-0.00244
4491.40351,-0.00855
4493.33198,-0.01541
4495.26044,-0.02235
4497.18891,-0.01907
4499.11738,-0.00141
4501.04585,0.01363
4502.97432,0.01586
4504.90279,0.01063
4506.83126,0.00289
4508.75973,-0.00757
4510.68819,-0.01111
4512.61666,-0.00303
4514.54513,0.00151
4516.47360,0.00590
4518.40207,0.02100
4520.33054,0.03091
4522.25901,0.02782
4524.18747,0.02081
4526.11594,0.01539
4528.04441,0.01152
4529.97288,0.00134
4531.90135,-0.00986
4533.82982,-0.00707
4535.75829,-0.00086
4537.68676,-0.00376
4539.61522,-0.00109
4541.54369,0.00968
4543.47216,0.00796
4545.40063,-0.00176
4547.32910,-0.00138
4549.25757,0.00280
4551.18604,0.00390
4553.11450,0.00640
4555.04297,0.00611
4556.97144,0.00417
4558.89991,0.00436
4560.82838,-0.00183
4562.75685,-0.00694
4564.68532,0.00079
4566.61378,0.00536
4568.54225,-0.00306
4570.47072,-0.01091
4572.39919,-0.01000
4574.32766,-0.00188
4576.25613,0.00438
4578.18460,0.00012
4580.11307,-0.00317
4582.04153,0.00613
4583.97000,0.01365
4585.89847,0.00931
4587.82694,0.00539
4589.75541,0.00979
4591.68388,0.01835
4593.61235,0.02128
4595.54081,0.01266
4597.46928,0.00496
4599.39775,0.00694
4601.32622,0.00380
4603.25469,-0.00935
4605.18316,-0.01185
4607.11163,0.00339
4609.04010,0.02209
4610.96856,0.02937
4612.89703,0.01767
4614.82550,0.00230
4616.75397,0.00188
4618.68244,0.00940
4620.61091,0.01255
4622.53938,0.00847
4624.46784,0.00071
4626.39631,-0.00107
4628.32478,0.00246
4630.25325,0.00866
4632.18172,0.01884
4634.11019,0.02219
4636.03866,0.01486
4637.96713,0.00267
4639.89559,-0.00651
4641.82406,-0.00418
4643.75253,0.00234
4645.68100,0.00375
4647.60947,0.00559
4649.53794,0.01352
4651.46641,0.02097
4653.39487,0.02138
4655.32334,0.01309
4657.25181,-0.00371
4659.18028,-0.01585
4661.10875,-0.01051
4663.03722,0.00474
4664.96569,0.02016
4666.89416,0.03121
4668.82262,0.03193
4670.75109,0.02568
4672.67956,0.01879
4674.60803,0.00949
4676.53650,-0.00065
4678.46497,0.00291
4680.39344,0.01999
4682.32190,0.02516
4684.25037,0.01487
4686.17884,0.00211
4688.10731,-0.00992
4690.03578,-0.01221
4691.96425,-0.00191
4693.89272,0.01057
4695.82119,0.01783
4697.74965,0.01807
4699.67812,0.01492
4701.60659,0.01118
4703.53506,0.00737
4705.46353,0.00870
4707.39200,0.01164
4709.32047,0.00799
4711.24893,0.00440
4713.17740,0.00843
4715.10587,0.01672
4717.03434,0.02046
4718.96281,0.01481
4720.89128,0.00902
4722.81975,0.01340
4724.74821,0.02472
4726.67668,0.03135
4728.60515,0.02311
4730.53362,0.00536
4732.46209,-0.00607
4734.39056,-0.00822
4736.31903,-0.00640
4738.24750,-0.00149
4740.17596,0.00118
4742.10443,-0.00194
4744.03290,-0.00302
4745.96137,-0.00284
4747.88984,-0.00877
4749.81831,-0.01417
4751.74678,-0.01128
4753.67524,-0.00507
4755.60371,-0.00053
4757.53218,0.00253
4759.46065,0.00714
4761.38912,0.01289
4763.31759,0.01551
4765.24606,0.00402
4767.17453,-0.00884
4769.10299,-0.01173
4771.03146,-0.01575
4772.95993,-0.01372
4774.88840,0.00206
4776.81687,0.01887
4778.74534,0.02136
4780.67381,0.00682
4782.60227,-0.00440
4784.53074,-0.00370
4786.45921,-0.00122
4788.38768,0.00359
4790.31615,0.00786
4792.24462,0.00919
4794.17309,0.01485
4796.10156,0.03289
4798.03002,0.04837
4799.95849,0.03828
4801.88696,0.02092
4803.81543,0.01344
4805.74390,-0.00583
4807.67237,-0.02546
4809.60084,-0.01934
4811.52930,-0.00912
4813.45777,-0.00419
4815.38624,0.00710
4817.31471,0.01026
4819.24318,0.00075
4821.17165,-0.00517
4823.10012,-0.00154
4825.02859,0.00912
4826.95705,0.01586
4828.88552,0.01245
4830.81399,0.00841
4832.74246,0.00899
4834.67093,0.00867
4836.59940,0.00108
4838.52787,-0.00732
4840.45633,-0.00754
4842.38480,-0.00431
4844.31327,-0.00085
4846.24174,-0.00136
4848.17021,-0.01414
4850.09868,-0.02756
4852.02715,-0.02117
4853.95562,-0.00405
4855.88408,0.00390
4857.81255,0.00624
4859.74102,0.00719
4861.66949,0.00362
4863.59796,-0.00053
4865.52643,-0.00099
4867.45490,0.00845
4869.38336,0.02077
4871.31183,0.01833
4873.24030,0.00585
4875.16877,-0.00290
4877.09724,-0.00585
4879.02571,-0.00133
4880.95418,0.00298
4882.88265,0.00382
4884.81111,0.01135
4886.73958,0.01842
4888.66805,0.01458
4890.59652,0.00619
4892.52499,0.00353
4894.45346,0.00607
4896.38193,0.00749
4898.31039,0.00956
4900.23886,0.00866
4902.16733,-0.00427
4904.09580,-0.01819
4906.02427,-0.01219
4907.95274,0.00204
4909.88121,0.00066
4911.80967,-0.00880
4913.73814,-0.00759
4915.66661,0.00368
4917.59508,0.01680
4919.52355,0.03682
4921.45202,0.05991
4923.38049,0.05673
4925.30896,0.02389
4927.23742,0.00412
4929.16589,0.01230
4931.09436,0.02387
4933.02283,0.02954
4934.95130,0.02546
4936.87977,0.00829
4938.80824,-0.00379
4940.73670,0.00238
4942.66517,0.00902
4944.59364,0.00535
4946.52211,0.00967
4948.45058,0.02276
4950.37905,0.02885
4952.30752,0.02440
4954.23599,0.01214
4956.16445,0.00215
4958.09292,-0.00020
4960.02139,-0.00516
4961.94986,-0.01497
4963.87833,-0.01361
4965.80680,0.00555
4967.73527,0.02866
4969.66373,0.03907
4971.59220,0.03494
4973.52067,0.02407
4975.44914,0.00860
4977.37761,-0.00372
4979.30608,-0.00449
4981.23455,0.00047
4983.16302,0.00809
4985.09148,0.01866
4987.01995,0.01564
4988.94842,-0.00066
4990.87689,-0.00251
4992.80536,0.00301
4994.73383,-0.00714
4996.66230,-0.02097
4998.59076,-0.01917
5000.51923,-0.00012
5002.44770,0.02493
5004.37617,0.03199
5006.30464,0.01777
5008.23311,0.00173
5010.16158,-0.00086
5012.09005,0.00488
5014.01851,0.00785
5015.94698,0.01059
5017.87545,0.01938
5019.80392,0.02826
5021.73239,0.02308
5023.66086,0.00704
5025.58933,0.00290
5027.51779,0.01947
5029.44626,0.03829
5031.37473,0.04388
5033.30320,0.04167
5035.23167,0.02983
5037.16014,0.00946
5039.08861,-0.00429
5041.01708,0.00099
5042.94554,0.02708
5044.87401,0.04584
5046.80248,0.03388
5048.73095,0.01651
5050.65942,0.00344
5052.58789,-0.01495
5054.51636,-0.01789
5056.44482,-0.00121
5058.37329,0.01132
5060.30176,0.02053
5062.23023,0.02593
5064.15870,0.01010
5066.08717,-0.01711
5068.01564,-0.02817
5069.94410,-0.01671
5071.87257,0.00585
5073.80104,0.01290
5075.72951,0.00589
5077.65798,0.00997
5079.58645,0.02574
5081.51492,0.04080
5083.44339,0.05733
5085.37185,0.07010
5087.30032,0.05460
5089.22879,0.01693
5091.15726,-0.00586
5093.08573,-0.00658
5095.01420,-0.00658
5096.94267,-0.01187
5098.87113,-0.00781
5100.79960,0.00189
5102.72807,0.00626
5104.65654,0.01140
5106.58501,0.02695
5108.51348,0.04079
5110.44195,0.03088
5112.37042,0.00634
5114.29888,-0.00289
5116.22735,0.00425
5118.15582,0.00901
5120.08429,0.00950
5122.01276,0.00676
5123.94123,-0.00283
5125.86970,-0.00337
5127.79816,0.00438
5129.72663,-0.00364
5131.65510,-0.01974
5133.58357,-0.01835
5135.51204,-0.00625
5137.44051,0.00359
5139.36898,0.00875
5141.29745,0.00218
5143.22591,-0.00303
5145.15438,0.01454
5147.08285,0.03786
5149.01132,0.03275
5150.93979,0.01268
5152.86826,0.00770
5154.79673,0.00960
5156.72519,0.01224
5158.65366,0.01502
5160.58213,0.01263
5162.51060,0.01091
5164.43907,0.01159
5166.36754,0.01684
5168.29601,0.03010
5170.22448,0.04582
5172.15294,0.04461
5174.08141,0.02287
5176.00988,0.00837
5177.93835,0.00827
5179.86682,0.01116
5181.79529,0.02591
5183.72376,0.06124
5185.65222,0.08270
5187.58069,0.05988
5189.50916,0.03643
5191.43763,0.04490
5193.36610,0.05777
5195.29457,0.04721
5197.22304,0.02118
5199.15151,0.01156
5201.07997,0.02749
5203.00844,0.04735
5204.93691,0.04921
5206.86538,0.02550
5208.79385,0.00046
5210.72232,0.00180
5212.65079,0.01425
5214.57925,0.01253
5216.50772,0.00490
5218.43619,-0.00438
5220.36466,-0.02386
5222.29313,-0.03376
5224.22160,-0.02320
5226.15007,-0.01088
5228.07854,-0.00362
5230.00700,0.00933
5231.93547,0.03078
5233.86394,0.05103
5235.79241,0.05054
5237.72088,0.03577
5239.64935,0.03664
5241.57782,0.03777
5243.50628,0.01535
5245.43475,0.00222
5247.36322,0.01980
5249.29169,0.04730
5251.22016,0.06809
5253.14863,0.08061
5255.07710,0.08116
5257.00556,0.07203
5258.93403,0.07187
5260.86250,0.07580
5262.79097,0.06547
5264.71944,0.04352
5266.64791,0.02522
5268.57638,0.02487
5270.50485,0.03334
5272.43331,0.03908
5274.36178,0.03509
5276.29025,0.02029
5278.21872,0.03110
5280.14719,0.06005
5282.07566,0.06169
5284.00413,0.04854
5285.93259,0.02686
5287.86106,-0.00739
5289.78953,-0.02443
5291.71800,-0.00681
5293.64647,0.02541
5295.57494,0.05002
5297.50341,0.07778
5299.43188,0.11352
5301.36034,0.11198
5303.28881,0.05839
5305.21728,0.01544
5307.14575,0.01853
5309.07422,0.02566
5311.00269,0.00317
5312.93116,-0.01946
5314.85962,-0.00814
5316.78809,0.02189
5318.71656,0.04136
5320.64503,0.05359
5322.57350,0.05871
5324.50197,0.05612
5326.43044,0.05022
5328.35891,0.03372
5330.28737,0.02410
5332.21584,0.03446
5334.14431,0.04336
5336.07278,0.04206
5338.00125,0.03668
5339.92972,0.03075
5341.85819,0.03649
5343.78665,0.05660
5345.71512,0.07192
5347.64359,0.07035
5349.57206,0.06634
5351.50053,0.07533
5353.42900,0.09314
5355.35747,0.09618
5357.28594,0.07886
5359.21440,0.05915
5361.14287,0.04006
5363.07134,0.01672
5364.99981,0.01360
5366.92828,0.03790
5368.85675,0.05673
5370.78522,0.05448
5372.71368,0.04373
5374.64215,0.03789
5376.57062,0.04252
5378.49909,0.04830
5380.42756,0.04107
5382.35603,0.03680
5384.28450,0.05712
5386.21297,0.07835
5388.14143,0.07263
5390.06990,0.05941
5391.99837,0.04247
5393.92684,0.01210
5395.85531,-0.00794
5397.78378,0.00958
5399.71225,0.06438
5401.64071,0.11141
5403.56918,0.10500
5405.49765,0.06979
5407.42612,0.04326
5409.35459,0.03343
5411.28306,0.04373
5413.21153,0.06174
5415.13999,0.05284
5417.06846,0.03303
5418.99693,0.04904
5420.92540,0.08040
5422.85387,0.06544
5424.78234,0.01132
5426.71081,-0.01239
5428.63928,0.02646
5430.56774,0.07082
5432.49621,0.06902
5434.42468,0.03331
5436.35315,0.01539
5438.28162,0.03850
5440.21009,0.05698
5442.13856,0.04552
5444.06702,0.03868
5445.99549,0.05512
5447.92396,0.08179
5449.85243,0.09057
5451.78090,0.06912
5453.70937,0.05243
5455.63784,0.07693
5457.56631,0.12318
5459.49477,0.14396
5461.42324,0.13968
5463.35171,0.13424
5465.28018,0.13423
5467.20865,0.12091
5469.13712,0.08489
5471.06559,0.05863
5472.99405,0.06579
5474.92252,0.08593
5476.85099,0.08625
5478.77946,0.07593
5480.70793,0.07998
5482.63640,0.08432
5484.56487,0.06308
5486.49334,0.04800
5488.42180,0.07360
5490.35027,0.09777
5492.27874,0.08545
5494.20721,0.06408
5496.13568,0.06322
5498.06415,0.08253
5499.99262,0.09896
5501.92108,0.08396
5503.84955,0.04608
5505.77802,0.02588
5507.70649,0.04252
5509.63496,0.06745
5511.56343,0.06102
5513.49190,0.02503
5515.42037,0.00540
5517.34883,0.01437
5519.27730,0.03429
5521.20577,0.06682
5523.13424,0.08597
5525.06271,0.07465
5526.99118,0.06716
5528.91965,0.06921
5530.84811,0.06843
5532.77658,0.06835
5534.70505,0.05594
5536.63352,0.01974
5538.56199,-0.00907
5540.49046,0.00317
5542.41893,0.04857
5544.34740,0.08735
5546.27586,0.08663
5548.20433,0.06331
5550.13280,0.05178
5552.06127,0.06456
5553.98974,0.08418
5555.91821,0.08322
5557.84668,0.08138
5559.77514,0.08369
5561.70361,0.06553
5563.63208,0.06452
5565.56055,0.10454
5567.48902,0.13430
5569.41749,0.12905
5571.34596,0.10214
5573.27443,0.05736
5575.20289,0.01624
5577.13136,0.01434
5579.05983,0.05030
5580.98830,0.08900
5582.91677,0.10660
5584.84524,0.10943
5586.77371,0.12787
5588.70217,0.15946
5590.63064,0.14452
5592.55911,0.08371
5594.48758,0.04550
5596.41605,0.06803
5598.34452,0.11317
5600.27299,0.11393
5602.20145,0.07589
5604.12992,0.05171
5606.05839,0.05403
5607.98686,0.06759
5609.91533,0.10053
5611.84380,0.12443
5613.77227,0.07475
5615.70074,0.00842
5617.62920,0.00320
5619.55767,0.01991
5621.48614,0.03411
5623.41461,0.05894
5625.34308,0.06462
5627.27155,0.05383
5629.20002,0.07386
5631.12848,0.10332
5633.05695,0.09766
5634.98542,0.07670
5636.91389,0.07301
5638.84236,0.08833
5640.77083,0.10668
5642.69930,0.10939
5644.62777,0.10404
5646.55623,0.09838
5648.48470,0.09614
5650.41317,0.09850
5652.34164,0.08275
5654.27011,0.05788
5656.19858,0.04694
5658.12705,0.04916
5660.05551,0.06003
5661.98398,0.05706
5663.91245,0.03850
5665.84092,0.04633
5667.76939,0.08822
5669.69786,0.12446
5671.62633,0.12961
5673.55480,0.11577
5675.48326,0.10697
5677.41173,0.10335
5679.34020,0.09132
5681.26867,0.07871
5683.19714,0.07869
5685.12561,0.09587
5687.05408,0.10851
5688.98254,0.09692
5690.91101,0.09897
5692.83948,0.12210
5694.76795,0.12366
5696.69642,0.11515
5698.62489,0.11857
5700.55336,0.10722
5702.48183,0.06954
5704.41029,0.03207
5706.33876,0.03962
5708.26723,0.09366
5710.19570,0.12189
5712.12417,0.10312
5714.05264,0.10006
5715.98111,0.11277
5717.90957,0.09552
5719.83804,0.07090
5721.76651,0.06636
5723.69498,0.07182
5725.62345,0.07808
5727.55192,0.07542
5729.48039,0.07504
5731.40886,0.08475
5733.33732,0.08770
5735.26579,0.07856
5737.19426,0.05916
5739.12273,0.04442
5741.05120,0.05604
5742.97967,0.08199
5744.90814,0.07624
5746.83660,0.05578
5748.76507,0.07571
5750.69354,0.06846
5752.62201,0.00575
5754.55048,0.01270
5756.47895,0.09321
5758.40742,0.13129
5760.33588,0.10288
5762.26435,0.07962
5764.19282,0.08782
5766.12129,0.10186
5768.04976,0.12090
5769.97823,0.12464
5771.90670,0.08653
5773.83517,0.03238
5775.76363,0.00234
5777.69210,0.01868
5779.62057,0.06825
5781.54904,0.08530
5783.47751,0.05456
5785.40598,0.04158
5787.33445,0.06382
5789.26291,0.07383
5791.19138,0.05635
5793.11985,0.03929
5795.04832,0.04571
5796.97679,0.07441
5798.90526,0.08917
5800.83373,0.07170
5802.76220,0.07240
5804.69066,0.10224
5806.61913,0.09237
5808.54760,0.05187
5810.47607,0.06349
5812.40454,0.11545
5814.33301,0.12329
5816.26148,0.09418
5818.18994,0.07801
5820.11841,0.08011
5822.04688,0.09071
5823.97535,0.08185
5825.90382,0.05992
5827.83229,0.07012
5829.76076,0.10772
5831.68923,0.12741
5833.61769,0.12139
5835.54616,0.12668
5837.47463,0.14924
5839.40310,0.14148
5841.33157,0.09133
5843.26004,0.05360
5845.18851,0.05416
5847.11697,0.05748
5849.04544,0.04215
5850.97391,0.03815
5852.90238,0.07041
5854.83085,0.09990
5856.75932,0.08912
5858.68779,0.07889
5860.61626,0.09827
5862.54472,0.08657
5864.47319,0.02532
5866.40166,-0.00402
5868.33013,0.01454
5870.25860,0.02916
5872.18707,0.03354
5874.11554,0.04612
5876.04400,0.07226
5877.97247,0.08460
5879.90094,0.06966
5881.82941,0.07589
5883.75788,0.10591
5885.68635,0.09256
5887.61482,0.04155
5889.54329,0.02445
5891.47175,0.04735
5893.40022,0.07246
5895.32869,0.09003
5897.25716,0.09566
5899.18563,0.09159
5901.11410,0.09740
5903.04257,0.09915
5904.97103,0.09216
5906.89950,0.11049
5908.82797,0.12765
5910.75644,0.12102
5912.68491,0.11977
5914.61338,0.09824
5916.54185,0.06020
5918.47032,0.05628
5920.39878,0.05997
5922.32725,0.03703
5924.25572,0.02227
5926.18419,0.03364
5928.11266,0.04554
5930.04113,0.06858
5931.96960,0.11234
5933.89806,0.14400
5935.82653,0.14664
5937.75500,0.11805
5939.68347,0.08685
5941.61194,0.08830
5943.54041,0.10085
5945.46888,0.09168
5947.39734,0.06625
5949.32581,0.05108
5951.25428,0.05367
5953.18275,0.05676
5955.11122,0.05836
5957.03969,0.07169
5958.96816,0.08710
5960.89663,0.10282
5962.82509,0.11532
5964.75356,0.08702
5966.68203,0.05604
5968.61050,0.08436
5970.53897,0.11121
5972.46744,0.06015
5974.39591,-0.00744
5976.32437,-0.00913
5978.25284,0.00964
5980.18131,0.00982
5982.10978,-0.00478
5984.03825,-0.03499
5985.96672,-0.03057
5987.89519,0.04042
5989.82366,0.10204
5991.75212,0.08761
5993.68059,0.02507
5995.60906,-0.01763
5997.53753,0.01738
5999.46600,0.07911
6001.39447,0.08691
6003.32294,0.06613
6005.25140,0.04401
6007.17987,0.01592
6009.10834,0.02735
6011.03681,0.07467
6012.96528,0.07793
6014.89375,0.03740
6016.82222,0.01398
6018.75069,0.00382
6020.67915,0.00316
6022.60762,0.04153
6024.53609,0.09406
6026.46456,0.13083
6028.39303,0.15085
6030.32150,0.13526
6032.24997,0.08834
6034.17843,0.05975
6036.10690,0.04633
6038.03537,0.01333
6039.96384,-0.00691
6041.89231,-0.00381
6043.82078,0.01011
6045.74925,0.05530
6047.67772,0.10541
6049.60618,0.09945
6051.53465,0.05873
6053.46312,0.05984
6055.39159,0.10063
6057.32006,0.11214
6059.24853,0.09658
6061.17700,0.05546
6063.10546,-0.02835
6065.03393,-0.05998
6066.96240,0.00423
6068.89087,0.06703
6070.81934,0.06508
6072.74781,0.06364
6074.67628,0.12733
6076.60475,0.19926
6078.53321,0.20314
6080.46168,0.14672
6082.39015,0.09601
6084.31862,0.09016
6086.24709,0.11766
6088.17556,0.14906
6090.10403,0.16151
6092.03249,0.18069
6093.96096,0.18206
6095.88943,0.13339
6097.81790,0.13137
6099.74637,0.15579
6101.67484,0.09695
6103.60331,0.01708
6105.53177,0.00319
6107.46024,0.03272
6109.38871,0.05093
6111.31718,0.05536
6113.24565,0.07145
6115.17412,0.08330
6117.10259,0.04553
6119.03106,-0.01957
6120.95952,-0.02982
6122.88799,-0.02794
6124.81646,-0.05801
6126.74493,-0.03610
6128.67340,0.07760
6130.60187,0.20916
6132.53034,0.25648
6134.45880,0.17088
6136.38727,0.05202
6138.31574,0.02166
6140.24421,0.06103
6142.17268,0.07450
6144.10115,0.04368
6146.02962,0.02910
6147.95809,0.02114
6149.88655,0.00955
6151.81502,0.01935
6153.74349,0.02961
6155.67196,0.05989
6157.60043,0.12897
6159.52890,0.16682
6161.45737,0.14172
6163.38583,0.09597
6165.31430,0.06866
6167.24277,0.08436
6169.17124,0.11922
6171.09971,0.12298
6173.02818,0.07809
6174.95665,0.02075
6176.88512,-0.00619
6178.81358,0.01744
6180.74205,0.09891
6182.67052,0.16815
6184.59899,0.15463
6186.52746,0.10842
6188.45593,0.11139
6190.38440,0.15145
6192.31286,0.14090
6194.24133,0.08179
6196.16980,0.06145
6198.09827,0.10000
6200.02674,0.15182
6201.95521,0.17999
6203.88368,0.17082
6205.81215,0.13942
6207.74061,0.12556
6209.66908,0.14211
6211.59755,0.14347
6213.52602,0.12074
6215.45449,0.09345
6217.38296,0.06705
6219.31143,0.05492
6221.23989,0.03196
6223.16836,0.02337
6225.09683,0.06812
6227.02530,0.10568
6228.95377,0.10582
6230.88224,0.06722
6232.81071,0.00675
6234.73918,-0.01936
6236.66764,-0.00190
6238.59611,0.04136
6240.52458,0.09266
6242.45305,0.12909
6244.38152,0.12037
6246.30999,0.06696
6248.23846,0.02719
6250.16692,0.02546
6252.09539,0.01643
6254.02386,-0.00382
6255.95233,0.01432
6257.88080,0.07062
6259.80927,0.09811
6261.73774,0.10264
6263.66621,0.11738
6265.59467,0.07787
6267.52314,0.00163
6269.45161,-0.02255
6271.38008,-0.00664
6273.30855,0.00294
6275.23702,-0.00089
6277.16549,0.00735
6279.09395,-0.01790
6281.02242,-0.06487
6282.95089,-0.05629
6284.87936,-0.00444
6286.80783,0.01993
6288.73630,-0.00989
6290.66477,-0.01702
6292.59323,0.02756
6294.52170,0.05092
6296.45017,0.09449
6298.37864,0.20270
6300.30711,0.25627
6302.23558,0.17694
6304.16405,0.08576
6306.09252,0.07222
6308.02098,0.07333
6309.94945,0.04178
6311.87792,0.03274
6313.80639,0.04502
6315.73486,0.05152
6317.66333,0.08972
6319.59180,0.17180
6321.52026,0.25448
6323.44873,0.26536
6325.37720,0.20929
6327.30567,0.14530
6329.23414,0.10942
6331.16261,0.09509
6333.09108,0.05739
6335.01955,0.00711
6336.94801,0.02183
6338.87648,0.11826
6340.80495,0.17956
6342.73342,0.14221
6344.66189,0.07760
6346.59036,0.02400
6348.51883,-0.02838
6350.44729,-0.06001
6352.37576,-0.02015
6354.30423,0.04786
6356.23270,0.05331
6358.16117,0.02967
6360.08964,0.04170
6362.01811,0.04279
6363.94658,-0.00699
6365.87504,-0.06752
6367.80351,-0.08784
6369.73198,-0.06703
6371.66045,-0.04583
6373.58892,-0.02121
6375.51739,0.05458
6377.44586,0.14806
6379.37432,0.16855
6381.30279,0.11543
6383.23126,0.05756
6385.15973,0.02615
6387.08820,0.01734
6389.01667,0.01886
6390.94514,0.01941
6392.87361,0.03102
6394.80207,0.03191
6396.73054,0.03419
6398.65901,0.08213
6400.58748,0.10952
6402.51595,0.07711
6404.44442,0.05768
6406.37289,0.02761
6408.30135,-0.06063
6410.22982,-0.11957
6412.15829,-0.09062
6414.08676,-0.00557
6416.01523,0.05894
6417.94370,0.03776
6419.87217,0.03656
6421.80064,0.12952
6423.72910,0.18737
6425.65757,0.12256
6427.58604,0.00504
6429.51451,-0.06789
6431.44298,-0.06597
6433.37145,-0.01202
6435.29992,0.02900
6437.22838,0.03465
6439.15685,0.03883
6441.08532,0.05956
6443.01379,0.09789
6444.94226,0.10877
6446.87073,0.08728
6448.79920,0.08738
6450.72766,0.07838
6452.65613,0.03412
6454.58460,0.00195
6456.51307,0.00706
6458.44154,0.02909
6460.37001,0.00088
6462.29848,-0.04929
6464.22695,-0.03462
6466.15541,0.01865
6468.08388,0.09283
6470.01235,0.16355
6471.94082,0.16027
6473.86929,0.10054
6475.79776,0.03490
6477.72623,0.02405
6479.65469,0.07396
6481.58316,0.10476
6483.51163,0.08915
6485.44010,0.08787
6487.36857,0.11621
6489.29704,0.12000
6491.22551,0.09588
6493.15398,0.10848
6495.08244,0.15383
6497.01091,0.16188
6498.93938,0.11169
6500.86785,0.04670
6502.79632,0.00444
6504.72479,-0.02658
6506.65326,-0.02069
6508.58172,0.01377
6510.51019,0.01146
6512.43866,0.01725
6514.36713,0.05886
6516.29560,0.06804
6518.22407,0.05616
6520.15254,0.03554
6522.08101,0.00905
6524.00947,0.05456
6525.93794,0.17156
6527.86641,0.22701
6529.79488,0.18564
6531.72335,0.11626
6533.65182,0.05173
6535.58029,-0.03988
6537.50875,-0.15232
6539.43722,-0.19980
6541.36569,-0.14172
6543.29416,-0.08030
6545.22263,-0.07843
6547.15110,-0.07331
6549.07957,-0.06968
6551.00804,-0.11964
6552.93650,-0.13973
6554.86497,-0.03664
6556.79344,0.06714
6558.72191,0.06939
6560.65038,0.08046
6562.57885,0.15075
6564.50732,0.20938
6566.43578,0.21984
6568.36425,0.17457
6570.29272,0.08202
6572.22119,0.03630
6574.14966,0.09441
6576.07813,0.10586
6578.00660,-0.00282
6579.93507,-0.08304
6581.86353,-0.08546
6583.79200,-0.06187
6585.72047,-0.01080
6587.64894,0.04303
6589.57741,0.07900
6591.50588,0.11535
6593.43435,0.11146
6595.36281,0.03320
6597.29128,-0.02886
6599.21975,-0.03990
6601.14822,-0.04407
6603.07669,-0.04027
6605.00516,-0.00894
6606.93363,0.05075
6608.86210,0.11014
6610.79056,0.14229
6612.71903,0.14316
6614.64750,0.09898
6616.57597,0.04132
6618.50444,0.05012
6620.43291,0.10680
6622.36138,0.11025
6624.28984,0.07141
6626.21831,0.05155
6628.14678,0.01394
6630.07525,-0.00544
6632.00372,0.03650
6633.93219,0.02648
6635.86066,-0.03935
6637.78912,-0.03140
6639.71759,0.01571
6641.64606,0.04715
6643.57453,0.07456
6645.50300,0.10057
6647.43147,0.15469
6649.35994,0.16308
6651.28841,0.07794
6653.21687,0.01621
6655.14534,0.00696
6657.07381,-0.03101
6659.00228,-0.07525
6660.93075,-0.05808
6662.85922,0.03636
6664.78769,0.18631
6666.71615,0.31540
6668.64462,0.34349
6670.57309,0.27280
6672.50156,0.19327
6674.43003,0.18119
6676.35850,0.19621
6678.28697,0.18080
6680.21544,0.12492
6682.14390,0.04712
6684.07237,-0.00330
6686.00084,0.03409
6687.92931,0.11405
6689.85778,0.08376
6691.78625,-0.02040
6693.71472,-0.06267
6695.64318,-0.05653
6697.57165,-0.03409
6699.50012,0.02638
6701.42859,0.06287
6703.35706,0.01991
6705.28553,-0.04067
6707.21400,-0.06108
6709.14247,-0.01864
6711.07093,0.04095
6712.99940,0.04527
6714.92787,0.02539
6716.85634,0.07693
6718.78481,0.17009
6720.71328,0.19246
6722.64175,0.15705
6724.57021,0.12909
6726.49868,0.15337
6728.42715,0.19351
6730.35562,0.15408
6732.28409,0.05876
6734.21256,0.00525
6736.14103,0.04285
6738.06950,0.08527
6739.99796,0.05672
6741.92643,0.03455
6743.85490,0.05049
6745.78337,0.02557
6747.71184,-0.04037
6749.64031,-0.06342
6751.56878,-0.01987
6753.49724,-0.00235
6755.42571,-0.07961
6757.35418,-0.09172
6759.28265,0.09072
6761.21112,0.23636
6763.13959,0.17555
6765.06806,0.07258
6766.99653,-0.00674
6768.92499,-0.08930
6770.85346,-0.13463
6772.78193,-0.09789
6774.71040,-0.01766
6776.63887,0.01503
6778.56734,-0.01937
6780.49581,-0.05628
6782.42427,-0.02555
6784.35274,0.06776
6786.28121,0.10677
6788.20968,0.08063
6790.13815,0.10680
6792.06662,0.18715
6793.99509,0.22720
6795.92355,0.18053
6797.85202,0.06377
6799.78049,-0.00641
6801.70896,0.03323
6803.63743,0.07578
6805.56590,0.04094
6807.49437,-0.03134
6809.42284,-0.06723
6811.35130,-0.00216
6813.27977,0.12508
6815.20824,0.16639
6817.13671,0.10559
6819.06518,0.05361
6820.99365,0.01225
6822.92212,0.01226
6824.85058,0.05096
6826.77905,0.02007
6828.70752,-0.04806
6830.63599,-0.10048
6832.56446,-0.06743
6834.49293,0.12575
6836.42140,0.31720
6838.34987,0.28501
6840.27833,0.13417
6842.20680,0.01563
6844.13527,-0.07304
6846.06374,-0.15811
6847.99221,-0.14706
6849.92068,0.00084
6851.84915,0.08506
6853.77761,0.05341
6855.70608,0.00930
6857.63455,-0.01099
6859.56302,0.01295
6861.49149,0.10843
6863.41996,0.14716
6865.34843,0.03001
6867.27690,-0.11013
6869.20536,-0.11459
6871.13383,-0.01072
6873.06230,0.07728
6874.99077,0.09753
6876.91924,0.13223
6878.84771,0.21144
6880.77618,0.24449
6882.70464,0.14291
6884.63311,-0.00362
6886.56158,-0.07307
6888.49005,-0.01102
6890.41852,0.09035
6892.34699,0.14292
6894.27546,0.15657
6896.20393,0.15559
6898.13239,0.14645
6900.06086,0.15804
6901.98933,0.18955
6903.91780,0.22512
6905.84627,0.20876
6907.77474,0.13280
6909.70321,0.11401
6911.63167,0.09981
6913.56014,0.00585
6915.48861,-0.12114
6917.41708,-0.20125
6919.34555,-0.08038
6921.27402,0.17045
6923.20249,0.25000
6925.13096,0.12438
6927.05942,0.00265
6928.98789,0.08342
6930.91636,0.28428
6932.84483,0.34534
6934.77330,0.29772
6936.70177,0.29496
6938.63024,0.33208
6940.55870,0.34952
6942.48717,0.28232
6944.41564,0.09315
6946.34411,-0.10144
6948.27258,-0.09617
6950.20105,0.02773
6952.12952,0.07349
6954.05799,0.00848
6955.98645,-0.06394
6957.91492,-0.02535
6959.84339,0.03851
6961.77186,0.05761
6963.70033,0.06817
6965.62880,0.00421
6967.55727,-0.17413
6969.48573,-0.29823
6971.41420,-0.25806
6973.34267,-0.18195
6975.27114,-0.05227
6977.19961,0.15538
6979.12808,0.20550
6981.05655,0.09111
6982.98501,0.00909
6984.91348,0.06006
6986.84195,0.17957
6988.77042,0.13949
6990.69889,-0.05421
6992.62736,-0.11601
6994.55583,-0.05230
6996.48430,-0.04115
6998.41276,-0.07088
7000.34123,-0.03962
7002.26970,0.00301
7004.19817,0.01309
7006.12664,0.03200
7008.05511,0.04080
7009.98358,0.00994
7011.91204,-0.00458
7013.84051,0.02493
7015.76898,0.03163
7017.69745,0.00091
7019.62592,-0.00781
7021.55439,-0.01196
7023.48286,-0.05027
7025.41133,-0.08178
7027.33979,-0.02340
7029.26826,0.18294
7031.19673,0.34421
7033.12520,0.33382
7035.05367,0.29081
7036.98214,0.24620
7038.91061,0.13279
7040.83907,0.06071
7042.76754,0.12256
7044.69601,0.20629
7046.62448,0.23624
7048.55295,0.23950
7050.48142,0.19155
7052.40989,0.13275
7054.33836,0.10263
7056.26682,0.08167
7058.19529,0.10611
7060.12376,0.14055
7062.05223,0.10421
7063.98070,0.00831
7065.90917,-0.07827
7067.83764,-0.14523
7069.76610,-0.21447
7071.69457,-0.24622
7073.62304,-0.21546
7075.55151,-0.15118
7077.47998,-0.10085
7079.40845,-0.16161
7081.33692,-0.28579
7083.26539,-0.27986
7085.19385,-0.26202
7087.12232,-0.26845
7089.05079,-0.18172
7090.97926,-0.11093
7092.90773,-0.09902
7094.83620,-0.04533
7096.76467,0.06174
7098.69313,0.14597
7100.62160,0.09513
7102.55007,-0.01004
7104.47854,0.06930
7106.40701,0.32689
7108.33548,0.44883
7110.26395,0.38666
7112.19242,0.28009
7114.12088,0.25058
7116.04935,0.29150
7117.97782,0.29212
7119.90629,0.29361
7121.83476,0.28363
7123.76323,0.22280
7125.69170,0.22334
7127.62016,0.24060
7129.54863,0.18108
7131.47710,0.12893
7133.40557,0.11612
7135.33404,0.07632
7137.26251,0.02427
7139.19098,0.02811
7141.11944,-0.03521
7143.04791,-0.23961
7144.97638,-0.33542
7146.90485,-0.26345
7148.83332,-0.10545
7150.76179,0.19678
7152.69026,0.44651
7154.61873,0.32203
7156.54719,-0.00290
7158.47566,-0.13312
7160.40413,0.01105
7162.33260,0.25087
7164.26107,0.40054
7166.18954,0.43904
7168.11801,0.38215
7170.04647,0.22877
7171.97494,0.14412
7173.90341,0.24213
7175.83188,0.42973
7177.76035,0.47301
7179.68882,0.22199
7181.61729,-0.10738
7183.54576,-0.20405
7185.47422,-0.08048
7187.40269,0.11669
7189.33116,0.27947
7191.25963,0.25944
7193.18810,0.08872
7195.11657,-0.08854
7197.04504,-0.16672
7198.97350,-0.08905
7200.90197,0.04204
7202.83044,0.07859
7204.75891,-0.03462
7206.68738,-0.14398
7208.61585,-0.13167
7210.54432,-0.03942
7212.47279,-0.00295
7214.40125,-0.06985
7216.32972,-0.14509
7218.25819,-0.14372
7220.18666,-0.09939
7222.11513,-0.11468
7224.04360,-0.10315
7225.97207,0.06342
7227.90053,0.20745
7229.82900,0.12452
7231.75747,-0.00223
7233.68594,0.04646
7235.61441,0.10171
7237.54288,0.06962
7239.47135,0.06970
7241.39982,0.12431
7243.32828,0.09965
7245.25675,0.03512
7247.18522,-0.07355
7249.11369,-0.27538
7251.04216,-0.33907
7252.97063,-0.10762
7254.89910,0.09173
7256.82756,0.15541
7258.75603,0.21725
7260.68450,0.23083
7262.61297,0.14201
7264.54144,0.03422
7266.46991,0.04970
7268.39838,0.22913
7270.32685,0.38858
7272.25531,0.32608
7274.18378,0.18562
7276.11225,0.13160
7278.04072,0.05136
7279.96919,-0.14685
7281.89766,-0.27237
7283.82613,-0.14426
7285.75459,0.09029
7287.68306,0.21392
7289.61153,0.18698
7291.54000,0.11823
7293.46847,0.13523
7295.39694,0.26430
7297.32541,0.37873
7299.25387,0.41527
7301.18234,0.46514
7303.11081,0.53268
7305.03928,0.49198
7306.96775,0.36110
7308.89622,0.33114
7310.82469,0.42520
7312.75316,0.43717
7314.68162,0.30136
7316.61009,0.06233
7318.53856,-0.07749
7320.46703,0.04650
7322.39550,0.22078
7324.32397,0.11724
7326.25244,-0.08797
7328.18090,-0.11312
7330.10937,-0.03742
7332.03784,-0.02086
7333.96631,0.02765
7335.89478,0.15842
7337.82325,0.34522
7339.75172,0.44485
7341.68019,0.26796
7343.60865,0.07074
7345.53712,-0.10251
7347.46559,-0.25648
7349.39406,-0.35591
7351.32253,-0.41904
7353.25100,-0.36035
7355.17947,-0.19555
7357.10793,-0.00842
7359.03640,0.07658
7360.96487,-0.00804
7362.89334,-0.02462
7364.82181,0.10748
7366.75028,0.18886
7368.67875,0.24884
7370.60722,0.36999
7372.53568,0.44778
7374.46415,0.42198
7376.39262,0.28064
7378.32109,0.24841
7380.24956,0.38521
7382.17803,0.37182
7384.10650,0.18805
7386.03496,0.11451
7387.96343,0.16060
7389.89190,0.24852
7391.82037,0.33078
7393.74884,0.27350
7395.67731,0.12259
7397.60578,0.05642
7399.53425,-0.00228
7401.46271,-0.06894
7403.39118,-0.08622
7405.31965,-0.01976
7407.24812,0.11519
7409.17659,0.16640
7411.10506,0.16145
7413.03353,0.17972
7414.96199,0.22145
7416.89046,0.33002
7418.81893,0.34219
7420.74740,0.08915
7422.67587,-0.15602
7424.60434,-0.20527
7426.53281,-0.07026
7428.46128,0.08021
7430.38974,0.10750
7432.31821,0.11689
7434.24668,0.14449
7436.17515,0.04163
7438.10362,-0.12598
7440.03209,-0.06840
7441.96056,0.20939
7443.88902,0.31957
7445.81749,0.20769
7447.74596,0.19175
7449.67443,0.32308
7451.60290,0.39329
7453.53137,0.33988
7455.45984,0.24105
7457.38831,0.13800
7459.31677,0.19966
7461.24524,0.43049
7463.17371,0.35250
7465.10218,0.01918
7467.03065,-0.02050
7468.95912,0.20198
7470.88759,0.26129
7472.81605,0.12689
7474.74452,0.12611
7476.67299,0.21581
7478.60146,0.16944
7480.52993,0.16564
7482.45840,0.28157
7484.38687,0.19564
7486.31533,0.00239
7488.24380,-0.08948
7490.17227,-0.07620
7492.10074,0.07669
7494.02921,0.28630
7495.95768,0.33927
7497.88615,0.19987
