399.19301,0.20705
401.12148,-0.93193
403.04995,-0.31286
404.97842,0.08318
406.90689,0.19499
408.83536,0.14501
410.76382,-0.02821
412.69229,-0.21652
414.62076,-0.21686
416.54923,-0.09985
418.47770,-0.03728
420.40617,-0.06524
422.33464,-0.04679
424.26311,0.04880
426.19157,0.16127
428.12004,0.21956
430.04851,0.17722
431.97698,0.08005
433.90545,0.09486
435.83392,0.11255
437.76239,0.04154
439.69085,0.00689
441.61932,0.03339
443.54779,0.10598
445.47626,0.13639
447.40473,0.03536
449.33320,-0.06636
451.26167,-0.04902
453.19013,0.02376
455.11860,0.07663
457.04707,0.12629
458.97554,0.15838
460.90401,0.13644
462.83248,0.04198
464.76095,-0.04403
466.68942,0.00461
468.61788,0.11691
470.54635,0.18766
472.47482,0.25817
474.40329,0.31810
476.33176,0.20480
478.26023,0.06476
480.18870,-0.00403
482.11716,0.00013
484.04563,-0.01376
485.97410,-0.04886
487.90257,0.02265
489.83104,0.13740
491.75951,0.15816
493.68798,0.08140
495.61645,0.00803
497.54491,0.00770
499.47338,0.03394
501.40185,0.02551
503.33032,0.01237
505.25879,0.02067
507.18726,0.03864
509.11573,0.06795
511.04419,0.06603
512.97266,0.03034
514.90113,0.03721
516.82960,0.11210
518.75807,0.16363
520.68654,0.16105
522.61501,0.14248
524.54348,0.13501
526.47194,0.15125
528.40041,0.15493
530.32888,0.14285
532.25735,0.11559
534.18582,0.10818
536.11429,0.14768
538.04276,0.15396
539.97122,0.10505
541.89969,0.07839
543.82816,0.08400
545.75663,0.08343
547.68510,0.07683
549.61357,0.08985
551.54204,0.24030
553.47051,0.39911
555.39897,0.29802
557.32744,0.10451
559.25591,0.04801
561.18438,0.04862
563.11285,0.03147
565.04132,0.00499
566.96979,-0.00217
568.89825,0.01897
570.82672,0.04379
572.75519,0.06115
574.68366,0.07553
576.61213,0.07831
578.54060,0.06154
580.46907,0.04012
582.39754,0.03046
584.32600,0.02718
586.25447,0.02768
588.18294,0.02753
590.11141,0.03679
592.03988,0.06293
593.96835,0.07333
595.89682,0.08001
597.82528,0.09479
599.75375,0.08927
601.68222,0.07606
603.61069,0.07328
605.53916,0.06975
607.46763,0.07045
609.39610,0.08619
611.32456,0.10587
613.25303,0.10631
615.18150,0.08439
617.10997,0.04863
619.03844,0.02122
620.96691,0.04258
622.89538,0.08224
624.82385,0.09137
626.75231,0.09480
628.68078,0.10111
630.60925,0.08545
632.53772,0.06071
634.46619,0.05258
636.39466,0.06420
638.32313,0.08353
640.25159,0.09150
642.18006,0.09080
644.10853,0.09542
646.03700,0.09114
647.96547,0.06901
649.89394,0.05168
651.82241,0.05817
653.75088,0.09223
655.67934,0.13803
657.60781,0.15199
659.53628,0.12813
661.46475,0.11002
663.39322,0.10664
665.32169,0.10662
667.25016,0.11088
669.17862,0.12126
671.10709,0.13077
673.03556,0.11273
674.96403,0.07131
676.89250,0.05261
678.82097,0.06765
680.74944,0.08583
682.67791,0.09633
684.60637,0.10935
686.53484,0.12079
688.46331,0.11643
690.39178,0.10097
692.32025,0.09070
694.24872,0.08251
696.17719,0.07795
698.10565,0.08504
700.03412,0.08522
701.96259,0.07605
703.89106,0.07409
705.81953,0.07445
707.74800,0.07914
709.67647,0.10101
711.60494,0.11730
713.53340,0.10848
715.46187,0.09314
717.39034,0.08655
719.31881,0.08596
721.24728,0.08312
723.17575,0.07989
725.10422,0.08147
727.03268,0.09239
728.96115,0.10900
730.88962,0.10793
732.81809,0.08626
734.74656,0.07662
736.67503,0.08790
738.60350,0.09776
740.53197,0.10167
742.46043,0.10420
744.38890,0.10896
746.31737,0.11272
748.24584,0.10513
750.17431,0.09710
752.10278,0.09973
754.03125,0.10351
755.95971,0.10338
757.88818,0.10255
759.81665,0.09467
761.74512,0.08475
763.67359,0.08374
765.60206,0.07745
767.53053,0.06769
769.45900,0.07779
771.38746,0.10082
773.31593,0.11330
775.24440,0.10706
777.17287,0.09065
779.10134,0.08092
781.02981,0.08450
782.95828,0.09567
784.88674,0.10116
786.81521,0.09201
788.74368,0.07395
790.67215,0.06063
792.60062,0.05986
794.52909,0.07066
796.45756,0.08691
798.38602,0.09527
800.31449,0.09505
802.24296,0.09245
804.17143,0.08556
806.09990,0.08384
808.02837,0.09017
809.95684,0.09285
811.88531,0.09566
813.81377,0.10848
815.74224,0.11654
817.67071,0.10780
819.59918,0.10161
821.52765,0.10665
823.45612,0.10516
825.38459,0.09478
827.31305,0.09066
829.24152,0.09471
831.16999,0.10407
833.09846,0.11679
835.02693,0.12099
836.95540,0.11209
838.88387,0.10288
840.81234,0.10200
842.74080,0.10629
844.66927,0.10614
846.59774,0.09508
848.52621,0.08503
850.45468,0.09462
852.38315,0.11514
854.31162,0.12417
856.24008,0.12513
858.16855,0.12424
860.09702,0.11883
862.02549,0.11463
863.95396,0.11276
865.88243,0.10442
867.81090,0.08415
869.73937,0.06689
871.66783,0.06702
873.59630,0.07872
875.52477,0.09564
877.45324,0.11128
879.38171,0.12149
881.31018,0.12632
883.23865,0.12661
885.16711,0.12802
887.09558,0.12855
889.02405,0.12141
890.95252,0.10823
892.88099,0.09428
894.80946,0.09368
896.73793,0.11177
898.66640,0.12759
900.59486,0.12939
902.52333,0.12422
904.45180,0.11865
906.38027,0.11578
908.30874,0.11545
910.23721,0.12078
912.16568,0.12842
914.09414,0.12610
916.02261,0.11852
917.95108,0.11688
919.87955,0.11949
921.80802,0.12287
923.73649,0.12415
925.66496,0.12183
927.59343,0.12060
929.52189,0.12193
931.45036,0.11924
933.37883,0.11013
935.30730,0.10648
937.23577,0.11669
939.16424,0.12615
941.09271,0.12285
943.02117,0.11492
944.94964,0.11064
946.87811,0.10948
948.80658,0.11236
950.73505,0.11949
952.66352,0.11932
954.59199,0.10670
956.52045,0.09792
958.44892,0.10274
960.37739,0.11048
962.30586,0.11534
964.23433,0.11834
966.16280,0.11478
968.09127,0.10984
970.01974,0.11223
971.94820,0.11924
973.87667,0.12300
975.80514,0.11964
977.73361,0.11439
979.66208,0.11216
981.59055,0.11357
983.51902,0.11784
985.44748,0.11970
987.37595,0.11918
989.30442,0.12454
991.23289,0.13066
993.16136,0.12889
995.08983,0.12221
997.01830,0.11410
998.94677,0.10817
1000.87523,0.10523
1002.80370,0.10604
1004.73217,0.11032
1006.66064,0.11540
1008.58911,0.12207
1010.51758,0.12769
1012.44605,0.12580
1014.37451,0.12161
1016.30298,0.12866
1018.23145,0.13901
1020.15992,0.13372
1022.08839,0.12031
1024.01686,0.10719
1025.94533,0.06737
1027.87380,0.02876
1029.80226,0.06381
1031.73073,0.12283
1033.65920,0.13818
1035.58767,0.13656
1037.51614,0.13220
1039.44461,0.12952
1041.37308,0.13259
1043.30154,0.12913
1045.23001,0.12548
1047.15848,0.12961
1049.08695,0.13446
1051.01542,0.13478
1052.94389,0.13389
1054.87236,0.13388
1056.80083,0.13079
1058.72929,0.12506
1060.65776,0.12239
1062.58623,0.12480
1064.51470,0.13029
1066.44317,0.13581
1068.37164,0.14200
1070.30011,0.14853
1072.22857,0.14793
1074.15704,0.14131
1076.08551,0.13722
1078.01398,0.13445
1079.94245,0.13169
1081.87092,0.13288
1083.79939,0.13441
1085.72786,0.13182
1087.65632,0.12988
1089.58479,0.12754
1091.51326,0.11872
1093.44173,0.11245
1095.37020,0.11621
1097.29867,0.12379
1099.22714,0.13313
1101.15560,0.14115
1103.08407,0.14436
1105.01254,0.14389
1106.94101,0.13756
1108.86948,0.13039
1110.79795,0.13129
1112.72642,0.13371
1114.65489,0.12884
1116.58335,0.12302
1118.51182,0.12377
1120.44029,0.12813
1122.36876,0.12504
1124.29723,0.11801
1126.22570,0.12124
1128.15417,0.12732
1130.08263,0.12770
1132.01110,0.12578
1133.93957,0.12224
1135.86804,0.11753
1137.79651,0.11640
1139.72498,0.12296
1141.65345,0.13013
1143.58191,0.13160
1145.51038,0.13375
1147.43885,0.13899
1149.36732,0.13932
1151.29579,0.13573
1153.22426,0.13605
1155.15273,0.13895
1157.08120,0.14147
1159.00966,0.14714
1160.93813,0.15575
1162.86660,0.15880
1164.79507,0.15266
1166.72354,0.14497
1168.65201,0.14761
1170.58048,0.15746
1172.50894,0.15961
1174.43741,0.15381
1176.36588,0.14793
1178.29435,0.14344
1180.22282,0.14055
1182.15129,0.14929
1184.07976,0.17795
1186.00823,0.19871
1187.93669,0.18254
1189.86516,0.15633
1191.79363,0.14813
1193.72210,0.14613
1195.65057,0.14340
1197.57904,0.14281
1199.50751,0.14296
1201.43597,0.14283
1203.36444,0.13899
1205.29291,0.13440
1207.22138,0.13664
1209.14985,0.14064
1211.07832,0.14060
1213.00679,0.13958
1214.93526,0.13951
1216.86372,0.14165
1218.79219,0.14379
1220.72066,0.14377
1222.64913,0.14416
1224.57760,0.14466
1226.50607,0.14386
1228.43454,0.14236
1230.36300,0.14271
1232.29147,0.14542
1234.21994,0.14642
1236.14841,0.14603
1238.07688,0.14694
1240.00535,0.14568
1241.93382,0.14046
1243.86229,0.13443
1245.79075,0.12904
1247.71922,0.12619
1249.64769,0.12695
1251.57616,0.12770
1253.50463,0.12816
1255.43310,0.13174
1257.36157,0.13296
1259.29003,0.12711
1261.21850,0.12328
1263.14697,0.12509
1265.07544,0.12494
1267.00391,0.12252
1268.93238,0.12180
1270.86085,0.12437
1272.78932,0.12934
1274.71778,0.13095
1276.64625,0.13122
1278.57472,0.13573
1280.50319,0.13562
1282.43166,0.12933
1284.36013,0.12956
1286.28860,0.13541
1288.21706,0.13887
1290.14553,0.13909
1292.07400,0.13752
1294.00247,0.13653
1295.93094,0.13431
1297.85941,0.12727
1299.78788,0.11259
1301.71634,0.08845
1303.64481,0.06982
1305.57328,0.08201
1307.50175,0.12017
1309.43022,0.14879
1311.35869,0.15469
1313.28716,0.15397
1315.21563,0.15480
1317.14409,0.15596
1319.07256,0.15737
1321.00103,0.15730
1322.92950,0.15464
1324.85797,0.14664
1326.78644,0.13797
1328.71491,0.13739
1330.64337,0.13371
1332.57184,0.12787
1334.50031,0.13388
1336.42878,0.14127
1338.35725,0.14233
1340.28572,0.12997
1342.21419,0.10965
1344.14266,0.10312
1346.07112,0.10591
1347.99959,0.11630
1349.92806,0.13081
1351.85653,0.13520
1353.78500,0.13492
1355.71347,0.13479
1357.64194,0.13492
1359.57040,0.14079
1361.49887,0.15087
1363.42734,0.15350
1365.35581,0.14849
1367.28428,0.14878
1369.21275,0.15353
1371.14122,0.15675
1373.06969,0.16232
1374.99815,0.16787
1376.92662,0.16461
1378.85509,0.15959
1380.78356,0.15885
1382.71203,0.15943
1384.64050,0.16022
1386.56897,0.16240
1388.49743,0.16521
1390.42590,0.16644
1392.35437,0.16932
1394.28284,0.17668
1396.21131,0.18428
1398.13978,0.18499
1400.06825,0.17731
1401.99672,0.17013
1403.92518,0.16848
1405.85365,0.16834
1407.78212,0.16595
1409.71059,0.16226
1411.63906,0.16046
1413.56753,0.16185
1415.49600,0.16520
1417.42446,0.17171
1419.35293,0.17812
1421.28140,0.18033
1423.20987,0.18144
1425.13834,0.17806
1427.06681,0.17461
1428.99528,0.17596
1430.92375,0.17535
1432.85221,0.17339
1434.78068,0.17564
1436.70915,0.17761
1438.63762,0.17352
1440.56609,0.16796
1442.49456,0.16472
1444.42303,0.16837
1446.35149,0.17768
1448.27996,0.18195
1450.20843,0.18004
1452.13690,0.18195
1454.06537,0.19151
1455.99384,0.20980
1457.92231,0.21424
1459.85077,0.19380
1461.77924,0.18353
1463.70771,0.18423
1465.63618,0.18208
1467.56465,0.17540
1469.49312,0.17677
1471.42159,0.19287
1473.35006,0.20832
1475.27852,0.20170
1477.20699,0.18970
1479.13546,0.18203
1481.06393,0.17795
1482.99240,0.17739
1484.92087,0.18313
1486.84934,0.19673
1488.77780,0.20610
1490.70627,0.19350
1492.63474,0.18014
1494.56321,0.18375
1496.49168,0.19800
1498.42015,0.20427
1500.34862,0.19460
1502.27709,0.18464
1504.20555,0.19699
1506.13402,0.24605
1508.06249,0.25442
1509.99096,0.21201
1511.91943,0.19336
1513.84790,0.19689
1515.77637,0.21023
1517.70483,0.21953
1519.63330,0.22421
1521.56177,0.23165
1523.49024,0.22704
1525.41871,0.21362
1527.34718,0.20006
1529.27565,0.18966
1531.20412,0.19100
1533.13258,0.20441
1535.06105,0.21254
1536.98952,0.21839
1538.91799,0.24359
1540.84646,0.27468
1542.77493,0.25936
1544.70340,0.22236
1546.63186,0.19421
1548.56033,0.18737
1550.48880,0.19155
1552.41727,0.19614
1554.34574,0.20575
1556.27421,0.22509
1558.20268,0.24535
1560.13115,0.22401
1562.05961,0.20267
1563.98808,0.19869
1565.91655,0.19900
1567.84502,0.20380
1569.77349,0.20674
1571.70196,0.19843
1573.63043,0.19815
1575.55889,0.20941
1577.48736,0.20401
1579.41583,0.18578
1581.34430,0.17569
1583.27277,0.17518
1585.20124,0.18091
1587.12971,0.18619
1589.05818,0.18604
1590.98664,0.18290
1592.91511,0.18120
1594.84358,0.18107
1596.77205,0.18081
1598.70052,0.18126
1600.62899,0.18264
1602.55746,0.18204
1604.48592,0.18094
1606.41439,0.18428
1608.34286,0.18933
1610.27133,0.19081
1612.19980,0.19151
1614.12827,0.19637
1616.05674,0.20392
1617.98521,0.20265
1619.91367,0.20015
1621.84214,0.20916
1623.77061,0.21615
1625.69908,0.20614
1627.62755,0.19429
1629.55602,0.18810
1631.48449,0.18656
1633.41295,0.19620
1635.34142,0.21909
1637.26989,0.22327
1639.19836,0.20948
1641.12683,0.20007
1643.05530,0.19900
1644.98377,0.21410
1646.91223,0.23814
1648.84070,0.23568
1650.76917,0.23111
1652.69764,0.23984
1654.62611,0.21855
1656.55458,0.19181
1658.48305,0.18411
1660.41152,0.19079
1662.33998,0.20318
1664.26845,0.20495
1666.19692,0.20275
1668.12539,0.21180
1670.05386,0.21876
1671.98233,0.21125
1673.91080,0.20955
1675.83926,0.20909
1677.76773,0.20318
1679.69620,0.20388
1681.62467,0.21638
1683.55314,0.23103
1685.48161,0.22027
1687.41008,0.20491
1689.33855,0.19846
1691.26701,0.19337
1693.19548,0.19540
1695.12395,0.21025
1697.05242,0.22490
1698.98089,0.22496
1700.90936,0.21294
1702.83783,0.20504
1704.76629,0.20795
1706.69476,0.20802
1708.62323,0.20071
1710.55170,0.19769
1712.48017,0.20178
1714.40864,0.21088
1716.33711,0.21972
1718.26558,0.20912
1720.19404,0.18981
1722.12251,0.18146
1724.05098,0.18047
1725.97945,0.18204
1727.90792,0.18797
1729.83639,0.19927
1731.76486,0.21494
1733.69332,0.22622
1735.62179,0.21599
1737.55026,0.20442
1739.47873,0.20199
1741.40720,0.20208
1743.33567,0.20060
1745.26414,0.20149
1747.19261,0.20883
1749.12107,0.21604
1751.04954,0.20962
1752.97801,0.19770
1754.90648,0.19497
1756.83495,0.19613
1758.76342,0.19376
1760.69189,0.19406
1762.62035,0.19611
1764.54882,0.19559
1766.47729,0.19737
1768.40576,0.20240
1770.33423,0.21049
1772.26270,0.21694
1774.19117,0.21210
1776.11964,0.20187
1778.04810,0.19338
1779.97657,0.18815
1781.90504,0.18420
1783.83351,0.18231
1785.76198,0.18308
1787.69045,0.18585
1789.61892,0.19343
1791.54738,0.20334
1793.47585,0.20580
1795.40432,0.20197
1797.33279,0.19872
1799.26126,0.19745
1801.18973,0.19531
1803.11820,0.18969
1805.04666,0.18291
1806.97513,0.18009
1808.90360,0.18445
1810.83207,0.18943
1812.76054,0.18554
1814.68901,0.18007
1816.61748,0.18185
1818.54595,0.18482
1820.47441,0.18476
1822.40288,0.18554
1824.33135,0.18724
1826.25982,0.18976
1828.18829,0.19371
1830.11676,0.19425
1832.04523,0.18976
1833.97369,0.18657
1835.90216,0.18537
1837.83063,0.18456
1839.75910,0.18738
1841.68757,0.19582
1843.61604,0.20375
1845.54451,0.20132
1847.47298,0.19481
1849.40144,0.19092
1851.32991,0.18625
1853.25838,0.18007
1855.18685,0.17714
1857.11532,0.17980
1859.04379,0.18346
1860.97226,0.18421
1862.90072,0.18438
1864.82919,0.18867
1866.75766,0.19740
1868.68613,0.20266
1870.61460,0.19813
1872.54307,0.19136
1874.47154,0.18659
1876.40001,0.18325
1878.32847,0.18352
1880.25694,0.18765
1882.18541,0.19143
1884.11388,0.19174
1886.04235,0.19070
1887.97082,0.19179
1889.89929,0.19165
1891.82775,0.18780
1893.75622,0.18544
1895.68469,0.18582
1897.61316,0.18600
1899.54163,0.18532
1901.47010,0.18410
1903.39857,0.18392
1905.32704,0.18622
1907.25550,0.18830
1909.18397,0.18700
1911.11244,0.18449
1913.04091,0.18416
1914.96938,0.18580
1916.89785,0.18880
1918.82632,0.19016
1920.75478,0.18788
1922.68325,0.18540
1924.61172,0.18428
1926.54019,0.18281
1928.46866,0.18071
1930.39713,0.18071
1932.32560,0.18267
1934.25407,0.18339
1936.18253,0.18330
1938.11100,0.18410
1940.03947,0.18642
1941.96794,0.19007
1943.89641,0.19184
1945.82488,0.18907
1947.75335,0.18390
1949.68181,0.18086
1951.61028,0.18257
1953.53875,0.18711
1955.46722,0.18849
1957.39569,0.18495
1959.32416,0.18361
1961.25263,0.18646
1963.18110,0.18900
1965.10956,0.19149
1967.03803,0.19288
1968.96650,0.19063
1970.89497,0.18861
1972.82344,0.18792
1974.75191,0.18246
1976.68038,0.17329
1978.60884,0.17197
1980.53731,0.17952
1982.46578,0.18443
1984.39425,0.18452
1986.32272,0.18492
1988.25119,0.18645
1990.17966,0.18835
1992.10812,0.18856
1994.03659,0.18789
1995.96506,0.18980
1997.89353,0.19219
1999.82200,0.19114
2001.75047,0.18761
2003.67894,0.18484
2005.60741,0.18397
2007.53587,0.18439
2009.46434,0.18487
2011.39281,0.18528
2013.32128,0.18574
2015.24975,0.18736
2017.17822,0.19060
2019.10669,0.19161
2021.03515,0.19030
2022.96362,0.18945
2024.89209,0.18764
2026.82056,0.18537
2028.74903,0.18676
2030.67750,0.19084
2032.60597,0.19222
2034.53444,0.18958
2036.46290,0.18664
2038.39137,0.18636
2040.31984,0.18587
2042.24831,0.18324
2044.17678,0.18348
2046.10525,0.18694
2048.03372,0.18799
2049.96218,0.18614
2051.89065,0.18477
2053.81912,0.18554
2055.74759,0.18698
2057.67606,0.18659
2059.60453,0.18518
2061.53300,0.18527
2063.46147,0.18681
2065.38993,0.18773
2067.31840,0.18741
2069.24687,0.18704
2071.17534,0.18713
2073.10381,0.18787
2075.03228,0.18868
2076.96075,0.18847
2078.88921,0.18871
2080.81768,0.18984
2082.74615,0.18978
2084.67462,0.18989
2086.60309,0.19242
2088.53156,0.19500
2090.46003,0.19327
2092.38850,0.18839
2094.31696,0.18597
2096.24543,0.18729
2098.17390,0.19055
2100.10237,0.19379
2102.03084,0.19337
2103.95931,0.18898
2105.88778,0.18608
2107.81624,0.18661
2109.74471,0.18756
2111.67318,0.18849
2113.60165,0.18963
2115.53012,0.18851
2117.45859,0.18456
2119.38706,0.18267
2121.31553,0.18535
2123.24399,0.18841
2125.17246,0.18972
2127.10093,0.19076
2129.02940,0.19178
2130.95787,0.19376
2132.88634,0.19608
2134.81481,0.19476
2136.74327,0.19135
2138.67174,0.19102
2140.60021,0.19267
2142.52868,0.19088
2144.45715,0.18535
2146.38562,0.18363
2148.31409,0.18856
2150.24255,0.19363
2152.17102,0.19422
2154.09949,0.19064
2156.02796,0.18580
2157.95643,0.18476
2159.88490,0.18754
2161.81337,0.18874
2163.74184,0.18886
2165.67030,0.19236
2167.59877,0.19618
2169.52724,0.19515
2171.45571,0.19161
2173.38418,0.19031
2175.31265,0.19163
2177.24112,0.19284
2179.16958,0.19285
2181.09805,0.19189
2183.02652,0.18905
2184.95499,0.18587
2186.88346,0.18576
2188.81193,0.18850
2190.74040,0.19107
2192.66887,0.19010
2194.59733,0.18663
2196.52580,0.18584
2198.45427,0.18782
2200.38274,0.18854
2202.31121,0.18826
2204.23968,0.19057
2206.16815,0.19462
2208.09661,0.19533
2210.02508,0.19208
2211.95355,0.18961
2213.88202,0.19036
2215.81049,0.19173
2217.73896,0.19042
2219.66743,0.18695
2221.59590,0.18493
2223.52436,0.18482
2225.45283,0.18416
2227.38130,0.18446
2229.30977,0.18759
2231.23824,0.19105
2233.16671,0.19279
2235.09518,0.19276
2237.02364,0.19234
2238.95211,0.19462
2240.88058,0.19782
2242.80905,0.19761
2244.73752,0.19605
2246.66599,0.19506
2248.59446,0.19357
2250.52293,0.19228
2252.45139,0.19199
2254.37986,0.19233
2256.30833,0.19335
2258.23680,0.19522
2260.16527,0.19607
2262.09374,0.19434
2264.02221,0.19165
2265.95067,0.19010
2267.87914,0.18900
2269.80761,0.18707
2271.73608,0.18782
2273.66455,0.19253
2275.59302,0.19497
2277.52149,0.19362
2279.44996,0.19195
2281.37842,0.19083
2283.30689,0.19091
2285.23536,0.19196
2287.16383,0.19217
2289.09230,0.19015
2291.02077,0.18741
2292.94924,0.18638
2294.87770,0.18773
2296.80617,0.19325
2298.73464,0.20006
2300.66311,0.20074
2302.59158,0.19742
2304.52005,0.19762
2306.44852,0.20242
2308.37699,0.20818
2310.30545,0.20923
2312.23392,0.20489
2314.16239,0.20327
2316.09086,0.20831
2318.01933,0.21407
2319.94780,0.21431
2321.87627,0.21527
2323.80473,0.22305
2325.73320,0.22756
2327.66167,0.22441
2329.59014,0.21887
2331.51861,0.21637
2333.44708,0.21871
2335.37555,0.22269
2337.30401,0.22650
2339.23248,0.22945
2341.16095,0.23251
2343.08942,0.23298
2345.01789,0.22982
2346.94636,0.22556
2348.87483,0.22087
2350.80330,0.22084
2352.73176,0.23192
2354.66023,0.24949
2356.58870,0.25721
2358.51717,0.24948
2360.44564,0.24043
2362.37411,0.24059
2364.30258,0.24147
2366.23104,0.23841
2368.15951,0.23429
2370.08798,0.22836
2372.01645,0.22278
2373.94492,0.22008
2375.87339,0.21692
2377.80186,0.21220
2379.73033,0.20728
2381.65879,0.20097
2383.58726,0.19596
2385.51573,0.19417
2387.44420,0.19213
2389.37267,0.18991
2391.30114,0.18989
2393.22961,0.19095
2395.15807,0.19004
2397.08654,0.18887
2399.01501,0.19102
2400.94348,0.19314
2402.87195,0.19270
2404.80042,0.19131
2406.72889,0.19162
2408.65736,0.19428
2410.58582,0.19487
2412.51429,0.19315
2414.44276,0.19316
2416.37123,0.19297
2418.29970,0.19086
2420.22817,0.18990
2422.15664,0.19064
2424.08510,0.19186
2426.01357,0.19358
2427.94204,0.19609
2429.87051,0.19809
2431.79898,0.19676
2433.72745,0.19269
2435.65592,0.19052
2437.58439,0.19196
2439.51285,0.19294
2441.44132,0.19151
2443.36979,0.19008
2445.29826,0.19034
2447.22673,0.19159
2449.15520,0.19453
2451.08367,0.19798
2453.01213,0.19504
2454.94060,0.18858
2456.86907,0.18659
2458.79754,0.18730
2460.72601,0.19010
2462.65448,0.19448
2464.58295,0.19460
2466.51142,0.19018
2468.43988,0.18690
2470.36835,0.18662
2472.29682,0.18847
2474.22529,0.19123
2476.15376,0.19279
2478.08223,0.19325
2480.01070,0.19328
2481.93916,0.19419
2483.86763,0.19739
2485.79610,0.19910
2487.72457,0.19605
2489.65304,0.19199
2491.58151,0.19037
2493.50998,0.18977
2495.43844,0.18946
2497.36691,0.18955
2499.29538,0.18978
2501.22385,0.19165
2503.15232,0.19471
2505.08079,0.19706
2507.00926,0.19893
2508.93773,0.19962
2510.86619,0.19729
2512.79466,0.19286
2514.72313,0.19163
2516.65160,0.19471
2518.58007,0.19574
2520.50854,0.19294
2522.43701,0.19075
2524.36547,0.19192
2526.29394,0.19558
2528.22241,0.19908
2530.15088,0.20004
2532.07935,0.19772
2534.00782,0.19515
2535.93629,0.19532
2537.86476,0.19598
2539.79322,0.19534
2541.72169,0.19599
2543.65016,0.19761
2545.57863,0.19714
2547.50710,0.19563
2549.43557,0.19388
2551.36404,0.19158
2553.29250,0.19268
2555.22097,0.19712
2557.14944,0.19730
2559.07791,0.19301
2561.00638,0.19137
2562.93485,0.19184
2564.86332,0.19033
2566.79179,0.18912
2568.72025,0.19111
2570.64872,0.19520
2572.57719,0.19931
2574.50566,0.20091
2576.43413,0.19968
2578.36260,0.19747
2580.29107,0.19559
2582.21953,0.19578
2584.14800,0.19609
2586.07647,0.19390
2588.00494,0.19238
2589.93341,0.19433
2591.86188,0.19688
2593.79035,0.19689
2595.71882,0.19600
2597.64728,0.19632
2599.57575,0.19759
2601.50422,0.19841
2603.43269,0.19847
2605.36116,0.19638
2607.28963,0.18659
2609.21810,0.17563
2611.14656,0.17910
2613.07503,0.19171
2615.00350,0.19685
2616.93197,0.19436
2618.86044,0.19272
2620.78891,0.19530
2622.71738,0.20040
2624.64585,0.20364
2626.57431,0.20215
2628.50278,0.19879
2630.43125,0.19862
2632.35972,0.20032
2634.28819,0.19944
2636.21666,0.19722
2638.14513,0.19768
2640.07359,0.19985
2642.00206,0.20028
2643.93053,0.20010
2645.85900,0.20053
2647.78747,0.20039
2649.71594,0.20089
2651.64441,0.20304
2653.57288,0.20519
2655.50134,0.20535
2657.42981,0.20317
2659.35828,0.20047
2661.28675,0.19895
2663.21522,0.19793
2665.14369,0.19733
2667.07216,0.19929
2669.00062,0.20208
2670.92909,0.20068
2672.85756,0.19757
2674.78603,0.19918
2676.71450,0.20344
2678.64297,0.20433
2680.57144,0.20303
2682.49990,0.20325
2684.42837,0.20143
2686.35684,0.19669
2688.28531,0.19626
2690.21378,0.20001
2692.14225,0.20230
2694.07072,0.20358
2695.99919,0.20644
2697.92765,0.20869
2699.85612,0.20727
2701.78459,0.20535
2703.71306,0.20566
2705.64153,0.20590
2707.57000,0.20336
2709.49847,0.19856
2711.42693,0.19631
2713.35540,0.19715
2715.28387,0.19839
2717.21234,0.20120
2719.14081,0.20495
2721.06928,0.20809
2722.99775,0.20868
2724.92622,0.20441
2726.85468,0.20114
2728.78315,0.20490
2730.71162,0.21056
2732.64009,0.21154
2734.56856,0.20729
2736.49703,0.20247
2738.42550,0.20290
2740.35396,0.20709
2742.28243,0.21007
2744.21090,0.20983
2746.13937,0.20696
2748.06784,0.20407
2749.99631,0.20194
2751.92478,0.20284
2753.85325,0.20794
2755.78171,0.21168
2757.71018,0.21166
2759.63865,0.20988
2761.56712,0.20929
2763.49559,0.21376
2765.42406,0.21944
2767.35253,0.21874
2769.28099,0.21397
2771.20946,0.21172
2773.13793,0.21139
2775.06640,0.20897
2776.99487,0.20548
2778.92334,0.20429
2780.85181,0.20502
2782.78028,0.20740
2784.70874,0.21206
2786.63721,0.21592
2788.56568,0.21648
2790.49415,0.21489
2792.42262,0.21238
2794.35109,0.21018
2796.27956,0.20984
2798.20802,0.20963
2800.13649,0.20700
2802.06496,0.20297
2803.99343,0.20015
2805.92190,0.20196
2807.85037,0.20759
2809.77884,0.21153
2811.70731,0.21194
2813.63577,0.21208
2815.56424,0.21343
2817.49271,0.21268
2819.42118,0.20919
2821.34965,0.20800
2823.27812,0.21218
2825.20659,0.21650
2827.13505,0.21552
2829.06352,0.21297
2830.99199,0.21241
2832.92046,0.21139
2834.84893,0.20891
2836.77740,0.20884
2838.70587,0.21265
2840.63433,0.21561
2842.56280,0.21422
2844.49127,0.21037
2846.41974,0.20968
2848.34821,0.21391
2850.27668,0.21605
2852.20515,0.21215
2854.13362,0.20760
2856.06208,0.20571
2857.99055,0.20503
2859.91902,0.20563
2861.84749,0.20745
2863.77596,0.20895
2865.70443,0.20943
2867.63290,0.20898
2869.56136,0.20883
2871.48983,0.21012
2873.41830,0.20869
2875.34677,0.20371
2877.27524,0.20307
2879.20371,0.20731
2881.13218,0.20992
2883.06065,0.20875
2884.98911,0.20635
2886.91758,0.20710
2888.84605,0.21154
2890.77452,0.21442
2892.70299,0.21034
2894.63146,0.20260
2896.55993,0.19955
2898.48839,0.20164
2900.41686,0.20494
2902.34533,0.20643
2904.27380,0.20174
2906.20227,0.19455
2908.13074,0.19326
2910.05921,0.19518
2911.98768,0.19755
2913.91614,0.19686
2915.84461,0.18893
2917.77308,0.18759
2919.70155,0.19746
2921.63002,0.20678
2923.55849,0.20795
2925.48696,0.19515
2927.41542,0.18519
2929.34389,0.19453
2931.27236,0.20497
2933.20083,0.20222
2935.12930,0.18752
2937.05777,0.17132
2938.98624,0.17528
2940.91471,0.19439
2942.84317,0.20527
2944.77164,0.19987
2946.70011,0.18336
2948.62858,0.17945
2950.55705,0.19577
2952.48552,0.20786
2954.41399,0.20370
2956.34245,0.18623
2958.27092,0.17397
2960.19939,0.18608
2962.12786,0.20487
2964.05633,0.20803
2965.98480,0.19682
2967.91327,0.18560
2969.84174,0.19251
2971.77020,0.21061
2973.69867,0.21915
2975.62714,0.21050
2977.55561,0.19044
2979.48408,0.18431
2981.41255,0.20255
2983.34102,0.22136
2985.26948,0.22096
2987.19795,0.20377
2989.12642,0.19249
2991.05489,0.20018
2992.98336,0.21148
2994.91183,0.21471
2996.84030,0.21205
2998.76877,0.21124
3000.69723,0.21674
3002.62570,0.22037
3004.55417,0.21483
3006.48264,0.20045
3008.41111,0.18335
3010.33958,0.16445
3012.26805,0.13237
3014.19651,0.08867
3016.12498,0.06399
3018.05345,0.09214
3019.98192,0.15620
3021.91039,0.20274
3023.83886,0.21621
3025.76733,0.21149
3027.69579,0.20003
3029.62426,0.19660
3031.55273,0.20415
3033.48120,0.20865
3035.40967,0.20561
3037.33814,0.20236
3039.26661,0.20600
3041.19508,0.21364
3043.12354,0.21573
3045.05201,0.20944
3046.98048,0.20133
3048.90895,0.20413
3050.83742,0.21631
3052.76589,0.22079
3054.69436,0.20922
3056.62282,0.19144
3058.55129,0.18944
3060.47976,0.20294
3062.40823,0.21050
3064.33670,0.20232
3066.26517,0.18605
3068.19364,0.18545
3070.12211,0.20255
3072.05057,0.21081
3073.97904,0.20082
3075.90751,0.18645
3077.83598,0.18924
3079.76445,0.20770
3081.69292,0.21405
3083.62139,0.19741
3085.54985,0.18229
3087.47832,0.19293
3089.40679,0.21291
3091.33526,0.21440
3093.26373,0.19484
3095.19220,0.18094
3097.12067,0.19401
3099.04914,0.21087
3100.97760,0.20829
3102.90607,0.19391
3104.83454,0.18966
3106.76301,0.20206
3108.69148,0.21120
3110.61995,0.20514
3112.54842,0.19336
3114.47688,0.19446
3116.40535,0.20923
3118.33382,0.21582
3120.26229,0.20465
3122.19076,0.19435
3124.11923,0.20390
3126.04770,0.21904
3127.97617,0.21759
3129.90463,0.20388
3131.83310,0.19853
3133.76157,0.20671
3135.69004,0.21396
3137.61851,0.21366
3139.54698,0.21125
3141.47545,0.21402
3143.40391,0.22010
3145.33238,0.22034
3147.26085,0.21381
3149.18932,0.20873
3151.11779,0.21000
3153.04626,0.21459
3154.97473,0.21857
3156.90320,0.21799
3158.83166,0.21393
3160.76013,0.21229
3162.68860,0.21052
3164.61707,0.20726
3166.54554,0.21226
3168.47401,0.22409
3170.40248,0.23095
3172.33094,0.23332
3174.25941,0.23314
3176.18788,0.22804
3178.11635,0.22196
3180.04482,0.22054
3181.97329,0.22391
3183.90176,0.22684
3185.83022,0.22564
3187.75869,0.22316
3189.68716,0.22298
3191.61563,0.22444
3193.54410,0.22435
3195.47257,0.22268
3197.40104,0.22384
3199.32951,0.22638
3201.25797,0.22625
3203.18644,0.22504
3205.11491,0.22325
3207.04338,0.22083
3208.97185,0.21849
3210.90032,0.21730
3212.82879,0.21976
3214.75725,0.22530
3216.68572,0.23064
3218.61419,0.23455
3220.54266,0.23513
3222.47113,0.23037
3224.39960,0.22589
3226.32807,0.22365
3228.25654,0.21719
3230.18500,0.21026
3232.11347,0.21090
3234.04194,0.21588
3235.97041,0.22047
3237.89888,0.22485
3239.82735,0.22702
3241.75582,0.22563
3243.68428,0.22427
3245.61275,0.22515
3247.54122,0.22618
3249.46969,0.22569
3251.39816,0.22615
3253.32663,0.22751
3255.25510,0.22546
3257.18357,0.22199
3259.11203,0.22007
3261.04050,0.21697
3262.96897,0.21487
3264.89744,0.21858
3266.82591,0.22502
3268.75438,0.22809
3270.68285,0.22427
3272.61131,0.21524
3274.53978,0.21183
3276.46825,0.21952
3278.39672,0.22593
3280.32519,0.22348
3282.25366,0.21930
3284.18213,0.21944
3286.11060,0.22324
3288.03906,0.22515
3289.96753,0.22615
3291.89600,0.22937
3293.82447,0.22588
3295.75294,0.21490
3297.68141,0.20852
3299.60988,0.21061
3301.53834,0.21467
3303.46681,0.21563
3305.39528,0.21778
3307.32375,0.22419
3309.25222,0.22860
3311.18069,0.22605
3313.10916,0.21892
3315.03763,0.21392
3316.96609,0.21490
3318.89456,0.21681
3320.82303,0.21482
3322.75150,0.21241
3324.67997,0.21280
3326.60844,0.21426
3328.53691,0.21369
3330.46537,0.21289
3332.39384,0.21546
3334.32231,0.21826
3336.25078,0.21974
3338.17925,0.22153
3340.10772,0.22165
3342.03619,0.21971
3343.96466,0.21902
3345.89312,0.21919
3347.82159,0.21808
3349.75006,0.21830
3351.67853,0.21988
3353.60700,0.22145
3355.53547,0.22251
3357.46394,0.21856
3359.39240,0.21275
3361.32087,0.21376
3363.24934,0.21829
3365.17781,0.21887
3367.10628,0.21714
3369.03475,0.21618
3370.96322,0.21700
3372.89168,0.21786
3374.82015,0.21322
3376.74862,0.20627
3378.67709,0.20546
3380.60556,0.21006
3382.53403,0.21683
3384.46250,0.22388
3386.39097,0.22525
3388.31943,0.22098
3390.24790,0.21623
3392.17637,0.21220
3394.10484,0.21320
3396.03331,0.21945
3397.96178,0.22412
3399.89025,0.22432
3401.81871,0.22143
3403.74718,0.21890
3405.67565,0.21662
3407.60412,0.21131
3409.53259,0.20577
3411.46106,0.20465
3413.38953,0.20531
3415.31800,0.20570
3417.24646,0.20864
3419.17493,0.21078
3421.10340,0.20734
3423.03187,0.20437
3424.96034,0.20834
3426.88881,0.21311
3428.81728,0.21373
3430.74574,0.21697
3432.67421,0.21866
3434.60268,0.21080
3436.53115,0.20651
3438.45962,0.21002
3440.38809,0.20760
3442.31656,0.20107
3444.24503,0.20329
3446.17349,0.21344
3448.10196,0.21968
3450.03043,0.21757
3451.95890,0.21197
3453.88737,0.20769
3455.81584,0.20940
3457.74431,0.21536
3459.67277,0.21555
3461.60124,0.20667
3463.52971,0.19751
3465.45818,0.19352
3467.38665,0.19269
3469.31512,0.19393
3471.24359,0.19552
3473.17206,0.19579
3475.10052,0.19794
3477.02899,0.20624
3478.95746,0.21575
3480.88593,0.21365
3482.81440,0.20051
3484.74287,0.19431
3486.67134,0.19992
3488.59980,0.20390
3490.52827,0.20014
3492.45674,0.19366
3494.38521,0.18742
3496.31368,0.18357
3498.24215,0.18382
3500.17062,0.18952
3502.09909,0.19873
3504.02755,0.20206
3505.95602,0.19675
3507.88449,0.19199
3509.81296,0.19189
3511.74143,0.19049
3513.66990,0.18638
3515.59837,0.18419
3517.52683,0.18525
3519.45530,0.18771
3521.38377,0.18844
3523.31224,0.18854
3525.24071,0.19165
3527.16918,0.19549
3529.09765,0.19526
3531.02611,0.19082
3532.95458,0.18646
3534.88305,0.18448
3536.81152,0.18408
3538.73999,0.18229
3540.66846,0.17839
3542.59693,0.17732
3544.52540,0.18016
3546.45386,0.18026
3548.38233,0.18088
3550.31080,0.18874
3552.23927,0.19260
3554.16774,0.18101
3556.09621,0.16428
3558.02468,0.15356
3559.95314,0.14957
3561.88161,0.15608
3563.81008,0.17449
3565.73855,0.19111
3567.66702,0.19111
3569.59549,0.18027
3571.52396,0.17027
3573.45243,0.16465
3575.38089,0.16283
3577.30936,0.16250
3579.23783,0.16150
3581.16630,0.15874
3583.09477,0.15887
3585.02324,0.16608
3586.95171,0.17573
3588.88017,0.17866
3590.80864,0.18036
3592.73711,0.18541
3594.66558,0.18325
3596.59405,0.17117
3598.52252,0.16663
3600.45099,0.17156
3602.37946,0.16998
3604.30792,0.16397
3606.23639,0.16527
3608.16486,0.16813
3610.09333,0.16568
3612.02180,0.16608
3613.95027,0.16742
3615.87874,0.16780
3617.80720,0.17038
3619.73567,0.16653
3621.66414,0.15686
3623.59261,0.15126
3625.52108,0.15175
3627.44955,0.16396
3629.37802,0.17539
3631.30649,0.15936
3633.23495,0.14237
3635.16342,0.13857
3637.09189,0.14003
3639.02036,0.14156
3640.94883,0.14212
3642.87730,0.14256
3644.80577,0.14743
3646.73423,0.16391
3648.66270,0.19228
3650.59117,0.19118
3652.51964,0.16699
3654.44811,0.15283
3656.37658,0.14511
3658.30505,0.13819
3660.23352,0.13608
3662.16198,0.13868
3664.09045,0.14049
3666.01892,0.14090
3667.94739,0.14577
3669.87586,0.15497
3671.80433,0.15753
3673.73280,0.15760
3675.66126,0.15614
3677.58973,0.14693
3679.51820,0.13892
3681.44667,0.13534
3683.37514,0.13768
3685.30361,0.14605
3687.23208,0.15750
3689.16055,0.16764
3691.08901,0.16632
3693.01748,0.15634
3694.94595,0.15008
3696.87442,0.14928
3698.80289,0.15036
3700.73136,0.14963
3702.65983,0.14326
3704.58829,0.13880
3706.51676,0.14220
3708.44523,0.15155
3710.37370,0.16140
3712.30217,0.15305
3714.23064,0.13669
3716.15911,0.12968
3718.08757,0.12502
3720.01604,0.12766
3721.94451,0.14443
3723.87298,0.15705
3725.80145,0.15871
3727.72992,0.15691
3729.65839,0.15207
3731.58686,0.15147
3733.51532,0.16635
3735.44379,0.18550
3737.37226,0.17798
3739.30073,0.15716
3741.22920,0.14876
3743.15767,0.16016
3745.08614,0.17950
3747.01460,0.18338
3748.94307,0.17957
3750.87154,0.16699
3752.80001,0.14946
3754.72848,0.14586
3756.65695,0.15100
3758.58542,0.15015
3760.51389,0.13963
3762.44235,0.13454
3764.37082,0.13564
3766.29929,0.13532
3768.22776,0.13558
3770.15623,0.13596
3772.08470,0.13191
3774.01317,0.12796
3775.94163,0.12726
3777.87010,0.13121
3779.79857,0.13598
3781.72704,0.13568
3783.65551,0.13965
3785.58398,0.14623
3787.51245,0.14041
3789.44092,0.12892
3791.36938,0.12406
3793.29785,0.12584
3795.22632,0.12944
3797.15479,0.13017
3799.08326,0.13344
3801.01173,0.14566
3802.94020,0.15230
3804.86866,0.14718
3806.79713,0.13908
3808.72560,0.13014
3810.65407,0.12599
3812.58254,0.12822
3814.51101,0.13238
3816.43948,0.13774
3818.36795,0.14982
3820.29641,0.16176
3822.22488,0.15097
3824.15335,0.13376
3826.08182,0.13238
3828.01029,0.13611
3829.93876,0.13452
3831.86723,0.13363
3833.79569,0.13769
3835.72416,0.14587
3837.65263,0.15564
3839.58110,0.15261
3841.50957,0.13493
3843.43804,0.11743
3845.36651,0.11125
3847.29498,0.11840
3849.22344,0.13075
3851.15191,0.14319
3853.08038,0.15420
3855.00885,0.14634
3856.93732,0.13173
3858.86579,0.12680
3860.79426,0.12959
3862.72272,0.13622
3864.65119,0.14201
3866.57966,0.13773
3868.50813,0.12906
3870.43660,0.12562
3872.36507,0.11824
3874.29354,0.10548
3876.22200,0.10494
3878.15047,0.11943
3880.07894,0.13407
3882.00741,0.13574
3883.93588,0.13461
3885.86435,0.12916
3887.79282,0.11788
3889.72129,0.11766
3891.64975,0.12655
3893.57822,0.12686
3895.50669,0.11957
3897.43516,0.11718
3899.36363,0.12388
3901.29210,0.13261
3903.22057,0.13466
3905.14903,0.12382
3907.07750,0.11186
3909.00597,0.10995
3910.93444,0.11174
3912.86291,0.11294
3914.79138,0.11434
3916.71985,0.11466
3918.64832,0.11442
3920.57678,0.11492
3922.50525,0.11681
3924.43372,0.11765
3926.36219,0.11258
3928.29066,0.10718
3930.21913,0.10804
3932.14760,0.11018
3934.07606,0.10746
3936.00453,0.10347
3937.93300,0.10223
3939.86147,0.10380
3941.78994,0.10964
3943.71841,0.11826
3945.64688,0.12038
3947.57535,0.11272
3949.50381,0.10318
3951.43228,0.10155
3953.36075,0.10546
3955.28922,0.10908
3957.21769,0.11233
3959.14616,0.11295
3961.07463,0.10797
3963.00309,0.10040
3964.93156,0.09500
3966.86003,0.09669
3968.78850,0.10422
3970.71697,0.10888
3972.64544,0.10892
3974.57391,0.10792
3976.50238,0.10716
3978.43084,0.10477
3980.35931,0.09875
3982.28778,0.09502
3984.21625,0.09738
3986.14472,0.10071
3988.07319,0.10028
3990.00166,0.09618
3991.93012,0.09605
3993.85859,0.10252
3995.78706,0.10640
3997.71553,0.10439
3999.64400,0.10091
4001.57247,0.09809
4003.50094,0.09575
4005.42941,0.09469
4007.35787,0.09572
4009.28634,0.09627
4011.21481,0.09614
4013.14328,0.09653
4015.07175,0.09441
4017.00022,0.09244
4018.92869,0.09689
4020.85715,0.10380
4022.78562,0.10580
4024.71409,0.10204
4026.64256,0.09597
4028.57103,0.09288
4030.49950,0.09343
4032.42797,0.09309
4034.35644,0.09130
4036.28490,0.09161
4038.21337,0.09410
4040.14184,0.09278
4042.07031,0.08688
4043.99878,0.08417
4045.92725,0.08634
4047.85572,0.08869
4049.78418,0.08937
4051.71265,0.09044
4053.64112,0.09256
4055.56959,0.09192
4057.49806,0.09033
4059.42653,0.09224
4061.35500,0.09209
4063.28346,0.08465
4065.21193,0.07584
4067.14040,0.07712
4069.06887,0.08916
4070.99734,0.09485
4072.92581,0.08655
4074.85428,0.07891
4076.78275,0.07878
4078.71121,0.07694
4080.63968,0.07508
4082.56815,0.08105
4084.49662,0.08855
4086.42509,0.08949
4088.35356,0.08469
4090.28203,0.07973
4092.21049,0.08134
4094.13896,0.08879
4096.06743,0.09355
4097.99590,0.09278
4099.92437,0.08960
4101.85284,0.08274
4103.78131,0.07389
4105.70978,0.07088
4107.63824,0.07309
4109.56671,0.07281
4111.49518,0.07119
4113.42365,0.07340
4115.35212,0.07962
4117.28059,0.08885
4119.20906,0.09460
4121.13752,0.09046
4123.06599,0.08382
4124.99446,0.08386
4126.92293,0.08480
4128.85140,0.08092
4130.77987,0.07921
4132.70834,0.08022
4134.63681,0.07651
4136.56527,0.07099
4138.49374,0.07143
4140.42221,0.07402
4142.35068,0.07331
4144.27915,0.07182
4146.20762,0.06690
4148.13609,0.05947
4150.06455,0.05964
4151.99302,0.06761
4153.92149,0.07565
4155.84996,0.07879
4157.77843,0.07849
4159.70690,0.07884
4161.63537,0.07754
4163.56384,0.07288
4165.49230,0.06891
4167.42077,0.06594
4169.34924,0.06213
4171.27771,0.06002
4173.20618,0.06139
4175.13465,0.06234
4177.06312,0.06164
4178.99158,0.06402
4180.92005,0.06404
4182.84852,0.05682
4184.77699,0.05564
4186.70546,0.06755
4188.63393,0.08186
4190.56240,0.08420
4192.49087,0.07313
4194.41933,0.06098
4196.34780,0.05483
4198.27627,0.05596
4200.20474,0.06125
4202.13321,0.06253
4204.06168,0.05899
4205.99015,0.05712
4207.91861,0.05770
4209.84708,0.05776
4211.77555,0.05951
4213.70402,0.06139
4215.63249,0.05755
4217.56096,0.05148
4219.48943,0.05314
4221.41789,0.06021
4223.34636,0.06141
4225.27483,0.05741
4227.20330,0.05199
4229.13177,0.04628
4231.06024,0.04790
4232.98871,0.05902
4234.91718,0.06513
4236.84564,0.05596
4238.77411,0.04631
4240.70258,0.04575
4242.63105,0.04602
4244.55952,0.04527
4246.48799,0.04223
4248.41646,0.03616
4250.34492,0.03473
4252.27339,0.04005
4254.20186,0.04377
4256.13033,0.04214
4258.05880,0.04177
4259.98727,0.04510
4261.91574,0.04812
4263.84421,0.04624
4265.77267,0.03980
4267.70114,0.03604
4269.62961,0.03954
4271.55808,0.04725
4273.48655,0.05148
4275.41502,0.04845
4277.34349,0.04059
4279.27195,0.03567
4281.20042,0.04202
4283.12889,0.05317
4285.05736,0.05644
4286.98583,0.05230
4288.91430,0.04580
4290.84277,0.03468
4292.77124,0.02422
4294.69970,0.02724
4296.62817,0.03955
4298.55664,0.04628
4300.48511,0.04307
4302.41358,0.03599
4304.34205,0.03125
4306.27052,0.03133
4308.19898,0.03747
4310.12745,0.04625
4312.05592,0.04954
4313.98439,0.04631
4315.91286,0.04082
4317.84133,0.03486
4319.76980,0.02996
4321.69827,0.02680
4323.62673,0.02670
4325.55520,0.02802
4327.48367,0.02474
4329.41214,0.02046
4331.34061,0.02415
4333.26908,0.03048
4335.19755,0.03089
4337.12601,0.03012
4339.05448,0.03152
4340.98295,0.03315
4342.91142,0.03242
4344.83989,0.03057
4346.76836,0.03443
4348.69683,0.03715
4350.62530,0.03478
4352.55376,0.03617
4354.48223,0.03466
4356.41070,0.02555
4358.33917,0.02310
4360.26764,0.03003
4362.19611,0.03293
4364.12458,0.02816
4366.05304,0.02456
4367.98151,0.02470
4369.90998,0.02382
4371.83845,0.02378
4373.76692,0.02799
4375.69539,0.03044
4377.62386,0.02583
4379.55232,0.02081
4381.48079,0.02199
4383.40926,0.02251
4385.33773,0.01716
4387.26620,0.01126
4389.19467,0.00827
4391.12314,0.00974
4393.05161,0.01360
4394.98007,0.01522
4396.90854,0.01694
4398.83701,0.02266
4400.76548,0.02824
4402.69395,0.02709
4404.62242,0.02028
4406.55089,0.01280
4408.47935,0.00990
4410.40782,0.01278
4412.33629,0.01547
4414.26476,0.01808
4416.19323,0.02100
4418.12170,0.01681
4420.05017,0.01228
4421.97864,0.01887
4423.90710,0.02467
4425.83557,0.01758
4427.76404,0.00879
4429.69251,0.00735
4431.62098,0.00407
4433.54945,-0.00593
4435.47792,-0.01060
4437.40638,0.00221
4439.33485,0.02120
4441.26332,0.02411
4443.19179,0.01695
4445.12026,0.01783
4447.04873,0.01994
4448.97720,0.01084
4450.90567,-0.00031
4452.83413,0.00104
4454.76260,0.00922
4456.69107,0.01226
4458.61954,0.01161
4460.54801,0.01458
4462.47648,0.01899
4464.40495,0.01351
4466.33341,-0.00164
4468.26188,-0.00956
4470.19035,-0.00191
4472.11882,0.00657
4474.04729,0.00925
4475.97576,0.01539
4477.90423,0.01753
4479.83270,0.01028
4481.76116,0.01031
4483.68963,0.01686
4485.61810,0.00990
4487.54657,-0.00663
4489.47504,-0.01233
4491.40351,-0.00657
4493.33198,-0.00190
4495.26044,-0.00419
4497.18891,-0.00463
4499.11738,0.00535
4501.04585,0.01826
4502.97432,0.02840
4504.90279,0.03027
4506.83126,0.01410
4508.75973,-0.00547
4510.68819,-0.00817
4512.61666,-0.00004
4514.54513,0.00369
4516.47360,0.00056
4518.40207,-0.00117
4520.33054,0.00180
4522.25901,0.00560
4524.18747,0.01091
4526.11594,0.01469
4528.04441,0.01299
4529.97288,0.00811
4531.90135,0.00299
4533.82982,0.00452
4535.75829,0.00855
4537.68676,0.00701
4539.61522,0.00593
4541.54369,0.00749
4543.47216,0.00735
4545.40063,0.00741
4547.32910,0.01008
4549.25757,0.01004
4551.18604,0.00196
4553.11450,-0.00622
4555.04297,-0.00439
4556.97144,0.00047
4558.89991,-0.00036
4560.82838,-0.00057
4562.75685,0.00671
4564.68532,0.01430
4566.61378,0.01515
4568.54225,0.01305
4570.47072,0.01051
4572.39919,0.01091
4574.32766,0.01709
4576.25613,0.02016
4578.18460,0.01448
4580.11307,0.00975
4582.04153,0.01144
4583.97000,0.00980
4585.89847,0.00157
4587.82694,0.00055
4589.75541,0.00985
4591.68388,0.01345
4593.61235,0.00982
4595.54081,0.00618
4597.46928,0.00068
4599.39775,-0.00379
4601.32622,-0.00198
4603.25469,0.00691
4605.18316,0.01332
4607.11163,0.00996
4609.04010,0.00681
4610.96856,0.00854
4612.89703,0.00955
4614.82550,0.00850
4616.75397,0.00790
4618.68244,0.00724
4620.61091,0.00601
4622.53938,0.00599
4624.46784,0.00341
4626.39631,-0.00870
4628.32478,-0.01991
4630.25325,-0.01581
4632.18172,-0.00558
4634.11019,-0.00047
4636.03866,-0.00095
4637.96713,0.00001
4639.89559,0.00607
4641.82406,0.00843
4643.75253,0.00703
4645.68100,0.00937
4647.60947,0.00984
4649.53794,0.00546
4651.46641,0.00157
4653.39487,-0.00120
4655.32334,-0.00429
4657.25181,-0.00403
4659.18028,0.00304
4661.10875,0.00870
4663.03722,0.00462
4664.96569,-0.00654
4666.89416,-0.01442
4668.82262,-0.00628
4670.75109,0.01147
4672.67956,0.02090
4674.60803,0.01542
4676.53650,0.00375
4678.46497,-0.00024
4680.39344,-0.00156
4682.32190,-0.00099
4684.25037,0.01517
4686.17884,0.03177
4688.10731,0.02782
4690.03578,0.01402
4691.96425,0.00091
4693.89272,-0.01163
4695.82119,-0.01490
4697.74965,-0.00315
4699.67812,0.01000
4701.60659,0.00739
4703.53506,-0.00202
4705.46353,0.00008
4707.39200,0.01280
4709.32047,0.02072
4711.24893,0.01336
4713.17740,0.00167
4715.10587,-0.00306
4717.03434,-0.00825
4718.96281,-0.01693
4720.89128,-0.01939
4722.81975,-0.01008
4724.74821,0.00383
4726.67668,0.01223
4728.60515,0.02265
4730.53362,0.03243
4732.46209,0.02529
4734.39056,0.01592
4736.31903,0.01953
4738.24750,0.02556
4740.17596,0.02356
4742.10443,0.01304
4744.03290,0.00628
4745.96137,0.00302
4747.88984,-0.00595
4749.81831,-0.00664
4751.74678,0.00481
4753.67524,0.01048
4755.60371,0.01569
4757.53218,0.03413
4759.46065,0.04440
4761.38912,0.02349
4763.31759,-0.00450
4765.24606,-0.01184
4767.17453,-0.00744
4769.10299,-0.00158
4771.03146,0.00672
4772.95993,0.01097
4774.88840,0.00455
4776.81687,-0.00342
4778.74534,0.00251
4780.67381,0.01674
4782.60227,0.01824
4784.53074,0.00467
4786.45921,-0.01630
4788.38768,-0.03089
4790.31615,-0.02177
4792.24462,-0.00329
4794.17309,0.00552
4796.10156,0.00930
4798.03002,0.00835
4799.95849,0.00497
4801.88696,0.01409
4803.81543,0.02641
4805.74390,0.02167
4807.67237,0.01039
4809.60084,0.00860
4811.52930,0.01654
4813.45777,0.02454
4815.38624,0.02364
4817.31471,0.01185
4819.24318,-0.00061
4821.17165,0.00567
4823.10012,0.02029
4825.02859,0.01882
4826.95705,0.00851
4828.88552,0.00694
4830.81399,0.01084
4832.74246,0.00438
4834.67093,-0.00935
4836.59940,-0.01330
4838.52787,-0.00482
4840.45633,0.01138
4842.38480,0.02189
4844.31327,0.01751
4846.24174,0.00667
4848.17021,-0.00372
4850.09868,-0.00231
4852.02715,0.00690
4853.95562,0.00209
4855.88408,-0.00761
4857.81255,-0.00797
4859.74102,-0.00553
4861.66949,-0.00154
4863.59796,-0.00036
4865.52643,-0.00742
4867.45490,-0.01061
4869.38336,-0.00640
4871.31183,0.00225
4873.24030,0.01719
4875.16877,0.02529
4877.09724,0.02096
4879.02571,0.00635
4880.95418,-0.01152
4882.88265,-0.01818
4884.81111,-0.01378
4886.73958,-0.00305
4888.66805,0.01459
4890.59652,0.02761
4892.52499,0.02315
4894.45346,0.01120
4896.38193,0.00858
4898.31039,0.01314
4900.23886,0.01074
4902.16733,0.00041
4904.09580,-0.00145
4906.02427,0.00637
4907.95274,0.00914
4909.88121,0.00060
4911.80967,-0.01649
4913.73814,-0.02581
4915.66661,-0.02022
4917.59508,-0.01214
4919.52355,-0.00129
4921.45202,0.01368
4923.38049,0.01071
4925.30896,-0.00286
4927.23742,0.00344
4929.16589,0.01203
4931.09436,0.00640
4933.02283,0.00541
4934.95130,0.01449
4936.87977,0.02824
4938.80824,0.03871
4940.73670,0.03363
4942.66517,0.02024
4944.59364,0.01590
4946.52211,0.02013
4948.45058,0.01893
4950.37905,0.00800
4952.30752,-0.00314
4954.23599,-0.00269
4956.16445,0.00664
4958.09292,0.01222
4960.02139,0.00784
4961.94986,-0.00786
4963.87833,-0.01442
4965.80680,-0.00143
4967.73527,0.00456
4969.66373,-0.00183
4971.59220,-0.00893
4973.52067,-0.01558
4975.44914,-0.01723
4977.37761,-0.01190
4979.30608,-0.00515
4981.23455,-0.00097
4983.16302,0.00882
4985.09148,0.02360
4987.01995,0.02722
4988.94842,0.02225
4990.87689,0.02044
4992.80536,0.00981
4994.73383,-0.00638
4996.66230,-0.00834
4998.59076,-0.00940
5000.51923,-0.00759
5002.44770,0.00929
5004.37617,0.01430
5006.30464,-0.00256
5008.23311,-0.01447
5010.16158,-0.01715
5012.09005,-0.02061
5014.01851,-0.01600
5015.94698,-0.00533
5017.87545,-0.00885
5019.80392,-0.02334
5021.73239,-0.02746
5023.66086,-0.01622
5025.58933,0.00345
5027.51779,0.01810
5029.44626,0.01735
5031.37473,0.01188
5033.30320,0.00169
5035.23167,-0.01810
5037.16014,-0.02157
5039.08861,0.00022
5041.01708,0.02005
5042.94554,0.02993
5044.87401,0.03338
5046.80248,0.02675
5048.73095,0.02339
5050.65942,0.03022
5052.58789,0.03004
5054.51636,0.01515
5056.44482,0.00069
5058.37329,-0.00505
5060.30176,-0.01059
5062.23023,-0.01793
5064.15870,-0.02000
5066.08717,-0.00509
5068.01564,0.01977
5069.94410,0.02684
5071.87257,0.02115
5073.80104,0.02450
5075.72951,0.02721
5077.65798,0.01528
5079.58645,0.00445
5081.51492,0.01363
5083.44339,0.02610
5085.37185,0.02140
5087.30032,0.00925
5089.22879,0.00027
5091.15726,-0.00748
5093.08573,-0.00984
5095.01420,-0.00258
5096.94267,0.00449
5098.87113,0.00099
5100.79960,-0.00973
5102.72807,-0.00771
5104.65654,0.01286
5106.58501,0.02105
5108.51348,0.00807
5110.44195,0.00416
5112.37042,0.01945
5114.29888,0.03479
5116.22735,0.03803
5118.15582,0.03682
5120.08429,0.03335
5122.01276,0.02449
5123.94123,0.01727
5125.86970,0.01609
5127.79816,0.02016
5129.72663,0.02579
5131.65510,0.02858
5133.58357,0.02323
5135.51204,0.01059
5137.44051,0.01095
5139.36898,0.02438
5141.29745,0.01985
5143.22591,0.00649
5145.15438,0.01687
5147.08285,0.03346
5149.01132,0.02005
5150.93979,-0.01209
5152.86826,-0.02234
5154.79673,-0.00664
5156.72519,0.00963
5158.65366,0.01077
5160.58213,0.00775
5162.51060,0.02176
5164.43907,0.04135
5166.36754,0.04589
5168.29601,0.03738
5170.22448,0.02458
5172.15294,0.01859
5174.08141,0.01911
5176.00988,0.01697
5177.93835,0.01047
5179.86682,0.00938
5181.79529,0.01764
5183.72376,0.02721
5185.65222,0.03062
5187.58069,0.02914
5189.50916,0.04167
5191.43763,0.05727
5193.36610,0.04625
5195.29457,0.02696
5197.22304,0.02100
5199.15151,0.01944
5201.07997,0.00732
5203.00844,-0.00934
5204.93691,0.00156
5206.86538,0.03391
5208.79385,0.04038
5210.72232,0.02536
5212.65079,0.02248
5214.57925,0.04203
5216.50772,0.06279
5218.43619,0.05552
5220.36466,0.01690
5222.29313,-0.01474
5224.22160,-0.00863
5226.15007,0.01802
5228.07854,0.03953
5230.00700,0.03721
5231.93547,0.01026
5233.86394,-0.00475
5235.79241,-0.00044
5237.72088,0.01464
5239.64935,0.04384
5241.57782,0.06750
5243.50628,0.07887
5245.43475,0.08768
5247.36322,0.07763
5249.29169,0.04767
5251.22016,0.03006
5253.14863,0.02106
5255.07710,0.00628
5257.00556,0.00973
5258.93403,0.03938
5260.86250,0.06143
5262.79097,0.04828
5264.71944,0.02345
5266.64791,0.02306
5268.57638,0.02455
5270.50485,0.00909
5272.43331,0.00804
5274.36178,0.02713
5276.29025,0.03681
5278.21872,0.03314
5280.14719,0.03635
5282.07566,0.04819
5284.00413,0.05405
5285.93259,0.05384
5287.86106,0.05301
5289.78953,0.04577
5291.71800,0.03041
5293.64647,0.02048
5295.57494,0.02006
5297.50341,0.02171
5299.43188,0.02901
5301.36034,0.04397
5303.28881,0.05032
5305.21728,0.03884
5307.14575,0.02897
5309.07422,0.04300
5311.00269,0.05738
5312.93116,0.04268
5314.85962,0.02060
5316.78809,0.01497
5318.71656,0.01960
5320.64503,0.02781
5322.57350,0.02572
5324.50197,0.01204
5326.43044,0.01216
5328.35891,0.02831
5330.28737,0.03553
5332.21584,0.03269
5334.14431,0.03118
5336.07278,0.02945
5338.00125,0.02680
5339.92972,0.02617
5341.85819,0.03686
5343.78665,0.05635
5345.71512,0.05541
5347.64359,0.03351
5349.57206,0.01861
5351.50053,0.02793
5353.42900,0.05242
5355.35747,0.05708
5357.28594,0.03945
5359.21440,0.02165
5361.14287,0.01613
5363.07134,0.02897
5364.99981,0.04563
5366.92828,0.04403
5368.85675,0.04010
5370.78522,0.05043
5372.71368,0.05418
5374.64215,0.03850
5376.57062,0.03340
5378.49909,0.04954
5380.42756,0.05623
5382.35603,0.06037
5384.28450,0.07543
5386.21297,0.08117
5388.14143,0.07811
5390.06990,0.08300
5391.99837,0.08670
5393.92684,0.07829
5395.85531,0.06418
5397.78378,0.04667
5399.71225,0.02834
5401.64071,0.03183
5403.56918,0.05570
5405.49765,0.05933
5407.42612,0.03668
5409.35459,0.02703
5411.28306,0.05182
5413.21153,0.08474
5415.13999,0.08245
5417.06846,0.05141
5418.99693,0.02702
5420.92540,0.03055
5422.85387,0.05438
5424.78234,0.07689
5426.71081,0.09088
5428.63928,0.09771
5430.56774,0.08988
5432.49621,0.05793
5434.42468,0.02742
5436.35315,0.03448
5438.28162,0.04968
5440.21009,0.03669
5442.13856,0.00573
5444.06702,-0.00468
5445.99549,0.02631
5447.92396,0.07352
5449.85243,0.09955
5451.78090,0.09998
5453.70937,0.08658
5455.63784,0.06433
5457.56631,0.04253
5459.49477,0.03322
5461.42324,0.03661
5463.35171,0.03962
5465.28018,0.02850
5467.20865,0.01214
5469.13712,0.00718
5471.06559,0.01801
5472.99405,0.03617
5474.92252,0.04100
5476.85099,0.02572
5478.77946,0.02583
5480.70793,0.05379
5482.63640,0.06371
5484.56487,0.04552
5486.49334,0.05545
5488.42180,0.07930
5490.35027,0.06752
5492.27874,0.05539
5494.20721,0.06776
5496.13568,0.07954
5498.06415,0.07284
5499.99262,0.04795
5501.92108,0.03771
5503.84955,0.04468
5505.77802,0.04652
5507.70649,0.05019
5509.63496,0.05946
5511.56343,0.06665
5513.49190,0.07332
5515.42037,0.08389
5517.34883,0.09656
5519.27730,0.10385
5521.20577,0.09694
5523.13424,0.07458
5525.06271,0.05561
5526.99118,0.05613
5528.91965,0.07269
5530.84811,0.08795
5532.77658,0.08292
5534.70505,0.07075
5536.63352,0.06570
5538.56199,0.06214
5540.49046,0.07290
5542.41893,0.09046
5544.34740,0.09147
5546.27586,0.08399
5548.20433,0.07028
5550.13280,0.06694
5552.06127,0.08273
5553.98974,0.08346
5555.91821,0.06193
5557.84668,0.04518
5559.77514,0.05186
5561.70361,0.07745
5563.63208,0.09388
5565.56055,0.08810
5567.48902,0.07389
5569.41749,0.05775
5571.34596,0.04583
5573.27443,0.04299
5575.20289,0.03576
5577.13136,0.02828
5579.05983,0.04361
5580.98830,0.07345
5582.91677,0.07994
5584.84524,0.06412
5586.77371,0.04893
5588.70217,0.03454
5590.63064,0.03060
5592.55911,0.03635
5594.48758,0.02506
5596.41605,0.00830
5598.34452,0.03054
5600.27299,0.07746
5602.20145,0.08834
5604.12992,0.06176
5606.05839,0.03792
5607.98686,0.03500
5609.91533,0.05602
5611.84380,0.08544
5613.77227,0.09469
5615.70074,0.08296
5617.62920,0.07565
5619.55767,0.09736
5621.48614,0.12725
5623.41461,0.12644
5625.34308,0.11350
5627.27155,0.10996
5629.20002,0.10736
5631.12848,0.11423
5633.05695,0.12858
5634.98542,0.12785
5636.91389,0.10478
5638.84236,0.07436
5640.77083,0.06464
5642.69930,0.08914
5644.62777,0.12642
5646.55623,0.14369
5648.48470,0.12712
5650.41317,0.08425
5652.34164,0.04033
5654.27011,0.03229
5656.19858,0.04447
5658.12705,0.04454
5660.05551,0.05846
5661.98398,0.07631
5663.91245,0.05406
5665.84092,0.01672
5667.76939,0.00588
5669.69786,0.02118
5671.62633,0.04116
5673.55480,0.05001
5675.48326,0.03924
5677.41173,0.02018
5679.34020,0.03032
5681.26867,0.07016
5683.19714,0.10445
5685.12561,0.12174
5687.05408,0.11965
5688.98254,0.09753
5690.91101,0.06938
5692.83948,0.04403
5694.76795,0.02888
5696.69642,0.03515
5698.62489,0.04153
5700.55336,0.01464
5702.48183,-0.00312
5704.41029,0.01735
5706.33876,0.04264
5708.26723,0.07280
5710.19570,0.10056
5712.12417,0.11604
5714.05264,0.11913
5715.98111,0.09003
5717.90957,0.05831
5719.83804,0.05941
5721.76651,0.07751
5723.69498,0.08470
5725.62345,0.08018
5727.55192,0.09482
5729.48039,0.12066
5731.40886,0.13118
5733.33732,0.13567
5735.26579,0.12397
5737.19426,0.08460
5739.12273,0.04880
5741.05120,0.04113
5742.97967,0.05601
5744.90814,0.07402
5746.83660,0.07742
5748.76507,0.06457
5750.69354,0.05495
5752.62201,0.05614
5754.55048,0.04361
5756.47895,0.01985
5758.40742,0.01847
5760.33588,0.04634
5762.26435,0.08112
5764.19282,0.08584
5766.12129,0.04392
5768.04976,0.01558
5769.97823,0.04993
5771.90670,0.08360
5773.83517,0.05806
5775.76363,0.01620
5777.69210,0.00745
5779.62057,0.02701
5781.54904,0.04357
5783.47751,0.04590
5785.40598,0.04927
5787.33445,0.06749
5789.26291,0.08304
5791.19138,0.07948
5793.11985,0.07451
5795.04832,0.06855
5796.97679,0.05859
5798.90526,0.06542
5800.83373,0.07916
5802.76220,0.07934
5804.69066,0.07487
5806.61913,0.06600
5808.54760,0.04845
5810.47607,0.05079
5812.40454,0.08427
5814.33301,0.10512
5816.26148,0.08640
5818.18994,0.06138
5820.11841,0.07093
5822.04688,0.09604
5823.97535,0.08439
5825.90382,0.03432
5827.83229,-0.01825
5829.76076,-0.03938
5831.68923,-0.01488
5833.61769,0.02179
5835.54616,0.04173
5837.47463,0.05502
5839.40310,0.05431
5841.33157,0.04658
5843.26004,0.04505
5845.18851,0.03835
5847.11697,0.04364
5849.04544,0.05978
5850.97391,0.06833
5852.90238,0.08209
5854.83085,0.09520
5856.75932,0.09774
5858.68779,0.09564
5860.61626,0.09592
5862.54472,0.09084
5864.47319,0.06688
5866.40166,0.05651
5868.33013,0.07624
5870.25860,0.08885
5872.18707,0.08132
5874.11554,0.05813
5876.04400,0.04704
5877.97247,0.07957
5879.90094,0.11528
5881.82941,0.11854
5883.75788,0.09529
5885.68635,0.06121
5887.61482,0.04784
5889.54329,0.05370
5891.47175,0.04955
5893.40022,0.03216
5895.32869,0.02267
5897.25716,0.03250
5899.18563,0.04775
5901.11410,0.04619
5903.04257,0.01623
5904.97103,-0.00188
5906.89950,0.02613
5908.82797,0.06133
5910.75644,0.06800
5912.68491,0.06314
5914.61338,0.07570
5916.54185,0.09847
5918.47032,0.09889
5920.39878,0.08678
5922.32725,0.07183
5924.25572,0.03904
5926.18419,0.02069
5928.11266,0.04558
5930.04113,0.07982
5931.96960,0.09481
5933.89806,0.09499
5935.82653,0.09853
5937.75500,0.10234
5939.68347,0.05841
5941.61194,-0.01972
5943.54041,-0.02500
5945.46888,0.04688
5947.39734,0.09276
5949.32581,0.08410
5951.25428,0.07841
5953.18275,0.09978
5955.11122,0.10794
5957.03969,0.08190
5958.96816,0.04492
5960.89663,0.04096
5962.82509,0.08054
5964.75356,0.10169
5966.68203,0.07632
5968.61050,0.06610
5970.53897,0.08984
5972.46744,0.11798
5974.39591,0.15105
5976.32437,0.16479
5978.25284,0.14147
5980.18131,0.09890
5982.10978,0.05400
5984.03825,0.03330
5985.96672,0.03495
5987.89519,0.02812
5989.82366,0.03868
5991.75212,0.09252
5993.68059,0.13423
5995.60906,0.12554
5997.53753,0.11042
5999.46600,0.12036
6001.39447,0.12971
6003.32294,0.08948
6005.25140,0.02506
6007.17987,0.01443
6009.10834,0.03597
6011.03681,0.05074
6012.96528,0.05309
6014.89375,0.03537
6016.82222,0.02520
6018.75069,0.04332
6020.67915,0.06063
6022.60762,0.05358
6024.53609,0.03911
6026.46456,0.02213
6028.39303,0.02429
6030.32150,0.09686
6032.24997,0.17510
6034.17843,0.16603
6036.10690,0.11106
6038.03537,0.09686
6039.96384,0.12089
6041.89231,0.12819
6043.82078,0.11305
6045.74925,0.11129
6047.67772,0.13695
6049.60618,0.15452
6051.53465,0.11328
6053.46312,0.04481
6055.39159,0.01676
6057.32006,0.03449
6059.24853,0.05540
6061.17700,0.05651
6063.10546,0.05636
6065.03393,0.07797
6066.96240,0.10400
6068.89087,0.11047
6070.81934,0.09807
6072.74781,0.06759
6074.67628,0.03485
6076.60475,0.04566
6078.53321,0.09863
6080.46168,0.12192
6082.39015,0.09155
6084.31862,0.08026
6086.24709,0.08546
6088.17556,0.04229
6090.10403,0.01690
6092.03249,0.04174
6093.96096,0.02471
6095.88943,-0.03583
6097.81790,-0.05251
6099.74637,-0.02549
6101.67484,0.00271
6103.60331,0.02693
6105.53177,0.03239
6107.46024,0.02632
6109.38871,0.03927
6111.31718,0.04260
6113.24565,0.02200
6115.17412,0.02303
6117.10259,0.05805
6119.03106,0.09336
6120.95952,0.09636
6122.88799,0.08056
6124.81646,0.07444
6126.74493,0.05807
6128.67340,0.02066
6130.60187,0.01558
6132.53034,0.05329
6134.45880,0.08561
6136.38727,0.08018
6138.31574,0.03610
6140.24421,-0.02641
6142.17268,-0.06434
6144.10115,-0.04056
6146.02962,0.00766
6147.95809,0.04447
6149.88655,0.06664
6151.81502,0.05077
6153.74349,0.02153
6155.67196,0.01380
6157.60043,0.02669
6159.52890,0.04410
6161.45737,0.01128
6163.38583,-0.06342
6165.31430,-0.09612
6167.24277,-0.05800
6169.17124,-0.01135
6171.09971,0.00039
6173.02818,0.02124
6174.95665,0.05942
6176.88512,0.06950
6178.81358,0.06246
6180.74205,0.07727
6182.67052,0.10240
6184.59899,0.10693
6186.52746,0.09697
6188.45593,0.09642
6190.38440,0.10946
6192.31286,0.08730
6194.24133,0.01256
6196.16980,-0.01987
6198.09827,0.02146
6200.02674,0.05843
6201.95521,0.08277
6203.88368,0.11187
6205.81215,0.12905
6207.74061,0.12050
6209.66908,0.07817
6211.59755,0.04017
6213.52602,0.04644
6215.45449,0.06453
6217.38296,0.04559
6219.31143,0.00511
6221.23989,0.00490
6223.16836,0.07413
6225.09683,0.16284
6227.02530,0.18328
6228.95377,0.14623
6230.88224,0.10346
6232.81071,0.03608
6234.73918,-0.04375
6236.66764,-0.06041
6238.59611,-0.00301
6240.52458,0.06234
6242.45305,0.10160
6244.38152,0.09380
6246.30999,0.02561
6248.23846,-0.02416
6250.16692,0.00744
6252.09539,0.06739
6254.02386,0.07063
6255.95233,0.03216
6257.88080,0.00659
6259.80927,-0.01185
6261.73774,-0.01080
6263.66621,0.04594
6265.59467,0.10391
6267.52314,0.06132
6269.45161,-0.01824
6271.38008,-0.02324
6273.30855,0.00286
6275.23702,0.00005
6277.16549,0.00782
6279.09395,0.01779
6281.02242,-0.01453
6282.95089,-0.04724
6284.87936,-0.02337
6286.80783,0.03657
6288.73630,0.08480
6290.66477,0.08150
6292.59323,0.05609
6294.52170,0.05843
6296.45017,0.05336
6298.37864,0.03880
6300.30711,0.03113
6302.23558,-0.01099
6304.16405,-0.02446
6306.09252,0.06497
6308.02098,0.11908
6309.94945,0.04245
6311.87792,-0.02632
6313.80639,-0.00986
6315.73486,0.02129
6317.66333,0.03807
6319.59180,0.05516
6321.52026,0.07441
6323.44873,0.05987
6325.37720,0.02614
6327.30567,0.02688
6329.23414,0.01972
6331.16261,-0.02574
6333.09108,-0.06398
6335.01955,-0.06039
6336.94801,-0.00586
6338.87648,0.05043
6340.80495,0.07536
6342.73342,0.08736
6344.66189,0.06621
6346.59036,0.02273
6348.51883,0.01977
6350.44729,0.01197
6352.37576,-0.03417
6354.30423,-0.02015
6356.23270,0.04054
6358.16117,0.03703
6360.08964,-0.02807
6362.01811,-0.06304
6363.94658,-0.01832
6365.87504,0.06793
6367.80351,0.10638
6369.73198,0.13038
6371.66045,0.17011
6373.58892,0.14386
6375.51739,0.08892
6377.44586,0.08504
6379.37432,0.12242
6381.30279,0.16281
6383.23126,0.15128
6385.15973,0.10341
6387.08820,0.10634
6389.01667,0.15544
6390.94514,0.17708
6392.87361,0.12661
6394.80207,0.04009
6396.73054,-0.02856
6398.65901,-0.05303
6400.58748,-0.01194
6402.51595,0.05054
6404.44442,0.08706
6406.37289,0.11295
6408.30135,0.14545
6410.22982,0.16131
6412.15829,0.13756
6414.08676,0.13103
6416.01523,0.14160
6417.94370,0.10324
6419.87217,0.06653
6421.80064,0.08391
6423.72910,0.09636
6425.65757,0.07741
6427.58604,0.05066
6429.51451,0.02865
6431.44298,0.03045
6433.37145,0.05619
6435.29992,0.08847
6437.22838,0.09513
6439.15685,0.05525
6441.08532,0.05907
6443.01379,0.13431
6444.94226,0.16178
6446.87073,0.12398
6448.79920,0.12097
6450.72766,0.16002
6452.65613,0.14607
6454.58460,0.07440
6456.51307,0.03368
6458.44154,0.03875
6460.37001,0.04087
6462.29848,0.02532
6464.22695,0.00646
6466.15541,0.03184
6468.08388,0.09220
6470.01235,0.10999
6471.94082,0.08285
6473.86929,0.03672
6475.79776,-0.01580
6477.72623,-0.01938
6479.65469,0.02614
6481.58316,0.09448
6483.51163,0.17965
6485.44010,0.20944
6487.36857,0.14295
6489.29704,0.05703
6491.22551,0.01892
6493.15398,0.00954
6495.08244,0.03981
6497.01091,0.09384
6498.93938,0.08095
6500.86785,0.02287
6502.79632,0.00967
6504.72479,0.02397
6506.65326,0.02740
6508.58172,0.02261
6510.51019,0.02982
6512.43866,0.03677
6514.36713,0.03908
6516.29560,0.07325
6518.22407,0.12692
6520.15254,0.13643
6522.08101,0.08064
6524.00947,0.03107
6525.93794,0.06395
6527.86641,0.11358
6529.79488,0.11405
6531.72335,0.11851
6533.65182,0.15843
6535.58029,0.17906
6537.50875,0.13452
6539.43722,0.03541
6541.36569,-0.03369
6543.29416,-0.00613
6545.22263,0.05618
6547.15110,0.07741
6549.07957,0.04662
6551.00804,0.00429
6552.93650,0.00205
6554.86497,0.00367
6556.79344,-0.00703
6558.72191,-0.00145
6560.65038,-0.01634
6562.57885,-0.03336
6564.50732,0.03287
6566.43578,0.11045
6568.36425,0.10763
6570.29272,0.06348
6572.22119,0.03681
6574.14966,0.09815
6576.07813,0.17907
6578.00660,0.14561
6579.93507,0.04938
6581.86353,0.01664
6583.79200,0.04137
6585.72047,0.05867
6587.64894,0.09006
6589.57741,0.11524
6591.50588,0.07666
6593.43435,0.05344
6595.36281,0.09285
6597.29128,0.06539
6599.21975,0.00485
6601.14822,0.05188
6603.07669,0.12042
6605.00516,0.09834
6606.93363,0.01587
6608.86210,-0.04045
6610.79056,-0.01180
6612.71903,0.06531
6614.64750,0.15225
6616.57597,0.22379
6618.50444,0.20041
6620.43291,0.10419
6622.36138,0.08392
6624.28984,0.12353
6626.21831,0.08004
6628.14678,0.00187
6630.07525,0.01700
6632.00372,0.07023
6633.93219,0.07081
6635.86066,0.06069
6637.78912,0.04041
6639.71759,-0.02269
6641.64606,-0.04405
6643.57453,0.03855
6645.50300,0.12407
6647.43147,0.12374
6649.35994,0.12280
6651.28841,0.13131
6653.21687,0.11456
6655.14534,0.11142
6657.07381,0.08807
6659.00228,0.04129
6660.93075,0.05712
6662.85922,0.09274
6664.78769,0.10126
6666.71615,0.12927
6668.64462,0.13883
6670.57309,0.07404
6672.50156,0.05357
6674.43003,0.12176
6676.35850,0.14555
6678.28697,0.12049
6680.21544,0.11220
6682.14390,0.10855
6684.07237,0.07934
6686.00084,0.05095
6687.92931,0.06128
6689.85778,0.06866
6691.78625,0.04855
6693.71472,0.03493
6695.64318,0.02014
6697.57165,0.00072
6699.50012,0.00874
6701.42859,0.06721
6703.35706,0.15434
6705.28553,0.19071
6707.21400,0.14887
6709.14247,0.06107
6711.07093,-0.03921
6712.99940,-0.09314
6714.92787,-0.07802
6716.85634,-0.03333
6718.78481,0.00547
6720.71328,0.03017
6722.64175,0.06324
6724.57021,0.10498
6726.49868,0.11833
6728.42715,0.10707
6730.35562,0.09502
6732.28409,0.07904
6734.21256,0.05309
6736.14103,0.03302
6738.06950,0.03554
6739.99796,0.05178
6741.92643,0.07732
6743.85490,0.10406
6745.78337,0.08610
6747.71184,0.03918
6749.64031,0.02403
6751.56878,0.02204
6753.49724,0.01059
6755.42571,0.03128
6757.35418,0.12546
6759.28265,0.22699
6761.21112,0.21092
6763.13959,0.12577
6765.06806,0.05415
6766.99653,-0.00066
6768.92499,-0.03152
6770.85346,-0.04832
6772.78193,-0.05928
6774.71040,-0.04898
6776.63887,-0.04321
6778.56734,-0.06059
6780.49581,-0.00627
6782.42427,0.12503
6784.35274,0.19774
6786.28121,0.17240
6788.20968,0.12334
6790.13815,0.07131
6792.06662,-0.01561
6793.99509,-0.01693
6795.92355,0.09677
6797.85202,0.10357
6799.78049,0.00267
6801.70896,-0.01677
6803.63743,0.03134
6805.56590,0.03867
6807.49437,0.01769
6809.42284,0.00620
6811.35130,0.03653
6813.27977,0.10250
6815.20824,0.12914
6817.13671,0.06377
6819.06518,-0.02438
6820.99365,-0.03388
6822.92212,0.05363
6824.85058,0.11165
6826.77905,0.02768
6828.70752,-0.09908
6830.63599,-0.06229
6832.56446,0.07185
6834.49293,0.09846
6836.42140,0.04756
6838.34987,0.04779
6840.27833,0.05338
6842.20680,0.05754
6844.13527,0.11215
6846.06374,0.14684
6847.99221,0.11855
6849.92068,0.11663
6851.84915,0.14656
6853.77761,0.13668
6855.70608,0.05751
6857.63455,-0.03494
6859.56302,-0.00906
6861.49149,0.13464
6863.41996,0.19993
6865.34843,0.14511
6867.27690,0.05168
6869.20536,-0.06517
6871.13383,-0.15172
6873.06230,-0.16945
6874.99077,-0.12610
6876.91924,-0.03714
6878.84771,-0.00330
6880.77618,-0.06995
6882.70464,-0.05457
6884.63311,0.02090
6886.56158,-0.02039
6888.49005,-0.09510
6890.41852,-0.06897
6892.34699,-0.02155
6894.27546,-0.04203
6896.20393,-0.07072
6898.13239,-0.01306
6900.06086,0.02136
6901.98933,-0.04098
6903.91780,-0.02094
6905.84627,0.12735
6907.77474,0.23993
6909.70321,0.24862
6911.63167,0.14576
6913.56014,0.03689
6915.48861,-0.01671
6917.41708,-0.04177
6919.34555,0.08106
6921.27402,0.20964
6923.20249,0.12387
6925.13096,0.00259
6927.05942,-0.02335
6928.98789,0.04841
6930.91636,0.20758
6932.84483,0.27276
6934.77330,0.13480
6936.70177,-0.02882
6938.63024,-0.08963
6940.55870,-0.04716
6942.48717,0.00816
6944.41564,0.00474
6946.34411,-0.05207
6948.27258,-0.05591
6950.20105,0.03837
6952.12952,0.13237
6954.05799,0.17661
6955.98645,0.12796
6957.91492,0.05244
6959.84339,0.10802
6961.77186,0.19445
6963.70033,0.19356
6965.62880,0.16994
6967.55727,0.12643
6969.48573,0.11492
6971.41420,0.15853
6973.34267,0.09398
6975.27114,0.01033
6977.19961,0.06078
6979.12808,0.11296
6981.05655,0.12902
6982.98501,0.13119
6984.91348,0.10021
6986.84195,0.03589
6988.77042,-0.03983
6990.69889,-0.05450
6992.62736,-0.03382
6994.55583,-0.06896
6996.48430,-0.14748
6998.41276,-0.19907
7000.34123,-0.18767
7002.26970,-0.10147
7004.19817,0.00196
7006.12664,0.05786
7008.05511,0.11142
7009.98358,0.22843
7011.91204,0.35576
7013.84051,0.36424
7015.76898,0.22331
7017.69745,0.05582
7019.62592,-0.02240
7021.55439,0.02642
7023.48286,0.11863
7025.41133,0.13813
7027.33979,0.09724
7029.26826,0.10641
7031.19673,0.08995
7033.12520,-0.09588
7035.05367,-0.28292
7036.98214,-0.27260
7038.91061,-0.20474
7040.83907,-0.15512
7042.76754,-0.07394
7044.69601,-0.03169
7046.62448,-0.10220
7048.55295,-0.12524
7050.48142,-0.00799
7052.40989,0.06415
7054.33836,0.00695
7056.26682,-0.02106
7058.19529,0.01587
7060.12376,0.03883
7062.05223,0.09246
7063.98070,0.15561
7065.90917,0.15922
7067.83764,0.15738
7069.76610,0.15348
7071.69457,0.12182
7073.62304,0.11993
7075.55151,0.10323
7077.47998,0.06868
7079.40845,0.10441
7081.33692,0.15748
7083.26539,0.06257
7085.19385,-0.09141
7087.12232,-0.10634
7089.05079,0.05092
7090.97926,0.20885
7092.90773,0.23965
7094.83620,0.16432
7096.76467,0.12490
7098.69313,0.11599
7100.62160,0.07398
7102.55007,0.04734
7104.47854,0.03308
7106.40701,0.05415
7108.33548,0.14498
7110.26395,0.22951
7112.19242,0.18858
7114.12088,0.04291
7116.04935,-0.01844
7117.97782,0.04837
7119.90629,0.07144
7121.83476,0.04397
7123.76323,0.11141
7125.69170,0.25997
7127.62016,0.31319
7129.54863,0.23854
7131.47710,0.14673
7133.40557,0.13295
7135.33404,0.19862
7137.26251,0.22587
7139.19098,0.15814
7141.11944,0.06777
7143.04791,0.02145
7144.97638,0.01183
7146.90485,0.00082
7148.83332,-0.01944
7150.76179,0.01388
7152.69026,0.10194
7154.61873,0.12769
7156.54719,0.10106
7158.47566,0.12855
7160.40413,0.16172
7162.33260,0.12092
7164.26107,0.08454
7166.18954,0.15349
7168.11801,0.26402
7170.04647,0.24502
7171.97494,0.10651
7173.90341,0.08862
7175.83188,0.19951
7177.76035,0.26378
7179.68882,0.28296
7181.61729,0.31338
7183.54576,0.21379
7185.47422,-0.03839
7187.40269,-0.16358
7189.33116,-0.05988
7191.25963,0.06053
7193.18810,-0.00633
7195.11657,-0.13161
7197.04504,-0.16124
7198.97350,-0.09453
7200.90197,-0.05169
7202.83044,-0.06814
7204.75891,-0.00117
7206.68738,0.14788
7208.61585,0.19788
7210.54432,0.19649
7212.47279,0.18203
7214.40125,0.13731
7216.32972,0.10883
7218.25819,0.12807
7220.18666,0.18835
7222.11513,0.22909
7224.04360,0.14431
7225.97207,0.00654
7227.90053,0.03936
7229.82900,0.20040
7231.75747,0.35881
7233.68594,0.38737
7235.61441,0.22047
7237.54288,0.06825
7239.47135,0.14556
7241.39982,0.28184
7243.32828,0.24601
7245.25675,0.08132
7247.18522,-0.03337
7249.11369,0.01198
7251.04216,0.17180
7252.97063,0.14103
7254.89910,-0.07833
7256.82756,-0.13519
7258.75603,-0.05734
7260.68450,0.04003
7262.61297,0.00970
7264.54144,-0.06972
7266.46991,-0.01956
7268.39838,0.10277
7270.32685,0.16836
7272.25531,0.08971
7274.18378,-0.07680
7276.11225,-0.20050
7278.04072,-0.18105
7279.96919,0.02133
7281.89766,0.13404
7283.82613,0.10789
7285.75459,0.09696
7287.68306,0.03766
7289.61153,-0.01049
7291.54000,0.12172
7293.46847,0.18814
7295.39694,0.01280
7297.32541,-0.09333
7299.25387,-0.04963
7301.18234,-0.00409
7303.11081,0.07984
7305.03928,0.28863
7306.96775,0.49844
7308.89622,0.42020
7310.82469,0.17521
7312.75316,0.08964
7314.68162,0.07548
7316.61009,0.08600
7318.53856,0.14179
7320.46703,0.16989
7322.39550,0.15863
7324.32397,0.10596
7326.25244,0.05803
7328.18090,0.00395
7330.10937,-0.18475
7332.03784,-0.27698
7333.96631,-0.14119
7335.89478,-0.03392
7337.82325,-0.07404
7339.75172,-0.20475
7341.68019,-0.21434
7343.60865,-0.09925
7345.53712,0.04844
7347.46559,0.14208
7349.39406,0.15065
7351.32253,0.15446
7353.25100,0.09943
7355.17947,0.00897
7357.10793,-0.02855
7359.03640,-0.05782
7360.96487,-0.07391
7362.89334,0.02370
7364.82181,0.09657
7366.75028,0.06854
7368.67875,0.10555
7370.60722,0.11989
7372.53568,0.02185
7374.46415,0.00727
7376.39262,0.11035
7378.32109,0.10179
7380.24956,0.13999
7382.17803,0.31299
7384.10650,0.39775
7386.03496,0.41377
7387.96343,0.46321
7389.89190,0.34805
7391.82037,0.05046
7393.74884,-0.15563
7395.67731,-0.10761
7397.60578,-0.02110
7399.53425,0.00403
7401.46271,0.01064
7403.39118,-0.03392
7405.31965,-0.00339
7407.24812,0.15682
7409.17659,0.24981
7411.10506,0.16135
7413.03353,0.04963
7414.96199,0.05890
7416.89046,0.06827
7418.81893,-0.06915
7420.74740,-0.18722
7422.67587,-0.14539
7424.60434,-0.01999
7426.53281,0.07901
7428.46128,0.08128
7430.38974,0.08174
7432.31821,0.18914
7434.24668,0.25317
7436.17515,0.22528
7438.10362,0.24377
7440.03209,0.28481
7441.96056,0.31341
7443.88902,0.29950
7445.81749,0.13739
7447.74596,0.00888
7449.67443,0.04379
7451.60290,0.06682
7453.53137,0.09730
7455.45984,0.18316
7457.38831,0.19547
7459.31677,0.07090
7461.24524,-0.10647
7463.17371,-0.16303
7465.10218,-0.11762
7467.03065,-0.07221
7468.95912,0.02433
7470.88759,0.16198
7472.81605,0.09360
7474.74452,-0.13117
7476.67299,-0.25519
7478.60146,-0.24553
7480.52993,-0.17280
7482.45840,-0.04573
7484.38687,0.01381
7486.31533,-0.03487
7488.24380,-0.04213
7490.17227,0.05881
7492.10074,0.12059
7494.02921,0.07491
7495.95768,0.09607
7497.88615,0.29139
