399.19301,1.89275
401.12148,0.15873
403.04995,-0.03419
404.97842,-0.19501
406.90689,-0.03819
408.83536,0.25571
410.76382,0.44529
412.69229,0.36699
414.62076,0.06910
416.54923,-0.23595
418.47770,-0.26516
420.40617,-0.00048
422.33464,0.10259
424.26311,0.02872
426.19157,-0.04671
428.12004,-0.06471
430.04851,-0.07374
431.97698,-0.09749
433.90545,-0.09714
435.83392,-0.06934
437.76239,-0.07608
439.69085,-0.10866
441.61932,-0.14661
443.54779,-0.16572
445.47626,-0.12228
447.40473,-0.02482
449.33320,0.11771
451.26167,0.25706
453.19013,0.30017
455.11860,0.22321
457.04707,0.10966
458.97554,0.06497
460.90401,0.09865
462.83248,0.14466
464.76095,0.15176
466.68942,0.12257
468.61788,0.07856
470.54635,0.06682
472.47482,0.12783
474.40329,0.22394
476.33176,0.22229
478.26023,0.19168
480.18870,0.21383
482.11716,0.26704
484.04563,0.24401
485.97410,0.12683
487.90257,0.01881
489.83104,-0.04598
491.75951,-0.07552
493.68798,-0.09684
495.61645,-0.11311
497.54491,-0.04069
499.47338,0.09021
501.40185,0.12991
503.33032,0.06364
505.25879,0.01377
507.18726,0.00496
509.11573,0.00394
511.04419,0.01812
512.97266,0.05027
514.90113,0.05684
516.82960,0.04497
518.75807,0.06833
520.68654,0.09455
522.61501,0.08706
524.54348,0.05969
526.47194,0.04520
528.40041,0.05260
530.32888,0.07496
532.25735,0.10396
534.18582,0.12171
536.11429,0.10662
538.04276,0.07380
539.97122,0.06627
541.89969,0.08891
543.82816,0.12235
545.75663,0.13707
547.68510,0.12085
549.61357,0.21490
551.54204,0.86984
553.47051,1.69140
555.39897,1.47554
557.32744,0.56063
559.25591,0.10990
561.18438,0.04073
563.11285,0.03319
565.04132,0.07262
566.96979,0.11033
568.89825,0.11856
570.82672,0.09232
572.75519,0.04576
574.68366,0.00666
576.61213,0.00503
578.54060,0.02171
580.46907,0.03162
582.39754,0.01512
584.32600,-0.01458
586.25447,-0.01199
588.18294,0.02398
590.11141,0.05781
592.03988,0.06445
593.96835,0.04719
595.89682,0.03018
597.82528,0.03515
599.75375,0.04062
601.68222,0.03094
603.61069,0.04330
605.53916,0.08185
607.46763,0.09220
609.39610,0.06956
611.32456,0.06344
613.25303,0.07250
615.18150,0.06133
617.10997,0.04866
619.03844,0.05523
620.96691,0.04321
622.89538,0.02287
624.82385,0.03402
626.75231,0.06744
628.68078,0.10251
630.60925,0.11937
632.53772,0.11775
634.46619,0.09713
636.39466,0.06346
638.32313,0.05954
640.25159,0.08918
642.18006,0.10962
644.10853,0.12212
646.03700,0.13590
647.96547,0.12684
649.89394,0.09993
651.82241,0.09599
653.75088,0.12295
655.67934,0.14020
657.60781,0.13692
659.53628,0.12784
661.46475,0.10618
663.39322,0.09099
665.32169,0.09780
667.25016,0.11470
669.17862,0.13147
671.10709,0.12268
673.03556,0.08562
674.96403,0.06477
676.89250,0.09123
678.82097,0.12188
680.74944,0.12238
682.67791,0.11021
684.60637,0.10721
686.53484,0.10988
688.46331,0.10779
690.39178,0.10677
692.32025,0.11598
694.24872,0.11925
696.17719,0.10112
698.10565,0.08818
700.03412,0.10125
701.96259,0.11470
703.89106,0.11408
705.81953,0.11598
707.74800,0.12068
709.67647,0.15094
711.60494,0.19314
713.53340,0.16493
715.46187,0.10176
717.39034,0.08330
719.31881,0.09102
721.24728,0.09989
723.17575,0.10644
725.10422,0.10731
727.03268,0.09453
728.96115,0.07628
730.88962,0.07662
732.81809,0.08128
734.74656,0.07050
736.67503,0.06570
738.60350,0.07394
740.53197,0.07933
742.46043,0.07893
744.38890,0.07358
746.31737,0.06859
748.24584,0.07654
750.17431,0.10078
752.10278,0.12287
754.03125,0.12302
755.95971,0.10742
757.88818,0.09314
759.81665,0.08394
761.74512,0.07695
763.67359,0.08473
765.60206,0.10551
767.53053,0.11277
769.45900,0.10495
771.38746,0.10215
773.31593,0.11091
775.24440,0.11671
777.17287,0.11051
779.10134,0.10400
781.02981,0.10504
782.95828,0.11261
784.88674,0.11899
786.81521,0.11023
788.74368,0.09084
790.67215,0.08216
792.60062,0.09088
794.52909,0.10367
796.45756,0.10185
798.38602,0.08933
800.31449,0.09008
802.24296,0.10673
804.17143,0.11161
806.09990,0.09465
808.02837,0.08103
809.95684,0.08363
811.88531,0.08495
813.81377,0.07990
815.74224,0.08661
817.67071,0.10930
819.59918,0.12755
821.52765,0.12116
823.45612,0.09601
825.38459,0.08136
827.31305,0.08581
829.24152,0.09267
831.16999,0.09413
833.09846,0.09254
835.02693,0.09301
836.95540,0.09567
838.88387,0.09701
840.81234,0.10094
842.74080,0.11222
844.66927,0.11947
846.59774,0.11081
848.52621,0.09899
850.45468,0.09512
852.38315,0.09340
854.31162,0.09420
856.24008,0.10219
858.16855,0.10691
860.09702,0.09767
862.02549,0.08825
863.95396,0.09244
865.88243,0.10283
867.81090,0.11000
869.73937,0.11522
871.66783,0.11675
873.59630,0.10195
875.52477,0.08188
877.45324,0.07958
879.38171,0.08660
881.31018,0.09431
883.23865,0.10538
885.16711,0.10904
887.09558,0.10086
889.02405,0.09748
890.95252,0.10333
892.88099,0.10447
894.80946,0.09964
896.73793,0.10061
898.66640,0.10804
900.59486,0.11121
902.52333,0.10727
904.45180,0.10204
906.38027,0.10474
908.30874,0.11877
910.23721,0.12813
912.16568,0.11880
914.09414,0.10567
916.02261,0.11107
917.95108,0.12749
919.87955,0.13037
921.80802,0.11448
923.73649,0.10115
925.66496,0.10488
927.59343,0.11321
929.52189,0.11546
931.45036,0.11191
933.37883,0.10280
935.30730,0.09445
937.23577,0.09123
939.16424,0.09209
941.09271,0.09922
943.02117,0.10264
944.94964,0.09351
946.87811,0.08804
948.80658,0.09799
950.73505,0.11200
952.66352,0.11323
954.59199,0.10511
956.52045,0.10477
958.44892,0.11346
960.37739,0.12145
962.30586,0.12153
964.23433,0.12188
966.16280,0.13010
968.09127,0.13256
970.01974,0.12419
971.94820,0.11745
973.87667,0.11342
975.80514,0.10881
977.73361,0.11220
979.66208,0.12407
981.59055,0.13230
983.51902,0.12959
985.44748,0.12209
987.37595,0.11815
989.30442,0.11528
991.23289,0.10990
993.16136,0.10461
995.08983,0.10823
997.01830,0.12150
998.94677,0.13057
1000.87523,0.13000
1002.80370,0.12296
1004.73217,0.11398
1006.66064,0.11029
1008.58911,0.11179
1010.51758,0.11346
1012.44605,0.11888
1014.37451,0.12945
1016.30298,0.13358
1018.23145,0.12804
1020.15992,0.12103
1022.08839,0.11565
1024.01686,0.11382
1025.94533,0.13038
1027.87380,0.16756
1029.80226,0.17819
1031.73073,0.14604
1033.65920,0.12460
1035.58767,0.12595
1037.51614,0.11979
1039.44461,0.11169
1041.37308,0.11902
1043.30154,0.13106
1045.23001,0.13426
1047.15848,0.13390
1049.08695,0.13707
1051.01542,0.14374
1052.94389,0.14907
1054.87236,0.14943
1056.80083,0.14995
1058.72929,0.15063
1060.65776,0.14742
1062.58623,0.14420
1064.51470,0.13785
1066.44317,0.12921
1068.37164,0.13153
1070.30011,0.14111
1072.22857,0.14286
1074.15704,0.13434
1076.08551,0.12478
1078.01398,0.11845
1079.94245,0.11807
1081.87092,0.13128
1083.79939,0.14947
1085.72786,0.15513
1087.65632,0.14637
1089.58479,0.13399
1091.51326,0.12914
1093.44173,0.13199
1095.37020,0.13229
1097.29867,0.12851
1099.22714,0.12979
1101.15560,0.13294
1103.08407,0.13033
1105.01254,0.13102
1106.94101,0.13993
1108.86948,0.14577
1110.79795,0.14513
1112.72642,0.14221
1114.65489,0.13888
1116.58335,0.14143
1118.51182,0.14816
1120.44029,0.14719
1122.36876,0.13610
1124.29723,0.12686
1126.22570,0.12936
1128.15417,0.13225
1130.08263,0.12455
1132.01110,0.11847
1133.93957,0.12072
1135.86804,0.12540
1137.79651,0.13097
1139.72498,0.13160
1141.65345,0.12937
1143.58191,0.13863
1145.51038,0.15185
1147.43885,0.15303
1149.36732,0.14746
1151.29579,0.13977
1153.22426,0.12872
1155.15273,0.12103
1157.08120,0.12180
1159.00966,0.12932
1160.93813,0.13533
1162.86660,0.13816
1164.79507,0.14332
1166.72354,0.14676
1168.65201,0.14581
1170.58048,0.14316
1172.50894,0.14195
1174.43741,0.14505
1176.36588,0.14937
1178.29435,0.15106
1180.22282,0.14953
1182.15129,0.14732
1184.07976,0.16014
1186.00823,0.18882
1187.93669,0.19175
1189.86516,0.16330
1191.79363,0.14570
1193.72210,0.14416
1195.65057,0.14405
1197.57904,0.14419
1199.50751,0.14436
1201.43597,0.14325
1203.36444,0.14051
1205.29291,0.14030
1207.22138,0.14444
1209.14985,0.14776
1211.07832,0.14711
1213.00679,0.14541
1214.93526,0.14500
1216.86372,0.14741
1218.79219,0.15228
1220.72066,0.15427
1222.64913,0.15440
1224.57760,0.15724
1226.50607,0.15772
1228.43454,0.15196
1230.36300,0.14522
1232.29147,0.14157
1234.21994,0.14095
1236.14841,0.14364
1238.07688,0.14997
1240.00535,0.15680
1241.93382,0.15982
1243.86229,0.15681
1245.79075,0.14863
1247.71922,0.14191
1249.64769,0.14371
1251.57616,0.15142
1253.50463,0.15521
1255.43310,0.15134
1257.36157,0.14585
1259.29003,0.14302
1261.21850,0.13928
1263.14697,0.13850
1265.07544,0.14784
1267.00391,0.15745
1268.93238,0.15849
1270.86085,0.15803
1272.78932,0.15851
1274.71778,0.15572
1276.64625,0.15428
1278.57472,0.15671
1280.50319,0.15407
1282.43166,0.14759
1284.36013,0.14877
1286.28860,0.15517
1288.21706,0.15787
1290.14553,0.15626
1292.07400,0.15373
1294.00247,0.15352
1295.93094,0.15258
1297.85941,0.14748
1299.78788,0.14032
1301.71634,0.13369
1303.64481,0.13376
1305.57328,0.14424
1307.50175,0.15748
1309.43022,0.16254
1311.35869,0.15721
1313.28716,0.15015
1315.21563,0.15014
1317.14409,0.15502
1319.07256,0.15788
1321.00103,0.15577
1322.92950,0.15157
1324.85797,0.14910
1326.78644,0.15022
1328.71491,0.15355
1330.64337,0.15408
1332.57184,0.15294
1334.50031,0.15493
1336.42878,0.16149
1338.35725,0.16985
1340.28572,0.17219
1342.21419,0.14459
1344.14266,0.09088
1346.07112,0.08370
1347.99959,0.13365
1349.92806,0.15875
1351.85653,0.15162
1353.78500,0.14798
1355.71347,0.14942
1357.64194,0.15615
1359.57040,0.16744
1361.49887,0.17519
1363.42734,0.16969
1365.35581,0.15958
1367.28428,0.15876
1369.21275,0.16450
1371.14122,0.16760
1373.06969,0.16721
1374.99815,0.16588
1376.92662,0.16545
1378.85509,0.16716
1380.78356,0.16597
1382.71203,0.16000
1384.64050,0.15600
1386.56897,0.15826
1388.49743,0.16090
1390.42590,0.16025
1392.35437,0.16147
1394.28284,0.16905
1396.21131,0.18040
1398.13978,0.18256
1400.06825,0.17322
1401.99672,0.16537
1403.92518,0.16470
1405.85365,0.16644
1407.78212,0.16580
1409.71059,0.16301
1411.63906,0.16217
1413.56753,0.16848
1415.49600,0.18277
1417.42446,0.19908
1419.35293,0.19812
1421.28140,0.18263
1423.20987,0.17461
1425.13834,0.17141
1427.06681,0.16888
1428.99528,0.17075
1430.92375,0.17434
1432.85221,0.17382
1434.78068,0.17601
1436.70915,0.18165
1438.63762,0.17740
1440.56609,0.16912
1442.49456,0.16530
1444.42303,0.16818
1446.35149,0.17780
1448.27996,0.18657
1450.20843,0.18612
1452.13690,0.18461
1454.06537,0.19569
1455.99384,0.21959
1457.92231,0.21931
1459.85077,0.19223
1461.77924,0.18019
1463.70771,0.18018
1465.63618,0.17669
1467.56465,0.16922
1469.49312,0.17250
1471.42159,0.19021
1473.35006,0.20680
1475.27852,0.20500
1477.20699,0.19526
1479.13546,0.18659
1481.06393,0.18226
1482.99240,0.18025
1484.92087,0.18132
1486.84934,0.18906
1488.77780,0.19804
1490.70627,0.19450
1492.63474,0.18695
1494.56321,0.18963
1496.49168,0.19660
1498.42015,0.19300
1500.34862,0.18803
1502.27709,0.19192
1504.20555,0.20598
1506.13402,0.23401
1508.06249,0.23843
1509.99096,0.21525
1511.91943,0.20357
1513.84790,0.20645
1515.77637,0.22001
1517.70483,0.23167
1519.63330,0.23576
1521.56177,0.23273
1523.49024,0.22061
1525.41871,0.21367
1527.34718,0.20523
1529.27565,0.19300
1531.20412,0.19390
1533.13258,0.20675
1535.06105,0.21055
1536.98952,0.21747
1538.91799,0.24794
1540.84646,0.26577
1542.77493,0.23456
1544.70340,0.20587
1546.63186,0.19243
1548.56033,0.19278
1550.48880,0.19706
1552.41727,0.20046
1554.34574,0.20885
1556.27421,0.22911
1558.20268,0.26383
1560.13115,0.24820
1562.05961,0.21138
1563.98808,0.19815
1565.91655,0.19427
1567.84502,0.19470
1569.77349,0.19858
1571.70196,0.19432
1573.63043,0.19093
1575.55889,0.19832
1577.48736,0.20249
1579.41583,0.19573
1581.34430,0.18804
1583.27277,0.18314
1585.20124,0.18196
1587.12971,0.18169
1589.05818,0.18048
1590.98664,0.18221
1592.91511,0.18712
1594.84358,0.18736
1596.77205,0.18148
1598.70052,0.17856
1600.62899,0.18105
1602.55746,0.18105
1604.48592,0.17917
1606.41439,0.18398
1608.34286,0.19095
1610.27133,0.19204
1612.19980,0.19087
1614.12827,0.19313
1616.05674,0.19799
1617.98521,0.19498
1619.91367,0.19205
1621.84214,0.20124
1623.77061,0.20965
1625.69908,0.20311
1627.62755,0.19465
1629.55602,0.19119
1631.48449,0.19068
1633.41295,0.19903
1635.34142,0.22224
1637.26989,0.22803
1639.19836,0.21192
1641.12683,0.19822
1643.05530,0.19380
1644.98377,0.21086
1646.91223,0.24326
1648.84070,0.24479
1650.76917,0.23841
1652.69764,0.24923
1654.62611,0.23558
1656.55458,0.20685
1658.48305,0.19375
1660.41152,0.19435
1662.33998,0.19939
1664.26845,0.19958
1666.19692,0.20160
1668.12539,0.21592
1670.05386,0.22984
1671.98233,0.22172
1673.91080,0.20939
1675.83926,0.20189
1677.76773,0.20073
1679.69620,0.20712
1681.62467,0.21931
1683.55314,0.23185
1685.48161,0.22580
1687.41008,0.21401
1689.33855,0.20623
1691.26701,0.19933
1693.19548,0.20268
1695.12395,0.21979
1697.05242,0.23379
1698.98089,0.23410
1700.90936,0.22469
1702.83783,0.21592
1704.76629,0.21320
1706.69476,0.20635
1708.62323,0.19602
1710.55170,0.19118
1712.48017,0.19542
1714.40864,0.21092
1716.33711,0.22962
1718.26558,0.22407
1720.19404,0.20472
1722.12251,0.19313
1724.05098,0.18671
1725.97945,0.18509
1727.90792,0.18969
1729.83639,0.19760
1731.76486,0.20758
1733.69332,0.21656
1735.62179,0.21119
1737.55026,0.20053
1739.47873,0.19372
1741.40720,0.19347
1743.33567,0.20079
1745.26414,0.20998
1747.19261,0.21655
1749.12107,0.21790
1751.04954,0.20722
1752.97801,0.19209
1754.90648,0.18492
1756.83495,0.18490
1758.76342,0.19031
1760.69189,0.19815
1762.62035,0.19523
1764.54882,0.18349
1766.47729,0.17952
1768.40576,0.18806
1770.33423,0.20508
1772.26270,0.21257
1774.19117,0.20035
1776.11964,0.19011
1778.04810,0.19001
1779.97657,0.19522
1781.90504,0.19608
1783.83351,0.18951
1785.76198,0.18263
1787.69045,0.18333
1789.61892,0.19338
1791.54738,0.20541
1793.47585,0.20562
1795.40432,0.19880
1797.33279,0.19738
1799.26126,0.19970
1801.18973,0.19678
1803.11820,0.18792
1805.04666,0.18309
1806.97513,0.18677
1808.90360,0.19317
1810.83207,0.19467
1812.76054,0.19092
1814.68901,0.18517
1816.61748,0.17376
1818.54595,0.15787
1820.47441,0.15339
1822.40288,0.16953
1824.33135,0.19101
1826.25982,0.19620
1828.18829,0.19634
1830.11676,0.20254
1832.04523,0.20081
1833.97369,0.19222
1835.90216,0.18618
1837.83063,0.18436
1839.75910,0.18560
1841.68757,0.19174
1843.61604,0.19984
1845.54451,0.19917
1847.47298,0.19248
1849.40144,0.18768
1851.32991,0.18538
1853.25838,0.18268
1855.18685,0.17989
1857.11532,0.17952
1859.04379,0.17960
1860.97226,0.17921
1862.90072,0.18028
1864.82919,0.18399
1866.75766,0.19153
1868.68613,0.19711
1870.61460,0.19220
1872.54307,0.18590
1874.47154,0.18515
1876.40001,0.18533
1878.32847,0.18275
1880.25694,0.18229
1882.18541,0.18638
1884.11388,0.18918
1886.04235,0.19101
1887.97082,0.19608
1889.89929,0.19842
1891.82775,0.19307
1893.75622,0.18724
1895.68469,0.18476
1897.61316,0.18365
1899.54163,0.18375
1901.47010,0.18364
1903.39857,0.18105
1905.32704,0.17958
1907.25550,0.18298
1909.18397,0.18690
1911.11244,0.18791
1913.04091,0.18806
1914.96938,0.18782
1916.89785,0.18829
1918.82632,0.18963
1920.75478,0.19130
1922.68325,0.19242
1924.61172,0.18876
1926.54019,0.18311
1928.46866,0.18088
1930.39713,0.18178
1932.32560,0.18342
1934.25407,0.18440
1936.18253,0.18595
1938.11100,0.18741
1940.03947,0.18695
1941.96794,0.18689
1943.89641,0.18775
1945.82488,0.18557
1947.75335,0.18165
1949.68181,0.18083
1951.61028,0.18249
1953.53875,0.18445
1955.46722,0.18656
1957.39569,0.18718
1959.32416,0.18628
1961.25263,0.18589
1963.18110,0.18745
1965.10956,0.18927
1967.03803,0.18708
1968.96650,0.18403
1970.89497,0.18569
1972.82344,0.18853
1974.75191,0.18917
1976.68038,0.18917
1978.60884,0.18884
1980.53731,0.18856
1982.46578,0.18955
1984.39425,0.19180
1986.32272,0.19227
1988.25119,0.18860
1990.17966,0.18624
1992.10812,0.18719
1994.03659,0.18654
1995.96506,0.18494
1997.89353,0.18361
1999.82200,0.18203
2001.75047,0.18048
2003.67894,0.17984
2005.60741,0.18341
2007.53587,0.18882
2009.46434,0.18943
2011.39281,0.18670
2013.32128,0.18560
2015.24975,0.18644
2017.17822,0.18687
2019.10669,0.18684
2021.03515,0.18839
2022.96362,0.19110
2024.89209,0.19180
2026.82056,0.18947
2028.74903,0.18722
2030.67750,0.18728
2032.60597,0.18963
2034.53444,0.19152
2036.46290,0.19097
2038.39137,0.19039
2040.31984,0.18910
2042.24831,0.18617
2044.17678,0.18523
2046.10525,0.18795
2048.03372,0.19267
2049.96218,0.19523
2051.89065,0.19242
2053.81912,0.18642
2055.74759,0.18322
2057.67606,0.18629
2059.60453,0.19081
2061.53300,0.19131
2063.46147,0.19097
2065.38993,0.19175
2067.31840,0.19016
2069.24687,0.18774
2071.17534,0.18746
2073.10381,0.18805
2075.03228,0.18830
2076.96075,0.18767
2078.88921,0.18672
2080.81768,0.18609
2082.74615,0.18508
2084.67462,0.18532
2086.60309,0.18795
2088.53156,0.18973
2090.46003,0.19031
2092.38850,0.19256
2094.31696,0.19236
2096.24543,0.18734
2098.17390,0.18588
2100.10237,0.18782
2102.03084,0.18631
2103.95931,0.18575
2105.88778,0.18845
2107.81624,0.18983
2109.74471,0.19035
2111.67318,0.19025
2113.60165,0.18813
2115.53012,0.18751
2117.45859,0.18961
2119.38706,0.19158
2121.31553,0.19237
2123.24399,0.19183
2125.17246,0.19101
2127.10093,0.18974
2129.02940,0.18714
2130.95787,0.18584
2132.88634,0.18825
2134.81481,0.19554
2136.74327,0.20368
2138.67174,0.20341
2140.60021,0.19688
2142.52868,0.19258
2144.45715,0.18983
2146.38562,0.18948
2148.31409,0.19274
2150.24255,0.19433
2152.17102,0.19307
2154.09949,0.19093
2156.02796,0.18850
2157.95643,0.18697
2159.88490,0.18705
2161.81337,0.18816
2163.74184,0.18948
2165.67030,0.18966
2167.59877,0.18799
2169.52724,0.18643
2171.45571,0.18699
2173.38418,0.18925
2175.31265,0.19074
2177.24112,0.19091
2179.16958,0.19185
2181.09805,0.19203
2183.02652,0.18893
2184.95499,0.18457
2186.88346,0.18245
2188.81193,0.18325
2190.74040,0.18506
2192.66887,0.18649
2194.59733,0.18758
2196.52580,0.18842
2198.45427,0.18905
2200.38274,0.19011
2202.31121,0.19034
2204.23968,0.18861
2206.16815,0.18819
2208.09661,0.19049
2210.02508,0.19239
2211.95355,0.19254
2213.88202,0.19204
2215.81049,0.19238
2217.73896,0.19373
2219.66743,0.19395
2221.59590,0.19207
2223.52436,0.19047
2225.45283,0.19121
2227.38130,0.19226
2229.30977,0.19147
2231.23824,0.19092
2233.16671,0.19107
2235.09518,0.18983
2237.02364,0.18946
2238.95211,0.19242
2240.88058,0.19518
2242.80905,0.19409
2244.73752,0.19140
2246.66599,0.19126
2248.59446,0.19301
2250.52293,0.19322
2252.45139,0.19200
2254.37986,0.19242
2256.30833,0.19565
2258.23680,0.19794
2260.16527,0.19571
2262.09374,0.19231
2264.02221,0.19228
2265.95067,0.19460
2267.87914,0.19657
2269.80761,0.19737
2271.73608,0.19656
2273.66455,0.19515
2275.59302,0.19395
2277.52149,0.19129
2279.44996,0.18844
2281.37842,0.18894
2283.30689,0.19267
2285.23536,0.19558
2287.16383,0.19579
2289.09230,0.19770
2291.02077,0.20149
2292.94924,0.20009
2294.87770,0.19387
2296.80617,0.19191
2298.73464,0.19693
2300.66311,0.20066
2302.59158,0.19871
2304.52005,0.19926
2306.44852,0.20530
2308.37699,0.20780
2310.30545,0.20691
2312.23392,0.20888
2314.16239,0.20871
2316.09086,0.20447
2318.01933,0.20268
2319.94780,0.20814
2321.87627,0.21686
2323.80473,0.21549
2325.73320,0.20837
2327.66167,0.21189
2329.59014,0.22221
2331.51861,0.22887
2333.44708,0.23213
2335.37555,0.23158
2337.30401,0.22684
2339.23248,0.22507
2341.16095,0.22803
2343.08942,0.23270
2345.01789,0.23542
2346.94636,0.23044
2348.87483,0.22576
2350.80330,0.23008
2352.73176,0.24230
2354.66023,0.25243
2356.58870,0.25153
2358.51717,0.23380
2360.44564,0.21057
2362.37411,0.21361
2364.30258,0.23878
2366.23104,0.24524
2368.15951,0.23368
2370.08798,0.23171
2372.01645,0.23411
2373.94492,0.22725
2375.87339,0.21517
2377.80186,0.20538
2379.73033,0.19789
2381.65879,0.19182
2383.58726,0.18876
2385.51573,0.18928
2387.44420,0.19200
2389.37267,0.19463
2391.30114,0.19622
2393.22961,0.19658
2395.15807,0.19537
2397.08654,0.19413
2399.01501,0.19438
2400.94348,0.19587
2402.87195,0.19611
2404.80042,0.19261
2406.72889,0.18909
2408.65736,0.18903
2410.58582,0.19013
2412.51429,0.19220
2414.44276,0.19517
2416.37123,0.19628
2418.29970,0.19601
2420.22817,0.19616
2422.15664,0.19515
2424.08510,0.19236
2426.01357,0.19061
2427.94204,0.19102
2429.87051,0.19208
2431.79898,0.19298
2433.72745,0.19482
2435.65592,0.19672
2437.58439,0.19589
2439.51285,0.19425
2441.44132,0.19313
2443.36979,0.19081
2445.29826,0.18849
2447.22673,0.18600
2449.15520,0.18525
2451.08367,0.19299
2453.01213,0.20250
2454.94060,0.19983
2456.86907,0.19092
2458.79754,0.18936
2460.72601,0.19532
2462.65448,0.20123
2464.58295,0.20102
2466.51142,0.19697
2468.43988,0.19494
2470.36835,0.19522
2472.29682,0.19660
2474.22529,0.19830
2476.15376,0.19921
2478.08223,0.19901
2480.01070,0.19715
2481.93916,0.19457
2483.86763,0.19442
2485.79610,0.19866
2487.72457,0.20327
2489.65304,0.20157
2491.58151,0.19599
2493.50998,0.19449
2495.43844,0.19719
2497.36691,0.19993
2499.29538,0.20183
2501.22385,0.20234
2503.15232,0.20161
2505.08079,0.20131
2507.00926,0.20019
2508.93773,0.19708
2510.86619,0.19537
2512.79466,0.19692
2514.72313,0.19810
2516.65160,0.19623
2518.58007,0.19379
2520.50854,0.19272
2522.43701,0.19256
2524.36547,0.19456
2526.29394,0.19655
2528.22241,0.19464
2530.15088,0.19182
2532.07935,0.19175
2534.00782,0.19373
2535.93629,0.19579
2537.86476,0.19684
2539.79322,0.19760
2541.72169,0.20026
2543.65016,0.20575
2545.57863,0.20980
2547.50710,0.20813
2549.43557,0.20224
2551.36404,0.19618
2553.29250,0.19302
2555.22097,0.19231
2557.14944,0.19174
2559.07791,0.19211
2561.00638,0.19698
2562.93485,0.20468
2564.86332,0.20760
2566.79179,0.20395
2568.72025,0.19871
2570.64872,0.19581
2572.57719,0.19644
2574.50566,0.19914
2576.43413,0.20124
2578.36260,0.20091
2580.29107,0.19883
2582.21953,0.19639
2584.14800,0.19399
2586.07647,0.19220
2588.00494,0.19179
2589.93341,0.19273
2591.86188,0.19263
2593.79035,0.19168
2595.71882,0.19272
2597.64728,0.19523
2599.57575,0.19878
2601.50422,0.20050
2603.43269,0.19864
2605.36116,0.19981
2607.28963,0.20016
2609.21810,0.18832
2611.14656,0.17702
2613.07503,0.18523
2615.00350,0.19963
2616.93197,0.20127
2618.86044,0.19899
2620.78891,0.20175
2622.71738,0.20247
2624.64585,0.20024
2626.57431,0.19898
2628.50278,0.19680
2630.43125,0.19492
2632.35972,0.19634
2634.28819,0.19880
2636.21666,0.19967
2638.14513,0.19942
2640.07359,0.20102
2642.00206,0.20488
2643.93053,0.20561
2645.85900,0.20185
2647.78747,0.19952
2649.71594,0.20145
2651.64441,0.20422
2653.57288,0.20504
2655.50134,0.20375
2657.42981,0.20104
2659.35828,0.19961
2661.28675,0.20053
2663.21522,0.19946
2665.14369,0.19554
2667.07216,0.19547
2669.00062,0.20161
2670.92909,0.20711
2672.85756,0.20647
2674.78603,0.20390
2676.71450,0.20490
2678.64297,0.20625
2680.57144,0.20559
2682.49990,0.20680
2684.42837,0.20939
2686.35684,0.20780
2688.28531,0.20250
2690.21378,0.20005
2692.14225,0.20216
2694.07072,0.20301
2695.99919,0.19957
2697.92765,0.19840
2699.85612,0.20168
2701.78459,0.20324
2703.71306,0.20280
2705.64153,0.20229
2707.57000,0.20205
2709.49847,0.20339
2711.42693,0.20514
2713.35540,0.20612
2715.28387,0.20661
2717.21234,0.20660
2719.14081,0.20515
2721.06928,0.20308
2722.99775,0.20324
2724.92622,0.20369
2726.85468,0.20090
2728.78315,0.19925
2730.71162,0.20326
2732.64009,0.20874
2734.56856,0.21062
2736.49703,0.21002
2738.42550,0.21122
2740.35396,0.21287
2742.28243,0.21044
2744.21090,0.20880
2746.13937,0.21173
2748.06784,0.21340
2749.99631,0.21051
2751.92478,0.20492
2753.85325,0.20026
2755.78171,0.19939
2757.71018,0.20240
2759.63865,0.20735
2761.56712,0.21055
2763.49559,0.21114
2765.42406,0.21335
2767.35253,0.21702
2769.28099,0.21646
2771.20946,0.21133
2773.13793,0.20618
2775.06640,0.20420
2776.99487,0.20410
2778.92334,0.20391
2780.85181,0.20399
2782.78028,0.20347
2784.70874,0.20358
2786.63721,0.20350
2788.56568,0.20028
2790.49415,0.19926
2792.42262,0.20486
2794.35109,0.21118
2796.27956,0.21210
2798.20802,0.21072
2800.13649,0.21105
2802.06496,0.21140
2803.99343,0.21242
2805.92190,0.21449
2807.85037,0.21387
2809.77884,0.21116
2811.70731,0.21042
2813.63577,0.21103
2815.56424,0.21118
2817.49271,0.21266
2819.42118,0.21412
2821.34965,0.21306
2823.27812,0.21319
2825.20659,0.21588
2827.13505,0.21811
2829.06352,0.22103
2830.99199,0.22261
2832.92046,0.21945
2834.84893,0.21939
2836.77740,0.22338
2838.70587,0.22248
2840.63433,0.22057
2842.56280,0.22053
2844.49127,0.21679
2846.41974,0.21264
2848.34821,0.21058
2850.27668,0.20751
2852.20515,0.20638
2854.13362,0.20891
2856.06208,0.21157
2857.99055,0.21321
2859.91902,0.21333
2861.84749,0.21116
2863.77596,0.20914
2865.70443,0.20909
2867.63290,0.20746
2869.56136,0.20285
2871.48983,0.20078
2873.41830,0.20320
2875.34677,0.20661
2877.27524,0.20951
2879.20371,0.21200
2881.13218,0.21313
2883.06065,0.21205
2884.98911,0.20871
2886.91758,0.20643
2888.84605,0.20827
2890.77452,0.20905
2892.70299,0.20738
2894.63146,0.20893
2896.55993,0.21066
2898.48839,0.20969
2900.41686,0.21054
2902.34533,0.21278
2904.27380,0.21379
2906.20227,0.21603
2908.13074,0.22061
2910.05921,0.22263
2911.98768,0.21885
2913.91614,0.21437
2915.84461,0.21355
2917.77308,0.21400
2919.70155,0.21373
2921.63002,0.21304
2923.55849,0.21064
2925.48696,0.20591
2927.41542,0.20335
2929.34389,0.20405
2931.27236,0.20396
2933.20083,0.20499
2935.12930,0.20706
2937.05777,0.20562
2938.98624,0.20416
2940.91471,0.20749
2942.84317,0.21066
2944.77164,0.20730
2946.70011,0.20033
2948.62858,0.19699
2950.55705,0.20213
2952.48552,0.21256
2954.41399,0.21459
2956.34245,0.20543
2958.27092,0.19985
2960.19939,0.20390
2962.12786,0.20898
2964.05633,0.20869
2965.98480,0.20698
2967.91327,0.20966
2969.84174,0.21581
2971.77020,0.22023
2973.69867,0.21959
2975.62714,0.21455
2977.55561,0.21025
2979.48408,0.21247
2981.41255,0.21710
2983.34102,0.21620
2985.26948,0.21060
2987.19795,0.20692
2989.12642,0.20967
2991.05489,0.21389
2992.98336,0.21500
2994.91183,0.21714
2996.84030,0.21948
2998.76877,0.21901
3000.69723,0.22054
3002.62570,0.22550
3004.55417,0.22834
3006.48264,0.22513
3008.41111,0.21831
3010.33958,0.21139
3012.26805,0.20240
3014.19651,0.18815
3016.12498,0.17358
3018.05345,0.17442
3019.98192,0.19373
3021.91039,0.21226
3023.83886,0.21975
3025.76733,0.22146
3027.69579,0.22170
3029.62426,0.22199
3031.55273,0.22213
3033.48120,0.22088
3035.40967,0.21914
3037.33814,0.21654
3039.26661,0.21276
3041.19508,0.21193
3043.12354,0.21496
3045.05201,0.21757
3046.98048,0.21790
3048.90895,0.21688
3050.83742,0.21620
3052.76589,0.21867
3054.69436,0.21944
3056.62282,0.21220
3058.55129,0.20790
3060.47976,0.21401
3062.40823,0.22046
3064.33670,0.21912
3066.26517,0.21418
3068.19364,0.21463
3070.12211,0.21761
3072.05057,0.21850
3073.97904,0.21953
3075.90751,0.22043
3077.83598,0.22132
3079.76445,0.22124
3081.69292,0.21680
3083.62139,0.20436
3085.54985,0.19249
3087.47832,0.19640
3089.40679,0.20729
3091.33526,0.21031
3093.26373,0.20928
3095.19220,0.21191
3097.12067,0.21892
3099.04914,0.22625
3100.97760,0.22835
3102.90607,0.22121
3104.83454,0.21267
3106.76301,0.21393
3108.69148,0.21988
3110.61995,0.21934
3112.54842,0.21547
3114.47688,0.21676
3116.40535,0.22083
3118.33382,0.22334
3120.26229,0.22089
3122.19076,0.21379
3124.11923,0.21207
3126.04770,0.21521
3127.97617,0.21529
3129.90463,0.21680
3131.83310,0.22200
3133.76157,0.22551
3135.69004,0.22601
3137.61851,0.22633
3139.54698,0.23059
3141.47545,0.23546
3143.40391,0.23161
3145.33238,0.22058
3147.26085,0.21434
3149.18932,0.21806
3151.11779,0.22400
3153.04626,0.22860
3154.97473,0.23362
3156.90320,0.23194
3158.83166,0.22454
3160.76013,0.22357
3162.68860,0.22856
3164.61707,0.23343
3166.54554,0.23463
3168.47401,0.22817
3170.40248,0.22165
3172.33094,0.22576
3174.25941,0.23241
3176.18788,0.23056
3178.11635,0.22599
3180.04482,0.22519
3181.97329,0.22883
3183.90176,0.23382
3185.83022,0.23138
3187.75869,0.22479
3189.68716,0.22331
3191.61563,0.22325
3193.54410,0.22166
3195.47257,0.21921
3197.40104,0.21206
3199.32951,0.20670
3201.25797,0.21409
3203.18644,0.22395
3205.11491,0.22274
3207.04338,0.21958
3208.97185,0.22421
3210.90032,0.22919
3212.82879,0.23115
3214.75725,0.23378
3216.68572,0.23263
3218.61419,0.22620
3220.54266,0.22057
3222.47113,0.21716
3224.39960,0.21481
3226.32807,0.21433
3228.25654,0.21674
3230.18500,0.22239
3232.11347,0.22653
3234.04194,0.22331
3235.97041,0.21776
3237.89888,0.21796
3239.82735,0.22015
3241.75582,0.22407
3243.68428,0.23467
3245.61275,0.23732
3247.54122,0.22699
3249.46969,0.22234
3251.39816,0.22330
3253.32663,0.22288
3255.25510,0.22334
3257.18357,0.22073
3259.11203,0.21344
3261.04050,0.20787
3262.96897,0.21005
3264.89744,0.21786
3266.82591,0.22409
3268.75438,0.22520
3270.68285,0.22115
3272.61131,0.21812
3274.53978,0.22219
3276.46825,0.22479
3278.39672,0.21877
3280.32519,0.21351
3282.25366,0.21349
3284.18213,0.21263
3286.11060,0.20886
3288.03906,0.20601
3289.96753,0.20838
3291.89600,0.21330
3293.82447,0.21645
3295.75294,0.21923
3297.68141,0.22016
3299.60988,0.21418
3301.53834,0.20660
3303.46681,0.20918
3305.39528,0.21782
3307.32375,0.22249
3309.25222,0.22801
3311.18069,0.23570
3313.10916,0.23552
3315.03763,0.22609
3316.96609,0.21785
3318.89456,0.21795
3320.82303,0.21976
3322.75150,0.21607
3324.67997,0.21355
3326.60844,0.22043
3328.53691,0.23076
3330.46537,0.23378
3332.39384,0.23021
3334.32231,0.22678
3336.25078,0.22618
3338.17925,0.22793
3340.10772,0.23090
3342.03619,0.23238
3343.96466,0.22715
3345.89312,0.21582
3347.82159,0.20870
3349.75006,0.21079
3351.67853,0.21464
3353.60700,0.21663
3355.53547,0.21929
3357.46394,0.22008
3359.39240,0.21923
3361.32087,0.22006
3363.24934,0.22032
3365.17781,0.21982
3367.10628,0.22066
3369.03475,0.22140
3370.96322,0.22144
3372.89168,0.22118
3374.82015,0.21915
3376.74862,0.21428
3378.67709,0.21190
3380.60556,0.21731
3382.53403,0.22345
3384.46250,0.22314
3386.39097,0.21971
3388.31943,0.21728
3390.24790,0.21835
3392.17637,0.21994
3394.10484,0.21584
3396.03331,0.21359
3397.96178,0.21990
3399.89025,0.22676
3401.81871,0.22862
3403.74718,0.22362
3405.67565,0.21469
3407.60412,0.21298
3409.53259,0.21931
3411.46106,0.22106
3413.38953,0.21589
3415.31800,0.21255
3417.24646,0.21083
3419.17493,0.20868
3421.10340,0.20909
3423.03187,0.21111
3424.96034,0.21463
3426.88881,0.21809
3428.81728,0.21840
3430.74574,0.21916
3432.67421,0.21855
3434.60268,0.21008
3436.53115,0.20118
3438.45962,0.19967
3440.38809,0.20324
3442.31656,0.20826
3444.24503,0.21102
3446.17349,0.21027
3448.10196,0.20783
3450.03043,0.20830
3451.95890,0.20979
3453.88737,0.20653
3455.81584,0.20275
3457.74431,0.20145
3459.67277,0.20270
3461.60124,0.20756
3463.52971,0.20873
3465.45818,0.20357
3467.38665,0.19951
3469.31512,0.19749
3471.24359,0.19562
3473.17206,0.19608
3475.10052,0.19827
3477.02899,0.20003
3478.95746,0.20127
3480.88593,0.20241
3482.81440,0.20042
3484.74287,0.19728
3486.67134,0.20199
3488.59980,0.20822
3490.52827,0.20256
3492.45674,0.19172
3494.38521,0.18886
3496.31368,0.19259
3498.24215,0.19244
3500.17062,0.18779
3502.09909,0.18775
3504.02755,0.19103
3505.95602,0.18959
3507.88449,0.18764
3509.81296,0.19002
3511.74143,0.19317
3513.66990,0.19217
3515.59837,0.18883
3517.52683,0.18852
3519.45530,0.19235
3521.38377,0.19711
3523.31224,0.19685
3525.24071,0.19243
3527.16918,0.18850
3529.09765,0.18328
3531.02611,0.17896
3532.95458,0.17827
3534.88305,0.17829
3536.81152,0.17586
3538.73999,0.17396
3540.66846,0.17993
3542.59693,0.18963
3544.52540,0.19304
3546.45386,0.19082
3548.38233,0.18871
3550.31080,0.18822
3552.23927,0.18557
3554.16774,0.17854
3556.09621,0.17233
3558.02468,0.16973
3559.95314,0.17007
3561.88161,0.17348
3563.81008,0.18013
3565.73855,0.18388
3567.66702,0.17824
3569.59549,0.17226
3571.52396,0.16871
3573.45243,0.16585
3575.38089,0.16645
3577.30936,0.16922
3579.23783,0.17129
3581.16630,0.17103
3583.09477,0.16912
3585.02324,0.16978
3586.95171,0.17336
3588.88017,0.17291
3590.80864,0.16966
3592.73711,0.16736
3594.66558,0.16309
3596.59405,0.16240
3598.52252,0.16935
3600.45099,0.16951
3602.37946,0.15943
3604.30792,0.15490
3606.23639,0.16247
3608.16486,0.17562
3610.09333,0.18432
3612.02180,0.18661
3613.95027,0.17836
3615.87874,0.16356
3617.80720,0.15647
3619.73567,0.15730
3621.66414,0.15947
3623.59261,0.16491
3625.52108,0.17526
3627.44955,0.18869
3629.37802,0.18738
3631.30649,0.16398
3633.23495,0.14502
3635.16342,0.14012
3637.09189,0.14412
3639.02036,0.14508
3640.94883,0.14242
3642.87730,0.14320
3644.80577,0.15008
3646.73423,0.16736
3648.66270,0.19113
3650.59117,0.18549
3652.51964,0.16534
3654.44811,0.15805
3656.37658,0.15471
3658.30505,0.14641
3660.23352,0.14080
3662.16198,0.13884
3664.09045,0.13546
3666.01892,0.13313
3667.94739,0.13909
3669.87586,0.15351
3671.80433,0.16566
3673.73280,0.17951
3675.66126,0.18964
3677.58973,0.17471
3679.51820,0.15603
3681.44667,0.14287
3683.37514,0.13237
3685.30361,0.12921
3687.23208,0.13944
3689.16055,0.15608
3691.08901,0.15518
3693.01748,0.14262
3694.94595,0.13411
3696.87442,0.13135
3698.80289,0.13569
3700.73136,0.14517
3702.65983,0.14782
3704.58829,0.13855
3706.51676,0.12880
3708.44523,0.13104
3710.37370,0.14924
3712.30217,0.16032
3714.23064,0.15151
3716.15911,0.14099
3718.08757,0.13662
3720.01604,0.14235
3721.94451,0.15187
3723.87298,0.15256
3725.80145,0.14692
3727.72992,0.14225
3729.65839,0.14293
3731.58686,0.15451
3733.51532,0.17634
3735.44379,0.18918
3737.37226,0.18144
3739.30073,0.17070
3741.22920,0.16577
3743.15767,0.16607
3745.08614,0.16335
3747.01460,0.15732
3748.94307,0.16307
3750.87154,0.16994
3752.80001,0.15667
3754.72848,0.14611
3756.65695,0.14830
3758.58542,0.15587
3760.51389,0.15350
3762.44235,0.14040
3764.37082,0.12912
3766.29929,0.12531
3768.22776,0.13141
3770.15623,0.14373
3772.08470,0.14726
3774.01317,0.14168
3775.94163,0.13835
3777.87010,0.13855
3779.79857,0.13718
3781.72704,0.13601
3783.65551,0.13742
3785.58398,0.13665
3787.51245,0.13211
3789.44092,0.12991
3791.36938,0.13140
3793.29785,0.13276
3795.22632,0.13473
3797.15479,0.13937
3799.08326,0.14219
3801.01173,0.13667
3802.94020,0.12925
3804.86866,0.13564
3806.79713,0.14697
3808.72560,0.14285
3810.65407,0.13046
3812.58254,0.12367
3814.51101,0.12523
3816.43948,0.13408
3818.36795,0.14054
3820.29641,0.14107
3822.22488,0.13679
3824.15335,0.13256
3826.08182,0.12954
3828.01029,0.12756
3829.93876,0.12910
3831.86723,0.13152
3833.79569,0.13228
3835.72416,0.13525
3837.65263,0.13907
3839.58110,0.13570
3841.50957,0.13369
3843.43804,0.13770
3845.36651,0.13799
3847.29498,0.13441
3849.22344,0.13546
3851.15191,0.14580
3853.08038,0.15506
3855.00885,0.14334
3856.93732,0.12815
3858.86579,0.11699
3860.79426,0.11476
3862.72272,0.12368
3864.65119,0.13035
3866.57966,0.13023
3868.50813,0.13263
3870.43660,0.13484
3872.36507,0.13315
3874.29354,0.12437
3876.22200,0.11117
3878.15047,0.11231
3880.07894,0.13043
3882.00741,0.14272
3883.93588,0.13731
3885.86435,0.12094
3887.79282,0.10774
3889.72129,0.10454
3891.64975,0.11039
3893.57822,0.11937
3895.50669,0.12035
3897.43516,0.11712
3899.36363,0.12111
3901.29210,0.13047
3903.22057,0.13243
3905.14903,0.12832
3907.07750,0.12022
3909.00597,0.10976
3910.93444,0.10353
3912.86291,0.10513
3914.79138,0.11284
3916.71985,0.12089
3918.64832,0.12192
3920.57678,0.11789
3922.50525,0.11406
3924.43372,0.10939
3926.36219,0.10636
3928.29066,0.10978
3930.21913,0.11261
3932.14760,0.10907
3934.07606,0.10588
3936.00453,0.10375
3937.93300,0.10041
3939.86147,0.09839
3941.78994,0.09507
3943.71841,0.09178
3945.64688,0.09910
3947.57535,0.11303
3949.50381,0.12089
3951.43228,0.12171
3953.36075,0.12140
3955.28922,0.12249
3957.21769,0.12262
3959.14616,0.11806
3961.07463,0.11141
3963.00309,0.11065
3964.93156,0.11694
3966.86003,0.12020
3968.78850,0.11830
3970.71697,0.11861
3972.64544,0.11970
3974.57391,0.11510
3976.50238,0.10709
3978.43084,0.10365
3980.35931,0.10677
3982.28778,0.10988
3984.21625,0.10735
3986.14472,0.10309
3988.07319,0.09918
3990.00166,0.09221
3991.93012,0.08747
3993.85859,0.09015
3995.78706,0.09525
3997.71553,0.09952
3999.64400,0.09882
4001.57247,0.09081
4003.50094,0.08688
4005.42941,0.09333
4007.35787,0.10383
4009.28634,0.11232
4011.21481,0.11368
4013.14328,0.10989
4015.07175,0.10366
4017.00022,0.09383
4018.92869,0.08731
4020.85715,0.08747
4022.78562,0.08907
4024.71409,0.08854
4026.64256,0.08342
4028.57103,0.07929
4030.49950,0.08265
4032.42797,0.08904
4034.35644,0.09369
4036.28490,0.09559
4038.21337,0.09541
4040.14184,0.09471
4042.07031,0.09392
4043.99878,0.09607
4045.92725,0.10104
4047.85572,0.09943
4049.78418,0.08920
4051.71265,0.08327
4053.64112,0.08485
4055.56959,0.08165
4057.49806,0.07457
4059.42653,0.07707
4061.35500,0.08667
4063.28346,0.09036
4065.21193,0.08767
4067.14040,0.08551
4069.06887,0.08391
4070.99734,0.08201
4072.92581,0.08275
4074.85428,0.08373
4076.78275,0.08428
4078.71121,0.08808
4080.63968,0.09016
4082.56815,0.08595
4084.49662,0.08105
4086.42509,0.08304
4088.35356,0.08863
4090.28203,0.08843
4092.21049,0.08484
4094.13896,0.08225
4096.06743,0.07772
4097.99590,0.07442
4099.92437,0.07855
4101.85284,0.08523
4103.78131,0.08509
4105.70978,0.07894
4107.63824,0.07524
4109.56671,0.07788
4111.49518,0.08059
4113.42365,0.07478
4115.35212,0.06553
4117.28059,0.06539
4119.20906,0.07253
4121.13752,0.07894
4123.06599,0.08291
4124.99446,0.08035
4126.92293,0.07315
4128.85140,0.07373
4130.77987,0.07926
4132.70834,0.07722
4134.63681,0.07339
4136.56527,0.07284
4138.49374,0.06969
4140.42221,0.06483
4142.35068,0.06142
4144.27915,0.06308
4146.20762,0.06904
4148.13609,0.07566
4150.06455,0.08376
4151.99302,0.08535
4153.92149,0.07788
4155.84996,0.07326
4157.77843,0.07290
4159.70690,0.07314
4161.63537,0.07482
4163.56384,0.07211
4165.49230,0.06405
4167.42077,0.06157
4169.34924,0.06647
4171.27771,0.06859
4173.20618,0.06227
4175.13465,0.05409
4177.06312,0.05525
4178.99158,0.06326
4180.92005,0.06353
4182.84852,0.05732
4184.77699,0.05716
4186.70546,0.06212
4188.63393,0.06653
4190.56240,0.06618
4192.49087,0.06072
4194.41933,0.05676
4196.34780,0.05578
4198.27627,0.05640
4200.20474,0.05795
4202.13321,0.05911
4204.06168,0.06000
4205.99015,0.06092
4207.91861,0.06434
4209.84708,0.07154
4211.77555,0.07558
4213.70402,0.07036
4215.63249,0.06318
4217.56096,0.06164
4219.48943,0.05989
4221.41789,0.05326
4223.34636,0.04991
4225.27483,0.05359
4227.20330,0.05512
4229.13177,0.05555
4231.06024,0.06067
4232.98871,0.06211
4234.91718,0.05587
4236.84564,0.04903
4238.77411,0.04579
4240.70258,0.04581
4242.63105,0.04882
4244.55952,0.05364
4246.48799,0.05694
4248.41646,0.05763
4250.34492,0.05462
4252.27339,0.04873
4254.20186,0.04671
4256.13033,0.05187
4258.05880,0.05666
4259.98727,0.05370
4261.91574,0.05054
4263.84421,0.05479
4265.77267,0.06060
4267.70114,0.05964
4269.62961,0.05003
4271.55808,0.03941
4273.48655,0.03362
4275.41502,0.03352
4277.34349,0.04305
4279.27195,0.05378
4281.20042,0.05194
4283.12889,0.04405
4285.05736,0.03977
4286.98583,0.04140
4288.91430,0.04658
4290.84277,0.04578
4292.77124,0.04011
4294.69970,0.03557
4296.62817,0.03405
4298.55664,0.03945
4300.48511,0.04619
4302.41358,0.04668
4304.34205,0.04513
4306.27052,0.04654
4308.19898,0.04864
4310.12745,0.04952
4312.05592,0.05015
4313.98439,0.04739
4315.91286,0.04125
4317.84133,0.03833
4319.76980,0.03593
4321.69827,0.02664
4323.62673,0.01852
4325.55520,0.02505
4327.48367,0.03888
4329.41214,0.04345
4331.34061,0.04246
4333.26908,0.04231
4335.19755,0.03814
4337.12601,0.03236
4339.05448,0.03105
4340.98295,0.03084
4342.91142,0.02843
4344.83989,0.02865
4346.76836,0.03087
4348.69683,0.02949
4350.62530,0.02517
4352.55376,0.02419
4354.48223,0.03164
4356.41070,0.03708
4358.33917,0.03102
4360.26764,0.02688
4362.19611,0.03333
4364.12458,0.03734
4366.05304,0.03368
4367.98151,0.03356
4369.90998,0.03647
4371.83845,0.03246
4373.76692,0.02172
4375.69539,0.01454
4377.62386,0.02020
4379.55232,0.02988
4381.48079,0.02853
4383.40926,0.02142
4385.33773,0.02032
4387.26620,0.02362
4389.19467,0.02540
4391.12314,0.02443
4393.05161,0.02051
4394.98007,0.01327
4396.90854,0.00639
4398.83701,0.00538
4400.76548,0.01424
4402.69395,0.02519
4404.62242,0.02488
4406.55089,0.02180
4408.47935,0.02613
4410.40782,0.02648
4412.33629,0.01898
4414.26476,0.01459
4416.19323,0.01262
4418.12170,0.00766
4420.05017,0.00905
4421.97864,0.02420
4423.90710,0.03904
4425.83557,0.03456
4427.76404,0.01470
4429.69251,-0.00102
4431.62098,-0.00367
4433.54945,0.00135
4435.47792,0.00898
4437.40638,0.02052
4439.33485,0.02563
4441.26332,0.01410
4443.19179,0.00425
4445.12026,0.01067
4447.04873,0.01934
4448.97720,0.01724
4450.90567,0.00606
4452.83413,-0.00426
4454.76260,-0.00328
4456.69107,0.00917
4458.61954,0.02255
4460.54801,0.02371
4462.47648,0.01483
4464.40495,0.00917
4466.33341,0.00839
4468.26188,0.00760
4470.19035,0.00358
4472.11882,-0.00269
4474.04729,-0.00439
4475.97576,-0.00203
4477.90423,-0.00133
4479.83270,-0.00291
4481.76116,-0.00412
4483.68963,-0.00244
4485.61810,0.00194
4487.54657,0.00746
4489.47504,0.00672
4491.40351,-0.00117
4493.33198,-0.00139
4495.26044,0.00665
4497.18891,0.01090
4499.11738,0.01053
4501.04585,0.01032
4502.97432,0.01358
4504.90279,0.01805
4506.83126,0.01238
4508.75973,-0.00223
4510.68819,-0.00523
4512.61666,0.00514
4514.54513,0.01132
4516.47360,0.00936
4518.40207,0.00598
4520.33054,0.00601
4522.25901,0.00920
4524.18747,0.00874
4526.11594,0.00567
4528.04441,0.00873
4529.97288,0.01342
4531.90135,0.01710
4533.82982,0.02311
4535.75829,0.02406
4537.68676,0.01856
4539.61522,0.01034
4541.54369,0.00167
4543.47216,-0.00229
4545.40063,-0.00466
4547.32910,-0.00849
4549.25757,-0.00990
4551.18604,-0.00888
4553.11450,-0.00511
4555.04297,0.00069
4556.97144,0.00143
4558.89991,0.00021
4560.82838,0.00274
4562.75685,0.00217
4564.68532,-0.00279
4566.61378,-0.00692
4568.54225,-0.00807
4570.47072,-0.00328
4572.39919,0.00631
4574.32766,0.01249
4576.25613,0.01344
4578.18460,0.01973
4580.11307,0.02447
4582.04153,0.01086
4583.97000,-0.00422
4585.89847,0.00259
4587.82694,0.01773
4589.75541,0.01594
4591.68388,0.00061
4593.61235,-0.00699
4595.54081,0.00093
4597.46928,0.01307
4599.39775,0.01980
4601.32622,0.02011
4603.25469,0.00812
4605.18316,-0.00501
4607.11163,0.00216
4609.04010,0.01726
4610.96856,0.01838
4612.89703,0.00657
4614.82550,-0.00598
4616.75397,-0.00993
4618.68244,-0.00109
4620.61091,0.01337
4622.53938,0.01696
4624.46784,0.00904
4626.39631,0.00657
4628.32478,0.01444
4630.25325,0.02043
4632.18172,0.01247
4634.11019,-0.00400
4636.03866,-0.01088
4637.96713,-0.00569
4639.89559,0.00206
4641.82406,0.00300
4643.75253,-0.00307
4645.68100,-0.00180
4647.60947,0.00556
4649.53794,0.00502
4651.46641,0.00247
4653.39487,0.00720
4655.32334,0.01171
4657.25181,0.01386
4659.18028,0.01787
4661.10875,0.01599
4663.03722,0.00366
4664.96569,-0.01451
4666.89416,-0.02676
4668.82262,-0.02061
4670.75109,-0.00115
4672.67956,0.01468
4674.60803,0.01170
4676.53650,-0.00276
4678.46497,-0.00670
4680.39344,-0.00346
4682.32190,-0.00398
4684.25037,-0.00134
4686.17884,0.00832
4688.10731,0.01612
4690.03578,0.01682
4691.96425,0.01787
4693.89272,0.02128
4695.82119,0.02091
4697.74965,0.01654
4699.67812,0.01108
4701.60659,0.01308
4703.53506,0.02651
4705.46353,0.04052
4707.39200,0.04202
4709.32047,0.02695
4711.24893,0.00978
4713.17740,0.00110
4715.10587,-0.00217
4717.03434,0.00459
4718.96281,0.01284
4720.89128,0.00590
4722.81975,-0.00313
4724.74821,-0.00059
4726.67668,0.00570
4728.60515,0.01718
4730.53362,0.02807
4732.46209,0.01988
4734.39056,0.00050
4736.31903,-0.00840
4738.24750,-0.00128
4740.17596,0.00782
4742.10443,0.00170
4744.03290,-0.01208
4745.96137,-0.01401
4747.88984,-0.00678
4749.81831,-0.00487
4751.74678,-0.00596
4753.67524,-0.00481
4755.60371,-0.00195
4757.53218,0.00763
4759.46065,0.02271
4761.38912,0.03207
4763.31759,0.02745
4765.24606,0.00971
4767.17453,-0.00560
4769.10299,-0.00425
4771.03146,0.00047
4772.95993,-0.00334
4774.88840,-0.00607
4776.81687,-0.00681
4778.74534,-0.01174
4780.67381,-0.01613
4782.60227,-0.01258
4784.53074,-0.00109
4786.45921,0.01406
4788.38768,0.02437
4790.31615,0.02405
4792.24462,0.01598
4794.17309,0.00246
4796.10156,-0.00911
4798.03002,-0.00938
4799.95849,-0.00255
4801.88696,0.00453
4803.81543,0.01226
4805.74390,0.01532
4807.67237,0.00868
4809.60084,0.00503
4811.52930,0.01181
4813.45777,0.01544
4815.38624,0.00643
4817.31471,-0.00717
4819.24318,-0.01494
4821.17165,-0.01360
4823.10012,-0.00490
4825.02859,0.00374
4826.95705,0.01020
4828.88552,0.01846
4830.81399,0.01873
4832.74246,0.00807
4834.67093,0.00611
4836.59940,0.01418
4838.52787,0.01772
4840.45633,0.01736
4842.38480,0.01678
4844.31327,0.02030
4846.24174,0.02478
4848.17021,0.01761
4850.09868,0.01099
4852.02715,0.01563
4853.95562,0.01531
4855.88408,0.00762
4857.81255,-0.00006
4859.74102,-0.00948
4861.66949,-0.01497
4863.59796,-0.00557
4865.52643,0.01480
4867.45490,0.02323
4869.38336,0.00608
4871.31183,-0.01577
4873.24030,-0.01846
4875.16877,-0.00404
4877.09724,0.01486
4879.02571,0.02149
4880.95418,0.01473
4882.88265,0.01863
4884.81111,0.03297
4886.73958,0.02934
4888.66805,0.00070
4890.59652,-0.01986
4892.52499,-0.00625
4894.45346,0.01979
4896.38193,0.03488
4898.31039,0.03832
4900.23886,0.02521
4902.16733,0.00156
4904.09580,-0.00723
4906.02427,0.00569
4907.95274,0.02217
4909.88121,0.02754
4911.80967,0.02315
4913.73814,0.01437
4915.66661,0.00388
4917.59508,-0.00120
4919.52355,0.00460
4921.45202,0.01649
4923.38049,0.02488
4925.30896,0.03016
4927.23742,0.03490
4929.16589,0.03125
4931.09436,0.01583
4933.02283,-0.00015
4934.95130,-0.00321
4936.87977,0.00713
4938.80824,0.01605
4940.73670,0.00802
4942.66517,-0.00635
4944.59364,-0.00625
4946.52211,0.00143
4948.45058,0.00293
4950.37905,0.00181
4952.30752,0.00530
4954.23599,0.01400
4956.16445,0.01842
4958.09292,0.01765
4960.02139,0.01283
4961.94986,-0.00547
4963.87833,-0.02276
4965.80680,-0.02490
4967.73527,-0.02185
4969.66373,-0.01754
4971.59220,-0.01074
4973.52067,-0.00168
4975.44914,0.00569
4977.37761,0.01036
4979.30608,0.01681
4981.23455,0.02125
4983.16302,0.02144
4985.09148,0.02245
4987.01995,0.02307
4988.94842,0.02153
4990.87689,0.01640
4992.80536,0.00636
4994.73383,0.00113
4996.66230,-0.00219
4998.59076,-0.01043
5000.51923,-0.00925
5002.44770,-0.00307
5004.37617,-0.00509
5006.30464,-0.00460
5008.23311,-0.00778
5010.16158,-0.02622
5012.09005,-0.03283
5014.01851,-0.01357
5015.94698,0.00832
5017.87545,0.01322
5019.80392,0.00164
5021.73239,-0.00697
5023.66086,0.00089
5025.58933,0.01654
5027.51779,0.02482
5029.44626,0.01396
5031.37473,-0.00828
5033.30320,-0.02020
5035.23167,-0.01419
5037.16014,0.00160
5039.08861,0.01162
5041.01708,0.01215
5042.94554,0.01752
5044.87401,0.02464
5046.80248,0.02399
5048.73095,0.01498
5050.65942,-0.00120
5052.58789,-0.01075
5054.51636,-0.00935
5056.44482,-0.00813
5058.37329,-0.01077
5060.30176,-0.01488
5062.23023,-0.01405
5064.15870,-0.00672
5066.08717,0.00462
5068.01564,0.01890
5069.94410,0.03090
5071.87257,0.03483
5073.80104,0.02884
5075.72951,0.01948
5077.65798,0.01657
5079.58645,0.01028
5081.51492,-0.00796
5083.44339,-0.01652
5085.37185,-0.00864
5087.30032,-0.00242
5089.22879,0.00154
5091.15726,0.00846
5093.08573,0.00783
5095.01420,-0.00128
5096.94267,-0.00435
5098.87113,0.00198
5100.79960,0.01373
5102.72807,0.02911
5104.65654,0.03560
5106.58501,0.02661
5108.51348,0.02035
5110.44195,0.02859
5112.37042,0.03275
5114.29888,0.02861
5116.22735,0.02894
5118.15582,0.02098
5120.08429,0.00906
5122.01276,0.01408
5123.94123,0.02354
5125.86970,0.02208
5127.79816,0.01098
5129.72663,-0.00306
5131.65510,-0.00766
5133.58357,0.00525
5135.51204,0.02016
5137.44051,0.02087
5139.36898,0.02251
5141.29745,0.02581
5143.22591,0.01118
5145.15438,-0.00452
5147.08285,0.00764
5149.01132,0.03095
5150.93979,0.02909
5152.86826,0.01243
5154.79673,0.00719
5156.72519,0.01460
5158.65366,0.03874
5160.58213,0.07022
5162.51060,0.08234
5164.43907,0.06845
5166.36754,0.05019
5168.29601,0.04450
5170.22448,0.04350
5172.15294,0.04601
5174.08141,0.05601
5176.00988,0.05565
5177.93835,0.03643
5179.86682,0.00604
5181.79529,-0.02809
5183.72376,-0.03862
5185.65222,-0.00827
5187.58069,0.01992
5189.50916,0.02105
5191.43763,0.02896
5193.36610,0.04702
5195.29457,0.04261
5197.22304,0.01376
5199.15151,-0.00520
5201.07997,0.01224
5203.00844,0.04501
5204.93691,0.05100
5206.86538,0.02719
5208.79385,0.01440
5210.72232,0.02314
5212.65079,0.02863
5214.57925,0.01935
5216.50772,0.01131
5218.43619,0.01622
5220.36466,0.02317
5222.29313,0.02841
5224.22160,0.03359
5226.15007,0.02621
5228.07854,0.00702
5230.00700,0.00293
5231.93547,0.01284
5233.86394,0.00296
5235.79241,-0.01258
5237.72088,-0.00140
5239.64935,0.01071
5241.57782,0.01135
5243.50628,0.02468
5245.43475,0.03835
5247.36322,0.03621
5249.29169,0.03370
5251.22016,0.03662
5253.14863,0.04790
5255.07710,0.05975
5257.00556,0.03998
5258.93403,0.00685
5260.86250,0.01211
5262.79097,0.03153
5264.71944,0.01879
5266.64791,0.01482
5268.57638,0.04045
5270.50485,0.04433
5272.43331,0.01692
5274.36178,0.01114
5276.29025,0.03567
5278.21872,0.05471
5280.14719,0.05259
5282.07566,0.04041
5284.00413,0.03452
5285.93259,0.03615
5287.86106,0.03195
5289.78953,0.02098
5291.71800,0.03066
5293.64647,0.06477
5295.57494,0.09289
5297.50341,0.08084
5299.43188,0.02548
5301.36034,-0.00144
5303.28881,0.03073
5305.21728,0.06188
5307.14575,0.06494
5309.07422,0.06429
5311.00269,0.06954
5312.93116,0.06033
5314.85962,0.04127
5316.78809,0.02743
5318.71656,0.01688
5320.64503,0.01323
5322.57350,0.01502
5324.50197,0.01882
5326.43044,0.02968
5328.35891,0.05563
5330.28737,0.07250
5332.21584,0.05613
5334.14431,0.03538
5336.07278,0.03505
5338.00125,0.03480
5339.92972,0.01068
5341.85819,-0.01639
5343.78665,-0.00819
5345.71512,0.04212
5347.64359,0.08275
5349.57206,0.09092
5351.50053,0.08634
5353.42900,0.07104
5355.35747,0.05051
5357.28594,0.03154
5359.21440,0.00971
5361.14287,0.00433
5363.07134,0.01282
5364.99981,0.01503
5366.92828,0.03104
5368.85675,0.06964
5370.78522,0.09461
5372.71368,0.08501
5374.64215,0.06488
5376.57062,0.06563
5378.49909,0.07203
5380.42756,0.06029
5382.35603,0.04841
5384.28450,0.05529
5386.21297,0.06852
5388.14143,0.06985
5390.06990,0.06732
5391.99837,0.06141
5393.92684,0.04163
5395.85531,0.03089
5397.78378,0.05613
5399.71225,0.08942
5401.64071,0.09313
5403.56918,0.06477
5405.49765,0.01338
5407.42612,-0.02769
5409.35459,-0.02292
5411.28306,0.00100
5413.21153,0.01198
5415.13999,0.02511
5417.06846,0.04260
5418.99693,0.04993
5420.92540,0.04465
5422.85387,0.03983
5424.78234,0.05235
5426.71081,0.06213
5428.63928,0.04121
5430.56774,0.01355
5432.49621,0.00222
5434.42468,0.00286
5436.35315,0.00572
5438.28162,0.01537
5440.21009,0.03793
5442.13856,0.05982
5444.06702,0.07736
5445.99549,0.10137
5447.92396,0.11903
5449.85243,0.10802
5451.78090,0.09481
5453.70937,0.09202
5455.63784,0.08494
5457.56631,0.09003
5459.49477,0.10123
5461.42324,0.08851
5463.35171,0.07042
5465.28018,0.08695
5467.20865,0.10710
5469.13712,0.07446
5471.06559,0.02697
5472.99405,0.01643
5474.92252,0.02678
5476.85099,0.03795
5478.77946,0.04769
5480.70793,0.04602
5482.63640,0.03141
5484.56487,0.02030
5486.49334,0.02911
5488.42180,0.05541
5490.35027,0.07590
5492.27874,0.06880
5494.20721,0.04769
5496.13568,0.05837
5498.06415,0.09839
5499.99262,0.11459
5501.92108,0.07479
5503.84955,0.02644
5505.77802,0.02750
5507.70649,0.05240
5509.63496,0.06710
5511.56343,0.07998
5513.49190,0.07775
5515.42037,0.06405
5517.34883,0.06486
5519.27730,0.08157
5521.20577,0.10987
5523.13424,0.12170
5525.06271,0.09976
5526.99118,0.08664
5528.91965,0.09401
5530.84811,0.09836
5532.77658,0.08786
5534.70505,0.05939
5536.63352,0.02615
5538.56199,0.01323
5540.49046,0.03099
5542.41893,0.04232
5544.34740,0.02584
5546.27586,0.01293
5548.20433,0.02131
5550.13280,0.04551
5552.06127,0.06830
5553.98974,0.07666
5555.91821,0.07766
5557.84668,0.07983
5559.77514,0.07333
5561.70361,0.05187
5563.63208,0.04075
5565.56055,0.04805
5567.48902,0.04533
5569.41749,0.03728
5571.34596,0.05938
5573.27443,0.10982
5575.20289,0.13733
5577.13136,0.11483
5579.05983,0.07720
5580.98830,0.06904
5582.91677,0.08851
5584.84524,0.09211
5586.77371,0.07574
5588.70217,0.06642
5590.63064,0.07801
5592.55911,0.10411
5594.48758,0.09924
5596.41605,0.05069
5598.34452,0.01030
5600.27299,0.00275
5602.20145,0.01788
5604.12992,0.04533
5606.05839,0.07287
5607.98686,0.08545
5609.91533,0.07875
5611.84380,0.06122
5613.77227,0.04296
5615.70074,0.05185
5617.62920,0.09669
5619.55767,0.12298
5621.48614,0.10577
5623.41461,0.08976
5625.34308,0.08517
5627.27155,0.07160
5629.20002,0.06518
5631.12848,0.07304
5633.05695,0.07594
5634.98542,0.07375
5636.91389,0.07272
5638.84236,0.08321
5640.77083,0.11841
5642.69930,0.14036
5644.62777,0.10916
5646.55623,0.05912
5648.48470,0.04360
5650.41317,0.06232
5652.34164,0.08444
5654.27011,0.09407
5656.19858,0.10125
5658.12705,0.11541
5660.05551,0.11837
5661.98398,0.08576
5663.91245,0.04916
5665.84092,0.04779
5667.76939,0.05476
5669.69786,0.04497
5671.62633,0.02825
5673.55480,0.02555
5675.48326,0.05474
5677.41173,0.07961
5679.34020,0.04014
5681.26867,-0.02760
5683.19714,-0.03826
5685.12561,0.01454
5687.05408,0.08223
5688.98254,0.10962
5690.91101,0.08352
5692.83948,0.06039
5694.76795,0.08051
5696.69642,0.12667
5698.62489,0.14018
5700.55336,0.10739
5702.48183,0.07937
5704.41029,0.05619
5706.33876,0.03642
5708.26723,0.06125
5710.19570,0.09384
5712.12417,0.07290
5714.05264,0.05628
5715.98111,0.09671
5717.90957,0.11865
5719.83804,0.08710
5721.76651,0.06805
5723.69498,0.08422
5725.62345,0.11184
5727.55192,0.12245
5729.48039,0.08750
5731.40886,0.03241
5733.33732,0.00667
5735.26579,0.01596
5737.19426,0.02757
5739.12273,0.03575
5741.05120,0.04998
5742.97967,0.06116
5744.90814,0.07294
5746.83660,0.09183
5748.76507,0.10968
5750.69354,0.11126
5752.62201,0.08645
5754.55048,0.05376
5756.47895,0.05190
5758.40742,0.07431
5760.33588,0.07883
5762.26435,0.06784
5764.19282,0.07024
5766.12129,0.07976
5768.04976,0.07969
5769.97823,0.08114
5771.90670,0.08917
5773.83517,0.09068
5775.76363,0.08280
5777.69210,0.05978
5779.62057,0.02378
5781.54904,0.00723
5783.47751,0.03872
5785.40598,0.09579
5787.33445,0.11809
5789.26291,0.10444
5791.19138,0.11145
5793.11985,0.13011
5795.04832,0.11018
5796.97679,0.08525
5798.90526,0.09130
5800.83373,0.08598
5802.76220,0.05443
5804.69066,0.02088
5806.61913,0.01495
5808.54760,0.05081
5810.47607,0.08704
5812.40454,0.07928
5814.33301,0.05260
5816.26148,0.04841
5818.18994,0.05209
5820.11841,0.04651
5822.04688,0.04804
5823.97535,0.05778
5825.90382,0.06418
5827.83229,0.07288
5829.76076,0.08626
5831.68923,0.08474
5833.61769,0.06744
5835.54616,0.04413
5837.47463,0.02427
5839.40310,0.04079
5841.33157,0.08214
5843.26004,0.08965
5845.18851,0.04946
5847.11697,-0.00013
5849.04544,-0.00321
5850.97391,0.04367
5852.90238,0.06792
5854.83085,0.04547
5856.75932,0.01847
5858.68779,0.02225
5860.61626,0.05876
5862.54472,0.09610
5864.47319,0.11205
5866.40166,0.11549
5868.33013,0.10648
5870.25860,0.09494
5872.18707,0.10153
5874.11554,0.12095
5876.04400,0.13799
5877.97247,0.13035
5879.90094,0.06710
5881.82941,0.00409
5883.75788,0.02648
5885.68635,0.08608
5887.61482,0.11970
5889.54329,0.14884
5891.47175,0.17786
5893.40022,0.16092
5895.32869,0.08350
5897.25716,0.02359
5899.18563,0.04006
5901.11410,0.06602
5903.04257,0.05116
5904.97103,0.05408
5906.89950,0.10388
5908.82797,0.15050
5910.75644,0.15626
5912.68491,0.14639
5914.61338,0.14237
5916.54185,0.12091
5918.47032,0.08161
5920.39878,0.05922
5922.32725,0.07937
5924.25572,0.10840
5926.18419,0.07789
5928.11266,0.01458
5930.04113,-0.00101
5931.96960,0.02907
5933.89806,0.05686
5935.82653,0.08358
5937.75500,0.10882
5939.68347,0.09324
5941.61194,0.05958
5943.54041,0.05336
5945.46888,0.05218
5947.39734,0.04594
5949.32581,0.07583
5951.25428,0.12152
5953.18275,0.10994
5955.11122,0.06694
5957.03969,0.06067
5958.96816,0.06470
5960.89663,0.00964
5962.82509,-0.06027
5964.75356,-0.06975
5966.68203,-0.02806
5968.61050,0.02668
5970.53897,0.06264
5972.46744,0.07764
5974.39591,0.07990
5976.32437,0.05878
5978.25284,0.04003
5980.18131,0.05008
5982.10978,0.07916
5984.03825,0.11536
5985.96672,0.11545
5987.89519,0.06580
5989.82366,0.05316
5991.75212,0.09060
5993.68059,0.08569
5995.60906,0.03323
5997.53753,-0.00214
5999.46600,-0.01366
6001.39447,-0.01628
6003.32294,-0.02501
6005.25140,-0.03411
6007.17987,-0.02221
6009.10834,0.01857
6011.03681,0.07551
6012.96528,0.08807
6014.89375,0.04428
6016.82222,0.02147
6018.75069,0.06480
6020.67915,0.11106
6022.60762,0.10734
6024.53609,0.08673
6026.46456,0.07498
6028.39303,0.07268
6030.32150,0.08353
6032.24997,0.11217
6034.17843,0.14108
6036.10690,0.14303
6038.03537,0.11085
6039.96384,0.06171
6041.89231,0.06349
6043.82078,0.12191
6045.74925,0.15165
6047.67772,0.13620
6049.60618,0.09711
6051.53465,0.05998
6053.46312,0.06256
6055.39159,0.11045
6057.32006,0.17672
6059.24853,0.20371
6061.17700,0.16799
6063.10546,0.12224
6065.03393,0.09440
6066.96240,0.08434
6068.89087,0.08876
6070.81934,0.09162
6072.74781,0.10773
6074.67628,0.14454
6076.60475,0.15501
6078.53321,0.13045
6080.46168,0.13001
6082.39015,0.13532
6084.31862,0.09621
6086.24709,0.05146
6088.17556,0.05174
6090.10403,0.08058
6092.03249,0.08269
6093.96096,0.05351
6095.88943,0.03919
6097.81790,0.04444
6099.74637,0.04054
6101.67484,0.03667
6103.60331,0.05727
6105.53177,0.06759
6107.46024,0.05260
6109.38871,0.05417
6111.31718,0.03427
6113.24565,-0.04575
6115.17412,-0.08215
6117.10259,-0.02739
6119.03106,0.02696
6120.95952,0.03698
6122.88799,0.06027
6124.81646,0.11370
6126.74493,0.15282
6128.67340,0.15398
6130.60187,0.10999
6132.53034,0.06252
6134.45880,0.10090
6136.38727,0.17787
6138.31574,0.17020
6140.24421,0.11465
6142.17268,0.13039
6144.10115,0.18314
6146.02962,0.19933
6147.95809,0.20062
6149.88655,0.18022
6151.81502,0.11594
6153.74349,0.06553
6155.67196,0.08071
6157.60043,0.11855
6159.52890,0.10372
6161.45737,0.01177
6163.38583,-0.02722
6165.31430,0.06222
6167.24277,0.10300
6169.17124,0.02555
6171.09971,-0.04068
6173.02818,-0.02578
6174.95665,-0.01334
6176.88512,-0.04171
6178.81358,-0.03889
6180.74205,-0.01254
6182.67052,-0.02164
6184.59899,-0.02438
6186.52746,0.05714
6188.45593,0.16723
6190.38440,0.20141
6192.31286,0.19877
6194.24133,0.16873
6196.16980,0.09770
6198.09827,0.03907
6200.02674,0.01136
6201.95521,-0.00879
6203.88368,-0.02781
6205.81215,-0.03817
6207.74061,-0.04975
6209.66908,-0.05476
6211.59755,-0.01729
6213.52602,0.04310
6215.45449,0.08365
6217.38296,0.10717
6219.31143,0.13059
6221.23989,0.13076
6223.16836,0.09627
6225.09683,0.09185
6227.02530,0.12616
6228.95377,0.10280
6230.88224,0.02307
6232.81071,-0.04006
6234.73918,-0.06327
6236.66764,-0.02220
6238.59611,0.04096
6240.52458,0.07838
6242.45305,0.14896
6244.38152,0.20703
6246.30999,0.15977
6248.23846,0.08318
6250.16692,0.03500
6252.09539,0.01775
6254.02386,0.06519
6255.95233,0.08056
6257.88080,-0.02243
6259.80927,-0.07629
6261.73774,0.01027
6263.66621,0.08794
6265.59467,0.06360
6267.52314,0.02171
6269.45161,0.04665
6271.38008,0.11756
6273.30855,0.15430
6275.23702,0.11767
6277.16549,0.08777
6279.09395,0.08087
6281.02242,0.03777
6282.95089,0.00181
6284.87936,0.03237
6286.80783,0.10967
6288.73630,0.20382
6290.66477,0.25948
6292.59323,0.22676
6294.52170,0.16538
6296.45017,0.13316
6298.37864,0.09589
6300.30711,0.06515
6302.23558,0.08404
6304.16405,0.09736
6306.09252,0.08964
6308.02098,0.10212
6309.94945,0.09705
6311.87792,0.05992
6313.80639,0.05008
6315.73486,0.05914
6317.66333,0.02345
6319.59180,-0.00876
6321.52026,0.05436
6323.44873,0.11444
6325.37720,0.07126
6327.30567,0.02429
6329.23414,0.06687
6331.16261,0.11750
6333.09108,0.07617
6335.01955,0.01773
6336.94801,0.01495
6338.87648,0.06488
6340.80495,0.16077
6342.73342,0.18454
6344.66189,0.05620
6346.59036,-0.06798
6348.51883,-0.07270
6350.44729,-0.07166
6352.37576,-0.08636
6354.30423,-0.02180
6356.23270,0.09331
6358.16117,0.15947
6360.08964,0.15537
6362.01811,0.11660
6363.94658,0.04685
6365.87504,-0.00140
6367.80351,0.01357
6369.73198,0.04140
6371.66045,0.09121
6373.58892,0.12756
6375.51739,0.08786
6377.44586,0.05075
6379.37432,0.03670
6381.30279,0.01523
6383.23126,0.01917
6385.15973,0.04141
6387.08820,0.04189
6389.01667,0.03053
6390.94514,0.06642
6392.87361,0.15957
6394.80207,0.17907
6396.73054,0.12322
6398.65901,0.09363
6400.58748,0.07269
6402.51595,0.03825
6404.44442,0.01461
6406.37289,-0.00828
6408.30135,-0.02959
6410.22982,-0.03590
6412.15829,-0.04513
6414.08676,-0.05788
6416.01523,-0.02097
6417.94370,0.08137
6419.87217,0.11996
6421.80064,0.05824
6423.72910,0.02653
6425.65757,0.08861
6427.58604,0.16062
6429.51451,0.15608
6431.44298,0.13494
6433.37145,0.16450
6435.29992,0.18651
6437.22838,0.14484
6439.15685,0.07920
6441.08532,0.05640
6443.01379,0.04367
6444.94226,0.01973
6446.87073,0.04436
6448.79920,0.10663
6450.72766,0.10152
6452.65613,0.03115
6454.58460,0.01513
6456.51307,0.03840
6458.44154,0.02467
6460.37001,-0.00605
6462.29848,-0.02466
6464.22695,-0.02595
6466.15541,-0.01674
6468.08388,-0.01836
6470.01235,-0.02854
6471.94082,-0.02190
6473.86929,-0.03225
6475.79776,-0.08150
6477.72623,-0.09049
6479.65469,-0.04294
6481.58316,0.00279
6483.51163,0.03716
6485.44010,0.05562
6487.36857,0.06224
6489.29704,0.07545
6491.22551,0.08116
6493.15398,0.07942
6495.08244,0.09727
6497.01091,0.11604
6498.93938,0.08008
6500.86785,0.00582
6502.79632,0.01515
6504.72479,0.08052
6506.65326,0.09231
6508.58172,0.07288
6510.51019,0.09874
6512.43866,0.14910
6514.36713,0.13030
6516.29560,0.10289
6518.22407,0.11131
6520.15254,0.07380
6522.08101,0.02223
6524.00947,0.01755
6525.93794,0.02552
6527.86641,0.02636
6529.79488,0.05688
6531.72335,0.10597
6533.65182,0.12338
6535.58029,0.12036
6537.50875,0.12698
6539.43722,0.11126
6541.36569,0.06244
6543.29416,0.03275
6545.22263,0.03844
6547.15110,0.06447
6549.07957,0.07527
6551.00804,0.05711
6552.93650,0.04896
6554.86497,0.04601
6556.79344,0.07570
6558.72191,0.11056
6560.65038,0.07212
6562.57885,0.05615
6564.50732,0.12057
6566.43578,0.13659
6568.36425,0.06618
6570.29272,-0.01737
6572.22119,-0.06757
6574.14966,-0.03115
6576.07813,0.08556
6578.00660,0.15330
6579.93507,0.10411
6581.86353,0.08138
6583.79200,0.13487
6585.72047,0.10124
6587.64894,-0.02640
6589.57741,-0.11321
6591.50588,-0.11369
6593.43435,-0.07227
6595.36281,-0.05062
6597.29128,-0.06329
6599.21975,-0.06527
6601.14822,-0.00158
6603.07669,0.07684
6605.00516,0.09153
6606.93363,0.05134
6608.86210,-0.00096
6610.79056,0.01466
6612.71903,0.06561
6614.64750,0.03661
6616.57597,-0.01424
6618.50444,-0.00954
6620.43291,-0.02438
6622.36138,-0.07224
6624.28984,-0.04181
6626.21831,0.06084
6628.14678,0.08540
6630.07525,0.00877
6632.00372,-0.03825
6633.93219,-0.00068
6635.86066,0.11832
6637.78912,0.21013
6639.71759,0.16620
6641.64606,0.09461
6643.57453,0.09131
6645.50300,0.10511
6647.43147,0.10065
6649.35994,0.06657
6651.28841,0.03764
6653.21687,0.06692
6655.14534,0.14764
6657.07381,0.31428
6659.00228,0.45665
6660.93075,0.36224
6662.85922,0.16041
6664.78769,0.05593
6666.71615,0.03580
6668.64462,0.07969
6670.57309,0.14244
6672.50156,0.14891
6674.43003,0.14286
6676.35850,0.16348
6678.28697,0.13396
6680.21544,0.03554
6682.14390,-0.05540
6684.07237,-0.10318
6686.00084,-0.15199
6687.92931,-0.16853
6689.85778,-0.10093
6691.78625,-0.03445
6693.71472,-0.01454
6695.64318,-0.01067
6697.57165,0.01633
6699.50012,0.05362
6701.42859,0.05831
6703.35706,0.04111
6705.28553,0.02300
6707.21400,0.03426
6709.14247,0.11750
6711.07093,0.21804
6712.99940,0.26462
6714.92787,0.23058
6716.85634,0.12394
6718.78481,0.02263
6720.71328,-0.03756
6722.64175,-0.06934
6724.57021,-0.04187
6726.49868,0.01445
6728.42715,0.05931
6730.35562,0.11241
6732.28409,0.13281
6734.21256,0.11065
6736.14103,0.10873
6738.06950,0.10741
6739.99796,0.09528
6741.92643,0.10414
6743.85490,0.11344
6745.78337,0.07921
6747.71184,0.02928
6749.64031,0.07268
6751.56878,0.12930
6753.49724,0.05583
6755.42571,-0.05415
6757.35418,-0.08361
6759.28265,-0.01799
6761.21112,0.07495
6763.13959,0.08502
6765.06806,0.04095
6766.99653,0.03807
6768.92499,0.07977
6770.85346,0.10065
6772.78193,0.11789
6774.71040,0.19698
6776.63887,0.28552
6778.56734,0.28161
6780.49581,0.20870
6782.42427,0.13034
6784.35274,0.12501
6786.28121,0.17754
6788.20968,0.17501
6790.13815,0.09709
6792.06662,-0.00680
6793.99509,-0.06587
6795.92355,-0.05595
6797.85202,-0.00617
6799.78049,0.06807
6801.70896,0.07190
6803.63743,-0.03414
6805.56590,-0.03684
6807.49437,0.10496
6809.42284,0.18765
6811.35130,0.18335
6813.27977,0.22207
6815.20824,0.24517
6817.13671,0.17071
6819.06518,0.12063
6820.99365,0.16521
6822.92212,0.21680
6824.85058,0.15337
6826.77905,0.04440
6828.70752,0.01274
6830.63599,0.04001
6832.56446,0.04339
6834.49293,0.05838
6836.42140,0.09649
6838.34987,0.07123
6840.27833,-0.01391
6842.20680,-0.10803
6844.13527,-0.16533
6846.06374,-0.13628
6847.99221,-0.04100
6849.92068,0.01395
6851.84915,-0.00647
6853.77761,-0.06045
6855.70608,-0.13520
6857.63455,-0.12997
6859.56302,-0.01898
6861.49149,0.07553
6863.41996,0.07614
6865.34843,0.04644
6867.27690,0.04124
6869.20536,0.03561
6871.13383,0.04469
6873.06230,0.09591
6874.99077,0.09720
6876.91924,-0.01806
6878.84771,-0.11514
6880.77618,-0.11800
6882.70464,-0.16646
6884.63311,-0.17055
6886.56158,-0.01274
6888.49005,0.15722
6890.41852,0.18924
6892.34699,0.13930
6894.27546,0.15474
6896.20393,0.23032
6898.13239,0.25688
6900.06086,0.23203
6901.98933,0.24571
6903.91780,0.24525
6905.84627,0.12719
6907.77474,0.01217
6909.70321,0.01503
6911.63167,0.01890
6913.56014,-0.09835
6915.48861,-0.22668
6917.41708,-0.25592
6919.34555,-0.22528
6921.27402,-0.18430
6923.20249,-0.11014
6925.13096,0.02423
6927.05942,0.20437
6928.98789,0.36422
6930.91636,0.36679
6932.84483,0.24291
6934.77330,0.18885
6936.70177,0.13237
6938.63024,0.00815
6940.55870,-0.02030
6942.48717,0.04130
6944.41564,0.08987
6946.34411,0.16629
6948.27258,0.19479
6950.20105,0.14592
6952.12952,0.11533
6954.05799,0.09336
6955.98645,0.03176
6957.91492,0.00139
6959.84339,0.06968
6961.77186,0.19196
6963.70033,0.26075
6965.62880,0.24123
6967.55727,0.16010
6969.48573,0.10936
6971.41420,0.13762
6973.34267,0.08372
6975.27114,-0.05696
6977.19961,-0.02436
6979.12808,0.10500
6981.05655,0.12717
6982.98501,0.15732
6984.91348,0.29984
6986.84195,0.34193
6988.77042,0.24793
6990.69889,0.16687
6992.62736,0.14877
6994.55583,0.13332
6996.48430,0.05706
6998.41276,0.04668
7000.34123,0.08600
7002.26970,0.00085
7004.19817,-0.04010
7006.12664,0.03747
7008.05511,0.05393
7009.98358,-0.00296
7011.91204,-0.00905
7013.84051,0.05748
7015.76898,0.06555
7017.69745,-0.05600
7019.62592,-0.14438
7021.55439,-0.02759
7023.48286,0.15140
7025.41133,0.15693
7027.33979,0.04734
7029.26826,-0.02586
7031.19673,-0.05237
7033.12520,-0.03839
7035.05367,0.07286
7036.98214,0.19540
7038.91061,0.23056
7040.83907,0.21665
7042.76754,0.22795
7044.69601,0.31769
7046.62448,0.35753
7048.55295,0.26909
7050.48142,0.22255
7052.40989,0.22804
7054.33836,0.14933
7056.26682,0.05094
7058.19529,0.05952
7060.12376,0.09141
7062.05223,0.08058
7063.98070,0.03951
7065.90917,-0.04151
7067.83764,-0.09015
7069.76610,0.00658
7071.69457,0.15077
7073.62304,0.19721
7075.55151,0.16589
7077.47998,0.05651
7079.40845,-0.05084
7081.33692,0.03012
7083.26539,0.07576
7085.19385,-0.08815
7087.12232,-0.09013
7089.05079,0.14769
7090.97926,0.23680
7092.90773,0.23100
7094.83620,0.28801
7096.76467,0.23555
7098.69313,0.05036
7100.62160,-0.03213
7102.55007,-0.09576
7104.47854,-0.20287
7106.40701,-0.17659
7108.33548,-0.02749
7110.26395,0.09618
7112.19242,0.20182
7114.12088,0.23866
7116.04935,0.08987
7117.97782,-0.15579
7119.90629,-0.21861
7121.83476,-0.15297
7123.76323,-0.04920
7125.69170,0.10721
7127.62016,0.20566
7129.54863,0.16980
7131.47710,0.12038
7133.40557,0.14224
7135.33404,0.14788
7137.26251,0.08097
7139.19098,0.00925
7141.11944,0.00844
7143.04791,0.01835
7144.97638,-0.07380
7146.90485,-0.17659
7148.83332,-0.11688
7150.76179,0.06344
7152.69026,0.17788
7154.61873,0.15038
7156.54719,0.14538
7158.47566,0.15445
7160.40413,0.07387
7162.33260,-0.03517
7164.26107,-0.00298
7166.18954,0.16655
7168.11801,0.23602
7170.04647,0.22880
7171.97494,0.32239
7173.90341,0.37924
7175.83188,0.22076
7177.76035,0.07862
7179.68882,0.15983
7181.61729,0.28756
7183.54576,0.41674
7185.47422,0.42196
7187.40269,0.20858
7189.33116,0.02165
7191.25963,-0.01186
7193.18810,-0.03967
7195.11657,-0.02578
7197.04504,0.04425
7198.97350,0.02808
7200.90197,-0.01462
7202.83044,0.04487
7204.75891,0.08621
7206.68738,0.01591
7208.61585,0.03714
7210.54432,0.10401
7212.47279,0.10916
7214.40125,0.09245
7216.32972,0.05360
7218.25819,0.07361
7220.18666,0.22322
7222.11513,0.23230
7224.04360,0.12865
7225.97207,0.18601
7227.90053,0.35943
7229.82900,0.41490
7231.75747,0.37677
7233.68594,0.36674
7235.61441,0.29602
7237.54288,0.08717
7239.47135,-0.07171
7241.39982,-0.04920
7243.32828,0.02458
7245.25675,0.03190
7247.18522,0.07205
7249.11369,0.16401
7251.04216,0.20310
7252.97063,0.16817
7254.89910,0.16344
7256.82756,0.16570
7258.75603,0.09687
7260.68450,-0.00563
7262.61297,0.07988
7264.54144,0.25388
7266.46991,0.10166
7268.39838,-0.19694
7270.32685,-0.18340
7272.25531,0.17657
7274.18378,0.38814
7276.11225,0.36123
7278.04072,0.27494
7279.96919,0.16985
7281.89766,0.11674
7283.82613,0.12431
7285.75459,0.04433
7287.68306,-0.10969
7289.61153,-0.15596
7291.54000,-0.08631
7293.46847,0.06757
7295.39694,0.30469
7297.32541,0.38696
7299.25387,0.24195
7301.18234,0.09799
7303.11081,0.08878
7305.03928,0.11017
7306.96775,0.10251
7308.89622,0.12081
7310.82469,0.13231
7312.75316,0.15492
7314.68162,0.12290
7316.61009,0.04260
7318.53856,0.18600
7320.46703,0.37326
7322.39550,0.26134
7324.32397,0.07000
7326.25244,0.13614
7328.18090,0.18680
7330.10937,-0.02217
7332.03784,-0.18355
7333.96631,-0.21652
7335.89478,-0.20979
7337.82325,-0.18227
7339.75172,-0.17186
7341.68019,-0.27702
7343.60865,-0.40500
7345.53712,-0.42504
7347.46559,-0.31064
7349.39406,-0.19430
7351.32253,-0.12331
7353.25100,-0.04760
7355.17947,-0.02775
7357.10793,-0.04178
7359.03640,0.00374
7360.96487,-0.03838
7362.89334,-0.07885
7364.82181,0.06865
7366.75028,0.19135
7368.67875,0.09938
7370.60722,0.00538
7372.53568,0.08912
7374.46415,0.20675
7376.39262,0.24759
7378.32109,0.34552
7380.24956,0.37904
7382.17803,0.19378
7384.10650,-0.01586
7386.03496,-0.02018
7387.96343,0.03161
7389.89190,0.00478
7391.82037,-0.00422
7393.74884,-0.00211
7395.67731,0.07988
7397.60578,0.28214
7399.53425,0.35673
7401.46271,0.16537
7403.39118,-0.29343
7405.31965,-0.63381
7407.24812,-0.37606
7409.17659,0.06650
7411.10506,0.22602
7413.03353,0.28205
7414.96199,0.40426
7416.89046,0.45461
7418.81893,0.27716
7420.74740,0.04510
7422.67587,0.02026
7424.60434,0.05393
7426.53281,-0.01097
7428.46128,-0.13026
7430.38974,-0.00949
7432.31821,0.35296
7434.24668,0.51954
7436.17515,0.41053
7438.10362,0.29657
7440.03209,0.28449
7441.96056,0.20301
7443.88902,0.10076
7445.81749,0.11493
7447.74596,0.03204
7449.67443,-0.19036
7451.60290,-0.13399
7453.53137,0.18326
7455.45984,0.25681
7457.38831,0.10352
7459.31677,-0.04781
7461.24524,-0.08127
7463.17371,-0.01721
7465.10218,0.18149
7467.03065,0.37930
7468.95912,0.34490
7470.88759,0.18127
7472.81605,0.08253
7474.74452,0.00466
7476.67299,-0.15529
7478.60146,-0.18755
7480.52993,0.16242
7482.45840,0.57148
7484.38687,0.70977
7486.31533,0.58986
7488.24380,0.28990
7490.17227,0.08895
7492.10074,0.05374
7494.02921,0.08060
7495.95768,0.16639
7497.88615,0.16072
