399.19301,10.57015
401.12148,0.56684
403.04995,-0.14466
404.97842,-0.24241
406.90689,-0.23149
408.83536,-0.08504
410.76382,0.11103
412.69229,0.26119
414.62076,0.38160
416.54923,0.43581
418.47770,0.44015
420.40617,0.42789
422.33464,0.37363
424.26311,0.21526
426.19157,0.05209
428.12004,-0.02213
430.04851,-0.05816
431.97698,-0.07960
433.90545,-0.09413
435.83392,-0.08694
437.76239,-0.04304
439.69085,0.04629
441.61932,0.15864
443.54779,0.21061
445.47626,0.17072
447.40473,0.12396
449.33320,0.04101
451.26167,-0.05626
453.19013,-0.03386
455.11860,0.06017
457.04707,0.03481
458.97554,-0.11457
460.90401,-0.14017
462.83248,-0.04755
464.76095,0.09274
466.68942,0.24327
468.61788,0.20868
470.54635,-0.02957
472.47482,-0.29121
474.40329,-0.29858
476.33176,-0.06135
478.26023,0.08204
480.18870,0.11253
482.11716,0.12314
484.04563,0.16735
485.97410,0.22279
487.90257,0.21560
489.83104,0.15489
491.75951,0.10996
493.68798,0.07114
495.61645,0.06026
497.54491,0.08301
499.47338,0.05181
501.40185,-0.02822
503.33032,-0.04012
505.25879,0.01760
507.18726,0.06744
509.11573,0.06039
511.04419,0.00859
512.97266,-0.02540
514.90113,-0.00524
516.82960,0.01670
518.75807,0.01755
520.68654,0.02144
522.61501,0.04803
524.54348,0.12054
526.47194,0.20198
528.40041,0.21607
530.32888,0.17373
532.25735,0.14025
534.18582,0.11948
536.11429,0.09432
538.04276,0.08281
539.97122,0.09451
541.89969,0.11437
543.82816,0.10717
545.75663,0.06029
547.68510,0.01775
549.61357,0.02179
551.54204,0.05826
553.47051,0.09850
555.39897,0.10279
557.32744,0.07828
559.25591,0.06898
561.18438,0.04880
563.11285,0.03452
565.04132,0.05624
566.96979,0.05744
568.89825,0.03360
570.82672,0.03502
572.75519,0.04411
574.68366,0.05048
576.61213,0.06499
578.54060,0.08911
580.46907,0.12030
582.39754,0.14052
584.32600,0.12416
586.25447,0.06284
588.18294,0.02106
590.11141,0.04977
592.03988,0.11064
593.96835,0.15465
595.89682,0.16314
597.82528,0.12702
599.75375,0.06453
601.68222,0.02173
603.61069,0.02633
605.53916,0.06159
607.46763,0.08317
609.39610,0.07613
611.32456,0.06891
613.25303,0.07430
615.18150,0.07236
617.10997,0.06198
619.03844,0.05910
620.96691,0.06396
622.89538,0.06669
624.82385,0.05795
626.75231,0.05636
628.68078,0.08216
630.60925,0.10603
632.53772,0.10088
634.46619,0.08955
636.39466,0.08905
638.32313,0.09025
640.25159,0.08867
642.18006,0.08060
644.10853,0.06836
646.03700,0.05297
647.96547,0.03763
649.89394,0.03596
651.82241,0.03847
653.75088,0.03246
655.67934,0.03004
657.60781,0.03861
659.53628,0.05579
661.46475,0.08110
663.39322,0.10500
665.32169,0.11234
667.25016,0.09882
669.17862,0.07843
671.10709,0.08069
673.03556,0.09629
674.96403,0.10103
676.89250,0.10030
678.82097,0.11352
680.74944,0.12470
682.67791,0.13182
684.60637,0.14022
686.53484,0.12760
688.46331,0.09357
690.39178,0.07607
692.32025,0.08310
694.24872,0.08467
696.17719,0.07257
698.10565,0.07250
700.03412,0.09267
701.96259,0.10486
703.89106,0.09625
705.81953,0.08407
707.74800,0.08220
709.67647,0.09588
711.60494,0.11838
713.53340,0.12199
715.46187,0.09995
717.39034,0.08434
719.31881,0.08846
721.24728,0.09016
723.17575,0.07941
725.10422,0.07430
727.03268,0.07586
728.96115,0.07245
730.88962,0.07553
732.81809,0.09631
734.74656,0.11391
736.67503,0.10785
738.60350,0.09256
740.53197,0.08565
742.46043,0.08819
744.38890,0.09632
746.31737,0.10138
748.24584,0.10196
750.17431,0.10712
752.10278,0.11078
754.03125,0.10976
755.95971,0.11617
757.88818,0.11826
759.81665,0.10506
761.74512,0.09475
763.67359,0.09428
765.60206,0.09360
767.53053,0.09265
769.45900,0.09358
771.38746,0.09636
773.31593,0.09864
775.24440,0.10233
777.17287,0.11712
779.10134,0.12747
781.02981,0.11626
782.95828,0.09720
784.88674,0.08041
786.81521,0.06568
788.74368,0.06659
790.67215,0.08804
792.60062,0.11201
794.52909,0.12025
796.45756,0.10715
798.38602,0.08932
800.31449,0.08286
802.24296,0.08756
804.17143,0.09824
806.09990,0.10664
808.02837,0.11368
809.95684,0.11939
811.88531,0.11353
813.81377,0.10499
815.74224,0.11107
817.67071,0.12182
819.59918,0.12255
821.52765,0.12013
823.45612,0.11801
825.38459,0.10387
827.31305,0.08693
829.24152,0.09172
831.16999,0.11263
833.09846,0.13421
835.02693,0.14590
836.95540,0.13928
838.88387,0.12683
840.81234,0.12123
842.74080,0.11638
844.66927,0.10819
846.59774,0.09722
848.52621,0.08749
850.45468,0.08619
852.38315,0.09440
854.31162,0.10386
856.24008,0.09922
858.16855,0.09078
860.09702,0.09635
862.02549,0.10287
863.95396,0.10593
865.88243,0.10690
867.81090,0.09509
869.73937,0.08177
871.66783,0.08452
873.59630,0.09762
875.52477,0.11207
877.45324,0.12784
879.38171,0.13628
881.31018,0.12671
883.23865,0.11241
885.16711,0.10634
887.09558,0.10096
889.02405,0.09357
890.95252,0.09266
892.88099,0.10047
894.80946,0.10270
896.73793,0.09429
898.66640,0.09251
900.59486,0.10136
902.52333,0.10761
904.45180,0.10395
906.38027,0.09629
908.30874,0.09546
910.23721,0.09690
912.16568,0.09301
914.09414,0.09575
916.02261,0.10893
917.95108,0.11921
919.87955,0.11893
921.80802,0.11141
923.73649,0.10821
925.66496,0.11225
927.59343,0.11722
929.52189,0.11896
931.45036,0.11515
933.37883,0.11115
935.30730,0.11302
937.23577,0.11720
939.16424,0.11816
941.09271,0.11654
943.02117,0.11597
944.94964,0.11744
946.87811,0.12062
948.80658,0.12395
950.73505,0.12298
952.66352,0.11715
954.59199,0.11358
956.52045,0.11452
958.44892,0.11648
960.37739,0.11725
962.30586,0.11606
964.23433,0.11544
966.16280,0.11256
968.09127,0.10631
970.01974,0.11082
971.94820,0.12998
973.87667,0.14173
975.80514,0.13745
977.73361,0.13357
979.66208,0.13270
981.59055,0.12345
983.51902,0.11299
985.44748,0.11870
987.37595,0.13140
989.30442,0.13045
991.23289,0.12083
993.16136,0.11762
995.08983,0.12084
997.01830,0.12395
998.94677,0.12293
1000.87523,0.11651
1002.80370,0.11526
1004.73217,0.12055
1006.66064,0.12126
1008.58911,0.11773
1010.51758,0.11053
1012.44605,0.10240
1014.37451,0.09706
1016.30298,0.09686
1018.23145,0.10279
1020.15992,0.11071
1022.08839,0.12017
1024.01686,0.12597
1025.94533,0.13237
1027.87380,0.15054
1029.80226,0.16147
1031.73073,0.14732
1033.65920,0.12976
1035.58767,0.12655
1037.51614,0.13086
1039.44461,0.13461
1041.37308,0.13471
1043.30154,0.13340
1045.23001,0.13440
1047.15848,0.13514
1049.08695,0.13014
1051.01542,0.12456
1052.94389,0.12498
1054.87236,0.12636
1056.80083,0.12516
1058.72929,0.12505
1060.65776,0.13010
1062.58623,0.13658
1064.51470,0.13711
1066.44317,0.13540
1068.37164,0.13758
1070.30011,0.13418
1072.22857,0.12129
1074.15704,0.11365
1076.08551,0.11889
1078.01398,0.12735
1079.94245,0.13128
1081.87092,0.13540
1083.79939,0.14002
1085.72786,0.14169
1087.65632,0.14283
1089.58479,0.14435
1091.51326,0.14145
1093.44173,0.13978
1095.37020,0.15024
1097.29867,0.15632
1099.22714,0.14525
1101.15560,0.13626
1103.08407,0.13381
1105.01254,0.13048
1106.94101,0.13646
1108.86948,0.14721
1110.79795,0.14824
1112.72642,0.14451
1114.65489,0.13918
1116.58335,0.13219
1118.51182,0.13247
1120.44029,0.13466
1122.36876,0.12554
1124.29723,0.11590
1126.22570,0.11532
1128.15417,0.11726
1130.08263,0.12169
1132.01110,0.13153
1133.93957,0.14049
1135.86804,0.14399
1137.79651,0.14760
1139.72498,0.14828
1141.65345,0.14403
1143.58191,0.14127
1145.51038,0.13809
1147.43885,0.13235
1149.36732,0.12740
1151.29579,0.12880
1153.22426,0.13515
1155.15273,0.13898
1157.08120,0.14061
1159.00966,0.14180
1160.93813,0.13963
1162.86660,0.13851
1164.79507,0.14259
1166.72354,0.14441
1168.65201,0.14135
1170.58048,0.13985
1172.50894,0.14163
1174.43741,0.14321
1176.36588,0.14520
1178.29435,0.14729
1180.22282,0.14482
1182.15129,0.13870
1184.07976,0.13783
1186.00823,0.14870
1187.93669,0.16042
1189.86516,0.16026
1191.79363,0.15368
1193.72210,0.14929
1195.65057,0.14847
1197.57904,0.14875
1199.50751,0.14811
1201.43597,0.14883
1203.36444,0.15200
1205.29291,0.15230
1207.22138,0.14457
1209.14985,0.13763
1211.07832,0.14477
1213.00679,0.15581
1214.93526,0.15532
1216.86372,0.15183
1218.79219,0.15348
1220.72066,0.15265
1222.64913,0.14747
1224.57760,0.14694
1226.50607,0.14995
1228.43454,0.14706
1230.36300,0.14227
1232.29147,0.14381
1234.21994,0.14726
1236.14841,0.14597
1238.07688,0.14372
1240.00535,0.14443
1241.93382,0.14468
1243.86229,0.14315
1245.79075,0.14082
1247.71922,0.14020
1249.64769,0.14385
1251.57616,0.14875
1253.50463,0.15223
1255.43310,0.15281
1257.36157,0.14951
1259.29003,0.14490
1261.21850,0.14248
1263.14697,0.14555
1265.07544,0.15170
1267.00391,0.15174
1268.93238,0.14511
1270.86085,0.14122
1272.78932,0.14344
1274.71778,0.14759
1276.64625,0.15104
1278.57472,0.15385
1280.50319,0.15436
1282.43166,0.15169
1284.36013,0.14989
1286.28860,0.15082
1288.21706,0.15059
1290.14553,0.14789
1292.07400,0.14649
1294.00247,0.14762
1295.93094,0.14602
1297.85941,0.14056
1299.78788,0.13774
1301.71634,0.13634
1303.64481,0.13346
1305.57328,0.13763
1307.50175,0.14945
1309.43022,0.15675
1311.35869,0.15615
1313.28716,0.15170
1315.21563,0.14738
1317.14409,0.14800
1319.07256,0.15176
1321.00103,0.15428
1322.92950,0.15401
1324.85797,0.15043
1326.78644,0.15005
1328.71491,0.15406
1330.64337,0.15404
1332.57184,0.15280
1334.50031,0.15562
1336.42878,0.15824
1338.35725,0.15829
1340.28572,0.15109
1342.21419,0.13070
1344.14266,0.10130
1346.07112,0.08391
1347.99959,0.10282
1349.92806,0.13800
1351.85653,0.15266
1353.78500,0.15244
1355.71347,0.15439
1357.64194,0.15665
1359.57040,0.15818
1361.49887,0.16232
1363.42734,0.16141
1365.35581,0.15570
1367.28428,0.15714
1369.21275,0.16208
1371.14122,0.16504
1373.06969,0.17060
1374.99815,0.17388
1376.92662,0.16875
1378.85509,0.16373
1380.78356,0.16293
1382.71203,0.16391
1384.64050,0.16487
1386.56897,0.16430
1388.49743,0.16117
1390.42590,0.16016
1392.35437,0.16758
1394.28284,0.18118
1396.21131,0.18751
1398.13978,0.18214
1400.06825,0.17405
1401.99672,0.16896
1403.92518,0.16732
1405.85365,0.16704
1407.78212,0.16437
1409.71059,0.16039
1411.63906,0.15951
1413.56753,0.16239
1415.49600,0.16864
1417.42446,0.18122
1419.35293,0.18768
1421.28140,0.17833
1423.20987,0.17126
1425.13834,0.16640
1427.06681,0.16585
1428.99528,0.17624
1430.92375,0.18105
1432.85221,0.17341
1434.78068,0.17197
1436.70915,0.17787
1438.63762,0.17256
1440.56609,0.16097
1442.49456,0.15380
1444.42303,0.15374
1446.35149,0.16021
1448.27996,0.17054
1450.20843,0.18030
1452.13690,0.18578
1454.06537,0.19248
1455.99384,0.20961
1457.92231,0.21199
1459.85077,0.18966
1461.77924,0.18051
1463.70771,0.18427
1465.63618,0.18686
1467.56465,0.18355
1469.49312,0.18535
1471.42159,0.19666
1473.35006,0.20652
1475.27852,0.20337
1477.20699,0.19364
1479.13546,0.18494
1481.06393,0.18172
1482.99240,0.18176
1484.92087,0.18506
1486.84934,0.19647
1488.77780,0.21385
1490.70627,0.21188
1492.63474,0.19285
1494.56321,0.18535
1496.49168,0.19435
1498.42015,0.20289
1500.34862,0.19859
1502.27709,0.19244
1504.20555,0.19894
1506.13402,0.22827
1508.06249,0.23781
1509.99096,0.21324
1511.91943,0.19782
1513.84790,0.19624
1515.77637,0.20735
1517.70483,0.22293
1519.63330,0.23802
1521.56177,0.25178
1523.49024,0.24684
1525.41871,0.23156
1527.34718,0.21581
1529.27565,0.20364
1531.20412,0.20128
1533.13258,0.20718
1535.06105,0.21168
1536.98952,0.21968
1538.91799,0.24313
1540.84646,0.26232
1542.77493,0.24557
1544.70340,0.21913
1546.63186,0.20049
1548.56033,0.19583
1550.48880,0.19702
1552.41727,0.19888
1554.34574,0.20486
1556.27421,0.22002
1558.20268,0.25144
1560.13115,0.24198
1562.05961,0.20847
1563.98808,0.19586
1565.91655,0.19503
1567.84502,0.19957
1569.77349,0.20121
1571.70196,0.19353
1573.63043,0.19254
1575.55889,0.20255
1577.48736,0.20429
1579.41583,0.19700
1581.34430,0.19288
1583.27277,0.18877
1585.20124,0.18234
1587.12971,0.17558
1589.05818,0.17118
1590.98664,0.17268
1592.91511,0.17784
1594.84358,0.18046
1596.77205,0.17890
1598.70052,0.17688
1600.62899,0.17746
1602.55746,0.17840
1604.48592,0.17881
1606.41439,0.18137
1608.34286,0.18242
1610.27133,0.17745
1612.19980,0.17469
1614.12827,0.18393
1616.05674,0.20019
1617.98521,0.20020
1619.91367,0.19160
1621.84214,0.19286
1623.77061,0.19664
1625.69908,0.19493
1627.62755,0.19320
1629.55602,0.19193
1631.48449,0.19495
1633.41295,0.21020
1635.34142,0.23487
1637.26989,0.23229
1639.19836,0.21267
1641.12683,0.20376
1643.05530,0.20469
1644.98377,0.21420
1646.91223,0.22874
1648.84070,0.22946
1650.76917,0.22843
1652.69764,0.23805
1654.62611,0.23079
1656.55458,0.21344
1658.48305,0.20677
1660.41152,0.21528
1662.33998,0.22657
1664.26845,0.21273
1666.19692,0.19607
1668.12539,0.20265
1670.05386,0.21788
1671.98233,0.21689
1673.91080,0.21136
1675.83926,0.20445
1677.76773,0.19731
1679.69620,0.19847
1681.62467,0.20996
1683.55314,0.22576
1685.48161,0.22138
1687.41008,0.21090
1689.33855,0.20954
1691.26701,0.20602
1693.19548,0.20299
1695.12395,0.21165
1697.05242,0.22275
1698.98089,0.22109
1700.90936,0.21408
1702.83783,0.21004
1704.76629,0.20935
1706.69476,0.20569
1708.62323,0.19736
1710.55170,0.19284
1712.48017,0.19788
1714.40864,0.21153
1716.33711,0.22347
1718.26558,0.21480
1720.19404,0.19788
1722.12251,0.18932
1724.05098,0.18543
1725.97945,0.18328
1727.90792,0.18874
1729.83639,0.20422
1731.76486,0.22234
1733.69332,0.22814
1735.62179,0.21149
1737.55026,0.19987
1739.47873,0.19974
1741.40720,0.20234
1743.33567,0.20543
1745.26414,0.20922
1747.19261,0.21409
1749.12107,0.21950
1751.04954,0.21327
1752.97801,0.19779
1754.90648,0.19063
1756.83495,0.19248
1758.76342,0.19368
1760.69189,0.19191
1762.62035,0.18839
1764.54882,0.18615
1766.47729,0.19036
1768.40576,0.20016
1770.33423,0.21096
1772.26270,0.21597
1774.19117,0.20830
1776.11964,0.19842
1778.04810,0.19497
1779.97657,0.19566
1781.90504,0.19450
1783.83351,0.19104
1785.76198,0.18656
1787.69045,0.18582
1789.61892,0.19549
1791.54738,0.20786
1793.47585,0.20626
1795.40432,0.19941
1797.33279,0.19830
1799.26126,0.20069
1801.18973,0.19811
1803.11820,0.18950
1805.04666,0.18630
1806.97513,0.18899
1808.90360,0.19153
1810.83207,0.19106
1812.76054,0.18483
1814.68901,0.17819
1816.61748,0.17914
1818.54595,0.18638
1820.47441,0.19170
1822.40288,0.19185
1824.33135,0.19093
1826.25982,0.19218
1828.18829,0.19628
1830.11676,0.19850
1832.04523,0.19230
1833.97369,0.18451
1835.90216,0.18235
1837.83063,0.18504
1839.75910,0.18743
1841.68757,0.19226
1843.61604,0.20237
1845.54451,0.20391
1847.47298,0.19553
1849.40144,0.18916
1851.32991,0.18542
1853.25838,0.18261
1855.18685,0.18033
1857.11532,0.17829
1859.04379,0.17767
1860.97226,0.17749
1862.90072,0.17712
1864.82919,0.18154
1866.75766,0.19344
1868.68613,0.20275
1870.61460,0.19779
1872.54307,0.18920
1874.47154,0.18546
1876.40001,0.18411
1878.32847,0.18350
1880.25694,0.18299
1882.18541,0.18332
1884.11388,0.18650
1886.04235,0.19068
1887.97082,0.19301
1889.89929,0.19121
1891.82775,0.18771
1893.75622,0.18720
1895.68469,0.18653
1897.61316,0.18444
1899.54163,0.18417
1901.47010,0.18385
1903.39857,0.18251
1905.32704,0.18459
1907.25550,0.19069
1909.18397,0.19303
1911.11244,0.18916
1913.04091,0.18631
1914.96938,0.18738
1916.89785,0.19029
1918.82632,0.19228
1920.75478,0.19411
1922.68325,0.19567
1924.61172,0.19289
1926.54019,0.18853
1928.46866,0.18557
1930.39713,0.18326
1932.32560,0.18312
1934.25407,0.18414
1936.18253,0.18361
1938.11100,0.18195
1940.03947,0.18168
1941.96794,0.18497
1943.89641,0.18798
1945.82488,0.18634
1947.75335,0.18394
1949.68181,0.18456
1951.61028,0.18659
1953.53875,0.18745
1955.46722,0.18682
1957.39569,0.18591
1959.32416,0.18644
1961.25263,0.18770
1963.18110,0.18798
1965.10956,0.18807
1967.03803,0.18697
1968.96650,0.18472
1970.89497,0.18404
1972.82344,0.18306
1974.75191,0.18049
1976.68038,0.18007
1978.60884,0.18364
1980.53731,0.18809
1982.46578,0.18973
1984.39425,0.18940
1986.32272,0.18948
1988.25119,0.18918
1990.17966,0.18816
1992.10812,0.18690
1994.03659,0.18634
1995.96506,0.18786
1997.89353,0.18875
1999.82200,0.18758
2001.75047,0.18613
2003.67894,0.18334
2005.60741,0.18079
2007.53587,0.18279
2009.46434,0.18771
2011.39281,0.19032
2013.32128,0.18902
2015.24975,0.18686
2017.17822,0.18642
2019.10669,0.18733
2021.03515,0.18981
2022.96362,0.19297
2024.89209,0.19344
2026.82056,0.18996
2028.74903,0.18477
2030.67750,0.18186
2032.60597,0.18281
2034.53444,0.18505
2036.46290,0.18755
2038.39137,0.19048
2040.31984,0.19062
2042.24831,0.18769
2044.17678,0.18586
2046.10525,0.18577
2048.03372,0.18625
2049.96218,0.18637
2051.89065,0.18522
2053.81912,0.18519
2055.74759,0.18678
2057.67606,0.18716
2059.60453,0.18696
2061.53300,0.18782
2063.46147,0.18940
2065.38993,0.19068
2067.31840,0.19033
2069.24687,0.18833
2071.17534,0.18673
2073.10381,0.18695
2075.03228,0.18744
2076.96075,0.18745
2078.88921,0.18950
2080.81768,0.19380
2082.74615,0.19602
2084.67462,0.19449
2086.60309,0.19271
2088.53156,0.19075
2090.46003,0.18697
2092.38850,0.18437
2094.31696,0.18469
2096.24543,0.18662
2098.17390,0.18882
2100.10237,0.18998
2102.03084,0.19119
2103.95931,0.19261
2105.88778,0.19252
2107.81624,0.19143
2109.74471,0.18950
2111.67318,0.18916
2113.60165,0.19182
2115.53012,0.19360
2117.45859,0.19372
2119.38706,0.19202
2121.31553,0.18822
2123.24399,0.18575
2125.17246,0.18550
2127.10093,0.18618
2129.02940,0.18748
2130.95787,0.18857
2132.88634,0.18863
2134.81481,0.18927
2136.74327,0.19193
2138.67174,0.19280
2140.60021,0.18922
2142.52868,0.18503
2144.45715,0.18397
2146.38562,0.18717
2148.31409,0.19282
2150.24255,0.19582
2152.17102,0.19452
2154.09949,0.19370
2156.02796,0.19449
2157.95643,0.19358
2159.88490,0.19319
2161.81337,0.19452
2163.74184,0.19351
2165.67030,0.19090
2167.59877,0.19027
2169.52724,0.19112
2171.45571,0.19155
2173.38418,0.19160
2175.31265,0.19197
2177.24112,0.19325
2179.16958,0.19539
2181.09805,0.19522
2183.02652,0.19164
2184.95499,0.18985
2186.88346,0.19223
2188.81193,0.19518
2190.74040,0.19533
2192.66887,0.19236
2194.59733,0.18811
2196.52580,0.18423
2198.45427,0.18277
2200.38274,0.18513
2202.31121,0.18958
2204.23968,0.19372
2206.16815,0.19665
2208.09661,0.19733
2210.02508,0.19491
2211.95355,0.19102
2213.88202,0.18864
2215.81049,0.18932
2217.73896,0.19151
2219.66743,0.19202
2221.59590,0.18988
2223.52436,0.18760
2225.45283,0.18690
2227.38130,0.18634
2229.30977,0.18451
2231.23824,0.18259
2233.16671,0.18295
2235.09518,0.18529
2237.02364,0.18826
2238.95211,0.19018
2240.88058,0.18999
2242.80905,0.19084
2244.73752,0.19325
2246.66599,0.19375
2248.59446,0.19342
2250.52293,0.19600
2252.45139,0.20108
2254.37986,0.20417
2256.30833,0.20133
2258.23680,0.19570
2260.16527,0.19297
2262.09374,0.19168
2264.02221,0.19051
2265.95067,0.19245
2267.87914,0.19606
2269.80761,0.19766
2271.73608,0.19617
2273.66455,0.19132
2275.59302,0.18751
2277.52149,0.18900
2279.44996,0.19131
2281.37842,0.19094
2283.30689,0.18939
2285.23536,0.18954
2287.16383,0.19208
2289.09230,0.19211
2291.02077,0.18834
2292.94924,0.18168
2294.87770,0.17327
2296.80617,0.17550
2298.73464,0.19071
2300.66311,0.19922
2302.59158,0.19749
2304.52005,0.19975
2306.44852,0.20511
2308.37699,0.20549
2310.30545,0.20248
2312.23392,0.20023
2314.16239,0.20259
2316.09086,0.21065
2318.01933,0.21814
2319.94780,0.22183
2321.87627,0.22532
2323.80473,0.22881
2325.73320,0.23132
2327.66167,0.23590
2329.59014,0.24057
2331.51861,0.23390
2333.44708,0.21937
2335.37555,0.21192
2337.30401,0.20895
2339.23248,0.21004
2341.16095,0.22299
2343.08942,0.23921
2345.01789,0.24187
2346.94636,0.23207
2348.87483,0.22397
2350.80330,0.22373
2352.73176,0.23522
2354.66023,0.25657
2356.58870,0.26257
2358.51717,0.23562
2360.44564,0.20238
2362.37411,0.19231
2364.30258,0.19869
2366.23104,0.20617
2368.15951,0.21490
2370.08798,0.22458
2372.01645,0.23270
2373.94492,0.23063
2375.87339,0.21634
2377.80186,0.20439
2379.73033,0.20212
2381.65879,0.20218
2383.58726,0.19880
2385.51573,0.19353
2387.44420,0.18854
2389.37267,0.18657
2391.30114,0.18885
2393.22961,0.19069
2395.15807,0.19150
2397.08654,0.19505
2399.01501,0.19792
2400.94348,0.19651
2402.87195,0.19560
2404.80042,0.19703
2406.72889,0.19686
2408.65736,0.19496
2410.58582,0.19350
2412.51429,0.19324
2414.44276,0.19344
2416.37123,0.19400
2418.29970,0.19504
2420.22817,0.19444
2422.15664,0.19100
2424.08510,0.18717
2426.01357,0.18689
2427.94204,0.19027
2429.87051,0.19445
2431.79898,0.19674
2433.72745,0.19559
2435.65592,0.19307
2437.58439,0.19267
2439.51285,0.19365
2441.44132,0.19368
2443.36979,0.19392
2445.29826,0.19507
2447.22673,0.19599
2449.15520,0.19599
2451.08367,0.19602
2453.01213,0.19649
2454.94060,0.19684
2456.86907,0.19731
2458.79754,0.19658
2460.72601,0.19498
2462.65448,0.19429
2464.58295,0.19432
2466.51142,0.19477
2468.43988,0.19523
2470.36835,0.19480
2472.29682,0.19327
2474.22529,0.19176
2476.15376,0.19055
2478.08223,0.19036
2480.01070,0.19260
2481.93916,0.19513
2483.86763,0.19518
2485.79610,0.19450
2487.72457,0.19555
2489.65304,0.19683
2491.58151,0.19661
2493.50998,0.19538
2495.43844,0.19528
2497.36691,0.19762
2499.29538,0.20050
2501.22385,0.20217
2503.15232,0.20211
2505.08079,0.19983
2507.00926,0.19631
2508.93773,0.19463
2510.86619,0.19561
2512.79466,0.19548
2514.72313,0.19212
2516.65160,0.19006
2518.58007,0.19227
2520.50854,0.19348
2522.43701,0.19286
2524.36547,0.19482
2526.29394,0.19677
2528.22241,0.19704
2530.15088,0.19750
2532.07935,0.19547
2534.00782,0.19091
2535.93629,0.18927
2537.86476,0.19143
2539.79322,0.19280
2541.72169,0.19211
2543.65016,0.19127
2545.57863,0.18991
2547.50710,0.18935
2549.43557,0.19087
2551.36404,0.19230
2553.29250,0.19324
2555.22097,0.19506
2557.14944,0.19810
2559.07791,0.20045
2561.00638,0.19984
2562.93485,0.19776
2564.86332,0.19789
2566.79179,0.19850
2568.72025,0.19614
2570.64872,0.19449
2572.57719,0.19627
2574.50566,0.19829
2576.43413,0.19899
2578.36260,0.19973
2580.29107,0.20078
2582.21953,0.19978
2584.14800,0.19575
2586.07647,0.19450
2588.00494,0.19873
2589.93341,0.20161
2591.86188,0.20155
2593.79035,0.20243
2595.71882,0.20367
2597.64728,0.20403
2599.57575,0.20348
2601.50422,0.20190
2603.43269,0.20057
2605.36116,0.20020
2607.28963,0.20092
2609.21810,0.20342
2611.14656,0.20248
2613.07503,0.19848
2615.00350,0.19936
2616.93197,0.19943
2618.86044,0.19591
2620.78891,0.19599
2622.71738,0.19839
2624.64585,0.19961
2626.57431,0.19820
2628.50278,0.19585
2630.43125,0.19661
2632.35972,0.19795
2634.28819,0.19774
2636.21666,0.19881
2638.14513,0.19920
2640.07359,0.19840
2642.00206,0.20018
2643.93053,0.20251
2645.85900,0.20259
2647.78747,0.20044
2649.71594,0.19778
2651.64441,0.19660
2653.57288,0.19515
2655.50134,0.19373
2657.42981,0.19570
2659.35828,0.19895
2661.28675,0.19997
2663.21522,0.20137
2665.14369,0.20502
2667.07216,0.20754
2669.00062,0.20547
2670.92909,0.20005
2672.85756,0.19636
2674.78603,0.19752
2676.71450,0.20142
2678.64297,0.20499
2680.57144,0.20763
2682.49990,0.20949
2684.42837,0.21141
2686.35684,0.21158
2688.28531,0.20865
2690.21378,0.20541
2692.14225,0.20232
2694.07072,0.20092
2695.99919,0.20260
2697.92765,0.20190
2699.85612,0.19677
2701.78459,0.19525
2703.71306,0.20075
2705.64153,0.20549
2707.57000,0.20476
2709.49847,0.20222
2711.42693,0.20186
2713.35540,0.20481
2715.28387,0.20823
2717.21234,0.20762
2719.14081,0.20481
2721.06928,0.20383
2722.99775,0.20435
2724.92622,0.20531
2726.85468,0.20566
2728.78315,0.20652
2730.71162,0.20904
2732.64009,0.21107
2734.56856,0.21205
2736.49703,0.21102
2738.42550,0.20835
2740.35396,0.20825
2742.28243,0.21011
2744.21090,0.20843
2746.13937,0.20448
2748.06784,0.20659
2749.99631,0.21401
2751.92478,0.21709
2753.85325,0.21421
2755.78171,0.21075
2757.71018,0.20908
2759.63865,0.21040
2761.56712,0.21437
2763.49559,0.21477
2765.42406,0.21035
2767.35253,0.20775
2769.28099,0.20687
2771.20946,0.20517
2773.13793,0.20577
2775.06640,0.20980
2776.99487,0.21340
2778.92334,0.21337
2780.85181,0.21105
2782.78028,0.21006
2784.70874,0.21345
2786.63721,0.21815
2788.56568,0.21743
2790.49415,0.21365
2792.42262,0.21304
2794.35109,0.21607
2796.27956,0.21892
2798.20802,0.21763
2800.13649,0.21393
2802.06496,0.21221
2803.99343,0.21220
2805.92190,0.21092
2807.85037,0.20826
2809.77884,0.20738
2811.70731,0.20959
2813.63577,0.21205
2815.56424,0.21168
2817.49271,0.20973
2819.42118,0.21024
2821.34965,0.21170
2823.27812,0.21004
2825.20659,0.20998
2827.13505,0.21320
2829.06352,0.21241
2830.99199,0.20886
2832.92046,0.20932
2834.84893,0.21144
2836.77740,0.21147
2838.70587,0.21313
2840.63433,0.21689
2842.56280,0.21866
2844.49127,0.21546
2846.41974,0.20828
2848.34821,0.20446
2850.27668,0.20533
2852.20515,0.20759
2854.13362,0.21192
2856.06208,0.21473
2857.99055,0.21152
2859.91902,0.20640
2861.84749,0.20639
2863.77596,0.21144
2865.70443,0.21535
2867.63290,0.21469
2869.56136,0.21253
2871.48983,0.21290
2873.41830,0.21633
2875.34677,0.21943
2877.27524,0.21808
2879.20371,0.21384
2881.13218,0.21190
2883.06065,0.21147
2884.98911,0.21052
2886.91758,0.21207
2888.84605,0.21336
2890.77452,0.21188
2892.70299,0.21190
2894.63146,0.21196
2896.55993,0.21086
2898.48839,0.21241
2900.41686,0.21623
2902.34533,0.21904
2904.27380,0.21941
2906.20227,0.21818
2908.13074,0.21645
2910.05921,0.21336
2911.98768,0.20852
2913.91614,0.20486
2915.84461,0.20301
2917.77308,0.20175
2919.70155,0.20224
2921.63002,0.20269
2923.55849,0.20142
2925.48696,0.20047
2927.41542,0.19879
2929.34389,0.19593
2931.27236,0.19704
2933.20083,0.20252
2935.12930,0.20529
2937.05777,0.20644
2938.98624,0.21204
2940.91471,0.21581
2942.84317,0.21398
2944.77164,0.21302
2946.70011,0.21059
2948.62858,0.20520
2950.55705,0.20377
2952.48552,0.20764
2954.41399,0.21223
2956.34245,0.21125
2958.27092,0.20713
2960.19939,0.20797
2962.12786,0.21194
2964.05633,0.21466
2965.98480,0.21462
2967.91327,0.21224
2969.84174,0.21026
2971.77020,0.21117
2973.69867,0.21472
2975.62714,0.21301
2977.55561,0.20590
2979.48408,0.20616
2981.41255,0.21449
2983.34102,0.21979
2985.26948,0.21730
2987.19795,0.21026
2989.12642,0.20732
2991.05489,0.21600
2992.98336,0.22852
2994.91183,0.22891
2996.84030,0.21658
2998.76877,0.20783
3000.69723,0.21264
3002.62570,0.22253
3004.55417,0.22703
3006.48264,0.22485
3008.41111,0.21970
3010.33958,0.21335
3012.26805,0.20250
3014.19651,0.18386
3016.12498,0.16751
3018.05345,0.17492
3019.98192,0.19961
3021.91039,0.21320
3023.83886,0.21337
3025.76733,0.21117
3027.69579,0.20955
3029.62426,0.21163
3031.55273,0.21617
3033.48120,0.21766
3035.40967,0.21744
3037.33814,0.21765
3039.26661,0.21705
3041.19508,0.21522
3043.12354,0.21156
3045.05201,0.20854
3046.98048,0.20719
3048.90895,0.20512
3050.83742,0.20527
3052.76589,0.20945
3054.69436,0.21183
3056.62282,0.20832
3058.55129,0.20735
3060.47976,0.21579
3062.40823,0.22391
3064.33670,0.22186
3066.26517,0.21373
3068.19364,0.21203
3070.12211,0.21757
3072.05057,0.22023
3073.97904,0.21691
3075.90751,0.21052
3077.83598,0.20902
3079.76445,0.21407
3081.69292,0.21721
3083.62139,0.21250
3085.54985,0.20342
3087.47832,0.20378
3089.40679,0.21269
3091.33526,0.21123
3093.26373,0.19909
3095.19220,0.19721
3097.12067,0.21076
3099.04914,0.22428
3100.97760,0.22502
3102.90607,0.21328
3104.83454,0.20618
3106.76301,0.21329
3108.69148,0.22221
3110.61995,0.22058
3112.54842,0.21289
3114.47688,0.21202
3116.40535,0.21829
3118.33382,0.22338
3120.26229,0.22305
3122.19076,0.21955
3124.11923,0.21882
3126.04770,0.22004
3127.97617,0.21981
3129.90463,0.22147
3131.83310,0.22378
3133.76157,0.22008
3135.69004,0.21375
3137.61851,0.20989
3139.54698,0.21040
3141.47545,0.21534
3143.40391,0.21694
3145.33238,0.21330
3147.26085,0.21274
3149.18932,0.21748
3151.11779,0.22148
3153.04626,0.22107
3154.97473,0.21845
3156.90320,0.22056
3158.83166,0.22691
3160.76013,0.22728
3162.68860,0.22678
3164.61707,0.23617
3166.54554,0.24314
3168.47401,0.23597
3170.40248,0.22776
3172.33094,0.22822
3174.25941,0.22995
3176.18788,0.22952
3178.11635,0.22979
3180.04482,0.23074
3181.97329,0.23119
3183.90176,0.23308
3185.83022,0.23645
3187.75869,0.23422
3189.68716,0.22637
3191.61563,0.22227
3193.54410,0.22374
3195.47257,0.22684
3197.40104,0.22903
3199.32951,0.22962
3201.25797,0.22949
3203.18644,0.22633
3205.11491,0.22290
3207.04338,0.22545
3208.97185,0.22955
3210.90032,0.22933
3212.82879,0.22588
3214.75725,0.22361
3216.68572,0.22565
3218.61419,0.22710
3220.54266,0.22432
3222.47113,0.22212
3224.39960,0.22223
3226.32807,0.22202
3228.25654,0.22130
3230.18500,0.22144
3232.11347,0.22185
3234.04194,0.22012
3235.97041,0.21823
3237.89888,0.21876
3239.82735,0.21885
3241.75582,0.21925
3243.68428,0.22380
3245.61275,0.23029
3247.54122,0.23403
3249.46969,0.23233
3251.39816,0.22571
3253.32663,0.21790
3255.25510,0.21241
3257.18357,0.21242
3259.11203,0.21494
3261.04050,0.21213
3262.96897,0.20723
3264.89744,0.20816
3266.82591,0.21026
3268.75438,0.20562
3270.68285,0.20199
3272.61131,0.20937
3274.53978,0.22041
3276.46825,0.22673
3278.39672,0.22829
3280.32519,0.22733
3282.25366,0.22598
3284.18213,0.22231
3286.11060,0.21700
3288.03906,0.21182
3289.96753,0.20760
3291.89600,0.21174
3293.82447,0.22333
3295.75294,0.23055
3297.68141,0.22986
3299.60988,0.22716
3301.53834,0.22737
3303.46681,0.22880
3305.39528,0.22852
3307.32375,0.22385
3309.25222,0.21639
3311.18069,0.21472
3313.10916,0.21719
3315.03763,0.21559
3316.96609,0.21094
3318.89456,0.21055
3320.82303,0.21832
3322.75150,0.22785
3324.67997,0.23155
3326.60844,0.22909
3328.53691,0.22418
3330.46537,0.22286
3332.39384,0.22726
3334.32231,0.23115
3336.25078,0.23301
3338.17925,0.23681
3340.10772,0.23611
3342.03619,0.22521
3343.96466,0.21337
3345.89312,0.21140
3347.82159,0.21810
3349.75006,0.22639
3351.67853,0.23026
3353.60700,0.22786
3355.53547,0.22481
3357.46394,0.22416
3359.39240,0.22362
3361.32087,0.22510
3363.24934,0.23068
3365.17781,0.23424
3367.10628,0.23143
3369.03475,0.22830
3370.96322,0.22644
3372.89168,0.22286
3374.82015,0.22191
3376.74862,0.22191
3378.67709,0.21558
3380.60556,0.20843
3382.53403,0.20856
3384.46250,0.21513
3386.39097,0.22411
3388.31943,0.22888
3390.24790,0.22569
3392.17637,0.21773
3394.10484,0.21171
3396.03331,0.21317
3397.96178,0.21662
3399.89025,0.21493
3401.81871,0.21108
3403.74718,0.20749
3405.67565,0.20715
3407.60412,0.21193
3409.53259,0.21746
3411.46106,0.22081
3413.38953,0.21991
3415.31800,0.21650
3417.24646,0.21608
3419.17493,0.22107
3421.10340,0.22765
3423.03187,0.22772
3424.96034,0.22292
3426.88881,0.21981
3428.81728,0.21845
3430.74574,0.21754
3432.67421,0.21721
3434.60268,0.21788
3436.53115,0.21850
3438.45962,0.21700
3440.38809,0.21303
3442.31656,0.21042
3444.24503,0.21204
3446.17349,0.21069
3448.10196,0.19994
3450.03043,0.19184
3451.95890,0.19652
3453.88737,0.20701
3455.81584,0.21360
3457.74431,0.21156
3459.67277,0.20783
3461.60124,0.20906
3463.52971,0.20610
3465.45818,0.19655
3467.38665,0.18868
3469.31512,0.18786
3471.24359,0.19500
3473.17206,0.19996
3475.10052,0.19638
3477.02899,0.19494
3478.95746,0.19979
3480.88593,0.20157
3482.81440,0.19679
3484.74287,0.19369
3486.67134,0.19777
3488.59980,0.20338
3490.52827,0.20012
3492.45674,0.18886
3494.38521,0.18412
3496.31368,0.18781
3498.24215,0.18843
3500.17062,0.18828
3502.09909,0.19452
3504.02755,0.19876
3505.95602,0.18945
3507.88449,0.17926
3509.81296,0.18289
3511.74143,0.19023
3513.66990,0.18812
3515.59837,0.17955
3517.52683,0.17526
3519.45530,0.17926
3521.38377,0.18684
3523.31224,0.19335
3525.24071,0.19742
3527.16918,0.19947
3529.09765,0.19531
3531.02611,0.18507
3532.95458,0.17805
3534.88305,0.17735
3536.81152,0.17685
3538.73999,0.17499
3540.66846,0.17541
3542.59693,0.17846
3544.52540,0.18600
3546.45386,0.19454
3548.38233,0.19436
3550.31080,0.18870
3552.23927,0.18603
3554.16774,0.18535
3556.09621,0.18268
3558.02468,0.17914
3559.95314,0.17629
3561.88161,0.17414
3563.81008,0.17509
3565.73855,0.18310
3567.66702,0.18710
3569.59549,0.17677
3571.52396,0.16676
3573.45243,0.16325
3575.38089,0.16558
3577.30936,0.16949
3579.23783,0.16872
3581.16630,0.16423
3583.09477,0.16068
3585.02324,0.16348
3586.95171,0.17073
3588.88017,0.16927
3590.80864,0.16751
3592.73711,0.17455
3594.66558,0.17947
3596.59405,0.17632
3598.52252,0.17267
3600.45099,0.17037
3602.37946,0.16831
3604.30792,0.16896
3606.23639,0.17434
3608.16486,0.17950
3610.09333,0.18068
3612.02180,0.18096
3613.95027,0.17752
3615.87874,0.17334
3617.80720,0.17187
3619.73567,0.16486
3621.66414,0.15530
3623.59261,0.15748
3625.52108,0.17086
3627.44955,0.18417
3629.37802,0.18076
3631.30649,0.16499
3633.23495,0.15540
3635.16342,0.15220
3637.09189,0.15250
3639.02036,0.15092
3640.94883,0.14341
3642.87730,0.13832
3644.80577,0.14579
3646.73423,0.16513
3648.66270,0.17829
3650.59117,0.16178
3652.51964,0.14424
3654.44811,0.14174
3656.37658,0.14808
3658.30505,0.15262
3660.23352,0.15083
3662.16198,0.14117
3664.09045,0.13033
3666.01892,0.13357
3667.94739,0.15535
3669.87586,0.17758
3671.80433,0.17455
3673.73280,0.17076
3675.66126,0.17731
3677.58973,0.17216
3679.51820,0.16033
3681.44667,0.15088
3683.37514,0.14294
3685.30361,0.13800
3687.23208,0.14215
3689.16055,0.15256
3691.08901,0.14944
3693.01748,0.14053
3694.94595,0.13863
3696.87442,0.13762
3698.80289,0.13361
3700.73136,0.12935
3702.65983,0.12818
3704.58829,0.13494
3706.51676,0.14410
3708.44523,0.14711
3710.37370,0.14424
3712.30217,0.14147
3714.23064,0.14172
3716.15911,0.14295
3718.08757,0.14282
3720.01604,0.14108
3721.94451,0.14221
3723.87298,0.14964
3725.80145,0.15659
3727.72992,0.15679
3729.65839,0.15501
3731.58686,0.15828
3733.51532,0.17234
3735.44379,0.18338
3737.37226,0.17160
3739.30073,0.15895
3741.22920,0.15762
3743.15767,0.16267
3745.08614,0.16477
3747.01460,0.16529
3748.94307,0.17494
3750.87154,0.17689
3752.80001,0.15623
3754.72848,0.14089
3756.65695,0.13587
3758.58542,0.13435
3760.51389,0.13408
3762.44235,0.13881
3764.37082,0.14514
3766.29929,0.14579
3768.22776,0.14342
3770.15623,0.13937
3772.08470,0.13358
3774.01317,0.13283
3775.94163,0.13687
3777.87010,0.14059
3779.79857,0.13809
3781.72704,0.13120
3783.65551,0.12940
3785.58398,0.13216
3787.51245,0.13057
3789.44092,0.12516
3791.36938,0.12222
3793.29785,0.12422
3795.22632,0.13187
3797.15479,0.13829
3799.08326,0.14085
3801.01173,0.14656
3802.94020,0.14116
3804.86866,0.13012
3806.79713,0.13063
3808.72560,0.13169
3810.65407,0.12624
3812.58254,0.12486
3814.51101,0.13164
3816.43948,0.14062
3818.36795,0.14624
3820.29641,0.14851
3822.22488,0.14436
3824.15335,0.14189
3826.08182,0.14178
3828.01029,0.14039
3829.93876,0.14003
3831.86723,0.13894
3833.79569,0.13637
3835.72416,0.14117
3837.65263,0.15225
3839.58110,0.14878
3841.50957,0.13594
3843.43804,0.12766
3845.36651,0.12045
3847.29498,0.11667
3849.22344,0.12281
3851.15191,0.14476
3853.08038,0.17611
3855.00885,0.16864
3856.93732,0.14533
3858.86579,0.13620
3860.79426,0.13533
3862.72272,0.13350
3864.65119,0.12913
3866.57966,0.12966
3868.50813,0.13789
3870.43660,0.14546
3872.36507,0.14289
3874.29354,0.13776
3876.22200,0.13540
3878.15047,0.13552
3880.07894,0.13623
3882.00741,0.13701
3883.93588,0.13765
3885.86435,0.13255
3887.79282,0.12471
3889.72129,0.12135
3891.64975,0.11877
3893.57822,0.11205
3895.50669,0.10927
3897.43516,0.11873
3899.36363,0.13184
3901.29210,0.13312
3903.22057,0.13403
3905.14903,0.13565
3907.07750,0.12394
3909.00597,0.11130
3910.93444,0.10878
3912.86291,0.11473
3914.79138,0.12406
3916.71985,0.12776
3918.64832,0.11983
3920.57678,0.11112
3922.50525,0.11037
3924.43372,0.11377
3926.36219,0.11633
3928.29066,0.11654
3930.21913,0.11641
3932.14760,0.11752
3934.07606,0.11740
3936.00453,0.11740
3937.93300,0.11816
3939.86147,0.11713
3941.78994,0.11257
3943.71841,0.10696
3945.64688,0.10870
3947.57535,0.11653
3949.50381,0.12053
3951.43228,0.11803
3953.36075,0.11299
3955.28922,0.10633
3957.21769,0.10044
3959.14616,0.10071
3961.07463,0.10599
3963.00309,0.10972
3964.93156,0.10692
3966.86003,0.10106
3968.78850,0.10099
3970.71697,0.10534
3972.64544,0.10822
3974.57391,0.10760
3976.50238,0.10252
3978.43084,0.09945
3980.35931,0.10241
3982.28778,0.10533
3984.21625,0.10554
3986.14472,0.10491
3988.07319,0.10467
3990.00166,0.10542
3991.93012,0.10577
3993.85859,0.10449
3995.78706,0.10016
3997.71553,0.09567
3999.64400,0.09440
4001.57247,0.09277
4003.50094,0.09142
4005.42941,0.09297
4007.35787,0.09514
4009.28634,0.09457
4011.21481,0.09042
4013.14328,0.08985
4015.07175,0.09515
4017.00022,0.09669
4018.92869,0.09349
4020.85715,0.09368
4022.78562,0.09625
4024.71409,0.09674
4026.64256,0.09358
4028.57103,0.08554
4030.49950,0.07943
4032.42797,0.08203
4034.35644,0.08603
4036.28490,0.08433
4038.21337,0.08163
4040.14184,0.08409
4042.07031,0.09387
4043.99878,0.10334
4045.92725,0.09791
4047.85572,0.08430
4049.78418,0.08416
4051.71265,0.09694
4053.64112,0.10235
4055.56959,0.09139
4057.49806,0.07695
4059.42653,0.06994
4061.35500,0.07088
4063.28346,0.08063
4065.21193,0.09091
4067.14040,0.09150
4069.06887,0.08715
4070.99734,0.08628
4072.92581,0.09027
4074.85428,0.09304
4076.78275,0.08847
4078.71121,0.08118
4080.63968,0.07934
4082.56815,0.08226
4084.49662,0.08613
4086.42509,0.09217
4088.35356,0.09861
4090.28203,0.09795
4092.21049,0.08971
4094.13896,0.08240
4096.06743,0.07996
4097.99590,0.08149
4099.92437,0.08502
4101.85284,0.08232
4103.78131,0.07350
4105.70978,0.07259
4107.63824,0.08029
4109.56671,0.08157
4111.49518,0.07543
4113.42365,0.07209
4115.35212,0.07175
4117.28059,0.07283
4119.20906,0.07655
4121.13752,0.08081
4123.06599,0.08135
4124.99446,0.07781
4126.92293,0.07583
4128.85140,0.07369
4130.77987,0.06848
4132.70834,0.06762
4134.63681,0.07443
4136.56527,0.08097
4138.49374,0.07900
4140.42221,0.07280
4142.35068,0.07079
4144.27915,0.07165
4146.20762,0.07275
4148.13609,0.07306
4150.06455,0.06985
4151.99302,0.06480
4153.92149,0.06348
4155.84996,0.06762
4157.77843,0.07275
4159.70690,0.07504
4161.63537,0.07434
4163.56384,0.07223
4165.49230,0.07359
4167.42077,0.07537
4169.34924,0.06777
4171.27771,0.05835
4173.20618,0.05979
4175.13465,0.06629
4177.06312,0.06805
4178.99158,0.06619
4180.92005,0.06346
4182.84852,0.05658
4184.77699,0.04715
4186.70546,0.04419
4188.63393,0.04844
4190.56240,0.05309
4192.49087,0.05416
4194.41933,0.04993
4196.34780,0.04855
4198.27627,0.05890
4200.20474,0.07022
4202.13321,0.07265
4204.06168,0.07215
4205.99015,0.07164
4207.91861,0.06684
4209.84708,0.05997
4211.77555,0.05674
4213.70402,0.05393
4215.63249,0.05209
4217.56096,0.05340
4219.48943,0.05118
4221.41789,0.04729
4223.34636,0.04901
4225.27483,0.05594
4227.20330,0.06361
4229.13177,0.06569
4231.06024,0.05963
4232.98871,0.05217
4234.91718,0.05223
4236.84564,0.06074
4238.77411,0.06972
4240.70258,0.06765
4242.63105,0.05373
4244.55952,0.04230
4246.48799,0.04003
4248.41646,0.04080
4250.34492,0.04291
4252.27339,0.04738
4254.20186,0.05494
4256.13033,0.06426
4258.05880,0.06351
4259.98727,0.05360
4261.91574,0.05137
4263.84421,0.05813
4265.77267,0.06698
4267.70114,0.07047
4269.62961,0.06351
4271.55808,0.05350
4273.48655,0.04388
4275.41502,0.03090
4277.34349,0.02192
4279.27195,0.02739
4281.20042,0.03749
4283.12889,0.04007
4285.05736,0.04102
4286.98583,0.04381
4288.91430,0.04341
4290.84277,0.04003
4292.77124,0.03963
4294.69970,0.04192
4296.62817,0.04198
4298.55664,0.04100
4300.48511,0.03971
4302.41358,0.03657
4304.34205,0.03959
4306.27052,0.05113
4308.19898,0.05435
4310.12745,0.04634
4312.05592,0.04137
4313.98439,0.04159
4315.91286,0.04163
4317.84133,0.04048
4319.76980,0.03805
4321.69827,0.03584
4323.62673,0.03710
4325.55520,0.03939
4327.48367,0.04026
4329.41214,0.03770
4331.34061,0.03345
4333.26908,0.03443
4335.19755,0.03672
4337.12601,0.03680
4339.05448,0.03469
4340.98295,0.03015
4342.91142,0.02840
4344.83989,0.02901
4346.76836,0.02874
4348.69683,0.02957
4350.62530,0.03436
4352.55376,0.04023
4354.48223,0.04025
4356.41070,0.03510
4358.33917,0.03086
4360.26764,0.02964
4362.19611,0.02984
4364.12458,0.02845
4366.05304,0.02591
4367.98151,0.02487
4369.90998,0.02134
4371.83845,0.01800
4373.76692,0.02584
4375.69539,0.03609
4377.62386,0.03622
4379.55232,0.03503
4381.48079,0.03427
4383.40926,0.02648
4385.33773,0.01523
4387.26620,0.00542
4389.19467,-0.00037
4391.12314,-0.00239
4393.05161,-0.00465
4394.98007,-0.00284
4396.90854,0.00927
4398.83701,0.02172
4400.76548,0.02405
4402.69395,0.01934
4404.62242,0.01105
4406.55089,0.00371
4408.47935,0.00492
4410.40782,0.01465
4412.33629,0.02041
4414.26476,0.01033
4416.19323,-0.00581
4418.12170,-0.00619
4420.05017,0.00858
4421.97864,0.01933
4423.90710,0.01765
4425.83557,0.00666
4427.76404,-0.00323
4429.69251,-0.00217
4431.62098,0.00335
4433.54945,0.00372
4435.47792,0.00391
4437.40638,0.01227
4439.33485,0.02394
4441.26332,0.02558
4443.19179,0.01659
4445.12026,0.01351
4447.04873,0.01751
4448.97720,0.01382
4450.90567,0.00602
4452.83413,0.00261
4454.76260,0.00121
4456.69107,0.00650
4458.61954,0.01953
4460.54801,0.02332
4462.47648,0.01045
4464.40495,-0.00790
4466.33341,-0.01610
4468.26188,-0.00985
4470.19035,-0.00058
4472.11882,0.00555
4474.04729,0.00663
4475.97576,0.00459
4477.90423,0.00640
4479.83270,0.00896
4481.76116,0.00670
4483.68963,-0.00349
4485.61810,-0.01507
4487.54657,-0.01681
4489.47504,-0.00967
4491.40351,-0.00090
4493.33198,0.00594
4495.26044,0.00690
4497.18891,0.00112
4499.11738,-0.00167
4501.04585,0.00315
4502.97432,0.00629
4504.90279,0.00390
4506.83126,0.00599
4508.75973,0.01194
4510.68819,0.01064
4512.61666,0.00389
4514.54513,0.00091
4516.47360,0.00517
4518.40207,0.00916
4520.33054,0.00708
4522.25901,0.00437
4524.18747,0.00503
4526.11594,0.00655
4528.04441,0.00896
4529.97288,0.01459
4531.90135,0.01996
4533.82982,0.01887
4535.75829,0.00768
4537.68676,-0.00817
4539.61522,-0.01581
4541.54369,-0.01385
4543.47216,-0.01310
4545.40063,-0.01224
4547.32910,-0.00250
4549.25757,0.00352
4551.18604,-0.00453
4553.11450,-0.01383
4555.04297,-0.01338
4556.97144,-0.00266
4558.89991,0.01331
4560.82838,0.02284
4562.75685,0.01338
4564.68532,-0.00545
4566.61378,-0.01450
4568.54225,-0.01274
4570.47072,0.00051
4572.39919,0.01783
4574.32766,0.02241
4576.25613,0.01831
4578.18460,0.01544
4580.11307,0.01112
4582.04153,0.00735
4583.97000,0.01082
4585.89847,0.01826
4587.82694,0.02046
4589.75541,0.01891
4591.68388,0.02444
4593.61235,0.02864
4595.54081,0.01565
4597.46928,0.00421
4599.39775,0.01495
4601.32622,0.02689
4603.25469,0.02690
4605.18316,0.02757
4607.11163,0.02246
4609.04010,0.00719
4610.96856,-0.00601
4612.89703,-0.01047
4614.82550,-0.00501
4616.75397,0.00536
4618.68244,0.01128
4620.61091,0.00609
4622.53938,-0.00405
4624.46784,-0.00897
4626.39631,-0.00928
4628.32478,-0.00429
4630.25325,0.00628
4632.18172,0.01394
4634.11019,0.01246
4636.03866,0.00566
4637.96713,0.00318
4639.89559,0.00647
4641.82406,0.00955
4643.75253,0.01275
4645.68100,0.01429
4647.60947,0.01193
4649.53794,0.00637
4651.46641,0.00127
4653.39487,0.00424
4655.32334,0.00927
4657.25181,0.01017
4659.18028,0.01327
4661.10875,0.01883
4663.03722,0.01849
4664.96569,0.01193
4666.89416,0.01063
4668.82262,0.01360
4670.75109,0.00860
4672.67956,0.00076
4674.60803,0.00201
4676.53650,0.00501
4678.46497,0.00171
4680.39344,0.00358
4682.32190,0.01303
4684.25037,0.01392
4686.17884,0.00409
4688.10731,-0.00097
4690.03578,0.00567
4691.96425,0.01520
4693.89272,0.01632
4695.82119,0.01138
4697.74965,0.00656
4699.67812,-0.00449
4701.60659,-0.02043
4703.53506,-0.02816
4705.46353,-0.02191
4707.39200,-0.00934
4709.32047,0.00251
4711.24893,0.01413
4713.17740,0.02015
4715.10587,0.01836
4717.03434,0.01460
4718.96281,0.01164
4720.89128,0.01057
4722.81975,0.00757
4724.74821,0.00470
4726.67668,0.00184
4728.60515,0.00117
4730.53362,-0.00522
4732.46209,-0.01749
4734.39056,-0.01818
4736.31903,-0.00576
4738.24750,0.00237
4740.17596,-0.00030
4742.10443,-0.00339
4744.03290,0.00189
4745.96137,0.01099
4747.88984,0.01594
4749.81831,0.01778
4751.74678,0.01639
4753.67524,0.01329
4755.60371,0.00536
4757.53218,-0.01051
4759.46065,-0.02130
4761.38912,-0.01902
4763.31759,-0.00836
4765.24606,0.00534
4767.17453,0.01256
4769.10299,0.00999
4771.03146,0.00327
4772.95993,0.00263
4774.88840,0.01134
4776.81687,0.01564
4778.74534,0.01282
4780.67381,0.01292
4782.60227,0.01168
4784.53074,0.00596
4786.45921,0.00606
4788.38768,0.01617
4790.31615,0.02487
4792.24462,0.02486
4794.17309,0.01994
4796.10156,0.00995
4798.03002,0.00097
4799.95849,0.00172
4801.88696,0.01094
4803.81543,0.02313
4805.74390,0.02381
4807.67237,0.00789
4809.60084,-0.00755
4811.52930,-0.00676
4813.45777,0.00924
4815.38624,0.02069
4817.31471,0.01558
4819.24318,0.00707
4821.17165,0.00287
4823.10012,0.00773
4825.02859,0.02627
4826.95705,0.04041
4828.88552,0.03774
4830.81399,0.03130
4832.74246,0.02566
4834.67093,0.01602
4836.59940,0.01073
4838.52787,0.01415
4840.45633,0.01796
4842.38480,0.01740
4844.31327,0.01023
4846.24174,0.00284
4848.17021,0.00129
4850.09868,0.00072
4852.02715,-0.00002
4853.95562,-0.00138
4855.88408,-0.00354
4857.81255,0.00199
4859.74102,0.00811
4861.66949,0.00768
4863.59796,0.00578
4865.52643,-0.00823
4867.45490,-0.02564
4869.38336,-0.02134
4871.31183,-0.00954
4873.24030,-0.00722
4875.16877,-0.00352
4877.09724,0.00421
4879.02571,0.00814
4880.95418,0.00801
4882.88265,0.01429
4884.81111,0.02686
4886.73958,0.02482
4888.66805,0.00737
4890.59652,-0.00102
4892.52499,0.00717
4894.45346,0.01125
4896.38193,0.00120
4898.31039,-0.00020
4900.23886,0.01408
4902.16733,0.02208
4904.09580,0.01675
4906.02427,0.01181
4907.95274,0.01220
4909.88121,0.00296
4911.80967,-0.01358
4913.73814,-0.01248
4915.66661,-0.00454
4917.59508,-0.00814
4919.52355,-0.00532
4921.45202,0.01345
4923.38049,0.02411
4925.30896,0.01113
4927.23742,-0.00453
4929.16589,-0.00536
4931.09436,-0.00073
4933.02283,-0.00225
4934.95130,-0.01333
4936.87977,-0.02261
4938.80824,-0.01949
4940.73670,-0.00758
4942.66517,0.00297
4944.59364,0.00342
4946.52211,0.00431
4948.45058,0.01268
4950.37905,0.01204
4952.30752,0.00266
4954.23599,0.00262
4956.16445,0.01024
4958.09292,0.01408
4960.02139,0.01213
4961.94986,0.01089
4963.87833,0.01643
4965.80680,0.02224
4967.73527,0.01738
4969.66373,0.00711
4971.59220,0.00842
4973.52067,0.01631
4975.44914,0.01828
4977.37761,0.02360
4979.30608,0.02512
4981.23455,0.00710
4983.16302,-0.01983
4985.09148,-0.03692
4987.01995,-0.03166
4988.94842,-0.01096
4990.87689,0.00213
4992.80536,0.00030
4994.73383,0.00258
4996.66230,0.02534
4998.59076,0.05021
5000.51923,0.05596
5002.44770,0.04338
5004.37617,0.01908
5006.30464,0.00090
5008.23311,-0.00027
5010.16158,-0.00552
5012.09005,-0.02016
5014.01851,-0.01856
5015.94698,-0.00412
5017.87545,0.00307
5019.80392,-0.00069
5021.73239,-0.00258
5023.66086,0.01311
5025.58933,0.02899
5027.51779,0.02660
5029.44626,0.01907
5031.37473,0.02004
5033.30320,0.03136
5035.23167,0.04099
5037.16014,0.04024
5039.08861,0.03144
5041.01708,0.01289
5042.94554,-0.00388
5044.87401,-0.00278
5046.80248,-0.00033
5048.73095,-0.00365
5050.65942,0.00353
5052.58789,0.00968
5054.51636,0.00353
5056.44482,-0.00051
5058.37329,-0.00014
5060.30176,-0.00897
5062.23023,-0.01873
5064.15870,-0.01313
5066.08717,-0.00354
5068.01564,0.00321
5069.94410,0.01506
5071.87257,0.02488
5073.80104,0.02211
5075.72951,0.01435
5077.65798,0.01208
5079.58645,0.01132
5081.51492,0.00607
5083.44339,-0.00296
5085.37185,-0.00919
5087.30032,-0.00424
5089.22879,0.00402
5091.15726,0.00359
5093.08573,0.00597
5095.01420,0.02153
5096.94267,0.03597
5098.87113,0.02991
5100.79960,0.00608
5102.72807,-0.01149
5104.65654,-0.00900
5106.58501,0.00562
5108.51348,0.01658
5110.44195,0.01826
5112.37042,0.01831
5114.29888,0.02317
5116.22735,0.04048
5118.15582,0.05908
5120.08429,0.05871
5122.01276,0.04898
5123.94123,0.03210
5125.86970,0.00791
5127.79816,0.00147
5129.72663,0.01060
5131.65510,0.00862
5133.58357,-0.00451
5135.51204,-0.01225
5137.44051,-0.00642
5139.36898,0.00908
5141.29745,0.01850
5143.22591,0.01707
5145.15438,0.02064
5147.08285,0.02852
5149.01132,0.02502
5150.93979,0.01489
5152.86826,0.00871
5154.79673,0.01093
5156.72519,0.02586
5158.65366,0.03680
5160.58213,0.03211
5162.51060,0.02760
5164.43907,0.03162
5166.36754,0.04065
5168.29601,0.04452
5170.22448,0.03462
5172.15294,0.02559
5174.08141,0.02419
5176.00988,0.02034
5177.93835,0.02357
5179.86682,0.03925
5181.79529,0.04970
5183.72376,0.04566
5185.65222,0.03087
5187.58069,0.01588
5189.50916,0.01319
5191.43763,0.01852
5193.36610,0.00950
5195.29457,-0.01085
5197.22304,-0.00785
5199.15151,0.01458
5201.07997,0.01812
5203.00844,0.00487
5204.93691,0.00708
5206.86538,0.03086
5208.79385,0.04208
5210.72232,0.03231
5212.65079,0.02688
5214.57925,0.03318
5216.50772,0.03564
5218.43619,0.02573
5220.36466,0.01160
5222.29313,0.00601
5224.22160,0.01146
5226.15007,0.01968
5228.07854,0.01922
5230.00700,0.01441
5231.93547,0.02017
5233.86394,0.03087
5235.79241,0.03700
5237.72088,0.03807
5239.64935,0.03407
5241.57782,0.03532
5243.50628,0.04960
5245.43475,0.07181
5247.36322,0.08221
5249.29169,0.06996
5251.22016,0.04991
5253.14863,0.03371
5255.07710,0.02631
5257.00556,0.02178
5258.93403,0.00875
5260.86250,-0.00233
5262.79097,0.00836
5264.71944,0.03187
5266.64791,0.04271
5268.57638,0.04218
5270.50485,0.02553
5272.43331,0.01165
5274.36178,0.04038
5276.29025,0.06683
5278.21872,0.04322
5280.14719,0.01377
5282.07566,0.01311
5284.00413,0.03748
5285.93259,0.07094
5287.86106,0.08297
5289.78953,0.08293
5291.71800,0.09232
5293.64647,0.08790
5295.57494,0.06164
5297.50341,0.02947
5299.43188,0.01109
5301.36034,0.03669
5303.28881,0.08740
5305.21728,0.10877
5307.14575,0.09183
5309.07422,0.05252
5311.00269,0.02815
5312.93116,0.03860
5314.85962,0.04487
5316.78809,0.02720
5318.71656,0.00812
5320.64503,0.00111
5322.57350,0.01147
5324.50197,0.03922
5326.43044,0.06059
5328.35891,0.04851
5330.28737,0.03871
5332.21584,0.05786
5334.14431,0.06719
5336.07278,0.05697
5338.00125,0.04853
5339.92972,0.04242
5341.85819,0.03965
5343.78665,0.03988
5345.71512,0.04004
5347.64359,0.04845
5349.57206,0.05452
5351.50053,0.03683
5353.42900,0.00689
5355.35747,-0.00570
5357.28594,-0.00623
5359.21440,-0.00248
5361.14287,0.01661
5363.07134,0.04310
5364.99981,0.05707
5366.92828,0.04866
5368.85675,0.02203
5370.78522,-0.00206
5372.71368,-0.00506
5374.64215,0.01459
5376.57062,0.03681
5378.49909,0.03634
5380.42756,0.02900
5382.35603,0.04246
5384.28450,0.05666
5386.21297,0.03136
5388.14143,-0.00107
5390.06990,0.00352
5391.99837,0.04276
5393.92684,0.08499
5395.85531,0.08182
5397.78378,0.04335
5399.71225,0.00527
5401.64071,-0.02218
5403.56918,-0.01842
5405.49765,0.00353
5407.42612,-0.00313
5409.35459,-0.01696
5411.28306,-0.00011
5413.21153,0.01852
5415.13999,0.02917
5417.06846,0.06057
5418.99693,0.10192
5420.92540,0.12406
5422.85387,0.10860
5424.78234,0.06966
5426.71081,0.04224
5428.63928,0.02265
5430.56774,0.00364
5432.49621,0.00920
5434.42468,0.03323
5436.35315,0.04218
5438.28162,0.01961
5440.21009,-0.00621
5442.13856,0.01729
5444.06702,0.06375
5445.99549,0.07672
5447.92396,0.07665
5449.85243,0.08327
5451.78090,0.07521
5453.70937,0.04261
5455.63784,0.01196
5457.56631,0.02290
5459.49477,0.05073
5461.42324,0.05603
5463.35171,0.05343
5465.28018,0.05582
5467.20865,0.05582
5469.13712,0.04721
5471.06559,0.02165
5472.99405,-0.00393
5474.92252,0.00021
5476.85099,0.02397
5478.77946,0.03556
5480.70793,0.04025
5482.63640,0.05754
5484.56487,0.07997
5486.49334,0.09860
5488.42180,0.11035
5490.35027,0.10299
5492.27874,0.08117
5494.20721,0.05265
5496.13568,0.02441
5498.06415,0.00998
5499.99262,0.01572
5501.92108,0.03605
5503.84955,0.05919
5505.77802,0.07179
5507.70649,0.06705
5509.63496,0.05315
5511.56343,0.04116
5513.49190,0.04425
5515.42037,0.05732
5517.34883,0.04718
5519.27730,0.02080
5521.20577,0.01774
5523.13424,0.03315
5525.06271,0.03870
5526.99118,0.02912
5528.91965,0.01436
5530.84811,-0.00116
5532.77658,-0.00732
5534.70505,0.00889
5536.63352,0.03432
5538.56199,0.06096
5540.49046,0.07523
5542.41893,0.05923
5544.34740,0.05568
5546.27586,0.07629
5548.20433,0.07526
5550.13280,0.05138
5552.06127,0.01650
5553.98974,-0.01404
5555.91821,-0.01466
5557.84668,0.00244
5559.77514,0.00824
5561.70361,-0.00120
5563.63208,0.00134
5565.56055,0.02712
5567.48902,0.04791
5569.41749,0.05204
5571.34596,0.04949
5573.27443,0.05847
5575.20289,0.08695
5577.13136,0.10977
5579.05983,0.11385
5580.98830,0.10275
5582.91677,0.07149
5584.84524,0.03533
5586.77371,0.02789
5588.70217,0.04986
5590.63064,0.06860
5592.55911,0.07187
5594.48758,0.08093
5596.41605,0.09451
5598.34452,0.10494
5600.27299,0.13474
5602.20145,0.15407
5604.12992,0.11463
5606.05839,0.05763
5607.98686,0.05064
5609.91533,0.06591
5611.84380,0.03550
5613.77227,0.00735
5615.70074,0.03969
5617.62920,0.06395
5619.55767,0.03695
5621.48614,0.02009
5623.41461,0.04022
5625.34308,0.05241
5627.27155,0.04898
5629.20002,0.05362
5631.12848,0.05769
5633.05695,0.06325
5634.98542,0.08426
5636.91389,0.09144
5638.84236,0.05734
5640.77083,0.03389
5642.69930,0.05905
5644.62777,0.07385
5646.55623,0.05290
5648.48470,0.04884
5650.41317,0.06476
5652.34164,0.06745
5654.27011,0.06052
5656.19858,0.08311
5658.12705,0.13829
5660.05551,0.17162
5661.98398,0.15199
5663.91245,0.08260
5665.84092,0.01321
5667.76939,0.01923
5669.69786,0.07797
5671.62633,0.10547
5673.55480,0.08350
5675.48326,0.04374
5677.41173,0.01827
5679.34020,0.02397
5681.26867,0.04598
5683.19714,0.06162
5685.12561,0.07007
5687.05408,0.07143
5688.98254,0.05931
5690.91101,0.06146
5692.83948,0.09399
5694.76795,0.12296
5696.69642,0.12963
5698.62489,0.10780
5700.55336,0.07835
5702.48183,0.09450
5704.41029,0.13583
5706.33876,0.14233
5708.26723,0.11197
5710.19570,0.07375
5712.12417,0.04306
5714.05264,0.02964
5715.98111,0.04266
5717.90957,0.07179
5719.83804,0.07509
5721.76651,0.02939
5723.69498,-0.01808
5725.62345,-0.02078
5727.55192,0.01236
5729.48039,0.04858
5731.40886,0.07300
5733.33732,0.08636
5735.26579,0.08086
5737.19426,0.06679
5739.12273,0.05676
5741.05120,0.05140
5742.97967,0.04454
5744.90814,0.03470
5746.83660,0.04495
5748.76507,0.06518
5750.69354,0.06530
5752.62201,0.03526
5754.55048,-0.00513
5756.47895,-0.00704
5758.40742,0.02281
5760.33588,0.03836
5762.26435,0.01882
5764.19282,-0.01851
5766.12129,-0.01672
5768.04976,0.04210
5769.97823,0.09409
5771.90670,0.09492
5773.83517,0.07009
5775.76363,0.03076
5777.69210,-0.01357
5779.62057,-0.02792
5781.54904,-0.02616
5783.47751,-0.02662
5785.40598,-0.01285
5787.33445,-0.00838
5789.26291,-0.01741
5791.19138,-0.00333
5793.11985,0.01337
5795.04832,0.02349
5796.97679,0.04549
5798.90526,0.05459
5800.83373,0.03601
5802.76220,0.01163
5804.69066,0.00693
5806.61913,0.01667
5808.54760,0.01301
5810.47607,0.00329
5812.40454,0.01139
5814.33301,0.03241
5816.26148,0.05350
5818.18994,0.06765
5820.11841,0.05961
5822.04688,0.02991
5823.97535,0.02621
5825.90382,0.06007
5827.83229,0.09231
5829.76076,0.13203
5831.68923,0.17052
5833.61769,0.15878
5835.54616,0.12019
5837.47463,0.09343
5839.40310,0.08818
5841.33157,0.10030
5843.26004,0.08136
5845.18851,0.03413
5847.11697,0.03118
5849.04544,0.07645
5850.97391,0.09316
5852.90238,0.05285
5854.83085,-0.00536
5856.75932,-0.01771
5858.68779,0.03929
5860.61626,0.09589
5862.54472,0.10053
5864.47319,0.09315
5866.40166,0.09619
5868.33013,0.07698
5870.25860,0.03993
5872.18707,0.02965
5874.11554,0.03390
5876.04400,0.01733
5877.97247,0.02887
5879.90094,0.08222
5881.82941,0.10991
5883.75788,0.11020
5885.68635,0.11374
5887.61482,0.13174
5889.54329,0.13381
5891.47175,0.09298
5893.40022,0.07028
5895.32869,0.08530
5897.25716,0.08684
5899.18563,0.07152
5901.11410,0.05707
5903.04257,0.04702
5904.97103,0.05245
5906.89950,0.06103
5908.82797,0.05035
5910.75644,0.02632
5912.68491,-0.01701
5914.61338,-0.06951
5916.54185,-0.07284
5918.47032,-0.03191
5920.39878,0.00663
5922.32725,0.04791
5924.25572,0.08513
5926.18419,0.10814
5928.11266,0.12968
5930.04113,0.14513
5931.96960,0.14224
5933.89806,0.10197
5935.82653,0.06653
5937.75500,0.09607
5939.68347,0.12913
5941.61194,0.09832
5943.54041,0.05005
5945.46888,0.04640
5947.39734,0.07088
5949.32581,0.08192
5951.25428,0.08404
5953.18275,0.08972
5955.11122,0.07468
5957.03969,0.05858
5958.96816,0.04806
5960.89663,0.00956
5962.82509,-0.00363
5964.75356,0.02270
5966.68203,0.03278
5968.61050,0.04160
5970.53897,0.06323
5972.46744,0.07505
5974.39591,0.09144
5976.32437,0.08902
5978.25284,0.07091
5980.18131,0.11655
5982.10978,0.19501
5984.03825,0.19828
5985.96672,0.11607
5987.89519,0.02300
5989.82366,-0.00681
5991.75212,0.04788
5993.68059,0.12530
5995.60906,0.15538
5997.53753,0.14556
5999.46600,0.10301
6001.39447,0.03168
6003.32294,-0.00091
6005.25140,0.05809
6007.17987,0.13404
6009.10834,0.14799
6011.03681,0.13000
6012.96528,0.09647
6014.89375,0.05802
6016.82222,0.06057
6018.75069,0.11219
6020.67915,0.15373
6022.60762,0.13192
6024.53609,0.08660
6026.46456,0.07386
6028.39303,0.05506
6030.32150,-0.01013
6032.24997,-0.05615
6034.17843,-0.03875
6036.10690,0.01251
6038.03537,0.06172
6039.96384,0.09548
6041.89231,0.11329
6043.82078,0.10855
6045.74925,0.09687
6047.67772,0.08100
6049.60618,0.07441
6051.53465,0.09713
6053.46312,0.09384
6055.39159,0.06888
6057.32006,0.10561
6059.24853,0.15373
6061.17700,0.11474
6063.10546,0.03777
6065.03393,0.00056
6066.96240,-0.00018
6068.89087,0.02224
6070.81934,0.05593
6072.74781,0.08806
6074.67628,0.07909
6076.60475,0.02733
6078.53321,0.01005
6080.46168,0.01796
6082.39015,-0.00209
6084.31862,0.02252
6086.24709,0.11011
6088.17556,0.14042
6090.10403,0.12894
6092.03249,0.14194
6093.96096,0.13935
6095.88943,0.11582
6097.81790,0.10078
6099.74637,0.08325
6101.67484,0.06091
6103.60331,0.04686
6105.53177,0.03346
6107.46024,0.02974
6109.38871,0.05552
6111.31718,0.07934
6113.24565,0.06634
6115.17412,0.04103
6117.10259,0.04420
6119.03106,0.06613
6120.95952,0.09739
6122.88799,0.13570
6124.81646,0.11461
6126.74493,0.02528
6128.67340,-0.03733
6130.60187,-0.03567
6132.53034,-0.02019
6134.45880,-0.02599
6136.38727,-0.04180
6138.31574,-0.02125
6140.24421,0.05939
6142.17268,0.15350
6144.10115,0.19620
6146.02962,0.14386
6147.95809,0.03448
6149.88655,-0.03014
6151.81502,-0.00107
6153.74349,0.07836
6155.67196,0.10933
6157.60043,0.05959
6159.52890,0.00066
6161.45737,0.01070
6163.38583,0.04969
6165.31430,0.03297
6167.24277,0.02399
6169.17124,0.07317
6171.09971,0.11968
6173.02818,0.11490
6174.95665,0.07595
6176.88512,0.05637
6178.81358,0.08222
6180.74205,0.13060
6182.67052,0.13130
6184.59899,0.07711
6186.52746,0.04825
6188.45593,0.05432
6190.38440,0.06924
6192.31286,0.09981
6194.24133,0.10675
6196.16980,0.06276
6198.09827,0.03154
6200.02674,0.06363
6201.95521,0.09334
6203.88368,0.06400
6205.81215,0.04432
6207.74061,0.07158
6209.66908,0.08487
6211.59755,0.06251
6213.52602,0.04240
6215.45449,0.05287
6217.38296,0.07596
6219.31143,0.08403
6221.23989,0.09294
6223.16836,0.11224
6225.09683,0.13874
6227.02530,0.14248
6228.95377,0.07947
6230.88224,-0.00954
6232.81071,-0.02034
6234.73918,0.06815
6236.66764,0.17297
6238.59611,0.23345
6240.52458,0.23607
6242.45305,0.18725
6244.38152,0.13457
6246.30999,0.13233
6248.23846,0.10851
6250.16692,0.01835
6252.09539,0.00573
6254.02386,0.04657
6255.95233,0.00124
6257.88080,-0.03189
6259.80927,0.02904
6261.73774,0.08566
6263.66621,0.11710
6265.59467,0.17814
6267.52314,0.20683
6269.45161,0.13873
6271.38008,0.06409
6273.30855,0.05976
6275.23702,0.05998
6277.16549,0.02681
6279.09395,0.02774
6281.02242,0.03650
6282.95089,0.01035
6284.87936,0.02207
6286.80783,0.11586
6288.73630,0.17679
6290.66477,0.11558
6292.59323,0.03148
6294.52170,0.02922
6296.45017,0.09376
6298.37864,0.13776
6300.30711,0.13394
6302.23558,0.13418
6304.16405,0.11580
6306.09252,0.06542
6308.02098,0.03883
6309.94945,0.01094
6311.87792,-0.03246
6313.80639,0.00791
6315.73486,0.10842
6317.66333,0.14551
6319.59180,0.12638
6321.52026,0.10143
6323.44873,0.04919
6325.37720,-0.02071
6327.30567,-0.03839
6329.23414,0.00440
6331.16261,0.05678
6333.09108,0.09126
6335.01955,0.07903
6336.94801,0.03496
6338.87648,0.00654
6340.80495,0.01731
6342.73342,0.06181
6344.66189,0.09489
6346.59036,0.10466
6348.51883,0.13042
6350.44729,0.14541
6352.37576,0.12014
6354.30423,0.10528
6356.23270,0.10782
6358.16117,0.08385
6360.08964,0.02331
6362.01811,-0.02053
6363.94658,-0.02715
6365.87504,-0.03451
6367.80351,-0.03253
6369.73198,-0.01224
6371.66045,0.00621
6373.58892,0.02599
6375.51739,0.03946
6377.44586,0.02897
6379.37432,0.00674
6381.30279,0.01287
6383.23126,0.07032
6385.15973,0.12216
6387.08820,0.10188
6389.01667,0.04673
6390.94514,0.01720
6392.87361,0.03354
6394.80207,0.05961
6396.73054,0.07590
6398.65901,0.11882
6400.58748,0.14515
6402.51595,0.10945
6404.44442,0.07809
6406.37289,0.09383
6408.30135,0.09818
6410.22982,0.04824
6412.15829,0.05635
6414.08676,0.13906
6416.01523,0.12189
6417.94370,-0.03085
6419.87217,-0.13247
6421.80064,-0.09453
6423.72910,-0.02002
6425.65757,0.01644
6427.58604,-0.01314
6429.51451,-0.09946
6431.44298,-0.12706
6433.37145,-0.04256
6435.29992,0.01902
6437.22838,0.01209
6439.15685,0.04329
6441.08532,0.07868
6443.01379,0.01001
6444.94226,-0.05421
6446.87073,-0.01855
6448.79920,0.03571
6450.72766,0.06461
6452.65613,0.03521
6454.58460,-0.02897
6456.51307,-0.04934
6458.44154,-0.05033
6460.37001,-0.05394
6462.29848,-0.02781
6464.22695,-0.00421
6466.15541,0.00652
6468.08388,0.02771
6470.01235,0.02662
6471.94082,0.00793
6473.86929,0.02587
6475.79776,0.05175
6477.72623,0.01256
6479.65469,-0.05182
6481.58316,-0.03945
6483.51163,0.04001
6485.44010,0.10540
6487.36857,0.10713
6489.29704,0.06347
6491.22551,0.04937
6493.15398,0.08178
6495.08244,0.12173
6497.01091,0.13533
6498.93938,0.11895
6500.86785,0.11005
6502.79632,0.10541
6504.72479,0.05654
6506.65326,-0.03487
6508.58172,-0.11271
6510.51019,-0.08888
6512.43866,-0.00283
6514.36713,0.01407
6516.29560,0.02515
6518.22407,0.05664
6520.15254,0.05258
6522.08101,0.06504
6524.00947,0.07889
6525.93794,0.01519
6527.86641,-0.08149
6529.79488,-0.10721
6531.72335,-0.07782
6533.65182,-0.07250
6535.58029,-0.07150
6537.50875,-0.02432
6539.43722,0.04799
6541.36569,0.08865
6543.29416,0.07556
6545.22263,0.03518
6547.15110,0.02786
6549.07957,0.04252
6551.00804,0.01980
6552.93650,-0.01277
6554.86497,0.00635
6556.79344,0.04795
6558.72191,0.04246
6560.65038,-0.00089
6562.57885,-0.02737
6564.50732,0.04435
6566.43578,0.18270
6568.36425,0.18006
6570.29272,0.03308
6572.22119,-0.04564
6574.14966,0.06749
6576.07813,0.25056
6578.00660,0.28974
6579.93507,0.19820
6581.86353,0.14422
6583.79200,0.11608
6585.72047,0.02631
6587.64894,-0.03928
6589.57741,0.02862
6591.50588,0.16161
6593.43435,0.22605
6595.36281,0.17944
6597.29128,0.08673
6599.21975,0.02601
6601.14822,0.01873
6603.07669,0.04883
6605.00516,0.09129
6606.93363,0.06894
6608.86210,-0.04704
6610.79056,-0.17568
6612.71903,-0.17795
6614.64750,-0.01089
6616.57597,0.14735
6618.50444,0.15297
6620.43291,0.10783
6622.36138,0.09968
6624.28984,0.05628
6626.21831,-0.03258
6628.14678,-0.06612
6630.07525,-0.02937
6632.00372,0.01222
6633.93219,0.03290
6635.86066,0.05166
6637.78912,0.07877
6639.71759,0.04852
6641.64606,-0.02378
6643.57453,-0.01912
6645.50300,0.02970
6647.43147,0.02431
6649.35994,0.02857
6651.28841,0.08341
6653.21687,0.15515
6655.14534,0.17310
6657.07381,0.07656
6659.00228,0.01178
6660.93075,0.09912
6662.85922,0.18348
6664.78769,0.15134
6666.71615,0.04785
6668.64462,-0.01484
6670.57309,0.04445
6672.50156,0.12430
6674.43003,0.10664
6676.35850,0.07982
6678.28697,0.10828
6680.21544,0.13601
6682.14390,0.12144
6684.07237,0.06516
6686.00084,0.03350
6687.92931,0.09657
6689.85778,0.12465
6691.78625,0.03995
6693.71472,-0.02042
6695.64318,-0.01598
6697.57165,0.01697
6699.50012,0.00581
6701.42859,-0.08227
6703.35706,-0.12683
6705.28553,-0.07980
6707.21400,-0.03746
6709.14247,-0.01888
6711.07093,0.04448
6712.99940,0.15694
6714.92787,0.20374
6716.85634,0.13173
6718.78481,0.09064
6720.71328,0.11358
6722.64175,0.06286
6724.57021,0.00659
6726.49868,0.04431
6728.42715,0.07967
6730.35562,0.05528
6732.28409,0.00826
6734.21256,-0.04588
6736.14103,-0.03609
6738.06950,0.05701
6739.99796,0.14858
6741.92643,0.20944
6743.85490,0.19998
6745.78337,0.12356
6747.71184,0.07540
6749.64031,0.09618
6751.56878,0.12136
6753.49724,0.07755
6755.42571,0.00180
6757.35418,-0.01695
6759.28265,-0.01803
6761.21112,-0.01820
6763.13959,0.10212
6765.06806,0.22537
6766.99653,0.20660
6768.92499,0.17608
6770.85346,0.17091
6772.78193,0.10104
6774.71040,0.03082
6776.63887,0.04731
6778.56734,0.08822
6780.49581,0.10257
6782.42427,0.10348
6784.35274,0.06718
6786.28121,-0.00113
6788.20968,-0.02728
6790.13815,0.00276
6792.06662,-0.01458
6793.99509,-0.12704
6795.92355,-0.22634
6797.85202,-0.23360
6799.78049,-0.18192
6801.70896,-0.09880
6803.63743,-0.00078
6805.56590,0.08129
6807.49437,0.12819
6809.42284,0.13497
6811.35130,0.09687
6813.27977,0.08439
6815.20824,0.18652
6817.13671,0.30574
6819.06518,0.32994
6820.99365,0.27105
6822.92212,0.11284
6824.85058,-0.03913
6826.77905,-0.04507
6828.70752,0.06160
6830.63599,0.16608
6832.56446,0.19612
6834.49293,0.17588
6836.42140,0.12828
6838.34987,0.05947
6840.27833,0.02509
6842.20680,-0.01512
6844.13527,-0.11236
6846.06374,-0.14483
6847.99221,-0.07863
6849.92068,-0.05538
6851.84915,-0.12300
6853.77761,-0.15378
6855.70608,-0.07117
6857.63455,0.00125
6859.56302,0.06187
6861.49149,0.19428
6863.41996,0.29346
6865.34843,0.29849
6867.27690,0.21581
6869.20536,0.08928
6871.13383,0.03496
6873.06230,0.03554
6874.99077,0.01906
6876.91924,0.05576
6878.84771,0.14051
6880.77618,0.13721
6882.70464,0.06287
6884.63311,0.02484
6886.56158,0.01519
6888.49005,0.03486
6890.41852,0.06687
6892.34699,0.03199
6894.27546,-0.00232
6896.20393,0.03513
6898.13239,0.04858
6900.06086,-0.00483
6901.98933,0.00457
6903.91780,0.09276
6905.84627,0.09912
6907.77474,0.08411
6909.70321,0.14618
6911.63167,0.22004
6913.56014,0.31539
6915.48861,0.33346
6917.41708,0.19458
6919.34555,0.08693
6921.27402,0.10062
6923.20249,0.09288
6925.13096,0.07131
6927.05942,0.12385
6928.98789,0.21625
6930.91636,0.19304
6932.84483,0.08465
6934.77330,0.05745
6936.70177,-0.00187
6938.63024,-0.16931
6940.55870,-0.27043
6942.48717,-0.19835
6944.41564,-0.04886
6946.34411,0.17172
6948.27258,0.25974
6950.20105,0.13707
6952.12952,0.03275
6954.05799,0.08629
6955.98645,0.18306
6957.91492,0.15664
6959.84339,0.04835
6961.77186,-0.02963
6963.70033,-0.09721
6965.62880,-0.17694
6967.55727,-0.16611
6969.48573,-0.00951
6971.41420,0.15540
6973.34267,0.14328
6975.27114,-0.04920
6977.19961,-0.18516
6979.12808,-0.13398
6981.05655,-0.07081
6982.98501,-0.04692
6984.91348,0.04363
6986.84195,0.10466
6988.77042,0.07966
6990.69889,0.05685
6992.62736,0.01090
6994.55583,-0.07040
6996.48430,-0.04581
6998.41276,0.06600
7000.34123,0.06417
7002.26970,0.02901
7004.19817,0.03673
7006.12664,0.05621
7008.05511,0.10804
7009.98358,0.14708
7011.91204,0.09182
7013.84051,-0.01238
7015.76898,0.00413
7017.69745,0.06374
7019.62592,-0.00068
7021.55439,-0.12792
7023.48286,-0.16965
7025.41133,-0.07503
7027.33979,0.08297
7029.26826,0.10231
7031.19673,-0.05263
7033.12520,-0.13888
7035.05367,-0.08875
7036.98214,0.01789
7038.91061,0.10631
7040.83907,0.12853
7042.76754,0.14483
7044.69601,0.21728
7046.62448,0.23773
7048.55295,0.15825
7050.48142,0.09136
7052.40989,0.08934
7054.33836,0.14697
7056.26682,0.25275
7058.19529,0.27922
7060.12376,0.14068
7062.05223,-0.00655
7063.98070,-0.04895
7065.90917,-0.08070
7067.83764,-0.16743
7069.76610,-0.20742
7071.69457,-0.13236
7073.62304,-0.05421
7075.55151,0.01996
7077.47998,0.13411
7079.40845,0.25273
7081.33692,0.37622
7083.26539,0.40572
7085.19385,0.32678
7087.12232,0.29058
7089.05079,0.23709
7090.97926,0.09585
7092.90773,0.04434
7094.83620,0.11670
7096.76467,0.15190
7098.69313,0.13067
7100.62160,0.10071
7102.55007,-0.00294
7104.47854,-0.12920
7106.40701,-0.18149
7108.33548,-0.26927
7110.26395,-0.40927
7112.19242,-0.35047
7114.12088,-0.12269
7116.04935,-0.02842
7117.97782,0.04432
7119.90629,0.29407
7121.83476,0.42563
7123.76323,0.37069
7125.69170,0.32441
7127.62016,0.29599
7129.54863,0.16085
7131.47710,-0.01514
7133.40557,-0.03935
7135.33404,0.03218
7137.26251,-0.00824
7139.19098,-0.16719
7141.11944,-0.19032
7143.04791,-0.00884
7144.97638,0.11791
7146.90485,0.03920
7148.83332,-0.11847
7150.76179,-0.15553
7152.69026,-0.01077
7154.61873,0.05297
7156.54719,-0.02746
7158.47566,0.05921
7160.40413,0.27761
7162.33260,0.38250
7164.26107,0.40610
7166.18954,0.51615
7168.11801,0.64254
7170.04647,0.60036
7171.97494,0.34586
7173.90341,0.13688
7175.83188,0.11876
7177.76035,0.10800
7179.68882,-0.00941
7181.61729,-0.06641
7183.54576,-0.01875
7185.47422,-0.08554
7187.40269,-0.13811
7189.33116,0.06503
7191.25963,0.36000
7193.18810,0.32900
7195.11657,0.01139
7197.04504,-0.23944
7198.97350,-0.27662
7200.90197,-0.19050
7202.83044,-0.06178
7204.75891,0.04415
7206.68738,0.07941
7208.61585,0.03829
7210.54432,-0.10464
7212.47279,-0.19929
7214.40125,-0.09973
7216.32972,0.10953
7218.25819,0.25983
7220.18666,0.22491
7222.11513,0.18326
7224.04360,0.24218
7225.97207,0.22459
7227.90053,0.07756
7229.82900,-0.08284
7231.75747,-0.17986
7233.68594,-0.11823
7235.61441,0.06116
7237.54288,0.25087
7239.47135,0.29700
7241.39982,0.12893
7243.32828,-0.06947
7245.25675,-0.07410
7247.18522,-0.01108
7249.11369,0.08039
7251.04216,0.11486
7252.97063,-0.03412
7254.89910,-0.05751
7256.82756,0.12455
7258.75603,0.25860
7260.68450,0.31164
7262.61297,0.43843
7264.54144,0.39173
7266.46991,0.11343
7268.39838,-0.00100
7270.32685,0.06915
7272.25531,0.11844
7274.18378,0.14119
7276.11225,0.17015
7278.04072,0.08988
7279.96919,-0.06999
7281.89766,-0.05301
7283.82613,0.07170
7285.75459,0.13447
7287.68306,0.24085
7289.61153,0.45307
7291.54000,0.47250
7293.46847,0.17653
7295.39694,-0.01592
7297.32541,0.11215
7299.25387,0.22445
7301.18234,0.12524
7303.11081,0.00011
7305.03928,0.03448
7306.96775,0.16459
7308.89622,0.16609
7310.82469,0.03064
7312.75316,-0.04398
7314.68162,0.02656
7316.61009,0.16998
7318.53856,0.09673
7320.46703,-0.08692
7322.39550,-0.15451
7324.32397,-0.12840
7326.25244,-0.10407
7328.18090,-0.10131
7330.10937,0.03010
7332.03784,0.16219
7333.96631,-0.01564
7335.89478,-0.32654
7337.82325,-0.50327
7339.75172,-0.28466
7341.68019,0.20513
7343.60865,0.40952
7345.53712,0.32699
7347.46559,0.10878
7349.39406,-0.01766
7351.32253,-0.01408
7353.25100,0.04506
7355.17947,0.02970
7357.10793,-0.16470
7359.03640,-0.26397
7360.96487,-0.07367
7362.89334,0.12471
7364.82181,0.21759
7366.75028,0.23238
7368.67875,0.22256
7370.60722,0.23972
7372.53568,0.22590
7374.46415,0.12288
7376.39262,-0.02215
7378.32109,-0.16916
7380.24956,-0.28826
7382.17803,-0.24666
7384.10650,-0.01947
7386.03496,0.29396
7387.96343,0.48052
7389.89190,0.42901
7391.82037,0.33060
7393.74884,0.24463
7395.67731,0.04992
7397.60578,-0.17394
7399.53425,-0.25856
7401.46271,-0.19705
7403.39118,-0.06357
7405.31965,0.00798
7407.24812,0.00801
7409.17659,0.08013
7411.10506,0.17889
7413.03353,0.24080
7414.96199,0.36287
7416.89046,0.42912
7418.81893,0.21193
7420.74740,-0.00830
7422.67587,0.06218
7424.60434,0.21689
7426.53281,0.27002
7428.46128,0.21905
7430.38974,0.18808
7432.31821,0.30734
7434.24668,0.42375
7436.17515,0.33241
7438.10362,0.23130
7440.03209,0.25725
7441.96056,0.22874
7443.88902,0.15197
7445.81749,0.10065
7447.74596,0.08639
7449.67443,0.10527
7451.60290,0.12924
7453.53137,0.19814
7455.45984,0.19535
7457.38831,0.03354
7459.31677,-0.22120
7461.24524,-0.33852
7463.17371,-0.18686
7465.10218,-0.05321
7467.03065,-0.10370
7468.95912,-0.06514
7470.88759,0.09970
7472.81605,0.10945
7474.74452,-0.06071
7476.67299,-0.26182
7478.60146,-0.36596
7480.52993,-0.28828
7482.45840,-0.17671
7484.38687,-0.08174
7486.31533,0.11064
7488.24380,0.41257
7490.17227,0.60223
7492.10074,0.45129
7494.02921,0.23988
7495.95768,0.27885
7497.88615,0.53146
