399.19301,6.99923
401.12148,0.52822
403.04995,-0.04342
404.97842,0.08421
406.90689,0.05357
408.83536,-0.09375
410.76382,-0.15821
412.69229,-0.15047
414.62076,-0.09798
416.54923,-0.00906
418.47770,0.10864
420.40617,0.18952
422.33464,0.19198
424.26311,0.11952
426.19157,0.03495
428.12004,-0.01694
430.04851,-0.08338
431.97698,-0.13975
433.90545,-0.13743
435.83392,-0.11302
437.76239,-0.10441
439.69085,-0.09814
441.61932,-0.04106
443.54779,0.00690
445.47626,-0.02359
447.40473,-0.04382
449.33320,-0.06826
451.26167,-0.09770
453.19013,-0.07933
455.11860,-0.06925
457.04707,-0.10903
458.97554,-0.12817
460.90401,-0.10845
462.83248,-0.10761
464.76095,-0.10821
466.68942,-0.06956
468.61788,-0.00933
470.54635,0.05783
472.47482,0.13459
474.40329,0.22155
476.33176,0.25987
478.26023,0.24195
480.18870,0.19524
482.11716,0.09250
484.04563,-0.01852
485.97410,-0.02963
487.90257,0.01208
489.83104,0.00857
491.75951,-0.03166
493.68798,-0.02096
495.61645,0.05464
497.54491,0.10546
499.47338,0.11449
501.40185,0.13280
503.33032,0.13721
505.25879,0.11794
507.18726,0.10057
509.11573,0.08935
511.04419,0.07496
512.97266,0.05907
514.90113,0.06362
516.82960,0.06282
518.75807,0.04668
520.68654,0.04847
522.61501,0.06149
524.54348,0.07737
526.47194,0.07432
528.40041,0.02602
530.32888,-0.01253
532.25735,0.02075
534.18582,0.07061
536.11429,0.04594
538.04276,-0.02746
539.97122,-0.05965
541.89969,-0.03830
543.82816,0.00808
545.75663,0.05810
547.68510,0.08575
549.61357,0.13381
551.54204,0.28521
553.47051,0.44245
555.39897,0.41272
557.32744,0.23639
559.25591,0.10575
561.18438,0.05284
563.11285,0.04926
565.04132,0.08508
566.96979,0.11693
568.89825,0.12980
570.82672,0.14694
572.75519,0.16354
574.68366,0.15999
576.61213,0.12399
578.54060,0.08175
580.46907,0.06506
582.39754,0.06463
584.32600,0.05850
586.25447,0.04411
588.18294,0.03806
590.11141,0.04538
592.03988,0.05846
593.96835,0.08251
595.89682,0.11007
597.82528,0.12050
599.75375,0.11537
601.68222,0.08405
603.61069,0.01779
605.53916,-0.02456
607.46763,-0.00242
609.39610,0.04312
611.32456,0.07363
613.25303,0.08565
615.18150,0.07828
617.10997,0.06633
619.03844,0.07466
620.96691,0.08933
622.89538,0.07944
624.82385,0.06230
626.75231,0.06103
628.68078,0.06022
630.60925,0.06264
632.53772,0.06717
634.46619,0.05679
636.39466,0.05255
638.32313,0.06239
640.25159,0.06474
642.18006,0.05967
644.10853,0.06477
646.03700,0.08366
647.96547,0.10936
649.89394,0.13525
651.82241,0.14283
653.75088,0.11701
655.67934,0.08688
657.60781,0.08514
659.53628,0.08927
661.46475,0.06590
663.39322,0.04254
665.32169,0.05730
667.25016,0.09899
669.17862,0.13082
671.10709,0.13925
673.03556,0.13020
674.96403,0.10684
676.89250,0.09281
678.82097,0.08817
680.74944,0.08042
682.67791,0.08270
684.60637,0.09839
686.53484,0.11073
688.46331,0.09834
690.39178,0.07267
692.32025,0.07435
694.24872,0.10045
696.17719,0.11611
698.10565,0.11634
700.03412,0.10894
701.96259,0.10030
703.89106,0.10491
705.81953,0.11427
707.74800,0.11029
709.67647,0.09619
711.60494,0.08288
713.53340,0.07979
715.46187,0.08874
717.39034,0.10267
719.31881,0.11191
721.24728,0.10729
723.17575,0.09522
725.10422,0.09107
727.03268,0.08818
728.96115,0.07939
730.88962,0.07999
732.81809,0.09210
734.74656,0.09516
736.67503,0.08368
738.60350,0.07539
740.53197,0.07807
742.46043,0.07646
744.38890,0.06880
746.31737,0.07267
748.24584,0.08282
750.17431,0.08710
752.10278,0.09269
754.03125,0.10579
755.95971,0.11444
757.88818,0.10686
759.81665,0.09444
761.74512,0.08774
763.67359,0.09096
765.60206,0.09916
767.53053,0.09449
769.45900,0.08280
771.38746,0.08809
773.31593,0.10818
775.24440,0.11659
777.17287,0.10663
779.10134,0.10031
781.02981,0.11361
782.95828,0.13392
784.88674,0.13906
786.81521,0.12788
788.74368,0.11147
790.67215,0.09909
792.60062,0.09033
794.52909,0.07575
796.45756,0.06406
798.38602,0.06909
800.31449,0.07892
802.24296,0.08558
804.17143,0.09728
806.09990,0.11494
808.02837,0.12674
809.95684,0.12155
811.88531,0.11108
813.81377,0.11041
815.74224,0.11098
817.67071,0.10429
819.59918,0.09686
821.52765,0.09146
823.45612,0.09401
825.38459,0.10910
827.31305,0.11889
829.24152,0.11418
831.16999,0.11025
833.09846,0.11665
835.02693,0.11594
836.95540,0.09521
838.88387,0.08323
840.81234,0.09306
842.74080,0.10559
844.66927,0.11859
846.59774,0.13005
848.52621,0.12921
850.45468,0.12252
852.38315,0.12008
854.31162,0.12033
856.24008,0.12340
858.16855,0.13211
860.09702,0.13437
862.02549,0.11986
863.95396,0.10534
865.88243,0.11401
867.81090,0.17201
869.73937,0.25518
871.66783,0.25663
873.59630,0.17229
875.52477,0.11573
877.45324,0.11023
879.38171,0.11390
881.31018,0.11600
883.23865,0.11788
885.16711,0.12289
887.09558,0.12779
889.02405,0.12708
890.95252,0.12531
892.88099,0.12186
894.80946,0.11066
896.73793,0.09842
898.66640,0.09621
900.59486,0.09867
902.52333,0.09540
904.45180,0.09517
906.38027,0.10948
908.30874,0.12525
910.23721,0.12411
912.16568,0.11245
914.09414,0.10242
916.02261,0.09926
917.95108,0.11232
919.87955,0.12676
921.80802,0.12077
923.73649,0.10901
925.66496,0.10849
927.59343,0.11234
929.52189,0.11558
931.45036,0.12035
933.37883,0.12088
935.30730,0.11559
937.23577,0.11405
939.16424,0.11760
941.09271,0.11544
943.02117,0.10676
944.94964,0.10146
946.87811,0.10125
948.80658,0.10427
950.73505,0.11047
952.66352,0.11492
954.59199,0.11153
956.52045,0.10470
958.44892,0.10220
960.37739,0.10485
962.30586,0.11048
964.23433,0.11916
966.16280,0.12408
968.09127,0.11463
970.01974,0.10518
971.94820,0.11339
973.87667,0.12367
975.80514,0.11894
977.73361,0.10777
979.66208,0.10012
981.59055,0.09860
983.51902,0.10525
985.44748,0.11132
987.37595,0.11070
989.30442,0.10937
991.23289,0.10702
993.16136,0.10319
995.08983,0.11051
997.01830,0.12694
998.94677,0.13130
1000.87523,0.12700
1002.80370,0.12985
1004.73217,0.13005
1006.66064,0.11944
1008.58911,0.11329
1010.51758,0.11825
1012.44605,0.12284
1014.37451,0.12159
1016.30298,0.11974
1018.23145,0.12004
1020.15992,0.12278
1022.08839,0.12679
1024.01686,0.12704
1025.94533,0.11745
1027.87380,0.09870
1029.80226,0.09511
1031.73073,0.11644
1033.65920,0.13771
1035.58767,0.14583
1037.51614,0.14068
1039.44461,0.12864
1041.37308,0.12230
1043.30154,0.12790
1045.23001,0.13757
1047.15848,0.13766
1049.08695,0.13159
1051.01542,0.13036
1052.94389,0.13162
1054.87236,0.12603
1056.80083,0.11626
1058.72929,0.11085
1060.65776,0.10823
1062.58623,0.11040
1064.51470,0.12453
1066.44317,0.13976
1068.37164,0.14418
1070.30011,0.14415
1072.22857,0.14066
1074.15704,0.13242
1076.08551,0.12747
1078.01398,0.12802
1079.94245,0.13216
1081.87092,0.13990
1083.79939,0.14211
1085.72786,0.13387
1087.65632,0.12935
1089.58479,0.13324
1091.51326,0.13548
1093.44173,0.13025
1095.37020,0.12043
1097.29867,0.11420
1099.22714,0.11394
1101.15560,0.12194
1103.08407,0.13362
1105.01254,0.13452
1106.94101,0.13262
1108.86948,0.13761
1110.79795,0.13647
1112.72642,0.12915
1114.65489,0.12516
1116.58335,0.12693
1118.51182,0.13852
1120.44029,0.15034
1122.36876,0.14956
1124.29723,0.14029
1126.22570,0.13136
1128.15417,0.12918
1130.08263,0.13080
1132.01110,0.12721
1133.93957,0.12220
1135.86804,0.12533
1137.79651,0.13078
1139.72498,0.13414
1141.65345,0.14294
1143.58191,0.15083
1145.51038,0.14533
1147.43885,0.13141
1149.36732,0.11934
1151.29579,0.11194
1153.22426,0.11473
1155.15273,0.12637
1157.08120,0.13123
1159.00966,0.12886
1160.93813,0.13262
1162.86660,0.14045
1164.79507,0.14218
1166.72354,0.14015
1168.65201,0.14133
1170.58048,0.14397
1172.50894,0.14444
1174.43741,0.14661
1176.36588,0.15104
1178.29435,0.14899
1180.22282,0.14497
1182.15129,0.14940
1184.07976,0.15505
1186.00823,0.15248
1187.93669,0.14585
1189.86516,0.14009
1191.79363,0.13433
1193.72210,0.13267
1195.65057,0.13812
1197.57904,0.14499
1199.50751,0.14529
1201.43597,0.14132
1203.36444,0.14069
1205.29291,0.13982
1207.22138,0.13931
1209.14985,0.14610
1211.07832,0.15472
1213.00679,0.15971
1214.93526,0.16351
1216.86372,0.16381
1218.79219,0.15925
1220.72066,0.15364
1222.64913,0.15073
1224.57760,0.15287
1226.50607,0.15383
1228.43454,0.15040
1230.36300,0.14960
1232.29147,0.15190
1234.21994,0.15189
1236.14841,0.14981
1238.07688,0.14867
1240.00535,0.14551
1241.93382,0.14011
1243.86229,0.13916
1245.79075,0.14206
1247.71922,0.14524
1249.64769,0.14820
1251.57616,0.14807
1253.50463,0.14549
1255.43310,0.14530
1257.36157,0.14776
1259.29003,0.14839
1261.21850,0.14682
1263.14697,0.14859
1265.07544,0.15226
1267.00391,0.15324
1268.93238,0.15450
1270.86085,0.15574
1272.78932,0.15330
1274.71778,0.15168
1276.64625,0.15557
1278.57472,0.15992
1280.50319,0.15869
1282.43166,0.15677
1284.36013,0.15931
1286.28860,0.15999
1288.21706,0.15711
1290.14553,0.15696
1292.07400,0.15859
1294.00247,0.15748
1295.93094,0.15182
1297.85941,0.14378
1299.78788,0.13734
1301.71634,0.13224
1303.64481,0.12786
1305.57328,0.12854
1307.50175,0.13755
1309.43022,0.14797
1311.35869,0.15224
1313.28716,0.15492
1315.21563,0.16036
1317.14409,0.16548
1319.07256,0.16806
1321.00103,0.16791
1322.92950,0.16548
1324.85797,0.15991
1326.78644,0.15232
1328.71491,0.14747
1330.64337,0.14683
1332.57184,0.14878
1334.50031,0.15298
1336.42878,0.16142
1338.35725,0.17273
1340.28572,0.17145
1342.21419,0.14577
1344.14266,0.10749
1346.07112,0.08583
1347.99959,0.10337
1349.92806,0.13541
1351.85653,0.14796
1353.78500,0.14952
1355.71347,0.15458
1357.64194,0.15998
1359.57040,0.16501
1361.49887,0.17206
1363.42734,0.17422
1365.35581,0.16779
1367.28428,0.16244
1369.21275,0.16315
1371.14122,0.16898
1373.06969,0.17742
1374.99815,0.17955
1376.92662,0.17399
1378.85509,0.17022
1380.78356,0.16760
1382.71203,0.16470
1384.64050,0.16672
1386.56897,0.17297
1388.49743,0.17521
1390.42590,0.17224
1392.35437,0.16976
1394.28284,0.16905
1396.21131,0.16763
1398.13978,0.16604
1400.06825,0.16407
1401.99672,0.16215
1403.92518,0.16288
1405.85365,0.16303
1407.78212,0.16136
1409.71059,0.16271
1411.63906,0.16505
1413.56753,0.16381
1415.49600,0.16501
1417.42446,0.17658
1419.35293,0.18653
1421.28140,0.18204
1423.20987,0.17581
1425.13834,0.17250
1427.06681,0.17517
1428.99528,0.18010
1430.92375,0.17391
1432.85221,0.16581
1434.78068,0.17144
1436.70915,0.18048
1438.63762,0.17618
1440.56609,0.16863
1442.49456,0.16570
1444.42303,0.16701
1446.35149,0.17156
1448.27996,0.17791
1450.20843,0.18012
1452.13690,0.17797
1454.06537,0.18357
1455.99384,0.20960
1457.92231,0.22780
1459.85077,0.20673
1461.77924,0.19060
1463.70771,0.18830
1465.63618,0.18813
1467.56465,0.18792
1469.49312,0.19336
1471.42159,0.20155
1473.35006,0.20547
1475.27852,0.20186
1477.20699,0.19460
1479.13546,0.18939
1481.06393,0.18887
1482.99240,0.18963
1484.92087,0.19050
1486.84934,0.19605
1488.77780,0.20476
1490.70627,0.20138
1492.63474,0.19065
1494.56321,0.18872
1496.49168,0.19526
1498.42015,0.19662
1500.34862,0.19007
1502.27709,0.18713
1504.20555,0.19967
1506.13402,0.23745
1508.06249,0.24519
1509.99096,0.21508
1511.91943,0.20181
1513.84790,0.20493
1515.77637,0.21503
1517.70483,0.21901
1519.63330,0.22052
1521.56177,0.22427
1523.49024,0.21677
1525.41871,0.20942
1527.34718,0.20641
1529.27565,0.20329
1531.20412,0.20459
1533.13258,0.20715
1535.06105,0.20456
1536.98952,0.21389
1538.91799,0.24688
1540.84646,0.25846
1542.77493,0.22323
1544.70340,0.19997
1546.63186,0.19008
1548.56033,0.19088
1550.48880,0.19639
1552.41727,0.19988
1554.34574,0.20501
1556.27421,0.22308
1558.20268,0.25836
1560.13115,0.23990
1562.05961,0.20251
1563.98808,0.19135
1565.91655,0.19461
1567.84502,0.20468
1569.77349,0.20812
1571.70196,0.19982
1573.63043,0.19868
1575.55889,0.20409
1577.48736,0.19829
1579.41583,0.18799
1581.34430,0.18452
1583.27277,0.18518
1585.20124,0.18436
1587.12971,0.18147
1589.05818,0.18153
1590.98664,0.18426
1592.91511,0.18537
1594.84358,0.18673
1596.77205,0.18792
1598.70052,0.18628
1600.62899,0.18535
1602.55746,0.18565
1604.48592,0.18258
1606.41439,0.17700
1608.34286,0.17564
1610.27133,0.17941
1612.19980,0.18486
1614.12827,0.19655
1616.05674,0.21343
1617.98521,0.21333
1619.91367,0.20432
1621.84214,0.20443
1623.77061,0.20479
1625.69908,0.20081
1627.62755,0.19815
1629.55602,0.19063
1631.48449,0.18293
1633.41295,0.18839
1635.34142,0.20838
1637.26989,0.21336
1639.19836,0.20208
1641.12683,0.19595
1643.05530,0.19961
1644.98377,0.21479
1646.91223,0.23128
1648.84070,0.22771
1650.76917,0.22596
1652.69764,0.24277
1654.62611,0.23606
1656.55458,0.20863
1658.48305,0.19447
1660.41152,0.19338
1662.33998,0.19677
1664.26845,0.19543
1666.19692,0.19579
1668.12539,0.20447
1670.05386,0.21060
1671.98233,0.20675
1673.91080,0.20450
1675.83926,0.19870
1677.76773,0.19201
1679.69620,0.19691
1681.62467,0.21368
1683.55314,0.23528
1685.48161,0.23316
1687.41008,0.21456
1689.33855,0.20026
1691.26701,0.19162
1693.19548,0.19615
1695.12395,0.21903
1697.05242,0.24442
1698.98089,0.25249
1700.90936,0.23852
1702.83783,0.21935
1704.76629,0.21290
1706.69476,0.20536
1708.62323,0.19123
1710.55170,0.18382
1712.48017,0.18822
1714.40864,0.20484
1716.33711,0.22827
1718.26558,0.22859
1720.19404,0.20753
1722.12251,0.19137
1724.05098,0.18117
1725.97945,0.17789
1727.90792,0.18404
1729.83639,0.19529
1731.76486,0.20910
1733.69332,0.21785
1735.62179,0.20363
1737.55026,0.19216
1739.47873,0.19569
1741.40720,0.20024
1743.33567,0.20119
1745.26414,0.20730
1747.19261,0.21915
1749.12107,0.22698
1751.04954,0.21669
1752.97801,0.19947
1754.90648,0.19275
1756.83495,0.19335
1758.76342,0.19297
1760.69189,0.19062
1762.62035,0.18613
1764.54882,0.18181
1766.47729,0.18160
1768.40576,0.18523
1770.33423,0.19153
1772.26270,0.19689
1774.19117,0.19801
1776.11964,0.19631
1778.04810,0.19353
1779.97657,0.19123
1781.90504,0.18910
1783.83351,0.18965
1785.76198,0.19108
1787.69045,0.19098
1789.61892,0.19523
1791.54738,0.20322
1793.47585,0.20475
1795.40432,0.19948
1797.33279,0.19414
1799.26126,0.19119
1801.18973,0.19013
1803.11820,0.18801
1805.04666,0.18514
1806.97513,0.18487
1808.90360,0.18843
1810.83207,0.19263
1812.76054,0.19389
1814.68901,0.19441
1816.61748,0.19125
1818.54595,0.18675
1820.47441,0.18927
1822.40288,0.19084
1824.33135,0.18933
1826.25982,0.19340
1828.18829,0.19956
1830.11676,0.19805
1832.04523,0.18854
1833.97369,0.18327
1835.90216,0.18481
1837.83063,0.18807
1839.75910,0.19167
1841.68757,0.19766
1843.61604,0.20136
1845.54451,0.19395
1847.47298,0.18590
1849.40144,0.18576
1851.32991,0.18851
1853.25838,0.18933
1855.18685,0.18916
1857.11532,0.18937
1859.04379,0.18766
1860.97226,0.18434
1862.90072,0.18330
1864.82919,0.18833
1866.75766,0.19993
1868.68613,0.20691
1870.61460,0.19961
1872.54307,0.19039
1874.47154,0.18653
1876.40001,0.18461
1878.32847,0.18224
1880.25694,0.18167
1882.18541,0.18368
1884.11388,0.18601
1886.04235,0.18705
1887.97082,0.18774
1889.89929,0.18890
1891.82775,0.18877
1893.75622,0.18932
1895.68469,0.19137
1897.61316,0.19052
1899.54163,0.18771
1901.47010,0.18600
1903.39857,0.18435
1905.32704,0.18427
1907.25550,0.18864
1909.18397,0.19234
1911.11244,0.18979
1913.04091,0.18679
1914.96938,0.18910
1916.89785,0.19310
1918.82632,0.19267
1920.75478,0.18990
1922.68325,0.18919
1924.61172,0.18713
1926.54019,0.18248
1928.46866,0.18077
1930.39713,0.18289
1932.32560,0.18361
1934.25407,0.18179
1936.18253,0.18083
1938.11100,0.18232
1940.03947,0.18675
1941.96794,0.19107
1943.89641,0.18992
1945.82488,0.18543
1947.75335,0.18297
1949.68181,0.18525
1951.61028,0.18889
1953.53875,0.19127
1955.46722,0.19440
1957.39569,0.19400
1959.32416,0.18918
1961.25263,0.18683
1963.18110,0.18786
1965.10956,0.18932
1967.03803,0.18819
1968.96650,0.18280
1970.89497,0.17814
1972.82344,0.17967
1974.75191,0.18532
1976.68038,0.18846
1978.60884,0.18834
1980.53731,0.18920
1982.46578,0.19034
1984.39425,0.18959
1986.32272,0.18859
1988.25119,0.18883
1990.17966,0.18963
1992.10812,0.18812
1994.03659,0.18391
1995.96506,0.18164
1997.89353,0.18266
1999.82200,0.18467
2001.75047,0.18673
2003.67894,0.18731
2005.60741,0.18613
2007.53587,0.18459
2009.46434,0.18472
2011.39281,0.18955
2013.32128,0.19611
2015.24975,0.19911
2017.17822,0.19744
2019.10669,0.19328
2021.03515,0.19042
2022.96362,0.18762
2024.89209,0.18384
2026.82056,0.18325
2028.74903,0.18591
2030.67750,0.18626
2032.60597,0.18300
2034.53444,0.18139
2036.46290,0.18456
2038.39137,0.18995
2040.31984,0.19326
2042.24831,0.19235
2044.17678,0.18935
2046.10525,0.18720
2048.03372,0.18619
2049.96218,0.18590
2051.89065,0.18682
2053.81912,0.18795
2055.74759,0.18765
2057.67606,0.18742
2059.60453,0.18848
2061.53300,0.18909
2063.46147,0.18974
2065.38993,0.19134
2067.31840,0.19106
2069.24687,0.18834
2071.17534,0.18705
2073.10381,0.18833
2075.03228,0.18899
2076.96075,0.18855
2078.88921,0.18895
2080.81768,0.19037
2082.74615,0.19165
2084.67462,0.19039
2086.60309,0.18702
2088.53156,0.18562
2090.46003,0.18670
2092.38850,0.18605
2094.31696,0.18327
2096.24543,0.18303
2098.17390,0.18558
2100.10237,0.18770
2102.03084,0.18806
2103.95931,0.18801
2105.88778,0.19015
2107.81624,0.19223
2109.74471,0.19158
2111.67318,0.19122
2113.60165,0.19109
2115.53012,0.18863
2117.45859,0.18744
2119.38706,0.18937
2121.31553,0.19052
2123.24399,0.19099
2125.17246,0.19150
2127.10093,0.18919
2129.02940,0.18642
2130.95787,0.18748
2132.88634,0.19154
2134.81481,0.19459
2136.74327,0.19332
2138.67174,0.19152
2140.60021,0.19271
2142.52868,0.19388
2144.45715,0.19552
2146.38562,0.19970
2148.31409,0.20171
2150.24255,0.19727
2152.17102,0.19062
2154.09949,0.18708
2156.02796,0.18743
2157.95643,0.18933
2159.88490,0.18944
2161.81337,0.18911
2163.74184,0.19118
2165.67030,0.19282
2167.59877,0.19193
2169.52724,0.19197
2171.45571,0.19407
2173.38418,0.19571
2175.31265,0.19559
2177.24112,0.19368
2179.16958,0.19086
2181.09805,0.18880
2183.02652,0.18914
2184.95499,0.19058
2186.88346,0.19017
2188.81193,0.18870
2190.74040,0.18859
2192.66887,0.18894
2194.59733,0.18801
2196.52580,0.18695
2198.45427,0.18669
2200.38274,0.18688
2202.31121,0.18723
2204.23968,0.18735
2206.16815,0.18782
2208.09661,0.19001
2210.02508,0.19357
2211.95355,0.19494
2213.88202,0.19315
2215.81049,0.19276
2217.73896,0.19430
2219.66743,0.19292
2221.59590,0.18896
2223.52436,0.18760
2225.45283,0.19002
2227.38130,0.19338
2229.30977,0.19688
2231.23824,0.19989
2233.16671,0.19873
2235.09518,0.19472
2237.02364,0.19294
2238.95211,0.19245
2240.88058,0.19174
2242.80905,0.19264
2244.73752,0.19440
2246.66599,0.19481
2248.59446,0.19583
2250.52293,0.19860
2252.45139,0.19933
2254.37986,0.19655
2256.30833,0.19385
2258.23680,0.19488
2260.16527,0.19633
2262.09374,0.19440
2264.02221,0.19329
2265.95067,0.19381
2267.87914,0.19335
2269.80761,0.19451
2271.73608,0.19677
2273.66455,0.19590
2275.59302,0.19275
2277.52149,0.19078
2279.44996,0.19183
2281.37842,0.19579
2283.30689,0.19871
2285.23536,0.19691
2287.16383,0.19290
2289.09230,0.19002
2291.02077,0.19003
2292.94924,0.20039
2294.87770,0.21933
2296.80617,0.22350
2298.73464,0.20611
2300.66311,0.19247
2302.59158,0.19508
2304.52005,0.20160
2306.44852,0.20418
2308.37699,0.20529
2310.30545,0.20578
2312.23392,0.20448
2314.16239,0.20417
2316.09086,0.20742
2318.01933,0.21293
2319.94780,0.21993
2321.87627,0.22783
2323.80473,0.23090
2325.73320,0.22856
2327.66167,0.23227
2329.59014,0.24097
2331.51861,0.23987
2333.44708,0.22631
2335.37555,0.21258
2337.30401,0.21170
2339.23248,0.21871
2341.16095,0.21984
2343.08942,0.22009
2345.01789,0.22611
2346.94636,0.22626
2348.87483,0.21948
2350.80330,0.21644
2352.73176,0.22647
2354.66023,0.24605
2356.58870,0.26077
2358.51717,0.27232
2360.44564,0.26389
2362.37411,0.22659
2364.30258,0.21751
2366.23104,0.24377
2368.15951,0.25080
2370.08798,0.23497
2372.01645,0.21663
2373.94492,0.20279
2375.87339,0.19824
2377.80186,0.20085
2379.73033,0.20500
2381.65879,0.20578
2383.58726,0.20007
2385.51573,0.19156
2387.44420,0.18680
2389.37267,0.18664
2391.30114,0.18763
2393.22961,0.18844
2395.15807,0.18981
2397.08654,0.19196
2399.01501,0.19338
2400.94348,0.19232
2402.87195,0.19036
2404.80042,0.19023
2406.72889,0.19204
2408.65736,0.19353
2410.58582,0.19308
2412.51429,0.19211
2414.44276,0.19220
2416.37123,0.19124
2418.29970,0.18914
2420.22817,0.19010
2422.15664,0.19290
2424.08510,0.19455
2426.01357,0.19740
2427.94204,0.20074
2429.87051,0.20081
2431.79898,0.19947
2433.72745,0.19969
2435.65592,0.19923
2437.58439,0.19777
2439.51285,0.19765
2441.44132,0.19718
2443.36979,0.19552
2445.29826,0.19605
2447.22673,0.19832
2449.15520,0.19792
2451.08367,0.19481
2453.01213,0.19246
2454.94060,0.19264
2456.86907,0.19349
2458.79754,0.19240
2460.72601,0.19191
2462.65448,0.19338
2464.58295,0.19324
2466.51142,0.19386
2468.43988,0.19772
2470.36835,0.19847
2472.29682,0.19451
2474.22529,0.19121
2476.15376,0.19124
2478.08223,0.19306
2480.01070,0.19277
2481.93916,0.19246
2483.86763,0.19645
2485.79610,0.19877
2487.72457,0.19505
2489.65304,0.19200
2491.58151,0.19296
2493.50998,0.19371
2495.43844,0.19306
2497.36691,0.19436
2499.29538,0.19790
2501.22385,0.19954
2503.15232,0.19729
2505.08079,0.19430
2507.00926,0.19332
2508.93773,0.19352
2510.86619,0.19513
2512.79466,0.19812
2514.72313,0.19888
2516.65160,0.19708
2518.58007,0.19723
2520.50854,0.19876
2522.43701,0.19774
2524.36547,0.19656
2526.29394,0.19716
2528.22241,0.19761
2530.15088,0.19766
2532.07935,0.19799
2534.00782,0.19915
2535.93629,0.19911
2537.86476,0.19705
2539.79322,0.19624
2541.72169,0.19625
2543.65016,0.19600
2545.57863,0.19754
2547.50710,0.19804
2549.43557,0.19593
2551.36404,0.19592
2553.29250,0.19775
2555.22097,0.19821
2557.14944,0.19759
2559.07791,0.19667
2561.00638,0.19507
2562.93485,0.19367
2564.86332,0.19572
2566.79179,0.20036
2568.72025,0.20272
2570.64872,0.20119
2572.57719,0.19760
2574.50566,0.19446
2576.43413,0.19323
2578.36260,0.19422
2580.29107,0.19660
2582.21953,0.19788
2584.14800,0.19802
2586.07647,0.20099
2588.00494,0.20492
2589.93341,0.20327
2591.86188,0.19855
2593.79035,0.19653
2595.71882,0.19616
2597.64728,0.19461
2599.57575,0.19201
2601.50422,0.19163
2603.43269,0.19406
2605.36116,0.19605
2607.28963,0.19861
2609.21810,0.19923
2611.14656,0.19187
2613.07503,0.18702
2615.00350,0.19377
2616.93197,0.19888
2618.86044,0.19642
2620.78891,0.19600
2622.71738,0.19883
2624.64585,0.20067
2626.57431,0.20036
2628.50278,0.19799
2630.43125,0.19809
2632.35972,0.20007
2634.28819,0.19703
2636.21666,0.19378
2638.14513,0.19658
2640.07359,0.19930
2642.00206,0.19890
2643.93053,0.20047
2645.85900,0.20354
2647.78747,0.20262
2649.71594,0.19941
2651.64441,0.19916
2653.57288,0.20101
2655.50134,0.20208
2657.42981,0.20238
2659.35828,0.20295
2661.28675,0.20387
2663.21522,0.20337
2665.14369,0.20079
2667.07216,0.20039
2669.00062,0.20323
2670.92909,0.20271
2672.85756,0.19880
2674.78603,0.19917
2676.71450,0.20214
2678.64297,0.20325
2680.57144,0.20547
2682.49990,0.20695
2684.42837,0.20373
2686.35684,0.19953
2688.28531,0.19715
2690.21378,0.19514
2692.14225,0.19498
2694.07072,0.19902
2695.99919,0.20388
2697.92765,0.20486
2699.85612,0.20280
2701.78459,0.20162
2703.71306,0.20111
2705.64153,0.19927
2707.57000,0.19633
2709.49847,0.19322
2711.42693,0.19356
2713.35540,0.20010
2715.28387,0.20766
2717.21234,0.21094
2719.14081,0.21354
2721.06928,0.21475
2722.99775,0.20838
2724.92622,0.20158
2726.85468,0.20372
2728.78315,0.21126
2730.71162,0.21743
2732.64009,0.22002
2734.56856,0.21856
2736.49703,0.21338
2738.42550,0.20823
2740.35396,0.20638
2742.28243,0.20756
2744.21090,0.20878
2746.13937,0.20685
2748.06784,0.20267
2749.99631,0.20021
2751.92478,0.20108
2753.85325,0.20245
2755.78171,0.20335
2757.71018,0.20563
2759.63865,0.20808
2761.56712,0.20894
2763.49559,0.20942
2765.42406,0.21235
2767.35253,0.21785
2769.28099,0.22144
2771.20946,0.21970
2773.13793,0.21292
2775.06640,0.20469
2776.99487,0.20162
2778.92334,0.20576
2780.85181,0.20977
2782.78028,0.20897
2784.70874,0.20808
2786.63721,0.20928
2788.56568,0.21029
2790.49415,0.21197
2792.42262,0.21397
2794.35109,0.21304
2796.27956,0.20919
2798.20802,0.20562
2800.13649,0.20575
2802.06496,0.20806
2803.99343,0.20816
2805.92190,0.20929
2807.85037,0.21491
2809.77884,0.21898
2811.70731,0.21566
2813.63577,0.20886
2815.56424,0.20613
2817.49271,0.20632
2819.42118,0.20572
2821.34965,0.20548
2823.27812,0.20632
2825.20659,0.20871
2827.13505,0.21426
2829.06352,0.22080
2830.99199,0.22205
2832.92046,0.21757
2834.84893,0.21342
2836.77740,0.21414
2838.70587,0.21701
2840.63433,0.21687
2842.56280,0.21562
2844.49127,0.21360
2846.41974,0.21002
2848.34821,0.20927
2850.27668,0.21203
2852.20515,0.21507
2854.13362,0.21716
2856.06208,0.21715
2857.99055,0.21487
2859.91902,0.21530
2861.84749,0.21873
2863.77596,0.21807
2865.70443,0.21422
2867.63290,0.21453
2869.56136,0.21775
2871.48983,0.21635
2873.41830,0.21227
2875.34677,0.21304
2877.27524,0.21895
2879.20371,0.22220
2881.13218,0.21613
2883.06065,0.20724
2884.98911,0.20531
2886.91758,0.20884
2888.84605,0.21232
2890.77452,0.21495
2892.70299,0.21531
2894.63146,0.21112
2896.55993,0.20728
2898.48839,0.20938
2900.41686,0.21517
2902.34533,0.21672
2904.27380,0.21091
2906.20227,0.20532
2908.13074,0.20462
2910.05921,0.20581
2911.98768,0.20787
2913.91614,0.20793
2915.84461,0.20268
2917.77308,0.19787
2919.70155,0.19759
2921.63002,0.20018
2923.55849,0.20408
2925.48696,0.20328
2927.41542,0.19896
2929.34389,0.20033
2931.27236,0.20492
2933.20083,0.20746
2935.12930,0.20762
2937.05777,0.20470
2938.98624,0.20291
2940.91471,0.20376
2942.84317,0.20401
2944.77164,0.20255
2946.70011,0.20031
2948.62858,0.20164
2950.55705,0.20601
2952.48552,0.21144
2954.41399,0.21551
2956.34245,0.20934
2958.27092,0.20039
2960.19939,0.20386
2962.12786,0.21379
2964.05633,0.21850
2965.98480,0.21476
2967.91327,0.20597
2969.84174,0.20282
2971.77020,0.21027
2973.69867,0.21893
2975.62714,0.21804
2977.55561,0.21136
2979.48408,0.21234
2981.41255,0.21938
2983.34102,0.22058
2985.26948,0.21634
2987.19795,0.21200
2989.12642,0.21165
2991.05489,0.21561
2992.98336,0.21608
2994.91183,0.21133
2996.84030,0.20830
2998.76877,0.21170
3000.69723,0.22107
3002.62570,0.23006
3004.55417,0.23093
3006.48264,0.22304
3008.41111,0.21401
3010.33958,0.20645
3012.26805,0.19452
3014.19651,0.17719
3016.12498,0.16448
3018.05345,0.17386
3019.98192,0.20251
3021.91039,0.22434
3023.83886,0.22980
3025.76733,0.22594
3027.69579,0.22000
3029.62426,0.21886
3031.55273,0.22278
3033.48120,0.22634
3035.40967,0.22542
3037.33814,0.22262
3039.26661,0.22122
3041.19508,0.21958
3043.12354,0.21911
3045.05201,0.21949
3046.98048,0.21855
3048.90895,0.21882
3050.83742,0.21730
3052.76589,0.21277
3054.69436,0.20923
3056.62282,0.20665
3058.55129,0.20814
3060.47976,0.21185
3062.40823,0.21174
3064.33670,0.21029
3066.26517,0.20975
3068.19364,0.21062
3070.12211,0.21319
3072.05057,0.21473
3073.97904,0.21124
3075.90751,0.20492
3077.83598,0.20541
3079.76445,0.21277
3081.69292,0.21689
3083.62139,0.21296
3085.54985,0.20901
3087.47832,0.21403
3089.40679,0.21939
3091.33526,0.21457
3093.26373,0.20513
3095.19220,0.20346
3097.12067,0.21063
3099.04914,0.21444
3100.97760,0.20777
3102.90607,0.19479
3104.83454,0.19102
3106.76301,0.20376
3108.69148,0.21788
3110.61995,0.22126
3112.54842,0.21800
3114.47688,0.21735
3116.40535,0.22002
3118.33382,0.22131
3120.26229,0.22105
3122.19076,0.21948
3124.11923,0.21802
3126.04770,0.21813
3127.97617,0.21824
3129.90463,0.21693
3131.83310,0.21500
3133.76157,0.21543
3135.69004,0.21856
3137.61851,0.22173
3139.54698,0.22575
3141.47545,0.22841
3143.40391,0.22521
3145.33238,0.22387
3147.26085,0.22787
3149.18932,0.22843
3151.11779,0.22334
3153.04626,0.21799
3154.97473,0.21875
3156.90320,0.22378
3158.83166,0.22527
3160.76013,0.22347
3162.68860,0.22328
3164.61707,0.22312
3166.54554,0.22214
3168.47401,0.22645
3170.40248,0.23044
3172.33094,0.22792
3174.25941,0.23214
3176.18788,0.24475
3178.11635,0.24746
3180.04482,0.23586
3181.97329,0.22368
3183.90176,0.21925
3185.83022,0.22158
3187.75869,0.22660
3189.68716,0.22743
3191.61563,0.22333
3193.54410,0.22173
3195.47257,0.22417
3197.40104,0.22456
3199.32951,0.22017
3201.25797,0.21540
3203.18644,0.21738
3205.11491,0.22456
3207.04338,0.22861
3208.97185,0.22895
3210.90032,0.22796
3212.82879,0.22596
3214.75725,0.22395
3216.68572,0.22062
3218.61419,0.21613
3220.54266,0.21485
3222.47113,0.21923
3224.39960,0.22335
3226.32807,0.22120
3228.25654,0.21599
3230.18500,0.21291
3232.11347,0.21555
3234.04194,0.22208
3235.97041,0.22523
3237.89888,0.22206
3239.82735,0.21638
3241.75582,0.21376
3243.68428,0.21472
3245.61275,0.21762
3247.54122,0.22018
3249.46969,0.21902
3251.39816,0.21524
3253.32663,0.21149
3255.25510,0.20942
3257.18357,0.21065
3259.11203,0.21426
3261.04050,0.21851
3262.96897,0.22243
3264.89744,0.22405
3266.82591,0.22556
3268.75438,0.23098
3270.68285,0.23672
3272.61131,0.23480
3274.53978,0.22325
3276.46825,0.21425
3278.39672,0.21840
3280.32519,0.22652
3282.25366,0.22708
3284.18213,0.22056
3286.11060,0.21211
3288.03906,0.20739
3289.96753,0.21061
3291.89600,0.21704
3293.82447,0.21846
3295.75294,0.21536
3297.68141,0.21467
3299.60988,0.21950
3301.53834,0.22465
3303.46681,0.22465
3305.39528,0.21933
3307.32375,0.21546
3309.25222,0.21699
3311.18069,0.21605
3313.10916,0.21235
3315.03763,0.21330
3316.96609,0.21582
3318.89456,0.21588
3320.82303,0.21788
3322.75150,0.22389
3324.67997,0.22748
3326.60844,0.22521
3328.53691,0.22265
3330.46537,0.22426
3332.39384,0.22529
3334.32231,0.22167
3336.25078,0.22160
3338.17925,0.22991
3340.10772,0.23597
3342.03619,0.23093
3343.96466,0.22177
3345.89312,0.21768
3347.82159,0.21928
3349.75006,0.22658
3351.67853,0.23225
3353.60700,0.22941
3355.53547,0.22652
3357.46394,0.22696
3359.39240,0.22666
3361.32087,0.22661
3363.24934,0.22740
3365.17781,0.22929
3367.10628,0.22997
3369.03475,0.22775
3370.96322,0.22532
3372.89168,0.22140
3374.82015,0.21784
3376.74862,0.21868
3378.67709,0.22104
3380.60556,0.22272
3382.53403,0.22389
3384.46250,0.22563
3386.39097,0.22705
3388.31943,0.22513
3390.24790,0.22345
3392.17637,0.22442
3394.10484,0.22177
3396.03331,0.21825
3397.96178,0.22135
3399.89025,0.22427
3401.81871,0.22293
3403.74718,0.22129
3405.67565,0.21759
3407.60412,0.21395
3409.53259,0.21689
3411.46106,0.22306
3413.38953,0.22389
3415.31800,0.21841
3417.24646,0.21537
3419.17493,0.22045
3421.10340,0.22551
3423.03187,0.22441
3424.96034,0.22094
3426.88881,0.21781
3428.81728,0.21577
3430.74574,0.21485
3432.67421,0.21294
3434.60268,0.20756
3436.53115,0.20231
3438.45962,0.20229
3440.38809,0.20531
3442.31656,0.20607
3444.24503,0.20453
3446.17349,0.20563
3448.10196,0.20985
3450.03043,0.21213
3451.95890,0.20992
3453.88737,0.20543
3455.81584,0.20097
3457.74431,0.19881
3459.67277,0.20145
3461.60124,0.20637
3463.52971,0.20993
3465.45818,0.20900
3467.38665,0.20121
3469.31512,0.19268
3471.24359,0.19415
3473.17206,0.20163
3475.10052,0.20398
3477.02899,0.20603
3478.95746,0.21013
3480.88593,0.20567
3482.81440,0.19319
3484.74287,0.18657
3486.67134,0.18916
3488.59980,0.19403
3490.52827,0.19912
3492.45674,0.20244
3494.38521,0.20143
3496.31368,0.19854
3498.24215,0.19687
3500.17062,0.19953
3502.09909,0.20201
3504.02755,0.19374
3505.95602,0.18247
3507.88449,0.18254
3509.81296,0.18915
3511.74143,0.19128
3513.66990,0.18859
3515.59837,0.18395
3517.52683,0.17884
3519.45530,0.17687
3521.38377,0.17897
3523.31224,0.17971
3525.24071,0.18052
3527.16918,0.18732
3529.09765,0.19317
3531.02611,0.19160
3532.95458,0.18672
3534.88305,0.18080
3536.81152,0.17387
3538.73999,0.16829
3540.66846,0.16740
3542.59693,0.17204
3544.52540,0.17990
3546.45386,0.18540
3548.38233,0.18509
3550.31080,0.18318
3552.23927,0.17954
3554.16774,0.17307
3556.09621,0.17062
3558.02468,0.17479
3559.95314,0.18026
3561.88161,0.18243
3563.81008,0.18861
3565.73855,0.20399
3567.66702,0.20903
3569.59549,0.19430
3571.52396,0.17854
3573.45243,0.17004
3575.38089,0.16886
3577.30936,0.17020
3579.23783,0.16947
3581.16630,0.16684
3583.09477,0.16966
3585.02324,0.18285
3586.95171,0.19194
3588.88017,0.17935
3590.80864,0.16940
3592.73711,0.17449
3594.66558,0.17948
3596.59405,0.17639
3598.52252,0.17228
3600.45099,0.16914
3602.37946,0.16644
3604.30792,0.16801
3606.23639,0.17497
3608.16486,0.17850
3610.09333,0.17464
3612.02180,0.17263
3613.95027,0.17231
3615.87874,0.17457
3617.80720,0.18247
3619.73567,0.18106
3621.66414,0.16500
3623.59261,0.15314
3625.52108,0.15273
3627.44955,0.16719
3629.37802,0.18739
3631.30649,0.18329
3633.23495,0.16522
3635.16342,0.14887
3637.09189,0.14230
3639.02036,0.14288
3640.94883,0.14402
3642.87730,0.14640
3644.80577,0.15507
3646.73423,0.17994
3648.66270,0.21536
3650.59117,0.20403
3652.51964,0.16895
3654.44811,0.15601
3656.37658,0.15699
3658.30505,0.15198
3660.23352,0.14390
3662.16198,0.13949
3664.09045,0.13587
3666.01892,0.13652
3667.94739,0.14790
3669.87586,0.16388
3671.80433,0.17075
3673.73280,0.17755
3675.66126,0.18063
3677.58973,0.16710
3679.51820,0.15089
3681.44667,0.13966
3683.37514,0.13892
3685.30361,0.14712
3687.23208,0.16164
3689.16055,0.17486
3691.08901,0.16774
3693.01748,0.15179
3694.94595,0.13960
3696.87442,0.13354
3698.80289,0.13495
3700.73136,0.14002
3702.65983,0.14355
3704.58829,0.14281
3706.51676,0.14369
3708.44523,0.15322
3710.37370,0.16562
3712.30217,0.16084
3714.23064,0.14397
3716.15911,0.13407
3718.08757,0.13603
3720.01604,0.14455
3721.94451,0.14919
3723.87298,0.14977
3725.80145,0.14986
3727.72992,0.14918
3729.65839,0.14956
3731.58686,0.15172
3733.51532,0.15682
3735.44379,0.16573
3737.37226,0.16529
3739.30073,0.15634
3741.22920,0.15600
3743.15767,0.17004
3745.08614,0.18090
3747.01460,0.17427
3748.94307,0.17173
3750.87154,0.17483
3752.80001,0.16388
3754.72848,0.14748
3756.65695,0.13957
3758.58542,0.14210
3760.51389,0.14235
3762.44235,0.13627
3764.37082,0.13538
3766.29929,0.13847
3768.22776,0.14055
3770.15623,0.14187
3772.08470,0.13717
3774.01317,0.13074
3775.94163,0.13017
3777.87010,0.13429
3779.79857,0.13609
3781.72704,0.13471
3783.65551,0.13587
3785.58398,0.13706
3787.51245,0.13469
3789.44092,0.13061
3791.36938,0.12588
3793.29785,0.12359
3795.22632,0.12776
3797.15479,0.13744
3799.08326,0.14964
3801.01173,0.16173
3802.94020,0.15916
3804.86866,0.14705
3806.79713,0.13729
3808.72560,0.13142
3810.65407,0.12796
3812.58254,0.12658
3814.51101,0.13338
3816.43948,0.14461
3818.36795,0.14811
3820.29641,0.14825
3822.22488,0.14079
3824.15335,0.13373
3826.08182,0.13343
3828.01029,0.13159
3829.93876,0.13085
3831.86723,0.13462
3833.79569,0.13705
3835.72416,0.14224
3837.65263,0.15119
3839.58110,0.14768
3841.50957,0.13576
3843.43804,0.12574
3845.36651,0.11785
3847.29498,0.11401
3849.22344,0.11864
3851.15191,0.14058
3853.08038,0.16802
3855.00885,0.15065
3856.93732,0.12982
3858.86579,0.12617
3860.79426,0.12694
3862.72272,0.12522
3864.65119,0.11831
3866.57966,0.11529
3868.50813,0.12603
3870.43660,0.14116
3872.36507,0.13871
3874.29354,0.12413
3876.22200,0.11382
3878.15047,0.11572
3880.07894,0.12786
3882.00741,0.13628
3883.93588,0.13676
3885.86435,0.13530
3887.79282,0.13177
3889.72129,0.13035
3891.64975,0.13061
3893.57822,0.12496
3895.50669,0.11891
3897.43516,0.12074
3899.36363,0.13038
3901.29210,0.14224
3903.22057,0.14492
3905.14903,0.13533
3907.07750,0.12735
3909.00597,0.12307
3910.93444,0.11645
3912.86291,0.10773
3914.79138,0.10344
3916.71985,0.10814
3918.64832,0.11465
3920.57678,0.11725
3922.50525,0.12179
3924.43372,0.12719
3926.36219,0.12447
3928.29066,0.11481
3930.21913,0.10725
3932.14760,0.10246
3934.07606,0.09741
3936.00453,0.09971
3937.93300,0.10942
3939.86147,0.11667
3941.78994,0.11835
3943.71841,0.11506
3945.64688,0.11146
3947.57535,0.11309
3949.50381,0.11462
3951.43228,0.11069
3953.36075,0.10843
3955.28922,0.11141
3957.21769,0.11208
3959.14616,0.10483
3961.07463,0.09445
3963.00309,0.09153
3964.93156,0.09932
3966.86003,0.10871
3968.78850,0.11180
3970.71697,0.10866
3972.64544,0.10329
3974.57391,0.09819
3976.50238,0.09209
3978.43084,0.08659
3980.35931,0.08620
3982.28778,0.09295
3984.21625,0.10554
3986.14472,0.11705
3988.07319,0.12183
3990.00166,0.11816
3991.93012,0.10692
3993.85859,0.09779
3995.78706,0.09881
3997.71553,0.10560
3999.64400,0.11013
4001.57247,0.11201
4003.50094,0.11315
4005.42941,0.10951
4007.35787,0.10301
4009.28634,0.09947
4011.21481,0.09518
4013.14328,0.08827
4015.07175,0.08351
4017.00022,0.08320
4018.92869,0.08792
4020.85715,0.09493
4022.78562,0.09907
4024.71409,0.10229
4026.64256,0.10656
4028.57103,0.10548
4030.49950,0.09827
4032.42797,0.09147
4034.35644,0.08644
4036.28490,0.08360
4038.21337,0.08685
4040.14184,0.09256
4042.07031,0.09103
4043.99878,0.08484
4045.92725,0.08504
4047.85572,0.09112
4049.78418,0.09428
4051.71265,0.09294
4053.64112,0.09157
4055.56959,0.09091
4057.49806,0.09059
4059.42653,0.09349
4061.35500,0.09789
4063.28346,0.09745
4065.21193,0.09166
4067.14040,0.08625
4069.06887,0.08252
4070.99734,0.07966
4072.92581,0.08426
4074.85428,0.09296
4076.78275,0.09368
4078.71121,0.09233
4080.63968,0.09790
4082.56815,0.10315
4084.49662,0.10052
4086.42509,0.09585
4088.35356,0.09336
4090.28203,0.08571
4092.21049,0.07337
4094.13896,0.06662
4096.06743,0.06911
4097.99590,0.07341
4099.92437,0.07568
4101.85284,0.08090
4103.78131,0.08715
4105.70978,0.08838
4107.63824,0.08440
4109.56671,0.07932
4111.49518,0.07680
4113.42365,0.07777
4115.35212,0.07997
4117.28059,0.08017
4119.20906,0.07945
4121.13752,0.07492
4123.06599,0.06351
4124.99446,0.05617
4126.92293,0.06172
4128.85140,0.07152
4130.77987,0.07640
4132.70834,0.07839
4134.63681,0.08084
4136.56527,0.08406
4138.49374,0.08386
4140.42221,0.07917
4142.35068,0.07561
4144.27915,0.07323
4146.20762,0.07078
4148.13609,0.06891
4150.06455,0.06614
4151.99302,0.06457
4153.92149,0.06692
4155.84996,0.06992
4157.77843,0.07012
4159.70690,0.07074
4161.63537,0.07579
4163.56384,0.08129
4165.49230,0.07973
4167.42077,0.07441
4169.34924,0.07497
4171.27771,0.07743
4173.20618,0.07302
4175.13465,0.06524
4177.06312,0.06189
4178.99158,0.06314
4180.92005,0.06445
4182.84852,0.06473
4184.77699,0.06221
4186.70546,0.05814
4188.63393,0.05758
4190.56240,0.05654
4192.49087,0.05329
4194.41933,0.05330
4196.34780,0.05614
4198.27627,0.05747
4200.20474,0.05310
4202.13321,0.04793
4204.06168,0.05133
4205.99015,0.06031
4207.91861,0.06337
4209.84708,0.05571
4211.77555,0.05097
4213.70402,0.05903
4215.63249,0.06528
4217.56096,0.06137
4219.48943,0.05724
4221.41789,0.05731
4223.34636,0.05802
4225.27483,0.05561
4227.20330,0.05193
4229.13177,0.05357
4231.06024,0.06081
4232.98871,0.06896
4234.91718,0.06863
4236.84564,0.05587
4238.77411,0.04800
4240.70258,0.05338
4242.63105,0.05766
4244.55952,0.05665
4246.48799,0.05812
4248.41646,0.05979
4250.34492,0.05824
4252.27339,0.05714
4254.20186,0.05357
4256.13033,0.04896
4258.05880,0.04971
4259.98727,0.05175
4261.91574,0.05167
4263.84421,0.04787
4265.77267,0.03845
4267.70114,0.03345
4269.62961,0.04392
4271.55808,0.05452
4273.48655,0.04850
4275.41502,0.04304
4277.34349,0.04861
4279.27195,0.04924
4281.20042,0.04177
4283.12889,0.03449
4285.05736,0.03152
4286.98583,0.03722
4288.91430,0.04688
4290.84277,0.04989
4292.77124,0.04803
4294.69970,0.04859
4296.62817,0.04751
4298.55664,0.03980
4300.48511,0.03267
4302.41358,0.02985
4304.34205,0.02700
4306.27052,0.02551
4308.19898,0.03009
4310.12745,0.03795
4312.05592,0.03949
4313.98439,0.03483
4315.91286,0.03295
4317.84133,0.03612
4319.76980,0.04311
4321.69827,0.04933
4323.62673,0.04727
4325.55520,0.03926
4327.48367,0.03389
4329.41214,0.03194
4331.34061,0.03199
4333.26908,0.03480
4335.19755,0.03354
4337.12601,0.02639
4339.05448,0.02420
4340.98295,0.02955
4342.91142,0.03182
4344.83989,0.02776
4346.76836,0.02830
4348.69683,0.03032
4350.62530,0.02162
4352.55376,0.01258
4354.48223,0.01417
4356.41070,0.01887
4358.33917,0.02485
4360.26764,0.03262
4362.19611,0.03545
4364.12458,0.03855
4366.05304,0.04526
4367.98151,0.04478
4369.90998,0.03480
4371.83845,0.02124
4373.76692,0.01272
4375.69539,0.01742
4377.62386,0.03092
4379.55232,0.03857
4381.48079,0.03323
4383.40926,0.02289
4385.33773,0.01743
4387.26620,0.01986
4389.19467,0.02047
4391.12314,0.00702
4393.05161,-0.00653
4394.98007,0.00183
4396.90854,0.02308
4398.83701,0.02932
4400.76548,0.01652
4402.69395,0.00664
4404.62242,0.00992
4406.55089,0.01955
4408.47935,0.02634
4410.40782,0.02293
4412.33629,0.01495
4414.26476,0.00902
4416.19323,0.00555
4418.12170,0.00747
4420.05017,0.00851
4421.97864,0.00358
4423.90710,0.00181
4425.83557,0.00702
4427.76404,0.01303
4429.69251,0.01550
4431.62098,0.01425
4433.54945,0.01104
4435.47792,0.00955
4437.40638,0.01468
4439.33485,0.02092
4441.26332,0.01621
4443.19179,0.00883
4445.12026,0.01087
4447.04873,0.01628
4448.97720,0.02092
4450.90567,0.02321
4452.83413,0.01735
4454.76260,0.00525
4456.69107,-0.00300
4458.61954,-0.00430
4460.54801,-0.00331
4462.47648,-0.00058
4464.40495,0.00320
4466.33341,0.00690
4468.26188,0.01217
4470.19035,0.01694
4472.11882,0.01733
4474.04729,0.01436
4475.97576,0.01037
4477.90423,0.00696
4479.83270,0.00694
4481.76116,0.00999
4483.68963,0.01225
4485.61810,0.00658
4487.54657,-0.00456
4489.47504,-0.00570
4491.40351,0.00543
4493.33198,0.01437
4495.26044,0.01140
4497.18891,-0.00277
4499.11738,-0.01972
4501.04585,-0.02243
4502.97432,-0.00743
4504.90279,0.00612
4506.83126,0.00938
4508.75973,0.01329
4510.68819,0.02528
4512.61666,0.03570
4514.54513,0.03352
4516.47360,0.02368
4518.40207,0.01211
4520.33054,0.00315
4522.25901,0.00134
4524.18747,-0.00178
4526.11594,-0.00705
4528.04441,-0.00215
4529.97288,0.00952
4531.90135,0.01312
4533.82982,0.00507
4535.75829,-0.00216
4537.68676,0.00181
4539.61522,0.00542
4541.54369,0.00090
4543.47216,0.00250
4545.40063,0.01284
4547.32910,0.01481
4549.25757,0.00735
4551.18604,0.00279
4553.11450,0.00247
4555.04297,0.01024
4556.97144,0.01845
4558.89991,0.01182
4560.82838,0.00157
4562.75685,-0.00036
4564.68532,-0.00027
4566.61378,-0.00173
4568.54225,-0.00175
4570.47072,0.00101
4572.39919,0.00476
4574.32766,0.00702
4576.25613,0.00950
4578.18460,0.00800
4580.11307,0.00174
4582.04153,-0.00190
4583.97000,-0.00614
4585.89847,-0.00882
4587.82694,-0.00181
4589.75541,0.00936
4591.68388,0.01757
4593.61235,0.02339
4595.54081,0.02130
4597.46928,0.00470
4599.39775,-0.01221
4601.32622,-0.01239
4603.25469,-0.00090
4605.18316,0.00662
4607.11163,0.00635
4609.04010,0.00447
4610.96856,0.00506
4612.89703,0.00698
4614.82550,0.01149
4616.75397,0.01574
4618.68244,0.01312
4620.61091,0.00691
4622.53938,-0.00157
4624.46784,-0.00817
4626.39631,-0.00315
4628.32478,0.00791
4630.25325,0.01679
4632.18172,0.01893
4634.11019,0.01021
4636.03866,-0.00175
4637.96713,-0.00165
4639.89559,0.00833
4641.82406,0.01835
4643.75253,0.02686
4645.68100,0.02633
4647.60947,0.01377
4649.53794,0.00546
4651.46641,0.00833
4653.39487,0.01355
4655.32334,0.01626
4657.25181,0.00952
4659.18028,-0.00326
4661.10875,-0.00825
4663.03722,-0.00409
4664.96569,0.00719
4666.89416,0.01927
4668.82262,0.02363
4670.75109,0.01711
4672.67956,0.01000
4674.60803,0.01183
4676.53650,0.01227
4678.46497,0.00056
4680.39344,-0.01089
4682.32190,-0.01220
4684.25037,-0.01475
4686.17884,-0.01795
4688.10731,-0.01123
4690.03578,0.00118
4691.96425,0.00894
4693.89272,0.00782
4695.82119,0.00531
4697.74965,0.00764
4699.67812,0.01324
4701.60659,0.01796
4703.53506,0.01723
4705.46353,0.01861
4707.39200,0.02504
4709.32047,0.02185
4711.24893,0.00641
4713.17740,-0.00201
4715.10587,0.00430
4717.03434,0.00620
4718.96281,-0.00772
4720.89128,-0.02337
4722.81975,-0.02106
4724.74821,-0.00296
4726.67668,0.00772
4728.60515,0.00640
4730.53362,0.00134
4732.46209,-0.00091
4734.39056,0.00553
4736.31903,0.00929
4738.24750,0.00583
4740.17596,0.00102
4742.10443,-0.00296
4744.03290,-0.00101
4745.96137,0.00145
4747.88984,0.00720
4749.81831,0.02388
4751.74678,0.03198
4753.67524,0.02742
4755.60371,0.02843
4757.53218,0.02652
4759.46065,0.01701
4761.38912,0.01689
4763.31759,0.02231
4765.24606,0.02094
4767.17453,0.01446
4769.10299,0.00582
4771.03146,0.00120
4772.95993,0.00389
4774.88840,0.01019
4776.81687,0.01731
4778.74534,0.01287
4780.67381,-0.00462
4782.60227,-0.01644
4784.53074,-0.01678
4786.45921,-0.00548
4788.38768,0.00895
4790.31615,0.00889
4792.24462,0.00081
4794.17309,0.00062
4796.10156,0.00555
4798.03002,0.00513
4799.95849,-0.00176
4801.88696,-0.00887
4803.81543,-0.00643
4805.74390,0.00337
4807.67237,0.00659
4809.60084,0.00288
4811.52930,-0.00384
4813.45777,-0.00874
4815.38624,-0.00543
4817.31471,0.00437
4819.24318,0.01902
4821.17165,0.02776
4823.10012,0.01985
4825.02859,0.00914
4826.95705,0.00908
4828.88552,0.01039
4830.81399,0.00782
4832.74246,0.00612
4834.67093,0.00633
4836.59940,0.01180
4838.52787,0.01561
4840.45633,0.00757
4842.38480,-0.00366
4844.31327,-0.00738
4846.24174,0.00074
4848.17021,0.01335
4850.09868,0.01972
4852.02715,0.02419
4853.95562,0.02908
4855.88408,0.02763
4857.81255,0.01991
4859.74102,0.01138
4861.66949,0.00979
4863.59796,0.01509
4865.52643,0.01782
4867.45490,0.01497
4869.38336,0.01385
4871.31183,0.02016
4873.24030,0.02171
4875.16877,0.01114
4877.09724,-0.00085
4879.02571,-0.00530
4880.95418,0.00281
4882.88265,0.01191
4884.81111,0.01028
4886.73958,0.00773
4888.66805,0.00940
4890.59652,0.01115
4892.52499,0.01070
4894.45346,0.00722
4896.38193,0.00616
4898.31039,0.00872
4900.23886,0.00621
4902.16733,0.00393
4904.09580,0.01090
4906.02427,0.02192
4907.95274,0.03029
4909.88121,0.03350
4911.80967,0.02835
4913.73814,0.01593
4915.66661,0.00576
4917.59508,0.00884
4919.52355,0.01633
4921.45202,0.01106
4923.38049,0.00380
4925.30896,0.01290
4927.23742,0.02154
4929.16589,0.01192
4931.09436,-0.00282
4933.02283,-0.01306
4934.95130,-0.01721
4936.87977,-0.01001
4938.80824,-0.00614
4940.73670,-0.01415
4942.66517,-0.01502
4944.59364,-0.01428
4946.52211,-0.02165
4948.45058,-0.01688
4950.37905,-0.00372
4952.30752,-0.00696
4954.23599,-0.01667
4956.16445,-0.00522
4958.09292,0.01615
4960.02139,0.01548
4961.94986,-0.00342
4963.87833,-0.01569
4965.80680,-0.00948
4967.73527,0.00871
4969.66373,0.01970
4971.59220,0.02256
4973.52067,0.02440
4975.44914,0.02338
4977.37761,0.02521
4979.30608,0.02628
4981.23455,0.02009
4983.16302,0.01975
4985.09148,0.03054
4987.01995,0.04464
4988.94842,0.05272
4990.87689,0.04539
4992.80536,0.03198
4994.73383,0.03182
4996.66230,0.03791
4998.59076,0.02667
5000.51923,0.00196
5002.44770,-0.01028
5004.37617,0.00015
5006.30464,0.01382
5008.23311,0.01037
5010.16158,0.00399
5012.09005,0.00479
5014.01851,-0.00037
5015.94698,0.00072
5017.87545,0.00893
5019.80392,0.00523
5021.73239,0.00317
5023.66086,0.00589
5025.58933,-0.00918
5027.51779,-0.03328
5029.44626,-0.03561
5031.37473,-0.01269
5033.30320,0.00586
5035.23167,0.00742
5037.16014,0.01101
5039.08861,0.01989
5041.01708,0.02820
5042.94554,0.03103
5044.87401,0.02460
5046.80248,0.01967
5048.73095,0.01318
5050.65942,0.00663
5052.58789,0.01358
5054.51636,0.02012
5056.44482,0.01355
5058.37329,0.00483
5060.30176,0.01143
5062.23023,0.02516
5064.15870,0.02107
5066.08717,0.00901
5068.01564,0.00314
5069.94410,-0.00357
5071.87257,-0.00676
5073.80104,0.00344
5075.72951,0.02342
5077.65798,0.03063
5079.58645,0.01751
5081.51492,0.01108
5083.44339,0.02172
5085.37185,0.03162
5087.30032,0.02769
5089.22879,0.01303
5091.15726,0.00502
5093.08573,0.00534
5095.01420,-0.00090
5096.94267,-0.00763
5098.87113,-0.00105
5100.79960,-0.00100
5102.72807,-0.01331
5104.65654,-0.01234
5106.58501,0.00568
5108.51348,0.01400
5110.44195,0.00372
5112.37042,-0.00574
5114.29888,0.00103
5116.22735,0.01365
5118.15582,0.01581
5120.08429,0.01271
5122.01276,0.00644
5123.94123,-0.00351
5125.86970,-0.01200
5127.79816,-0.00724
5129.72663,0.01028
5131.65510,0.01733
5133.58357,0.01338
5135.51204,0.01550
5137.44051,0.01114
5139.36898,-0.00004
5141.29745,-0.00548
5143.22591,-0.00890
5145.15438,0.00100
5147.08285,0.02582
5149.01132,0.04636
5150.93979,0.05352
5152.86826,0.04074
5154.79673,0.01610
5156.72519,0.01047
5158.65366,0.03096
5160.58213,0.04271
5162.51060,0.02703
5164.43907,0.00537
5166.36754,-0.00316
5168.29601,-0.00219
5170.22448,0.00237
5172.15294,-0.00199
5174.08141,-0.01789
5176.00988,-0.02406
5177.93835,-0.00760
5179.86682,0.01323
5181.79529,0.01354
5183.72376,0.00699
5185.65222,0.01003
5187.58069,0.00881
5189.50916,0.00220
5191.43763,0.00924
5193.36610,0.02955
5195.29457,0.02961
5197.22304,0.01263
5199.15151,0.01680
5201.07997,0.03328
5203.00844,0.05178
5204.93691,0.07766
5206.86538,0.07937
5208.79385,0.04623
5210.72232,0.02548
5212.65079,0.02299
5214.57925,0.01623
5216.50772,0.01428
5218.43619,0.01463
5220.36466,0.00271
5222.29313,0.00095
5224.22160,0.02310
5226.15007,0.05829
5228.07854,0.08646
5230.00700,0.08738
5231.93547,0.06823
5233.86394,0.05823
5235.79241,0.05888
5237.72088,0.04903
5239.64935,0.02266
5241.57782,-0.01007
5243.50628,-0.02735
5245.43475,-0.01893
5247.36322,0.00561
5249.29169,0.02678
5251.22016,0.02211
5253.14863,0.00551
5255.07710,-0.01249
5257.00556,-0.02523
5258.93403,-0.00708
5260.86250,0.03148
5262.79097,0.05433
5264.71944,0.04933
5266.64791,0.04012
5268.57638,0.04453
5270.50485,0.03873
5272.43331,0.01937
5274.36178,0.01619
5276.29025,0.02217
5278.21872,0.01993
5280.14719,0.02174
5282.07566,0.02679
5284.00413,0.00760
5285.93259,-0.02954
5287.86106,-0.03904
5289.78953,-0.01387
5291.71800,0.01095
5293.64647,0.01621
5295.57494,0.01447
5297.50341,0.01859
5299.43188,0.02407
5301.36034,0.01333
5303.28881,-0.01289
5305.21728,-0.02046
5307.14575,0.01431
5309.07422,0.05993
5311.00269,0.07308
5312.93116,0.08041
5314.85962,0.11033
5316.78809,0.12482
5318.71656,0.10082
5320.64503,0.07083
5322.57350,0.06086
5324.50197,0.05145
5326.43044,0.02375
5328.35891,0.00325
5330.28737,0.00644
5332.21584,0.02864
5334.14431,0.04858
5336.07278,0.04730
5338.00125,0.05131
5339.92972,0.07196
5341.85819,0.06993
5343.78665,0.04605
5345.71512,0.05052
5347.64359,0.07024
5349.57206,0.06151
5351.50053,0.03717
5353.42900,0.03773
5355.35747,0.06062
5357.28594,0.05687
5359.21440,0.03277
5361.14287,0.01968
5363.07134,0.03418
5364.99981,0.06377
5366.92828,0.05975
5368.85675,0.03035
5370.78522,0.01223
5372.71368,-0.00139
5374.64215,-0.00073
5376.57062,0.04467
5378.49909,0.08765
5380.42756,0.07614
5382.35603,0.04992
5384.28450,0.03973
5386.21297,0.01618
5388.14143,0.00087
5390.06990,0.02541
5391.99837,0.05189
5393.92684,0.06251
5395.85531,0.07028
5397.78378,0.06508
5399.71225,0.04854
5401.64071,0.04206
5403.56918,0.04282
5405.49765,0.03473
5407.42612,0.03283
5409.35459,0.04555
5411.28306,0.04819
5413.21153,0.03219
5415.13999,0.01620
5417.06846,0.01348
5418.99693,0.01508
5420.92540,0.01782
5422.85387,0.02810
5424.78234,0.02497
5426.71081,-0.00191
5428.63928,-0.01152
5430.56774,0.02452
5432.49621,0.06413
5434.42468,0.06790
5436.35315,0.05264
5438.28162,0.03420
5440.21009,-0.00089
5442.13856,-0.02845
5444.06702,-0.02309
5445.99549,-0.01219
5447.92396,-0.01085
5449.85243,-0.00013
5451.78090,0.00793
5453.70937,0.00305
5455.63784,0.01360
5457.56631,0.05690
5459.49477,0.11011
5461.42324,0.12396
5463.35171,0.08540
5465.28018,0.04432
5467.20865,0.02675
5469.13712,0.01113
5471.06559,-0.00402
5472.99405,0.01090
5474.92252,0.04766
5476.85099,0.07007
5478.77946,0.07189
5480.70793,0.06554
5482.63640,0.07476
5484.56487,0.09476
5486.49334,0.10134
5488.42180,0.10296
5490.35027,0.09172
5492.27874,0.04314
5494.20721,-0.00874
5496.13568,-0.01264
5498.06415,0.01766
5499.99262,0.04293
5501.92108,0.05776
5503.84955,0.08138
5505.77802,0.11050
5507.70649,0.10813
5509.63496,0.06674
5511.56343,0.03523
5513.49190,0.02421
5515.42037,0.01915
5517.34883,0.02970
5519.27730,0.03943
5521.20577,0.03950
5523.13424,0.05031
5525.06271,0.06378
5526.99118,0.05796
5528.91965,0.05118
5530.84811,0.07301
5532.77658,0.09701
5534.70505,0.10280
5536.63352,0.10753
5538.56199,0.10490
5540.49046,0.09291
5542.41893,0.09587
5544.34740,0.12767
5546.27586,0.16093
5548.20433,0.15654
5550.13280,0.12291
5552.06127,0.08313
5553.98974,0.06388
5555.91821,0.07235
5557.84668,0.07421
5559.77514,0.07445
5561.70361,0.08494
5563.63208,0.08540
5565.56055,0.08522
5567.48902,0.08153
5569.41749,0.05157
5571.34596,0.01792
5573.27443,0.01648
5575.20289,0.03884
5577.13136,0.05105
5579.05983,0.04781
5580.98830,0.04290
5582.91677,0.04944
5584.84524,0.06048
5586.77371,0.05557
5588.70217,0.04212
5590.63064,0.03946
5592.55911,0.04319
5594.48758,0.03250
5596.41605,0.00845
5598.34452,0.01716
5600.27299,0.07887
5602.20145,0.13015
5604.12992,0.11652
5606.05839,0.07349
5607.98686,0.04284
5609.91533,0.02417
5611.84380,0.01767
5613.77227,0.01400
5615.70074,0.01383
5617.62920,0.04351
5619.55767,0.09308
5621.48614,0.11526
5623.41461,0.10501
5625.34308,0.09291
5627.27155,0.08287
5629.20002,0.07928
5631.12848,0.09361
5633.05695,0.11507
5634.98542,0.11593
5636.91389,0.08987
5638.84236,0.08103
5640.77083,0.08090
5642.69930,0.04781
5644.62777,0.03421
5646.55623,0.07240
5648.48470,0.10404
5650.41317,0.10985
5652.34164,0.09763
5654.27011,0.07037
5656.19858,0.05147
5658.12705,0.04983
5660.05551,0.04654
5661.98398,0.03849
5663.91245,0.05601
5665.84092,0.09303
5667.76939,0.10504
5669.69786,0.08500
5671.62633,0.05111
5673.55480,0.01736
5675.48326,0.01988
5677.41173,0.05451
5679.34020,0.05143
5681.26867,0.01963
5683.19714,0.01558
5685.12561,0.04049
5687.05408,0.05271
5688.98254,0.03137
5690.91101,0.01480
5692.83948,0.00680
5694.76795,0.00140
5696.69642,0.03159
5698.62489,0.06984
5700.55336,0.07745
5702.48183,0.08228
5704.41029,0.09071
5706.33876,0.07206
5708.26723,0.03767
5710.19570,0.03122
5712.12417,0.05186
5714.05264,0.07098
5715.98111,0.08119
5717.90957,0.08020
5719.83804,0.05980
5721.76651,0.01468
5723.69498,-0.01171
5725.62345,0.02368
5727.55192,0.07527
5729.48039,0.10271
5731.40886,0.12049
5733.33732,0.12323
5735.26579,0.09033
5737.19426,0.04839
5739.12273,0.05116
5741.05120,0.08125
5742.97967,0.08957
5744.90814,0.08479
5746.83660,0.09873
5748.76507,0.10496
5750.69354,0.07361
5752.62201,0.05950
5754.55048,0.06951
5756.47895,0.04038
5758.40742,-0.00156
5760.33588,0.01339
5762.26435,0.05521
5764.19282,0.06461
5766.12129,0.06898
5768.04976,0.06899
5769.97823,0.04671
5771.90670,0.03801
5773.83517,0.04882
5775.76363,0.08556
5777.69210,0.15717
5779.62057,0.20356
5781.54904,0.17614
5783.47751,0.09902
5785.40598,0.05404
5787.33445,0.07716
5789.26291,0.08226
5791.19138,0.03539
5793.11985,0.01401
5795.04832,0.05197
5796.97679,0.10126
5798.90526,0.11392
5800.83373,0.08579
5802.76220,0.05313
5804.69066,0.05083
5806.61913,0.06171
5808.54760,0.06408
5810.47607,0.06196
5812.40454,0.05226
5814.33301,0.05166
5816.26148,0.08588
5818.18994,0.10335
5820.11841,0.08131
5822.04688,0.10074
5823.97535,0.15063
5825.90382,0.16945
5827.83229,0.15279
5829.76076,0.11032
5831.68923,0.08123
5833.61769,0.07776
5835.54616,0.07146
5837.47463,0.07447
5839.40310,0.09893
5841.33157,0.10591
5843.26004,0.07321
5845.18851,0.04971
5847.11697,0.09638
5849.04544,0.17000
5850.97391,0.16352
5852.90238,0.09841
5854.83085,0.05273
5856.75932,0.05261
5858.68779,0.08383
5860.61626,0.09675
5862.54472,0.08321
5864.47319,0.08259
5866.40166,0.08064
5868.33013,0.07159
5870.25860,0.08160
5872.18707,0.08902
5874.11554,0.06482
5876.04400,0.02343
5877.97247,0.02557
5879.90094,0.06401
5881.82941,0.04963
5883.75788,-0.00281
5885.68635,-0.02016
5887.61482,0.00134
5889.54329,0.03981
5891.47175,0.08428
5893.40022,0.12459
5895.32869,0.14781
5897.25716,0.14431
5899.18563,0.12729
5901.11410,0.13114
5903.04257,0.15151
5904.97103,0.15382
5906.89950,0.15170
5908.82797,0.16490
5910.75644,0.17476
5912.68491,0.15453
5914.61338,0.10805
5916.54185,0.07914
5918.47032,0.08114
5920.39878,0.09649
5922.32725,0.11966
5924.25572,0.12847
5926.18419,0.10406
5928.11266,0.06847
5930.04113,0.05532
5931.96960,0.07420
5933.89806,0.09557
5935.82653,0.08318
5937.75500,0.05617
5939.68347,0.06008
5941.61194,0.09968
5943.54041,0.14481
5945.46888,0.17592
5947.39734,0.17109
5949.32581,0.12895
5951.25428,0.09065
5953.18275,0.06594
5955.11122,0.06435
5957.03969,0.07742
5958.96816,0.04895
5960.89663,0.01771
5962.82509,0.05737
5964.75356,0.10507
5966.68203,0.09115
5968.61050,0.05206
5970.53897,0.04197
5972.46744,0.07416
5974.39591,0.10927
5976.32437,0.11666
5978.25284,0.11422
5980.18131,0.07862
5982.10978,0.02619
5984.03825,0.01374
5985.96672,0.01653
5987.89519,-0.00736
5989.82366,-0.05102
5991.75212,-0.06102
5993.68059,-0.00154
5995.60906,0.07759
5997.53753,0.10039
5999.46600,0.05767
6001.39447,0.00549
6003.32294,0.00107
6005.25140,0.03042
6007.17987,0.04841
6009.10834,0.04730
6011.03681,0.04445
6012.96528,0.06019
6014.89375,0.06260
6016.82222,0.03153
6018.75069,0.02563
6020.67915,0.04425
6022.60762,0.03571
6024.53609,0.02643
6026.46456,0.05153
6028.39303,0.09053
6030.32150,0.11940
6032.24997,0.12539
6034.17843,0.08142
6036.10690,0.01980
6038.03537,-0.00378
6039.96384,0.01218
6041.89231,0.06678
6043.82078,0.13711
6045.74925,0.18183
6047.67772,0.17653
6049.60618,0.13753
6051.53465,0.14563
6053.46312,0.19929
6055.39159,0.18928
6057.32006,0.08019
6059.24853,-0.02315
6061.17700,-0.03018
6063.10546,0.00879
6065.03393,0.00961
6066.96240,-0.00044
6068.89087,0.01961
6070.81934,0.05336
6072.74781,0.04901
6074.67628,0.00949
6076.60475,0.01257
6078.53321,0.07069
6080.46168,0.12208
6082.39015,0.11881
6084.31862,0.06674
6086.24709,0.01299
6088.17556,-0.01668
6090.10403,-0.02966
6092.03249,-0.01671
6093.96096,0.02191
6095.88943,0.05393
6097.81790,0.06917
6099.74637,0.08066
6101.67484,0.09225
6103.60331,0.07951
6105.53177,0.05097
6107.46024,0.04793
6109.38871,0.03878
6111.31718,0.02494
6113.24565,0.03493
6115.17412,0.03233
6117.10259,0.03902
6119.03106,0.07594
6120.95952,0.10695
6122.88799,0.13774
6124.81646,0.15373
6126.74493,0.11467
6128.67340,0.08100
6130.60187,0.12227
6132.53034,0.16308
6134.45880,0.12761
6136.38727,0.06543
6138.31574,0.07312
6140.24421,0.14810
6142.17268,0.19619
6144.10115,0.16314
6146.02962,0.08899
6147.95809,0.04474
6149.88655,0.06283
6151.81502,0.12064
6153.74349,0.13315
6155.67196,0.08094
6157.60043,0.04689
6159.52890,0.05327
6161.45737,0.04384
6163.38583,-0.00622
6165.31430,-0.05001
6167.24277,-0.05762
6169.17124,-0.05688
6171.09971,-0.04204
6173.02818,0.02391
6174.95665,0.10643
6176.88512,0.14443
6178.81358,0.15506
6180.74205,0.16749
6182.67052,0.17488
6184.59899,0.17968
6186.52746,0.16301
6188.45593,0.10693
6190.38440,0.05089
6192.31286,0.01931
6194.24133,0.02130
6196.16980,0.05750
6198.09827,0.04832
6200.02674,-0.03520
6201.95521,-0.07498
6203.88368,-0.02612
6205.81215,0.01534
6207.74061,0.01925
6209.66908,0.02227
6211.59755,0.03771
6213.52602,0.05705
6215.45449,0.05415
6217.38296,0.04060
6219.31143,0.05487
6221.23989,0.07634
6223.16836,0.08411
6225.09683,0.11837
6227.02530,0.18294
6228.95377,0.19054
6230.88224,0.10995
6232.81071,0.06333
6234.73918,0.07787
6236.66764,0.05179
6238.59611,0.03003
6240.52458,0.06851
6242.45305,0.08470
6244.38152,0.04084
6246.30999,0.03014
6248.23846,0.08357
6250.16692,0.12226
6252.09539,0.11986
6254.02386,0.10203
6255.95233,0.05903
6257.88080,0.00471
6259.80927,-0.01571
6261.73774,-0.00912
6263.66621,0.02054
6265.59467,0.10070
6267.52314,0.15396
6269.45161,0.12221
6271.38008,0.08242
6273.30855,0.04626
6275.23702,-0.00173
6277.16549,0.00797
6279.09395,0.03903
6281.02242,0.01385
6282.95089,-0.00192
6284.87936,0.02482
6286.80783,0.03145
6288.73630,0.01849
6290.66477,0.00120
6292.59323,-0.00447
6294.52170,0.06230
6296.45017,0.15704
6298.37864,0.18928
6300.30711,0.18667
6302.23558,0.18561
6304.16405,0.16365
6306.09252,0.11658
6308.02098,0.07156
6309.94945,0.05703
6311.87792,0.06135
6313.80639,0.07569
6315.73486,0.10048
6317.66333,0.08481
6319.59180,0.02415
6321.52026,0.02481
6323.44873,0.08553
6325.37720,0.07922
6327.30567,0.03250
6329.23414,0.04284
6331.16261,0.08342
6333.09108,0.09846
6335.01955,0.09411
6336.94801,0.08186
6338.87648,0.03202
6340.80495,-0.05490
6342.73342,-0.07179
6344.66189,0.04428
6346.59036,0.19659
6348.51883,0.26345
6350.44729,0.24692
6352.37576,0.20979
6354.30423,0.15997
6356.23270,0.07822
6358.16117,-0.00505
6360.08964,-0.05729
6362.01811,-0.04773
6363.94658,0.02997
6365.87504,0.13043
6367.80351,0.19037
6369.73198,0.14012
6371.66045,0.02791
6373.58892,-0.02931
6375.51739,-0.02333
6377.44586,0.02734
6379.37432,0.09922
6381.30279,0.10679
6383.23126,0.04535
6385.15973,0.04098
6387.08820,0.09243
6389.01667,0.10983
6390.94514,0.10078
6392.87361,0.10638
6394.80207,0.09802
6396.73054,0.09719
6398.65901,0.16007
6400.58748,0.20790
6402.51595,0.19945
6404.44442,0.21543
6406.37289,0.21072
6408.30135,0.11808
6410.22982,0.05815
6412.15829,0.12744
6414.08676,0.21962
6416.01523,0.22220
6417.94370,0.15479
6419.87217,0.10791
6421.80064,0.10174
6423.72910,0.08649
6425.65757,0.07282
6427.58604,0.09153
6429.51451,0.07848
6431.44298,0.00583
6433.37145,-0.04349
6435.29992,-0.06525
6437.22838,-0.08864
6439.15685,-0.09040
6441.08532,-0.06544
6443.01379,-0.00954
6444.94226,0.05909
6446.87073,0.10256
6448.79920,0.10709
6450.72766,0.05466
6452.65613,-0.00688
6454.58460,-0.00701
6456.51307,0.01478
6458.44154,0.01567
6460.37001,0.01633
6462.29848,0.03183
6464.22695,0.07526
6466.15541,0.10869
6468.08388,0.08405
6470.01235,0.03380
6471.94082,0.03001
6473.86929,0.07791
6475.79776,0.09998
6477.72623,0.09063
6479.65469,0.06285
6481.58316,0.00628
6483.51163,-0.01390
6485.44010,0.00281
6487.36857,0.01585
6489.29704,0.03535
6491.22551,0.06405
6493.15398,0.06123
6495.08244,0.03690
6497.01091,0.08202
6498.93938,0.18417
6500.86785,0.21749
6502.79632,0.10837
6504.72479,-0.02691
6506.65326,-0.04891
6508.58172,-0.01213
6510.51019,0.00712
6512.43866,0.07459
6514.36713,0.13740
6516.29560,0.08522
6518.22407,-0.00282
6520.15254,-0.03962
6522.08101,-0.05901
6524.00947,-0.03268
6525.93794,0.05060
6527.86641,0.05874
6529.79488,-0.00365
6531.72335,-0.00047
6533.65182,0.07750
6535.58029,0.14368
6537.50875,0.12568
6539.43722,0.02319
6541.36569,-0.05687
6543.29416,-0.06329
6545.22263,-0.03964
6547.15110,0.02406
6549.07957,0.16117
6551.00804,0.29875
6552.93650,0.29583
6554.86497,0.14722
6556.79344,0.00814
6558.72191,-0.06606
6560.65038,-0.13898
6562.57885,-0.14284
6564.50732,-0.02345
6566.43578,0.10112
6568.36425,0.13371
6570.29272,0.06773
6572.22119,-0.00865
6574.14966,0.00296
6576.07813,0.06416
6578.00660,0.12324
6579.93507,0.19445
6581.86353,0.25211
6583.79200,0.23181
6585.72047,0.15364
6587.64894,0.08102
6589.57741,0.05168
6591.50588,0.05835
6593.43435,0.05158
6595.36281,0.00515
6597.29128,-0.03310
6599.21975,0.00972
6601.14822,0.11174
6603.07669,0.15078
6605.00516,0.11355
6606.93363,0.03414
6608.86210,-0.06022
6610.79056,-0.11175
6612.71903,-0.12175
6614.64750,-0.11220
6616.57597,-0.05226
6618.50444,0.02225
6620.43291,0.05201
6622.36138,0.08135
6624.28984,0.12715
6626.21831,0.10263
6628.14678,0.00487
6630.07525,-0.03211
6632.00372,0.00468
6633.93219,-0.00081
6635.86066,-0.01483
6637.78912,0.04585
6639.71759,0.06385
6641.64606,-0.01047
6643.57453,-0.02717
6645.50300,0.05867
6647.43147,0.07056
6649.35994,-0.04016
6651.28841,-0.15062
6653.21687,-0.18555
6655.14534,-0.12974
6657.07381,-0.02852
6659.00228,0.05607
6660.93075,0.05359
6662.85922,0.00105
6664.78769,0.06856
6666.71615,0.20284
6668.64462,0.19562
6670.57309,0.04903
6672.50156,-0.04107
6674.43003,0.00326
6676.35850,0.04114
6678.28697,0.03859
6680.21544,0.05080
6682.14390,0.02712
6684.07237,-0.05101
6686.00084,-0.09184
6687.92931,-0.01707
6689.85778,0.15579
6691.78625,0.28010
6693.71472,0.28377
6695.64318,0.18719
6697.57165,0.02762
6699.50012,-0.11240
6701.42859,-0.14507
6703.35706,-0.05745
6705.28553,0.05378
6707.21400,0.10109
6709.14247,0.05370
6711.07093,-0.01738
6712.99940,-0.00545
6714.92787,0.03742
6716.85634,0.07770
6718.78481,0.14378
6720.71328,0.15592
6722.64175,0.14159
6724.57021,0.14619
6726.49868,0.09700
6728.42715,0.00610
6730.35562,-0.09020
6732.28409,-0.14368
6734.21256,-0.09259
6736.14103,-0.00610
6738.06950,0.00724
6739.99796,-0.00104
6741.92643,-0.01196
6743.85490,-0.08437
6745.78337,-0.13390
6747.71184,-0.11215
6749.64031,-0.11451
6751.56878,-0.15872
6753.49724,-0.13281
6755.42571,0.00997
6757.35418,0.13307
6759.28265,0.11125
6761.21112,0.01797
6763.13959,-0.00286
6765.06806,0.01781
6766.99653,0.01907
6768.92499,0.03408
6770.85346,0.08407
6772.78193,0.17569
6774.71040,0.29056
6776.63887,0.34024
6778.56734,0.29669
6780.49581,0.19046
6782.42427,0.10306
6784.35274,0.10164
6786.28121,0.08635
6788.20968,0.02515
6790.13815,0.02186
6792.06662,0.08964
6793.99509,0.16719
6795.92355,0.21736
6797.85202,0.16742
6799.78049,0.02176
6801.70896,-0.04718
6803.63743,0.06463
6805.56590,0.11205
6807.49437,-0.02262
6809.42284,-0.09824
6811.35130,0.04114
6813.27977,0.18698
6815.20824,0.15167
6817.13671,0.04847
6819.06518,-0.00517
6820.99365,0.04534
6822.92212,0.18584
6824.85058,0.23627
6826.77905,0.14468
6828.70752,0.01265
6830.63599,-0.09177
6832.56446,-0.16617
6834.49293,-0.18271
6836.42140,-0.13774
6838.34987,-0.09023
6840.27833,-0.04649
6842.20680,-0.04014
6844.13527,-0.05922
6846.06374,-0.01818
6847.99221,0.03265
6849.92068,0.02346
6851.84915,-0.00364
6853.77761,-0.01819
6855.70608,-0.00059
6857.63455,0.02413
6859.56302,0.06814
6861.49149,0.17339
6863.41996,0.22913
6865.34843,0.13938
6867.27690,0.02989
6869.20536,0.05826
6871.13383,0.15635
6873.06230,0.18925
6874.99077,0.17534
6876.91924,0.18943
6878.84771,0.16782
6880.77618,0.07457
6882.70464,0.00722
6884.63311,-0.06878
6886.56158,-0.21220
6888.49005,-0.28808
6890.41852,-0.16377
6892.34699,0.06252
6894.27546,0.19182
6896.20393,0.20091
6898.13239,0.18815
6900.06086,0.22754
6901.98933,0.26412
6903.91780,0.19214
6905.84627,0.07649
6907.77474,0.05789
6909.70321,0.08645
6911.63167,0.13584
6913.56014,0.23268
6915.48861,0.27541
6917.41708,0.16288
6919.34555,0.03124
6921.27402,0.06213
6923.20249,0.14246
6925.13096,0.19913
6927.05942,0.22052
6928.98789,0.17759
6930.91636,0.14743
6932.84483,0.13829
6934.77330,0.06949
6936.70177,-0.01015
6938.63024,-0.07037
6940.55870,-0.10620
6942.48717,-0.06739
6944.41564,0.05555
6946.34411,0.19362
6948.27258,0.19076
6950.20105,0.02496
6952.12952,-0.16262
6954.05799,-0.27869
6955.98645,-0.26152
6957.91492,-0.20414
6959.84339,-0.20235
6961.77186,-0.16111
6963.70033,-0.06767
6965.62880,-0.00409
6967.55727,0.05509
6969.48573,0.16135
6971.41420,0.20141
6973.34267,0.07075
6975.27114,-0.09348
6977.19961,-0.15217
6979.12808,-0.12297
6981.05655,-0.14000
6982.98501,-0.20841
6984.91348,-0.02849
6986.84195,0.25515
6988.77042,0.26812
6990.69889,0.20385
6992.62736,0.21724
6994.55583,0.20275
6996.48430,0.12385
6998.41276,0.03442
7000.34123,0.00375
7002.26970,-0.03162
7004.19817,-0.10026
7006.12664,-0.12513
7008.05511,-0.08565
7009.98358,-0.05742
7011.91204,-0.02444
7013.84051,0.05652
7015.76898,0.15685
7017.69745,0.23770
7019.62592,0.29417
7021.55439,0.31121
7023.48286,0.25013
7025.41133,0.13541
7027.33979,0.10597
7029.26826,0.21217
7031.19673,0.24116
7033.12520,0.16229
7035.05367,0.08432
7036.98214,-0.02228
7038.91061,-0.11873
7040.83907,-0.07610
7042.76754,0.15245
7044.69601,0.36966
7046.62448,0.36678
7048.55295,0.13814
7050.48142,-0.03112
7052.40989,0.00800
7054.33836,0.08374
7056.26682,0.06354
7058.19529,0.02592
7060.12376,0.05419
7062.05223,0.04957
7063.98070,0.00086
7065.90917,-0.00497
7067.83764,0.05536
7069.76610,0.15489
7071.69457,0.18550
7073.62304,0.12285
7075.55151,0.04041
7077.47998,0.01031
7079.40845,0.11140
7081.33692,0.27862
7083.26539,0.26591
7085.19385,0.13548
7087.12232,0.05891
7089.05079,-0.01366
7090.97926,-0.09162
7092.90773,-0.04425
7094.83620,0.05063
7096.76467,0.07673
7098.69313,0.14619
7100.62160,0.30174
7102.55007,0.31467
7104.47854,0.08004
7106.40701,-0.06300
7108.33548,0.08014
7110.26395,0.13982
7112.19242,0.04028
7114.12088,0.03365
7116.04935,0.15593
7117.97782,0.15988
7119.90629,-0.01057
7121.83476,-0.03762
7123.76323,0.05036
7125.69170,0.02694
7127.62016,-0.06198
7129.54863,-0.09550
7131.47710,-0.02846
7133.40557,0.13759
7135.33404,0.27668
7137.26251,0.35069
7139.19098,0.39530
7141.11944,0.38486
7143.04791,0.33040
7144.97638,0.24047
7146.90485,0.19502
7148.83332,0.18417
7150.76179,0.06600
7152.69026,0.02230
7154.61873,0.23575
7156.54719,0.31353
7158.47566,0.17714
7160.40413,0.06601
7162.33260,-0.01493
7164.26107,-0.04160
7166.18954,0.04668
7168.11801,0.20118
7170.04647,0.34080
7171.97494,0.28843
7173.90341,0.08316
7175.83188,-0.05695
7177.76035,-0.06143
7179.68882,-0.01069
7181.61729,-0.00879
7183.54576,-0.08153
7185.47422,-0.10800
7187.40269,-0.01681
7189.33116,0.13354
7191.25963,0.20458
7193.18810,0.22399
7195.11657,0.29230
7197.04504,0.30733
7198.97350,0.22333
7200.90197,0.07762
7202.83044,-0.11927
7204.75891,-0.23800
7206.68738,-0.13288
7208.61585,-0.00449
7210.54432,0.04677
7212.47279,0.08141
7214.40125,0.11229
7216.32972,0.11803
7218.25819,0.08221
7220.18666,0.06059
7222.11513,0.07312
7224.04360,0.01985
7225.97207,-0.09920
7227.90053,-0.17702
7229.82900,-0.16394
7231.75747,-0.01657
7233.68594,0.09784
7235.61441,0.05972
7237.54288,0.04436
7239.47135,0.16970
7241.39982,0.21303
7243.32828,-0.00602
7245.25675,-0.16155
7247.18522,-0.12302
7249.11369,-0.08104
7251.04216,-0.05663
7252.97063,0.10323
7254.89910,0.28759
7256.82756,0.32496
7258.75603,0.30022
7260.68450,0.17435
7262.61297,0.00267
7264.54144,0.06755
7266.46991,0.18762
7268.39838,0.07440
7270.32685,-0.14727
7272.25531,-0.21527
7274.18378,-0.15596
7276.11225,-0.18148
7278.04072,-0.18546
7279.96919,0.05439
7281.89766,0.26478
7283.82613,0.15972
7285.75459,0.02311
7287.68306,0.03787
7289.61153,0.09655
7291.54000,0.08270
7293.46847,-0.03923
7295.39694,-0.18994
7297.32541,-0.15162
7299.25387,0.05620
7301.18234,0.19684
7303.11081,0.18498
7305.03928,0.08368
7306.96775,-0.09254
7308.89622,-0.28946
7310.82469,-0.27817
7312.75316,-0.05266
7314.68162,0.13727
7316.61009,0.04501
7318.53856,-0.19724
7320.46703,-0.26589
7322.39550,-0.14285
7324.32397,-0.00454
7326.25244,0.04109
7328.18090,0.07556
7330.10937,0.16331
7332.03784,0.28887
7333.96631,0.34696
7335.89478,0.30770
7337.82325,0.33509
7339.75172,0.46374
7341.68019,0.30109
7343.60865,0.01480
7345.53712,-0.02059
7347.46559,0.08825
7349.39406,0.15949
7351.32253,0.36623
7353.25100,0.61716
7355.17947,0.54932
7357.10793,0.29367
7359.03640,0.37306
7360.96487,0.51697
7362.89334,0.25705
7364.82181,-0.04406
7366.75028,-0.06336
7368.67875,0.04762
7370.60722,0.02754
7372.53568,-0.07128
7374.46415,0.01126
7376.39262,0.18202
7378.32109,0.14182
7380.24956,0.05962
7382.17803,-0.07745
7384.10650,-0.28255
7386.03496,-0.31039
7387.96343,-0.13822
7389.89190,0.00661
7391.82037,0.12104
7393.74884,0.13928
7395.67731,-0.04170
7397.60578,-0.19653
7399.53425,-0.17370
7401.46271,-0.04981
7403.39118,0.04230
7405.31965,-0.05344
7407.24812,-0.14540
7409.17659,0.02399
7411.10506,0.22151
7413.03353,0.15543
7414.96199,-0.03782
7416.89046,-0.16003
7418.81893,-0.06583
7420.74740,0.11811
7422.67587,0.12365
7424.60434,0.12918
7426.53281,0.19883
7428.46128,0.19100
7430.38974,0.26392
7432.31821,0.57578
7434.24668,0.73338
7436.17515,0.58780
7438.10362,0.32115
7440.03209,0.07072
7441.96056,-0.00581
7443.88902,0.06089
7445.81749,0.14946
7447.74596,0.16381
7449.67443,0.09612
7451.60290,0.15416
7453.53137,0.20651
7455.45984,0.08087
7457.38831,-0.06787
7459.31677,-0.11966
7461.24524,-0.05482
7463.17371,-0.04821
7465.10218,-0.10343
7467.03065,-0.09152
7468.95912,0.00511
7470.88759,0.17333
7472.81605,0.33310
7474.74452,0.37494
7476.67299,0.34113
7478.60146,0.41850
7480.52993,0.62777
7482.45840,0.58971
7484.38687,0.24062
7486.31533,0.00896
7488.24380,0.02787
7490.17227,0.08035
7492.10074,0.11705
7494.02921,0.15427
7495.95768,0.16613
7497.88615,0.23451
