399.19301,3.47189
401.12148,0.12237
403.04995,0.39653
404.97842,0.37819
406.90689,0.18139
408.83536,0.12984
410.76382,0.13366
412.69229,0.06999
414.62076,0.06034
416.54923,0.08724
418.47770,0.06004
420.40617,0.03166
422.33464,0.02533
424.26311,-0.02739
426.19157,-0.08152
428.12004,-0.09488
430.04851,-0.11124
431.97698,-0.17096
433.90545,-0.22928
435.83392,-0.23441
437.76239,-0.14343
439.69085,0.03929
441.61932,0.17583
443.54779,0.16433
445.47626,0.14079
447.40473,0.13912
449.33320,0.08586
451.26167,0.02018
453.19013,-0.00347
455.11860,-0.00897
457.04707,0.00015
458.97554,0.03365
460.90401,0.00532
462.83248,-0.08183
464.76095,-0.08831
466.68942,-0.02888
468.61788,-0.02207
470.54635,-0.05082
472.47482,-0.08147
474.40329,-0.12805
476.33176,-0.14575
478.26023,-0.10493
480.18870,-0.05973
482.11716,-0.01080
484.04563,0.07028
485.97410,0.10935
487.90257,0.06174
489.83104,-0.00600
491.75951,-0.06423
493.68798,-0.13318
495.61645,-0.17815
497.54491,-0.16152
499.47338,-0.09604
501.40185,-0.04474
503.33032,-0.05475
505.25879,-0.08495
507.18726,-0.09076
509.11573,-0.04596
511.04419,0.00568
512.97266,0.03022
514.90113,0.05395
516.82960,0.06466
518.75807,-0.00366
520.68654,-0.09090
522.61501,-0.10861
524.54348,-0.05729
526.47194,0.02470
528.40041,0.02991
530.32888,-0.04966
532.25735,-0.12245
534.18582,-0.14551
536.11429,-0.14317
538.04276,-0.12118
539.97122,-0.11486
541.89969,-0.14105
543.82816,-0.13796
545.75663,-0.11097
547.68510,-0.06473
549.61357,0.29562
551.54204,1.79022
553.47051,3.41593
555.39897,2.77062
557.32744,0.83322
559.25591,0.03635
561.18438,0.02068
563.11285,-0.02140
565.04132,-0.08208
566.96979,-0.08536
568.89825,-0.03975
570.82672,-0.02615
572.75519,-0.03519
574.68366,-0.03676
576.61213,-0.04482
578.54060,-0.05433
580.46907,-0.02916
582.39754,-0.00249
584.32600,0.01006
586.25447,0.02142
588.18294,0.01814
590.11141,-0.00497
592.03988,-0.01291
593.96835,-0.00812
595.89682,-0.03665
597.82528,-0.06064
599.75375,-0.04020
601.68222,-0.00420
603.61069,0.01342
605.53916,0.02862
607.46763,0.05383
609.39610,0.05883
611.32456,0.05816
613.25303,0.09061
615.18150,0.12565
617.10997,0.12855
619.03844,0.10699
620.96691,0.07880
622.89538,0.06236
624.82385,0.06653
626.75231,0.06784
628.68078,0.06318
630.60925,0.07756
632.53772,0.09766
634.46619,0.09366
636.39466,0.07605
638.32313,0.07848
640.25159,0.09860
642.18006,0.09007
644.10853,0.05797
646.03700,0.05648
647.96547,0.08813
649.89394,0.10659
651.82241,0.09303
653.75088,0.06443
655.67934,0.04928
657.60781,0.05831
659.53628,0.07222
661.46475,0.07530
663.39322,0.07779
665.32169,0.09377
667.25016,0.11459
669.17862,0.11306
671.10709,0.09270
673.03556,0.07122
674.96403,0.05462
676.89250,0.05231
678.82097,0.05917
680.74944,0.06417
682.67791,0.06894
684.60637,0.07572
686.53484,0.07911
688.46331,0.08158
690.39178,0.09105
692.32025,0.09868
694.24872,0.09652
696.17719,0.08957
698.10565,0.08101
700.03412,0.07699
701.96259,0.08385
703.89106,0.09361
705.81953,0.09536
707.74800,0.08843
709.67647,0.07830
711.60494,0.07442
713.53340,0.07390
715.46187,0.07272
717.39034,0.07816
719.31881,0.09088
721.24728,0.10302
723.17575,0.10504
725.10422,0.10192
727.03268,0.10163
728.96115,0.10085
730.88962,0.09673
732.81809,0.09323
734.74656,0.09285
736.67503,0.09318
738.60350,0.09593
740.53197,0.09413
742.46043,0.08180
744.38890,0.07207
746.31737,0.07460
748.24584,0.08849
750.17431,0.10695
752.10278,0.11385
754.03125,0.10659
755.95971,0.09767
757.88818,0.09469
759.81665,0.09800
761.74512,0.10260
763.67359,0.10624
765.60206,0.10403
767.53053,0.09891
769.45900,0.10444
771.38746,0.11534
773.31593,0.11182
775.24440,0.09020
777.17287,0.07329
779.10134,0.07115
781.02981,0.06858
782.95828,0.06367
784.88674,0.06537
786.81521,0.07653
788.74368,0.09440
790.67215,0.10601
792.60062,0.10367
794.52909,0.10074
796.45756,0.10697
798.38602,0.11190
800.31449,0.10620
802.24296,0.10187
804.17143,0.11002
806.09990,0.11948
808.02837,0.12879
809.95684,0.14017
811.88531,0.13890
813.81377,0.12098
815.74224,0.10221
817.67071,0.10154
819.59918,0.11821
821.52765,0.12287
823.45612,0.10566
825.38459,0.09967
827.31305,0.11893
829.24152,0.13247
831.16999,0.12893
833.09846,0.12089
835.02693,0.10732
836.95540,0.09332
838.88387,0.08862
840.81234,0.09031
842.74080,0.09843
844.66927,0.11052
846.59774,0.11522
848.52621,0.11389
850.45468,0.11734
852.38315,0.12446
854.31162,0.12998
856.24008,0.12882
858.16855,0.12252
860.09702,0.12685
862.02549,0.13663
863.95396,0.12688
865.88243,0.10933
867.81090,0.10991
869.73937,0.11598
871.66783,0.11310
873.59630,0.11109
875.52477,0.11092
877.45324,0.10632
879.38171,0.10618
881.31018,0.11777
883.23865,0.12457
885.16711,0.11330
887.09558,0.10564
889.02405,0.11770
890.95252,0.12752
892.88099,0.11943
894.80946,0.10609
896.73793,0.10431
898.66640,0.11113
900.59486,0.11447
902.52333,0.11756
904.45180,0.12060
906.38027,0.11857
908.30874,0.11870
910.23721,0.12282
912.16568,0.12406
914.09414,0.11467
916.02261,0.09598
917.95108,0.08553
919.87955,0.09001
921.80802,0.09674
923.73649,0.09555
925.66496,0.09303
927.59343,0.09758
929.52189,0.10515
931.45036,0.11285
933.37883,0.11857
935.30730,0.11914
937.23577,0.11507
939.16424,0.10723
941.09271,0.09888
943.02117,0.09647
944.94964,0.10338
946.87811,0.11596
948.80658,0.12508
950.73505,0.12762
952.66352,0.13039
954.59199,0.13165
956.52045,0.12771
958.44892,0.12335
960.37739,0.12174
962.30586,0.12574
964.23433,0.13107
966.16280,0.13082
968.09127,0.12873
970.01974,0.12780
971.94820,0.12324
973.87667,0.11922
975.80514,0.11830
977.73361,0.11563
979.66208,0.11648
981.59055,0.12190
983.51902,0.12684
985.44748,0.12233
987.37595,0.10788
989.30442,0.10242
991.23289,0.10926
993.16136,0.11516
995.08983,0.11480
997.01830,0.10799
998.94677,0.09759
1000.87523,0.09293
1002.80370,0.09685
1004.73217,0.10382
1006.66064,0.11004
1008.58911,0.11474
1010.51758,0.12300
1012.44605,0.13183
1014.37451,0.12857
1016.30298,0.11956
1018.23145,0.12012
1020.15992,0.11906
1022.08839,0.10910
1024.01686,0.10178
1025.94533,0.13618
1027.87380,0.22303
1029.80226,0.23779
1031.73073,0.15577
1033.65920,0.12072
1035.58767,0.13757
1037.51614,0.14729
1039.44461,0.15653
1041.37308,0.15239
1043.30154,0.13422
1045.23001,0.12333
1047.15848,0.11635
1049.08695,0.11448
1051.01542,0.12610
1052.94389,0.13251
1054.87236,0.12448
1056.80083,0.12064
1058.72929,0.12937
1060.65776,0.14202
1062.58623,0.14879
1064.51470,0.14898
1066.44317,0.14695
1068.37164,0.14214
1070.30011,0.13753
1072.22857,0.14268
1074.15704,0.15356
1076.08551,0.16281
1078.01398,0.16580
1079.94245,0.15820
1081.87092,0.14818
1083.79939,0.13769
1085.72786,0.12771
1087.65632,0.12830
1089.58479,0.13367
1091.51326,0.13008
1093.44173,0.12298
1095.37020,0.12601
1097.29867,0.13622
1099.22714,0.14445
1101.15560,0.14918
1103.08407,0.14739
1105.01254,0.13984
1106.94101,0.13584
1108.86948,0.13454
1110.79795,0.12911
1112.72642,0.12401
1114.65489,0.12169
1116.58335,0.12132
1118.51182,0.12362
1120.44029,0.12154
1122.36876,0.11981
1124.29723,0.12708
1126.22570,0.12954
1128.15417,0.12622
1130.08263,0.12913
1132.01110,0.13080
1133.93957,0.12681
1135.86804,0.12255
1137.79651,0.12198
1139.72498,0.12744
1141.65345,0.13567
1143.58191,0.14240
1145.51038,0.14433
1147.43885,0.14444
1149.36732,0.15158
1151.29579,0.15746
1153.22426,0.14574
1155.15273,0.12697
1157.08120,0.12452
1159.00966,0.13467
1160.93813,0.14115
1162.86660,0.14452
1164.79507,0.14591
1166.72354,0.14122
1168.65201,0.13451
1170.58048,0.13198
1172.50894,0.13419
1174.43741,0.14102
1176.36588,0.14927
1178.29435,0.14792
1180.22282,0.13885
1182.15129,0.13730
1184.07976,0.13388
1186.00823,0.11781
1187.93669,0.11491
1189.86516,0.13277
1191.79363,0.14390
1193.72210,0.14480
1195.65057,0.15015
1197.57904,0.15611
1199.50751,0.15199
1201.43597,0.14350
1203.36444,0.14009
1205.29291,0.13730
1207.22138,0.13182
1209.14985,0.13126
1211.07832,0.13722
1213.00679,0.14121
1214.93526,0.14098
1216.86372,0.13993
1218.79219,0.13987
1220.72066,0.14116
1222.64913,0.14253
1224.57760,0.14427
1226.50607,0.14528
1228.43454,0.14271
1230.36300,0.13954
1232.29147,0.13955
1234.21994,0.13972
1236.14841,0.13862
1238.07688,0.13974
1240.00535,0.14440
1241.93382,0.15148
1243.86229,0.15890
1245.79075,0.16267
1247.71922,0.15812
1249.64769,0.14970
1251.57616,0.14795
1253.50463,0.15186
1255.43310,0.15382
1257.36157,0.15124
1259.29003,0.14687
1261.21850,0.14678
1263.14697,0.15076
1265.07544,0.15068
1267.00391,0.14751
1268.93238,0.15086
1270.86085,0.15702
1272.78932,0.15520
1274.71778,0.14817
1276.64625,0.14600
1278.57472,0.15031
1280.50319,0.15356
1282.43166,0.15149
1284.36013,0.14736
1286.28860,0.14473
1288.21706,0.14596
1290.14553,0.14932
1292.07400,0.15036
1294.00247,0.14873
1295.93094,0.14705
1297.85941,0.14822
1299.78788,0.15007
1301.71634,0.14337
1303.64481,0.12852
1305.57328,0.12367
1307.50175,0.13699
1309.43022,0.15363
1311.35869,0.16281
1313.28716,0.16337
1315.21563,0.15803
1317.14409,0.15690
1319.07256,0.16072
1321.00103,0.16253
1322.92950,0.16154
1324.85797,0.15498
1326.78644,0.14563
1328.71491,0.14234
1330.64337,0.14298
1332.57184,0.14388
1334.50031,0.14727
1336.42878,0.15365
1338.35725,0.16003
1340.28572,0.15913
1342.21419,0.15804
1344.14266,0.16678
1346.07112,0.17199
1347.99959,0.16438
1349.92806,0.15468
1351.85653,0.15048
1353.78500,0.15219
1355.71347,0.15868
1357.64194,0.16418
1359.57040,0.16658
1361.49887,0.16887
1363.42734,0.16711
1365.35581,0.16021
1367.28428,0.15639
1369.21275,0.15735
1371.14122,0.16075
1373.06969,0.16635
1374.99815,0.16892
1376.92662,0.16692
1378.85509,0.16722
1380.78356,0.17034
1382.71203,0.17329
1384.64050,0.17334
1386.56897,0.16916
1388.49743,0.16368
1390.42590,0.16233
1392.35437,0.16841
1394.28284,0.18029
1396.21131,0.18803
1398.13978,0.18628
1400.06825,0.18093
1401.99672,0.17884
1403.92518,0.17728
1405.85365,0.17010
1407.78212,0.16406
1409.71059,0.16507
1411.63906,0.16779
1413.56753,0.16745
1415.49600,0.16693
1417.42446,0.17415
1419.35293,0.18428
1421.28140,0.18332
1423.20987,0.18093
1425.13834,0.18080
1427.06681,0.17984
1428.99528,0.18038
1430.92375,0.17945
1432.85221,0.17625
1434.78068,0.17778
1436.70915,0.18126
1438.63762,0.17748
1440.56609,0.17144
1442.49456,0.16844
1444.42303,0.17026
1446.35149,0.17492
1448.27996,0.17583
1450.20843,0.17254
1452.13690,0.17466
1454.06537,0.18899
1455.99384,0.21434
1457.92231,0.21787
1459.85077,0.19242
1461.77924,0.18210
1463.70771,0.18874
1465.63618,0.19309
1467.56465,0.18704
1469.49312,0.18753
1471.42159,0.19984
1473.35006,0.20932
1475.27852,0.20181
1477.20699,0.18939
1479.13546,0.18178
1481.06393,0.17719
1482.99240,0.17432
1484.92087,0.18053
1486.84934,0.19796
1488.77780,0.21476
1490.70627,0.21024
1492.63474,0.19635
1494.56321,0.19483
1496.49168,0.20188
1498.42015,0.19774
1500.34862,0.18795
1502.27709,0.19096
1504.20555,0.21193
1506.13402,0.24902
1508.06249,0.24703
1509.99096,0.21274
1511.91943,0.19456
1513.84790,0.19382
1515.77637,0.20652
1517.70483,0.21799
1519.63330,0.22294
1521.56177,0.22981
1523.49024,0.22891
1525.41871,0.21928
1527.34718,0.20710
1529.27565,0.20096
1531.20412,0.20532
1533.13258,0.20908
1535.06105,0.19990
1536.98952,0.19684
1538.91799,0.21833
1540.84646,0.24375
1542.77493,0.22752
1544.70340,0.20136
1546.63186,0.18381
1548.56033,0.17929
1550.48880,0.18615
1552.41727,0.19942
1554.34574,0.21162
1556.27421,0.22118
1558.20268,0.23343
1560.13115,0.22016
1562.05961,0.19979
1563.98808,0.19194
1565.91655,0.18882
1567.84502,0.18817
1569.77349,0.18774
1571.70196,0.18447
1573.63043,0.18847
1575.55889,0.20441
1577.48736,0.20738
1579.41583,0.19351
1581.34430,0.18416
1583.27277,0.18033
1585.20124,0.18004
1587.12971,0.18311
1589.05818,0.18596
1590.98664,0.18498
1592.91511,0.18035
1594.84358,0.17585
1596.77205,0.17482
1598.70052,0.17694
1600.62899,0.17993
1602.55746,0.18018
1604.48592,0.17782
1606.41439,0.17763
1608.34286,0.17865
1610.27133,0.17689
1612.19980,0.17473
1614.12827,0.17712
1616.05674,0.18627
1617.98521,0.19332
1619.91367,0.19465
1621.84214,0.20005
1623.77061,0.20664
1625.69908,0.20679
1627.62755,0.20417
1629.55602,0.19927
1631.48449,0.19719
1633.41295,0.20747
1635.34142,0.22675
1637.26989,0.22284
1639.19836,0.20484
1641.12683,0.19692
1643.05530,0.20331
1644.98377,0.22452
1646.91223,0.24423
1648.84070,0.23728
1650.76917,0.23541
1652.69764,0.24947
1654.62611,0.23065
1656.55458,0.20276
1658.48305,0.19096
1660.41152,0.18813
1662.33998,0.18917
1664.26845,0.19063
1666.19692,0.19781
1668.12539,0.21689
1670.05386,0.23099
1671.98233,0.22120
1673.91080,0.20909
1675.83926,0.20353
1677.76773,0.20370
1679.69620,0.20882
1681.62467,0.21956
1683.55314,0.23489
1685.48161,0.23390
1687.41008,0.22328
1689.33855,0.21562
1691.26701,0.20545
1693.19548,0.19894
1695.12395,0.20644
1697.05242,0.22719
1698.98089,0.24128
1700.90936,0.23158
1702.83783,0.21862
1704.76629,0.21629
1706.69476,0.20953
1708.62323,0.19997
1710.55170,0.19932
1712.48017,0.20636
1714.40864,0.21760
1716.33711,0.23253
1718.26558,0.23078
1720.19404,0.20812
1722.12251,0.19196
1724.05098,0.18532
1725.97945,0.18220
1727.90792,0.18314
1729.83639,0.19058
1731.76486,0.20416
1733.69332,0.21731
1735.62179,0.21279
1737.55026,0.20231
1739.47873,0.19899
1741.40720,0.19984
1743.33567,0.20065
1745.26414,0.20520
1747.19261,0.21370
1749.12107,0.21912
1751.04954,0.21131
1752.97801,0.19562
1754.90648,0.18835
1756.83495,0.18914
1758.76342,0.18910
1760.69189,0.18974
1762.62035,0.19146
1764.54882,0.19124
1766.47729,0.19218
1768.40576,0.19680
1770.33423,0.20731
1772.26270,0.21639
1774.19117,0.20956
1776.11964,0.19812
1778.04810,0.19405
1779.97657,0.19372
1781.90504,0.19224
1783.83351,0.19428
1785.76198,0.19780
1787.69045,0.19781
1789.61892,0.20141
1791.54738,0.20994
1793.47585,0.20633
1795.40432,0.19320
1797.33279,0.18849
1799.26126,0.19436
1801.18973,0.19954
1803.11820,0.19569
1805.04666,0.18916
1806.97513,0.18601
1808.90360,0.18724
1810.83207,0.18947
1812.76054,0.18674
1814.68901,0.18222
1816.61748,0.18217
1818.54595,0.18331
1820.47441,0.18396
1822.40288,0.18909
1824.33135,0.19295
1826.25982,0.19124
1828.18829,0.19421
1830.11676,0.19743
1832.04523,0.19085
1833.97369,0.18438
1835.90216,0.18314
1837.83063,0.18275
1839.75910,0.18310
1841.68757,0.18845
1843.61604,0.19644
1845.54451,0.19806
1847.47298,0.19311
1849.40144,0.18641
1851.32991,0.18216
1853.25838,0.18276
1855.18685,0.18403
1857.11532,0.18400
1859.04379,0.18523
1860.97226,0.18631
1862.90072,0.18709
1864.82919,0.19163
1866.75766,0.19902
1868.68613,0.20237
1870.61460,0.19862
1872.54307,0.19347
1874.47154,0.18878
1876.40001,0.18356
1878.32847,0.17962
1880.25694,0.17895
1882.18541,0.18167
1884.11388,0.18452
1886.04235,0.18523
1887.97082,0.18759
1889.89929,0.19125
1891.82775,0.19024
1893.75622,0.18518
1895.68469,0.18031
1897.61316,0.17755
1899.54163,0.17667
1901.47010,0.17673
1903.39857,0.17756
1905.32704,0.18176
1907.25550,0.18966
1909.18397,0.19548
1911.11244,0.19328
1913.04091,0.18668
1914.96938,0.18478
1916.89785,0.18826
1918.82632,0.19010
1920.75478,0.18803
1922.68325,0.18424
1924.61172,0.18095
1926.54019,0.18015
1928.46866,0.18154
1930.39713,0.18451
1932.32560,0.18625
1934.25407,0.18474
1936.18253,0.18247
1938.11100,0.18091
1940.03947,0.18189
1941.96794,0.18575
1943.89641,0.18769
1945.82488,0.18628
1947.75335,0.18502
1949.68181,0.18605
1951.61028,0.18558
1953.53875,0.18341
1955.46722,0.18597
1957.39569,0.18979
1959.32416,0.19007
1961.25263,0.19048
1963.18110,0.19180
1965.10956,0.19363
1967.03803,0.19477
1968.96650,0.19259
1970.89497,0.18877
1972.82344,0.18466
1974.75191,0.18185
1976.68038,0.18172
1978.60884,0.18276
1980.53731,0.18501
1982.46578,0.18918
1984.39425,0.19297
1986.32272,0.19235
1988.25119,0.18866
1990.17966,0.18878
1992.10812,0.19315
1994.03659,0.19414
1995.96506,0.19001
1997.89353,0.18684
1999.82200,0.18638
2001.75047,0.18546
2003.67894,0.18545
2005.60741,0.18945
2007.53587,0.19373
2009.46434,0.19307
2011.39281,0.18913
2013.32128,0.18616
2015.24975,0.18475
2017.17822,0.18379
2019.10669,0.18439
2021.03515,0.18675
2022.96362,0.18787
2024.89209,0.18699
2026.82056,0.18584
2028.74903,0.18545
2030.67750,0.18629
2032.60597,0.18736
2034.53444,0.18814
2036.46290,0.18870
2038.39137,0.18845
2040.31984,0.18869
2042.24831,0.19212
2044.17678,0.19718
2046.10525,0.19578
2048.03372,0.18853
2049.96218,0.18582
2051.89065,0.18719
2053.81912,0.18770
2055.74759,0.18927
2057.67606,0.19120
2059.60453,0.19071
2061.53300,0.18968
2063.46147,0.19049
2065.38993,0.19122
2067.31840,0.18893
2069.24687,0.18427
2071.17534,0.18174
2073.10381,0.18370
2075.03228,0.18777
2076.96075,0.19103
2078.88921,0.19106
2080.81768,0.18832
2082.74615,0.18662
2084.67462,0.18714
2086.60309,0.18969
2088.53156,0.19443
2090.46003,0.19751
2092.38850,0.19631
2094.31696,0.19429
2096.24543,0.19224
2098.17390,0.18804
2100.10237,0.18449
2102.03084,0.18410
2103.95931,0.18570
2105.88778,0.18787
2107.81624,0.18935
2109.74471,0.18921
2111.67318,0.18680
2113.60165,0.18479
2115.53012,0.18729
2117.45859,0.19254
2119.38706,0.19536
2121.31553,0.19318
2123.24399,0.18907
2125.17246,0.18824
2127.10093,0.19053
2129.02940,0.19155
2130.95787,0.19029
2132.88634,0.18863
2134.81481,0.18458
2136.74327,0.18080
2138.67174,0.18499
2140.60021,0.19189
2142.52868,0.19140
2144.45715,0.18637
2146.38562,0.18463
2148.31409,0.18715
2150.24255,0.19045
2152.17102,0.19178
2154.09949,0.19033
2156.02796,0.18891
2157.95643,0.18911
2159.88490,0.18938
2161.81337,0.18985
2163.74184,0.19004
2165.67030,0.18961
2167.59877,0.18879
2169.52724,0.18694
2171.45571,0.18718
2173.38418,0.19096
2175.31265,0.19291
2177.24112,0.19058
2179.16958,0.18715
2181.09805,0.18525
2183.02652,0.18736
2184.95499,0.19213
2186.88346,0.19363
2188.81193,0.19242
2190.74040,0.19279
2192.66887,0.19457
2194.59733,0.19659
2196.52580,0.19838
2198.45427,0.19924
2200.38274,0.19874
2202.31121,0.19691
2204.23968,0.19331
2206.16815,0.18822
2208.09661,0.18528
2210.02508,0.18643
2211.95355,0.18853
2213.88202,0.18987
2215.81049,0.19049
2217.73896,0.18993
2219.66743,0.18982
2221.59590,0.18980
2223.52436,0.18891
2225.45283,0.18999
2227.38130,0.19264
2229.30977,0.19405
2231.23824,0.19465
2233.16671,0.19391
2235.09518,0.19154
2237.02364,0.19074
2238.95211,0.19289
2240.88058,0.19471
2242.80905,0.19353
2244.73752,0.19315
2246.66599,0.19461
2248.59446,0.19379
2250.52293,0.19344
2252.45139,0.19430
2254.37986,0.19338
2256.30833,0.19214
2258.23680,0.18930
2260.16527,0.18654
2262.09374,0.18891
2264.02221,0.19190
2265.95067,0.19057
2267.87914,0.18927
2269.80761,0.19061
2271.73608,0.19213
2273.66455,0.19332
2275.59302,0.19482
2277.52149,0.19681
2279.44996,0.19756
2281.37842,0.19531
2283.30689,0.19259
2285.23536,0.19241
2287.16383,0.19412
2289.09230,0.19458
2291.02077,0.19242
2292.94924,0.18972
2294.87770,0.18975
2296.80617,0.19436
2298.73464,0.19948
2300.66311,0.19900
2302.59158,0.19708
2304.52005,0.20057
2306.44852,0.20478
2308.37699,0.20458
2310.30545,0.20398
2312.23392,0.20498
2314.16239,0.20632
2316.09086,0.21012
2318.01933,0.21705
2319.94780,0.22174
2321.87627,0.22146
2323.80473,0.22297
2325.73320,0.22769
2327.66167,0.22970
2329.59014,0.22948
2331.51861,0.22734
2333.44708,0.22342
2335.37555,0.22384
2337.30401,0.22851
2339.23248,0.22838
2341.16095,0.22285
2343.08942,0.22274
2345.01789,0.22804
2346.94636,0.22812
2348.87483,0.22407
2350.80330,0.22417
2352.73176,0.23577
2354.66023,0.25557
2356.58870,0.26899
2358.51717,0.27039
2360.44564,0.26404
2362.37411,0.25333
2364.30258,0.24496
2366.23104,0.24267
2368.15951,0.23417
2370.08798,0.22104
2372.01645,0.21662
2373.94492,0.21584
2375.87339,0.21193
2377.80186,0.20632
2379.73033,0.19894
2381.65879,0.19300
2383.58726,0.19163
2385.51573,0.19137
2387.44420,0.18977
2389.37267,0.18941
2391.30114,0.19189
2393.22961,0.19475
2395.15807,0.19534
2397.08654,0.19305
2399.01501,0.19006
2400.94348,0.18882
2402.87195,0.18855
2404.80042,0.18994
2406.72889,0.19237
2408.65736,0.19296
2410.58582,0.19342
2412.51429,0.19480
2414.44276,0.19522
2416.37123,0.19565
2418.29970,0.19710
2420.22817,0.19731
2422.15664,0.19567
2424.08510,0.19345
2426.01357,0.19172
2427.94204,0.19272
2429.87051,0.19493
2431.79898,0.19512
2433.72745,0.19525
2435.65592,0.19657
2437.58439,0.19618
2439.51285,0.19372
2441.44132,0.19162
2443.36979,0.19017
2445.29826,0.18892
2447.22673,0.18775
2449.15520,0.18775
2451.08367,0.19558
2453.01213,0.21061
2454.94060,0.21347
2456.86907,0.20027
2458.79754,0.19219
2460.72601,0.19333
2462.65448,0.19437
2464.58295,0.19343
2466.51142,0.19043
2468.43988,0.18891
2470.36835,0.19023
2472.29682,0.19131
2474.22529,0.19229
2476.15376,0.19460
2478.08223,0.19723
2480.01070,0.19657
2481.93916,0.19243
2483.86763,0.18994
2485.79610,0.19097
2487.72457,0.19148
2489.65304,0.19087
2491.58151,0.19251
2493.50998,0.19498
2495.43844,0.19652
2497.36691,0.19829
2499.29538,0.19916
2501.22385,0.19786
2503.15232,0.19462
2505.08079,0.19207
2507.00926,0.19196
2508.93773,0.18958
2510.86619,0.18590
2512.79466,0.18824
2514.72313,0.19238
2516.65160,0.19176
2518.58007,0.19109
2520.50854,0.19361
2522.43701,0.19680
2524.36547,0.19840
2526.29394,0.19677
2528.22241,0.19397
2530.15088,0.19332
2532.07935,0.19523
2534.00782,0.19817
2535.93629,0.20044
2537.86476,0.20289
2539.79322,0.20445
2541.72169,0.20318
2543.65016,0.20173
2545.57863,0.20103
2547.50710,0.19989
2549.43557,0.20082
2551.36404,0.20523
2553.29250,0.20829
2555.22097,0.20498
2557.14944,0.19856
2559.07791,0.19625
2561.00638,0.19755
2562.93485,0.19796
2564.86332,0.19772
2566.79179,0.19658
2568.72025,0.19360
2570.64872,0.19314
2572.57719,0.19640
2574.50566,0.19729
2576.43413,0.19602
2578.36260,0.19815
2580.29107,0.20249
2582.21953,0.20472
2584.14800,0.20276
2586.07647,0.19807
2588.00494,0.19431
2589.93341,0.19237
2591.86188,0.19243
2593.79035,0.19529
2595.71882,0.19883
2597.64728,0.19979
2599.57575,0.19919
2601.50422,0.20008
2603.43269,0.20215
2605.36116,0.20288
2607.28963,0.20017
2609.21810,0.19791
2611.14656,0.19957
2613.07503,0.19882
2615.00350,0.19377
2616.93197,0.18979
2618.86044,0.19010
2620.78891,0.19444
2622.71738,0.19798
2624.64585,0.19950
2626.57431,0.20186
2628.50278,0.20290
2630.43125,0.20198
2632.35972,0.20197
2634.28819,0.20309
2636.21666,0.20327
2638.14513,0.20061
2640.07359,0.19750
2642.00206,0.19834
2643.93053,0.20314
2645.85900,0.20638
2647.78747,0.20405
2649.71594,0.20108
2651.64441,0.20183
2653.57288,0.20234
2655.50134,0.20003
2657.42981,0.19849
2659.35828,0.20007
2661.28675,0.20189
2663.21522,0.20059
2665.14369,0.19751
2667.07216,0.19582
2669.00062,0.19689
2670.92909,0.19968
2672.85756,0.19989
2674.78603,0.19783
2676.71450,0.19883
2678.64297,0.20208
2680.57144,0.20502
2682.49990,0.20813
2684.42837,0.20954
2686.35684,0.20846
2688.28531,0.20628
2690.21378,0.20366
2692.14225,0.20332
2694.07072,0.20605
2695.99919,0.20924
2697.92765,0.21159
2699.85612,0.21132
2701.78459,0.20863
2703.71306,0.20745
2705.64153,0.20888
2707.57000,0.21017
2709.49847,0.21031
2711.42693,0.21078
2713.35540,0.21107
2715.28387,0.20847
2717.21234,0.20201
2719.14081,0.19607
2721.06928,0.19736
2722.99775,0.20470
2724.92622,0.20947
2726.85468,0.20806
2728.78315,0.20380
2730.71162,0.20178
2732.64009,0.20341
2734.56856,0.20453
2736.49703,0.20353
2738.42550,0.20203
2740.35396,0.20070
2742.28243,0.20209
2744.21090,0.20592
2746.13937,0.20860
2748.06784,0.21051
2749.99631,0.21133
2751.92478,0.21012
2753.85325,0.20850
2755.78171,0.20740
2757.71018,0.20906
2759.63865,0.21216
2761.56712,0.21132
2763.49559,0.20666
2765.42406,0.20400
2767.35253,0.20630
2769.28099,0.20896
2771.20946,0.21006
2773.13793,0.20964
2775.06640,0.20493
2776.99487,0.20050
2778.92334,0.20211
2780.85181,0.20716
2782.78028,0.21020
2784.70874,0.20901
2786.63721,0.20503
2788.56568,0.20197
2790.49415,0.20512
2792.42262,0.21072
2794.35109,0.21104
2796.27956,0.21012
2798.20802,0.21032
2800.13649,0.20736
2802.06496,0.20522
2803.99343,0.21021
2805.92190,0.21794
2807.85037,0.21942
2809.77884,0.21476
2811.70731,0.21120
2813.63577,0.20999
2815.56424,0.20861
2817.49271,0.20982
2819.42118,0.21263
2821.34965,0.21123
2823.27812,0.20786
2825.20659,0.20834
2827.13505,0.21184
2829.06352,0.21394
2830.99199,0.21415
2832.92046,0.21474
2834.84893,0.21498
2836.77740,0.21381
2838.70587,0.21358
2840.63433,0.21533
2842.56280,0.21662
2844.49127,0.21557
2846.41974,0.21293
2848.34821,0.20992
2850.27668,0.20671
2852.20515,0.20664
2854.13362,0.20980
2856.06208,0.20857
2857.99055,0.20340
2859.91902,0.20229
2861.84749,0.20624
2863.77596,0.21032
2865.70443,0.21207
2867.63290,0.21295
2869.56136,0.21339
2871.48983,0.21235
2873.41830,0.21043
2875.34677,0.21068
2877.27524,0.21482
2879.20371,0.21756
2881.13218,0.21290
2883.06065,0.20615
2884.98911,0.20535
2886.91758,0.20742
2888.84605,0.20826
2890.77452,0.21030
2892.70299,0.21161
2894.63146,0.20675
2896.55993,0.19999
2898.48839,0.19953
2900.41686,0.20232
2902.34533,0.20293
2904.27380,0.20504
2906.20227,0.21002
2908.13074,0.21094
2910.05921,0.20685
2911.98768,0.20464
2913.91614,0.20395
2915.84461,0.20215
2917.77308,0.20342
2919.70155,0.20832
2921.63002,0.21198
2923.55849,0.21399
2925.48696,0.21349
2927.41542,0.20756
2929.34389,0.20654
2931.27236,0.21465
2933.20083,0.21399
2935.12930,0.20286
2937.05777,0.19618
2938.98624,0.19611
2940.91471,0.19985
2942.84317,0.20419
2944.77164,0.20589
2946.70011,0.20773
2948.62858,0.21330
2950.55705,0.21909
2952.48552,0.21932
2954.41399,0.21526
2956.34245,0.21036
2958.27092,0.20859
2960.19939,0.21230
2962.12786,0.21645
2964.05633,0.21764
2965.98480,0.21616
2967.91327,0.21340
2969.84174,0.21144
2971.77020,0.21068
2973.69867,0.21392
2975.62714,0.21739
2977.55561,0.21405
2979.48408,0.21099
2981.41255,0.21284
2983.34102,0.21378
2985.26948,0.21205
2987.19795,0.20888
2989.12642,0.20968
2991.05489,0.21782
2992.98336,0.22368
2994.91183,0.22162
2996.84030,0.21715
2998.76877,0.21294
3000.69723,0.21086
3002.62570,0.21235
3004.55417,0.21280
3006.48264,0.21097
3008.41111,0.21161
3010.33958,0.21187
3012.26805,0.20194
3014.19651,0.18066
3016.12498,0.16194
3018.05345,0.16730
3019.98192,0.19591
3021.91039,0.21831
3023.83886,0.22247
3025.76733,0.21923
3027.69579,0.21488
3029.62426,0.21423
3031.55273,0.21990
3033.48120,0.22628
3035.40967,0.22757
3037.33814,0.22478
3039.26661,0.22105
3041.19508,0.21674
3043.12354,0.21426
3045.05201,0.21474
3046.98048,0.21574
3048.90895,0.21690
3050.83742,0.21776
3052.76589,0.21720
3054.69436,0.21315
3056.62282,0.20691
3058.55129,0.20731
3060.47976,0.21526
3062.40823,0.21898
3064.33670,0.21109
3066.26517,0.20187
3068.19364,0.20511
3070.12211,0.21543
3072.05057,0.22153
3073.97904,0.21917
3075.90751,0.21251
3077.83598,0.21479
3079.76445,0.22517
3081.69292,0.22866
3083.62139,0.22016
3085.54985,0.20807
3087.47832,0.20664
3089.40679,0.21510
3091.33526,0.21619
3093.26373,0.20718
3095.19220,0.20313
3097.12067,0.20952
3099.04914,0.21793
3100.97760,0.22036
3102.90607,0.21534
3104.83454,0.21367
3106.76301,0.22080
3108.69148,0.22513
3110.61995,0.22176
3112.54842,0.21869
3114.47688,0.22067
3116.40535,0.22238
3118.33382,0.22157
3120.26229,0.22248
3122.19076,0.22450
3124.11923,0.22694
3126.04770,0.22761
3127.97617,0.22219
3129.90463,0.21540
3131.83310,0.21578
3133.76157,0.22207
3135.69004,0.22682
3137.61851,0.22777
3139.54698,0.22586
3141.47545,0.22170
3143.40391,0.21706
3145.33238,0.21504
3147.26085,0.21839
3149.18932,0.22660
3151.11779,0.23433
3153.04626,0.23405
3154.97473,0.22528
3156.90320,0.21784
3158.83166,0.22169
3160.76013,0.23305
3162.68860,0.23700
3164.61707,0.23140
3166.54554,0.22800
3168.47401,0.22935
3170.40248,0.22908
3172.33094,0.22668
3174.25941,0.22713
3176.18788,0.22934
3178.11635,0.22958
3180.04482,0.23189
3181.97329,0.23812
3183.90176,0.24164
3185.83022,0.23746
3187.75869,0.22823
3189.68716,0.22183
3191.61563,0.22462
3193.54410,0.23121
3195.47257,0.23142
3197.40104,0.22831
3199.32951,0.22795
3201.25797,0.22897
3203.18644,0.22842
3205.11491,0.22639
3207.04338,0.22676
3208.97185,0.22907
3210.90032,0.23180
3212.82879,0.23516
3214.75725,0.23587
3216.68572,0.23311
3218.61419,0.23108
3220.54266,0.23182
3222.47113,0.23088
3224.39960,0.22459
3226.32807,0.21720
3228.25654,0.21307
3230.18500,0.21116
3232.11347,0.21072
3234.04194,0.21219
3235.97041,0.21266
3237.89888,0.21178
3239.82735,0.21784
3241.75582,0.22558
3243.68428,0.21779
3245.61275,0.20779
3247.54122,0.21622
3249.46969,0.22621
3251.39816,0.22377
3253.32663,0.22024
3255.25510,0.22004
3257.18357,0.22315
3259.11203,0.22875
3261.04050,0.22765
3262.96897,0.22248
3264.89744,0.22198
3266.82591,0.22548
3268.75438,0.22827
3270.68285,0.22480
3272.61131,0.21878
3274.53978,0.22001
3276.46825,0.22525
3278.39672,0.22345
3280.32519,0.21492
3282.25366,0.20997
3284.18213,0.21402
3286.11060,0.21836
3288.03906,0.21442
3289.96753,0.20796
3291.89600,0.20547
3293.82447,0.20627
3295.75294,0.20766
3297.68141,0.21170
3299.60988,0.21876
3301.53834,0.21967
3303.46681,0.21277
3305.39528,0.20782
3307.32375,0.20891
3309.25222,0.21065
3311.18069,0.21188
3313.10916,0.21544
3315.03763,0.21612
3316.96609,0.21272
3318.89456,0.21230
3320.82303,0.21402
3322.75150,0.21321
3324.67997,0.21091
3326.60844,0.20985
3328.53691,0.21444
3330.46537,0.22521
3332.39384,0.23125
3334.32231,0.22673
3336.25078,0.22398
3338.17925,0.22821
3340.10772,0.22814
3342.03619,0.22380
3343.96466,0.22102
3345.89312,0.21893
3347.82159,0.21813
3349.75006,0.21641
3351.67853,0.21492
3353.60700,0.22015
3355.53547,0.22679
3357.46394,0.22606
3359.39240,0.22367
3361.32087,0.22499
3363.24934,0.22417
3365.17781,0.22042
3367.10628,0.21793
3369.03475,0.21783
3370.96322,0.22210
3372.89168,0.22846
3374.82015,0.22925
3376.74862,0.22497
3378.67709,0.22168
3380.60556,0.21956
3382.53403,0.21975
3384.46250,0.22170
3386.39097,0.21748
3388.31943,0.20991
3390.24790,0.21035
3392.17637,0.21321
3394.10484,0.20951
3396.03331,0.20771
3397.96178,0.21031
3399.89025,0.21200
3401.81871,0.21545
3403.74718,0.21935
3405.67565,0.22045
3407.60412,0.21878
3409.53259,0.21635
3411.46106,0.21728
3413.38953,0.21727
3415.31800,0.21494
3417.24646,0.21646
3419.17493,0.21734
3421.10340,0.21347
3423.03187,0.21139
3424.96034,0.21275
3426.88881,0.21306
3428.81728,0.21095
3430.74574,0.20921
3432.67421,0.21048
3434.60268,0.21337
3436.53115,0.21457
3438.45962,0.21283
3440.38809,0.21003
3442.31656,0.21156
3444.24503,0.21879
3446.17349,0.22340
3448.10196,0.21706
3450.03043,0.20566
3451.95890,0.20133
3453.88737,0.20257
3455.81584,0.20225
3457.74431,0.19906
3459.67277,0.19411
3461.60124,0.19260
3463.52971,0.19616
3465.45818,0.19832
3467.38665,0.19733
3469.31512,0.19633
3471.24359,0.19549
3473.17206,0.19475
3475.10052,0.19374
3477.02899,0.19013
3478.95746,0.18675
3480.88593,0.19031
3482.81440,0.19715
3484.74287,0.19863
3486.67134,0.20029
3488.59980,0.20458
3490.52827,0.20334
3492.45674,0.20039
3494.38521,0.19910
3496.31368,0.19263
3498.24215,0.18675
3500.17062,0.19097
3502.09909,0.19550
3504.02755,0.18973
3505.95602,0.18315
3507.88449,0.18463
3509.81296,0.18841
3511.74143,0.18833
3513.66990,0.18564
3515.59837,0.18097
3517.52683,0.17651
3519.45530,0.17831
3521.38377,0.18542
3523.31224,0.18954
3525.24071,0.19002
3527.16918,0.19065
3529.09765,0.18810
3531.02611,0.18403
3532.95458,0.18384
3534.88305,0.18294
3536.81152,0.17590
3538.73999,0.16895
3540.66846,0.16869
3542.59693,0.17379
3544.52540,0.18040
3546.45386,0.18251
3548.38233,0.18131
3550.31080,0.18424
3552.23927,0.18651
3554.16774,0.18165
3556.09621,0.17958
3558.02468,0.18331
3559.95314,0.17936
3561.88161,0.16805
3563.81008,0.16918
3565.73855,0.18475
3567.66702,0.18834
3569.59549,0.17783
3571.52396,0.17276
3573.45243,0.17079
3575.38089,0.16934
3577.30936,0.17013
3579.23783,0.17086
3581.16630,0.16947
3583.09477,0.16736
3585.02324,0.17065
3586.95171,0.17782
3588.88017,0.17358
3590.80864,0.16632
3592.73711,0.16640
3594.66558,0.16803
3596.59405,0.16779
3598.52252,0.16754
3600.45099,0.16808
3602.37946,0.16942
3604.30792,0.17463
3606.23639,0.18356
3608.16486,0.18573
3610.09333,0.17754
3612.02180,0.17096
3613.95027,0.17078
3615.87874,0.17362
3617.80720,0.17320
3619.73567,0.16349
3621.66414,0.15431
3623.59261,0.15706
3625.52108,0.16946
3627.44955,0.18979
3629.37802,0.20478
3631.30649,0.19244
3633.23495,0.16781
3635.16342,0.14856
3637.09189,0.14538
3639.02036,0.15006
3640.94883,0.15375
3642.87730,0.15667
3644.80577,0.16010
3646.73423,0.17124
3648.66270,0.19212
3650.59117,0.18691
3652.51964,0.16181
3654.44811,0.15010
3656.37658,0.14866
3658.30505,0.14353
3660.23352,0.13827
3662.16198,0.13794
3664.09045,0.13871
3666.01892,0.14005
3667.94739,0.14727
3669.87586,0.16001
3671.80433,0.16865
3673.73280,0.17578
3675.66126,0.17432
3677.58973,0.15987
3679.51820,0.15155
3681.44667,0.14879
3683.37514,0.14816
3685.30361,0.14639
3687.23208,0.14103
3689.16055,0.14027
3691.08901,0.14544
3693.01748,0.14244
3694.94595,0.13555
3696.87442,0.13109
3698.80289,0.13327
3700.73136,0.14274
3702.65983,0.14501
3704.58829,0.13735
3706.51676,0.13793
3708.44523,0.14905
3710.37370,0.15804
3712.30217,0.15296
3714.23064,0.14025
3716.15911,0.13280
3718.08757,0.13687
3720.01604,0.14605
3721.94451,0.14420
3723.87298,0.13856
3725.80145,0.14061
3727.72992,0.13903
3729.65839,0.13750
3731.58686,0.14916
3733.51532,0.17256
3735.44379,0.18709
3737.37226,0.17819
3739.30073,0.16295
3741.22920,0.15349
3743.15767,0.14873
3745.08614,0.14270
3747.01460,0.13966
3748.94307,0.15208
3750.87154,0.17278
3752.80001,0.16836
3754.72848,0.15180
3756.65695,0.14052
3758.58542,0.13578
3760.51389,0.13648
3762.44235,0.13626
3764.37082,0.13604
3766.29929,0.13949
3768.22776,0.14227
3770.15623,0.13786
3772.08470,0.12858
3774.01317,0.12275
3775.94163,0.12141
3777.87010,0.12578
3779.79857,0.13545
3781.72704,0.13715
3783.65551,0.12892
3785.58398,0.12375
3787.51245,0.12802
3789.44092,0.13498
3791.36938,0.14008
3793.29785,0.14429
3795.22632,0.14698
3797.15479,0.14764
3799.08326,0.15251
3801.01173,0.15847
3802.94020,0.14813
3804.86866,0.13420
3806.79713,0.13066
3808.72560,0.13174
3810.65407,0.12970
3812.58254,0.12803
3814.51101,0.13247
3816.43948,0.14199
3818.36795,0.14992
3820.29641,0.14865
3822.22488,0.13181
3824.15335,0.12340
3826.08182,0.12788
3828.01029,0.12972
3829.93876,0.12686
3831.86723,0.13000
3833.79569,0.13977
3835.72416,0.14901
3837.65263,0.15637
3839.58110,0.15361
3841.50957,0.13752
3843.43804,0.12265
3845.36651,0.11852
3847.29498,0.12097
3849.22344,0.12602
3851.15191,0.13722
3853.08038,0.15111
3855.00885,0.14126
3856.93732,0.12397
3858.86579,0.11849
3860.79426,0.12707
3862.72272,0.14157
3864.65119,0.14186
3866.57966,0.12877
3868.50813,0.12157
3870.43660,0.12311
3872.36507,0.12272
3874.29354,0.12202
3876.22200,0.12561
3878.15047,0.12843
3880.07894,0.12991
3882.00741,0.13030
3883.93588,0.12516
3885.86435,0.11124
3887.79282,0.09858
3889.72129,0.10100
3891.64975,0.11543
3893.57822,0.12266
3895.50669,0.12273
3897.43516,0.12543
3899.36363,0.12488
3901.29210,0.11849
3903.22057,0.11927
3905.14903,0.12272
3907.07750,0.11673
3909.00597,0.10931
3910.93444,0.10819
3912.86291,0.10841
3914.79138,0.10548
3916.71985,0.10778
3918.64832,0.11798
3920.57678,0.12361
3922.50525,0.11973
3924.43372,0.11029
3926.36219,0.10546
3928.29066,0.10783
3930.21913,0.10711
3932.14760,0.10197
3934.07606,0.10192
3936.00453,0.11050
3937.93300,0.12057
3939.86147,0.12102
3941.78994,0.11392
3943.71841,0.11165
3945.64688,0.11455
3947.57535,0.11510
3949.50381,0.11287
3951.43228,0.11022
3953.36075,0.10865
3955.28922,0.10987
3957.21769,0.11015
3959.14616,0.10554
3961.07463,0.10018
3963.00309,0.10096
3964.93156,0.10657
3966.86003,0.10779
3968.78850,0.10419
3970.71697,0.10315
3972.64544,0.10551
3974.57391,0.10717
3976.50238,0.10731
3978.43084,0.10546
3980.35931,0.09751
3982.28778,0.08822
3984.21625,0.08753
3986.14472,0.09308
3988.07319,0.09774
3990.00166,0.09854
3991.93012,0.09904
3993.85859,0.10243
3995.78706,0.10195
3997.71553,0.09603
3999.64400,0.09146
4001.57247,0.09157
4003.50094,0.09688
4005.42941,0.10471
4007.35787,0.11225
4009.28634,0.11693
4011.21481,0.11460
4013.14328,0.10781
4015.07175,0.10464
4017.00022,0.10806
4018.92869,0.10838
4020.85715,0.10000
4022.78562,0.09422
4024.71409,0.09344
4026.64256,0.09171
4028.57103,0.09023
4030.49950,0.08924
4032.42797,0.08868
4034.35644,0.08821
4036.28490,0.08717
4038.21337,0.08893
4040.14184,0.09459
4042.07031,0.09636
4043.99878,0.09001
4045.92725,0.08384
4047.85572,0.07872
4049.78418,0.07416
4051.71265,0.07872
4053.64112,0.08604
4055.56959,0.08731
4057.49806,0.08980
4059.42653,0.09702
4061.35500,0.09995
4063.28346,0.09495
4065.21193,0.08961
4067.14040,0.08510
4069.06887,0.08042
4070.99734,0.08043
4072.92581,0.08303
4074.85428,0.08297
4076.78275,0.08034
4078.71121,0.07479
4080.63968,0.06880
4082.56815,0.07028
4084.49662,0.07608
4086.42509,0.07858
4088.35356,0.08235
4090.28203,0.08369
4092.21049,0.07545
4094.13896,0.07060
4096.06743,0.07696
4097.99590,0.07991
4099.92437,0.07413
4101.85284,0.07038
4103.78131,0.07058
4105.70978,0.07554
4107.63824,0.08549
4109.56671,0.08936
4111.49518,0.08391
4113.42365,0.07874
4115.35212,0.08110
4117.28059,0.08393
4119.20906,0.07876
4121.13752,0.07295
4123.06599,0.07104
4124.99446,0.06876
4126.92293,0.06686
4128.85140,0.06678
4130.77987,0.07008
4132.70834,0.07558
4134.63681,0.07642
4136.56527,0.07473
4138.49374,0.07481
4140.42221,0.07393
4142.35068,0.07414
4144.27915,0.07602
4146.20762,0.07553
4148.13609,0.07635
4150.06455,0.08232
4151.99302,0.08568
4153.92149,0.07793
4155.84996,0.06633
4157.77843,0.06637
4159.70690,0.07390
4161.63537,0.07169
4163.56384,0.06431
4165.49230,0.06461
4167.42077,0.06935
4169.34924,0.07160
4171.27771,0.07078
4173.20618,0.06795
4175.13465,0.06573
4177.06312,0.06903
4178.99158,0.07220
4180.92005,0.06652
4182.84852,0.06008
4184.77699,0.06227
4186.70546,0.06796
4188.63393,0.06952
4190.56240,0.06836
4192.49087,0.06689
4194.41933,0.06496
4196.34780,0.06600
4198.27627,0.07023
4200.20474,0.07099
4202.13321,0.06526
4204.06168,0.06283
4205.99015,0.07184
4207.91861,0.08049
4209.84708,0.07760
4211.77555,0.07077
4213.70402,0.06611
4215.63249,0.05836
4217.56096,0.04771
4219.48943,0.04353
4221.41789,0.04850
4223.34636,0.05653
4225.27483,0.06520
4227.20330,0.07523
4229.13177,0.07962
4231.06024,0.07071
4232.98871,0.05296
4234.91718,0.03665
4236.84564,0.03345
4238.77411,0.04499
4240.70258,0.05265
4242.63105,0.04650
4244.55952,0.04124
4246.48799,0.04512
4248.41646,0.04868
4250.34492,0.04871
4252.27339,0.04649
4254.20186,0.04506
4256.13033,0.04920
4258.05880,0.04949
4259.98727,0.04203
4261.91574,0.03625
4263.84421,0.03558
4265.77267,0.04162
4267.70114,0.05454
4269.62961,0.06550
4271.55808,0.06624
4273.48655,0.05865
4275.41502,0.04916
4277.34349,0.04063
4279.27195,0.03262
4281.20042,0.03024
4283.12889,0.03646
4285.05736,0.04637
4286.98583,0.05653
4288.91430,0.05621
4290.84277,0.04041
4292.77124,0.02792
4294.69970,0.03098
4296.62817,0.03868
4298.55664,0.03997
4300.48511,0.03536
4302.41358,0.03201
4304.34205,0.03603
4306.27052,0.04486
4308.19898,0.05003
4310.12745,0.04575
4312.05592,0.03618
4313.98439,0.02986
4315.91286,0.02756
4317.84133,0.02672
4319.76980,0.02949
4321.69827,0.03175
4323.62673,0.02762
4325.55520,0.02553
4327.48367,0.02773
4329.41214,0.02838
4331.34061,0.02771
4333.26908,0.02281
4335.19755,0.01946
4337.12601,0.02674
4339.05448,0.03227
4340.98295,0.02359
4342.91142,0.01384
4344.83989,0.01977
4346.76836,0.03187
4348.69683,0.03042
4350.62530,0.01738
4352.55376,0.01256
4354.48223,0.02051
4356.41070,0.02362
4358.33917,0.01591
4360.26764,0.01095
4362.19611,0.01382
4364.12458,0.01653
4366.05304,0.01580
4367.98151,0.01507
4369.90998,0.01621
4371.83845,0.01896
4373.76692,0.02210
4375.69539,0.02341
4377.62386,0.02536
4379.55232,0.03379
4381.48079,0.03893
4383.40926,0.03220
4385.33773,0.02606
4387.26620,0.02212
4389.19467,0.01546
4391.12314,0.01256
4393.05161,0.01437
4394.98007,0.01737
4396.90854,0.01999
4398.83701,0.02322
4400.76548,0.02518
4402.69395,0.02247
4404.62242,0.01855
4406.55089,0.01615
4408.47935,0.01925
4410.40782,0.02465
4412.33629,0.01854
4414.26476,0.00811
4416.19323,0.00793
4418.12170,0.01236
4420.05017,0.01526
4421.97864,0.01677
4423.90710,0.02081
4425.83557,0.02732
4427.76404,0.02510
4429.69251,0.01926
4431.62098,0.02002
4433.54945,0.01901
4435.47792,0.01658
4437.40638,0.01707
4439.33485,0.01295
4441.26332,0.00848
4443.19179,0.01395
4445.12026,0.01954
4447.04873,0.01486
4448.97720,0.00877
4450.90567,0.00754
4452.83413,0.01029
4454.76260,0.01420
4456.69107,0.01095
4458.61954,-0.00049
4460.54801,-0.01060
4462.47648,-0.01241
4464.40495,-0.00509
4466.33341,0.00737
4468.26188,0.01785
4470.19035,0.02015
4472.11882,0.01255
4474.04729,0.00315
4475.97576,0.00037
4477.90423,-0.00543
4479.83270,-0.01480
4481.76116,-0.01288
4483.68963,-0.00568
4485.61810,-0.00539
4487.54657,-0.00601
4489.47504,0.00290
4491.40351,0.01734
4493.33198,0.01980
4495.26044,0.00839
4497.18891,-0.00152
4499.11738,0.00481
4501.04585,0.02336
4502.97432,0.02580
4504.90279,0.00952
4506.83126,0.00655
4508.75973,0.02186
4510.68819,0.02876
4512.61666,0.01650
4514.54513,0.00518
4516.47360,0.00891
4518.40207,0.01486
4520.33054,0.01699
4522.25901,0.02012
4524.18747,0.01853
4526.11594,0.00893
4528.04441,-0.00069
4529.97288,-0.00591
4531.90135,-0.00908
4533.82982,-0.00695
4535.75829,0.00331
4537.68676,0.01063
4539.61522,0.00816
4541.54369,0.00258
4543.47216,0.00210
4545.40063,0.00454
4547.32910,0.00372
4549.25757,0.00234
4551.18604,0.00276
4553.11450,0.00243
4555.04297,0.00470
4556.97144,0.01120
4558.89991,0.01491
4560.82838,0.01441
4562.75685,0.01506
4564.68532,0.01436
4566.61378,0.01128
4568.54225,0.01387
4570.47072,0.01836
4572.39919,0.01861
4574.32766,0.01969
4576.25613,0.01788
4578.18460,0.01026
4580.11307,0.00533
4582.04153,0.00897
4583.97000,0.01780
4585.89847,0.02158
4587.82694,0.02025
4589.75541,0.01663
4591.68388,0.01027
4593.61235,0.00866
4595.54081,0.00693
4597.46928,0.00078
4599.39775,0.00481
4601.32622,0.01592
4603.25469,0.01483
4605.18316,0.00167
4607.11163,-0.00229
4609.04010,0.00662
4610.96856,0.00797
4612.89703,-0.00076
4614.82550,-0.00305
4616.75397,-0.00009
4618.68244,0.00030
4620.61091,0.00056
4622.53938,-0.00214
4624.46784,-0.00600
4626.39631,-0.00044
4628.32478,0.00492
4630.25325,-0.00206
4632.18172,-0.00281
4634.11019,0.00844
4636.03866,0.01361
4637.96713,0.01186
4639.89559,0.00815
4641.82406,-0.00007
4643.75253,-0.00729
4645.68100,-0.00792
4647.60947,-0.00909
4649.53794,-0.01306
4651.46641,-0.01338
4653.39487,-0.01338
4655.32334,-0.00754
4657.25181,0.01071
4659.18028,0.02132
4661.10875,0.01292
4663.03722,0.00163
4664.96569,0.00503
4666.89416,0.01766
4668.82262,0.01834
4670.75109,0.00868
4672.67956,0.00097
4674.60803,-0.00555
4676.53650,-0.00570
4678.46497,0.00207
4680.39344,0.00438
4682.32190,-0.00122
4684.25037,-0.00240
4686.17884,0.00937
4688.10731,0.02584
4690.03578,0.02901
4691.96425,0.01708
4693.89272,0.00271
4695.82119,-0.00052
4697.74965,0.01027
4699.67812,0.01603
4701.60659,0.00102
4703.53506,-0.02110
4705.46353,-0.02947
4707.39200,-0.01732
4709.32047,0.00548
4711.24893,0.02392
4713.17740,0.02628
4715.10587,0.00839
4717.03434,-0.01345
4718.96281,-0.02224
4720.89128,-0.01782
4722.81975,-0.00673
4724.74821,-0.00068
4726.67668,0.00411
4728.60515,0.02115
4730.53362,0.03472
4732.46209,0.02408
4734.39056,0.00226
4736.31903,-0.01095
4738.24750,-0.00620
4740.17596,0.00994
4742.10443,0.01771
4744.03290,0.01520
4745.96137,0.01206
4747.88984,0.00985
4749.81831,0.01125
4751.74678,0.01468
4753.67524,0.00686
4755.60371,-0.00259
4757.53218,0.00584
4759.46065,0.02383
4761.38912,0.02952
4763.31759,0.02144
4765.24606,0.01356
4767.17453,0.00983
4769.10299,0.00031
4771.03146,-0.01318
4772.95993,-0.01858
4774.88840,-0.01051
4776.81687,0.00881
4778.74534,0.02156
4780.67381,0.01262
4782.60227,0.00071
4784.53074,0.00671
4786.45921,0.02194
4788.38768,0.02707
4790.31615,0.01323
4792.24462,-0.00142
4794.17309,0.00729
4796.10156,0.02719
4798.03002,0.03298
4799.95849,0.02328
4801.88696,0.01101
4803.81543,0.00985
4805.74390,0.01848
4807.67237,0.01834
4809.60084,-0.00043
4811.52930,-0.01975
4813.45777,-0.01706
4815.38624,0.00247
4817.31471,0.01625
4819.24318,0.01596
4821.17165,0.01060
4823.10012,0.00579
4825.02859,0.00201
4826.95705,0.00284
4828.88552,0.01273
4830.81399,0.03067
4832.74246,0.04175
4834.67093,0.03746
4836.59940,0.02904
4838.52787,0.02095
4840.45633,0.01335
4842.38480,0.01178
4844.31327,0.00932
4846.24174,0.00194
4848.17021,0.00691
4850.09868,0.02884
4852.02715,0.04280
4853.95562,0.03346
4855.88408,0.02104
4857.81255,0.02258
4859.74102,0.02954
4861.66949,0.02816
4863.59796,0.01967
4865.52643,0.02054
4867.45490,0.02268
4869.38336,0.01555
4871.31183,0.01264
4873.24030,0.00133
4875.16877,-0.01655
4877.09724,-0.00889
4879.02571,0.01116
4880.95418,0.01386
4882.88265,0.00896
4884.81111,0.01519
4886.73958,0.02657
4888.66805,0.02786
4890.59652,0.01351
4892.52499,-0.00705
4894.45346,-0.01135
4896.38193,0.00535
4898.31039,0.01488
4900.23886,0.00728
4902.16733,0.00267
4904.09580,0.00761
4906.02427,0.01681
4907.95274,0.01574
4909.88121,-0.00124
4911.80967,-0.01219
4913.73814,-0.00694
4915.66661,-0.00552
4917.59508,-0.01449
4919.52355,-0.02501
4921.45202,-0.03297
4923.38049,-0.03194
4925.30896,-0.01965
4927.23742,-0.00341
4929.16589,0.00814
4931.09436,0.01061
4933.02283,0.01018
4934.95130,0.01136
4936.87977,0.01320
4938.80824,0.00950
4940.73670,-0.00007
4942.66517,-0.00473
4944.59364,-0.00496
4946.52211,0.00091
4948.45058,0.00848
4950.37905,0.00251
4952.30752,-0.00252
4954.23599,0.01153
4956.16445,0.03071
4958.09292,0.04519
4960.02139,0.05286
4961.94986,0.03650
4963.87833,0.01164
4965.80680,0.00612
4967.73527,0.00995
4969.66373,0.01979
4971.59220,0.02670
4973.52067,0.00912
4975.44914,-0.01436
4977.37761,-0.01577
4979.30608,0.00029
4981.23455,0.02040
4983.16302,0.03135
4985.09148,0.02175
4987.01995,0.00432
4988.94842,-0.00138
4990.87689,0.00290
4992.80536,0.01171
4994.73383,0.02005
4996.66230,0.02000
4998.59076,0.01680
5000.51923,0.01073
5002.44770,0.00144
5004.37617,-0.00445
5006.30464,-0.00241
5008.23311,0.00348
5010.16158,0.00928
5012.09005,0.01757
5014.01851,0.02157
5015.94698,0.03241
5017.87545,0.05811
5019.80392,0.05653
5021.73239,0.02912
5023.66086,0.01450
5025.58933,-0.00034
5027.51779,-0.01836
5029.44626,-0.01337
5031.37473,0.00887
5033.30320,0.01895
5035.23167,0.00785
5037.16014,-0.00301
5039.08861,0.00421
5041.01708,0.01855
5042.94554,0.02764
5044.87401,0.03126
5046.80248,0.02351
5048.73095,0.00462
5050.65942,-0.01485
5052.58789,-0.02547
5054.51636,-0.02779
5056.44482,-0.02202
5058.37329,0.00008
5060.30176,0.02345
5062.23023,0.02369
5064.15870,0.00656
5066.08717,-0.00804
5068.01564,-0.01260
5069.94410,-0.00686
5071.87257,0.01425
5073.80104,0.03594
5075.72951,0.03549
5077.65798,0.02250
5079.58645,0.01910
5081.51492,0.03227
5083.44339,0.04485
5085.37185,0.03725
5087.30032,0.02192
5089.22879,0.01392
5091.15726,0.00349
5093.08573,0.00140
5095.01420,0.02273
5096.94267,0.04223
5098.87113,0.03981
5100.79960,0.02673
5102.72807,0.01864
5104.65654,0.01662
5106.58501,0.00765
5108.51348,-0.01033
5110.44195,-0.01921
5112.37042,-0.01282
5114.29888,-0.00453
5116.22735,0.00495
5118.15582,0.01173
5120.08429,0.01773
5122.01276,0.04176
5123.94123,0.05809
5125.86970,0.03923
5127.79816,0.01706
5129.72663,0.01063
5131.65510,0.01045
5133.58357,0.01869
5135.51204,0.02275
5137.44051,0.01077
5139.36898,-0.00583
5141.29745,-0.01336
5143.22591,-0.00469
5145.15438,0.00678
5147.08285,0.00934
5149.01132,0.02123
5150.93979,0.04053
5152.86826,0.04161
5154.79673,0.03545
5156.72519,0.03817
5158.65366,0.03896
5160.58213,0.04305
5162.51060,0.04824
5164.43907,0.03572
5166.36754,0.03061
5168.29601,0.05187
5170.22448,0.06260
5172.15294,0.04844
5174.08141,0.03570
5176.00988,0.03750
5177.93835,0.04015
5179.86682,0.02687
5181.79529,0.01436
5183.72376,0.01885
5185.65222,0.02696
5187.58069,0.02496
5189.50916,0.01649
5191.43763,0.01382
5193.36610,0.02342
5195.29457,0.03226
5197.22304,0.02396
5199.15151,0.01876
5201.07997,0.04115
5203.00844,0.07141
5204.93691,0.07255
5206.86538,0.03678
5208.79385,0.00908
5210.72232,0.00325
5212.65079,-0.00259
5214.57925,-0.00034
5216.50772,0.01062
5218.43619,0.01129
5220.36466,0.01453
5222.29313,0.02851
5224.22160,0.02761
5226.15007,0.02059
5228.07854,0.02964
5230.00700,0.03501
5231.93547,0.03186
5233.86394,0.02727
5235.79241,0.01208
5237.72088,-0.00100
5239.64935,0.00284
5241.57782,0.00118
5243.50628,-0.00180
5245.43475,0.02881
5247.36322,0.06239
5249.29169,0.04910
5251.22016,0.01824
5253.14863,0.02473
5255.07710,0.05745
5257.00556,0.07074
5258.93403,0.07897
5260.86250,0.09485
5262.79097,0.08359
5264.71944,0.04611
5266.64791,0.02496
5268.57638,0.02428
5270.50485,0.00953
5272.43331,-0.00933
5274.36178,0.00802
5276.29025,0.03753
5278.21872,0.04578
5280.14719,0.03936
5282.07566,0.01908
5284.00413,0.00224
5285.93259,0.02046
5287.86106,0.05792
5289.78953,0.07683
5291.71800,0.05943
5293.64647,0.02118
5295.57494,0.00564
5297.50341,0.02594
5299.43188,0.04889
5301.36034,0.06109
5303.28881,0.06237
5305.21728,0.06075
5307.14575,0.08557
5309.07422,0.11297
5311.00269,0.10505
5312.93116,0.08246
5314.85962,0.05644
5316.78809,0.02067
5318.71656,-0.01042
5320.64503,-0.02373
5322.57350,-0.00959
5324.50197,0.03740
5326.43044,0.07821
5328.35891,0.08141
5330.28737,0.08055
5332.21584,0.08600
5334.14431,0.07108
5336.07278,0.05259
5338.00125,0.05900
5339.92972,0.07710
5341.85819,0.08055
5343.78665,0.05665
5345.71512,0.03130
5347.64359,0.02565
5349.57206,0.02067
5351.50053,0.03065
5353.42900,0.06114
5355.35747,0.06776
5357.28594,0.04956
5359.21440,0.05467
5361.14287,0.07014
5363.07134,0.04338
5364.99981,0.00259
5366.92828,-0.00330
5368.85675,0.00643
5370.78522,0.01239
5372.71368,0.01388
5374.64215,0.00989
5376.57062,0.02019
5378.49909,0.03797
5380.42756,0.03268
5382.35603,0.02661
5384.28450,0.05437
5386.21297,0.08736
5388.14143,0.07207
5390.06990,0.04247
5391.99837,0.03325
5393.92684,0.03341
5395.85531,0.04523
5397.78378,0.06338
5399.71225,0.07601
5401.64071,0.08430
5403.56918,0.08812
5405.49765,0.09095
5407.42612,0.08873
5409.35459,0.07566
5411.28306,0.05839
5413.21153,0.04461
5415.13999,0.03209
5417.06846,0.02774
5418.99693,0.03100
5420.92540,0.01909
5422.85387,-0.00589
5424.78234,-0.01891
5426.71081,-0.00772
5428.63928,0.03078
5430.56774,0.08220
5432.49621,0.11953
5434.42468,0.11921
5436.35315,0.08449
5438.28162,0.04706
5440.21009,0.02756
5442.13856,0.03279
5444.06702,0.04018
5445.99549,0.03851
5447.92396,0.05495
5449.85243,0.07618
5451.78090,0.06337
5453.70937,0.04623
5455.63784,0.05438
5457.56631,0.05400
5459.49477,0.02753
5461.42324,0.01849
5463.35171,0.04815
5465.28018,0.07410
5467.20865,0.07422
5469.13712,0.07705
5471.06559,0.08573
5472.99405,0.07695
5474.92252,0.05856
5476.85099,0.04927
5478.77946,0.05155
5480.70793,0.07057
5482.63640,0.09177
5484.56487,0.09848
5486.49334,0.09952
5488.42180,0.09567
5490.35027,0.09037
5492.27874,0.08937
5494.20721,0.07278
5496.13568,0.05150
5498.06415,0.05417
5499.99262,0.05685
5501.92108,0.04160
5503.84955,0.02489
5505.77802,0.01027
5507.70649,0.00771
5509.63496,0.01813
5511.56343,0.03566
5513.49190,0.04232
5515.42037,0.02889
5517.34883,0.02943
5519.27730,0.02994
5521.20577,0.01151
5523.13424,0.00764
5525.06271,0.02153
5526.99118,0.04227
5528.91965,0.07551
5530.84811,0.10268
5532.77658,0.09923
5534.70505,0.07251
5536.63352,0.05618
5538.56199,0.07261
5540.49046,0.10432
5542.41893,0.11767
5544.34740,0.09538
5546.27586,0.05044
5548.20433,0.01626
5550.13280,0.01463
5552.06127,0.02930
5553.98974,0.03733
5555.91821,0.03177
5557.84668,0.01790
5559.77514,0.03332
5561.70361,0.07090
5563.63208,0.06328
5565.56055,0.03150
5567.48902,0.04902
5569.41749,0.09163
5571.34596,0.09781
5573.27443,0.07060
5575.20289,0.04761
5577.13136,0.05133
5579.05983,0.06743
5580.98830,0.07059
5582.91677,0.06450
5584.84524,0.05681
5586.77371,0.05292
5588.70217,0.07221
5590.63064,0.11193
5592.55911,0.12161
5594.48758,0.08604
5596.41605,0.06698
5598.34452,0.07903
5600.27299,0.07088
5602.20145,0.03920
5604.12992,0.02965
5606.05839,0.04838
5607.98686,0.07010
5609.91533,0.09102
5611.84380,0.09384
5613.77227,0.07166
5615.70074,0.05324
5617.62920,0.04513
5619.55767,0.05028
5621.48614,0.06961
5623.41461,0.06189
5625.34308,0.01824
5627.27155,0.00972
5629.20002,0.05593
5631.12848,0.09677
5633.05695,0.10411
5634.98542,0.08126
5636.91389,0.03607
5638.84236,-0.00551
5640.77083,-0.01185
5642.69930,0.01871
5644.62777,0.06005
5646.55623,0.07911
5648.48470,0.05953
5650.41317,0.02251
5652.34164,0.01141
5654.27011,0.02465
5656.19858,0.02366
5658.12705,0.01832
5660.05551,0.02353
5661.98398,0.01786
5663.91245,0.01312
5665.84092,0.04354
5667.76939,0.08427
5669.69786,0.08934
5671.62633,0.07222
5673.55480,0.06660
5675.48326,0.07779
5677.41173,0.10585
5679.34020,0.13252
5681.26867,0.13555
5683.19714,0.11900
5685.12561,0.08197
5687.05408,0.03075
5688.98254,0.01245
5690.91101,0.05564
5692.83948,0.11143
5694.76795,0.12021
5696.69642,0.07774
5698.62489,0.02716
5700.55336,0.01772
5702.48183,0.04598
5704.41029,0.06367
5706.33876,0.04947
5708.26723,0.03767
5710.19570,0.06238
5712.12417,0.09792
5714.05264,0.09307
5715.98111,0.06128
5717.90957,0.05754
5719.83804,0.08533
5721.76651,0.11976
5723.69498,0.14189
5725.62345,0.14197
5727.55192,0.11545
5729.48039,0.05755
5731.40886,0.02285
5733.33732,0.05125
5735.26579,0.08866
5737.19426,0.09362
5739.12273,0.08536
5741.05120,0.06514
5742.97967,0.05514
5744.90814,0.07116
5746.83660,0.07801
5748.76507,0.07153
5750.69354,0.05722
5752.62201,0.02844
5754.55048,0.01658
5756.47895,0.02431
5758.40742,0.02892
5760.33588,0.04013
5762.26435,0.06994
5764.19282,0.11350
5766.12129,0.14235
5768.04976,0.13104
5769.97823,0.09187
5771.90670,0.05061
5773.83517,0.04683
5775.76363,0.08602
5777.69210,0.11241
5779.62057,0.10167
5781.54904,0.09068
5783.47751,0.10642
5785.40598,0.12280
5787.33445,0.10509
5789.26291,0.08254
5791.19138,0.08634
5793.11985,0.08795
5795.04832,0.06404
5796.97679,0.01943
5798.90526,-0.00911
5800.83373,0.00399
5802.76220,0.02410
5804.69066,0.02271
5806.61913,0.00038
5808.54760,-0.00486
5810.47607,0.04159
5812.40454,0.09447
5814.33301,0.12453
5816.26148,0.15232
5818.18994,0.16617
5820.11841,0.14986
5822.04688,0.10185
5823.97535,0.04358
5825.90382,0.02678
5827.83229,0.04255
5829.76076,0.04941
5831.68923,0.07277
5833.61769,0.11303
5835.54616,0.12147
5837.47463,0.08744
5839.40310,0.02507
5841.33157,-0.02547
5843.26004,-0.02299
5845.18851,0.01581
5847.11697,0.05208
5849.04544,0.06488
5850.97391,0.05704
5852.90238,0.03271
5854.83085,-0.01027
5856.75932,-0.00023
5858.68779,0.10707
5860.61626,0.19278
5862.54472,0.16579
5864.47319,0.08879
5866.40166,0.03410
5868.33013,0.02524
5870.25860,0.05001
5872.18707,0.05989
5874.11554,0.04709
5876.04400,0.03920
5877.97247,0.04316
5879.90094,0.04827
5881.82941,0.03413
5883.75788,-0.00640
5885.68635,-0.04660
5887.61482,-0.01995
5889.54329,0.05202
5891.47175,0.05915
5893.40022,0.01759
5895.32869,-0.00525
5897.25716,0.01324
5899.18563,0.08635
5901.11410,0.14160
5903.04257,0.10615
5904.97103,0.04905
5906.89950,0.01570
5908.82797,-0.00080
5910.75644,0.02355
5912.68491,0.03726
5914.61338,-0.00388
5916.54185,-0.02896
5918.47032,-0.02072
5920.39878,-0.03652
5922.32725,-0.04226
5924.25572,0.01573
5926.18419,0.09754
5928.11266,0.14128
5930.04113,0.12448
5931.96960,0.10553
5933.89806,0.12445
5935.82653,0.11422
5937.75500,0.08838
5939.68347,0.09653
5941.61194,0.06985
5943.54041,0.01299
5945.46888,0.00937
5947.39734,0.03759
5949.32581,0.07198
5951.25428,0.10460
5953.18275,0.09234
5955.11122,0.04937
5957.03969,0.02107
5958.96816,0.01386
5960.89663,0.02262
5962.82509,0.03026
5964.75356,0.01764
5966.68203,0.01979
5968.61050,0.07420
5970.53897,0.13278
5972.46744,0.11945
5974.39591,0.04522
5976.32437,0.01260
5978.25284,0.04654
5980.18131,0.06900
5982.10978,0.06239
5984.03825,0.09372
5985.96672,0.15147
5987.89519,0.14665
5989.82366,0.11620
5991.75212,0.11724
5993.68059,0.09271
5995.60906,0.03562
5997.53753,-0.00003
5999.46600,-0.01965
6001.39447,-0.03466
6003.32294,-0.02332
6005.25140,0.01318
6007.17987,0.05304
6009.10834,0.07833
6011.03681,0.07298
6012.96528,0.07118
6014.89375,0.08835
6016.82222,0.07788
6018.75069,0.03962
6020.67915,0.02856
6022.60762,0.04043
6024.53609,0.03506
6026.46456,0.02103
6028.39303,0.02191
6030.32150,0.03521
6032.24997,0.04651
6034.17843,0.05566
6036.10690,0.08113
6038.03537,0.12230
6039.96384,0.14500
6041.89231,0.14173
6043.82078,0.12470
6045.74925,0.06165
6047.67772,-0.01470
6049.60618,0.01745
6051.53465,0.12454
6053.46312,0.16710
6055.39159,0.12771
6057.32006,0.08230
6059.24853,0.07483
6061.17700,0.05182
6063.10546,-0.02121
6065.03393,-0.02969
6066.96240,0.04479
6068.89087,0.07299
6070.81934,0.04087
6072.74781,0.02915
6074.67628,0.07423
6076.60475,0.11857
6078.53321,0.10063
6080.46168,0.08441
6082.39015,0.10275
6084.31862,0.11443
6086.24709,0.15144
6088.17556,0.19962
6090.10403,0.16803
6092.03249,0.10474
6093.96096,0.10375
6095.88943,0.11799
6097.81790,0.10337
6099.74637,0.10201
6101.67484,0.10765
6103.60331,0.08537
6105.53177,0.03332
6107.46024,-0.01998
6109.38871,-0.01287
6111.31718,0.02594
6113.24565,0.03588
6115.17412,0.05631
6117.10259,0.06915
6119.03106,0.02921
6120.95952,0.01940
6122.88799,0.07356
6124.81646,0.12012
6126.74493,0.10392
6128.67340,0.06408
6130.60187,0.07571
6132.53034,0.07325
6134.45880,0.01872
6136.38727,-0.02201
6138.31574,-0.03227
6140.24421,-0.01522
6142.17268,0.00748
6144.10115,-0.00698
6146.02962,-0.01794
6147.95809,0.04812
6149.88655,0.15634
6151.81502,0.20226
6153.74349,0.17945
6155.67196,0.14872
6157.60043,0.12728
6159.52890,0.11233
6161.45737,0.12810
6163.38583,0.17841
6165.31430,0.18034
6167.24277,0.12363
6169.17124,0.07477
6171.09971,0.02461
6173.02818,-0.02248
6174.95665,-0.01396
6176.88512,0.03568
6178.81358,0.05394
6180.74205,0.03427
6182.67052,0.07559
6184.59899,0.16819
6186.52746,0.18865
6188.45593,0.13033
6190.38440,0.09977
6192.31286,0.14072
6194.24133,0.21618
6196.16980,0.26057
6198.09827,0.25480
6200.02674,0.22300
6201.95521,0.15364
6203.88368,0.05753
6205.81215,0.00766
6207.74061,-0.00440
6209.66908,-0.01484
6211.59755,0.01961
6213.52602,0.10576
6215.45449,0.16452
6217.38296,0.11572
6219.31143,0.02058
6221.23989,-0.01997
6223.16836,-0.04096
6225.09683,-0.02888
6227.02530,0.07586
6228.95377,0.17685
6230.88224,0.18539
6232.81071,0.12553
6234.73918,0.09025
6236.66764,0.10473
6238.59611,0.11734
6240.52458,0.13696
6242.45305,0.19366
6244.38152,0.24436
6246.30999,0.22877
6248.23846,0.16645
6250.16692,0.10666
6252.09539,0.04292
6254.02386,-0.01398
6255.95233,-0.01458
6257.88080,0.00579
6259.80927,-0.00458
6261.73774,0.01641
6263.66621,0.08210
6265.59467,0.10075
6267.52314,0.07758
6269.45161,0.07311
6271.38008,0.04905
6273.30855,0.00671
6275.23702,0.02310
6277.16549,0.07328
6279.09395,0.04918
6281.02242,-0.03723
6282.95089,-0.08000
6284.87936,-0.05983
6286.80783,-0.02243
6288.73630,0.04686
6290.66477,0.14164
6292.59323,0.16065
6294.52170,0.08141
6296.45017,0.03098
6298.37864,0.06861
6300.30711,0.11896
6302.23558,0.08835
6304.16405,-0.00157
6306.09252,-0.02630
6308.02098,0.03357
6309.94945,0.06221
6311.87792,0.00016
6313.80639,-0.05747
6315.73486,-0.01871
6317.66333,0.05496
6319.59180,0.06842
6321.52026,0.08299
6323.44873,0.15553
6325.37720,0.18537
6327.30567,0.15526
6329.23414,0.11265
6331.16261,0.04597
6333.09108,0.01493
6335.01955,0.03907
6336.94801,0.03766
6338.87648,0.05330
6340.80495,0.13318
6342.73342,0.18383
6344.66189,0.16783
6346.59036,0.13504
6348.51883,0.12525
6350.44729,0.13100
6352.37576,0.09325
6354.30423,0.04426
6356.23270,0.04862
6358.16117,0.06872
6360.08964,0.05330
6362.01811,0.02675
6363.94658,0.04350
6365.87504,0.09009
6367.80351,0.12072
6369.73198,0.14589
6371.66045,0.20265
6373.58892,0.27911
6375.51739,0.24131
6377.44586,0.06221
6379.37432,-0.06798
6381.30279,-0.04934
6383.23126,0.02606
6385.15973,0.05120
6387.08820,0.01259
6389.01667,-0.02876
6390.94514,-0.02330
6392.87361,-0.00885
6394.80207,-0.01580
6396.73054,-0.01321
6398.65901,0.00946
6400.58748,0.01099
6402.51595,-0.02216
6404.44442,-0.03376
6406.37289,0.02416
6408.30135,0.14245
6410.22982,0.22700
6412.15829,0.22804
6414.08676,0.18188
6416.01523,0.14732
6417.94370,0.14553
6419.87217,0.12169
6421.80064,0.07229
6423.72910,0.04847
6425.65757,0.05862
6427.58604,0.06106
6429.51451,0.07485
6431.44298,0.10837
6433.37145,0.09197
6435.29992,0.03838
6437.22838,-0.01314
6439.15685,-0.01016
6441.08532,0.04681
6443.01379,0.09197
6444.94226,0.10012
6446.87073,0.07821
6448.79920,0.06176
6450.72766,0.06708
6452.65613,0.05404
6454.58460,0.02805
6456.51307,0.03277
6458.44154,0.04944
6460.37001,0.03729
6462.29848,0.01769
6464.22695,-0.00922
6466.15541,-0.03182
6468.08388,-0.00033
6470.01235,0.01696
6471.94082,-0.02014
6473.86929,0.01141
6475.79776,0.11437
6477.72623,0.12580
6479.65469,0.00181
6481.58316,-0.09413
6483.51163,-0.07323
6485.44010,-0.04481
6487.36857,-0.03194
6489.29704,0.05572
6491.22551,0.16163
6493.15398,0.17157
6495.08244,0.13435
6497.01091,0.11714
6498.93938,0.14142
6500.86785,0.15008
6502.79632,0.08106
6504.72479,0.05080
6506.65326,0.10551
6508.58172,0.15065
6510.51019,0.13075
6512.43866,0.04798
6514.36713,-0.01840
6516.29560,-0.01205
6518.22407,0.00100
6520.15254,0.02704
6522.08101,0.10387
6524.00947,0.11117
6525.93794,0.00500
6527.86641,-0.05395
6529.79488,-0.04319
6531.72335,-0.07764
6533.65182,-0.10938
6535.58029,0.00417
6537.50875,0.16994
6539.43722,0.18727
6541.36569,0.07648
6543.29416,-0.01331
6545.22263,-0.01853
6547.15110,0.00487
6549.07957,0.02744
6551.00804,0.09315
6552.93650,0.14946
6554.86497,0.10715
6556.79344,0.02490
6558.72191,0.00971
6560.65038,0.10237
6562.57885,0.23190
6564.50732,0.29400
6566.43578,0.26617
6568.36425,0.20070
6570.29272,0.13519
6572.22119,0.10668
6574.14966,0.10881
6576.07813,0.06444
6578.00660,0.01565
6579.93507,0.02260
6581.86353,0.02001
6583.79200,-0.00568
6585.72047,-0.03756
6587.64894,-0.05415
6589.57741,-0.00307
6591.50588,0.05706
6593.43435,0.06071
6595.36281,0.08767
6597.29128,0.13224
6599.21975,0.10937
6601.14822,0.06324
6603.07669,0.03300
6605.00516,0.03817
6606.93363,0.12947
6608.86210,0.20466
6610.79056,0.14590
6612.71903,0.03164
6614.64750,-0.00502
6616.57597,0.06010
6618.50444,0.13893
6620.43291,0.11877
6622.36138,0.00589
6624.28984,-0.08161
6626.21831,-0.08011
6628.14678,0.01830
6630.07525,0.18326
6632.00372,0.26676
6633.93219,0.24705
6635.86066,0.17424
6637.78912,0.09191
6639.71759,0.12203
6641.64606,0.16541
6643.57453,0.02306
6645.50300,-0.12191
6647.43147,-0.01442
6649.35994,0.12711
6651.28841,0.10439
6653.21687,0.01528
6655.14534,-0.06733
6657.07381,-0.10633
6659.00228,-0.05395
6660.93075,-0.00484
6662.85922,-0.00211
6664.78769,0.04103
6666.71615,0.10373
6668.64462,0.08824
6670.57309,0.03742
6672.50156,0.08066
6674.43003,0.19665
6676.35850,0.23789
6678.28697,0.18562
6680.21544,0.14173
6682.14390,0.13289
6684.07237,0.09996
6686.00084,0.02382
6687.92931,-0.02961
6689.85778,0.02493
6691.78625,0.12132
6693.71472,0.10730
6695.64318,-0.01310
6697.57165,-0.06119
6699.50012,-0.00583
6701.42859,0.03688
6703.35706,0.05960
6705.28553,0.01399
6707.21400,-0.08025
6709.14247,-0.06866
6711.07093,0.01460
6712.99940,0.05330
6714.92787,0.04694
6716.85634,0.04929
6718.78481,0.07935
6720.71328,0.08118
6722.64175,0.00242
6724.57021,-0.07314
6726.49868,-0.02607
6728.42715,0.13754
6730.35562,0.27177
6732.28409,0.23771
6734.21256,0.14057
6736.14103,0.12280
6738.06950,0.15513
6739.99796,0.16287
6741.92643,0.14181
6743.85490,0.14772
6745.78337,0.14441
6747.71184,0.10791
6749.64031,0.08626
6751.56878,0.07766
6753.49724,0.09535
6755.42571,0.14370
6757.35418,0.16626
6759.28265,0.08973
6761.21112,-0.04371
6763.13959,-0.06511
6765.06806,-0.01925
6766.99653,0.02294
6768.92499,0.11283
6770.85346,0.16918
6772.78193,0.08238
6774.71040,-0.03982
6776.63887,-0.02578
6778.56734,0.05965
6780.49581,0.06509
6782.42427,0.03578
6784.35274,0.05011
6786.28121,0.08008
6788.20968,0.06273
6790.13815,-0.01112
6792.06662,-0.03557
6793.99509,0.00343
6795.92355,0.00455
6797.85202,0.00991
6799.78049,0.05108
6801.70896,0.03481
6803.63743,-0.03691
6805.56590,-0.04523
6807.49437,0.00686
6809.42284,0.04447
6811.35130,0.02942
6813.27977,-0.00493
6815.20824,-0.07968
6817.13671,-0.19331
6819.06518,-0.20016
6820.99365,-0.14998
6822.92212,-0.11446
6824.85058,-0.04107
6826.77905,-0.02367
6828.70752,-0.08195
6830.63599,-0.01291
6832.56446,0.09937
6834.49293,0.03030
6836.42140,-0.11618
6838.34987,-0.13188
6840.27833,-0.09300
6842.20680,-0.05106
6844.13527,0.10749
6846.06374,0.28883
6847.99221,0.22862
6849.92068,-0.03135
6851.84915,-0.17793
6853.77761,-0.15723
6855.70608,-0.07565
6857.63455,0.03205
6859.56302,0.23842
6861.49149,0.40148
6863.41996,0.35808
6865.34843,0.30060
6867.27690,0.25185
6869.20536,0.11913
6871.13383,0.04258
6873.06230,0.07347
6874.99077,0.08602
6876.91924,0.04148
6878.84771,-0.00836
6880.77618,-0.00330
6882.70464,0.06965
6884.63311,0.12399
6886.56158,0.14231
6888.49005,0.15585
6890.41852,0.05029
6892.34699,-0.12703
6894.27546,-0.16557
6896.20393,-0.10721
6898.13239,-0.06666
6900.06086,-0.04055
6901.98933,-0.01055
6903.91780,-0.01244
6905.84627,-0.00711
6907.77474,0.10872
6909.70321,0.25674
6911.63167,0.27615
6913.56014,0.20343
6915.48861,0.23647
6917.41708,0.39664
6919.34555,0.46591
6921.27402,0.30078
6923.20249,0.09232
6925.13096,-0.03026
6927.05942,-0.11052
6928.98789,-0.18678
6930.91636,-0.25838
6932.84483,-0.25187
6934.77330,-0.14647
6936.70177,-0.06923
6938.63024,-0.10094
6940.55870,-0.20580
6942.48717,-0.29567
6944.41564,-0.31671
6946.34411,-0.20854
6948.27258,-0.05725
6950.20105,-0.02039
6952.12952,-0.02524
6954.05799,-0.01738
6955.98645,-0.04506
6957.91492,0.02801
6959.84339,0.21543
6961.77186,0.26454
6963.70033,0.11141
6965.62880,-0.05581
6967.55727,-0.07117
6969.48573,0.07585
6971.41420,0.16505
6973.34267,0.09178
6975.27114,0.00281
6977.19961,-0.01139
6979.12808,0.05336
6981.05655,0.19017
6982.98501,0.32530
6984.91348,0.33291
6986.84195,0.25326
6988.77042,0.24395
6990.69889,0.22890
6992.62736,0.15597
6994.55583,0.18785
6996.48430,0.25781
6998.41276,0.14615
7000.34123,0.03018
7002.26970,0.02365
7004.19817,0.04558
7006.12664,0.11838
7008.05511,0.08746
7009.98358,-0.07681
7011.91204,-0.13925
7013.84051,-0.08334
7015.76898,-0.06177
7017.69745,-0.08571
7019.62592,-0.08817
7021.55439,-0.05848
7023.48286,-0.01354
7025.41133,0.03643
7027.33979,0.08988
7029.26826,0.11939
7031.19673,0.05464
7033.12520,-0.13094
7035.05367,-0.29490
7036.98214,-0.20991
7038.91061,-0.00772
7040.83907,0.04163
7042.76754,-0.13236
7044.69601,-0.23434
7046.62448,-0.08739
7048.55295,0.20457
7050.48142,0.44477
7052.40989,0.43812
7054.33836,0.21525
7056.26682,0.03227
7058.19529,0.05727
7060.12376,0.16478
7062.05223,0.20130
7063.98070,0.22903
7065.90917,0.30761
7067.83764,0.39028
7069.76610,0.42162
7071.69457,0.31285
7073.62304,0.14475
7075.55151,0.07510
7077.47998,0.10243
7079.40845,0.20528
7081.33692,0.22016
7083.26539,0.10864
7085.19385,0.14979
7087.12232,0.29371
7089.05079,0.34466
7090.97926,0.33869
7092.90773,0.33740
7094.83620,0.38189
7096.76467,0.38968
7098.69313,0.18808
7100.62160,-0.00616
7102.55007,-0.03729
7104.47854,-0.01064
7106.40701,0.10083
7108.33548,0.22654
7110.26395,0.24209
7112.19242,0.16985
7114.12088,0.04611
7116.04935,-0.04803
7117.97782,-0.04667
7119.90629,-0.11864
7121.83476,-0.32313
7123.76323,-0.41834
7125.69170,-0.26664
7127.62016,-0.02712
7129.54863,0.13065
7131.47710,0.21306
7133.40557,0.17481
7135.33404,0.01667
7137.26251,-0.11422
7139.19098,-0.09654
7141.11944,0.03440
7143.04791,0.14150
7144.97638,0.19750
7146.90485,0.18770
7148.83332,0.15949
7150.76179,0.18068
7152.69026,0.15363
7154.61873,0.00099
7156.54719,-0.15650
7158.47566,-0.28001
7160.40413,-0.33825
7162.33260,-0.24591
7164.26107,-0.10246
7166.18954,-0.00275
7168.11801,0.00159
7170.04647,-0.09759
7171.97494,-0.01815
7173.90341,0.22727
7175.83188,0.29271
7177.76035,0.19855
7179.68882,0.19698
7181.61729,0.24886
7183.54576,0.21568
7185.47422,0.11623
7187.40269,0.03325
7189.33116,0.06321
7191.25963,0.21127
7193.18810,0.25238
7195.11657,0.16094
7197.04504,0.06438
7198.97350,-0.06073
7200.90197,-0.13990
7202.83044,-0.04000
7204.75891,0.16073
7206.68738,0.15034
7208.61585,-0.01866
7210.54432,-0.10914
7212.47279,-0.04706
7214.40125,0.11542
7216.32972,0.25969
7218.25819,0.25186
7220.18666,0.16934
7222.11513,0.09010
7224.04360,0.02342
7225.97207,0.00470
7227.90053,0.03796
7229.82900,0.10462
7231.75747,0.17196
7233.68594,0.19583
7235.61441,0.13592
7237.54288,0.04832
7239.47135,0.11370
7241.39982,0.26892
7243.32828,0.22299
7245.25675,0.02755
7247.18522,-0.12380
7249.11369,-0.25609
7251.04216,-0.25172
7252.97063,0.00671
7254.89910,0.20205
7256.82756,0.19243
7258.75603,0.22261
7260.68450,0.35895
7262.61297,0.33424
7264.54144,0.11004
7266.46991,0.01216
7268.39838,0.08133
7270.32685,0.08880
7272.25531,-0.02090
7274.18378,-0.06239
7276.11225,-0.08802
7278.04072,-0.09789
7279.96919,0.00104
7281.89766,0.14930
7283.82613,0.28182
7285.75459,0.35211
7287.68306,0.30600
7289.61153,0.14179
7291.54000,0.02175
7293.46847,0.11134
7295.39694,0.21027
7297.32541,0.20458
7299.25387,0.11254
7301.18234,-0.14743
7303.11081,-0.37128
7305.03928,-0.21501
7306.96775,0.22453
7308.89622,0.50881
7310.82469,0.39734
7312.75316,0.25034
7314.68162,0.26484
7316.61009,0.29930
7318.53856,0.21736
7320.46703,0.10109
7322.39550,-0.05653
7324.32397,-0.22592
7326.25244,-0.26143
7328.18090,-0.15593
7330.10937,-0.03457
7332.03784,-0.02674
7333.96631,-0.05301
7335.89478,-0.05587
7337.82325,-0.02683
7339.75172,0.06809
7341.68019,0.16568
7343.60865,0.15324
7345.53712,-0.08231
7347.46559,-0.35963
7349.39406,-0.35437
7351.32253,-0.19916
7353.25100,0.03037
7355.17947,0.38970
7357.10793,0.68098
7359.03640,0.69168
7360.96487,0.68444
7362.89334,0.60677
7364.82181,0.26343
7366.75028,0.12821
7368.67875,0.35969
7370.60722,0.45746
7372.53568,0.38176
7374.46415,0.37897
7376.39262,0.34360
7378.32109,0.19127
7380.24956,0.09462
7382.17803,0.12221
7384.10650,0.12317
7386.03496,0.00798
7387.96343,-0.15035
7389.89190,-0.18503
7391.82037,-0.00662
7393.74884,0.14086
7395.67731,0.14166
7397.60578,0.19659
7399.53425,0.27618
7401.46271,0.19512
7403.39118,-0.04522
7405.31965,-0.20566
7407.24812,-0.27182
7409.17659,-0.31981
7411.10506,-0.28389
7413.03353,-0.20107
7414.96199,-0.12808
7416.89046,-0.08936
7418.81893,0.06292
7420.74740,0.29503
7422.67587,0.19898
7424.60434,-0.00627
7426.53281,-0.02905
7428.46128,0.05266
7430.38974,0.07726
7432.31821,0.00386
7434.24668,-0.04320
7436.17515,-0.03219
7438.10362,-0.00093
7440.03209,0.06746
7441.96056,0.09525
7443.88902,-0.01806
7445.81749,-0.13804
7447.74596,-0.15872
7449.67443,-0.12239
7451.60290,-0.10284
7453.53137,-0.03581
7455.45984,0.13641
7457.38831,0.27792
7459.31677,0.26692
7461.24524,0.16716
7463.17371,0.12614
7465.10218,0.15467
7467.03065,0.14840
7468.95912,0.15388
7470.88759,0.34776
7472.81605,0.52130
7474.74452,0.44717
7476.67299,0.28499
7478.60146,0.09819
7480.52993,0.04122
7482.45840,0.19576
7484.38687,0.20261
7486.31533,0.02783
7488.24380,-0.01382
7490.17227,0.09806
7492.10074,-0.00590
7494.02921,-0.23661
7495.95768,-0.21643
7497.88615,0.05658
