399.19301,2.68669
401.12148,1.36168
403.04995,0.82695
404.97842,0.43762
406.90689,0.25739
408.83536,0.16352
410.76382,0.07844
412.69229,0.01622
414.62076,-0.06628
416.54923,-0.10488
418.47770,-0.09797
420.40617,-0.12079
422.33464,-0.11685
424.26311,-0.00579
426.19157,0.16670
428.12004,0.30338
430.04851,0.32559
431.97698,0.22270
433.90545,0.14726
435.83392,0.07213
437.76239,0.04856
439.69085,0.11905
441.61932,0.15460
443.54779,0.10110
445.47626,0.07325
447.40473,0.06389
449.33320,0.03685
451.26167,0.01954
453.19013,0.04724
455.11860,0.10126
457.04707,0.11479
458.97554,0.06908
460.90401,0.02297
462.83248,-0.00949
464.76095,-0.05788
466.68942,-0.12115
468.61788,-0.13708
470.54635,-0.04133
472.47482,0.07597
474.40329,0.08179
476.33176,0.07187
478.26023,0.02438
480.18870,-0.08875
482.11716,-0.15517
484.04563,-0.10677
485.97410,-0.05017
487.90257,-0.05710
489.83104,-0.11095
491.75951,-0.13480
493.68798,-0.10282
495.61645,-0.08062
497.54491,-0.07042
499.47338,-0.04458
501.40185,-0.06356
503.33032,-0.11448
505.25879,-0.08011
507.18726,-0.01535
509.11573,-0.02113
511.04419,-0.04095
512.97266,-0.02089
514.90113,-0.01174
516.82960,-0.02177
518.75807,-0.01915
520.68654,-0.03167
522.61501,-0.06232
524.54348,-0.09644
526.47194,-0.09916
528.40041,-0.08750
530.32888,-0.07295
532.25735,-0.05843
534.18582,-0.04279
536.11429,-0.02552
538.04276,-0.02830
539.97122,-0.02807
541.89969,-0.00784
543.82816,0.00882
545.75663,0.01225
547.68510,0.04369
549.61357,0.67180
551.54204,3.43191
553.47051,6.57868
555.39897,5.62360
557.32744,1.92063
559.25591,0.02821
561.18438,-0.17053
563.11285,-0.10927
565.04132,-0.02918
566.96979,-0.00445
568.89825,-0.02199
570.82672,-0.05465
572.75519,-0.06300
574.68366,-0.02549
576.61213,0.01142
578.54060,0.01199
580.46907,0.03054
582.39754,0.04334
584.32600,0.00742
586.25447,-0.03664
588.18294,-0.03762
590.11141,-0.00326
592.03988,-0.00019
593.96835,-0.01801
595.89682,-0.00366
597.82528,0.01396
599.75375,-0.00251
601.68222,-0.02332
603.61069,-0.03718
605.53916,-0.03966
607.46763,-0.01726
609.39610,0.00289
611.32456,-0.00274
613.25303,-0.01527
615.18150,-0.01013
617.10997,-0.01193
619.03844,-0.01888
620.96691,-0.00267
622.89538,0.01231
624.82385,0.01066
626.75231,0.03006
628.68078,0.08127
630.60925,0.10497
632.53772,0.06616
634.46619,0.01544
636.39466,-0.00770
638.32313,-0.00395
640.25159,0.02392
642.18006,0.05923
644.10853,0.07646
646.03700,0.07380
647.96547,0.07798
649.89394,0.08216
651.82241,0.07251
653.75088,0.06804
655.67934,0.07903
657.60781,0.07869
659.53628,0.07195
661.46475,0.09058
663.39322,0.10520
665.32169,0.08808
667.25016,0.07227
669.17862,0.10562
671.10709,0.11888
673.03556,0.09827
674.96403,0.07071
676.89250,0.05635
678.82097,0.07045
680.74944,0.08608
682.67791,0.09176
684.60637,0.09032
686.53484,0.06911
688.46331,0.05623
690.39178,0.08491
692.32025,0.11542
694.24872,0.11281
696.17719,0.10057
698.10565,0.10022
700.03412,0.11053
701.96259,0.11621
703.89106,0.10382
705.81953,0.08380
707.74800,0.07406
709.67647,0.06895
711.60494,0.06496
713.53340,0.07244
715.46187,0.08304
717.39034,0.08947
719.31881,0.10126
721.24728,0.11919
723.17575,0.12754
725.10422,0.11287
727.03268,0.08494
728.96115,0.07249
730.88962,0.07613
732.81809,0.07422
734.74656,0.07707
736.67503,0.09787
738.60350,0.12016
740.53197,0.12987
742.46043,0.12686
744.38890,0.11227
746.31737,0.08663
748.24584,0.06505
750.17431,0.06934
752.10278,0.08335
754.03125,0.08714
755.95971,0.09919
757.88818,0.11451
759.81665,0.10631
761.74512,0.08352
763.67359,0.07178
765.60206,0.07314
767.53053,0.07083
769.45900,0.06476
771.38746,0.06863
773.31593,0.07739
775.24440,0.08509
777.17287,0.09522
779.10134,0.10675
781.02981,0.11990
782.95828,0.12269
784.88674,0.10020
786.81521,0.06823
788.74368,0.06342
790.67215,0.08922
792.60062,0.11474
794.52909,0.11418
796.45756,0.09017
798.38602,0.07819
800.31449,0.09111
802.24296,0.10365
804.17143,0.10035
806.09990,0.08910
808.02837,0.08718
809.95684,0.09889
811.88531,0.11097
813.81377,0.11779
815.74224,0.12005
817.67071,0.10948
819.59918,0.09420
821.52765,0.09593
823.45612,0.11166
825.38459,0.11845
827.31305,0.10345
829.24152,0.08138
831.16999,0.07395
833.09846,0.08361
835.02693,0.09592
836.95540,0.09804
838.88387,0.09283
840.81234,0.09394
842.74080,0.10269
844.66927,0.10363
846.59774,0.09719
848.52621,0.09960
850.45468,0.10907
852.38315,0.11634
854.31162,0.12336
856.24008,0.12696
858.16855,0.12534
860.09702,0.12646
862.02549,0.12329
863.95396,0.10449
865.88243,0.08792
867.81090,0.09044
869.73937,0.10026
871.66783,0.10887
873.59630,0.11203
875.52477,0.09931
877.45324,0.08375
879.38171,0.08467
881.31018,0.09468
883.23865,0.10245
885.16711,0.10776
887.09558,0.11530
889.02405,0.12384
890.95252,0.12244
892.88099,0.10841
894.80946,0.09890
896.73793,0.11090
898.66640,0.12836
900.59486,0.12982
902.52333,0.12051
904.45180,0.10973
906.38027,0.10048
908.30874,0.09643
910.23721,0.09866
912.16568,0.10145
914.09414,0.10275
916.02261,0.10708
917.95108,0.11348
919.87955,0.11438
921.80802,0.10773
923.73649,0.10472
925.66496,0.11014
927.59343,0.11636
929.52189,0.11551
931.45036,0.10915
933.37883,0.11254
935.30730,0.12541
937.23577,0.13285
939.16424,0.13304
941.09271,0.12693
943.02117,0.11970
944.94964,0.11687
946.87811,0.11381
948.80658,0.11056
950.73505,0.10455
952.66352,0.09275
954.59199,0.09146
956.52045,0.10954
958.44892,0.12667
960.37739,0.12980
962.30586,0.12381
964.23433,0.11232
966.16280,0.10855
968.09127,0.12088
970.01974,0.13051
971.94820,0.12589
973.87667,0.12153
975.80514,0.12702
977.73361,0.13545
979.66208,0.13791
981.59055,0.13333
983.51902,0.12958
985.44748,0.12925
987.37595,0.12810
989.30442,0.12939
991.23289,0.13054
993.16136,0.12532
995.08983,0.12197
997.01830,0.11905
998.94677,0.10932
1000.87523,0.10537
1002.80370,0.11679
1004.73217,0.13219
1006.66064,0.13418
1008.58911,0.12252
1010.51758,0.11908
1012.44605,0.12805
1014.37451,0.12462
1016.30298,0.10835
1018.23145,0.10059
1020.15992,0.10334
1022.08839,0.11064
1024.01686,0.12277
1025.94533,0.13035
1027.87380,0.12601
1029.80226,0.12869
1031.73073,0.13759
1033.65920,0.13069
1035.58767,0.11791
1037.51614,0.10925
1039.44461,0.10030
1041.37308,0.09822
1043.30154,0.10931
1045.23001,0.12203
1047.15848,0.12366
1049.08695,0.11947
1051.01542,0.11688
1052.94389,0.11386
1054.87236,0.10948
1056.80083,0.11371
1058.72929,0.12963
1060.65776,0.14079
1062.58623,0.13563
1064.51470,0.12228
1066.44317,0.11637
1068.37164,0.12108
1070.30011,0.13398
1072.22857,0.15013
1074.15704,0.15616
1076.08551,0.14808
1078.01398,0.13383
1079.94245,0.12115
1081.87092,0.11716
1083.79939,0.12134
1085.72786,0.12151
1087.65632,0.12008
1089.58479,0.12586
1091.51326,0.12920
1093.44173,0.13085
1095.37020,0.13749
1097.29867,0.13654
1099.22714,0.12644
1101.15560,0.12631
1103.08407,0.13453
1105.01254,0.13109
1106.94101,0.12377
1108.86948,0.12981
1110.79795,0.13733
1112.72642,0.13505
1114.65489,0.13078
1116.58335,0.12776
1118.51182,0.12754
1120.44029,0.13519
1122.36876,0.15118
1124.29723,0.16767
1126.22570,0.17000
1128.15417,0.15637
1130.08263,0.14016
1132.01110,0.12911
1133.93957,0.12272
1135.86804,0.12424
1137.79651,0.13427
1139.72498,0.14176
1141.65345,0.14267
1143.58191,0.14183
1145.51038,0.13799
1147.43885,0.13409
1149.36732,0.13893
1151.29579,0.14367
1153.22426,0.13647
1155.15273,0.12970
1157.08120,0.13434
1159.00966,0.14242
1160.93813,0.14848
1162.86660,0.15168
1164.79507,0.15067
1166.72354,0.15030
1168.65201,0.14916
1170.58048,0.14540
1172.50894,0.14736
1174.43741,0.15284
1176.36588,0.15247
1178.29435,0.14574
1180.22282,0.13939
1182.15129,0.13624
1184.07976,0.12768
1186.00823,0.11556
1187.93669,0.11928
1189.86516,0.13629
1191.79363,0.14165
1193.72210,0.13469
1195.65057,0.13095
1197.57904,0.13332
1199.50751,0.13767
1201.43597,0.14181
1203.36444,0.14736
1205.29291,0.15291
1207.22138,0.15434
1209.14985,0.15255
1211.07832,0.14859
1213.00679,0.14506
1214.93526,0.14920
1216.86372,0.15654
1218.79219,0.15506
1220.72066,0.14725
1222.64913,0.14236
1224.57760,0.14374
1226.50607,0.14704
1228.43454,0.14549
1230.36300,0.14061
1232.29147,0.14009
1234.21994,0.14582
1236.14841,0.15190
1238.07688,0.15364
1240.00535,0.15081
1241.93382,0.14678
1243.86229,0.14537
1245.79075,0.14664
1247.71922,0.14755
1249.64769,0.14525
1251.57616,0.14205
1253.50463,0.14257
1255.43310,0.14482
1257.36157,0.14507
1259.29003,0.14570
1261.21850,0.14707
1263.14697,0.14450
1265.07544,0.13972
1267.00391,0.13829
1268.93238,0.14081
1270.86085,0.14653
1272.78932,0.15027
1274.71778,0.14749
1276.64625,0.14769
1278.57472,0.15477
1280.50319,0.15655
1282.43166,0.15110
1284.36013,0.15009
1286.28860,0.15464
1288.21706,0.15614
1290.14553,0.15532
1292.07400,0.15629
1294.00247,0.15491
1295.93094,0.14916
1297.85941,0.14487
1299.78788,0.14097
1301.71634,0.13037
1303.64481,0.11883
1305.57328,0.12015
1307.50175,0.13564
1309.43022,0.15167
1311.35869,0.15941
1313.28716,0.15967
1315.21563,0.15519
1317.14409,0.15450
1319.07256,0.15820
1321.00103,0.15843
1322.92950,0.15657
1324.85797,0.15310
1326.78644,0.14835
1328.71491,0.14749
1330.64337,0.14884
1332.57184,0.15062
1334.50031,0.15374
1336.42878,0.15680
1338.35725,0.15695
1340.28572,0.14984
1342.21419,0.14313
1344.14266,0.14348
1346.07112,0.14782
1347.99959,0.15369
1349.92806,0.15573
1351.85653,0.15500
1353.78500,0.15578
1355.71347,0.15388
1357.64194,0.15173
1359.57040,0.15683
1361.49887,0.16470
1363.42734,0.16655
1365.35581,0.16689
1367.28428,0.17004
1369.21275,0.17190
1371.14122,0.17121
1373.06969,0.16947
1374.99815,0.16432
1376.92662,0.15652
1378.85509,0.15227
1380.78356,0.15383
1382.71203,0.15717
1384.64050,0.16002
1386.56897,0.16538
1388.49743,0.16972
1390.42590,0.16849
1392.35437,0.16796
1394.28284,0.17350
1396.21131,0.18128
1398.13978,0.18303
1400.06825,0.17858
1401.99672,0.17599
1403.92518,0.17846
1405.85365,0.17736
1407.78212,0.16984
1409.71059,0.16508
1411.63906,0.16604
1413.56753,0.16889
1415.49600,0.17194
1417.42446,0.17824
1419.35293,0.18390
1421.28140,0.18170
1423.20987,0.17719
1425.13834,0.17343
1427.06681,0.17178
1428.99528,0.17148
1430.92375,0.17211
1432.85221,0.17809
1434.78068,0.18807
1436.70915,0.18829
1438.63762,0.17688
1440.56609,0.17044
1442.49456,0.16826
1444.42303,0.17015
1446.35149,0.17996
1448.27996,0.19017
1450.20843,0.18952
1452.13690,0.18302
1454.06537,0.18625
1455.99384,0.21176
1457.92231,0.22330
1459.85077,0.19630
1461.77924,0.18383
1463.70771,0.18907
1465.63618,0.19022
1467.56465,0.18177
1469.49312,0.18302
1471.42159,0.19706
1473.35006,0.20129
1475.27852,0.18973
1477.20699,0.18255
1479.13546,0.18172
1481.06393,0.18235
1482.99240,0.17798
1484.92087,0.17504
1486.84934,0.18531
1488.77780,0.20251
1490.70627,0.20333
1492.63474,0.19166
1494.56321,0.18584
1496.49168,0.19010
1498.42015,0.19417
1500.34862,0.18973
1502.27709,0.18685
1504.20555,0.19406
1506.13402,0.21788
1508.06249,0.23618
1509.99096,0.22380
1511.91943,0.20803
1513.84790,0.20345
1515.77637,0.21261
1517.70483,0.22073
1519.63330,0.22323
1521.56177,0.23313
1523.49024,0.23417
1525.41871,0.21965
1527.34718,0.20470
1529.27565,0.19692
1531.20412,0.19608
1533.13258,0.19951
1535.06105,0.20155
1536.98952,0.21134
1538.91799,0.24367
1540.84646,0.26725
1542.77493,0.24241
1544.70340,0.21438
1546.63186,0.19730
1548.56033,0.19349
1550.48880,0.19459
1552.41727,0.19692
1554.34574,0.20745
1556.27421,0.23170
1558.20268,0.26146
1560.13115,0.23382
1562.05961,0.20254
1563.98808,0.19627
1565.91655,0.19634
1567.84502,0.19775
1569.77349,0.19559
1571.70196,0.19039
1573.63043,0.19663
1575.55889,0.21040
1577.48736,0.20787
1579.41583,0.19314
1581.34430,0.18038
1583.27277,0.17253
1585.20124,0.17354
1587.12971,0.18006
1589.05818,0.18229
1590.98664,0.17822
1592.91511,0.17684
1594.84358,0.18137
1596.77205,0.18245
1598.70052,0.17644
1600.62899,0.17128
1602.55746,0.17168
1604.48592,0.17507
1606.41439,0.17957
1608.34286,0.18392
1610.27133,0.18298
1612.19980,0.18036
1614.12827,0.18900
1616.05674,0.20617
1617.98521,0.20466
1619.91367,0.19467
1621.84214,0.19572
1623.77061,0.19588
1625.69908,0.19058
1627.62755,0.19311
1629.55602,0.19739
1631.48449,0.19755
1633.41295,0.20448
1635.34142,0.21845
1637.26989,0.21238
1639.19836,0.19889
1641.12683,0.19659
1643.05530,0.20627
1644.98377,0.22795
1646.91223,0.23964
1648.84070,0.21936
1650.76917,0.20886
1652.69764,0.22471
1654.62611,0.22626
1656.55458,0.20945
1658.48305,0.20151
1660.41152,0.20108
1662.33998,0.20554
1664.26845,0.20667
1666.19692,0.20478
1668.12539,0.21317
1670.05386,0.22373
1671.98233,0.21511
1673.91080,0.20449
1675.83926,0.19983
1677.76773,0.19909
1679.69620,0.20493
1681.62467,0.22030
1683.55314,0.24248
1685.48161,0.23858
1687.41008,0.21636
1689.33855,0.19787
1691.26701,0.18564
1693.19548,0.18812
1695.12395,0.20757
1697.05242,0.22937
1698.98089,0.23652
1700.90936,0.22900
1702.83783,0.21982
1704.76629,0.21803
1706.69476,0.21317
1708.62323,0.20209
1710.55170,0.19594
1712.48017,0.20179
1714.40864,0.21757
1716.33711,0.22874
1718.26558,0.21821
1720.19404,0.20175
1722.12251,0.19395
1724.05098,0.19192
1725.97945,0.19204
1727.90792,0.19654
1729.83639,0.20477
1731.76486,0.21069
1733.69332,0.20875
1735.62179,0.19941
1737.55026,0.19632
1739.47873,0.19982
1741.40720,0.20237
1743.33567,0.20001
1745.26414,0.19732
1747.19261,0.20183
1749.12107,0.20917
1751.04954,0.20402
1752.97801,0.19250
1754.90648,0.18972
1756.83495,0.19405
1758.76342,0.19496
1760.69189,0.19108
1762.62035,0.18675
1764.54882,0.18504
1766.47729,0.18623
1768.40576,0.19102
1770.33423,0.20359
1772.26270,0.21254
1774.19117,0.20158
1776.11964,0.18950
1778.04810,0.18694
1779.97657,0.18367
1781.90504,0.17191
1783.83351,0.16515
1785.76198,0.17204
1787.69045,0.18212
1789.61892,0.18939
1791.54738,0.19755
1793.47585,0.20202
1795.40432,0.19677
1797.33279,0.18909
1799.26126,0.18643
1801.18973,0.18800
1803.11820,0.18706
1805.04666,0.18329
1806.97513,0.18057
1808.90360,0.18168
1810.83207,0.18546
1812.76054,0.18733
1814.68901,0.18813
1816.61748,0.19258
1818.54595,0.19834
1820.47441,0.19904
1822.40288,0.19618
1824.33135,0.19223
1826.25982,0.18980
1828.18829,0.19454
1830.11676,0.19881
1832.04523,0.19192
1833.97369,0.18489
1835.90216,0.18619
1837.83063,0.18973
1839.75910,0.19135
1841.68757,0.19628
1843.61604,0.20256
1845.54451,0.20084
1847.47298,0.19513
1849.40144,0.19107
1851.32991,0.18686
1853.25838,0.18193
1855.18685,0.17712
1857.11532,0.17398
1859.04379,0.17557
1860.97226,0.18049
1862.90072,0.18330
1864.82919,0.18499
1866.75766,0.19267
1868.68613,0.20194
1870.61460,0.19801
1872.54307,0.18906
1874.47154,0.18520
1876.40001,0.18315
1878.32847,0.18065
1880.25694,0.17923
1882.18541,0.18054
1884.11388,0.18418
1886.04235,0.18688
1887.97082,0.19000
1889.89929,0.19457
1891.82775,0.19617
1893.75622,0.19470
1895.68469,0.19144
1897.61316,0.18831
1899.54163,0.18752
1901.47010,0.18671
1903.39857,0.18440
1905.32704,0.18436
1907.25550,0.18788
1909.18397,0.19079
1911.11244,0.19171
1913.04091,0.19174
1914.96938,0.19048
1916.89785,0.18890
1918.82632,0.18896
1920.75478,0.19032
1922.68325,0.18971
1924.61172,0.18633
1926.54019,0.18402
1928.46866,0.18349
1930.39713,0.18337
1932.32560,0.18442
1934.25407,0.18626
1936.18253,0.18661
1938.11100,0.18659
1940.03947,0.19177
1941.96794,0.19994
1943.89641,0.20012
1945.82488,0.19304
1947.75335,0.18728
1949.68181,0.18638
1951.61028,0.18781
1953.53875,0.18864
1955.46722,0.19010
1957.39569,0.18944
1959.32416,0.18624
1961.25263,0.18614
1963.18110,0.18866
1965.10956,0.19084
1967.03803,0.19172
1968.96650,0.19019
1970.89497,0.18781
1972.82344,0.18734
1974.75191,0.18973
1976.68038,0.19171
1978.60884,0.18962
1980.53731,0.18724
1982.46578,0.18880
1984.39425,0.19032
1986.32272,0.18829
1988.25119,0.18579
1990.17966,0.18586
1992.10812,0.18856
1994.03659,0.19227
1995.96506,0.19262
1997.89353,0.18821
1999.82200,0.18455
2001.75047,0.18608
2003.67894,0.19084
2005.60741,0.19281
2007.53587,0.18935
2009.46434,0.18672
2011.39281,0.18846
2013.32128,0.19077
2015.24975,0.19384
2017.17822,0.19681
2019.10669,0.19491
2021.03515,0.19075
2022.96362,0.18834
2024.89209,0.18729
2026.82056,0.18642
2028.74903,0.18638
2030.67750,0.18959
2032.60597,0.19325
2034.53444,0.19306
2036.46290,0.19139
2038.39137,0.19080
2040.31984,0.19108
2042.24831,0.19150
2044.17678,0.19215
2046.10525,0.19376
2048.03372,0.19372
2049.96218,0.19000
2051.89065,0.18591
2053.81912,0.18412
2055.74759,0.18401
2057.67606,0.18469
2059.60453,0.18626
2061.53300,0.18851
2063.46147,0.19007
2065.38993,0.18910
2067.31840,0.18541
2069.24687,0.18419
2071.17534,0.18792
2073.10381,0.19139
2075.03228,0.19158
2076.96075,0.18976
2078.88921,0.18803
2080.81768,0.18684
2082.74615,0.18558
2084.67462,0.18529
2086.60309,0.18539
2088.53156,0.18534
2090.46003,0.18772
2092.38850,0.19036
2094.31696,0.18800
2096.24543,0.18373
2098.17390,0.18242
2100.10237,0.18477
2102.03084,0.18926
2103.95931,0.19062
2105.88778,0.18845
2107.81624,0.18809
2109.74471,0.18938
2111.67318,0.18987
2113.60165,0.19195
2115.53012,0.19534
2117.45859,0.19569
2119.38706,0.19366
2121.31553,0.19333
2123.24399,0.19564
2125.17246,0.19754
2127.10093,0.19688
2129.02940,0.19520
2130.95787,0.19406
2132.88634,0.19009
2134.81481,0.18223
2136.74327,0.17614
2138.67174,0.17598
2140.60021,0.18389
2142.52868,0.19432
2144.45715,0.19835
2146.38562,0.19860
2148.31409,0.19832
2150.24255,0.19567
2152.17102,0.19320
2154.09949,0.19250
2156.02796,0.18985
2157.95643,0.18592
2159.88490,0.18572
2161.81337,0.18945
2163.74184,0.19316
2165.67030,0.19498
2167.59877,0.19588
2169.52724,0.19704
2171.45571,0.19838
2173.38418,0.19710
2175.31265,0.19294
2177.24112,0.19071
2179.16958,0.19294
2181.09805,0.19547
2183.02652,0.19439
2184.95499,0.19098
2186.88346,0.18746
2188.81193,0.18678
2190.74040,0.18946
2192.66887,0.19254
2194.59733,0.19347
2196.52580,0.19129
2198.45427,0.18936
2200.38274,0.18969
2202.31121,0.18991
2204.23968,0.18969
2206.16815,0.19078
2208.09661,0.19257
2210.02508,0.19416
2211.95355,0.19559
2213.88202,0.19294
2215.81049,0.18601
2217.73896,0.18211
2219.66743,0.18308
2221.59590,0.18591
2223.52436,0.18939
2225.45283,0.19128
2227.38130,0.19083
2229.30977,0.19134
2231.23824,0.19462
2233.16671,0.19782
2235.09518,0.19792
2237.02364,0.19674
2238.95211,0.19656
2240.88058,0.19652
2242.80905,0.19701
2244.73752,0.19802
2246.66599,0.19661
2248.59446,0.19208
2250.52293,0.18737
2252.45139,0.18648
2254.37986,0.18907
2256.30833,0.18964
2258.23680,0.18872
2260.16527,0.19042
2262.09374,0.19155
2264.02221,0.19051
2265.95067,0.19021
2267.87914,0.18921
2269.80761,0.18718
2271.73608,0.18762
2273.66455,0.18944
2275.59302,0.18897
2277.52149,0.18719
2279.44996,0.18811
2281.37842,0.19169
2283.30689,0.19296
2285.23536,0.19029
2287.16383,0.18810
2289.09230,0.18874
2291.02077,0.18990
2292.94924,0.19036
2294.87770,0.19004
2296.80617,0.19137
2298.73464,0.19869
2300.66311,0.20800
2302.59158,0.20962
2304.52005,0.20365
2306.44852,0.19938
2308.37699,0.19900
2310.30545,0.19960
2312.23392,0.20455
2314.16239,0.21363
2316.09086,0.21959
2318.01933,0.22036
2319.94780,0.21973
2321.87627,0.21862
2323.80473,0.21618
2325.73320,0.21554
2327.66167,0.21442
2329.59014,0.20678
2331.51861,0.20796
2333.44708,0.23187
2335.37555,0.24908
2337.30401,0.23963
2339.23248,0.22823
2341.16095,0.23145
2343.08942,0.23614
2345.01789,0.23065
2346.94636,0.22275
2348.87483,0.21738
2350.80330,0.20869
2352.73176,0.20588
2354.66023,0.23258
2356.58870,0.26374
2358.51717,0.25733
2360.44564,0.23819
2362.37411,0.24152
2364.30258,0.25261
2366.23104,0.24598
2368.15951,0.22852
2370.08798,0.21483
2372.01645,0.21136
2373.94492,0.21361
2375.87339,0.21297
2377.80186,0.20799
2379.73033,0.20161
2381.65879,0.19821
2383.58726,0.19830
2385.51573,0.19821
2387.44420,0.19753
2389.37267,0.19655
2391.30114,0.19322
2393.22961,0.19008
2395.15807,0.19045
2397.08654,0.19227
2399.01501,0.19247
2400.94348,0.19107
2402.87195,0.19165
2404.80042,0.19562
2406.72889,0.19880
2408.65736,0.19801
2410.58582,0.19485
2412.51429,0.19056
2414.44276,0.18684
2416.37123,0.18782
2418.29970,0.19318
2420.22817,0.19862
2422.15664,0.20145
2424.08510,0.20087
2426.01357,0.19722
2427.94204,0.19361
2429.87051,0.19311
2431.79898,0.19345
2433.72745,0.19308
2435.65592,0.19363
2437.58439,0.19367
2439.51285,0.19186
2441.44132,0.19093
2443.36979,0.19195
2445.29826,0.19412
2447.22673,0.19685
2449.15520,0.19840
2451.08367,0.19925
2453.01213,0.19992
2454.94060,0.19941
2456.86907,0.19760
2458.79754,0.19588
2460.72601,0.19631
2462.65448,0.19707
2464.58295,0.19617
2466.51142,0.19387
2468.43988,0.19074
2470.36835,0.19141
2472.29682,0.19650
2474.22529,0.19987
2476.15376,0.20019
2478.08223,0.19944
2480.01070,0.19860
2481.93916,0.19835
2483.86763,0.19745
2485.79610,0.19510
2487.72457,0.19228
2489.65304,0.19143
2491.58151,0.19275
2493.50998,0.19261
2495.43844,0.19178
2497.36691,0.19377
2499.29538,0.19645
2501.22385,0.19640
2503.15232,0.19539
2505.08079,0.19694
2507.00926,0.19996
2508.93773,0.20050
2510.86619,0.19834
2512.79466,0.19552
2514.72313,0.19350
2516.65160,0.19373
2518.58007,0.19596
2520.50854,0.19931
2522.43701,0.20142
2524.36547,0.19975
2526.29394,0.19645
2528.22241,0.19542
2530.15088,0.19717
2532.07935,0.19887
2534.00782,0.19908
2535.93629,0.19818
2537.86476,0.19584
2539.79322,0.19317
2541.72169,0.19149
2543.65016,0.19135
2545.57863,0.19305
2547.50710,0.19491
2549.43557,0.19528
2551.36404,0.19418
2553.29250,0.19373
2555.22097,0.19607
2557.14944,0.19865
2559.07791,0.19940
2561.00638,0.20019
2562.93485,0.20082
2564.86332,0.20027
2566.79179,0.19975
2568.72025,0.19961
2570.64872,0.19912
2572.57719,0.19846
2574.50566,0.19891
2576.43413,0.19865
2578.36260,0.19488
2580.29107,0.19209
2582.21953,0.19369
2584.14800,0.19498
2586.07647,0.19293
2588.00494,0.18923
2589.93341,0.18704
2591.86188,0.18791
2593.79035,0.19075
2595.71882,0.19466
2597.64728,0.19843
2599.57575,0.19966
2601.50422,0.19807
2603.43269,0.19667
2605.36116,0.19713
2607.28963,0.19864
2609.21810,0.20090
2611.14656,0.20354
2613.07503,0.20452
2615.00350,0.20194
2616.93197,0.19896
2618.86044,0.20050
2620.78891,0.20436
2622.71738,0.20544
2624.64585,0.20320
2626.57431,0.20048
2628.50278,0.20037
2630.43125,0.20246
2632.35972,0.20422
2634.28819,0.20577
2636.21666,0.20546
2638.14513,0.20166
2640.07359,0.20002
2642.00206,0.20150
2643.93053,0.19988
2645.85900,0.19559
2647.78747,0.19356
2649.71594,0.19525
2651.64441,0.19758
2653.57288,0.19839
2655.50134,0.19892
2657.42981,0.19955
2659.35828,0.19932
2661.28675,0.19552
2663.21522,0.18990
2665.14369,0.19101
2667.07216,0.19908
2669.00062,0.20464
2670.92909,0.20317
2672.85756,0.20020
2674.78603,0.20076
2676.71450,0.20143
2678.64297,0.20192
2680.57144,0.20432
2682.49990,0.20482
2684.42837,0.20344
2686.35684,0.20327
2688.28531,0.20487
2690.21378,0.20622
2692.14225,0.20400
2694.07072,0.20117
2695.99919,0.20040
2697.92765,0.19877
2699.85612,0.19728
2701.78459,0.19940
2703.71306,0.20426
2705.64153,0.20909
2707.57000,0.21186
2709.49847,0.21289
2711.42693,0.21353
2713.35540,0.21114
2715.28387,0.20421
2717.21234,0.19822
2719.14081,0.19839
2721.06928,0.20303
2722.99775,0.20580
2724.92622,0.20509
2726.85468,0.20463
2728.78315,0.20365
2730.71162,0.20137
2732.64009,0.20149
2734.56856,0.20249
2736.49703,0.20039
2738.42550,0.19594
2740.35396,0.19263
2742.28243,0.19448
2744.21090,0.19932
2746.13937,0.20142
2748.06784,0.20224
2749.99631,0.20373
2751.92478,0.20359
2753.85325,0.20212
2755.78171,0.20316
2757.71018,0.20742
2759.63865,0.20968
2761.56712,0.20866
2763.49559,0.20740
2765.42406,0.20643
2767.35253,0.20681
2769.28099,0.20887
2771.20946,0.21046
2773.13793,0.20971
2775.06640,0.20613
2776.99487,0.20309
2778.92334,0.20616
2780.85181,0.21301
2782.78028,0.21611
2784.70874,0.21512
2786.63721,0.21331
2788.56568,0.21180
2790.49415,0.21163
2792.42262,0.21231
2794.35109,0.21136
2796.27956,0.21013
2798.20802,0.21145
2800.13649,0.21291
2802.06496,0.21320
2803.99343,0.21362
2805.92190,0.21386
2807.85037,0.21477
2809.77884,0.21668
2811.70731,0.21613
2813.63577,0.21155
2815.56424,0.20813
2817.49271,0.20715
2819.42118,0.20428
2821.34965,0.20332
2823.27812,0.20837
2825.20659,0.21256
2827.13505,0.21201
2829.06352,0.21048
2830.99199,0.21020
2832.92046,0.21167
2834.84893,0.21278
2836.77740,0.21210
2838.70587,0.21487
2840.63433,0.22104
2842.56280,0.22189
2844.49127,0.21761
2846.41974,0.21518
2848.34821,0.21499
2850.27668,0.21523
2852.20515,0.21401
2854.13362,0.21202
2856.06208,0.21407
2857.99055,0.21939
2859.91902,0.22280
2861.84749,0.22062
2863.77596,0.21482
2865.70443,0.21180
2867.63290,0.21077
2869.56136,0.20834
2871.48983,0.20676
2873.41830,0.20621
2875.34677,0.20643
2877.27524,0.21024
2879.20371,0.21491
2881.13218,0.21508
2883.06065,0.20944
2884.98911,0.20324
2886.91758,0.20340
2888.84605,0.20751
2890.77452,0.21143
2892.70299,0.21408
2894.63146,0.21095
2896.55993,0.20379
2898.48839,0.20388
2900.41686,0.21368
2902.34533,0.22008
2904.27380,0.21391
2906.20227,0.20589
2908.13074,0.20835
2910.05921,0.21434
2911.98768,0.21670
2913.91614,0.21732
2915.84461,0.21429
2917.77308,0.20943
2919.70155,0.20860
2921.63002,0.20988
2923.55849,0.20653
2925.48696,0.20155
2927.41542,0.20507
2929.34389,0.21188
2931.27236,0.21079
2933.20083,0.20594
2935.12930,0.20367
2937.05777,0.20393
2938.98624,0.20863
2940.91471,0.21633
2942.84317,0.22001
2944.77164,0.21484
2946.70011,0.20452
2948.62858,0.20121
2950.55705,0.20877
2952.48552,0.21606
2954.41399,0.21323
2956.34245,0.20208
2958.27092,0.19431
2960.19939,0.19615
2962.12786,0.20134
2964.05633,0.20529
2965.98480,0.20482
2967.91327,0.19915
2969.84174,0.19804
2971.77020,0.20524
2973.69867,0.21254
2975.62714,0.21331
2977.55561,0.21025
2979.48408,0.21216
2981.41255,0.21735
2983.34102,0.21709
2985.26948,0.21324
2987.19795,0.21065
2989.12642,0.21192
2991.05489,0.22029
2992.98336,0.22983
2994.91183,0.23189
2996.84030,0.22662
2998.76877,0.22139
3000.69723,0.22286
3002.62570,0.22492
3004.55417,0.21986
3006.48264,0.21050
3008.41111,0.20217
3010.33958,0.19567
3012.26805,0.18484
3014.19651,0.16524
3016.12498,0.14914
3018.05345,0.15827
3019.98192,0.18842
3021.91039,0.21125
3023.83886,0.21915
3025.76733,0.22265
3027.69579,0.22339
3029.62426,0.22065
3031.55273,0.21650
3033.48120,0.21225
3035.40967,0.20974
3037.33814,0.21094
3039.26661,0.21869
3041.19508,0.22720
3043.12354,0.22807
3045.05201,0.22502
3046.98048,0.22130
3048.90895,0.21643
3050.83742,0.21448
3052.76589,0.21852
3054.69436,0.21860
3056.62282,0.20939
3058.55129,0.20922
3060.47976,0.22144
3062.40823,0.22640
3064.33670,0.21897
3066.26517,0.21099
3068.19364,0.21188
3070.12211,0.21581
3072.05057,0.21530
3073.97904,0.21280
3075.90751,0.21045
3077.83598,0.21309
3079.76445,0.22222
3081.69292,0.22330
3083.62139,0.20966
3085.54985,0.19982
3087.47832,0.20355
3089.40679,0.20752
3091.33526,0.20616
3093.26373,0.20338
3095.19220,0.20305
3097.12067,0.21011
3099.04914,0.22036
3100.97760,0.22228
3102.90607,0.21124
3104.83454,0.20276
3106.76301,0.20863
3108.69148,0.21568
3110.61995,0.21406
3112.54842,0.21061
3114.47688,0.21274
3116.40535,0.21891
3118.33382,0.22351
3120.26229,0.22120
3122.19076,0.21450
3124.11923,0.21411
3126.04770,0.21646
3127.97617,0.21216
3129.90463,0.20837
3131.83310,0.21268
3133.76157,0.21850
3135.69004,0.22040
3137.61851,0.22057
3139.54698,0.21771
3141.47545,0.21171
3143.40391,0.21005
3145.33238,0.21488
3147.26085,0.21854
3149.18932,0.21798
3151.11779,0.21800
3153.04626,0.22088
3154.97473,0.22282
3156.90320,0.22209
3158.83166,0.22176
3160.76013,0.22136
3162.68860,0.22150
3164.61707,0.22196
3166.54554,0.21865
3168.47401,0.21822
3170.40248,0.22574
3172.33094,0.23330
3174.25941,0.23638
3176.18788,0.23556
3178.11635,0.23290
3180.04482,0.23266
3181.97329,0.23392
3183.90176,0.23173
3185.83022,0.22859
3187.75869,0.22681
3189.68716,0.22289
3191.61563,0.22313
3193.54410,0.23173
3195.47257,0.23912
3197.40104,0.23986
3199.32951,0.23722
3201.25797,0.23395
3203.18644,0.22911
3205.11491,0.22387
3207.04338,0.22243
3208.97185,0.22306
3210.90032,0.22294
3212.82879,0.22674
3214.75725,0.23106
3216.68572,0.22567
3218.61419,0.21699
3220.54266,0.21516
3222.47113,0.21740
3224.39960,0.21953
3226.32807,0.22095
3228.25654,0.22177
3230.18500,0.22564
3232.11347,0.23089
3234.04194,0.23077
3235.97041,0.22641
3237.89888,0.22376
3239.82735,0.22276
3241.75582,0.20729
3243.68428,0.17609
3245.61275,0.15862
3247.54122,0.17317
3249.46969,0.20576
3251.39816,0.22450
3253.32663,0.22335
3255.25510,0.21956
3257.18357,0.21512
3259.11203,0.21030
3261.04050,0.21124
3262.96897,0.21770
3264.89744,0.22225
3266.82591,0.22007
3268.75438,0.21412
3270.68285,0.21058
3272.61131,0.21378
3274.53978,0.22077
3276.46825,0.22377
3278.39672,0.21969
3280.32519,0.21410
3282.25366,0.21134
3284.18213,0.21160
3286.11060,0.21111
3288.03906,0.20813
3289.96753,0.21015
3291.89600,0.21623
3293.82447,0.21494
3295.75294,0.20950
3297.68141,0.21145
3299.60988,0.21696
3301.53834,0.22085
3303.46681,0.22484
3305.39528,0.22627
3307.32375,0.22744
3309.25222,0.22929
3311.18069,0.22319
3313.10916,0.20994
3315.03763,0.20397
3316.96609,0.20944
3318.89456,0.21685
3320.82303,0.22189
3322.75150,0.22469
3324.67997,0.22762
3326.60844,0.23207
3328.53691,0.23099
3330.46537,0.22532
3332.39384,0.22515
3334.32231,0.22979
3336.25078,0.23193
3338.17925,0.22754
3340.10772,0.21976
3342.03619,0.21537
3343.96466,0.21457
3345.89312,0.21441
3347.82159,0.21537
3349.75006,0.22033
3351.67853,0.22517
3353.60700,0.22395
3355.53547,0.21982
3357.46394,0.21642
3359.39240,0.21677
3361.32087,0.22304
3363.24934,0.23082
3365.17781,0.23118
3367.10628,0.22284
3369.03475,0.21776
3370.96322,0.22382
3372.89168,0.23359
3374.82015,0.23320
3376.74862,0.22157
3378.67709,0.21020
3380.60556,0.20717
3382.53403,0.21458
3384.46250,0.22374
3386.39097,0.22340
3388.31943,0.22010
3390.24790,0.22352
3392.17637,0.22851
3394.10484,0.23020
3396.03331,0.23020
3397.96178,0.22758
3399.89025,0.22232
3401.81871,0.21550
3403.74718,0.20867
3405.67565,0.20560
3407.60412,0.20842
3409.53259,0.21795
3411.46106,0.23097
3413.38953,0.23806
3415.31800,0.23366
3417.24646,0.22462
3419.17493,0.21849
3421.10340,0.21593
3423.03187,0.21875
3424.96034,0.22328
3426.88881,0.22390
3428.81728,0.22237
3430.74574,0.21914
3432.67421,0.21537
3434.60268,0.21385
3436.53115,0.21351
3438.45962,0.21290
3440.38809,0.20912
3442.31656,0.20218
3444.24503,0.20074
3446.17349,0.20763
3448.10196,0.21150
3450.03043,0.20677
3451.95890,0.20083
3453.88737,0.19775
3455.81584,0.20066
3457.74431,0.20921
3459.67277,0.21226
3461.60124,0.20483
3463.52971,0.19601
3465.45818,0.19648
3467.38665,0.20479
3469.31512,0.20960
3471.24359,0.20942
3473.17206,0.20935
3475.10052,0.20728
3477.02899,0.20427
3478.95746,0.20480
3480.88593,0.20460
3482.81440,0.19888
3484.74287,0.19423
3486.67134,0.19361
3488.59980,0.18949
3490.52827,0.18277
3492.45674,0.18180
3494.38521,0.18551
3496.31368,0.18805
3498.24215,0.18743
3500.17062,0.18282
3502.09909,0.17765
3504.02755,0.17986
3505.95602,0.18631
3507.88449,0.18619
3509.81296,0.18019
3511.74143,0.17612
3513.66990,0.17516
3515.59837,0.17471
3517.52683,0.17124
3519.45530,0.16945
3521.38377,0.17798
3523.31224,0.18932
3525.24071,0.19593
3527.16918,0.19810
3529.09765,0.18972
3531.02611,0.17545
3532.95458,0.17069
3534.88305,0.17510
3536.81152,0.17474
3538.73999,0.16894
3540.66846,0.17046
3542.59693,0.18093
3544.52540,0.18945
3546.45386,0.18818
3548.38233,0.18380
3550.31080,0.18251
3552.23927,0.17993
3554.16774,0.17329
3556.09621,0.16836
3558.02468,0.16811
3559.95314,0.16963
3561.88161,0.17530
3563.81008,0.19034
3565.73855,0.20746
3567.66702,0.20296
3569.59549,0.17822
3571.52396,0.16234
3573.45243,0.15967
3575.38089,0.16145
3577.30936,0.16686
3579.23783,0.17347
3581.16630,0.17465
3583.09477,0.17518
3585.02324,0.18003
3586.95171,0.18476
3588.88017,0.18062
3590.80864,0.17254
3592.73711,0.17058
3594.66558,0.17600
3596.59405,0.17966
3598.52252,0.17274
3600.45099,0.16001
3602.37946,0.15052
3604.30792,0.14744
3606.23639,0.15090
3608.16486,0.15615
3610.09333,0.15925
3612.02180,0.16590
3613.95027,0.17547
3615.87874,0.18241
3617.80720,0.18394
3619.73567,0.17633
3621.66414,0.16566
3623.59261,0.15823
3625.52108,0.15666
3627.44955,0.16784
3629.37802,0.18073
3631.30649,0.17079
3633.23495,0.15711
3635.16342,0.15192
3637.09189,0.15038
3639.02036,0.14620
3640.94883,0.14152
3642.87730,0.14209
3644.80577,0.15078
3646.73423,0.16705
3648.66270,0.17504
3650.59117,0.15870
3652.51964,0.14485
3654.44811,0.13945
3656.37658,0.13706
3658.30505,0.13581
3660.23352,0.13715
3662.16198,0.13839
3664.09045,0.13461
3666.01892,0.13227
3667.94739,0.13851
3669.87586,0.14709
3671.80433,0.14863
3673.73280,0.15473
3675.66126,0.16706
3677.58973,0.16189
3679.51820,0.14682
3681.44667,0.13730
3683.37514,0.13609
3685.30361,0.14058
3687.23208,0.14886
3689.16055,0.15807
3691.08901,0.15745
3693.01748,0.14795
3694.94595,0.13621
3696.87442,0.12597
3698.80289,0.12303
3700.73136,0.12886
3702.65983,0.13790
3704.58829,0.14382
3706.51676,0.14813
3708.44523,0.15295
3710.37370,0.15619
3712.30217,0.15335
3714.23064,0.14690
3716.15911,0.13852
3718.08757,0.13036
3720.01604,0.13260
3721.94451,0.14295
3723.87298,0.14942
3725.80145,0.14935
3727.72992,0.14473
3729.65839,0.14662
3731.58686,0.15851
3733.51532,0.17027
3735.44379,0.17060
3737.37226,0.16006
3739.30073,0.15183
3741.22920,0.15129
3743.15767,0.15806
3745.08614,0.16156
3747.01460,0.15316
3748.94307,0.15054
3750.87154,0.15825
3752.80001,0.15549
3754.72848,0.14606
3756.65695,0.14305
3758.58542,0.14403
3760.51389,0.14043
3762.44235,0.13423
3764.37082,0.13097
3766.29929,0.12844
3768.22776,0.12736
3770.15623,0.13062
3772.08470,0.13155
3774.01317,0.12719
3775.94163,0.12430
3777.87010,0.13011
3779.79857,0.13874
3781.72704,0.13758
3783.65551,0.13298
3785.58398,0.13185
3787.51245,0.13010
3789.44092,0.12625
3791.36938,0.12533
3793.29785,0.13075
3795.22632,0.14153
3797.15479,0.14822
3799.08326,0.14830
3801.01173,0.14798
3802.94020,0.13983
3804.86866,0.13245
3806.79713,0.13336
3808.72560,0.13119
3810.65407,0.12173
3812.58254,0.11363
3814.51101,0.11382
3816.43948,0.12286
3818.36795,0.13672
3820.29641,0.15305
3822.22488,0.15441
3824.15335,0.13979
3826.08182,0.12756
3828.01029,0.12435
3829.93876,0.13037
3831.86723,0.13781
3833.79569,0.14182
3835.72416,0.14654
3837.65263,0.15195
3839.58110,0.15069
3841.50957,0.14329
3843.43804,0.13704
3845.36651,0.13454
3847.29498,0.13469
3849.22344,0.13682
3851.15191,0.14330
3853.08038,0.15690
3855.00885,0.15364
3856.93732,0.13711
3858.86579,0.12672
3860.79426,0.12466
3862.72272,0.13055
3864.65119,0.13253
3866.57966,0.12404
3868.50813,0.11840
3870.43660,0.11880
3872.36507,0.11751
3874.29354,0.11440
3876.22200,0.11317
3878.15047,0.11559
3880.07894,0.11987
3882.00741,0.12119
3883.93588,0.12275
3885.86435,0.12151
3887.79282,0.11444
3889.72129,0.11590
3891.64975,0.12727
3893.57822,0.13269
3895.50669,0.13371
3897.43516,0.13818
3899.36363,0.14013
3901.29210,0.13149
3903.22057,0.12067
3905.14903,0.11666
3907.07750,0.11258
3909.00597,0.10696
3910.93444,0.10451
3912.86291,0.10597
3914.79138,0.11105
3916.71985,0.11418
3918.64832,0.10912
3920.57678,0.10565
3922.50525,0.11018
3924.43372,0.11738
3926.36219,0.12158
3928.29066,0.11891
3930.21913,0.11214
3932.14760,0.11066
3934.07606,0.11334
3936.00453,0.11301
3937.93300,0.10888
3939.86147,0.10476
3941.78994,0.10876
3943.71841,0.11690
3945.64688,0.11694
3947.57535,0.11158
3949.50381,0.10621
3951.43228,0.10155
3953.36075,0.10312
3955.28922,0.10977
3957.21769,0.10938
3959.14616,0.10303
3961.07463,0.10142
3963.00309,0.10549
3964.93156,0.10969
3966.86003,0.11101
3968.78850,0.11020
3970.71697,0.10924
3972.64544,0.11163
3974.57391,0.11345
3976.50238,0.10743
3978.43084,0.09963
3980.35931,0.09890
3982.28778,0.10265
3984.21625,0.10589
3986.14472,0.10727
3988.07319,0.10407
3990.00166,0.09903
3991.93012,0.09770
3993.85859,0.09703
3995.78706,0.09308
3997.71553,0.08744
3999.64400,0.08435
4001.57247,0.08739
4003.50094,0.09358
4005.42941,0.09679
4007.35787,0.09643
4009.28634,0.09441
4011.21481,0.09269
4013.14328,0.09064
4015.07175,0.08846
4017.00022,0.09242
4018.92869,0.09734
4020.85715,0.09769
4022.78562,0.10400
4024.71409,0.11128
4026.64256,0.10489
4028.57103,0.09245
4030.49950,0.08783
4032.42797,0.09183
4034.35644,0.09646
4036.28490,0.09373
4038.21337,0.08478
4040.14184,0.07836
4042.07031,0.07840
4043.99878,0.08342
4045.92725,0.09178
4047.85572,0.09537
4049.78418,0.08803
4051.71265,0.07877
4053.64112,0.08071
4055.56959,0.09212
4057.49806,0.09658
4059.42653,0.09136
4061.35500,0.09078
4063.28346,0.09423
4065.21193,0.09145
4067.14040,0.08557
4069.06887,0.08236
4070.99734,0.08131
4072.92581,0.08301
4074.85428,0.08685
4076.78275,0.08969
4078.71121,0.08938
4080.63968,0.08296
4082.56815,0.07231
4084.49662,0.06731
4086.42509,0.07144
4088.35356,0.07870
4090.28203,0.08686
4092.21049,0.09179
4094.13896,0.08753
4096.06743,0.08124
4097.99590,0.08186
4099.92437,0.08675
4101.85284,0.08763
4103.78131,0.08240
4105.70978,0.07802
4107.63824,0.07813
4109.56671,0.08095
4111.49518,0.08304
4113.42365,0.08402
4115.35212,0.08591
4117.28059,0.08473
4119.20906,0.07947
4121.13752,0.07312
4123.06599,0.06759
4124.99446,0.06919
4126.92293,0.07716
4128.85140,0.08040
4130.77987,0.07670
4132.70834,0.07507
4134.63681,0.07816
4136.56527,0.08077
4138.49374,0.08181
4140.42221,0.08159
4142.35068,0.08011
4144.27915,0.07952
4146.20762,0.07908
4148.13609,0.07678
4150.06455,0.07389
4151.99302,0.07077
4153.92149,0.06912
4155.84996,0.07313
4157.77843,0.08013
4159.70690,0.08511
4161.63537,0.08593
4163.56384,0.08481
4165.49230,0.08664
4167.42077,0.08456
4169.34924,0.07149
4171.27771,0.05930
4173.20618,0.05981
4175.13465,0.06455
4177.06312,0.06225
4178.99158,0.05705
4180.92005,0.05561
4182.84852,0.05873
4184.77699,0.06416
4186.70546,0.06667
4188.63393,0.06500
4190.56240,0.06242
4192.49087,0.06043
4194.41933,0.06257
4196.34780,0.06817
4198.27627,0.06824
4200.20474,0.06403
4202.13321,0.06227
4204.06168,0.05892
4205.99015,0.05475
4207.91861,0.05702
4209.84708,0.05954
4211.77555,0.05690
4213.70402,0.05781
4215.63249,0.06019
4217.56096,0.05328
4219.48943,0.04643
4221.41789,0.05242
4223.34636,0.06193
4225.27483,0.06510
4227.20330,0.06408
4229.13177,0.06129
4231.06024,0.06014
4232.98871,0.06244
4234.91718,0.06240
4236.84564,0.05582
4238.77411,0.04954
4240.70258,0.04848
4242.63105,0.05046
4244.55952,0.05552
4246.48799,0.06233
4248.41646,0.06324
4250.34492,0.05558
4252.27339,0.04841
4254.20186,0.04479
4256.13033,0.03978
4258.05880,0.03140
4259.98727,0.02451
4261.91574,0.02451
4263.84421,0.02608
4265.77267,0.02719
4267.70114,0.03279
4269.62961,0.04013
4271.55808,0.04249
4273.48655,0.04247
4275.41502,0.04864
4277.34349,0.05875
4279.27195,0.06025
4281.20042,0.04997
4283.12889,0.04265
4285.05736,0.04604
4286.98583,0.04952
4288.91430,0.04345
4290.84277,0.02849
4292.77124,0.01777
4294.69970,0.02147
4296.62817,0.02946
4298.55664,0.03149
4300.48511,0.03357
4302.41358,0.04066
4304.34205,0.04833
4306.27052,0.05186
4308.19898,0.05016
4310.12745,0.04396
4312.05592,0.03553
4313.98439,0.02901
4315.91286,0.02820
4317.84133,0.03686
4319.76980,0.05102
4321.69827,0.05883
4323.62673,0.05680
4325.55520,0.05099
4327.48367,0.04678
4329.41214,0.04173
4331.34061,0.03488
4333.26908,0.03287
4335.19755,0.03595
4337.12601,0.03896
4339.05448,0.03963
4340.98295,0.03986
4342.91142,0.04329
4344.83989,0.04133
4346.76836,0.02920
4348.69683,0.02105
4350.62530,0.01659
4352.55376,0.00904
4354.48223,0.00991
4356.41070,0.02357
4358.33917,0.03615
4360.26764,0.03707
4362.19611,0.03134
4364.12458,0.02773
4366.05304,0.02680
4367.98151,0.02227
4369.90998,0.01449
4371.83845,0.01594
4373.76692,0.02437
4375.69539,0.02846
4377.62386,0.03004
4379.55232,0.02874
4381.48079,0.02405
4383.40926,0.01726
4385.33773,0.00801
4387.26620,0.00678
4389.19467,0.01510
4391.12314,0.02106
4393.05161,0.02337
4394.98007,0.02332
4396.90854,0.02097
4398.83701,0.02186
4400.76548,0.02658
4402.69395,0.02604
4404.62242,0.01855
4406.55089,0.01727
4408.47935,0.01970
4410.40782,0.00965
4412.33629,-0.00468
4414.26476,-0.00977
4416.19323,-0.00948
4418.12170,-0.00449
4420.05017,0.00252
4421.97864,0.00597
4423.90710,0.01193
4425.83557,0.01766
4427.76404,0.01051
4429.69251,-0.00338
4431.62098,-0.00596
4433.54945,0.00468
4435.47792,0.01287
4437.40638,0.01344
4439.33485,0.01383
4441.26332,0.01054
4443.19179,0.00166
4445.12026,-0.00326
4447.04873,0.00166
4448.97720,0.01455
4450.90567,0.02649
4452.83413,0.02731
4454.76260,0.01689
4456.69107,0.00927
4458.61954,0.01161
4460.54801,0.01525
4462.47648,0.01589
4464.40495,0.01081
4466.33341,0.00147
4468.26188,-0.00137
4470.19035,0.00401
4472.11882,0.00440
4474.04729,-0.00397
4475.97576,-0.00503
4477.90423,0.00465
4479.83270,0.01195
4481.76116,0.00996
4483.68963,0.00459
4485.61810,0.00457
4487.54657,0.00925
4489.47504,0.01498
4491.40351,0.01482
4493.33198,0.00858
4495.26044,0.01156
4497.18891,0.02488
4499.11738,0.03054
4501.04585,0.02286
4502.97432,0.00752
4504.90279,-0.01274
4506.83126,-0.02918
4508.75973,-0.03187
4510.68819,-0.01883
4512.61666,0.00323
4514.54513,0.01873
4516.47360,0.02089
4518.40207,0.02052
4520.33054,0.01978
4522.25901,0.01595
4524.18747,0.01992
4526.11594,0.02360
4528.04441,0.00858
4529.97288,-0.00938
4531.90135,-0.01006
4533.82982,-0.00680
4535.75829,-0.01153
4537.68676,-0.01156
4539.61522,-0.00003
4541.54369,0.01099
4543.47216,0.01497
4545.40063,0.01570
4547.32910,0.01539
4549.25757,0.01612
4551.18604,0.01098
4553.11450,-0.00538
4555.04297,-0.01377
4556.97144,-0.00638
4558.89991,0.00076
4560.82838,0.00055
4562.75685,-0.00239
4564.68532,-0.00003
4566.61378,0.01058
4568.54225,0.01982
4570.47072,0.01686
4572.39919,0.00879
4574.32766,0.00553
4576.25613,0.01015
4578.18460,0.02047
4580.11307,0.02694
4582.04153,0.02045
4583.97000,0.00661
4585.89847,-0.00024
4587.82694,0.00029
4589.75541,0.00015
4591.68388,0.00597
4593.61235,0.01648
4595.54081,0.01383
4597.46928,-0.00246
4599.39775,-0.01023
4601.32622,0.00210
4603.25469,0.02017
4605.18316,0.02963
4607.11163,0.02537
4609.04010,0.00812
4610.96856,-0.00561
4612.89703,-0.00252
4614.82550,0.00939
4616.75397,0.01514
4618.68244,0.00721
4620.61091,-0.00387
4622.53938,0.00114
4624.46784,0.01454
4626.39631,0.01001
4628.32478,-0.00297
4630.25325,0.00102
4632.18172,0.01504
4634.11019,0.02141
4636.03866,0.01834
4637.96713,0.00544
4639.89559,-0.01085
4641.82406,-0.01539
4643.75253,-0.00076
4645.68100,0.01984
4647.60947,0.02148
4649.53794,0.00901
4651.46641,0.00915
4653.39487,0.01609
4655.32334,0.01038
4657.25181,-0.00100
4659.18028,-0.00690
4661.10875,-0.00529
4663.03722,0.00152
4664.96569,0.00581
4666.89416,0.00858
4668.82262,0.01357
4670.75109,0.01717
4672.67956,0.01587
4674.60803,0.00939
4676.53650,0.00333
4678.46497,0.00281
4680.39344,0.00213
4682.32190,-0.00355
4684.25037,-0.00687
4686.17884,-0.00182
4688.10731,0.00331
4690.03578,-0.00108
4691.96425,-0.00637
4693.89272,-0.00708
4695.82119,-0.00770
4697.74965,0.00221
4699.67812,0.01776
4701.60659,0.02065
4703.53506,0.01603
4705.46353,0.01013
4707.39200,0.00269
4709.32047,0.00047
4711.24893,0.00475
4713.17740,0.00736
4715.10587,0.00266
4717.03434,-0.00374
4718.96281,-0.00476
4720.89128,-0.00568
4722.81975,-0.00470
4724.74821,0.00387
4726.67668,0.01098
4728.60515,0.00676
4730.53362,-0.00194
4732.46209,-0.00316
4734.39056,-0.00318
4736.31903,-0.00657
4738.24750,-0.00127
4740.17596,0.00695
4742.10443,0.00652
4744.03290,0.00544
4745.96137,0.00429
4747.88984,-0.00696
4749.81831,-0.01423
4751.74678,0.00061
4753.67524,0.01735
4755.60371,0.01813
4757.53218,0.01412
4759.46065,0.00940
4761.38912,0.00205
4763.31759,-0.00450
4765.24606,-0.00317
4767.17453,0.00893
4769.10299,0.01607
4771.03146,0.01021
4772.95993,-0.00034
4774.88840,-0.00383
4776.81687,0.00579
4778.74534,0.01760
4780.67381,0.01882
4782.60227,0.00613
4784.53074,-0.01050
4786.45921,-0.01773
4788.38768,-0.01960
4790.31615,-0.01687
4792.24462,0.00211
4794.17309,0.02071
4796.10156,0.01435
4798.03002,0.00096
4799.95849,0.00076
4801.88696,0.00877
4803.81543,0.01455
4805.74390,0.01470
4807.67237,0.02019
4809.60084,0.02404
4811.52930,0.00789
4813.45777,-0.01142
4815.38624,-0.01707
4817.31471,-0.01995
4819.24318,-0.02256
4821.17165,-0.01737
4823.10012,-0.00591
4825.02859,0.00562
4826.95705,0.01379
4828.88552,0.01699
4830.81399,0.00918
4832.74246,-0.00798
4834.67093,-0.01225
4836.59940,0.00425
4838.52787,0.01377
4840.45633,0.00820
4842.38480,0.00701
4844.31327,0.01259
4846.24174,0.01946
4848.17021,0.02027
4850.09868,0.01501
4852.02715,0.01681
4853.95562,0.02730
4855.88408,0.03228
4857.81255,0.02121
4859.74102,0.01581
4861.66949,0.02988
4863.59796,0.03386
4865.52643,0.02049
4867.45490,0.00823
4869.38336,-0.00473
4871.31183,-0.01707
4873.24030,-0.01135
4875.16877,0.00261
4877.09724,0.00485
4879.02571,0.00895
4880.95418,0.01802
4882.88265,0.01606
4884.81111,0.01004
4886.73958,0.00915
4888.66805,0.00610
4890.59652,0.00150
4892.52499,0.00083
4894.45346,0.00207
4896.38193,-0.00337
4898.31039,-0.01302
4900.23886,-0.01303
4902.16733,-0.00437
4904.09580,-0.00032
4906.02427,0.00155
4907.95274,0.01363
4909.88121,0.01930
4911.80967,0.00563
4913.73814,-0.00729
4915.66661,-0.00497
4917.59508,0.00339
4919.52355,0.01225
4921.45202,0.01905
4923.38049,0.01304
4925.30896,0.00445
4927.23742,0.01089
4929.16589,0.02078
4931.09436,0.00819
4933.02283,-0.02520
4934.95130,-0.03656
4936.87977,-0.00946
4938.80824,0.01938
4940.73670,0.02521
4942.66517,0.01520
4944.59364,0.00330
4946.52211,0.00717
4948.45058,0.02645
4950.37905,0.03724
4952.30752,0.02696
4954.23599,0.00821
4956.16445,-0.00660
4958.09292,-0.01876
4960.02139,-0.02678
4961.94986,-0.02401
4963.87833,-0.01192
4965.80680,-0.00229
4967.73527,-0.00050
4969.66373,0.00239
4971.59220,0.01381
4973.52067,0.02511
4975.44914,0.02004
4977.37761,0.00408
4979.30608,-0.00487
4981.23455,-0.00795
4983.16302,-0.00583
4985.09148,0.00601
4987.01995,0.01413
4988.94842,0.01730
4990.87689,0.02346
4992.80536,0.02422
4994.73383,0.02308
4996.66230,0.02187
4998.59076,0.01312
5000.51923,0.00833
5002.44770,0.00952
5004.37617,-0.00255
5006.30464,-0.01615
5008.23311,-0.00882
5010.16158,0.00333
5012.09005,0.00736
5014.01851,0.01020
5015.94698,0.01344
5017.87545,0.02033
5019.80392,0.03591
5021.73239,0.05014
5023.66086,0.04505
5025.58933,0.02321
5027.51779,0.00732
5029.44626,0.00566
5031.37473,-0.00471
5033.30320,-0.02749
5035.23167,-0.03333
5037.16014,-0.02316
5039.08861,-0.01664
5041.01708,-0.00406
5042.94554,0.02486
5044.87401,0.04585
5046.80248,0.03533
5048.73095,0.00930
5050.65942,-0.00587
5052.58789,-0.00812
5054.51636,-0.00682
5056.44482,-0.00750
5058.37329,-0.00766
5060.30176,-0.00355
5062.23023,-0.01108
5064.15870,-0.02952
5066.08717,-0.02359
5068.01564,0.00934
5069.94410,0.02790
5071.87257,0.01570
5073.80104,-0.00627
5075.72951,-0.02593
5077.65798,-0.03461
5079.58645,-0.02421
5081.51492,-0.01156
5083.44339,0.00445
5085.37185,0.02512
5087.30032,0.02202
5089.22879,0.01097
5091.15726,0.02225
5093.08573,0.03231
5095.01420,0.02634
5096.94267,0.01888
5098.87113,0.01009
5100.79960,-0.00246
5102.72807,-0.00219
5104.65654,0.01801
5106.58501,0.04465
5108.51348,0.05565
5110.44195,0.04116
5112.37042,0.02015
5114.29888,0.00953
5116.22735,0.01061
5118.15582,0.02199
5120.08429,0.03002
5122.01276,0.01071
5123.94123,-0.02580
5125.86970,-0.03692
5127.79816,-0.02351
5129.72663,-0.01179
5131.65510,0.00521
5133.58357,0.03434
5135.51204,0.05231
5137.44051,0.03738
5139.36898,0.00793
5141.29745,0.00663
5143.22591,0.04333
5145.15438,0.07048
5147.08285,0.05902
5149.01132,0.03783
5150.93979,0.03502
5152.86826,0.04569
5154.79673,0.04614
5156.72519,0.03956
5158.65366,0.04522
5160.58213,0.05242
5162.51060,0.04619
5164.43907,0.02972
5166.36754,0.01469
5168.29601,0.01587
5170.22448,0.03594
5172.15294,0.05307
5174.08141,0.05083
5176.00988,0.03238
5177.93835,0.01836
5179.86682,0.02171
5181.79529,0.01918
5183.72376,-0.00423
5185.65222,-0.01698
5187.58069,0.00449
5189.50916,0.02487
5191.43763,0.02849
5193.36610,0.02901
5195.29457,0.01488
5197.22304,0.00187
5199.15151,0.02083
5201.07997,0.04650
5203.00844,0.05376
5204.93691,0.04756
5206.86538,0.02849
5208.79385,0.01119
5210.72232,0.01661
5212.65079,0.02759
5214.57925,0.01823
5216.50772,0.00007
5218.43619,0.00081
5220.36466,0.01577
5222.29313,0.01735
5224.22160,0.00986
5226.15007,0.03160
5228.07854,0.06840
5230.00700,0.06513
5231.93547,0.03167
5233.86394,0.02318
5235.79241,0.04098
5237.72088,0.03545
5239.64935,0.01612
5241.57782,0.02777
5243.50628,0.04911
5245.43475,0.03795
5247.36322,0.01318
5249.29169,0.01511
5251.22016,0.03983
5253.14863,0.05038
5255.07710,0.02883
5257.00556,0.00063
5258.93403,-0.01032
5260.86250,-0.01190
5262.79097,-0.01487
5264.71944,-0.01538
5266.64791,-0.01315
5268.57638,-0.01410
5270.50485,-0.01185
5272.43331,0.00071
5274.36178,0.02676
5276.29025,0.04981
5278.21872,0.04634
5280.14719,0.02280
5282.07566,0.00229
5284.00413,0.00591
5285.93259,0.03642
5287.86106,0.07207
5289.78953,0.08102
5291.71800,0.05561
5293.64647,0.02803
5295.57494,0.02124
5297.50341,0.03335
5299.43188,0.04080
5301.36034,0.04109
5303.28881,0.05511
5305.21728,0.06685
5307.14575,0.04542
5309.07422,0.00708
5311.00269,-0.00269
5312.93116,0.02894
5314.85962,0.07443
5316.78809,0.09489
5318.71656,0.09023
5320.64503,0.07420
5322.57350,0.05428
5324.50197,0.04694
5326.43044,0.04617
5328.35891,0.04268
5330.28737,0.04143
5332.21584,0.03949
5334.14431,0.03743
5336.07278,0.03520
5338.00125,0.02792
5339.92972,0.02515
5341.85819,0.03704
5343.78665,0.06057
5345.71512,0.07296
5347.64359,0.05509
5349.57206,0.03206
5351.50053,0.02020
5353.42900,0.01823
5355.35747,0.02377
5357.28594,0.02253
5359.21440,0.02679
5361.14287,0.05213
5363.07134,0.07735
5364.99981,0.08517
5366.92828,0.07813
5368.85675,0.05494
5370.78522,0.03592
5372.71368,0.05128
5374.64215,0.08232
5376.57062,0.08971
5378.49909,0.06512
5380.42756,0.03208
5382.35603,0.02573
5384.28450,0.04520
5386.21297,0.04174
5388.14143,0.00398
5390.06990,-0.02648
5391.99837,-0.02827
5393.92684,-0.01372
5395.85531,-0.00694
5397.78378,-0.01311
5399.71225,-0.01732
5401.64071,0.00035
5403.56918,0.03321
5405.49765,0.04566
5407.42612,0.03480
5409.35459,0.04355
5411.28306,0.08046
5413.21153,0.09950
5415.13999,0.08106
5417.06846,0.05716
5418.99693,0.04942
5420.92540,0.04847
5422.85387,0.03063
5424.78234,-0.00225
5426.71081,-0.00790
5428.63928,0.02804
5430.56774,0.04569
5432.49621,0.02278
5434.42468,0.00348
5436.35315,0.00732
5438.28162,0.00851
5440.21009,0.00553
5442.13856,0.00084
5444.06702,-0.00997
5445.99549,-0.00344
5447.92396,0.00925
5449.85243,0.01106
5451.78090,0.03239
5453.70937,0.07498
5455.63784,0.10159
5457.56631,0.08252
5459.49477,0.03984
5461.42324,0.00223
5463.35171,-0.02026
5465.28018,-0.02124
5467.20865,-0.01238
5469.13712,0.00373
5471.06559,0.03403
5472.99405,0.05724
5474.92252,0.05005
5476.85099,0.02914
5478.77946,0.01519
5480.70793,0.00998
5482.63640,0.02568
5484.56487,0.04886
5486.49334,0.05747
5488.42180,0.06757
5490.35027,0.09082
5492.27874,0.10650
5494.20721,0.09913
5496.13568,0.07962
5498.06415,0.06208
5499.99262,0.05483
5501.92108,0.04511
5503.84955,0.01707
5505.77802,-0.00574
5507.70649,0.00933
5509.63496,0.04407
5511.56343,0.04991
5513.49190,0.02510
5515.42037,0.00696
5517.34883,0.00385
5519.27730,0.01042
5521.20577,0.01961
5523.13424,0.01616
5525.06271,0.00030
5526.99118,-0.00303
5528.91965,0.03147
5530.84811,0.06868
5532.77658,0.05824
5534.70505,0.02828
5536.63352,0.02522
5538.56199,0.05622
5540.49046,0.09499
5542.41893,0.10673
5544.34740,0.08832
5546.27586,0.05664
5548.20433,0.03078
5550.13280,0.02829
5552.06127,0.03069
5553.98974,0.01693
5555.91821,0.00634
5557.84668,0.00427
5559.77514,-0.00800
5561.70361,-0.01810
5563.63208,-0.00680
5565.56055,0.02140
5567.48902,0.04412
5569.41749,0.05201
5571.34596,0.06276
5573.27443,0.06583
5575.20289,0.04884
5577.13136,0.04793
5579.05983,0.06769
5580.98830,0.06354
5582.91677,0.04235
5584.84524,0.05138
5586.77371,0.07638
5588.70217,0.08130
5590.63064,0.05974
5592.55911,0.02636
5594.48758,0.01587
5596.41605,0.03652
5598.34452,0.04758
5600.27299,0.02990
5602.20145,-0.00047
5604.12992,-0.01208
5606.05839,0.01564
5607.98686,0.03525
5609.91533,0.02785
5611.84380,0.04908
5613.77227,0.09343
5615.70074,0.12003
5617.62920,0.12432
5619.55767,0.10251
5621.48614,0.07229
5623.41461,0.06008
5625.34308,0.06141
5627.27155,0.06285
5629.20002,0.07036
5631.12848,0.09231
5633.05695,0.10161
5634.98542,0.07847
5636.91389,0.05423
5638.84236,0.04700
5640.77083,0.04879
5642.69930,0.05728
5644.62777,0.06628
5646.55623,0.08006
5648.48470,0.09633
5650.41317,0.09669
5652.34164,0.09418
5654.27011,0.10650
5656.19858,0.09685
5658.12705,0.04056
5660.05551,-0.00028
5661.98398,0.01606
5663.91245,0.03970
5665.84092,0.04839
5667.76939,0.05635
5669.69786,0.05491
5671.62633,0.04390
5673.55480,0.03108
5675.48326,0.00473
5677.41173,-0.02201
5679.34020,-0.00667
5681.26867,0.03396
5683.19714,0.05189
5685.12561,0.03897
5687.05408,0.01380
5688.98254,0.00232
5690.91101,0.01099
5692.83948,0.03246
5694.76795,0.06171
5696.69642,0.08359
5698.62489,0.08499
5700.55336,0.06192
5702.48183,0.03466
5704.41029,0.03932
5706.33876,0.07124
5708.26723,0.09758
5710.19570,0.09886
5712.12417,0.08185
5714.05264,0.07958
5715.98111,0.09969
5717.90957,0.11569
5719.83804,0.11451
5721.76651,0.10080
5723.69498,0.09130
5725.62345,0.10029
5727.55192,0.12201
5729.48039,0.11168
5731.40886,0.06483
5733.33732,0.06754
5735.26579,0.12070
5737.19426,0.12172
5739.12273,0.08858
5741.05120,0.08770
5742.97967,0.08317
5744.90814,0.04903
5746.83660,0.01875
5748.76507,0.01139
5750.69354,0.02556
5752.62201,0.04434
5754.55048,0.04995
5756.47895,0.06114
5758.40742,0.06614
5760.33588,0.02816
5762.26435,-0.00408
5764.19282,0.04135
5766.12129,0.09963
5768.04976,0.10239
5769.97823,0.09402
5771.90670,0.09199
5773.83517,0.07816
5775.76363,0.05917
5777.69210,0.03651
5779.62057,0.02245
5781.54904,0.03412
5783.47751,0.04074
5785.40598,0.02505
5787.33445,0.02963
5789.26291,0.07014
5791.19138,0.11093
5793.11985,0.11097
5795.04832,0.06461
5796.97679,0.02880
5798.90526,0.05961
5800.83373,0.10210
5802.76220,0.08081
5804.69066,0.04745
5806.61913,0.05504
5808.54760,0.06771
5810.47607,0.07785
5812.40454,0.09226
5814.33301,0.10182
5816.26148,0.11235
5818.18994,0.10590
5820.11841,0.07500
5822.04688,0.06452
5823.97535,0.06731
5825.90382,0.05927
5827.83229,0.05249
5829.76076,0.03194
5831.68923,0.02022
5833.61769,0.06681
5835.54616,0.11855
5837.47463,0.12834
5839.40310,0.12262
5841.33157,0.09309
5843.26004,0.06298
5845.18851,0.06401
5847.11697,0.03866
5849.04544,-0.01967
5850.97391,-0.01544
5852.90238,0.05822
5854.83085,0.11413
5856.75932,0.12281
5858.68779,0.10728
5860.61626,0.07265
5862.54472,0.04009
5864.47319,0.03398
5866.40166,0.04773
5868.33013,0.07816
5870.25860,0.11910
5872.18707,0.14580
5874.11554,0.12659
5876.04400,0.07549
5877.97247,0.07746
5879.90094,0.11428
5881.82941,0.09977
5883.75788,0.08317
5885.68635,0.10353
5887.61482,0.09702
5889.54329,0.05234
5891.47175,0.02261
5893.40022,0.02240
5895.32869,0.03129
5897.25716,0.03913
5899.18563,0.04540
5901.11410,0.03013
5903.04257,-0.01286
5904.97103,-0.03196
5906.89950,-0.00291
5908.82797,0.05791
5910.75644,0.13487
5912.68491,0.17441
5914.61338,0.15430
5916.54185,0.13485
5918.47032,0.12711
5920.39878,0.09574
5922.32725,0.05758
5924.25572,0.05246
5926.18419,0.07512
5928.11266,0.09151
5930.04113,0.09481
5931.96960,0.08220
5933.89806,0.05070
5935.82653,0.02140
5937.75500,0.01434
5939.68347,0.02284
5941.61194,0.03028
5943.54041,0.03508
5945.46888,0.03268
5947.39734,0.03049
5949.32581,0.03799
5951.25428,0.03789
5953.18275,0.05719
5955.11122,0.10468
5957.03969,0.10314
5958.96816,0.05115
5960.89663,0.03741
5962.82509,0.05129
5964.75356,0.04929
5966.68203,0.07055
5968.61050,0.14019
5970.53897,0.18716
5972.46744,0.15358
5974.39591,0.10289
5976.32437,0.07453
5978.25284,0.03957
5980.18131,0.02241
5982.10978,0.04341
5984.03825,0.07612
5985.96672,0.09287
5987.89519,0.08741
5989.82366,0.08993
5991.75212,0.12777
5993.68059,0.16293
5995.60906,0.12661
5997.53753,0.03766
5999.46600,0.00162
6001.39447,0.06501
6003.32294,0.14307
6005.25140,0.13093
6007.17987,0.08437
6009.10834,0.09435
6011.03681,0.10355
6012.96528,0.05636
6014.89375,0.00217
6016.82222,-0.00864
6018.75069,0.03471
6020.67915,0.08304
6022.60762,0.07698
6024.53609,0.03954
6026.46456,0.02590
6028.39303,0.04526
6030.32150,0.06002
6032.24997,0.04187
6034.17843,0.02213
6036.10690,0.07165
6038.03537,0.14591
6039.96384,0.15720
6041.89231,0.14739
6043.82078,0.13045
6045.74925,0.10072
6047.67772,0.09823
6049.60618,0.09557
6051.53465,0.05824
6053.46312,0.02730
6055.39159,0.04183
6057.32006,0.07877
6059.24853,0.10593
6061.17700,0.12891
6063.10546,0.13941
6065.03393,0.15052
6066.96240,0.17454
6068.89087,0.16821
6070.81934,0.11765
6072.74781,0.05964
6074.67628,0.02619
6076.60475,0.03450
6078.53321,0.05859
6080.46168,0.05566
6082.39015,0.02229
6084.31862,-0.01806
6086.24709,-0.02332
6088.17556,0.02722
6090.10403,0.09396
6092.03249,0.12629
6093.96096,0.11872
6095.88943,0.10041
6097.81790,0.07354
6099.74637,0.04825
6101.67484,0.04061
6103.60331,0.04959
6105.53177,0.07247
6107.46024,0.06357
6109.38871,0.02730
6111.31718,0.02577
6113.24565,0.02719
6115.17412,0.01597
6117.10259,0.02530
6119.03106,0.04415
6120.95952,0.04828
6122.88799,0.03305
6124.81646,0.02024
6126.74493,0.02376
6128.67340,0.03698
6130.60187,0.08808
6132.53034,0.16312
6134.45880,0.20108
6136.38727,0.18617
6138.31574,0.11004
6140.24421,0.00195
6142.17268,-0.03872
6144.10115,0.01847
6146.02962,0.06776
6147.95809,0.03907
6149.88655,-0.00685
6151.81502,-0.00910
6153.74349,0.00184
6155.67196,0.00057
6157.60043,-0.00413
6159.52890,0.00379
6161.45737,0.05891
6163.38583,0.16286
6165.31430,0.19643
6167.24277,0.11846
6169.17124,0.08610
6171.09971,0.13280
6173.02818,0.13396
6174.95665,0.09284
6176.88512,0.04517
6178.81358,-0.02897
6180.74205,-0.05153
6182.67052,0.02374
6184.59899,0.09295
6186.52746,0.10143
6188.45593,0.09203
6190.38440,0.07968
6192.31286,0.06577
6194.24133,0.02860
6196.16980,-0.06214
6198.09827,-0.08524
6200.02674,0.00291
6201.95521,0.03873
6203.88368,0.02171
6205.81215,0.04618
6207.74061,0.07506
6209.66908,0.08402
6211.59755,0.08646
6213.52602,0.07208
6215.45449,0.03794
6217.38296,0.03002
6219.31143,0.08562
6221.23989,0.16625
6223.16836,0.19425
6225.09683,0.13068
6227.02530,0.05648
6228.95377,0.05173
6230.88224,0.07266
6232.81071,0.05019
6234.73918,0.03675
6236.66764,0.07623
6238.59611,0.10367
6240.52458,0.09091
6242.45305,0.04267
6244.38152,-0.01463
6246.30999,-0.01324
6248.23846,0.02485
6250.16692,0.04408
6252.09539,0.07033
6254.02386,0.12610
6255.95233,0.16559
6257.88080,0.14465
6259.80927,0.09471
6261.73774,0.08002
6263.66621,0.10792
6265.59467,0.13250
6267.52314,0.11313
6269.45161,0.07098
6271.38008,0.07392
6273.30855,0.10841
6275.23702,0.12209
6277.16549,0.14098
6279.09395,0.14947
6281.02242,0.12351
6282.95089,0.06971
6284.87936,-0.00516
6286.80783,-0.03213
6288.73630,-0.00609
6290.66477,0.00603
6292.59323,0.01950
6294.52170,0.05642
6296.45017,0.07809
6298.37864,0.04867
6300.30711,-0.03892
6302.23558,-0.09482
6304.16405,-0.04646
6306.09252,0.01245
6308.02098,0.03764
6309.94945,0.08466
6311.87792,0.14879
6313.80639,0.19493
6315.73486,0.19735
6317.66333,0.13097
6319.59180,0.07213
6321.52026,0.08321
6323.44873,0.10762
6325.37720,0.10534
6327.30567,0.07844
6329.23414,0.05807
6331.16261,0.06022
6333.09108,0.05112
6335.01955,0.02028
6336.94801,-0.00762
6338.87648,0.01939
6340.80495,0.09909
6342.73342,0.12663
6344.66189,0.07143
6346.59036,0.05248
6348.51883,0.10727
6350.44729,0.13418
6352.37576,0.10836
6354.30423,0.07297
6356.23270,0.07900
6358.16117,0.14126
6360.08964,0.16174
6362.01811,0.08691
6363.94658,0.00150
6365.87504,-0.02323
6367.80351,0.02001
6369.73198,0.07101
6371.66045,0.05924
6373.58892,-0.01055
6375.51739,-0.04935
6377.44586,0.01009
6379.37432,0.08898
6381.30279,0.11348
6383.23126,0.13544
6385.15973,0.16486
6387.08820,0.15804
6389.01667,0.15635
6390.94514,0.19922
6392.87361,0.20330
6394.80207,0.11766
6396.73054,0.05880
6398.65901,0.06352
6400.58748,0.09414
6402.51595,0.11301
6404.44442,0.06794
6406.37289,-0.01553
6408.30135,-0.01490
6410.22982,0.05154
6412.15829,0.03472
6414.08676,-0.02702
6416.01523,-0.03060
6417.94370,-0.01340
6419.87217,-0.01139
6421.80064,-0.01723
6423.72910,-0.04710
6425.65757,-0.05381
6427.58604,-0.02206
6429.51451,-0.01796
6431.44298,0.00655
6433.37145,0.08767
6435.29992,0.11064
6437.22838,0.08292
6439.15685,0.12647
6441.08532,0.21516
6443.01379,0.23286
6444.94226,0.16503
6446.87073,0.13572
6448.79920,0.15484
6450.72766,0.13703
6452.65613,0.12209
6454.58460,0.14040
6456.51307,0.15637
6458.44154,0.15109
6460.37001,0.09187
6462.29848,0.03569
6464.22695,0.04852
6466.15541,0.09190
6468.08388,0.16424
6470.01235,0.22120
6471.94082,0.15087
6473.86929,0.02015
6475.79776,-0.07123
6477.72623,-0.16787
6479.65469,-0.24637
6481.58316,-0.18287
6483.51163,0.00821
6485.44010,0.14358
6487.36857,0.12199
6489.29704,0.07463
6491.22551,0.11821
6493.15398,0.11455
6495.08244,0.01311
6497.01091,-0.07457
6498.93938,-0.10849
6500.86785,-0.05836
6502.79632,0.05770
6504.72479,0.14262
6506.65326,0.15628
6508.58172,0.14284
6510.51019,0.12659
6512.43866,0.07330
6514.36713,0.04993
6516.29560,0.06317
6518.22407,0.00669
6520.15254,-0.06933
6522.08101,-0.06874
6524.00947,-0.05026
6525.93794,-0.07392
6527.86641,-0.06865
6529.79488,0.01806
6531.72335,0.10516
6533.65182,0.10851
6535.58029,0.09043
6537.50875,0.08510
6539.43722,0.08000
6541.36569,0.08611
6543.29416,0.05227
6545.22263,-0.00535
6547.15110,-0.03283
6549.07957,-0.01601
6551.00804,0.06124
6552.93650,0.10645
6554.86497,0.06226
6556.79344,-0.01436
6558.72191,-0.04636
6560.65038,0.04106
6562.57885,0.15113
6564.50732,0.13299
6566.43578,0.09317
6568.36425,0.14053
6570.29272,0.14036
6572.22119,0.04537
6574.14966,-0.02285
6576.07813,-0.01725
6578.00660,-0.00984
6579.93507,-0.01470
6581.86353,0.06770
6583.79200,0.16786
6585.72047,0.12040
6587.64894,0.04320
6589.57741,0.05808
6591.50588,0.10397
6593.43435,0.13794
6595.36281,0.11690
6597.29128,0.05188
6599.21975,0.04805
6601.14822,0.10407
6603.07669,0.08742
6605.00516,0.02762
6606.93363,0.08024
6608.86210,0.17545
6610.79056,0.12732
6612.71903,0.00510
6614.64750,-0.02700
6616.57597,0.01998
6618.50444,0.01550
6620.43291,-0.06167
6622.36138,-0.08697
6624.28984,-0.00509
6626.21831,0.13276
6628.14678,0.26403
6630.07525,0.28235
6632.00372,0.17860
6633.93219,0.10034
6635.86066,0.08838
6637.78912,0.04927
6639.71759,0.01110
6641.64606,0.07217
6643.57453,0.17692
6645.50300,0.17196
6647.43147,0.08681
6649.35994,0.08624
6651.28841,0.15059
6653.21687,0.14975
6655.14534,0.07347
6657.07381,0.03109
6659.00228,0.03725
6660.93075,0.00898
6662.85922,-0.02370
6664.78769,0.00858
6666.71615,0.07514
6668.64462,0.11117
6670.57309,0.10004
6672.50156,0.07125
6674.43003,0.07748
6676.35850,0.06814
6678.28697,0.04413
6680.21544,0.09204
6682.14390,0.13593
6684.07237,0.11022
6686.00084,0.13469
6687.92931,0.27093
6689.85778,0.35180
6691.78625,0.26693
6693.71472,0.16382
6695.64318,0.13473
6697.57165,0.12847
6699.50012,0.12005
6701.42859,0.11871
6703.35706,0.10225
6705.28553,0.08408
6707.21400,0.08140
6709.14247,0.06898
6711.07093,0.01302
6712.99940,-0.03068
6714.92787,0.03365
6716.85634,0.17865
6718.78481,0.25315
6720.71328,0.15786
6722.64175,0.00779
6724.57021,-0.06773
6726.49868,-0.06990
6728.42715,0.01920
6730.35562,0.16266
6732.28409,0.26404
6734.21256,0.29068
6736.14103,0.18663
6738.06950,0.02066
6739.99796,-0.07563
6741.92643,-0.11565
6743.85490,-0.14746
6745.78337,-0.16123
6747.71184,-0.07217
6749.64031,0.13258
6751.56878,0.26518
6753.49724,0.21153
6755.42571,0.08925
6757.35418,0.08681
6759.28265,0.17528
6761.21112,0.12943
6763.13959,-0.02455
6765.06806,-0.04035
6766.99653,0.11711
6768.92499,0.22786
6770.85346,0.10759
6772.78193,-0.09470
6774.71040,-0.13001
6776.63887,-0.02854
6778.56734,0.02947
6780.49581,0.07430
6782.42427,0.14592
6784.35274,0.18172
6786.28121,0.17233
6788.20968,0.13798
6790.13815,0.10937
6792.06662,0.09840
6793.99509,0.10667
6795.92355,0.15288
6797.85202,0.19811
6799.78049,0.18059
6801.70896,0.09705
6803.63743,0.01236
6805.56590,-0.03871
6807.49437,-0.06232
6809.42284,-0.09949
6811.35130,-0.19246
6813.27977,-0.28073
6815.20824,-0.22745
6817.13671,-0.03513
6819.06518,0.09956
6820.99365,0.13270
6822.92212,0.12625
6824.85058,0.09399
6826.77905,0.01969
6828.70752,-0.07908
6830.63599,-0.11854
6832.56446,-0.08949
6834.49293,-0.04156
6836.42140,0.05004
6838.34987,0.12653
6840.27833,0.07762
6842.20680,0.02290
6844.13527,0.09473
6846.06374,0.15255
6847.99221,0.08301
6849.92068,0.06786
6851.84915,0.13732
6853.77761,0.14262
6855.70608,0.17580
6857.63455,0.25797
6859.56302,0.22008
6861.49149,0.06941
6863.41996,-0.06240
6865.34843,-0.12420
6867.27690,-0.11092
6869.20536,-0.04683
6871.13383,0.03242
6873.06230,0.14592
6874.99077,0.22535
6876.91924,0.24749
6878.84771,0.29054
6880.77618,0.27517
6882.70464,0.12740
6884.63311,-0.02532
6886.56158,-0.07215
6888.49005,0.04139
6890.41852,0.23143
6892.34699,0.28772
6894.27546,0.19880
6896.20393,0.13256
6898.13239,0.17918
6900.06086,0.27790
6901.98933,0.29022
6903.91780,0.20297
6905.84627,0.14538
6907.77474,0.12703
6909.70321,0.06649
6911.63167,0.08687
6913.56014,0.23888
6915.48861,0.31505
6917.41708,0.25950
6919.34555,0.07726
6921.27402,-0.12871
6923.20249,-0.15429
6925.13096,-0.05882
6927.05942,0.04347
6928.98789,0.06914
6930.91636,0.03749
6932.84483,0.03977
6934.77330,0.02708
6936.70177,0.04261
6938.63024,0.11003
6940.55870,0.07838
6942.48717,-0.04547
6944.41564,-0.03246
6946.34411,0.11772
6948.27258,0.18496
6950.20105,0.15429
6952.12952,0.19284
6954.05799,0.29276
6955.98645,0.26930
6957.91492,0.12805
6959.84339,0.00476
6961.77186,-0.15478
6963.70033,-0.30640
6965.62880,-0.30607
6967.55727,-0.17006
6969.48573,-0.00403
6971.41420,0.15182
6973.34267,0.31134
6975.27114,0.39397
6977.19961,0.30925
6979.12808,0.14590
6981.05655,0.03650
6982.98501,0.06411
6984.91348,0.17108
6986.84195,0.16632
6988.77042,0.08043
6990.69889,0.08850
6992.62736,0.11558
6994.55583,0.05433
6996.48430,-0.04493
6998.41276,-0.10016
7000.34123,-0.06329
7002.26970,0.00270
7004.19817,0.01497
7006.12664,0.01854
7008.05511,0.05767
7009.98358,0.08136
7011.91204,0.06832
7013.84051,0.01310
7015.76898,-0.10166
7017.69745,-0.16142
7019.62592,-0.05886
7021.55439,0.00143
7023.48286,-0.14988
7025.41133,-0.33372
7027.33979,-0.30667
7029.26826,-0.00144
7031.19673,0.24344
7033.12520,0.23054
7035.05367,0.15606
7036.98214,0.17176
7038.91061,0.24418
7040.83907,0.30140
7042.76754,0.27102
7044.69601,0.16075
7046.62448,0.04419
7048.55295,-0.00249
7050.48142,0.04449
7052.40989,0.06732
7054.33836,0.03394
7056.26682,-0.00220
7058.19529,-0.10656
7060.12376,-0.13961
7062.05223,0.01719
7063.98070,0.12207
7065.90917,0.05151
7067.83764,-0.06104
7069.76610,-0.10760
7071.69457,-0.04093
7073.62304,0.00033
7075.55151,0.01705
7077.47998,0.13519
7079.40845,0.22860
7081.33692,0.17804
7083.26539,0.15495
7085.19385,0.18197
7087.12232,0.16796
7089.05079,0.14384
7090.97926,0.17274
7092.90773,0.15448
7094.83620,-0.00675
7096.76467,-0.14985
7098.69313,-0.04796
7100.62160,0.16929
7102.55007,0.23755
7104.47854,0.25855
7106.40701,0.23700
7108.33548,-0.03355
7110.26395,-0.26397
7112.19242,-0.20113
7114.12088,-0.10638
7116.04935,-0.10981
7117.97782,-0.07628
7119.90629,-0.08835
7121.83476,-0.17237
7123.76323,-0.17337
7125.69170,-0.04428
7127.62016,0.13339
7129.54863,0.19178
7131.47710,0.10974
7133.40557,0.01671
7135.33404,-0.04004
7137.26251,-0.01833
7139.19098,0.13551
7141.11944,0.23837
7143.04791,0.17129
7144.97638,0.05518
7146.90485,0.01307
7148.83332,0.09718
7150.76179,0.18489
7152.69026,0.15314
7154.61873,0.10044
7156.54719,0.09367
7158.47566,0.09505
7160.40413,0.10839
7162.33260,0.09111
7164.26107,0.03765
7166.18954,-0.05869
7168.11801,-0.21179
7170.04647,-0.32028
7171.97494,-0.24557
7173.90341,-0.04585
7175.83188,0.09883
7177.76035,0.11814
7179.68882,0.14682
7181.61729,0.31153
7183.54576,0.41568
7185.47422,0.31530
7187.40269,0.24695
7189.33116,0.16365
7191.25963,-0.04272
7193.18810,-0.13560
7195.11657,0.03528
7197.04504,0.32942
7198.97350,0.49513
7200.90197,0.44546
7202.83044,0.38197
7204.75891,0.33247
7206.68738,0.10703
7208.61585,0.01166
7210.54432,0.11192
7212.47279,0.14066
7214.40125,0.06355
7216.32972,-0.01052
7218.25819,-0.14044
7220.18666,-0.20280
7222.11513,-0.04722
7224.04360,0.16216
7225.97207,0.18056
7227.90053,0.01258
7229.82900,-0.06183
7231.75747,0.11651
7233.68594,0.25058
7235.61441,0.20694
7237.54288,0.18868
7239.47135,0.26771
7241.39982,0.39847
7243.32828,0.40842
7245.25675,0.20633
7247.18522,0.15228
7249.11369,0.31072
7251.04216,0.43566
7252.97063,0.41643
7254.89910,0.30157
7256.82756,0.10645
7258.75603,-0.10731
7260.68450,-0.06982
7262.61297,0.27305
7264.54144,0.50006
7266.46991,0.46486
7268.39838,0.33356
7270.32685,0.19838
7272.25531,0.10411
7274.18378,0.14492
7276.11225,0.23454
7278.04072,0.25661
7279.96919,0.24725
7281.89766,0.22826
7283.82613,0.11234
7285.75459,-0.00184
7287.68306,0.02089
7289.61153,0.12556
7291.54000,0.14978
7293.46847,0.00765
7295.39694,-0.17469
7297.32541,-0.19360
7299.25387,-0.03575
7301.18234,0.12089
7303.11081,0.18234
7305.03928,0.26282
7306.96775,0.39154
7308.89622,0.34508
7310.82469,0.10430
7312.75316,-0.04868
7314.68162,-0.11720
7316.61009,-0.23498
7318.53856,-0.35688
7320.46703,-0.34533
7322.39550,-0.17096
7324.32397,0.07517
7326.25244,0.27180
7328.18090,0.35119
7330.10937,0.32112
7332.03784,0.23816
7333.96631,0.06822
7335.89478,-0.11321
7337.82325,-0.27614
7339.75172,-0.28626
7341.68019,-0.03519
7343.60865,0.08989
7345.53712,0.05523
7347.46559,0.01562
7349.39406,0.03542
7351.32253,0.04980
7353.25100,0.00051
7355.17947,-0.01841
7357.10793,0.17957
7359.03640,0.53835
7360.96487,0.61976
7362.89334,0.35771
7364.82181,0.18555
7366.75028,0.27009
7368.67875,0.27247
7370.60722,0.18402
7372.53568,0.23014
7374.46415,0.35144
7376.39262,0.40567
7378.32109,0.33103
7380.24956,0.18420
7382.17803,0.09878
7384.10650,0.09666
7386.03496,0.11349
7387.96343,0.16602
7389.89190,0.14420
7391.82037,0.02528
7393.74884,0.02901
7395.67731,0.13237
7397.60578,0.05331
7399.53425,-0.12886
7401.46271,-0.24081
7403.39118,-0.34305
7405.31965,-0.38288
7407.24812,-0.27477
7409.17659,-0.17871
7411.10506,-0.09089
7413.03353,0.10329
7414.96199,0.30619
7416.89046,0.33925
7418.81893,0.23394
7420.74740,0.28559
7422.67587,0.47257
7424.60434,0.58777
7426.53281,0.60302
7428.46128,0.57188
7430.38974,0.44100
7432.31821,0.26778
7434.24668,0.16993
7436.17515,0.01905
7438.10362,-0.18036
7440.03209,-0.21003
7441.96056,-0.22306
7443.88902,-0.26805
7445.81749,-0.21222
7447.74596,-0.19803
7449.67443,-0.14747
7451.60290,0.16637
7453.53137,0.39270
7455.45984,0.29227
7457.38831,0.13201
7459.31677,0.01413
7461.24524,-0.07872
7463.17371,-0.12384
7465.10218,-0.21413
7467.03065,-0.24399
7468.95912,-0.14415
7470.88759,-0.10547
7472.81605,-0.16627
7474.74452,-0.11954
7476.67299,0.10118
7478.60146,0.37294
7480.52993,0.60570
7482.45840,0.62754
7484.38687,0.30571
7486.31533,-0.11970
7488.24380,-0.23614
7490.17227,-0.00087
7492.10074,0.12230
7494.02921,0.09493
7495.95768,0.08471
7497.88615,-0.01772
