399.19301,2.49330
401.12148,0.33712
403.04995,0.08116
404.97842,-0.06364
406.90689,0.00192
408.83536,0.20684
410.76382,0.30922
412.69229,0.20926
414.62076,0.05255
416.54923,-0.02137
418.47770,-0.01193
420.40617,0.01330
422.33464,0.07395
424.26311,0.11555
426.19157,0.05032
428.12004,-0.06796
430.04851,-0.12951
431.97698,0.04265
433.90545,0.28601
435.83392,0.30077
437.76239,0.10574
439.69085,-0.08377
441.61932,-0.04437
443.54779,0.14249
445.47626,0.17448
447.40473,0.08674
449.33320,0.01132
451.26167,0.02765
453.19013,0.11109
455.11860,0.15486
457.04707,0.14345
458.97554,0.15528
460.90401,0.18847
462.83248,0.14226
464.76095,0.05464
466.68942,0.01246
468.61788,0.04266
470.54635,0.10248
472.47482,0.15246
474.40329,0.09655
476.33176,0.03963
478.26023,0.07643
480.18870,0.10217
482.11716,0.11629
484.04563,0.18044
485.97410,0.22106
487.90257,0.17947
489.83104,0.14280
491.75951,0.11106
493.68798,0.05621
495.61645,0.05359
497.54491,0.07181
499.47338,0.05628
501.40185,0.06836
503.33032,0.10040
505.25879,0.06689
507.18726,-0.01091
509.11573,-0.05497
511.04419,-0.05449
512.97266,-0.00733
514.90113,0.04325
516.82960,0.04747
518.75807,0.03973
520.68654,0.05189
522.61501,0.07070
524.54348,0.07863
526.47194,0.07672
528.40041,0.06901
530.32888,0.06044
532.25735,0.06506
534.18582,0.07736
536.11429,0.06751
538.04276,0.05609
539.97122,0.03851
541.89969,-0.01364
543.82816,-0.05225
545.75663,-0.04267
547.68510,0.01233
549.61357,0.17989
551.54204,0.86399
553.47051,1.75448
555.39897,1.60841
557.32744,0.64784
559.25591,0.14096
561.18438,0.10033
563.11285,0.11831
565.04132,0.12912
566.96979,0.11625
568.89825,0.10596
570.82672,0.11053
572.75519,0.11840
574.68366,0.12435
576.61213,0.12348
578.54060,0.09842
580.46907,0.06719
582.39754,0.05945
584.32600,0.07721
586.25447,0.10555
588.18294,0.12684
590.11141,0.14684
592.03988,0.16665
593.96835,0.15235
595.89682,0.09671
597.82528,0.06090
599.75375,0.06432
601.68222,0.06428
603.61069,0.03863
605.53916,0.01851
607.46763,0.03260
609.39610,0.05078
611.32456,0.06366
613.25303,0.08728
615.18150,0.10608
617.10997,0.09515
619.03844,0.06415
620.96691,0.03653
622.89538,0.01506
624.82385,0.00844
626.75231,0.01738
628.68078,0.03940
630.60925,0.08053
632.53772,0.12291
634.46619,0.14542
636.39466,0.14954
638.32313,0.13804
640.25159,0.11702
642.18006,0.09997
644.10853,0.09092
646.03700,0.08363
647.96547,0.08058
649.89394,0.08892
651.82241,0.09927
653.75088,0.09515
655.67934,0.06735
657.60781,0.04389
659.53628,0.05457
661.46475,0.07200
663.39322,0.07577
665.32169,0.08134
667.25016,0.09305
669.17862,0.10511
671.10709,0.10995
673.03556,0.09206
674.96403,0.06854
676.89250,0.06627
678.82097,0.07167
680.74944,0.07847
682.67791,0.08961
684.60637,0.10117
686.53484,0.11138
688.46331,0.11372
690.39178,0.10984
692.32025,0.10502
694.24872,0.10314
696.17719,0.10707
698.10565,0.10560
700.03412,0.10085
701.96259,0.10547
703.89106,0.10341
705.81953,0.09237
707.74800,0.09461
709.67647,0.11450
711.60494,0.14186
713.53340,0.14991
715.46187,0.12853
717.39034,0.10484
719.31881,0.09367
721.24728,0.09454
723.17575,0.10197
725.10422,0.10737
727.03268,0.10949
728.96115,0.10802
730.88962,0.10462
732.81809,0.10158
734.74656,0.10263
736.67503,0.10372
738.60350,0.09837
740.53197,0.09633
742.46043,0.10171
744.38890,0.11061
746.31737,0.11693
748.24584,0.11414
750.17431,0.11062
752.10278,0.11568
754.03125,0.11620
755.95971,0.10040
757.88818,0.08053
759.81665,0.06969
761.74512,0.07679
763.67359,0.09631
765.60206,0.10777
767.53053,0.10881
769.45900,0.10761
771.38746,0.10629
773.31593,0.10542
775.24440,0.10488
777.17287,0.10463
779.10134,0.10746
781.02981,0.11422
782.95828,0.12095
784.88674,0.12109
786.81521,0.11215
788.74368,0.10782
790.67215,0.12070
792.60062,0.13010
794.52909,0.11661
796.45756,0.10502
798.38602,0.11041
800.31449,0.11360
802.24296,0.11140
804.17143,0.11803
806.09990,0.13049
808.02837,0.13154
809.95684,0.11328
811.88531,0.09060
813.81377,0.08016
815.74224,0.07944
817.67071,0.09330
819.59918,0.12106
821.52765,0.13225
823.45612,0.11911
825.38459,0.11489
827.31305,0.12923
829.24152,0.12708
831.16999,0.10058
833.09846,0.08551
835.02693,0.09777
836.95540,0.11456
838.88387,0.12158
840.81234,0.12321
842.74080,0.12288
844.66927,0.12049
846.59774,0.10854
848.52621,0.09209
850.45468,0.09096
852.38315,0.10163
854.31162,0.11241
856.24008,0.12632
858.16855,0.13508
860.09702,0.12677
862.02549,0.11404
863.95396,0.12032
865.88243,0.13857
867.81090,0.13420
869.73937,0.11037
871.66783,0.10259
873.59630,0.11016
875.52477,0.11165
877.45324,0.11067
879.38171,0.11814
881.31018,0.12315
883.23865,0.11843
885.16711,0.11370
887.09558,0.11012
889.02405,0.11193
890.95252,0.11525
892.88099,0.10634
894.80946,0.10004
896.73793,0.10748
898.66640,0.11863
900.59486,0.12124
902.52333,0.10662
904.45180,0.09741
906.38027,0.11299
908.30874,0.12892
910.23721,0.12947
912.16568,0.12893
914.09414,0.13142
916.02261,0.12716
917.95108,0.11529
919.87955,0.10166
921.80802,0.08833
923.73649,0.07725
925.66496,0.07608
927.59343,0.09114
929.52189,0.10926
931.45036,0.11386
933.37883,0.11234
935.30730,0.10786
937.23577,0.09867
939.16424,0.09941
941.09271,0.10939
943.02117,0.11768
944.94964,0.12569
946.87811,0.12535
948.80658,0.11124
950.73505,0.10321
952.66352,0.11063
954.59199,0.11724
956.52045,0.11785
958.44892,0.12045
960.37739,0.12294
962.30586,0.11881
964.23433,0.11256
966.16280,0.11554
968.09127,0.11938
970.01974,0.11657
971.94820,0.12125
973.87667,0.12914
975.80514,0.12431
977.73361,0.11543
979.66208,0.11235
981.59055,0.11068
983.51902,0.11380
985.44748,0.12071
987.37595,0.11990
989.30442,0.11367
991.23289,0.11320
993.16136,0.11481
995.08983,0.10709
997.01830,0.10454
998.94677,0.11848
1000.87523,0.12775
1002.80370,0.12521
1004.73217,0.12294
1006.66064,0.11978
1008.58911,0.11309
1010.51758,0.10974
1012.44605,0.10893
1014.37451,0.10567
1016.30298,0.10813
1018.23145,0.12505
1020.15992,0.14197
1022.08839,0.14444
1024.01686,0.13584
1025.94533,0.10815
1027.87380,0.06877
1029.80226,0.05802
1031.73073,0.08290
1033.65920,0.11038
1035.58767,0.12434
1037.51614,0.13371
1039.44461,0.14739
1041.37308,0.15769
1043.30154,0.15388
1045.23001,0.14413
1047.15848,0.13666
1049.08695,0.13191
1051.01542,0.13449
1052.94389,0.14186
1054.87236,0.14486
1056.80083,0.14330
1058.72929,0.14385
1060.65776,0.14586
1062.58623,0.14332
1064.51470,0.13816
1066.44317,0.13550
1068.37164,0.13227
1070.30011,0.12680
1072.22857,0.12322
1074.15704,0.12427
1076.08551,0.12746
1078.01398,0.12659
1079.94245,0.12391
1081.87092,0.12668
1083.79939,0.13820
1085.72786,0.15073
1087.65632,0.15395
1089.58479,0.15190
1091.51326,0.14274
1093.44173,0.12509
1095.37020,0.11689
1097.29867,0.12127
1099.22714,0.11997
1101.15560,0.11516
1103.08407,0.12019
1105.01254,0.13213
1106.94101,0.14329
1108.86948,0.14432
1110.79795,0.13689
1112.72642,0.13502
1114.65489,0.13695
1116.58335,0.13710
1118.51182,0.13883
1120.44029,0.14269
1122.36876,0.14918
1124.29723,0.15583
1126.22570,0.15422
1128.15417,0.14654
1130.08263,0.14269
1132.01110,0.14124
1133.93957,0.13680
1135.86804,0.12867
1137.79651,0.12095
1139.72498,0.11896
1141.65345,0.12163
1143.58191,0.12382
1145.51038,0.12078
1147.43885,0.11768
1149.36732,0.12027
1151.29579,0.12283
1153.22426,0.12701
1155.15273,0.13443
1157.08120,0.13727
1159.00966,0.13719
1160.93813,0.13772
1162.86660,0.13545
1164.79507,0.13164
1166.72354,0.13052
1168.65201,0.13373
1170.58048,0.13866
1172.50894,0.14382
1174.43741,0.15077
1176.36588,0.15656
1178.29435,0.15626
1180.22282,0.14848
1182.15129,0.13772
1184.07976,0.13063
1186.00823,0.13157
1187.93669,0.13995
1189.86516,0.14658
1191.79363,0.14340
1193.72210,0.13606
1195.65057,0.13538
1197.57904,0.14034
1199.50751,0.14534
1201.43597,0.14868
1203.36444,0.15048
1205.29291,0.15090
1207.22138,0.14690
1209.14985,0.14112
1211.07832,0.13814
1213.00679,0.13809
1214.93526,0.14357
1216.86372,0.15242
1218.79219,0.15436
1220.72066,0.14619
1222.64913,0.13778
1224.57760,0.13805
1226.50607,0.14344
1228.43454,0.14624
1230.36300,0.14771
1232.29147,0.15165
1234.21994,0.15415
1236.14841,0.15054
1238.07688,0.14449
1240.00535,0.14294
1241.93382,0.14314
1243.86229,0.14018
1245.79075,0.13986
1247.71922,0.14593
1249.64769,0.15054
1251.57616,0.14784
1253.50463,0.14262
1255.43310,0.14169
1257.36157,0.14506
1259.29003,0.14637
1261.21850,0.14374
1263.14697,0.14235
1265.07544,0.14202
1267.00391,0.14070
1268.93238,0.14210
1270.86085,0.14453
1272.78932,0.14315
1274.71778,0.14258
1276.64625,0.14712
1278.57472,0.15209
1280.50319,0.15514
1282.43166,0.15909
1284.36013,0.16037
1286.28860,0.15453
1288.21706,0.14687
1290.14553,0.14459
1292.07400,0.14823
1294.00247,0.15126
1295.93094,0.14780
1297.85941,0.13976
1299.78788,0.13424
1301.71634,0.13090
1303.64481,0.12528
1305.57328,0.12744
1307.50175,0.14119
1309.43022,0.15247
1311.35869,0.15835
1313.28716,0.16346
1315.21563,0.16575
1317.14409,0.16490
1319.07256,0.16152
1321.00103,0.15570
1322.92950,0.15279
1324.85797,0.15568
1326.78644,0.15863
1328.71491,0.15728
1330.64337,0.15516
1332.57184,0.15728
1334.50031,0.16260
1336.42878,0.16752
1338.35725,0.17075
1340.28572,0.16674
1342.21419,0.15434
1344.14266,0.14392
1346.07112,0.14045
1347.99959,0.14341
1349.92806,0.15019
1351.85653,0.15421
1353.78500,0.15432
1355.71347,0.15310
1357.64194,0.15225
1359.57040,0.15477
1361.49887,0.15812
1363.42734,0.15841
1365.35581,0.16132
1367.28428,0.16565
1369.21275,0.16117
1371.14122,0.15519
1373.06969,0.16248
1374.99815,0.17305
1376.92662,0.17208
1378.85509,0.16687
1380.78356,0.16207
1382.71203,0.15672
1384.64050,0.15676
1386.56897,0.16394
1388.49743,0.16619
1390.42590,0.16437
1392.35437,0.16991
1394.28284,0.17972
1396.21131,0.18102
1398.13978,0.17185
1400.06825,0.16291
1401.99672,0.16223
1403.92518,0.16587
1405.85365,0.16831
1407.78212,0.17037
1409.71059,0.17099
1411.63906,0.16645
1413.56753,0.16262
1415.49600,0.16937
1417.42446,0.18356
1419.35293,0.18751
1421.28140,0.18383
1423.20987,0.18551
1425.13834,0.18098
1427.06681,0.16952
1428.99528,0.16495
1430.92375,0.16668
1432.85221,0.16882
1434.78068,0.17437
1436.70915,0.17664
1438.63762,0.16756
1440.56609,0.16154
1442.49456,0.16342
1444.42303,0.16989
1446.35149,0.17863
1448.27996,0.18272
1450.20843,0.17852
1452.13690,0.17664
1454.06537,0.18779
1455.99384,0.21524
1457.92231,0.22645
1459.85077,0.20173
1461.77924,0.18435
1463.70771,0.17947
1465.63618,0.17801
1467.56465,0.17763
1469.49312,0.18388
1471.42159,0.19846
1473.35006,0.21002
1475.27852,0.20491
1477.20699,0.19390
1479.13546,0.18655
1481.06393,0.18149
1482.99240,0.17467
1484.92087,0.17408
1486.84934,0.18678
1488.77780,0.19911
1490.70627,0.19265
1492.63474,0.18358
1494.56321,0.18768
1496.49168,0.20023
1498.42015,0.20140
1500.34862,0.19268
1502.27709,0.19088
1504.20555,0.20121
1506.13402,0.22357
1508.06249,0.22478
1509.99096,0.20524
1511.91943,0.19530
1513.84790,0.19685
1515.77637,0.20527
1517.70483,0.21088
1519.63330,0.21472
1521.56177,0.22131
1523.49024,0.21853
1525.41871,0.20901
1527.34718,0.20073
1529.27565,0.19941
1531.20412,0.20796
1533.13258,0.21602
1535.06105,0.21038
1536.98952,0.21065
1538.91799,0.23852
1540.84646,0.26918
1542.77493,0.24728
1544.70340,0.21745
1546.63186,0.19999
1548.56033,0.19599
1550.48880,0.19968
1552.41727,0.20437
1554.34574,0.21387
1556.27421,0.23310
1558.20268,0.25039
1560.13115,0.22100
1562.05961,0.19400
1563.98808,0.18774
1565.91655,0.19152
1567.84502,0.20123
1569.77349,0.20567
1571.70196,0.19756
1573.63043,0.19483
1575.55889,0.20210
1577.48736,0.19885
1579.41583,0.18588
1581.34430,0.17867
1583.27277,0.17699
1585.20124,0.17828
1587.12971,0.17975
1589.05818,0.17911
1590.98664,0.18008
1592.91511,0.18364
1594.84358,0.18325
1596.77205,0.17823
1598.70052,0.17538
1600.62899,0.17721
1602.55746,0.18059
1604.48592,0.18259
1606.41439,0.18362
1608.34286,0.18300
1610.27133,0.18000
1612.19980,0.18193
1614.12827,0.19535
1616.05674,0.20974
1617.98521,0.20212
1619.91367,0.19316
1621.84214,0.20089
1623.77061,0.20953
1625.69908,0.20677
1627.62755,0.20216
1629.55602,0.19435
1631.48449,0.19009
1633.41295,0.20362
1635.34142,0.22995
1637.26989,0.22590
1639.19836,0.20063
1641.12683,0.18603
1643.05530,0.18980
1644.98377,0.21313
1646.91223,0.23717
1648.84070,0.23181
1650.76917,0.22831
1652.69764,0.23895
1654.62611,0.22738
1656.55458,0.20681
1658.48305,0.19389
1660.41152,0.18694
1662.33998,0.18643
1664.26845,0.18912
1666.19692,0.19711
1668.12539,0.21452
1670.05386,0.22558
1671.98233,0.21599
1673.91080,0.20633
1675.83926,0.20074
1677.76773,0.19752
1679.69620,0.20386
1681.62467,0.22210
1683.55314,0.24233
1685.48161,0.23483
1687.41008,0.21761
1689.33855,0.20853
1691.26701,0.20026
1693.19548,0.19797
1695.12395,0.21086
1697.05242,0.23099
1698.98089,0.23824
1700.90936,0.22578
1702.83783,0.21693
1704.76629,0.21859
1706.69476,0.20962
1708.62323,0.19376
1710.55170,0.18968
1712.48017,0.19626
1714.40864,0.20917
1716.33711,0.22645
1718.26558,0.22440
1720.19404,0.20503
1722.12251,0.19387
1724.05098,0.19026
1725.97945,0.18868
1727.90792,0.19007
1729.83639,0.19714
1731.76486,0.20924
1733.69332,0.21372
1735.62179,0.19966
1737.55026,0.19468
1739.47873,0.20446
1741.40720,0.21221
1743.33567,0.20978
1745.26414,0.20730
1747.19261,0.21085
1749.12107,0.21292
1751.04954,0.20394
1752.97801,0.19284
1754.90648,0.19025
1756.83495,0.19169
1758.76342,0.18839
1760.69189,0.18443
1762.62035,0.18283
1764.54882,0.18033
1766.47729,0.17929
1768.40576,0.18242
1770.33423,0.19331
1772.26270,0.20663
1774.19117,0.20373
1776.11964,0.19444
1778.04810,0.19271
1779.97657,0.19498
1781.90504,0.19381
1783.83351,0.19014
1785.76198,0.18518
1787.69045,0.18252
1789.61892,0.19070
1791.54738,0.20584
1793.47585,0.20740
1795.40432,0.19714
1797.33279,0.19032
1799.26126,0.18973
1801.18973,0.19054
1803.11820,0.18509
1805.04666,0.17771
1806.97513,0.17842
1808.90360,0.18681
1810.83207,0.19360
1812.76054,0.19187
1814.68901,0.18576
1816.61748,0.18025
1818.54595,0.17901
1820.47441,0.18603
1822.40288,0.19458
1824.33135,0.19877
1826.25982,0.19990
1828.18829,0.19769
1830.11676,0.19394
1832.04523,0.19135
1833.97369,0.18997
1835.90216,0.18931
1837.83063,0.18872
1839.75910,0.18978
1841.68757,0.19581
1843.61604,0.20363
1845.54451,0.20220
1847.47298,0.19587
1849.40144,0.19126
1851.32991,0.18582
1853.25838,0.18220
1855.18685,0.18262
1857.11532,0.18349
1859.04379,0.18358
1860.97226,0.18327
1862.90072,0.18275
1864.82919,0.18629
1866.75766,0.19659
1868.68613,0.20428
1870.61460,0.19807
1872.54307,0.18765
1874.47154,0.18212
1876.40001,0.18056
1878.32847,0.18071
1880.25694,0.18350
1882.18541,0.18794
1884.11388,0.18926
1886.04235,0.18795
1887.97082,0.18798
1889.89929,0.18882
1891.82775,0.18958
1893.75622,0.19046
1895.68469,0.18835
1897.61316,0.18241
1899.54163,0.17810
1901.47010,0.17898
1903.39857,0.18354
1905.32704,0.18881
1907.25550,0.19246
1909.18397,0.19139
1911.11244,0.18615
1913.04091,0.18299
1914.96938,0.18591
1916.89785,0.19146
1918.82632,0.19264
1920.75478,0.19292
1922.68325,0.19539
1924.61172,0.19273
1926.54019,0.18640
1928.46866,0.18257
1930.39713,0.18117
1932.32560,0.18144
1934.25407,0.18248
1936.18253,0.18313
1938.11100,0.18535
1940.03947,0.18949
1941.96794,0.19143
1943.89641,0.18985
1945.82488,0.18988
1947.75335,0.19122
1949.68181,0.18842
1951.61028,0.18454
1953.53875,0.18518
1955.46722,0.18843
1957.39569,0.19047
1959.32416,0.18912
1961.25263,0.18653
1963.18110,0.18698
1965.10956,0.19007
1967.03803,0.19289
1968.96650,0.19342
1970.89497,0.19108
1972.82344,0.18763
1974.75191,0.18730
1976.68038,0.19080
1978.60884,0.19319
1980.53731,0.19283
1982.46578,0.19124
1984.39425,0.18796
1986.32272,0.18429
1988.25119,0.18412
1990.17966,0.18934
1992.10812,0.19463
1994.03659,0.19293
1995.96506,0.18779
1997.89353,0.18601
1999.82200,0.18773
2001.75047,0.18803
2003.67894,0.18530
2005.60741,0.18447
2007.53587,0.18577
2009.46434,0.18640
2011.39281,0.18820
2013.32128,0.19081
2015.24975,0.19179
2017.17822,0.19020
2019.10669,0.18708
2021.03515,0.18488
2022.96362,0.18445
2024.89209,0.18590
2026.82056,0.18715
2028.74903,0.18584
2030.67750,0.18417
2032.60597,0.18483
2034.53444,0.18707
2036.46290,0.18991
2038.39137,0.19261
2040.31984,0.19255
2042.24831,0.18952
2044.17678,0.18656
2046.10525,0.18444
2048.03372,0.18452
2049.96218,0.18783
2051.89065,0.18999
2053.81912,0.18909
2055.74759,0.18838
2057.67606,0.18909
2059.60453,0.18898
2061.53300,0.18637
2063.46147,0.18407
2065.38993,0.18416
2067.31840,0.18485
2069.24687,0.18504
2071.17534,0.18460
2073.10381,0.18505
2075.03228,0.18669
2076.96075,0.18630
2078.88921,0.18328
2080.81768,0.18139
2082.74615,0.18365
2084.67462,0.18759
2086.60309,0.18926
2088.53156,0.18988
2090.46003,0.19058
2092.38850,0.18863
2094.31696,0.18533
2096.24543,0.18486
2098.17390,0.18580
2100.10237,0.18567
2102.03084,0.18653
2103.95931,0.18941
2105.88778,0.19058
2107.81624,0.18748
2109.74471,0.18548
2111.67318,0.18920
2113.60165,0.19268
2115.53012,0.19156
2117.45859,0.19143
2119.38706,0.19546
2121.31553,0.20059
2123.24399,0.20255
2125.17246,0.19954
2127.10093,0.19604
2129.02940,0.19584
2130.95787,0.19608
2132.88634,0.19385
2134.81481,0.19009
2136.74327,0.18802
2138.67174,0.19057
2140.60021,0.19501
2142.52868,0.19550
2144.45715,0.19332
2146.38562,0.19168
2148.31409,0.19047
2150.24255,0.19160
2152.17102,0.19411
2154.09949,0.19341
2156.02796,0.19111
2157.95643,0.19103
2159.88490,0.19143
2161.81337,0.19088
2163.74184,0.19190
2165.67030,0.19432
2167.59877,0.19340
2169.52724,0.18990
2171.45571,0.18957
2173.38418,0.19083
2175.31265,0.19179
2177.24112,0.19616
2179.16958,0.20091
2181.09805,0.19868
2183.02652,0.19304
2184.95499,0.19226
2186.88346,0.19511
2188.81193,0.19590
2190.74040,0.19257
2192.66887,0.18982
2194.59733,0.19219
2196.52580,0.19510
2198.45427,0.19359
2200.38274,0.18884
2202.31121,0.18592
2204.23968,0.18776
2206.16815,0.19042
2208.09661,0.19095
2210.02508,0.19208
2211.95355,0.19564
2213.88202,0.19745
2215.81049,0.19474
2217.73896,0.19151
2219.66743,0.19081
2221.59590,0.19218
2223.52436,0.19462
2225.45283,0.19615
2227.38130,0.19490
2229.30977,0.19221
2231.23824,0.18934
2233.16671,0.18742
2235.09518,0.18837
2237.02364,0.18851
2238.95211,0.18617
2240.88058,0.18676
2242.80905,0.19158
2244.73752,0.19550
2246.66599,0.19577
2248.59446,0.19548
2250.52293,0.19615
2252.45139,0.19544
2254.37986,0.19416
2256.30833,0.19571
2258.23680,0.19822
2260.16527,0.19736
2262.09374,0.19434
2264.02221,0.19270
2265.95067,0.19200
2267.87914,0.19129
2269.80761,0.19283
2271.73608,0.19634
2273.66455,0.19884
2275.59302,0.19824
2277.52149,0.19510
2279.44996,0.19305
2281.37842,0.19362
2283.30689,0.19469
2285.23536,0.19380
2287.16383,0.19098
2289.09230,0.18985
2291.02077,0.18972
2292.94924,0.18341
2294.87770,0.17482
2296.80617,0.17584
2298.73464,0.18708
2300.66311,0.19865
2302.59158,0.20359
2304.52005,0.20536
2306.44852,0.20779
2308.37699,0.21231
2310.30545,0.21635
2312.23392,0.21429
2314.16239,0.21136
2316.09086,0.21127
2318.01933,0.21326
2319.94780,0.21991
2321.87627,0.22520
2323.80473,0.22085
2325.73320,0.21184
2327.66167,0.20422
2329.59014,0.19809
2331.51861,0.20265
2333.44708,0.22185
2335.37555,0.23754
2337.30401,0.23960
2339.23248,0.24037
2341.16095,0.24237
2343.08942,0.23459
2345.01789,0.22635
2346.94636,0.22707
2348.87483,0.22850
2350.80330,0.22883
2352.73176,0.23375
2354.66023,0.24386
2356.58870,0.25552
2358.51717,0.27325
2360.44564,0.29991
2362.37411,0.32585
2364.30258,0.32552
2366.23104,0.28811
2368.15951,0.24212
2370.08798,0.21510
2372.01645,0.20534
2373.94492,0.20673
2375.87339,0.21141
2377.80186,0.21099
2379.73033,0.20724
2381.65879,0.20457
2383.58726,0.20278
2385.51573,0.19831
2387.44420,0.19093
2389.37267,0.18534
2391.30114,0.18407
2393.22961,0.18611
2395.15807,0.18958
2397.08654,0.19269
2399.01501,0.19409
2400.94348,0.19276
2402.87195,0.19061
2404.80042,0.19129
2406.72889,0.19342
2408.65736,0.19269
2410.58582,0.18960
2412.51429,0.18956
2414.44276,0.19356
2416.37123,0.19571
2418.29970,0.19472
2420.22817,0.19405
2422.15664,0.19322
2424.08510,0.19243
2426.01357,0.19420
2427.94204,0.19677
2429.87051,0.19653
2431.79898,0.19446
2433.72745,0.19417
2435.65592,0.19604
2437.58439,0.19651
2439.51285,0.19328
2441.44132,0.18994
2443.36979,0.18872
2445.29826,0.18539
2447.22673,0.18286
2449.15520,0.18730
2451.08367,0.18979
2453.01213,0.18328
2454.94060,0.18068
2456.86907,0.18914
2458.79754,0.19663
2460.72601,0.19599
2462.65448,0.19281
2464.58295,0.19231
2466.51142,0.19405
2468.43988,0.19582
2470.36835,0.19702
2472.29682,0.19754
2474.22529,0.19797
2476.15376,0.19882
2478.08223,0.19888
2480.01070,0.19666
2481.93916,0.19346
2483.86763,0.19257
2485.79610,0.19340
2487.72457,0.19419
2489.65304,0.19638
2491.58151,0.19794
2493.50998,0.19592
2495.43844,0.19452
2497.36691,0.19759
2499.29538,0.20174
2501.22385,0.20369
2503.15232,0.20396
2505.08079,0.20134
2507.00926,0.19699
2508.93773,0.19643
2510.86619,0.19907
2512.79466,0.20088
2514.72313,0.20115
2516.65160,0.19881
2518.58007,0.19576
2520.50854,0.19568
2522.43701,0.19613
2524.36547,0.19359
2526.29394,0.18941
2528.22241,0.18925
2530.15088,0.19618
2532.07935,0.20335
2534.00782,0.20282
2535.93629,0.19614
2537.86476,0.19106
2539.79322,0.19118
2541.72169,0.19280
2543.65016,0.19330
2545.57863,0.19304
2547.50710,0.19229
2549.43557,0.19110
2551.36404,0.19059
2553.29250,0.19389
2555.22097,0.19999
2557.14944,0.20172
2559.07791,0.19675
2561.00638,0.19140
2562.93485,0.18958
2564.86332,0.18965
2566.79179,0.19109
2568.72025,0.19311
2570.64872,0.19413
2572.57719,0.19643
2574.50566,0.20027
2576.43413,0.20176
2578.36260,0.20028
2580.29107,0.19784
2582.21953,0.19715
2584.14800,0.19763
2586.07647,0.19572
2588.00494,0.19456
2589.93341,0.19649
2591.86188,0.19757
2593.79035,0.19821
2595.71882,0.20088
2597.64728,0.20292
2599.57575,0.20132
2601.50422,0.19744
2603.43269,0.19340
2605.36116,0.19155
2607.28963,0.19598
2609.21810,0.20397
2611.14656,0.20552
2613.07503,0.20121
2615.00350,0.20135
2616.93197,0.20485
2618.86044,0.20504
2620.78891,0.20333
2622.71738,0.20102
2624.64585,0.19724
2626.57431,0.19460
2628.50278,0.19645
2630.43125,0.20199
2632.35972,0.20588
2634.28819,0.20429
2636.21666,0.19982
2638.14513,0.19751
2640.07359,0.19930
2642.00206,0.20311
2643.93053,0.20563
2645.85900,0.20651
2647.78747,0.20598
2649.71594,0.20339
2651.64441,0.19985
2653.57288,0.19768
2655.50134,0.19872
2657.42981,0.20198
2659.35828,0.20454
2661.28675,0.20487
2663.21522,0.20415
2665.14369,0.20406
2667.07216,0.20406
2669.00062,0.20438
2670.92909,0.20359
2672.85756,0.19996
2674.78603,0.19764
2676.71450,0.19865
2678.64297,0.20036
2680.57144,0.20209
2682.49990,0.20276
2684.42837,0.19983
2686.35684,0.19499
2688.28531,0.19524
2690.21378,0.20020
2692.14225,0.20094
2694.07072,0.19956
2695.99919,0.20157
2697.92765,0.20368
2699.85612,0.20457
2701.78459,0.20409
2703.71306,0.20246
2705.64153,0.20143
2707.57000,0.20043
2709.49847,0.20054
2711.42693,0.20156
2713.35540,0.20052
2715.28387,0.19997
2717.21234,0.20346
2719.14081,0.20750
2721.06928,0.20889
2722.99775,0.20925
2724.92622,0.20988
2726.85468,0.20961
2728.78315,0.20611
2730.71162,0.20189
2732.64009,0.20204
2734.56856,0.20392
2736.49703,0.20221
2738.42550,0.19856
2740.35396,0.19821
2742.28243,0.20293
2744.21090,0.20773
2746.13937,0.20803
2748.06784,0.20722
2749.99631,0.20793
2751.92478,0.20756
2753.85325,0.20527
2755.78171,0.20339
2757.71018,0.20410
2759.63865,0.20667
2761.56712,0.20955
2763.49559,0.21095
2765.42406,0.20863
2767.35253,0.20775
2769.28099,0.21618
2771.20946,0.22737
2773.13793,0.22712
2775.06640,0.21680
2776.99487,0.21062
2778.92334,0.21290
2780.85181,0.21457
2782.78028,0.21088
2784.70874,0.20630
2786.63721,0.20345
2788.56568,0.20391
2790.49415,0.20877
2792.42262,0.21336
2794.35109,0.21346
2796.27956,0.20950
2798.20802,0.20580
2800.13649,0.20619
2802.06496,0.20701
2803.99343,0.20498
2805.92190,0.20354
2807.85037,0.20479
2809.77884,0.20795
2811.70731,0.21169
2813.63577,0.21450
2815.56424,0.21587
2817.49271,0.21362
2819.42118,0.20861
2821.34965,0.20540
2823.27812,0.20479
2825.20659,0.20673
2827.13505,0.20987
2829.06352,0.21020
2830.99199,0.20794
2832.92046,0.20787
2834.84893,0.21063
2836.77740,0.21314
2838.70587,0.21656
2840.63433,0.22179
2842.56280,0.22417
2844.49127,0.21920
2846.41974,0.21067
2848.34821,0.20482
2850.27668,0.20104
2852.20515,0.19982
2854.13362,0.20295
2856.06208,0.20847
2857.99055,0.21434
2859.91902,0.21716
2861.84749,0.21411
2863.77596,0.20903
2865.70443,0.20855
2867.63290,0.21183
2869.56136,0.21348
2871.48983,0.21398
2873.41830,0.21669
2875.34677,0.21959
2877.27524,0.21766
2879.20371,0.21153
2881.13218,0.20754
2883.06065,0.20711
2884.98911,0.20601
2886.91758,0.20705
2888.84605,0.21272
2890.77452,0.21567
2892.70299,0.21389
2894.63146,0.21278
2896.55993,0.21520
2898.48839,0.22063
2900.41686,0.22256
2902.34533,0.21655
2904.27380,0.20906
2906.20227,0.20656
2908.13074,0.20864
2910.05921,0.21013
2911.98768,0.20625
2913.91614,0.20083
2915.84461,0.19986
2917.77308,0.20256
2919.70155,0.20669
2921.63002,0.20939
2923.55849,0.20635
2925.48696,0.20056
2927.41542,0.19745
2929.34389,0.19683
2931.27236,0.19996
2933.20083,0.20384
2935.12930,0.20150
2937.05777,0.19713
2938.98624,0.19836
2940.91471,0.20364
2942.84317,0.20780
2944.77164,0.20758
2946.70011,0.20240
2948.62858,0.19883
2950.55705,0.20287
2952.48552,0.20782
2954.41399,0.20708
2956.34245,0.20406
2958.27092,0.20537
2960.19939,0.21305
2962.12786,0.21891
2964.05633,0.21576
2965.98480,0.20821
2967.91327,0.20278
2969.84174,0.20274
2971.77020,0.20906
2973.69867,0.21620
2975.62714,0.21621
2977.55561,0.21099
2979.48408,0.20850
2981.41255,0.21078
2983.34102,0.21593
2985.26948,0.21911
2987.19795,0.21693
2989.12642,0.21570
2991.05489,0.21930
2992.98336,0.22317
2994.91183,0.22452
2996.84030,0.22053
2998.76877,0.21124
3000.69723,0.20631
3002.62570,0.21049
3004.55417,0.21625
3006.48264,0.21957
3008.41111,0.22298
3010.33958,0.22034
3012.26805,0.20093
3014.19651,0.16868
3016.12498,0.14528
3018.05345,0.15486
3019.98192,0.18990
3021.91039,0.21886
3023.83886,0.23290
3025.76733,0.23483
3027.69579,0.22550
3029.62426,0.21622
3031.55273,0.21355
3033.48120,0.21421
3035.40967,0.21445
3037.33814,0.21294
3039.26661,0.21182
3041.19508,0.21253
3043.12354,0.21321
3045.05201,0.21071
3046.98048,0.20783
3048.90895,0.21080
3050.83742,0.21689
3052.76589,0.21941
3054.69436,0.21553
3056.62282,0.20681
3058.55129,0.20570
3060.47976,0.21568
3062.40823,0.22099
3064.33670,0.21760
3066.26517,0.21485
3068.19364,0.21666
3070.12211,0.21914
3072.05057,0.21793
3073.97904,0.21379
3075.90751,0.21113
3077.83598,0.21659
3079.76445,0.22597
3081.69292,0.22736
3083.62139,0.21799
3085.54985,0.20698
3087.47832,0.20579
3089.40679,0.21070
3091.33526,0.21231
3093.26373,0.21026
3095.19220,0.20930
3097.12067,0.21294
3099.04914,0.21895
3100.97760,0.22076
3102.90607,0.21354
3104.83454,0.20762
3106.76301,0.21260
3108.69148,0.21824
3110.61995,0.21514
3112.54842,0.20789
3114.47688,0.20775
3116.40535,0.21505
3118.33382,0.21897
3120.26229,0.21721
3122.19076,0.21621
3124.11923,0.22014
3126.04770,0.22173
3127.97617,0.21575
3129.90463,0.21231
3131.83310,0.21654
3133.76157,0.22057
3135.69004,0.22051
3137.61851,0.21750
3139.54698,0.21344
3141.47545,0.21665
3143.40391,0.22659
3145.33238,0.23040
3147.26085,0.22512
3149.18932,0.21984
3151.11779,0.22163
3153.04626,0.22510
3154.97473,0.22244
3156.90320,0.21448
3158.83166,0.20764
3160.76013,0.20962
3162.68860,0.21724
3164.61707,0.22274
3166.54554,0.22726
3168.47401,0.22959
3170.40248,0.22837
3172.33094,0.22631
3174.25941,0.22231
3176.18788,0.21960
3178.11635,0.21981
3180.04482,0.21873
3181.97329,0.21990
3183.90176,0.22534
3185.83022,0.22746
3187.75869,0.22224
3189.68716,0.21674
3191.61563,0.21783
3193.54410,0.22333
3195.47257,0.22843
3197.40104,0.23209
3199.32951,0.23353
3201.25797,0.22951
3203.18644,0.22202
3205.11491,0.21708
3207.04338,0.21575
3208.97185,0.21621
3210.90032,0.22065
3212.82879,0.22744
3214.75725,0.22889
3216.68572,0.22439
3218.61419,0.22009
3220.54266,0.22216
3222.47113,0.22591
3224.39960,0.22465
3226.32807,0.22317
3228.25654,0.22422
3230.18500,0.22862
3232.11347,0.23435
3234.04194,0.23425
3235.97041,0.22802
3237.89888,0.22379
3239.82735,0.22355
3241.75582,0.22471
3243.68428,0.23346
3245.61275,0.24184
3247.54122,0.23532
3249.46969,0.22761
3251.39816,0.23235
3253.32663,0.23998
3255.25510,0.24023
3257.18357,0.23262
3259.11203,0.22081
3261.04050,0.21320
3262.96897,0.21488
3264.89744,0.22287
3266.82591,0.22924
3268.75438,0.22583
3270.68285,0.21829
3272.61131,0.21765
3274.53978,0.22270
3276.46825,0.22419
3278.39672,0.21982
3280.32519,0.21748
3282.25366,0.21608
3284.18213,0.20956
3286.11060,0.20275
3288.03906,0.20225
3289.96753,0.20852
3291.89600,0.21167
3293.82447,0.20347
3295.75294,0.19699
3297.68141,0.20588
3299.60988,0.22022
3301.53834,0.22479
3303.46681,0.22153
3305.39528,0.21858
3307.32375,0.21643
3309.25222,0.21586
3311.18069,0.22013
3313.10916,0.22367
3315.03763,0.22135
3316.96609,0.21896
3318.89456,0.21805
3320.82303,0.21555
3322.75150,0.21322
3324.67997,0.21029
3326.60844,0.20932
3328.53691,0.21954
3330.46537,0.23439
3332.39384,0.23602
3334.32231,0.22672
3336.25078,0.22127
3338.17925,0.21952
3340.10772,0.21528
3342.03619,0.21311
3343.96466,0.21512
3345.89312,0.21633
3347.82159,0.21713
3349.75006,0.21841
3351.67853,0.22156
3353.60700,0.22747
3355.53547,0.22858
3357.46394,0.22147
3359.39240,0.21281
3361.32087,0.20975
3363.24934,0.21530
3365.17781,0.22716
3367.10628,0.23649
3369.03475,0.23584
3370.96322,0.23156
3372.89168,0.23279
3374.82015,0.23573
3376.74862,0.23347
3378.67709,0.22961
3380.60556,0.22918
3382.53403,0.23135
3384.46250,0.23280
3386.39097,0.22940
3388.31943,0.22405
3390.24790,0.22346
3392.17637,0.22622
3394.10484,0.22716
3396.03331,0.22711
3397.96178,0.22724
3399.89025,0.22440
3401.81871,0.21913
3403.74718,0.21510
3405.67565,0.21303
3407.60412,0.20983
3409.53259,0.20787
3411.46106,0.21009
3413.38953,0.21253
3415.31800,0.21781
3417.24646,0.22473
3419.17493,0.22593
3421.10340,0.22446
3423.03187,0.22124
3424.96034,0.21436
3426.88881,0.20797
3428.81728,0.20533
3430.74574,0.20990
3432.67421,0.21872
3434.60268,0.21956
3436.53115,0.21224
3438.45962,0.20811
3440.38809,0.21159
3442.31656,0.21771
3444.24503,0.22018
3446.17349,0.21955
3448.10196,0.21528
3450.03043,0.20475
3451.95890,0.19332
3453.88737,0.18945
3455.81584,0.19662
3457.74431,0.20655
3459.67277,0.20973
3461.60124,0.20794
3463.52971,0.20464
3465.45818,0.20116
3467.38665,0.19899
3469.31512,0.19871
3471.24359,0.20161
3473.17206,0.20346
3475.10052,0.19980
3477.02899,0.19608
3478.95746,0.19649
3480.88593,0.20332
3482.81440,0.21625
3484.74287,0.22390
3486.67134,0.21708
3488.59980,0.19984
3490.52827,0.18718
3492.45674,0.18795
3494.38521,0.19581
3496.31368,0.20212
3498.24215,0.20416
3500.17062,0.20345
3502.09909,0.20048
3504.02755,0.19299
3505.95602,0.18752
3507.88449,0.19162
3509.81296,0.19720
3511.74143,0.19358
3513.66990,0.18763
3515.59837,0.19152
3517.52683,0.19849
3519.45530,0.19587
3521.38377,0.19217
3523.31224,0.19453
3525.24071,0.19283
3527.16918,0.18699
3529.09765,0.18394
3531.02611,0.17879
3532.95458,0.17116
3534.88305,0.16961
3536.81152,0.17464
3538.73999,0.17967
3540.66846,0.18276
3542.59693,0.18586
3544.52540,0.18995
3546.45386,0.19013
3548.38233,0.18371
3550.31080,0.17751
3552.23927,0.17267
3554.16774,0.16669
3556.09621,0.16131
3558.02468,0.15959
3559.95314,0.16701
3561.88161,0.18162
3563.81008,0.19417
3565.73855,0.20203
3567.66702,0.19826
3569.59549,0.18258
3571.52396,0.17118
3573.45243,0.16582
3575.38089,0.16198
3577.30936,0.16195
3579.23783,0.16666
3581.16630,0.17060
3583.09477,0.17178
3585.02324,0.17646
3586.95171,0.18346
3588.88017,0.17860
3590.80864,0.17171
3592.73711,0.17497
3594.66558,0.17719
3596.59405,0.16888
3598.52252,0.16242
3600.45099,0.16002
3602.37946,0.15249
3604.30792,0.14478
3606.23639,0.14328
3608.16486,0.14710
3610.09333,0.15413
3612.02180,0.16300
3613.95027,0.17055
3615.87874,0.17580
3617.80720,0.18012
3619.73567,0.17320
3621.66414,0.15606
3623.59261,0.14733
3625.52108,0.15085
3627.44955,0.15904
3629.37802,0.15949
3631.30649,0.15410
3633.23495,0.14648
3635.16342,0.13590
3637.09189,0.13411
3639.02036,0.14172
3640.94883,0.14548
3642.87730,0.14268
3644.80577,0.14436
3646.73423,0.16157
3648.66270,0.18593
3650.59117,0.17656
3652.51964,0.15362
3654.44811,0.14638
3656.37658,0.14830
3658.30505,0.14711
3660.23352,0.14198
3662.16198,0.13621
3664.09045,0.13234
3666.01892,0.13545
3667.94739,0.15107
3669.87586,0.16996
3671.80433,0.17014
3673.73280,0.16852
3675.66126,0.17457
3677.58973,0.16843
3679.51820,0.15331
3681.44667,0.14282
3683.37514,0.14049
3685.30361,0.14065
3687.23208,0.14302
3689.16055,0.15774
3691.08901,0.16702
3693.01748,0.15158
3694.94595,0.13322
3696.87442,0.12531
3698.80289,0.12337
3700.73136,0.12210
3702.65983,0.12540
3704.58829,0.13266
3706.51676,0.13986
3708.44523,0.14927
3710.37370,0.15660
3712.30217,0.15228
3714.23064,0.14614
3716.15911,0.14177
3718.08757,0.13478
3720.01604,0.13382
3721.94451,0.14661
3723.87298,0.16076
3725.80145,0.16393
3727.72992,0.15911
3729.65839,0.15950
3731.58686,0.16901
3733.51532,0.17920
3735.44379,0.18230
3737.37226,0.16796
3739.30073,0.14342
3741.22920,0.12307
3743.15767,0.11503
3745.08614,0.13278
3747.01460,0.15517
3748.94307,0.16327
3750.87154,0.16176
3752.80001,0.15169
3754.72848,0.14334
3756.65695,0.14042
3758.58542,0.13918
3760.51389,0.13879
3762.44235,0.14268
3764.37082,0.14593
3766.29929,0.14230
3768.22776,0.13900
3770.15623,0.13949
3772.08470,0.13367
3774.01317,0.12463
3775.94163,0.12120
3777.87010,0.12196
3779.79857,0.12279
3781.72704,0.12820
3783.65551,0.13551
3785.58398,0.13207
3787.51245,0.12179
3789.44092,0.11980
3791.36938,0.12649
3793.29785,0.13475
3795.22632,0.13747
3797.15479,0.13366
3799.08326,0.13432
3801.01173,0.14176
3802.94020,0.14550
3804.86866,0.14750
3806.79713,0.14757
3808.72560,0.13671
3810.65407,0.12494
3812.58254,0.12389
3814.51101,0.13481
3816.43948,0.14810
3818.36795,0.15783
3820.29641,0.16726
3822.22488,0.15908
3824.15335,0.14357
3826.08182,0.13608
3828.01029,0.12903
3829.93876,0.12376
3831.86723,0.12674
3833.79569,0.13388
3835.72416,0.13964
3837.65263,0.14568
3839.58110,0.14929
3841.50957,0.14822
3843.43804,0.13912
3845.36651,0.12349
3847.29498,0.11548
3849.22344,0.12148
3851.15191,0.13847
3853.08038,0.15388
3855.00885,0.14574
3856.93732,0.13427
3858.86579,0.12879
3860.79426,0.12931
3862.72272,0.13603
3864.65119,0.13742
3866.57966,0.13218
3868.50813,0.13321
3870.43660,0.13684
3872.36507,0.13545
3874.29354,0.13141
3876.22200,0.12743
3878.15047,0.13184
3880.07894,0.14336
3882.00741,0.14663
3883.93588,0.14485
3885.86435,0.14055
3887.79282,0.13038
3889.72129,0.12376
3891.64975,0.12042
3893.57822,0.11697
3895.50669,0.11767
3897.43516,0.12488
3899.36363,0.13423
3901.29210,0.14088
3903.22057,0.14666
3905.14903,0.14212
3907.07750,0.12888
3909.00597,0.11898
3910.93444,0.11145
3912.86291,0.10636
3914.79138,0.10848
3916.71985,0.11439
3918.64832,0.11533
3920.57678,0.11168
3922.50525,0.10815
3924.43372,0.10681
3926.36219,0.11034
3928.29066,0.12055
3930.21913,0.12944
3932.14760,0.12901
3934.07606,0.12401
3936.00453,0.11751
3937.93300,0.11249
3939.86147,0.11156
3941.78994,0.11179
3943.71841,0.11012
3945.64688,0.10352
3947.57535,0.09686
3949.50381,0.09901
3951.43228,0.10705
3953.36075,0.11222
3955.28922,0.11211
3957.21769,0.10894
3959.14616,0.10623
3961.07463,0.10475
3963.00309,0.10389
3964.93156,0.10447
3966.86003,0.10555
3968.78850,0.10491
3970.71697,0.10375
3972.64544,0.10462
3974.57391,0.10704
3976.50238,0.10847
3978.43084,0.10334
3980.35931,0.09526
3982.28778,0.09486
3984.21625,0.09931
3986.14472,0.10331
3988.07319,0.10476
3990.00166,0.10265
3991.93012,0.10164
3993.85859,0.10302
3995.78706,0.10476
3997.71553,0.10546
3999.64400,0.10525
4001.57247,0.10415
4003.50094,0.09972
4005.42941,0.09271
4007.35787,0.08853
4009.28634,0.09288
4011.21481,0.10130
4013.14328,0.10564
4015.07175,0.10730
4017.00022,0.10625
4018.92869,0.10236
4020.85715,0.10045
4022.78562,0.10010
4024.71409,0.09719
4026.64256,0.09274
4028.57103,0.09390
4030.49950,0.09887
4032.42797,0.09621
4034.35644,0.08836
4036.28490,0.08813
4038.21337,0.09132
4040.14184,0.08531
4042.07031,0.07601
4043.99878,0.07686
4045.92725,0.08867
4047.85572,0.09752
4049.78418,0.09409
4051.71265,0.08812
4053.64112,0.08764
4055.56959,0.09066
4057.49806,0.09326
4059.42653,0.09120
4061.35500,0.08695
4063.28346,0.08771
4065.21193,0.09369
4067.14040,0.09331
4069.06887,0.08158
4070.99734,0.07333
4072.92581,0.07557
4074.85428,0.08051
4076.78275,0.08691
4078.71121,0.09179
4080.63968,0.08712
4082.56815,0.07600
4084.49662,0.07035
4086.42509,0.07486
4088.35356,0.08304
4090.28203,0.08799
4092.21049,0.08506
4094.13896,0.07921
4096.06743,0.08246
4097.99590,0.09113
4099.92437,0.09743
4101.85284,0.10079
4103.78131,0.09580
4105.70978,0.08570
4107.63824,0.08252
4109.56671,0.08505
4111.49518,0.08502
4113.42365,0.08201
4115.35212,0.07964
4117.28059,0.07948
4119.20906,0.08288
4121.13752,0.08676
4123.06599,0.08589
4124.99446,0.08299
4126.92293,0.08355
4128.85140,0.08216
4130.77987,0.07099
4132.70834,0.06219
4134.63681,0.06721
4136.56527,0.07499
4138.49374,0.07816
4140.42221,0.08223
4142.35068,0.08436
4144.27915,0.07668
4146.20762,0.06581
4148.13609,0.06140
4150.06455,0.06090
4151.99302,0.06046
4153.92149,0.06186
4155.84996,0.06288
4157.77843,0.05568
4159.70690,0.04652
4161.63537,0.04950
4163.56384,0.05897
4165.49230,0.06422
4167.42077,0.07010
4169.34924,0.07474
4171.27771,0.06879
4173.20618,0.06244
4175.13465,0.06687
4177.06312,0.07433
4178.99158,0.07683
4180.92005,0.07485
4182.84852,0.06831
4184.77699,0.05745
4186.70546,0.04756
4188.63393,0.04382
4190.56240,0.04846
4192.49087,0.06163
4194.41933,0.07332
4196.34780,0.07556
4198.27627,0.07154
4200.20474,0.05909
4202.13321,0.04567
4204.06168,0.04449
4205.99015,0.05061
4207.91861,0.06140
4209.84708,0.07090
4211.77555,0.06576
4213.70402,0.05419
4215.63249,0.04920
4217.56096,0.04792
4219.48943,0.04971
4221.41789,0.05555
4223.34636,0.05791
4225.27483,0.05260
4227.20330,0.04615
4229.13177,0.04707
4231.06024,0.05391
4232.98871,0.05735
4234.91718,0.05387
4236.84564,0.04846
4238.77411,0.04560
4240.70258,0.04661
4242.63105,0.05180
4244.55952,0.05542
4246.48799,0.05195
4248.41646,0.04851
4250.34492,0.05034
4252.27339,0.05039
4254.20186,0.04626
4256.13033,0.04147
4258.05880,0.03915
4259.98727,0.04390
4261.91574,0.05239
4263.84421,0.05340
4265.77267,0.04684
4267.70114,0.04794
4269.62961,0.05658
4271.55808,0.05428
4273.48655,0.04615
4275.41502,0.04575
4277.34349,0.04547
4279.27195,0.04310
4281.20042,0.04058
4283.12889,0.03302
4285.05736,0.02795
4286.98583,0.02989
4288.91430,0.03286
4290.84277,0.03871
4292.77124,0.04434
4294.69970,0.04418
4296.62817,0.04303
4298.55664,0.04219
4300.48511,0.04039
4302.41358,0.03899
4304.34205,0.03474
4306.27052,0.03028
4308.19898,0.03382
4310.12745,0.03890
4312.05592,0.03776
4313.98439,0.03160
4315.91286,0.02151
4317.84133,0.01939
4319.76980,0.03147
4321.69827,0.04142
4323.62673,0.04656
4325.55520,0.05631
4327.48367,0.05842
4329.41214,0.04635
4331.34061,0.04048
4333.26908,0.04715
4335.19755,0.04858
4337.12601,0.03883
4339.05448,0.03095
4340.98295,0.03322
4342.91142,0.03812
4344.83989,0.03694
4346.76836,0.03069
4348.69683,0.02261
4350.62530,0.01629
4352.55376,0.01536
4354.48223,0.01799
4356.41070,0.01901
4358.33917,0.01856
4360.26764,0.02242
4362.19611,0.02986
4364.12458,0.03556
4366.05304,0.03774
4367.98151,0.03387
4369.90998,0.02464
4371.83845,0.01746
4373.76692,0.02067
4375.69539,0.02987
4377.62386,0.02970
4379.55232,0.02321
4381.48079,0.01800
4383.40926,0.00955
4385.33773,0.00953
4387.26620,0.02285
4389.19467,0.02553
4391.12314,0.01593
4393.05161,0.01483
4394.98007,0.01768
4396.90854,0.01357
4398.83701,0.01215
4400.76548,0.01743
4402.69395,0.01663
4404.62242,0.00842
4406.55089,0.00445
4408.47935,0.00599
4410.40782,0.00664
4412.33629,0.00710
4414.26476,0.01143
4416.19323,0.01319
4418.12170,0.00830
4420.05017,0.00726
4421.97864,0.01555
4423.90710,0.02288
4425.83557,0.01888
4427.76404,0.00844
4429.69251,0.00137
4431.62098,0.00211
4433.54945,0.00588
4435.47792,0.00570
4437.40638,0.00934
4439.33485,0.01895
4441.26332,0.02464
4443.19179,0.02894
4445.12026,0.03390
4447.04873,0.03074
4448.97720,0.02034
4450.90567,0.01031
4452.83413,0.00326
4454.76260,0.00117
4456.69107,0.00167
4458.61954,0.00068
4460.54801,0.00147
4462.47648,0.01060
4464.40495,0.02669
4466.33341,0.03622
4468.26188,0.02985
4470.19035,0.01897
4472.11882,0.01695
4474.04729,0.02114
4475.97576,0.02583
4477.90423,0.02585
4479.83270,0.01930
4481.76116,0.00946
4483.68963,0.00117
4485.61810,-0.00081
4487.54657,0.00082
4489.47504,0.00284
4491.40351,0.00751
4493.33198,0.01165
4495.26044,0.00704
4497.18891,-0.00268
4499.11738,-0.00622
4501.04585,-0.00182
4502.97432,0.00188
4504.90279,-0.00192
4506.83126,-0.00427
4508.75973,0.00265
4510.68819,0.01093
4512.61666,0.01065
4514.54513,0.00206
4516.47360,-0.00576
4518.40207,-0.00704
4520.33054,0.00108
4522.25901,0.01278
4524.18747,0.01663
4526.11594,0.01592
4528.04441,0.01646
4529.97288,0.01233
4531.90135,0.00747
4533.82982,0.00871
4535.75829,0.00146
4537.68676,-0.01682
4539.61522,-0.02500
4541.54369,-0.01730
4543.47216,-0.00997
4545.40063,-0.01265
4547.32910,-0.01163
4549.25757,-0.00087
4551.18604,0.00694
4553.11450,0.01282
4555.04297,0.02081
4556.97144,0.02265
4558.89991,0.01656
4560.82838,0.01004
4562.75685,0.01026
4564.68532,0.01811
4566.61378,0.02990
4568.54225,0.03735
4570.47072,0.03428
4572.39919,0.02188
4574.32766,0.00742
4576.25613,0.00584
4578.18460,0.01376
4580.11307,0.01553
4582.04153,0.01155
4583.97000,0.01153
4585.89847,0.01867
4587.82694,0.01715
4589.75541,-0.00473
4591.68388,-0.02465
4593.61235,-0.02152
4595.54081,-0.01428
4597.46928,-0.01879
4599.39775,-0.02534
4601.32622,-0.02631
4603.25469,-0.01762
4605.18316,-0.00879
4607.11163,-0.00761
4609.04010,0.00315
4610.96856,0.02246
4612.89703,0.02825
4614.82550,0.02091
4616.75397,0.00863
4618.68244,-0.00711
4620.61091,-0.01397
4622.53938,-0.00852
4624.46784,-0.00509
4626.39631,-0.00649
4628.32478,-0.00768
4630.25325,-0.00583
4632.18172,-0.00075
4634.11019,-0.00729
4636.03866,-0.01788
4637.96713,-0.00733
4639.89559,0.01565
4641.82406,0.02384
4643.75253,0.01554
4645.68100,0.00787
4647.60947,0.00854
4649.53794,0.01011
4651.46641,0.00462
4653.39487,-0.00489
4655.32334,-0.01050
4657.25181,-0.00777
4659.18028,0.00400
4661.10875,0.02237
4663.03722,0.03271
4664.96569,0.02530
4666.89416,0.02492
4668.82262,0.03856
4670.75109,0.04020
4672.67956,0.03611
4674.60803,0.03339
4676.53650,0.01708
4678.46497,-0.00090
4680.39344,-0.00417
4682.32190,0.00287
4684.25037,0.01367
4686.17884,0.01650
4688.10731,0.00804
4690.03578,-0.00108
4691.96425,-0.01027
4693.89272,-0.02034
4695.82119,-0.02309
4697.74965,-0.01940
4699.67812,-0.01093
4701.60659,0.00251
4703.53506,0.00927
4705.46353,0.00596
4707.39200,0.00630
4709.32047,0.01718
4711.24893,0.02540
4713.17740,0.01771
4715.10587,0.00696
4717.03434,0.00336
4718.96281,0.00259
4720.89128,0.01033
4722.81975,0.02137
4724.74821,0.02532
4726.67668,0.02746
4728.60515,0.02570
4730.53362,0.01974
4732.46209,0.01588
4734.39056,0.01192
4736.31903,0.00675
4738.24750,0.00860
4740.17596,0.01873
4742.10443,0.01991
4744.03290,0.00974
4745.96137,0.00194
4747.88984,0.00183
4749.81831,0.01059
4751.74678,0.01493
4753.67524,0.00923
4755.60371,0.00877
4757.53218,0.01050
4759.46065,0.00824
4761.38912,0.01543
4763.31759,0.02920
4765.24606,0.03266
4767.17453,0.02929
4769.10299,0.02710
4771.03146,0.02182
4772.95993,0.01548
4774.88840,0.01886
4776.81687,0.02534
4778.74534,0.01963
4780.67381,0.01326
4782.60227,0.01811
4784.53074,0.02144
4786.45921,0.01625
4788.38768,0.00759
4790.31615,0.00398
4792.24462,0.00942
4794.17309,0.01709
4796.10156,0.02445
4798.03002,0.02743
4799.95849,0.01852
4801.88696,0.00672
4803.81543,0.00509
4805.74390,0.00998
4807.67237,0.00678
4809.60084,-0.00589
4811.52930,-0.01175
4813.45777,-0.00685
4815.38624,0.00026
4817.31471,0.00166
4819.24318,-0.00882
4821.17165,-0.01129
4823.10012,0.00496
4825.02859,0.01459
4826.95705,0.01617
4828.88552,0.02201
4830.81399,0.02104
4832.74246,0.01163
4834.67093,0.00345
4836.59940,-0.00701
4838.52787,-0.01519
4840.45633,-0.00735
4842.38480,0.00801
4844.31327,0.01707
4846.24174,0.01590
4848.17021,0.01123
4850.09868,0.01536
4852.02715,0.02388
4853.95562,0.02118
4855.88408,0.00765
4857.81255,-0.00212
4859.74102,0.00032
4861.66949,0.00487
4863.59796,-0.00122
4865.52643,-0.01602
4867.45490,-0.02388
4869.38336,-0.01078
4871.31183,0.01030
4873.24030,0.02216
4875.16877,0.02936
4877.09724,0.03184
4879.02571,0.02951
4880.95418,0.03097
4882.88265,0.03286
4884.81111,0.01921
4886.73958,-0.00353
4888.66805,-0.00988
4890.59652,0.00047
4892.52499,0.01065
4894.45346,0.01050
4896.38193,0.00386
4898.31039,0.00798
4900.23886,0.01748
4902.16733,0.01619
4904.09580,0.01041
4906.02427,0.00562
4907.95274,0.00137
4909.88121,0.00367
4911.80967,0.00352
4913.73814,-0.00348
4915.66661,0.00445
4917.59508,0.02475
4919.52355,0.02874
4921.45202,0.01692
4923.38049,0.00720
4925.30896,0.00736
4927.23742,0.02281
4929.16589,0.04021
4931.09436,0.03729
4933.02283,0.01870
4934.95130,-0.00367
4936.87977,-0.01664
4938.80824,-0.00404
4940.73670,0.01515
4942.66517,0.01784
4944.59364,0.00897
4946.52211,-0.00696
4948.45058,-0.01954
4950.37905,-0.01404
4952.30752,0.00299
4954.23599,0.01576
4956.16445,0.01533
4958.09292,0.00688
4960.02139,0.00256
4961.94986,0.00785
4963.87833,0.01534
4965.80680,0.01672
4967.73527,0.01399
4969.66373,0.00474
4971.59220,-0.00705
4973.52067,-0.01404
4975.44914,-0.01862
4977.37761,-0.01725
4979.30608,-0.01253
4981.23455,-0.00557
4983.16302,0.01099
4985.09148,0.02783
4987.01995,0.03608
4988.94842,0.03786
4990.87689,0.02323
4992.80536,-0.00548
4994.73383,-0.01772
4996.66230,-0.00716
4998.59076,0.00374
5000.51923,0.00197
5002.44770,-0.00245
5004.37617,0.00871
5006.30464,0.02171
5008.23311,0.01172
5010.16158,-0.00755
5012.09005,-0.00287
5014.01851,0.02742
5015.94698,0.04861
5017.87545,0.03521
5019.80392,0.00225
5021.73239,-0.01425
5023.66086,0.00057
5025.58933,0.02445
5027.51779,0.03021
5029.44626,0.02190
5031.37473,0.01968
5033.30320,0.02161
5035.23167,0.00829
5037.16014,-0.01378
5039.08861,-0.01580
5041.01708,0.00556
5042.94554,0.03289
5044.87401,0.04738
5046.80248,0.03559
5048.73095,0.01742
5050.65942,0.01236
5052.58789,0.00993
5054.51636,0.00051
5056.44482,-0.00534
5058.37329,0.00600
5060.30176,0.01424
5062.23023,0.00854
5064.15870,0.01510
5066.08717,0.02386
5068.01564,0.01096
5069.94410,0.00056
5071.87257,0.01556
5073.80104,0.02989
5075.72951,0.02027
5077.65798,0.01185
5079.58645,0.01836
5081.51492,0.01343
5083.44339,0.00011
5085.37185,-0.00510
5087.30032,-0.02076
5089.22879,-0.03460
5091.15726,-0.00980
5093.08573,0.02394
5095.01420,0.02677
5096.94267,0.01338
5098.87113,0.01215
5100.79960,0.02096
5102.72807,0.02278
5104.65654,0.01978
5106.58501,0.02205
5108.51348,0.01593
5110.44195,0.00110
5112.37042,-0.00199
5114.29888,-0.00384
5116.22735,-0.01355
5118.15582,-0.01992
5120.08429,-0.02671
5122.01276,-0.02823
5123.94123,-0.01374
5125.86970,-0.00311
5127.79816,-0.00580
5129.72663,-0.00624
5131.65510,0.00344
5133.58357,0.02240
5135.51204,0.04120
5137.44051,0.04612
5139.36898,0.03849
5141.29745,0.02805
5143.22591,0.01944
5145.15438,0.01319
5147.08285,0.00282
5149.01132,-0.01609
5150.93979,-0.01931
5152.86826,0.00008
5154.79673,0.01786
5156.72519,0.02900
5158.65366,0.02435
5160.58213,0.01561
5162.51060,0.02610
5164.43907,0.02375
5166.36754,0.00683
5168.29601,0.00809
5170.22448,0.01112
5172.15294,-0.00253
5174.08141,-0.01430
5176.00988,-0.00615
5177.93835,0.01921
5179.86682,0.03315
5181.79529,0.01631
5183.72376,0.00393
5185.65222,0.01441
5187.58069,0.02541
5189.50916,0.04077
5191.43763,0.04810
5193.36610,0.02097
5195.29457,-0.01188
5197.22304,-0.01058
5199.15151,0.01394
5201.07997,0.03074
5203.00844,0.03669
5204.93691,0.04090
5206.86538,0.04053
5208.79385,0.03338
5210.72232,0.02689
5212.65079,0.02131
5214.57925,0.02253
5216.50772,0.03112
5218.43619,0.03304
5220.36466,0.03171
5222.29313,0.03840
5224.22160,0.05380
5226.15007,0.06799
5228.07854,0.05731
5230.00700,0.01925
5231.93547,-0.01788
5233.86394,-0.02588
5235.79241,-0.01175
5237.72088,0.00528
5239.64935,0.01474
5241.57782,0.00468
5243.50628,-0.00945
5245.43475,-0.00062
5247.36322,0.01514
5249.29169,0.01681
5251.22016,0.01012
5253.14863,0.01069
5255.07710,0.02402
5257.00556,0.03290
5258.93403,0.04222
5260.86250,0.06602
5262.79097,0.06805
5264.71944,0.03702
5266.64791,0.02971
5268.57638,0.04625
5270.50485,0.06460
5272.43331,0.08481
5274.36178,0.07268
5276.29025,0.02476
5278.21872,-0.00576
5280.14719,-0.00253
5282.07566,0.01083
5284.00413,0.02527
5285.93259,0.04519
5287.86106,0.07026
5289.78953,0.08181
5291.71800,0.06621
5293.64647,0.05036
5295.57494,0.05225
5297.50341,0.06740
5299.43188,0.08187
5301.36034,0.08857
5303.28881,0.09072
5305.21728,0.07268
5307.14575,0.03924
5309.07422,0.01970
5311.00269,0.02037
5312.93116,0.03338
5314.85962,0.05197
5316.78809,0.06819
5318.71656,0.06987
5320.64503,0.05091
5322.57350,0.02566
5324.50197,0.02648
5326.43044,0.05221
5328.35891,0.05881
5330.28737,0.04282
5332.21584,0.03908
5334.14431,0.05507
5336.07278,0.05829
5338.00125,0.03592
5339.92972,0.03013
5341.85819,0.06046
5343.78665,0.09082
5345.71512,0.08745
5347.64359,0.07461
5349.57206,0.07230
5351.50053,0.06749
5353.42900,0.05899
5355.35747,0.05027
5357.28594,0.04121
5359.21440,0.03849
5361.14287,0.04125
5363.07134,0.04434
5364.99981,0.04576
5366.92828,0.04459
5368.85675,0.04416
5370.78522,0.04786
5372.71368,0.06187
5374.64215,0.07446
5376.57062,0.06486
5378.49909,0.04955
5380.42756,0.04853
5382.35603,0.05545
5384.28450,0.03865
5386.21297,-0.00818
5388.14143,-0.02755
5390.06990,0.00006
5391.99837,0.04765
5393.92684,0.07606
5395.85531,0.06160
5397.78378,0.04010
5399.71225,0.03721
5401.64071,0.03145
5403.56918,0.02134
5405.49765,0.02200
5407.42612,0.02443
5409.35459,0.02165
5411.28306,0.01971
5413.21153,0.02638
5415.13999,0.02332
5417.06846,0.00856
5418.99693,0.00991
5420.92540,0.03016
5422.85387,0.05464
5424.78234,0.06345
5426.71081,0.04760
5428.63928,0.02893
5430.56774,0.03210
5432.49621,0.04250
5434.42468,0.03925
5436.35315,0.03236
5438.28162,0.02773
5440.21009,0.02292
5442.13856,0.02947
5444.06702,0.05280
5445.99549,0.07717
5447.92396,0.06526
5449.85243,0.03214
5451.78090,0.03671
5453.70937,0.05942
5455.63784,0.05476
5457.56631,0.03516
5459.49477,0.03058
5461.42324,0.04666
5463.35171,0.07759
5465.28018,0.09473
5467.20865,0.07064
5469.13712,0.03697
5471.06559,0.03369
5472.99405,0.04685
5474.92252,0.06000
5476.85099,0.05607
5478.77946,0.04339
5480.70793,0.04133
5482.63640,0.03720
5484.56487,0.03510
5486.49334,0.05072
5488.42180,0.06496
5490.35027,0.07164
5492.27874,0.08741
5494.20721,0.08385
5496.13568,0.06462
5498.06415,0.06450
5499.99262,0.07042
5501.92108,0.07311
5503.84955,0.07567
5505.77802,0.08114
5507.70649,0.09352
5509.63496,0.09355
5511.56343,0.07804
5513.49190,0.07869
5515.42037,0.10924
5517.34883,0.12124
5519.27730,0.08280
5521.20577,0.04049
5523.13424,0.02848
5525.06271,0.03278
5526.99118,0.04667
5528.91965,0.07028
5530.84811,0.08676
5532.77658,0.09381
5534.70505,0.10226
5536.63352,0.10372
5538.56199,0.09861
5540.49046,0.10939
5542.41893,0.13573
5544.34740,0.14056
5546.27586,0.11408
5548.20433,0.10233
5550.13280,0.10715
5552.06127,0.08448
5553.98974,0.05023
5555.91821,0.03799
5557.84668,0.03209
5559.77514,0.01052
5561.70361,-0.02501
5563.63208,-0.05084
5565.56055,-0.03208
5567.48902,0.02435
5569.41749,0.06398
5571.34596,0.07145
5573.27443,0.07380
5575.20289,0.07171
5577.13136,0.06549
5579.05983,0.07438
5580.98830,0.08013
5582.91677,0.06268
5584.84524,0.05972
5586.77371,0.08686
5588.70217,0.09206
5590.63064,0.05918
5592.55911,0.04091
5594.48758,0.04479
5596.41605,0.04635
5598.34452,0.05705
5600.27299,0.08617
5602.20145,0.10755
5604.12992,0.10810
5606.05839,0.10022
5607.98686,0.08387
5609.91533,0.07121
5611.84380,0.08248
5613.77227,0.09761
5615.70074,0.07148
5617.62920,-0.02128
5619.55767,-0.11772
5621.48614,-0.10442
5623.41461,-0.00134
5625.34308,0.06019
5627.27155,0.01670
5629.20002,-0.05108
5631.12848,-0.03165
5633.05695,0.03282
5634.98542,0.04629
5636.91389,0.03307
5638.84236,0.03870
5640.77083,0.05614
5642.69930,0.08091
5644.62777,0.09767
5646.55623,0.08693
5648.48470,0.06684
5650.41317,0.06782
5652.34164,0.09383
5654.27011,0.11235
5656.19858,0.08691
5658.12705,0.05209
5660.05551,0.05731
5661.98398,0.08010
5663.91245,0.06853
5665.84092,0.03620
5667.76939,0.04625
5669.69786,0.08429
5671.62633,0.10119
5673.55480,0.10503
5675.48326,0.10114
5677.41173,0.08760
5679.34020,0.08788
5681.26867,0.10626
5683.19714,0.11370
5685.12561,0.10062
5687.05408,0.08772
5688.98254,0.08709
5690.91101,0.08090
5692.83948,0.06371
5694.76795,0.06327
5696.69642,0.06607
5698.62489,0.05273
5700.55336,0.06065
5702.48183,0.07980
5704.41029,0.06476
5706.33876,0.05081
5708.26723,0.07734
5710.19570,0.09890
5712.12417,0.08294
5714.05264,0.04935
5715.98111,0.02237
5717.90957,0.03381
5719.83804,0.06392
5721.76651,0.06174
5723.69498,0.04825
5725.62345,0.04905
5727.55192,0.06464
5729.48039,0.08303
5731.40886,0.06554
5733.33732,0.04466
5735.26579,0.07561
5737.19426,0.11343
5739.12273,0.10748
5741.05120,0.07570
5742.97967,0.06121
5744.90814,0.07491
5746.83660,0.07699
5748.76507,0.07468
5750.69354,0.10247
5752.62201,0.11700
5754.55048,0.09859
5756.47895,0.08371
5758.40742,0.06947
5760.33588,0.05875
5762.26435,0.07995
5764.19282,0.10969
5766.12129,0.10316
5768.04976,0.08974
5769.97823,0.10816
5771.90670,0.12845
5773.83517,0.12585
5775.76363,0.12142
5777.69210,0.11947
5779.62057,0.10265
5781.54904,0.07866
5783.47751,0.08215
5785.40598,0.10229
5787.33445,0.09018
5789.26291,0.06697
5791.19138,0.06956
5793.11985,0.09080
5795.04832,0.11115
5796.97679,0.09930
5798.90526,0.06554
5800.83373,0.04109
5802.76220,0.04154
5804.69066,0.07759
5806.61913,0.11058
5808.54760,0.09742
5810.47607,0.07093
5812.40454,0.08594
5814.33301,0.12748
5816.26148,0.12984
5818.18994,0.08031
5820.11841,0.03871
5822.04688,0.03023
5823.97535,0.03988
5825.90382,0.06862
5827.83229,0.07787
5829.76076,0.05329
5831.68923,0.05099
5833.61769,0.07768
5835.54616,0.09182
5837.47463,0.08271
5839.40310,0.06199
5841.33157,0.03081
5843.26004,0.00497
5845.18851,0.02562
5847.11697,0.08534
5849.04544,0.12832
5850.97391,0.11348
5852.90238,0.05962
5854.83085,0.01796
5856.75932,0.00256
5858.68779,-0.00860
5860.61626,-0.01710
5862.54472,0.00244
5864.47319,0.04888
5866.40166,0.08315
5868.33013,0.08262
5870.25860,0.05586
5872.18707,0.05579
5874.11554,0.10238
5876.04400,0.13789
5877.97247,0.12209
5879.90094,0.05571
5881.82941,-0.00949
5883.75788,-0.02828
5885.68635,-0.02429
5887.61482,-0.00600
5889.54329,0.02225
5891.47175,0.05335
5893.40022,0.09406
5895.32869,0.10670
5897.25716,0.07944
5899.18563,0.06429
5901.11410,0.07715
5903.04257,0.08959
5904.97103,0.07626
5906.89950,0.06455
5908.82797,0.09525
5910.75644,0.13198
5912.68491,0.11265
5914.61338,0.05046
5916.54185,0.01884
5918.47032,0.03606
5920.39878,0.06192
5922.32725,0.07794
5924.25572,0.10717
5926.18419,0.14611
5928.11266,0.13453
5930.04113,0.09256
5931.96960,0.07840
5933.89806,0.07079
5935.82653,0.06395
5937.75500,0.06121
5939.68347,0.03458
5941.61194,0.00320
5943.54041,0.02061
5945.46888,0.08027
5947.39734,0.09149
5949.32581,0.03399
5951.25428,0.01379
5953.18275,0.03074
5955.11122,0.03601
5957.03969,0.06794
5958.96816,0.10428
5960.89663,0.09501
5962.82509,0.07781
5964.75356,0.08513
5966.68203,0.08771
5968.61050,0.04068
5970.53897,-0.03034
5972.46744,-0.02367
5974.39591,0.05464
5976.32437,0.10133
5978.25284,0.11633
5980.18131,0.11469
5982.10978,0.09020
5984.03825,0.08862
5985.96672,0.09964
5987.89519,0.06676
5989.82366,0.01498
5991.75212,-0.03532
5993.68059,-0.06827
5995.60906,-0.03148
5997.53753,0.00809
5999.46600,-0.01875
6001.39447,-0.04525
6003.32294,-0.04754
6005.25140,-0.05081
6007.17987,0.00050
6009.10834,0.11926
6011.03681,0.16922
6012.96528,0.08680
6014.89375,-0.00263
6016.82222,-0.01143
6018.75069,0.03527
6020.67915,0.09956
6022.60762,0.11542
6024.53609,0.08100
6026.46456,0.07872
6028.39303,0.11301
6030.32150,0.12726
6032.24997,0.11716
6034.17843,0.12485
6036.10690,0.13929
6038.03537,0.11122
6039.96384,0.07700
6041.89231,0.06425
6043.82078,0.03491
6045.74925,0.00356
6047.67772,0.00174
6049.60618,0.00323
6051.53465,0.00320
6053.46312,0.02467
6055.39159,0.04373
6057.32006,0.02567
6059.24853,0.00482
6061.17700,0.04038
6063.10546,0.11472
6065.03393,0.14141
6066.96240,0.07107
6068.89087,-0.03666
6070.81934,-0.06791
6072.74781,-0.00683
6074.67628,0.08625
6076.60475,0.16623
6078.53321,0.18783
6080.46168,0.13267
6082.39015,0.06234
6084.31862,0.03387
6086.24709,0.02564
6088.17556,0.00597
6090.10403,0.01975
6092.03249,0.09559
6093.96096,0.13944
6095.88943,0.09705
6097.81790,0.07648
6099.74637,0.13894
6101.67484,0.18943
6103.60331,0.17358
6105.53177,0.12733
6107.46024,0.06138
6109.38871,0.03352
6111.31718,0.08486
6113.24565,0.12381
6115.17412,0.10240
6117.10259,0.06627
6119.03106,0.08602
6120.95952,0.15367
6122.88799,0.17556
6124.81646,0.13965
6126.74493,0.09163
6128.67340,0.06529
6130.60187,0.08399
6132.53034,0.11756
6134.45880,0.11007
6136.38727,0.06874
6138.31574,0.04034
6140.24421,0.03966
6142.17268,0.03868
6144.10115,0.02844
6146.02962,0.06239
6147.95809,0.11012
6149.88655,0.08637
6151.81502,0.03762
6153.74349,0.04079
6155.67196,0.07144
6157.60043,0.07804
6159.52890,0.05270
6161.45737,0.05755
6163.38583,0.11652
6165.31430,0.17431
6167.24277,0.16907
6169.17124,0.10192
6171.09971,0.06011
6173.02818,0.06901
6174.95665,0.05404
6176.88512,0.02159
6178.81358,0.00430
6180.74205,-0.00662
6182.67052,0.02070
6184.59899,0.08720
6186.52746,0.12662
6188.45593,0.09876
6190.38440,0.05933
6192.31286,0.03922
6194.24133,0.01785
6196.16980,0.03389
6198.09827,0.08851
6200.02674,0.13943
6201.95521,0.17219
6203.88368,0.15041
6205.81215,0.09296
6207.74061,0.08225
6209.66908,0.11036
6211.59755,0.11693
6213.52602,0.10374
6215.45449,0.06287
6217.38296,0.00660
6219.31143,-0.00626
6221.23989,0.00454
6223.16836,0.00582
6225.09683,0.02605
6227.02530,0.08748
6228.95377,0.15578
6230.88224,0.16089
6232.81071,0.08354
6234.73918,0.01692
6236.66764,-0.00048
6238.59611,-0.00576
6240.52458,0.00230
6242.45305,0.02486
6244.38152,0.03522
6246.30999,0.03210
6248.23846,0.03289
6250.16692,0.00907
6252.09539,-0.02304
6254.02386,-0.00284
6255.95233,0.02929
6257.88080,0.04190
6259.80927,0.06875
6261.73774,0.11595
6263.66621,0.12909
6265.59467,0.11493
6267.52314,0.15316
6269.45161,0.18136
6271.38008,0.13314
6273.30855,0.06332
6275.23702,0.02884
6277.16549,-0.02423
6279.09395,-0.10775
6281.02242,-0.08526
6282.95089,0.04108
6284.87936,0.09959
6286.80783,0.06613
6288.73630,0.00336
6290.66477,-0.07617
6292.59323,-0.07459
6294.52170,0.04469
6296.45017,0.13482
6298.37864,0.13130
6300.30711,0.09972
6302.23558,0.08514
6304.16405,0.05252
6306.09252,-0.01640
6308.02098,-0.02938
6309.94945,0.05732
6311.87792,0.14814
6313.80639,0.15295
6315.73486,0.08342
6317.66333,0.01498
6319.59180,0.01019
6321.52026,0.03687
6323.44873,0.05072
6325.37720,0.08119
6327.30567,0.09995
6329.23414,0.08583
6331.16261,0.07211
6333.09108,0.02359
6335.01955,-0.01864
6336.94801,-0.00383
6338.87648,-0.00986
6340.80495,-0.02604
6342.73342,0.03122
6344.66189,0.11499
6346.59036,0.12672
6348.51883,0.05066
6350.44729,-0.04129
6352.37576,-0.03576
6354.30423,0.03041
6356.23270,0.06700
6358.16117,0.11263
6360.08964,0.15154
6362.01811,0.09157
6363.94658,-0.02713
6365.87504,-0.09584
6367.80351,-0.06431
6369.73198,0.03563
6371.66045,0.10412
6373.58892,0.12623
6375.51739,0.16805
6377.44586,0.19057
6379.37432,0.15423
6381.30279,0.09185
6383.23126,0.02913
6385.15973,-0.01310
6387.08820,-0.00535
6389.01667,0.04333
6390.94514,0.06911
6392.87361,0.05077
6394.80207,0.03050
6396.73054,0.02013
6398.65901,0.04568
6400.58748,0.11338
6402.51595,0.09765
6404.44442,-0.03225
6406.37289,-0.08365
6408.30135,-0.00439
6410.22982,0.05015
6412.15829,0.05092
6414.08676,0.05394
6416.01523,0.04377
6417.94370,-0.00964
6419.87217,-0.03737
6421.80064,0.00506
6423.72910,0.05876
6425.65757,0.06267
6427.58604,0.00688
6429.51451,-0.00829
6431.44298,0.06982
6433.37145,0.13125
6435.29992,0.11639
6437.22838,0.07042
6439.15685,0.08863
6441.08532,0.20236
6443.01379,0.29135
6444.94226,0.20927
6446.87073,0.03095
6448.79920,-0.05884
6450.72766,-0.01241
6452.65613,0.07596
6454.58460,0.13537
6456.51307,0.15501
6458.44154,0.13154
6460.37001,0.08562
6462.29848,0.04032
6464.22695,0.00270
6466.15541,-0.03800
6468.08388,-0.07350
6470.01235,-0.09696
6471.94082,-0.07155
6473.86929,0.04906
6475.79776,0.16077
6477.72623,0.15080
6479.65469,0.08868
6481.58316,0.09289
6483.51163,0.18202
6485.44010,0.20030
6487.36857,0.09978
6489.29704,0.00489
6491.22551,-0.01793
6493.15398,0.00505
6495.08244,0.05990
6497.01091,0.12911
6498.93938,0.16226
6500.86785,0.12520
6502.79632,0.06670
6504.72479,0.05951
6506.65326,0.10004
6508.58172,0.13943
6510.51019,0.18027
6512.43866,0.18202
6514.36713,0.08968
6516.29560,0.00068
6518.22407,-0.00462
6520.15254,0.06855
6522.08101,0.19531
6524.00947,0.26001
6525.93794,0.18164
6527.86641,0.07047
6529.79488,0.02698
6531.72335,0.04680
6533.65182,0.10048
6535.58029,0.12635
6537.50875,0.10922
6539.43722,0.10581
6541.36569,0.08404
6543.29416,0.01663
6545.22263,-0.00287
6547.15110,0.03830
6549.07957,0.06239
6551.00804,0.07351
6552.93650,0.14350
6554.86497,0.20662
6556.79344,0.17759
6558.72191,0.12904
6560.65038,0.10560
6562.57885,0.06996
6564.50732,0.03855
6566.43578,0.05492
6568.36425,0.13042
6570.29272,0.24381
6572.22119,0.33378
6574.14966,0.31612
6576.07813,0.19518
6578.00660,0.08975
6579.93507,0.03584
6581.86353,-0.00883
6583.79200,0.01549
6585.72047,0.11141
6587.64894,0.14060
6589.57741,0.04796
6591.50588,-0.04308
6593.43435,-0.03283
6595.36281,0.05128
6597.29128,0.14908
6599.21975,0.19551
6601.14822,0.15064
6603.07669,0.09750
6605.00516,0.10922
6606.93363,0.13920
6608.86210,0.14694
6610.79056,0.16802
6612.71903,0.19887
6614.64750,0.17571
6616.57597,0.08130
6618.50444,-0.00324
6620.43291,-0.02649
6622.36138,-0.00278
6624.28984,0.03332
6626.21831,0.01318
6628.14678,-0.04592
6630.07525,-0.07397
6632.00372,-0.07725
6633.93219,-0.06120
6635.86066,0.02185
6637.78912,0.09753
6639.71759,0.06067
6641.64606,-0.02825
6643.57453,-0.09852
6645.50300,-0.08589
6647.43147,-0.00100
6649.35994,0.05390
6651.28841,0.10325
6653.21687,0.12548
6655.14534,0.07772
6657.07381,0.13564
6659.00228,0.29547
6660.93075,0.28056
6662.85922,0.15588
6664.78769,0.10208
6666.71615,0.10044
6668.64462,0.09493
6670.57309,0.06644
6672.50156,0.04063
6674.43003,0.02351
6676.35850,-0.02183
6678.28697,-0.03980
6680.21544,0.01754
6682.14390,0.04080
6684.07237,0.00034
6686.00084,-0.00000
6687.92931,0.01877
6689.85778,-0.02133
6691.78625,-0.10083
6693.71472,-0.14581
6695.64318,-0.10732
6697.57165,0.00534
6699.50012,0.12406
6701.42859,0.15582
6703.35706,0.07364
6705.28553,-0.04724
6707.21400,-0.09183
6709.14247,-0.04771
6711.07093,-0.01125
6712.99940,0.00657
6714.92787,0.03333
6716.85634,0.09371
6718.78481,0.18191
6720.71328,0.21058
6722.64175,0.17514
6724.57021,0.16050
6726.49868,0.15631
6728.42715,0.17646
6730.35562,0.25085
6732.28409,0.25934
6734.21256,0.14065
6736.14103,-0.02134
6738.06950,-0.13682
6739.99796,-0.16977
6741.92643,-0.11143
6743.85490,0.02139
6745.78337,0.18353
6747.71184,0.29932
6749.64031,0.28866
6751.56878,0.18356
6753.49724,0.07091
6755.42571,-0.01795
6757.35418,-0.04151
6759.28265,0.01117
6761.21112,0.03230
6763.13959,-0.00784
6765.06806,-0.01080
6766.99653,0.03114
6768.92499,0.07062
6770.85346,0.08539
6772.78193,0.06849
6774.71040,0.02403
6776.63887,-0.00067
6778.56734,0.05167
6780.49581,0.13280
6782.42427,0.11857
6784.35274,-0.00038
6786.28121,-0.05313
6788.20968,0.07968
6790.13815,0.26767
6792.06662,0.27870
6793.99509,0.12518
6795.92355,-0.01556
6797.85202,-0.02717
6799.78049,0.07141
6801.70896,0.15154
6803.63743,0.14013
6805.56590,0.14528
6807.49437,0.16297
6809.42284,0.13903
6811.35130,0.13107
6813.27977,0.07855
6815.20824,-0.04318
6817.13671,-0.11476
6819.06518,-0.09156
6820.99365,0.01006
6822.92212,0.13643
6824.85058,0.18700
6826.77905,0.12708
6828.70752,0.02420
6830.63599,-0.00023
6832.56446,0.04503
6834.49293,0.08925
6836.42140,0.10844
6838.34987,0.11957
6840.27833,0.15633
6842.20680,0.19594
6844.13527,0.18436
6846.06374,0.11869
6847.99221,0.02997
6849.92068,-0.02477
6851.84915,0.01714
6853.77761,0.05083
6855.70608,-0.06863
6857.63455,-0.20840
6859.56302,-0.19264
6861.49149,-0.08097
6863.41996,0.03875
6865.34843,0.14637
6867.27690,0.16546
6869.20536,0.11835
6871.13383,0.11230
6873.06230,0.09490
6874.99077,0.06710
6876.91924,0.10766
6878.84771,0.18819
6880.77618,0.22926
6882.70464,0.21924
6884.63311,0.18911
6886.56158,0.10959
6888.49005,-0.00464
6890.41852,-0.05041
6892.34699,0.00543
6894.27546,0.04151
6896.20393,-0.02729
6898.13239,-0.06803
6900.06086,0.01327
6901.98933,0.02500
6903.91780,-0.08423
6905.84627,-0.08253
6907.77474,0.06547
6909.70321,0.17372
6911.63167,0.21553
6913.56014,0.26617
6915.48861,0.31445
6917.41708,0.28693
6919.34555,0.21977
6921.27402,0.17583
6923.20249,0.09956
6925.13096,-0.00774
6927.05942,-0.05859
6928.98789,0.00327
6930.91636,0.11564
6932.84483,0.13543
6934.77330,0.07722
6936.70177,0.06653
6938.63024,0.09695
6940.55870,0.08976
6942.48717,0.05137
6944.41564,0.05355
6946.34411,0.11526
6948.27258,0.10907
6950.20105,-0.03490
6952.12952,-0.17921
6954.05799,-0.21187
6955.98645,-0.14030
6957.91492,-0.00424
6959.84339,0.15819
6961.77186,0.21351
6963.70033,0.11188
6965.62880,0.02024
6967.55727,0.01329
6969.48573,0.02636
6971.41420,0.07864
6973.34267,0.15015
6975.27114,0.10503
6977.19961,-0.01541
6979.12808,-0.08061
6981.05655,-0.10804
6982.98501,-0.09834
6984.91348,-0.01849
6986.84195,0.12203
6988.77042,0.21088
6990.69889,0.15326
6992.62736,0.09662
6994.55583,0.15237
6996.48430,0.19746
6998.41276,0.11564
7000.34123,-0.03432
7002.26970,-0.14601
7004.19817,-0.12616
7006.12664,-0.00035
7008.05511,0.05771
7009.98358,0.05308
7011.91204,0.16796
7013.84051,0.31228
7015.76898,0.26448
7017.69745,0.12354
7019.62592,0.03257
7021.55439,-0.00583
7023.48286,0.03426
7025.41133,0.16142
7027.33979,0.19958
7029.26826,0.03959
7031.19673,-0.07727
7033.12520,-0.06926
7035.05367,-0.04874
7036.98214,-0.00805
7038.91061,0.01267
7040.83907,-0.04433
7042.76754,-0.08213
7044.69601,-0.05481
7046.62448,-0.02155
7048.55295,0.05368
7050.48142,0.09787
7052.40989,0.10950
7054.33836,0.17674
7056.26682,0.21301
7058.19529,0.14244
7060.12376,0.02082
7062.05223,-0.08783
7063.98070,-0.08721
7065.90917,0.02326
7067.83764,0.13201
7069.76610,0.22433
7071.69457,0.24375
7073.62304,0.06984
7075.55151,-0.12680
7077.47998,-0.16766
7079.40845,-0.09476
7081.33692,-0.02515
7083.26539,-0.00925
7085.19385,0.06666
7087.12232,0.18472
7089.05079,0.13093
7090.97926,-0.01293
7092.90773,0.01707
7094.83620,0.16308
7096.76467,0.15856
7098.69313,0.05315
7100.62160,0.10500
7102.55007,0.18141
7104.47854,0.09201
7106.40701,-0.03425
7108.33548,0.01708
7110.26395,0.15951
7112.19242,0.22167
7114.12088,0.17619
7116.04935,0.03495
7117.97782,-0.16976
7119.90629,-0.21827
7121.83476,-0.05356
7123.76323,0.09052
7125.69170,0.06624
7127.62016,0.00228
7129.54863,0.02814
7131.47710,0.11283
7133.40557,0.16800
7135.33404,0.13860
7137.26251,0.09418
7139.19098,0.10865
7141.11944,0.16556
7143.04791,0.22244
7144.97638,0.26227
7146.90485,0.32473
7148.83332,0.36954
7150.76179,0.36737
7152.69026,0.36214
7154.61873,0.30793
7156.54719,0.28932
7158.47566,0.34512
7160.40413,0.30952
7162.33260,0.21932
7164.26107,0.18191
7166.18954,0.13107
7168.11801,0.12813
7170.04647,0.35735
7171.97494,0.56998
7173.90341,0.37798
7175.83188,0.04991
7177.76035,-0.01111
7179.68882,0.08896
7181.61729,0.09919
7183.54576,-0.09754
7185.47422,-0.23167
7187.40269,-0.14894
7189.33116,-0.09425
7191.25963,-0.11131
7193.18810,0.04428
7195.11657,0.24046
7197.04504,0.19689
7198.97350,0.00267
7200.90197,-0.14139
7202.83044,-0.20236
7204.75891,-0.15060
7206.68738,0.06945
7208.61585,0.29264
7210.54432,0.42168
7212.47279,0.45769
7214.40125,0.35758
7216.32972,0.21285
7218.25819,0.12072
7220.18666,0.00160
7222.11513,-0.04776
7224.04360,0.05005
7225.97207,0.19617
7227.90053,0.21910
7229.82900,0.15895
7231.75747,0.09162
7233.68594,0.05734
7235.61441,0.06652
7237.54288,0.03332
7239.47135,-0.00251
7241.39982,0.04118
7243.32828,0.09975
7245.25675,0.06138
7247.18522,-0.02856
7249.11369,-0.02446
7251.04216,0.11959
7252.97063,0.16061
7254.89910,-0.00817
7256.82756,-0.10684
7258.75603,-0.07557
7260.68450,0.00266
7262.61297,-0.06189
7264.54144,-0.11253
7266.46991,0.06065
7268.39838,0.23054
7270.32685,0.35120
7272.25531,0.47606
7274.18378,0.40465
7276.11225,0.21112
7278.04072,0.18410
7279.96919,0.37272
7281.89766,0.38618
7283.82613,0.17357
7285.75459,0.04082
7287.68306,-0.03350
7289.61153,-0.17097
7291.54000,-0.19738
7293.46847,0.00934
7295.39694,0.13559
7297.32541,0.06348
7299.25387,0.02485
7301.18234,0.02300
7303.11081,-0.08019
7305.03928,-0.12552
7306.96775,0.01051
7308.89622,0.15583
7310.82469,0.19779
7312.75316,0.21145
7314.68162,0.22637
7316.61009,0.17765
7318.53856,0.11225
7320.46703,0.04200
7322.39550,-0.06644
7324.32397,-0.07949
7326.25244,-0.01164
7328.18090,0.01124
7330.10937,0.05298
7332.03784,0.19378
7333.96631,0.22957
7335.89478,0.07925
7337.82325,-0.10940
7339.75172,-0.20541
7341.68019,-0.17692
7343.60865,-0.19535
7345.53712,-0.27269
7347.46559,-0.34758
7349.39406,-0.33912
7351.32253,-0.22164
7353.25100,-0.23661
7355.17947,-0.39401
7357.10793,-0.30946
7359.03640,0.10187
7360.96487,0.34101
7362.89334,0.34526
7364.82181,0.31368
7366.75028,0.28259
7368.67875,0.30178
7370.60722,0.34048
7372.53568,0.41756
7374.46415,0.58372
7376.39262,0.54539
7378.32109,0.30488
7380.24956,0.24357
7382.17803,0.40708
7384.10650,0.43704
7386.03496,0.20229
7387.96343,0.06738
7389.89190,0.13482
7391.82037,0.15277
7393.74884,0.07193
7395.67731,-0.02015
7397.60578,-0.08620
7399.53425,-0.06368
7401.46271,0.00342
7403.39118,0.00379
7405.31965,0.08511
7407.24812,0.30981
7409.17659,0.37001
7411.10506,0.24646
7413.03353,0.22018
7414.96199,0.25840
7416.89046,0.22368
7418.81893,0.23875
7420.74740,0.33615
7422.67587,0.29825
7424.60434,0.22269
7426.53281,0.27731
7428.46128,0.48733
7430.38974,0.63203
7432.31821,0.46013
7434.24668,0.18088
7436.17515,0.04153
7438.10362,0.09570
7440.03209,0.28728
7441.96056,0.48438
7443.88902,0.46448
7445.81749,0.25677
7447.74596,0.14360
7449.67443,0.16836
7451.60290,0.16132
7453.53137,0.11103
7455.45984,0.05325
7457.38831,-0.05772
7459.31677,-0.01438
7461.24524,0.33191
7463.17371,0.47698
7465.10218,0.31566
7467.03065,0.16860
7468.95912,0.04673
7470.88759,-0.18508
7472.81605,-0.32494
7474.74452,-0.18111
7476.67299,0.06105
7478.60146,0.15098
7480.52993,0.04127
7482.45840,0.00005
7484.38687,0.11818
7486.31533,0.22218
7488.24380,0.23575
7490.17227,0.13214
7492.10074,0.04109
7494.02921,0.14366
7495.95768,0.32531
7497.88615,0.33903
