399.19301,3.73571
401.12148,1.59533
403.04995,0.53136
404.97842,0.08540
406.90689,-0.04693
408.83536,-0.00611
410.76382,0.11600
412.69229,0.26826
414.62076,0.35783
416.54923,0.35010
418.47770,0.27701
420.40617,0.11370
422.33464,-0.02122
424.26311,-0.05852
426.19157,-0.01834
428.12004,0.03106
430.04851,0.05598
431.97698,0.05932
433.90545,0.07636
435.83392,0.09521
437.76239,0.06898
439.69085,0.02541
441.61932,-0.00771
443.54779,-0.09932
445.47626,-0.17237
447.40473,-0.07487
449.33320,0.01603
451.26167,-0.05332
453.19013,-0.16975
455.11860,-0.23044
457.04707,-0.18525
458.97554,-0.04056
460.90401,0.11769
462.83248,0.18535
464.76095,0.15997
466.68942,0.13401
468.61788,0.15172
470.54635,0.16817
472.47482,0.16183
474.40329,0.16128
476.33176,0.08230
478.26023,-0.02448
480.18870,-0.05235
482.11716,0.01874
484.04563,0.05569
485.97410,0.01236
487.90257,-0.04916
489.83104,-0.11164
491.75951,-0.09468
493.68798,-0.04314
495.61645,-0.03384
497.54491,-0.00755
499.47338,0.06687
501.40185,0.10144
503.33032,0.03315
505.25879,-0.05764
507.18726,-0.07526
509.11573,-0.01551
511.04419,0.05296
512.97266,0.11661
514.90113,0.14578
516.82960,0.12714
518.75807,0.09438
520.68654,0.06002
522.61501,0.04615
524.54348,0.05842
526.47194,0.05863
528.40041,0.03635
530.32888,0.02768
532.25735,0.04558
534.18582,0.08482
536.11429,0.09989
538.04276,0.07231
539.97122,0.04499
541.89969,0.02744
543.82816,0.01655
545.75663,0.01471
547.68510,0.03558
549.61357,0.08950
551.54204,0.24666
553.47051,0.42595
555.39897,0.37766
557.32744,0.17254
559.25591,0.06388
561.18438,0.05214
563.11285,0.05716
565.04132,0.07356
566.96979,0.10435
568.89825,0.12980
570.82672,0.12432
572.75519,0.07954
574.68366,0.05483
576.61213,0.09447
578.54060,0.11169
580.46907,0.07562
582.39754,0.06208
584.32600,0.07878
586.25447,0.08087
588.18294,0.06639
590.11141,0.08286
592.03988,0.13459
593.96835,0.15359
595.89682,0.11723
597.82528,0.07788
599.75375,0.07823
601.68222,0.08437
603.61069,0.07332
605.53916,0.06727
607.46763,0.05921
609.39610,0.05313
611.32456,0.07328
613.25303,0.09773
615.18150,0.09354
617.10997,0.07979
619.03844,0.06735
620.96691,0.04235
622.89538,0.01070
624.82385,-0.00901
626.75231,0.00782
628.68078,0.05892
630.60925,0.10134
632.53772,0.11803
634.46619,0.12369
636.39466,0.12211
638.32313,0.10897
640.25159,0.08825
642.18006,0.07526
644.10853,0.08016
646.03700,0.08898
647.96547,0.07069
649.89394,0.04039
651.82241,0.05576
653.75088,0.09579
655.67934,0.10357
657.60781,0.08623
659.53628,0.06609
661.46475,0.05282
663.39322,0.05009
665.32169,0.04733
667.25016,0.04811
669.17862,0.06980
671.10709,0.10117
673.03556,0.12625
674.96403,0.12594
676.89250,0.10960
678.82097,0.11486
680.74944,0.13255
682.67791,0.12548
684.60637,0.09578
686.53484,0.08287
688.46331,0.10278
690.39178,0.12363
692.32025,0.12140
694.24872,0.10485
696.17719,0.08233
698.10565,0.06342
700.03412,0.06319
701.96259,0.07452
703.89106,0.09441
705.81953,0.11251
707.74800,0.12669
709.67647,0.19537
711.60494,0.27200
713.53340,0.23018
715.46187,0.13285
717.39034,0.09662
719.31881,0.09533
721.24728,0.09857
723.17575,0.10603
725.10422,0.09911
727.03268,0.09430
728.96115,0.10264
730.88962,0.09492
732.81809,0.07236
734.74656,0.07187
736.67503,0.09129
738.60350,0.09177
740.53197,0.07434
742.46043,0.07148
744.38890,0.08992
746.31737,0.11389
748.24584,0.12572
750.17431,0.11299
752.10278,0.09180
754.03125,0.08937
755.95971,0.09849
757.88818,0.10566
759.81665,0.11373
761.74512,0.11782
763.67359,0.10949
765.60206,0.09863
767.53053,0.09345
769.45900,0.09158
771.38746,0.09747
773.31593,0.10527
775.24440,0.10350
777.17287,0.09746
779.10134,0.09838
781.02981,0.10713
782.95828,0.11483
784.88674,0.11178
786.81521,0.10650
788.74368,0.11311
790.67215,0.11717
792.60062,0.10719
794.52909,0.09979
796.45756,0.09817
798.38602,0.09187
800.31449,0.09368
802.24296,0.10213
804.17143,0.09731
806.09990,0.08927
808.02837,0.09667
809.95684,0.11463
811.88531,0.12153
813.81377,0.10473
815.74224,0.07787
817.67071,0.07135
819.59918,0.09151
821.52765,0.10731
823.45612,0.09980
825.38459,0.08249
827.31305,0.07411
829.24152,0.08139
831.16999,0.09522
833.09846,0.10171
835.02693,0.10060
836.95540,0.10256
838.88387,0.10893
840.81234,0.11245
842.74080,0.11791
844.66927,0.12343
846.59774,0.11485
848.52621,0.10160
850.45468,0.09825
852.38315,0.10122
854.31162,0.10317
856.24008,0.10724
858.16855,0.12332
860.09702,0.13901
862.02549,0.13081
863.95396,0.10591
865.88243,0.09925
867.81090,0.13248
869.73937,0.15996
871.66783,0.13343
873.59630,0.09876
875.52477,0.09047
877.45324,0.08701
879.38171,0.08865
881.31018,0.09946
883.23865,0.11134
885.16711,0.11244
887.09558,0.09967
889.02405,0.09246
890.95252,0.09660
892.88099,0.10150
894.80946,0.11080
896.73793,0.12092
898.66640,0.11916
900.59486,0.11785
902.52333,0.12421
904.45180,0.12056
906.38027,0.10701
908.30874,0.09835
910.23721,0.10077
912.16568,0.11537
914.09414,0.12568
916.02261,0.11889
917.95108,0.11603
919.87955,0.12807
921.80802,0.13930
923.73649,0.14083
925.66496,0.13012
927.59343,0.11546
929.52189,0.11725
931.45036,0.13267
933.37883,0.14321
935.30730,0.14577
937.23577,0.13981
939.16424,0.12160
941.09271,0.10033
943.02117,0.09423
944.94964,0.10719
946.87811,0.11541
948.80658,0.10809
950.73505,0.10685
952.66352,0.11357
954.59199,0.11713
956.52045,0.12288
958.44892,0.12674
960.37739,0.12046
962.30586,0.11476
964.23433,0.11808
966.16280,0.12027
968.09127,0.11738
970.01974,0.12167
971.94820,0.13296
973.87667,0.13070
975.80514,0.11362
977.73361,0.10370
979.66208,0.10697
981.59055,0.11523
983.51902,0.12244
985.44748,0.12503
987.37595,0.12733
989.30442,0.13907
991.23289,0.14788
993.16136,0.13505
995.08983,0.11579
997.01830,0.10843
998.94677,0.11140
1000.87523,0.11935
1002.80370,0.12617
1004.73217,0.12869
1006.66064,0.13087
1008.58911,0.13539
1010.51758,0.13959
1012.44605,0.14361
1014.37451,0.14413
1016.30298,0.13760
1018.23145,0.13527
1020.15992,0.14319
1022.08839,0.15008
1024.01686,0.16199
1025.94533,0.19406
1027.87380,0.22146
1029.80226,0.20315
1031.73073,0.15286
1033.65920,0.12500
1035.58767,0.12519
1037.51614,0.12424
1039.44461,0.12059
1041.37308,0.12138
1043.30154,0.12573
1045.23001,0.13211
1047.15848,0.13972
1049.08695,0.14128
1051.01542,0.13807
1052.94389,0.14222
1054.87236,0.14610
1056.80083,0.14224
1058.72929,0.14034
1060.65776,0.14450
1062.58623,0.14575
1064.51470,0.13437
1066.44317,0.11404
1068.37164,0.10562
1070.30011,0.12096
1072.22857,0.13860
1074.15704,0.13889
1076.08551,0.13288
1078.01398,0.13710
1079.94245,0.14169
1081.87092,0.13327
1083.79939,0.12732
1085.72786,0.13315
1087.65632,0.14140
1089.58479,0.14552
1091.51326,0.14744
1093.44173,0.15640
1095.37020,0.16516
1097.29867,0.15629
1099.22714,0.13855
1101.15560,0.13155
1103.08407,0.13550
1105.01254,0.13894
1106.94101,0.13467
1108.86948,0.12761
1110.79795,0.12926
1112.72642,0.13974
1114.65489,0.14888
1116.58335,0.14863
1118.51182,0.14379
1120.44029,0.14563
1122.36876,0.14712
1124.29723,0.14190
1126.22570,0.13958
1128.15417,0.13814
1130.08263,0.13365
1132.01110,0.13065
1133.93957,0.12460
1135.86804,0.11176
1137.79651,0.10113
1139.72498,0.10181
1141.65345,0.10915
1143.58191,0.11388
1145.51038,0.11604
1147.43885,0.12154
1149.36732,0.13313
1151.29579,0.14426
1153.22426,0.14641
1155.15273,0.13965
1157.08120,0.13485
1159.00966,0.14058
1160.93813,0.14502
1162.86660,0.14057
1164.79507,0.13911
1166.72354,0.14120
1168.65201,0.13841
1170.58048,0.13454
1172.50894,0.13605
1174.43741,0.14008
1176.36588,0.14170
1178.29435,0.13998
1180.22282,0.13557
1182.15129,0.13083
1184.07976,0.12744
1186.00823,0.12579
1187.93669,0.12733
1189.86516,0.13339
1191.79363,0.14287
1193.72210,0.15046
1195.65057,0.15069
1197.57904,0.14862
1199.50751,0.14986
1201.43597,0.14810
1203.36444,0.14266
1205.29291,0.13908
1207.22138,0.13710
1209.14985,0.13466
1211.07832,0.13216
1213.00679,0.13320
1214.93526,0.13532
1216.86372,0.13123
1218.79219,0.12533
1220.72066,0.12698
1222.64913,0.13247
1224.57760,0.13426
1226.50607,0.13739
1228.43454,0.14450
1230.36300,0.14736
1232.29147,0.14390
1234.21994,0.14035
1236.14841,0.14117
1238.07688,0.14337
1240.00535,0.14387
1241.93382,0.14212
1243.86229,0.13665
1245.79075,0.13523
1247.71922,0.14321
1249.64769,0.15059
1251.57616,0.15046
1253.50463,0.14613
1255.43310,0.14184
1257.36157,0.14030
1259.29003,0.14242
1261.21850,0.14604
1263.14697,0.14681
1265.07544,0.14343
1267.00391,0.14179
1268.93238,0.14440
1270.86085,0.14728
1272.78932,0.14930
1274.71778,0.15060
1276.64625,0.15396
1278.57472,0.15936
1280.50319,0.15894
1282.43166,0.15547
1284.36013,0.15800
1286.28860,0.16054
1288.21706,0.15816
1290.14553,0.15526
1292.07400,0.15274
1294.00247,0.15062
1295.93094,0.14883
1297.85941,0.14539
1299.78788,0.13877
1301.71634,0.13039
1303.64481,0.12287
1305.57328,0.12356
1307.50175,0.13734
1309.43022,0.15315
1311.35869,0.16154
1313.28716,0.16236
1315.21563,0.15941
1317.14409,0.15847
1319.07256,0.15638
1321.00103,0.15110
1322.92950,0.15062
1324.85797,0.15238
1326.78644,0.14754
1328.71491,0.14091
1330.64337,0.13885
1332.57184,0.14313
1334.50031,0.14979
1336.42878,0.15246
1338.35725,0.15502
1340.28572,0.15427
1342.21419,0.14829
1344.14266,0.14564
1346.07112,0.14549
1347.99959,0.14818
1349.92806,0.15233
1351.85653,0.15354
1353.78500,0.15590
1355.71347,0.15839
1357.64194,0.15611
1359.57040,0.15604
1361.49887,0.16572
1363.42734,0.17302
1365.35581,0.16728
1367.28428,0.16073
1369.21275,0.16061
1371.14122,0.16637
1373.06969,0.17504
1374.99815,0.17672
1376.92662,0.16976
1378.85509,0.16438
1380.78356,0.16358
1382.71203,0.16439
1384.64050,0.16415
1386.56897,0.16272
1388.49743,0.16244
1390.42590,0.16568
1392.35437,0.17231
1394.28284,0.17926
1396.21131,0.18116
1398.13978,0.17690
1400.06825,0.16784
1401.99672,0.16047
1403.92518,0.16090
1405.85365,0.16595
1407.78212,0.16771
1409.71059,0.16485
1411.63906,0.16424
1413.56753,0.17264
1415.49600,0.18493
1417.42446,0.19189
1419.35293,0.18708
1421.28140,0.17920
1423.20987,0.17500
1425.13834,0.16891
1427.06681,0.16727
1428.99528,0.17501
1430.92375,0.18117
1432.85221,0.17971
1434.78068,0.17832
1436.70915,0.17857
1438.63762,0.17295
1440.56609,0.16615
1442.49456,0.16541
1444.42303,0.17084
1446.35149,0.17780
1448.27996,0.17698
1450.20843,0.16863
1452.13690,0.16831
1454.06537,0.18339
1455.99384,0.20978
1457.92231,0.21753
1459.85077,0.19694
1461.77924,0.18385
1463.70771,0.18249
1465.63618,0.18467
1467.56465,0.18290
1469.49312,0.18728
1471.42159,0.20317
1473.35006,0.20960
1475.27852,0.19810
1477.20699,0.18989
1479.13546,0.18747
1481.06393,0.18383
1482.99240,0.17524
1484.92087,0.17206
1486.84934,0.18445
1488.77780,0.20517
1490.70627,0.20636
1492.63474,0.19111
1494.56321,0.18556
1496.49168,0.19309
1498.42015,0.19575
1500.34862,0.19300
1502.27709,0.20048
1504.20555,0.22234
1506.13402,0.25725
1508.06249,0.25397
1509.99096,0.21712
1511.91943,0.19485
1513.84790,0.19304
1515.77637,0.20829
1517.70483,0.22375
1519.63330,0.23302
1521.56177,0.23698
1523.49024,0.22351
1525.41871,0.20835
1527.34718,0.20057
1529.27565,0.20097
1531.20412,0.21222
1533.13258,0.22133
1535.06105,0.21039
1536.98952,0.20886
1538.91799,0.24499
1540.84646,0.27981
1542.77493,0.24909
1544.70340,0.21615
1546.63186,0.20003
1548.56033,0.19542
1550.48880,0.19286
1552.41727,0.19228
1554.34574,0.20315
1556.27421,0.22410
1558.20268,0.24276
1560.13115,0.22594
1562.05961,0.20719
1563.98808,0.20184
1565.91655,0.20098
1567.84502,0.20246
1569.77349,0.19933
1571.70196,0.19256
1573.63043,0.19703
1575.55889,0.20984
1577.48736,0.20690
1579.41583,0.19392
1581.34430,0.18881
1583.27277,0.18613
1585.20124,0.18047
1587.12971,0.17685
1589.05818,0.17918
1590.98664,0.18339
1592.91511,0.18380
1594.84358,0.18153
1596.77205,0.17966
1598.70052,0.18006
1600.62899,0.18275
1602.55746,0.18424
1604.48592,0.18331
1606.41439,0.18223
1608.34286,0.18272
1610.27133,0.18481
1612.19980,0.18724
1614.12827,0.19174
1616.05674,0.19854
1617.98521,0.19850
1619.91367,0.19949
1621.84214,0.21032
1623.77061,0.21561
1625.69908,0.20758
1627.62755,0.20058
1629.55602,0.19674
1631.48449,0.19677
1633.41295,0.20502
1635.34142,0.21863
1637.26989,0.21730
1639.19836,0.20741
1641.12683,0.20185
1643.05530,0.20379
1644.98377,0.22420
1646.91223,0.25433
1648.84070,0.24886
1650.76917,0.23748
1652.69764,0.23977
1654.62611,0.21973
1656.55458,0.19414
1658.48305,0.16318
1660.41152,0.12748
1662.33998,0.13495
1664.26845,0.18192
1666.19692,0.20557
1668.12539,0.21639
1670.05386,0.22509
1671.98233,0.22312
1673.91080,0.22407
1675.83926,0.22180
1677.76773,0.21270
1679.69620,0.21065
1681.62467,0.22286
1683.55314,0.24428
1685.48161,0.23619
1687.41008,0.21287
1689.33855,0.20129
1691.26701,0.19613
1693.19548,0.19846
1695.12395,0.21694
1697.05242,0.24192
1698.98089,0.24647
1700.90936,0.22926
1702.83783,0.21728
1704.76629,0.21737
1706.69476,0.21217
1708.62323,0.19935
1710.55170,0.19036
1712.48017,0.18985
1714.40864,0.20167
1716.33711,0.21970
1718.26558,0.21716
1720.19404,0.20261
1722.12251,0.19615
1724.05098,0.19143
1725.97945,0.18579
1727.90792,0.18736
1729.83639,0.19720
1731.76486,0.21109
1733.69332,0.21733
1735.62179,0.20347
1737.55026,0.19517
1739.47873,0.19815
1741.40720,0.20183
1743.33567,0.20317
1745.26414,0.20493
1747.19261,0.20971
1749.12107,0.21397
1751.04954,0.20492
1752.97801,0.19125
1754.90648,0.18716
1756.83495,0.18965
1758.76342,0.19317
1760.69189,0.19586
1762.62035,0.19491
1764.54882,0.19210
1766.47729,0.19416
1768.40576,0.20258
1770.33423,0.21314
1772.26270,0.21442
1774.19117,0.20173
1776.11964,0.19159
1778.04810,0.18992
1779.97657,0.19137
1781.90504,0.18934
1783.83351,0.18678
1785.76198,0.18561
1787.69045,0.18396
1789.61892,0.18836
1791.54738,0.19912
1793.47585,0.20013
1795.40432,0.19403
1797.33279,0.19453
1799.26126,0.20007
1801.18973,0.19985
1803.11820,0.19140
1805.04666,0.18570
1806.97513,0.18678
1808.90360,0.19014
1810.83207,0.19132
1812.76054,0.18832
1814.68901,0.18333
1816.61748,0.18702
1818.54595,0.19940
1820.47441,0.19874
1822.40288,0.18848
1824.33135,0.18760
1826.25982,0.19062
1828.18829,0.19384
1830.11676,0.19728
1832.04523,0.19425
1833.97369,0.19014
1835.90216,0.18800
1837.83063,0.18471
1839.75910,0.18233
1841.68757,0.18802
1843.61604,0.19942
1845.54451,0.20415
1847.47298,0.20165
1849.40144,0.19597
1851.32991,0.18967
1853.25838,0.18653
1855.18685,0.18501
1857.11532,0.18285
1859.04379,0.18214
1860.97226,0.18408
1862.90072,0.18619
1864.82919,0.18952
1866.75766,0.19834
1868.68613,0.20518
1870.61460,0.19671
1872.54307,0.18385
1874.47154,0.17829
1876.40001,0.17832
1878.32847,0.17934
1880.25694,0.17944
1882.18541,0.17951
1884.11388,0.18067
1886.04235,0.18243
1887.97082,0.18493
1889.89929,0.18696
1891.82775,0.18766
1893.75622,0.18800
1895.68469,0.18589
1897.61316,0.18134
1899.54163,0.17947
1901.47010,0.18298
1903.39857,0.18820
1905.32704,0.18964
1907.25550,0.18731
1909.18397,0.18374
1911.11244,0.18106
1913.04091,0.18241
1914.96938,0.18830
1916.89785,0.19391
1918.82632,0.19458
1920.75478,0.19541
1922.68325,0.19750
1924.61172,0.19355
1926.54019,0.18791
1928.46866,0.18759
1930.39713,0.18928
1932.32560,0.18900
1934.25407,0.18660
1936.18253,0.18334
1938.11100,0.18112
1940.03947,0.18211
1941.96794,0.18640
1943.89641,0.18810
1945.82488,0.18441
1947.75335,0.18098
1949.68181,0.18214
1951.61028,0.18534
1953.53875,0.18560
1955.46722,0.18416
1957.39569,0.18410
1959.32416,0.18380
1961.25263,0.18200
1963.18110,0.18160
1965.10956,0.18443
1967.03803,0.18782
1968.96650,0.18930
1970.89497,0.18839
1972.82344,0.18460
1974.75191,0.17999
1976.68038,0.17919
1978.60884,0.18175
1980.53731,0.18341
1982.46578,0.18390
1984.39425,0.18428
1986.32272,0.18527
1988.25119,0.18819
1990.17966,0.19169
1992.10812,0.19148
1994.03659,0.18864
1995.96506,0.18941
1997.89353,0.19103
1999.82200,0.18862
2001.75047,0.18649
2003.67894,0.18691
2005.60741,0.18753
2007.53587,0.18801
2009.46434,0.18714
2011.39281,0.18477
2013.32128,0.18443
2015.24975,0.18716
2017.17822,0.18930
2019.10669,0.18945
2021.03515,0.18967
2022.96362,0.18852
2024.89209,0.18422
2026.82056,0.18128
2028.74903,0.18405
2030.67750,0.18823
2032.60597,0.18887
2034.53444,0.18812
2036.46290,0.18815
2038.39137,0.18692
2040.31984,0.18412
2042.24831,0.18445
2044.17678,0.18937
2046.10525,0.19261
2048.03372,0.19036
2049.96218,0.18808
2051.89065,0.18945
2053.81912,0.19058
2055.74759,0.18861
2057.67606,0.18383
2059.60453,0.18139
2061.53300,0.18486
2063.46147,0.18905
2065.38993,0.18948
2067.31840,0.18857
2069.24687,0.18937
2071.17534,0.18964
2073.10381,0.18864
2075.03228,0.18874
2076.96075,0.18953
2078.88921,0.18991
2080.81768,0.18930
2082.74615,0.18822
2084.67462,0.18792
2086.60309,0.18693
2088.53156,0.18531
2090.46003,0.18736
2092.38850,0.19123
2094.31696,0.19227
2096.24543,0.19289
2098.17390,0.19378
2100.10237,0.19267
2102.03084,0.19016
2103.95931,0.18666
2105.88778,0.18255
2107.81624,0.18029
2109.74471,0.18214
2111.67318,0.18776
2113.60165,0.19273
2115.53012,0.19354
2117.45859,0.19276
2119.38706,0.19344
2121.31553,0.19432
2123.24399,0.19252
2125.17246,0.19097
2127.10093,0.19326
2129.02940,0.19502
2130.95787,0.19624
2132.88634,0.20031
2134.81481,0.20152
2136.74327,0.19621
2138.67174,0.19081
2140.60021,0.18849
2142.52868,0.18630
2144.45715,0.18473
2146.38562,0.18536
2148.31409,0.18708
2150.24255,0.18935
2152.17102,0.19224
2154.09949,0.19346
2156.02796,0.19117
2157.95643,0.18952
2159.88490,0.19201
2161.81337,0.19509
2163.74184,0.19612
2165.67030,0.19660
2167.59877,0.19674
2169.52724,0.19585
2171.45571,0.19288
2173.38418,0.18876
2175.31265,0.18698
2177.24112,0.18814
2179.16958,0.19090
2181.09805,0.19336
2183.02652,0.19375
2184.95499,0.19210
2186.88346,0.18909
2188.81193,0.18609
2190.74040,0.18521
2192.66887,0.18730
2194.59733,0.19010
2196.52580,0.19239
2198.45427,0.19425
2200.38274,0.19221
2202.31121,0.18708
2204.23968,0.18539
2206.16815,0.18668
2208.09661,0.18836
2210.02508,0.19097
2211.95355,0.19100
2213.88202,0.18692
2215.81049,0.18377
2217.73896,0.18490
2219.66743,0.18736
2221.59590,0.18832
2223.52436,0.18944
2225.45283,0.19128
2227.38130,0.19242
2229.30977,0.19202
2231.23824,0.19107
2233.16671,0.19193
2235.09518,0.19332
2237.02364,0.19199
2238.95211,0.18796
2240.88058,0.18488
2242.80905,0.18649
2244.73752,0.19085
2246.66599,0.19360
2248.59446,0.19356
2250.52293,0.19220
2252.45139,0.19021
2254.37986,0.18807
2256.30833,0.19084
2258.23680,0.19812
2260.16527,0.20135
2262.09374,0.19888
2264.02221,0.19493
2265.95067,0.19272
2267.87914,0.19307
2269.80761,0.19414
2271.73608,0.19496
2273.66455,0.19590
2275.59302,0.19696
2277.52149,0.19561
2279.44996,0.19028
2281.37842,0.18657
2283.30689,0.18987
2285.23536,0.19766
2287.16383,0.20284
2289.09230,0.20231
2291.02077,0.19708
2292.94924,0.18851
2294.87770,0.18771
2296.80617,0.19844
2298.73464,0.20597
2300.66311,0.20709
2302.59158,0.20681
2304.52005,0.20632
2306.44852,0.20738
2308.37699,0.20669
2310.30545,0.20444
2312.23392,0.20464
2314.16239,0.20276
2316.09086,0.19720
2318.01933,0.19693
2319.94780,0.20451
2321.87627,0.21423
2323.80473,0.22220
2325.73320,0.22302
2327.66167,0.22264
2329.59014,0.23403
2331.51861,0.24629
2333.44708,0.24155
2335.37555,0.23121
2337.30401,0.23114
2339.23248,0.22986
2341.16095,0.22405
2343.08942,0.23539
2345.01789,0.24579
2346.94636,0.23547
2348.87483,0.22950
2350.80330,0.23851
2352.73176,0.25340
2354.66023,0.25589
2356.58870,0.23763
2358.51717,0.21420
2360.44564,0.21342
2362.37411,0.23746
2364.30258,0.24690
2366.23104,0.22839
2368.15951,0.22036
2370.08798,0.23272
2372.01645,0.23331
2373.94492,0.21810
2375.87339,0.20917
2377.80186,0.20884
2379.73033,0.20685
2381.65879,0.20257
2383.58726,0.20019
2385.51573,0.19915
2387.44420,0.19723
2389.37267,0.19522
2391.30114,0.19422
2393.22961,0.19474
2395.15807,0.19697
2397.08654,0.19824
2399.01501,0.19684
2400.94348,0.19500
2402.87195,0.19464
2404.80042,0.19417
2406.72889,0.19259
2408.65736,0.19361
2410.58582,0.19743
2412.51429,0.20026
2414.44276,0.20074
2416.37123,0.19740
2418.29970,0.19299
2420.22817,0.19183
2422.15664,0.19193
2424.08510,0.19147
2426.01357,0.19121
2427.94204,0.19159
2429.87051,0.19404
2431.79898,0.19862
2433.72745,0.20035
2435.65592,0.19672
2437.58439,0.19337
2439.51285,0.19468
2441.44132,0.19585
2443.36979,0.19201
2445.29826,0.18863
2447.22673,0.19277
2449.15520,0.20256
2451.08367,0.21002
2453.01213,0.20960
2454.94060,0.20162
2456.86907,0.19331
2458.79754,0.19278
2460.72601,0.19630
2462.65448,0.19679
2464.58295,0.19590
2466.51142,0.19759
2468.43988,0.19945
2470.36835,0.19816
2472.29682,0.19673
2474.22529,0.19475
2476.15376,0.19130
2478.08223,0.19057
2480.01070,0.19193
2481.93916,0.19266
2483.86763,0.19337
2485.79610,0.19378
2487.72457,0.19221
2489.65304,0.18973
2491.58151,0.18975
2493.50998,0.19326
2495.43844,0.19726
2497.36691,0.19831
2499.29538,0.19711
2501.22385,0.19560
2503.15232,0.19409
2505.08079,0.19359
2507.00926,0.19556
2508.93773,0.19973
2510.86619,0.20263
2512.79466,0.20143
2514.72313,0.19855
2516.65160,0.19712
2518.58007,0.19628
2520.50854,0.19390
2522.43701,0.19171
2524.36547,0.19363
2526.29394,0.19736
2528.22241,0.19842
2530.15088,0.19893
2532.07935,0.20092
2534.00782,0.20178
2535.93629,0.20057
2537.86476,0.19893
2539.79322,0.19711
2541.72169,0.19549
2543.65016,0.19602
2545.57863,0.19774
2547.50710,0.19866
2549.43557,0.19871
2551.36404,0.19695
2553.29250,0.19324
2555.22097,0.19133
2557.14944,0.19397
2559.07791,0.19702
2561.00638,0.19667
2562.93485,0.19368
2564.86332,0.18996
2566.79179,0.18871
2568.72025,0.19013
2570.64872,0.19182
2572.57719,0.19273
2574.50566,0.19330
2576.43413,0.19513
2578.36260,0.19767
2580.29107,0.19813
2582.21953,0.19631
2584.14800,0.19609
2586.07647,0.19903
2588.00494,0.20099
2589.93341,0.20050
2591.86188,0.20021
2593.79035,0.19874
2595.71882,0.19472
2597.64728,0.19193
2599.57575,0.19086
2601.50422,0.18980
2603.43269,0.19271
2605.36116,0.19898
2607.28963,0.19790
2609.21810,0.18939
2611.14656,0.18785
2613.07503,0.19484
2615.00350,0.19872
2616.93197,0.19777
2618.86044,0.19679
2620.78891,0.19643
2622.71738,0.19676
2624.64585,0.19790
2626.57431,0.19779
2628.50278,0.19732
2630.43125,0.19992
2632.35972,0.20345
2634.28819,0.20459
2636.21666,0.20479
2638.14513,0.20526
2640.07359,0.20475
2642.00206,0.20219
2643.93053,0.20015
2645.85900,0.20101
2647.78747,0.20269
2649.71594,0.20284
2651.64441,0.20106
2653.57288,0.19749
2655.50134,0.19404
2657.42981,0.19574
2659.35828,0.20224
2661.28675,0.20493
2663.21522,0.20279
2665.14369,0.20087
2667.07216,0.19964
2669.00062,0.19973
2670.92909,0.20162
2672.85756,0.20326
2674.78603,0.20314
2676.71450,0.20242
2678.64297,0.20357
2680.57144,0.20562
2682.49990,0.20658
2684.42837,0.20578
2686.35684,0.20308
2688.28531,0.20223
2690.21378,0.20561
2692.14225,0.20736
2694.07072,0.20392
2695.99919,0.20016
2697.92765,0.20057
2699.85612,0.20183
2701.78459,0.19905
2703.71306,0.19604
2705.64153,0.19699
2707.57000,0.20008
2709.49847,0.20233
2711.42693,0.20153
2713.35540,0.19901
2715.28387,0.19864
2717.21234,0.20256
2719.14081,0.20861
2721.06928,0.21255
2722.99775,0.21257
2724.92622,0.21029
2726.85468,0.20844
2728.78315,0.20750
2730.71162,0.20576
2732.64009,0.20338
2734.56856,0.20284
2736.49703,0.20487
2738.42550,0.20796
2740.35396,0.20948
2742.28243,0.20885
2744.21090,0.20772
2746.13937,0.20688
2748.06784,0.20709
2749.99631,0.20771
2751.92478,0.20603
2753.85325,0.20119
2755.78171,0.19673
2757.71018,0.19639
2759.63865,0.20136
2761.56712,0.20842
2763.49559,0.20992
2765.42406,0.20727
2767.35253,0.20877
2769.28099,0.21274
2771.20946,0.21335
2773.13793,0.21098
2775.06640,0.20773
2776.99487,0.20666
2778.92334,0.20863
2780.85181,0.20871
2782.78028,0.20658
2784.70874,0.20468
2786.63721,0.20205
2788.56568,0.19942
2790.49415,0.19902
2792.42262,0.20098
2794.35109,0.20357
2796.27956,0.20605
2798.20802,0.20734
2800.13649,0.20596
2802.06496,0.20277
2803.99343,0.20083
2805.92190,0.20288
2807.85037,0.20735
2809.77884,0.21120
2811.70731,0.21193
2813.63577,0.20973
2815.56424,0.21060
2817.49271,0.21611
2819.42118,0.21977
2821.34965,0.21748
2823.27812,0.21096
2825.20659,0.20534
2827.13505,0.20466
2829.06352,0.20680
2830.99199,0.20878
2832.92046,0.21180
2834.84893,0.21789
2836.77740,0.22543
2838.70587,0.22612
2840.63433,0.21857
2842.56280,0.21359
2844.49127,0.21414
2846.41974,0.21499
2848.34821,0.21423
2850.27668,0.21338
2852.20515,0.21418
2854.13362,0.21483
2856.06208,0.21374
2857.99055,0.21199
2859.91902,0.21230
2861.84749,0.21429
2863.77596,0.21275
2865.70443,0.21149
2867.63290,0.21593
2869.56136,0.21879
2871.48983,0.21695
2873.41830,0.21506
2875.34677,0.21269
2877.27524,0.20950
2879.20371,0.20833
2881.13218,0.20845
2883.06065,0.20753
2884.98911,0.20656
2886.91758,0.20819
2888.84605,0.21192
2890.77452,0.21304
2892.70299,0.21058
2894.63146,0.21103
2896.55993,0.21620
2898.48839,0.21813
2900.41686,0.21397
2902.34533,0.21087
2904.27380,0.21065
2906.20227,0.21009
2908.13074,0.21036
2910.05921,0.21113
2911.98768,0.21204
2913.91614,0.21319
2915.84461,0.21177
2917.77308,0.21011
2919.70155,0.21179
2921.63002,0.21534
2923.55849,0.21699
2925.48696,0.21178
2927.41542,0.20453
2929.34389,0.20428
2931.27236,0.20802
2933.20083,0.20815
2935.12930,0.20154
2937.05777,0.19602
2938.98624,0.20098
2940.91471,0.20863
2942.84317,0.20932
2944.77164,0.20264
2946.70011,0.19276
2948.62858,0.19118
2950.55705,0.19973
2952.48552,0.20616
2954.41399,0.20506
2956.34245,0.19697
2958.27092,0.19088
2960.19939,0.19828
2962.12786,0.21026
2964.05633,0.21435
2965.98480,0.20876
2967.91327,0.19975
2969.84174,0.20180
2971.77020,0.21321
2973.69867,0.21891
2975.62714,0.21453
2977.55561,0.20630
2979.48408,0.20512
2981.41255,0.21339
2983.34102,0.22068
2985.26948,0.21868
2987.19795,0.21178
2989.12642,0.21168
2991.05489,0.21939
2992.98336,0.22371
2994.91183,0.22236
2996.84030,0.22092
2998.76877,0.21791
3000.69723,0.21303
3002.62570,0.21077
3004.55417,0.20992
3006.48264,0.20833
3008.41111,0.20914
3010.33958,0.20783
3012.26805,0.18987
3014.19651,0.15339
3016.12498,0.12526
3018.05345,0.13764
3019.98192,0.18000
3021.91039,0.21120
3023.83886,0.21896
3025.76733,0.21872
3027.69579,0.21971
3029.62426,0.22214
3031.55273,0.22271
3033.48120,0.21896
3035.40967,0.21560
3037.33814,0.21524
3039.26661,0.21331
3041.19508,0.20917
3043.12354,0.20789
3045.05201,0.20975
3046.98048,0.21098
3048.90895,0.21257
3050.83742,0.21568
3052.76589,0.21457
3054.69436,0.20684
3056.62282,0.20159
3058.55129,0.20701
3060.47976,0.21676
3062.40823,0.21921
3064.33670,0.21294
3066.26517,0.20817
3068.19364,0.21206
3070.12211,0.21645
3072.05057,0.21456
3073.97904,0.20659
3075.90751,0.19584
3077.83598,0.19583
3079.76445,0.20816
3081.69292,0.21862
3083.62139,0.21855
3085.54985,0.21082
3087.47832,0.20841
3089.40679,0.21252
3091.33526,0.21343
3093.26373,0.21015
3095.19220,0.21095
3097.12067,0.21954
3099.04914,0.22215
3100.97760,0.21046
3102.90607,0.19732
3104.83454,0.19742
3106.76301,0.20816
3108.69148,0.21520
3110.61995,0.21190
3112.54842,0.20776
3114.47688,0.21621
3116.40535,0.22868
3118.33382,0.22842
3120.26229,0.21760
3122.19076,0.20724
3124.11923,0.20758
3126.04770,0.21521
3127.97617,0.21715
3129.90463,0.21379
3131.83310,0.21416
3133.76157,0.22116
3135.69004,0.22738
3137.61851,0.22295
3139.54698,0.21128
3141.47545,0.20542
3143.40391,0.20777
3145.33238,0.21037
3147.26085,0.20903
3149.18932,0.20721
3151.11779,0.20994
3153.04626,0.21632
3154.97473,0.22115
3156.90320,0.22377
3158.83166,0.22820
3160.76013,0.23168
3162.68860,0.22985
3164.61707,0.22689
3166.54554,0.22411
3168.47401,0.22013
3170.40248,0.22005
3172.33094,0.22288
3174.25941,0.22253
3176.18788,0.22329
3178.11635,0.22604
3180.04482,0.22590
3181.97329,0.22689
3183.90176,0.22813
3185.83022,0.22687
3187.75869,0.22805
3189.68716,0.22981
3191.61563,0.22925
3193.54410,0.22871
3195.47257,0.23054
3197.40104,0.23388
3199.32951,0.23293
3201.25797,0.22781
3203.18644,0.22512
3205.11491,0.22676
3207.04338,0.22512
3208.97185,0.21505
3210.90032,0.21021
3212.82879,0.21929
3214.75725,0.22848
3216.68572,0.22767
3218.61419,0.22137
3220.54266,0.21726
3222.47113,0.22001
3224.39960,0.22542
3226.32807,0.22655
3228.25654,0.22522
3230.18500,0.22360
3232.11347,0.22398
3234.04194,0.23008
3235.97041,0.23334
3237.89888,0.22896
3239.82735,0.22617
3241.75582,0.23043
3243.68428,0.23779
3245.61275,0.23652
3247.54122,0.22660
3249.46969,0.22172
3251.39816,0.22221
3253.32663,0.22176
3255.25510,0.22182
3257.18357,0.22300
3259.11203,0.22228
3261.04050,0.21867
3262.96897,0.21643
3264.89744,0.21725
3266.82591,0.21729
3268.75438,0.21613
3270.68285,0.21516
3272.61131,0.21482
3274.53978,0.21495
3276.46825,0.21258
3278.39672,0.20867
3280.32519,0.21053
3282.25366,0.21766
3284.18213,0.22099
3286.11060,0.22036
3288.03906,0.22099
3289.96753,0.22041
3291.89600,0.21575
3293.82447,0.21262
3295.75294,0.21551
3297.68141,0.21703
3299.60988,0.21129
3301.53834,0.20591
3303.46681,0.20496
3305.39528,0.20523
3307.32375,0.21044
3309.25222,0.21862
3311.18069,0.21907
3313.10916,0.21413
3315.03763,0.21566
3316.96609,0.22486
3318.89456,0.22854
3320.82303,0.22063
3322.75150,0.21288
3324.67997,0.21698
3326.60844,0.22771
3328.53691,0.23069
3330.46537,0.22402
3332.39384,0.21652
3334.32231,0.21463
3336.25078,0.21929
3338.17925,0.22559
3340.10772,0.22681
3342.03619,0.22448
3343.96466,0.22591
3345.89312,0.22971
3347.82159,0.23233
3349.75006,0.23257
3351.67853,0.22501
3353.60700,0.21343
3355.53547,0.21002
3357.46394,0.21465
3359.39240,0.21835
3361.32087,0.21836
3363.24934,0.22005
3365.17781,0.22572
3367.10628,0.22965
3369.03475,0.23096
3370.96322,0.22806
3372.89168,0.22057
3374.82015,0.21728
3376.74862,0.21661
3378.67709,0.21508
3380.60556,0.21837
3382.53403,0.22374
3384.46250,0.22309
3386.39097,0.21754
3388.31943,0.21165
3390.24790,0.20596
3392.17637,0.20437
3394.10484,0.20835
3396.03331,0.21500
3397.96178,0.22361
3399.89025,0.22933
3401.81871,0.22992
3403.74718,0.22395
3405.67565,0.21213
3407.60412,0.20797
3409.53259,0.21503
3411.46106,0.22080
3413.38953,0.22242
3415.31800,0.22436
3417.24646,0.22535
3419.17493,0.22534
3421.10340,0.22559
3423.03187,0.22372
3424.96034,0.22029
3426.88881,0.21824
3428.81728,0.21742
3430.74574,0.21470
3432.67421,0.21058
3434.60268,0.20691
3436.53115,0.20240
3438.45962,0.19958
3440.38809,0.20210
3442.31656,0.20976
3444.24503,0.21960
3446.17349,0.22629
3448.10196,0.22443
3450.03043,0.21727
3451.95890,0.21483
3453.88737,0.21763
3455.81584,0.21743
3457.74431,0.20917
3459.67277,0.19565
3461.60124,0.18718
3463.52971,0.18732
3465.45818,0.18676
3467.38665,0.18654
3469.31512,0.19163
3471.24359,0.19353
3473.17206,0.18924
3475.10052,0.18337
3477.02899,0.18175
3478.95746,0.19158
3480.88593,0.20331
3482.81440,0.20056
3484.74287,0.19190
3486.67134,0.19221
3488.59980,0.19750
3490.52827,0.20046
3492.45674,0.19970
3494.38521,0.19578
3496.31368,0.19221
3498.24215,0.18895
3500.17062,0.18848
3502.09909,0.19629
3504.02755,0.20261
3505.95602,0.19807
3507.88449,0.19186
3509.81296,0.19060
3511.74143,0.18895
3513.66990,0.18362
3515.59837,0.18073
3517.52683,0.18447
3519.45530,0.19130
3521.38377,0.19692
3523.31224,0.19837
3525.24071,0.19389
3527.16918,0.18868
3529.09765,0.18761
3531.02611,0.18660
3532.95458,0.18205
3534.88305,0.17721
3536.81152,0.17434
3538.73999,0.17114
3540.66846,0.17169
3542.59693,0.17849
3544.52540,0.18216
3546.45386,0.17877
3548.38233,0.17418
3550.31080,0.17233
3552.23927,0.17360
3554.16774,0.17449
3556.09621,0.17259
3558.02468,0.17208
3559.95314,0.17631
3561.88161,0.17941
3563.81008,0.17919
3565.73855,0.18319
3567.66702,0.18542
3569.59549,0.17424
3571.52396,0.16506
3573.45243,0.16700
3575.38089,0.17385
3577.30936,0.18072
3579.23783,0.18534
3581.16630,0.18238
3583.09477,0.17338
3585.02324,0.16849
3586.95171,0.17071
3588.88017,0.17099
3590.80864,0.17108
3592.73711,0.17672
3594.66558,0.18399
3596.59405,0.18262
3598.52252,0.16958
3600.45099,0.15540
3602.37946,0.15132
3604.30792,0.15379
3606.23639,0.15603
3608.16486,0.15840
3610.09333,0.15976
3612.02180,0.16429
3613.95027,0.17645
3615.87874,0.18468
3617.80720,0.18055
3619.73567,0.16714
3621.66414,0.15677
3623.59261,0.15539
3625.52108,0.16282
3627.44955,0.17707
3629.37802,0.17979
3631.30649,0.16540
3633.23495,0.15369
3635.16342,0.14578
3637.09189,0.14234
3639.02036,0.14520
3640.94883,0.15116
3642.87730,0.15615
3644.80577,0.16099
3646.73423,0.16867
3648.66270,0.17365
3650.59117,0.16175
3652.51964,0.14907
3654.44811,0.14374
3656.37658,0.13965
3658.30505,0.13637
3660.23352,0.13500
3662.16198,0.13402
3664.09045,0.13338
3666.01892,0.13512
3667.94739,0.14292
3669.87586,0.15016
3671.80433,0.14920
3673.73280,0.15610
3675.66126,0.16752
3677.58973,0.16266
3679.51820,0.15347
3681.44667,0.14592
3683.37514,0.13687
3685.30361,0.12984
3687.23208,0.13340
3689.16055,0.14757
3691.08901,0.14827
3693.01748,0.13757
3694.94595,0.13284
3696.87442,0.12934
3698.80289,0.12584
3700.73136,0.13196
3702.65983,0.14269
3704.58829,0.14669
3706.51676,0.15055
3708.44523,0.15953
3710.37370,0.16818
3712.30217,0.16189
3714.23064,0.14882
3716.15911,0.14957
3718.08757,0.15801
3720.01604,0.15726
3721.94451,0.14767
3723.87298,0.14177
3725.80145,0.14108
3727.72992,0.14188
3729.65839,0.14856
3731.58686,0.16248
3733.51532,0.17525
3735.44379,0.17531
3737.37226,0.16388
3739.30073,0.15458
3741.22920,0.15111
3743.15767,0.15437
3745.08614,0.15791
3747.01460,0.15461
3748.94307,0.15460
3750.87154,0.15585
3752.80001,0.14716
3754.72848,0.13816
3756.65695,0.14047
3758.58542,0.14840
3760.51389,0.14582
3762.44235,0.13888
3764.37082,0.13808
3766.29929,0.14128
3768.22776,0.14406
3770.15623,0.14070
3772.08470,0.13129
3774.01317,0.12585
3775.94163,0.12730
3777.87010,0.13242
3779.79857,0.13475
3781.72704,0.13426
3783.65551,0.13512
3785.58398,0.13243
3787.51245,0.12831
3789.44092,0.12902
3791.36938,0.13044
3793.29785,0.13119
3795.22632,0.13432
3797.15479,0.13419
3799.08326,0.13126
3801.01173,0.13531
3802.94020,0.13372
3804.86866,0.12453
3806.79713,0.12276
3808.72560,0.12573
3810.65407,0.12781
3812.58254,0.13222
3814.51101,0.13994
3816.43948,0.14744
3818.36795,0.15066
3820.29641,0.14893
3822.22488,0.13993
3824.15335,0.13169
3826.08182,0.12533
3828.01029,0.11946
3829.93876,0.11971
3831.86723,0.12889
3833.79569,0.14195
3835.72416,0.15488
3837.65263,0.16819
3839.58110,0.16909
3841.50957,0.15373
3843.43804,0.13774
3845.36651,0.12807
3847.29498,0.12371
3849.22344,0.12403
3851.15191,0.13059
3853.08038,0.14453
3855.00885,0.14496
3856.93732,0.13049
3858.86579,0.11920
3860.79426,0.11710
3862.72272,0.12845
3864.65119,0.14418
3866.57966,0.14498
3868.50813,0.13994
3870.43660,0.14257
3872.36507,0.14836
3874.29354,0.14917
3876.22200,0.14589
3878.15047,0.14595
3880.07894,0.14438
3882.00741,0.13035
3883.93588,0.11746
3885.86435,0.11729
3887.79282,0.12317
3889.72129,0.12397
3891.64975,0.11966
3893.57822,0.11811
3895.50669,0.11914
3897.43516,0.11942
3899.36363,0.12072
3901.29210,0.12566
3903.22057,0.13103
3905.14903,0.12405
3907.07750,0.10902
3909.00597,0.10305
3910.93444,0.10528
3912.86291,0.10795
3914.79138,0.11295
3916.71985,0.12090
3918.64832,0.12287
3920.57678,0.11699
3922.50525,0.11227
3924.43372,0.11092
3926.36219,0.10791
3928.29066,0.10548
3930.21913,0.10616
3932.14760,0.10617
3934.07606,0.10444
3936.00453,0.10159
3937.93300,0.10062
3939.86147,0.10786
3941.78994,0.11827
3943.71841,0.11851
3945.64688,0.11219
3947.57535,0.11009
3949.50381,0.10832
3951.43228,0.10166
3953.36075,0.09596
3955.28922,0.09526
3957.21769,0.09810
3959.14616,0.10177
3961.07463,0.10208
3963.00309,0.09847
3964.93156,0.09949
3966.86003,0.10681
3968.78850,0.11049
3970.71697,0.10860
3972.64544,0.10574
3974.57391,0.10485
3976.50238,0.10586
3978.43084,0.10450
3980.35931,0.10177
3982.28778,0.10155
3984.21625,0.10190
3986.14472,0.09983
3988.07319,0.09829
3990.00166,0.10241
3991.93012,0.10814
3993.85859,0.10646
3995.78706,0.09952
3997.71553,0.09417
3999.64400,0.09006
4001.57247,0.08629
4003.50094,0.08661
4005.42941,0.09389
4007.35787,0.10323
4009.28634,0.10585
4011.21481,0.09745
4013.14328,0.08575
4015.07175,0.08494
4017.00022,0.09315
4018.92869,0.09751
4020.85715,0.09665
4022.78562,0.09450
4024.71409,0.09231
4026.64256,0.09205
4028.57103,0.09269
4030.49950,0.09292
4032.42797,0.09391
4034.35644,0.09454
4036.28490,0.09401
4038.21337,0.09168
4040.14184,0.08550
4042.07031,0.07791
4043.99878,0.07480
4045.92725,0.07868
4047.85572,0.08704
4049.78418,0.09363
4051.71265,0.09261
4053.64112,0.08703
4055.56959,0.08594
4057.49806,0.09019
4059.42653,0.09393
4061.35500,0.09547
4063.28346,0.09469
4065.21193,0.09029
4067.14040,0.08497
4069.06887,0.08319
4070.99734,0.08402
4072.92581,0.08386
4074.85428,0.08442
4076.78275,0.08811
4078.71121,0.08964
4080.63968,0.08604
4082.56815,0.08353
4084.49662,0.08409
4086.42509,0.08359
4088.35356,0.08381
4090.28203,0.08432
4092.21049,0.07926
4094.13896,0.07355
4096.06743,0.07298
4097.99590,0.07459
4099.92437,0.07707
4101.85284,0.08048
4103.78131,0.08483
4105.70978,0.08771
4107.63824,0.08389
4109.56671,0.07351
4111.49518,0.06444
4113.42365,0.06834
4115.35212,0.08432
4117.28059,0.09233
4119.20906,0.08441
4121.13752,0.07699
4123.06599,0.08007
4124.99446,0.08590
4126.92293,0.08395
4128.85140,0.07410
4130.77987,0.06495
4132.70834,0.06299
4134.63681,0.06888
4136.56527,0.07583
4138.49374,0.08012
4140.42221,0.08248
4142.35068,0.07922
4144.27915,0.07269
4146.20762,0.07126
4148.13609,0.07274
4150.06455,0.07000
4151.99302,0.06747
4153.92149,0.07009
4155.84996,0.07143
4157.77843,0.07075
4159.70690,0.07310
4161.63537,0.07376
4163.56384,0.07154
4165.49230,0.07214
4167.42077,0.07561
4169.34924,0.07691
4171.27771,0.07410
4173.20618,0.07278
4175.13465,0.07251
4177.06312,0.06715
4178.99158,0.06011
4180.92005,0.06050
4182.84852,0.06725
4184.77699,0.06981
4186.70546,0.06260
4188.63393,0.05210
4190.56240,0.05259
4192.49087,0.06369
4194.41933,0.07406
4196.34780,0.07864
4198.27627,0.07680
4200.20474,0.07516
4202.13321,0.07488
4204.06168,0.07183
4205.99015,0.06743
4207.91861,0.06479
4209.84708,0.06545
4211.77555,0.06513
4213.70402,0.06135
4215.63249,0.05743
4217.56096,0.05565
4219.48943,0.05632
4221.41789,0.05863
4223.34636,0.05799
4225.27483,0.05140
4227.20330,0.04400
4229.13177,0.04066
4231.06024,0.04226
4232.98871,0.04767
4234.91718,0.05323
4236.84564,0.05550
4238.77411,0.05581
4240.70258,0.05649
4242.63105,0.05484
4244.55952,0.05238
4246.48799,0.05231
4248.41646,0.04895
4250.34492,0.04315
4252.27339,0.04532
4254.20186,0.05320
4256.13033,0.05529
4258.05880,0.05145
4259.98727,0.04856
4261.91574,0.04748
4263.84421,0.04769
4265.77267,0.05087
4267.70114,0.05742
4269.62961,0.06275
4271.55808,0.05699
4273.48655,0.04410
4275.41502,0.04137
4277.34349,0.04824
4279.27195,0.05344
4281.20042,0.05813
4283.12889,0.06018
4285.05736,0.04743
4286.98583,0.02879
4288.91430,0.02948
4290.84277,0.04627
4292.77124,0.05498
4294.69970,0.04962
4296.62817,0.04093
4298.55664,0.03928
4300.48511,0.04304
4302.41358,0.04419
4304.34205,0.04302
4306.27052,0.04021
4308.19898,0.03877
4310.12745,0.04087
4312.05592,0.04008
4313.98439,0.03936
4315.91286,0.04186
4317.84133,0.04208
4319.76980,0.03951
4321.69827,0.03589
4323.62673,0.03241
4325.55520,0.02987
4327.48367,0.02771
4329.41214,0.02710
4331.34061,0.02866
4333.26908,0.03152
4335.19755,0.03556
4337.12601,0.03629
4339.05448,0.02857
4340.98295,0.01994
4342.91142,0.02316
4344.83989,0.03543
4346.76836,0.04098
4348.69683,0.03829
4350.62530,0.04160
4352.55376,0.04965
4354.48223,0.04658
4356.41070,0.03957
4358.33917,0.04377
4360.26764,0.04517
4362.19611,0.03163
4364.12458,0.01653
4366.05304,0.01160
4367.98151,0.01314
4369.90998,0.01947
4371.83845,0.02849
4373.76692,0.03109
4375.69539,0.02938
4377.62386,0.02717
4379.55232,0.02386
4381.48079,0.02643
4383.40926,0.03278
4385.33773,0.03208
4387.26620,0.02647
4389.19467,0.02655
4391.12314,0.02460
4393.05161,0.01039
4394.98007,0.00439
4396.90854,0.01436
4398.83701,0.01955
4400.76548,0.01625
4402.69395,0.00825
4404.62242,-0.00214
4406.55089,-0.00351
4408.47935,0.00625
4410.40782,0.01569
4412.33629,0.01748
4414.26476,0.01752
4416.19323,0.02003
4418.12170,0.01991
4420.05017,0.01722
4421.97864,0.01751
4423.90710,0.02038
4425.83557,0.01996
4427.76404,0.01414
4429.69251,0.00811
4431.62098,0.00782
4433.54945,0.00906
4435.47792,0.00407
4437.40638,-0.00339
4439.33485,-0.00281
4441.26332,0.00682
4443.19179,0.00887
4445.12026,0.00052
4447.04873,0.00048
4448.97720,0.00353
4450.90567,-0.00256
4452.83413,-0.00373
4454.76260,0.00521
4456.69107,0.01064
4458.61954,0.01124
4460.54801,0.00992
4462.47648,0.00183
4464.40495,-0.00612
4466.33341,-0.00076
4468.26188,0.01084
4470.19035,0.00772
4472.11882,-0.00933
4474.04729,-0.01849
4475.97576,-0.01294
4477.90423,-0.00139
4479.83270,0.00437
4481.76116,-0.00153
4483.68963,-0.00340
4485.61810,0.00996
4487.54657,0.02276
4489.47504,0.02357
4491.40351,0.01980
4493.33198,0.01779
4495.26044,0.01204
4497.18891,0.00354
4499.11738,0.00744
4501.04585,0.01983
4502.97432,0.02022
4504.90279,0.01095
4506.83126,0.00358
4508.75973,-0.00381
4510.68819,-0.00924
4512.61666,-0.00789
4514.54513,-0.00148
4516.47360,0.00911
4518.40207,0.01424
4520.33054,0.00738
4522.25901,0.00624
4524.18747,0.01416
4526.11594,0.01285
4528.04441,0.00432
4529.97288,-0.00021
4531.90135,-0.00182
4533.82982,-0.00328
4535.75829,-0.00166
4537.68676,0.00410
4539.61522,0.00899
4541.54369,0.00873
4543.47216,-0.00200
4545.40063,-0.01220
4547.32910,-0.00254
4549.25757,0.01677
4551.18604,0.02150
4553.11450,0.01785
4555.04297,0.01884
4556.97144,0.02084
4558.89991,0.02195
4560.82838,0.02238
4562.75685,0.02434
4564.68532,0.02610
4566.61378,0.02196
4568.54225,0.01188
4570.47072,0.00532
4572.39919,0.01316
4574.32766,0.02763
4576.25613,0.02389
4578.18460,-0.00141
4580.11307,-0.02008
4582.04153,-0.01752
4583.97000,-0.00697
4585.89847,-0.00176
4587.82694,-0.00467
4589.75541,-0.00553
4591.68388,0.00171
4593.61235,0.00331
4595.54081,-0.00552
4597.46928,-0.00805
4599.39775,0.00044
4601.32622,0.00154
4603.25469,-0.00666
4605.18316,-0.00438
4607.11163,0.00945
4609.04010,0.01210
4610.96856,-0.00071
4612.89703,-0.00733
4614.82550,-0.00304
4616.75397,0.00441
4618.68244,0.01287
4620.61091,0.01543
4622.53938,0.00770
4624.46784,0.00050
4626.39631,0.00556
4628.32478,0.01918
4630.25325,0.03090
4632.18172,0.02655
4634.11019,0.01181
4636.03866,0.01225
4637.96713,0.02267
4639.89559,0.02565
4641.82406,0.02601
4643.75253,0.02408
4645.68100,0.01366
4647.60947,-0.00104
4649.53794,-0.01079
4651.46641,-0.01153
4653.39487,-0.01357
4655.32334,-0.02005
4657.25181,-0.01966
4659.18028,-0.01319
4661.10875,-0.00917
4663.03722,-0.01302
4664.96569,-0.02080
4666.89416,-0.01719
4668.82262,-0.00459
4670.75109,0.00238
4672.67956,0.00909
4674.60803,0.01709
4676.53650,0.01545
4678.46497,0.00843
4680.39344,0.00664
4682.32190,0.00832
4684.25037,0.00337
4686.17884,-0.00313
4688.10731,0.00039
4690.03578,0.00803
4691.96425,0.01712
4693.89272,0.02697
4695.82119,0.02788
4697.74965,0.01620
4699.67812,0.00118
4701.60659,-0.00081
4703.53506,0.00724
4705.46353,0.00434
4707.39200,-0.00737
4709.32047,-0.01112
4711.24893,-0.00975
4713.17740,-0.01097
4715.10587,-0.01064
4717.03434,-0.00381
4718.96281,0.00658
4720.89128,0.01272
4722.81975,0.01198
4724.74821,0.00322
4726.67668,-0.00988
4728.60515,-0.01296
4730.53362,-0.00149
4732.46209,0.01050
4734.39056,0.01339
4736.31903,0.01611
4738.24750,0.02191
4740.17596,0.02392
4742.10443,0.02453
4744.03290,0.02203
4745.96137,0.00679
4747.88984,-0.00928
4749.81831,-0.00583
4751.74678,0.00544
4753.67524,0.01087
4755.60371,0.01779
4757.53218,0.02109
4759.46065,0.01102
4761.38912,-0.00120
4763.31759,-0.00230
4765.24606,0.00755
4767.17453,0.01993
4769.10299,0.02560
4771.03146,0.02348
4772.95993,0.01599
4774.88840,0.00853
4776.81687,0.00915
4778.74534,0.01239
4780.67381,0.00919
4782.60227,0.00449
4784.53074,0.00397
4786.45921,0.00520
4788.38768,0.00374
4790.31615,0.00278
4792.24462,0.00830
4794.17309,0.01661
4796.10156,0.02184
4798.03002,0.02045
4799.95849,0.00881
4801.88696,-0.00982
4803.81543,-0.01485
4805.74390,0.00305
4807.67237,0.00967
4809.60084,-0.00945
4811.52930,-0.02021
4813.45777,-0.00649
4815.38624,0.01040
4817.31471,0.01076
4819.24318,0.00153
4821.17165,-0.00286
4823.10012,0.00213
4825.02859,0.00820
4826.95705,0.00408
4828.88552,-0.00491
4830.81399,-0.00683
4832.74246,-0.00273
4834.67093,0.00176
4836.59940,0.00236
4838.52787,-0.00477
4840.45633,-0.01067
4842.38480,-0.00596
4844.31327,-0.00212
4846.24174,-0.00346
4848.17021,0.00381
4850.09868,0.01005
4852.02715,0.00396
4853.95562,0.00903
4855.88408,0.03142
4857.81255,0.04626
4859.74102,0.03500
4861.66949,0.00964
4863.59796,0.00021
4865.52643,0.00712
4867.45490,0.00856
4869.38336,0.00290
4871.31183,0.00417
4873.24030,0.00569
4875.16877,0.00010
4877.09724,0.00741
4879.02571,0.01901
4880.95418,0.01796
4882.88265,0.00371
4884.81111,-0.00827
4886.73958,0.00501
4888.66805,0.02535
4890.59652,0.01277
4892.52499,-0.01798
4894.45346,-0.02842
4896.38193,-0.02151
4898.31039,-0.01717
4900.23886,-0.02051
4902.16733,-0.01963
4904.09580,-0.00413
4906.02427,0.01097
4907.95274,0.00903
4909.88121,0.00867
4911.80967,0.01541
4913.73814,0.01427
4915.66661,0.01303
4917.59508,0.02542
4919.52355,0.03286
4921.45202,0.01767
4923.38049,-0.00287
4925.30896,-0.00102
4927.23742,0.01329
4929.16589,0.01131
4931.09436,-0.00523
4933.02283,-0.01632
4934.95130,-0.01117
4936.87977,0.00681
4938.80824,0.02052
4940.73670,0.01994
4942.66517,0.01173
4944.59364,-0.00032
4946.52211,-0.00531
4948.45058,0.00436
4950.37905,0.00870
4952.30752,-0.00170
4954.23599,-0.01281
4956.16445,-0.01048
4958.09292,0.00555
4960.02139,0.01469
4961.94986,0.01575
4963.87833,0.02453
4965.80680,0.02939
4967.73527,0.02182
4969.66373,0.01097
4971.59220,0.00482
4973.52067,0.00838
4975.44914,0.01725
4977.37761,0.01975
4979.30608,0.01385
4981.23455,0.00581
4983.16302,-0.00577
4985.09148,-0.01922
4987.01995,-0.01809
4988.94842,-0.00058
4990.87689,-0.00019
4992.80536,-0.02338
4994.73383,-0.02452
4996.66230,0.00516
4998.59076,0.03609
5000.51923,0.05475
5002.44770,0.05134
5004.37617,0.03119
5006.30464,0.00695
5008.23311,-0.01200
5010.16158,-0.00997
5012.09005,-0.00266
5014.01851,-0.01293
5015.94698,-0.02071
5017.87545,-0.00590
5019.80392,0.01342
5021.73239,0.01509
5023.66086,0.01352
5025.58933,0.02624
5027.51779,0.02962
5029.44626,0.01109
5031.37473,0.00178
5033.30320,0.01439
5035.23167,0.02094
5037.16014,0.01349
5039.08861,0.00818
5041.01708,0.00314
5042.94554,-0.00056
5044.87401,0.01241
5046.80248,0.03015
5048.73095,0.03303
5050.65942,0.02982
5052.58789,0.03119
5054.51636,0.02881
5056.44482,0.01972
5058.37329,0.01938
5060.30176,0.03083
5062.23023,0.03600
5064.15870,0.02424
5066.08717,0.00915
5068.01564,0.00627
5069.94410,0.01181
5071.87257,0.01714
5073.80104,0.01760
5075.72951,0.02390
5077.65798,0.03634
5079.58645,0.03178
5081.51492,0.01329
5083.44339,0.00052
5085.37185,-0.00950
5087.30032,-0.01846
5089.22879,-0.00638
5091.15726,0.02081
5093.08573,0.03042
5095.01420,0.02006
5096.94267,0.00397
5098.87113,-0.01177
5100.79960,-0.01842
5102.72807,-0.00376
5104.65654,0.01571
5106.58501,0.01719
5108.51348,0.01711
5110.44195,0.02525
5112.37042,0.02853
5114.29888,0.02762
5116.22735,0.02434
5118.15582,0.01332
5120.08429,0.00803
5122.01276,0.01790
5123.94123,0.02286
5125.86970,0.01638
5127.79816,0.01037
5129.72663,0.00495
5131.65510,-0.00024
5133.58357,0.00626
5135.51204,0.01932
5137.44051,0.01140
5139.36898,-0.02048
5141.29745,-0.04436
5143.22591,-0.03085
5145.15438,-0.00011
5147.08285,0.00824
5149.01132,0.00915
5150.93979,0.02143
5152.86826,0.02980
5154.79673,0.02780
5156.72519,0.00930
5158.65366,-0.01909
5160.58213,-0.02830
5162.51060,-0.01695
5164.43907,-0.00528
5166.36754,0.00092
5168.29601,0.01107
5170.22448,0.03220
5172.15294,0.03914
5174.08141,0.01698
5176.00988,0.00685
5177.93835,0.02151
5179.86682,0.02356
5181.79529,0.01518
5183.72376,0.02265
5185.65222,0.03309
5187.58069,0.02651
5189.50916,0.01490
5191.43763,0.01523
5193.36610,0.02269
5195.29457,0.02469
5197.22304,0.02321
5199.15151,0.02507
5201.07997,0.02699
5203.00844,0.02565
5204.93691,0.01783
5206.86538,0.00256
5208.79385,0.00104
5210.72232,0.02412
5212.65079,0.04447
5214.57925,0.03653
5216.50772,0.01011
5218.43619,-0.00143
5220.36466,0.01564
5222.29313,0.02526
5224.22160,0.01142
5226.15007,0.01236
5228.07854,0.03219
5230.00700,0.04216
5231.93547,0.04095
5233.86394,0.02875
5235.79241,0.00883
5237.72088,-0.00000
5239.64935,0.01513
5241.57782,0.03717
5243.50628,0.03736
5245.43475,0.03040
5247.36322,0.04596
5249.29169,0.05602
5251.22016,0.03836
5253.14863,0.01876
5255.07710,0.02033
5257.00556,0.04029
5258.93403,0.05702
5260.86250,0.06650
5262.79097,0.06514
5264.71944,0.05336
5266.64791,0.05500
5268.57638,0.06809
5270.50485,0.06784
5272.43331,0.04819
5274.36178,0.03502
5276.29025,0.03455
5278.21872,0.02690
5280.14719,0.02327
5282.07566,0.03255
5284.00413,0.04148
5285.93259,0.05292
5287.86106,0.05995
5289.78953,0.04687
5291.71800,0.02315
5293.64647,0.00305
5295.57494,-0.00089
5297.50341,0.02071
5299.43188,0.05281
5301.36034,0.07684
5303.28881,0.07926
5305.21728,0.06131
5307.14575,0.05355
5309.07422,0.07095
5311.00269,0.07791
5312.93116,0.05244
5314.85962,0.01797
5316.78809,0.00341
5318.71656,0.01560
5320.64503,0.02185
5322.57350,-0.00440
5324.50197,-0.02838
5326.43044,-0.01712
5328.35891,0.00941
5330.28737,0.02029
5332.21584,0.01940
5334.14431,0.02914
5336.07278,0.04284
5338.00125,0.04305
5339.92972,0.03936
5341.85819,0.04312
5343.78665,0.04485
5345.71512,0.03176
5347.64359,0.01384
5349.57206,0.00428
5351.50053,0.01189
5353.42900,0.03423
5355.35747,0.03917
5357.28594,0.03060
5359.21440,0.03587
5361.14287,0.04276
5363.07134,0.04142
5364.99981,0.04816
5366.92828,0.05880
5368.85675,0.06426
5370.78522,0.07351
5372.71368,0.07387
5374.64215,0.05012
5376.57062,0.03792
5378.49909,0.04948
5380.42756,0.04531
5382.35603,0.03551
5384.28450,0.03891
5386.21297,0.03645
5388.14143,0.02888
5390.06990,0.03232
5391.99837,0.04263
5393.92684,0.04528
5395.85531,0.03638
5397.78378,0.03326
5399.71225,0.04642
5401.64071,0.06769
5403.56918,0.06677
5405.49765,0.03569
5407.42612,0.01442
5409.35459,0.01642
5411.28306,0.01900
5413.21153,0.02877
5415.13999,0.04957
5417.06846,0.06003
5418.99693,0.05696
5420.92540,0.04095
5422.85387,0.01784
5424.78234,0.00810
5426.71081,0.02601
5428.63928,0.04116
5430.56774,0.02016
5432.49621,0.00679
5434.42468,0.02611
5436.35315,0.03117
5438.28162,-0.00789
5440.21009,-0.05111
5442.13856,-0.05395
5444.06702,-0.03929
5445.99549,-0.02737
5447.92396,-0.00296
5449.85243,0.03950
5451.78090,0.08528
5453.70937,0.10403
5455.63784,0.09311
5457.56631,0.07031
5459.49477,0.03660
5461.42324,0.01765
5463.35171,0.04156
5465.28018,0.07473
5467.20865,0.08845
5469.13712,0.10012
5471.06559,0.11277
5472.99405,0.09547
5474.92252,0.04392
5476.85099,0.00924
5478.77946,0.01601
5480.70793,0.03511
5482.63640,0.05133
5484.56487,0.06478
5486.49334,0.06584
5488.42180,0.05520
5490.35027,0.04829
5492.27874,0.04759
5494.20721,0.04970
5496.13568,0.05285
5498.06415,0.06207
5499.99262,0.08222
5501.92108,0.08559
5503.84955,0.05506
5505.77802,0.04105
5507.70649,0.07258
5509.63496,0.09629
5511.56343,0.09928
5513.49190,0.11154
5515.42037,0.11683
5517.34883,0.10464
5519.27730,0.09896
5521.20577,0.09292
5523.13424,0.07105
5525.06271,0.05087
5526.99118,0.05638
5528.91965,0.08715
5530.84811,0.10402
5532.77658,0.08105
5534.70505,0.03205
5536.63352,-0.01022
5538.56199,-0.01171
5540.49046,0.00637
5542.41893,0.00794
5544.34740,0.01281
5546.27586,0.04436
5548.20433,0.06989
5550.13280,0.05884
5552.06127,0.03065
5553.98974,0.01825
5555.91821,0.03917
5557.84668,0.08064
5559.77514,0.11398
5561.70361,0.11790
5563.63208,0.08687
5565.56055,0.04457
5567.48902,0.02014
5569.41749,0.02961
5571.34596,0.06734
5573.27443,0.09352
5575.20289,0.08362
5577.13136,0.06231
5579.05983,0.05268
5580.98830,0.06808
5582.91677,0.09169
5584.84524,0.10065
5586.77371,0.09894
5588.70217,0.08572
5590.63064,0.08047
5592.55911,0.08744
5594.48758,0.08994
5596.41605,0.09889
5598.34452,0.11292
5600.27299,0.11393
5602.20145,0.09166
5604.12992,0.05447
5606.05839,0.03268
5607.98686,0.05288
5609.91533,0.09150
5611.84380,0.10080
5613.77227,0.10063
5615.70074,0.11468
5617.62920,0.10033
5619.55767,0.05610
5621.48614,0.04302
5623.41461,0.05890
5625.34308,0.04709
5627.27155,0.02283
5629.20002,0.02451
5631.12848,0.03126
5633.05695,0.02519
5634.98542,0.01770
5636.91389,0.04745
5638.84236,0.09111
5640.77083,0.06877
5642.69930,0.02249
5644.62777,0.02569
5646.55623,0.04214
5648.48470,0.03567
5650.41317,0.03184
5652.34164,0.05479
5654.27011,0.09085
5656.19858,0.10760
5658.12705,0.10495
5660.05551,0.09571
5661.98398,0.07066
5663.91245,0.04174
5665.84092,0.03470
5667.76939,0.03227
5669.69786,0.02030
5671.62633,0.01822
5673.55480,0.03000
5675.48326,0.03386
5677.41173,0.01951
5679.34020,0.00935
5681.26867,0.00689
5683.19714,-0.01032
5685.12561,-0.02614
5687.05408,-0.01288
5688.98254,0.01661
5690.91101,0.04129
5692.83948,0.05894
5694.76795,0.05547
5696.69642,0.03411
5698.62489,0.04734
5700.55336,0.10518
5702.48183,0.13543
5704.41029,0.09168
5706.33876,0.02990
5708.26723,0.02206
5710.19570,0.05265
5712.12417,0.08007
5714.05264,0.09542
5715.98111,0.09813
5717.90957,0.10003
5719.83804,0.09862
5721.76651,0.07840
5723.69498,0.06380
5725.62345,0.08124
5727.55192,0.10761
5729.48039,0.09718
5731.40886,0.04788
5733.33732,0.01199
5735.26579,0.03358
5737.19426,0.08648
5739.12273,0.11640
5741.05120,0.11716
5742.97967,0.11182
5744.90814,0.11886
5746.83660,0.12971
5748.76507,0.11823
5750.69354,0.07289
5752.62201,0.02614
5754.55048,0.02435
5756.47895,0.03544
5758.40742,0.02335
5760.33588,0.03308
5762.26435,0.07413
5764.19282,0.08868
5766.12129,0.05319
5768.04976,0.01320
5769.97823,0.01928
5771.90670,0.04301
5773.83517,0.03091
5775.76363,0.00296
5777.69210,0.00852
5779.62057,0.03426
5781.54904,0.04107
5783.47751,0.04808
5785.40598,0.06780
5787.33445,0.08041
5789.26291,0.08078
5791.19138,0.08407
5793.11985,0.09812
5795.04832,0.10136
5796.97679,0.09005
5798.90526,0.07392
5800.83373,0.04350
5802.76220,0.01579
5804.69066,0.02691
5806.61913,0.06013
5808.54760,0.06953
5810.47607,0.05031
5812.40454,0.03952
5814.33301,0.04724
5816.26148,0.02718
5818.18994,-0.00284
5820.11841,0.00967
5822.04688,0.02818
5823.97535,0.02230
5825.90382,0.01181
5827.83229,0.01090
5829.76076,0.02271
5831.68923,0.03821
5833.61769,0.04990
5835.54616,0.06863
5837.47463,0.09962
5839.40310,0.11086
5841.33157,0.10009
5843.26004,0.11003
5845.18851,0.12753
5847.11697,0.11577
5849.04544,0.09385
5850.97391,0.08930
5852.90238,0.08271
5854.83085,0.06733
5856.75932,0.07833
5858.68779,0.10723
5860.61626,0.11337
5862.54472,0.11104
5864.47319,0.09440
5866.40166,0.04264
5868.33013,0.00117
5870.25860,-0.00572
5872.18707,0.00958
5874.11554,0.05323
5876.04400,0.10177
5877.97247,0.11477
5879.90094,0.09881
5881.82941,0.06657
5883.75788,0.03749
5885.68635,0.02662
5887.61482,0.00417
5889.54329,-0.02529
5891.47175,-0.01865
5893.40022,0.00387
5895.32869,0.00131
5897.25716,0.00132
5899.18563,0.02927
5901.11410,0.04829
5903.04257,0.04000
5904.97103,0.03629
5906.89950,0.06524
5908.82797,0.08605
5910.75644,0.05805
5912.68491,0.04035
5914.61338,0.05688
5916.54185,0.05223
5918.47032,0.02811
5920.39878,0.02977
5922.32725,0.06953
5924.25572,0.10904
5926.18419,0.08732
5928.11266,0.04913
5930.04113,0.06574
5931.96960,0.07917
5933.89806,0.07415
5935.82653,0.09403
5937.75500,0.08908
5939.68347,0.04866
5941.61194,0.05081
5943.54041,0.09758
5945.46888,0.12152
5947.39734,0.11925
5949.32581,0.10264
5951.25428,0.05383
5953.18275,0.01016
5955.11122,0.01763
5957.03969,0.03193
5958.96816,0.00408
5960.89663,-0.03620
5962.82509,-0.03762
5964.75356,-0.00922
5966.68203,0.02881
5968.61050,0.09035
5970.53897,0.13287
5972.46744,0.11512
5974.39591,0.09496
5976.32437,0.10327
5978.25284,0.11111
5980.18131,0.09555
5982.10978,0.05592
5984.03825,0.03199
5985.96672,0.05860
5987.89519,0.09715
5989.82366,0.10417
5991.75212,0.09935
5993.68059,0.09485
5995.60906,0.08647
5997.53753,0.07434
5999.46600,0.05328
6001.39447,0.06391
6003.32294,0.12450
6005.25140,0.15258
6007.17987,0.12074
6009.10834,0.08499
6011.03681,0.05271
6012.96528,0.03325
6014.89375,0.05547
6016.82222,0.11093
6018.75069,0.16524
6020.67915,0.18030
6022.60762,0.15384
6024.53609,0.11242
6026.46456,0.05866
6028.39303,0.01218
6030.32150,0.02252
6032.24997,0.07727
6034.17843,0.12685
6036.10690,0.15068
6038.03537,0.15154
6039.96384,0.14855
6041.89231,0.15757
6043.82078,0.13843
6045.74925,0.07435
6047.67772,0.03925
6049.60618,0.04887
6051.53465,0.04315
6053.46312,0.03743
6055.39159,0.06210
6057.32006,0.07896
6059.24853,0.05391
6061.17700,0.00637
6063.10546,-0.01853
6065.03393,0.00039
6066.96240,0.02296
6068.89087,0.01438
6070.81934,0.00232
6072.74781,-0.00871
6074.67628,-0.02591
6076.60475,-0.00427
6078.53321,0.04389
6080.46168,0.06515
6082.39015,0.04572
6084.31862,0.00158
6086.24709,0.00491
6088.17556,0.06840
6090.10403,0.09062
6092.03249,0.05595
6093.96096,0.02253
6095.88943,-0.00644
6097.81790,-0.03912
6099.74637,-0.04757
6101.67484,-0.01929
6103.60331,0.02974
6105.53177,0.09560
6107.46024,0.15056
6109.38871,0.14493
6111.31718,0.11418
6113.24565,0.11270
6115.17412,0.10587
6117.10259,0.06973
6119.03106,0.04107
6120.95952,0.03511
6122.88799,0.01943
6124.81646,-0.00927
6126.74493,-0.02539
6128.67340,-0.01547
6130.60187,0.01604
6132.53034,0.00971
6134.45880,-0.07442
6136.38727,-0.12497
6138.31574,-0.06426
6140.24421,0.00135
6142.17268,0.01244
6144.10115,0.03182
6146.02962,0.07419
6147.95809,0.12432
6149.88655,0.16648
6151.81502,0.16717
6153.74349,0.11448
6155.67196,0.03442
6157.60043,-0.02831
6159.52890,-0.04453
6161.45737,-0.01322
6163.38583,0.05137
6165.31430,0.10511
6167.24277,0.09852
6169.17124,0.03311
6171.09971,-0.02444
6173.02818,-0.02392
6174.95665,-0.01359
6176.88512,-0.00369
6178.81358,0.03651
6180.74205,0.08105
6182.67052,0.11047
6184.59899,0.13301
6186.52746,0.14540
6188.45593,0.11990
6190.38440,0.08200
6192.31286,0.07420
6194.24133,0.07048
6196.16980,0.08520
6198.09827,0.13707
6200.02674,0.17323
6201.95521,0.16578
6203.88368,0.13226
6205.81215,0.11070
6207.74061,0.12621
6209.66908,0.13659
6211.59755,0.10954
6213.52602,0.10521
6215.45449,0.11462
6217.38296,0.09163
6219.31143,0.04873
6221.23989,-0.00710
6223.16836,-0.03437
6225.09683,-0.00671
6227.02530,0.02863
6228.95377,0.02341
6230.88224,-0.03399
6232.81071,-0.05383
6234.73918,-0.00555
6236.66764,0.02973
6238.59611,0.04967
6240.52458,0.05375
6242.45305,0.03837
6244.38152,0.07788
6246.30999,0.16328
6248.23846,0.17920
6250.16692,0.14061
6252.09539,0.16585
6254.02386,0.21069
6255.95233,0.18565
6257.88080,0.11873
6259.80927,0.06132
6261.73774,0.04636
6263.66621,0.07355
6265.59467,0.09352
6267.52314,0.07144
6269.45161,0.03428
6271.38008,0.02495
6273.30855,0.04388
6275.23702,0.07674
6277.16549,0.12347
6279.09395,0.14988
6281.02242,0.11453
6282.95089,0.06013
6284.87936,0.03039
6286.80783,-0.00483
6288.73630,-0.03356
6290.66477,-0.03868
6292.59323,-0.02820
6294.52170,0.00379
6296.45017,0.00486
6298.37864,-0.00923
6300.30711,0.02160
6302.23558,0.02487
6304.16405,-0.01512
6306.09252,0.01652
6308.02098,0.13999
6309.94945,0.22029
6311.87792,0.13336
6313.80639,-0.00904
6315.73486,-0.04685
6317.66333,-0.01563
6319.59180,0.01216
6321.52026,0.02617
6323.44873,0.01355
6325.37720,0.01276
6327.30567,0.06781
6329.23414,0.09963
6331.16261,0.04156
6333.09108,-0.01482
6335.01955,-0.00036
6336.94801,0.05849
6338.87648,0.10337
6340.80495,0.08007
6342.73342,0.02630
6344.66189,0.02773
6346.59036,0.09333
6348.51883,0.15151
6350.44729,0.11406
6352.37576,0.00273
6354.30423,-0.03712
6356.23270,0.02745
6358.16117,0.11573
6360.08964,0.15047
6362.01811,0.11876
6363.94658,0.03304
6365.87504,-0.03265
6367.80351,-0.02248
6369.73198,-0.02805
6371.66045,-0.08955
6373.58892,-0.07722
6375.51739,0.08813
6377.44586,0.23668
6379.37432,0.21850
6381.30279,0.11776
6383.23126,0.05329
6385.15973,0.02884
6387.08820,-0.00036
6389.01667,-0.02968
6390.94514,-0.03529
6392.87361,-0.02732
6394.80207,-0.00001
6396.73054,0.03491
6398.65901,0.06650
6400.58748,0.13243
6402.51595,0.18847
6404.44442,0.19642
6406.37289,0.17180
6408.30135,0.11464
6410.22982,0.08604
6412.15829,0.07064
6414.08676,0.01097
6416.01523,-0.05529
6417.94370,-0.08103
6419.87217,-0.05571
6421.80064,-0.01011
6423.72910,0.04879
6425.65757,0.10727
6427.58604,0.10746
6429.51451,0.03415
6431.44298,-0.03801
6433.37145,-0.03507
6435.29992,-0.00404
6437.22838,0.03094
6439.15685,0.07032
6441.08532,0.07598
6443.01379,0.09710
6444.94226,0.15108
6446.87073,0.16029
6448.79920,0.16472
6450.72766,0.19107
6452.65613,0.14502
6454.58460,0.03960
6456.51307,-0.01716
6458.44154,0.03140
6460.37001,0.11512
6462.29848,0.10510
6464.22695,0.01674
6466.15541,-0.00951
6468.08388,0.04457
6470.01235,0.07401
6471.94082,0.04816
6473.86929,0.06365
6475.79776,0.15548
6477.72623,0.20845
6479.65469,0.16997
6481.58316,0.11605
6483.51163,0.09861
6485.44010,0.10106
6487.36857,0.07903
6489.29704,0.05321
6491.22551,0.07896
6493.15398,0.13222
6495.08244,0.16222
6497.01091,0.14410
6498.93938,0.09960
6500.86785,0.07764
6502.79632,0.06839
6504.72479,0.06011
6506.65326,0.03274
6508.58172,-0.03664
6510.51019,-0.04572
6512.43866,0.08966
6514.36713,0.21284
6516.29560,0.17978
6518.22407,0.09150
6520.15254,0.07634
6522.08101,0.09768
6524.00947,0.07271
6525.93794,0.00661
6527.86641,-0.01544
6529.79488,0.02955
6531.72335,0.07182
6533.65182,0.04047
6535.58029,-0.05185
6537.50875,-0.14107
6539.43722,-0.15198
6541.36569,-0.08505
6543.29416,-0.06433
6545.22263,-0.10640
6547.15110,-0.06758
6549.07957,0.05560
6551.00804,0.12410
6552.93650,0.12297
6554.86497,0.08868
6556.79344,0.01885
6558.72191,-0.05382
6560.65038,-0.07852
6562.57885,-0.01329
6564.50732,0.05830
6566.43578,0.05872
6568.36425,0.07367
6570.29272,0.14507
6572.22119,0.19591
6574.14966,0.19481
6576.07813,0.18183
6578.00660,0.15187
6579.93507,0.09656
6581.86353,0.01829
6583.79200,-0.00912
6585.72047,0.03588
6587.64894,0.04544
6589.57741,0.04717
6591.50588,0.08263
6593.43435,0.10842
6595.36281,0.08064
6597.29128,-0.00482
6599.21975,-0.06706
6601.14822,-0.05996
6603.07669,-0.05296
6605.00516,-0.04762
6606.93363,-0.01377
6608.86210,0.03554
6610.79056,0.11603
6612.71903,0.13385
6614.64750,0.04287
6616.57597,0.01214
6618.50444,0.06805
6620.43291,0.10084
6622.36138,0.09528
6624.28984,0.08752
6626.21831,0.07558
6628.14678,0.07363
6630.07525,0.10392
6632.00372,0.11537
6633.93219,0.15440
6635.86066,0.23369
6637.78912,0.21158
6639.71759,0.09043
6641.64606,0.01080
6643.57453,0.03082
6645.50300,0.08245
6647.43147,0.06731
6649.35994,-0.01714
6651.28841,-0.03199
6653.21687,0.05870
6655.14534,0.08871
6657.07381,0.04257
6659.00228,0.11903
6660.93075,0.24746
6662.85922,0.21954
6664.78769,0.09369
6666.71615,0.00625
6668.64462,-0.00372
6670.57309,0.03327
6672.50156,0.03718
6674.43003,0.01929
6676.35850,0.08773
6678.28697,0.20600
6680.21544,0.24568
6682.14390,0.19140
6684.07237,0.10532
6686.00084,0.06889
6687.92931,0.13018
6689.85778,0.19508
6691.78625,0.18210
6693.71472,0.15008
6695.64318,0.11104
6697.57165,0.05939
6699.50012,0.02063
6701.42859,-0.01294
6703.35706,-0.02011
6705.28553,0.03193
6707.21400,0.08374
6709.14247,0.08654
6711.07093,0.11163
6712.99940,0.15563
6714.92787,0.12221
6716.85634,0.02883
6718.78481,-0.07171
6720.71328,-0.15078
6722.64175,-0.06793
6724.57021,0.12525
6726.49868,0.17890
6728.42715,0.11311
6730.35562,0.08950
6732.28409,0.09034
6734.21256,0.04039
6736.14103,-0.01606
6738.06950,-0.01003
6739.99796,0.06681
6741.92643,0.16495
6743.85490,0.14811
6745.78337,0.00104
6747.71184,-0.06655
6749.64031,0.03526
6751.56878,0.11301
6753.49724,0.11540
6755.42571,0.14802
6757.35418,0.24152
6759.28265,0.35214
6761.21112,0.34457
6763.13959,0.21172
6765.06806,0.13176
6766.99653,0.15824
6768.92499,0.19506
6770.85346,0.12161
6772.78193,-0.03590
6774.71040,-0.09855
6776.63887,-0.05432
6778.56734,-0.03372
6780.49581,0.00961
6782.42427,0.14556
6784.35274,0.26084
6786.28121,0.21855
6788.20968,0.13644
6790.13815,0.13539
6792.06662,0.12691
6793.99509,0.09943
6795.92355,0.09624
6797.85202,0.08190
6799.78049,0.06402
6801.70896,0.08616
6803.63743,0.12949
6805.56590,0.13910
6807.49437,0.10379
6809.42284,0.02897
6811.35130,-0.00170
6813.27977,0.08684
6815.20824,0.14566
6817.13671,0.08780
6819.06518,0.05657
6820.99365,0.06895
6822.92212,0.05897
6824.85058,0.01835
6826.77905,-0.08664
6828.70752,-0.14759
6830.63599,-0.02800
6832.56446,0.07770
6834.49293,0.01726
6836.42140,-0.08625
6838.34987,-0.05852
6840.27833,0.01389
6842.20680,0.01586
6844.13527,-0.01479
6846.06374,-0.06506
6847.99221,-0.10593
6849.92068,-0.09169
6851.84915,-0.09318
6853.77761,-0.19230
6855.70608,-0.24878
6857.63455,-0.14520
6859.56302,0.02022
6861.49149,0.13015
6863.41996,0.18247
6865.34843,0.23678
6867.27690,0.25504
6869.20536,0.20528
6871.13383,0.08957
6873.06230,-0.04665
6874.99077,-0.02077
6876.91924,0.12437
6878.84771,0.13996
6880.77618,0.06349
6882.70464,0.12268
6884.63311,0.15271
6886.56158,-0.00736
6888.49005,-0.10492
6890.41852,-0.02643
6892.34699,-0.03444
6894.27546,-0.18477
6896.20393,-0.28958
6898.13239,-0.24118
6900.06086,-0.13510
6901.98933,-0.08908
6903.91780,-0.09017
6905.84627,-0.11866
6907.77474,-0.11919
6909.70321,-0.09832
6911.63167,-0.03971
6913.56014,0.11464
6915.48861,0.18772
6917.41708,0.08101
6919.34555,-0.04570
6921.27402,-0.05336
6923.20249,-0.01562
6925.13096,-0.00302
6927.05942,0.02432
6928.98789,0.04835
6930.91636,0.02069
6932.84483,0.02553
6934.77330,0.10785
6936.70177,0.18540
6938.63024,0.23834
6940.55870,0.27163
6942.48717,0.24843
6944.41564,0.20092
6946.34411,0.17431
6948.27258,0.13742
6950.20105,0.04761
6952.12952,-0.06465
6954.05799,-0.09973
6955.98645,0.02213
6957.91492,0.19560
6959.84339,0.24262
6961.77186,0.13682
6963.70033,0.04348
6965.62880,0.08570
6967.55727,0.22071
6969.48573,0.27124
6971.41420,0.10973
6973.34267,-0.08874
6975.27114,-0.02350
6977.19961,0.16715
6979.12808,0.23151
6981.05655,0.23743
6982.98501,0.21539
6984.91348,0.17119
6986.84195,0.16615
6988.77042,0.17376
6990.69889,0.17424
6992.62736,0.13898
6994.55583,0.06864
6996.48430,0.03228
6998.41276,0.09287
7000.34123,0.18053
7002.26970,0.16676
7004.19817,0.10921
7006.12664,0.08115
7008.05511,0.04796
7009.98358,-0.00007
7011.91204,-0.02102
7013.84051,0.00937
7015.76898,0.05022
7017.69745,0.07099
7019.62592,0.06322
7021.55439,0.03561
7023.48286,0.03194
7025.41133,0.02872
7027.33979,-0.03018
7029.26826,-0.03659
7031.19673,0.04528
7033.12520,0.02149
7035.05367,-0.12939
7036.98214,-0.18514
7038.91061,-0.07004
7040.83907,0.08275
7042.76754,0.17358
7044.69601,0.27424
7046.62448,0.37634
7048.55295,0.33207
7050.48142,0.20280
7052.40989,0.13790
7054.33836,0.12409
7056.26682,0.12801
7058.19529,0.17662
7060.12376,0.18495
7062.05223,0.09416
7063.98070,0.00632
7065.90917,0.02019
7067.83764,0.07694
7069.76610,0.13531
7071.69457,0.19348
7073.62304,0.21133
7075.55151,0.23799
7077.47998,0.32004
7079.40845,0.43741
7081.33692,0.44674
7083.26539,0.23691
7085.19385,0.02549
7087.12232,0.00394
7089.05079,0.17043
7090.97926,0.28158
7092.90773,0.16165
7094.83620,-0.07710
7096.76467,-0.26173
7098.69313,-0.26814
7100.62160,-0.02718
7102.55007,0.20629
7104.47854,0.11547
7106.40701,-0.21477
7108.33548,-0.30608
7110.26395,-0.13898
7112.19242,0.01815
7114.12088,0.05612
7116.04935,-0.03525
7117.97782,-0.12555
7119.90629,-0.04692
7121.83476,-0.04462
7123.76323,-0.19413
7125.69170,-0.18266
7127.62016,0.01346
7129.54863,0.15396
7131.47710,0.20347
7133.40557,0.21062
7135.33404,0.22623
7137.26251,0.27186
7139.19098,0.27962
7141.11944,0.21279
7143.04791,0.11499
7144.97638,-0.01005
7146.90485,-0.05587
7148.83332,0.07873
7150.76179,0.24602
7152.69026,0.33502
7154.61873,0.33082
7156.54719,0.29766
7158.47566,0.21513
7160.40413,-0.03158
7162.33260,-0.23469
7164.26107,-0.27862
7166.18954,-0.20960
7168.11801,-0.01593
7170.04647,0.31336
7171.97494,0.53985
7173.90341,0.38227
7175.83188,0.14940
7177.76035,0.10704
7179.68882,0.04901
7181.61729,0.01631
7183.54576,0.21358
7185.47422,0.42311
7187.40269,0.38759
7189.33116,0.19212
7191.25963,0.03224
7193.18810,-0.01097
7195.11657,0.00514
7197.04504,-0.01291
7198.97350,0.02215
7200.90197,0.15885
7202.83044,0.22124
7204.75891,0.09481
7206.68738,-0.03511
7208.61585,-0.08951
7210.54432,-0.07109
7212.47279,0.04039
7214.40125,0.10560
7216.32972,0.08449
7218.25819,0.18937
7220.18666,0.33224
7222.11513,0.38922
7224.04360,0.46885
7225.97207,0.46495
7227.90053,0.35713
7229.82900,0.33467
7231.75747,0.21186
7233.68594,-0.02795
7235.61441,-0.02906
7237.54288,0.11110
7239.47135,0.13102
7241.39982,0.08939
7243.32828,0.11428
7245.25675,0.14391
7247.18522,0.10911
7249.11369,0.12709
7251.04216,0.20611
7252.97063,0.07566
7254.89910,-0.08421
7256.82756,-0.03247
7258.75603,-0.02051
7260.68450,-0.03517
7262.61297,0.04904
7264.54144,-0.02059
7266.46991,-0.14472
7268.39838,-0.12788
7270.32685,-0.02096
7272.25531,0.11071
7274.18378,0.17875
7276.11225,0.19010
7278.04072,0.07081
7279.96919,-0.17343
7281.89766,-0.24408
7283.82613,-0.14640
7285.75459,-0.02328
7287.68306,0.06758
7289.61153,0.11461
7291.54000,0.11200
7293.46847,0.02253
7295.39694,-0.07247
7297.32541,-0.10656
7299.25387,-0.08735
7301.18234,0.05654
7303.11081,0.32494
7305.03928,0.56454
7306.96775,0.70511
7308.89622,0.66842
7310.82469,0.42096
7312.75316,0.21282
7314.68162,0.08573
7316.61009,-0.02471
7318.53856,-0.04024
7320.46703,0.08013
7322.39550,0.22234
7324.32397,0.29413
7326.25244,0.25625
7328.18090,0.11619
7330.10937,0.08181
7332.03784,0.17281
7333.96631,0.09733
7335.89478,-0.03986
7337.82325,-0.04955
7339.75172,0.03764
7341.68019,0.07307
7343.60865,0.05797
7345.53712,0.09864
7347.46559,0.27705
7349.39406,0.43115
7351.32253,0.31956
7353.25100,0.06893
7355.17947,0.00878
7357.10793,0.20605
7359.03640,0.33770
7360.96487,0.13287
7362.89334,-0.17949
7364.82181,-0.19720
7366.75028,0.11780
7368.67875,0.36760
7370.60722,0.32196
7372.53568,0.13716
7374.46415,-0.00388
7376.39262,-0.01493
7378.32109,-0.03769
7380.24956,-0.03272
7382.17803,0.10024
7384.10650,0.21591
7386.03496,0.12674
7387.96343,-0.07948
7389.89190,-0.18750
7391.82037,-0.16716
7393.74884,-0.12730
7395.67731,-0.17128
7397.60578,-0.25701
7399.53425,-0.25298
7401.46271,-0.13926
7403.39118,-0.06956
7405.31965,-0.11496
7407.24812,-0.05059
7409.17659,0.15590
7411.10506,0.24697
7413.03353,0.21893
7414.96199,0.30917
7416.89046,0.52048
7418.81893,0.61775
7420.74740,0.43419
7422.67587,0.34582
7424.60434,0.41274
7426.53281,0.32278
7428.46128,0.07822
7430.38974,-0.14755
7432.31821,-0.34459
7434.24668,-0.34976
7436.17515,-0.12852
7438.10362,-0.12997
7440.03209,-0.24931
7441.96056,-0.12637
7443.88902,0.08324
7445.81749,0.16984
7447.74596,0.14278
7449.67443,0.19981
7451.60290,0.25383
7453.53137,0.13271
7455.45984,0.10594
7457.38831,0.23541
7459.31677,0.40395
7461.24524,0.39242
7463.17371,0.04089
7465.10218,-0.33857
7467.03065,-0.26459
7468.95912,0.02878
7470.88759,0.21780
7472.81605,0.33015
7474.74452,0.29491
7476.67299,0.09366
7478.60146,-0.04599
7480.52993,-0.04849
7482.45840,0.02138
7484.38687,0.10184
7486.31533,0.11065
7488.24380,0.08977
7490.17227,0.09352
7492.10074,0.17624
7494.02921,0.22160
7495.95768,0.10475
7497.88615,-0.02780
