399.19301,1.33919
401.12148,-0.20166
403.04995,-0.10102
404.97842,0.26657
406.90689,0.64319
408.83536,0.65067
410.76382,0.39460
412.69229,0.20930
414.62076,0.11548
416.54923,0.09556
418.47770,0.16346
420.40617,0.07964
422.33464,-0.08891
424.26311,-0.09940
426.19157,-0.01182
428.12004,0.01276
430.04851,-0.02075
431.97698,-0.03204
433.90545,0.02652
435.83392,0.05648
437.76239,0.00351
439.69085,-0.03778
441.61932,0.01631
443.54779,0.13924
445.47626,0.25650
447.40473,0.32710
449.33320,0.28582
451.26167,0.20280
453.19013,0.16923
455.11860,0.13499
457.04707,0.04588
458.97554,-0.00941
460.90401,0.06294
462.83248,0.13990
464.76095,0.15136
466.68942,0.16896
468.61788,0.21703
470.54635,0.27687
472.47482,0.28563
474.40329,0.12081
476.33176,0.04156
478.26023,0.11595
480.18870,0.15327
482.11716,0.11768
484.04563,0.02611
485.97410,-0.08336
487.90257,-0.10782
489.83104,-0.05737
491.75951,-0.02188
493.68798,0.01007
495.61645,0.05446
497.54491,0.05609
499.47338,0.01923
501.40185,-0.01875
503.33032,-0.03799
505.25879,-0.00694
507.18726,0.08732
509.11573,0.14448
511.04419,0.10414
512.97266,0.05294
514.90113,0.02241
516.82960,0.02110
518.75807,0.07738
520.68654,0.13690
522.61501,0.16699
524.54348,0.17522
526.47194,0.13421
528.40041,0.06443
530.32888,0.03547
532.25735,0.02420
534.18582,0.01090
536.11429,0.01024
538.04276,-0.00369
539.97122,-0.01829
541.89969,-0.00005
543.82816,0.00659
545.75663,-0.02679
547.68510,-0.01203
549.61357,0.21876
551.54204,0.87649
553.47051,1.46609
555.39897,1.17804
557.32744,0.45932
559.25591,0.13317
561.18438,0.08032
563.11285,0.07014
565.04132,0.09820
566.96979,0.13439
568.89825,0.13481
570.82672,0.10691
572.75519,0.08610
574.68366,0.07723
576.61213,0.06542
578.54060,0.03549
580.46907,0.01161
582.39754,0.01874
584.32600,0.03682
586.25447,0.05338
588.18294,0.08070
590.11141,0.09544
592.03988,0.08396
593.96835,0.08565
595.89682,0.09471
597.82528,0.09212
599.75375,0.09160
601.68222,0.08420
603.61069,0.06250
605.53916,0.05641
607.46763,0.06949
609.39610,0.05923
611.32456,0.01305
613.25303,-0.01023
615.18150,0.02555
617.10997,0.07905
619.03844,0.11580
620.96691,0.12364
622.89538,0.11363
624.82385,0.10781
626.75231,0.08891
628.68078,0.05683
630.60925,0.05603
632.53772,0.07530
634.46619,0.07194
636.39466,0.07267
638.32313,0.10434
640.25159,0.13621
642.18006,0.12545
644.10853,0.08277
646.03700,0.05199
647.96547,0.05102
649.89394,0.06793
651.82241,0.07328
653.75088,0.06644
655.67934,0.07252
657.60781,0.09947
659.53628,0.11787
661.46475,0.09359
663.39322,0.05055
665.32169,0.02010
667.25016,0.01153
669.17862,0.04311
671.10709,0.07118
673.03556,0.08700
674.96403,0.11041
676.89250,0.12174
678.82097,0.11353
680.74944,0.11085
682.67791,0.11011
684.60637,0.09477
686.53484,0.08069
688.46331,0.08583
690.39178,0.10258
692.32025,0.11165
694.24872,0.10808
696.17719,0.10564
698.10565,0.10624
700.03412,0.10193
701.96259,0.09205
703.89106,0.08804
705.81953,0.10342
707.74800,0.14711
709.67647,0.22958
711.60494,0.29263
713.53340,0.24664
715.46187,0.14490
717.39034,0.09969
719.31881,0.11045
721.24728,0.12755
723.17575,0.12848
725.10422,0.11661
727.03268,0.11115
728.96115,0.11595
730.88962,0.10999
732.81809,0.09621
734.74656,0.10185
736.67503,0.11740
738.60350,0.11504
740.53197,0.09848
742.46043,0.09156
744.38890,0.09469
746.31737,0.09328
748.24584,0.09609
750.17431,0.10547
752.10278,0.10201
754.03125,0.09076
755.95971,0.09685
757.88818,0.10864
759.81665,0.10518
761.74512,0.10222
763.67359,0.10859
765.60206,0.11031
767.53053,0.10122
769.45900,0.09568
771.38746,0.10394
773.31593,0.11185
775.24440,0.10447
777.17287,0.08959
779.10134,0.08675
781.02981,0.09358
782.95828,0.09622
784.88674,0.09586
786.81521,0.09709
788.74368,0.09324
790.67215,0.08514
792.60062,0.08206
794.52909,0.08201
796.45756,0.08741
798.38602,0.09497
800.31449,0.08921
802.24296,0.08251
804.17143,0.09561
806.09990,0.10983
808.02837,0.10610
809.95684,0.10068
811.88531,0.09468
813.81377,0.07707
815.74224,0.07315
817.67071,0.09583
819.59918,0.10733
821.52765,0.08765
823.45612,0.06979
825.38459,0.08181
827.31305,0.10113
829.24152,0.10153
831.16999,0.09720
833.09846,0.09651
835.02693,0.09591
836.95540,0.10786
838.88387,0.12913
840.81234,0.13954
842.74080,0.13458
844.66927,0.11850
846.59774,0.09927
848.52621,0.09203
850.45468,0.09792
852.38315,0.10318
854.31162,0.10881
856.24008,0.11694
858.16855,0.11807
860.09702,0.11521
862.02549,0.11724
863.95396,0.11999
865.88243,0.13905
867.81090,0.21170
869.73937,0.28023
871.66783,0.24257
873.59630,0.15176
875.52477,0.10957
877.45324,0.11197
879.38171,0.11997
881.31018,0.11296
883.23865,0.09410
885.16711,0.08266
887.09558,0.08780
889.02405,0.10173
890.95252,0.11222
892.88099,0.11888
894.80946,0.12547
896.73793,0.12645
898.66640,0.12210
900.59486,0.11970
902.52333,0.11865
904.45180,0.11899
906.38027,0.11611
908.30874,0.10666
910.23721,0.10606
912.16568,0.11959
914.09414,0.12922
916.02261,0.12438
917.95108,0.11571
919.87955,0.11342
921.80802,0.11185
923.73649,0.10859
925.66496,0.11024
927.59343,0.11012
929.52189,0.10290
931.45036,0.10113
933.37883,0.10890
935.30730,0.11616
937.23577,0.11303
939.16424,0.10425
941.09271,0.10660
943.02117,0.12111
944.94964,0.13476
946.87811,0.13649
948.80658,0.12604
950.73505,0.11717
952.66352,0.11712
954.59199,0.12380
956.52045,0.13216
958.44892,0.13341
960.37739,0.12573
962.30586,0.11263
964.23433,0.09953
966.16280,0.09721
968.09127,0.10548
970.01974,0.11258
971.94820,0.11573
973.87667,0.11632
975.80514,0.11451
977.73361,0.11363
979.66208,0.11451
981.59055,0.11752
983.51902,0.12150
985.44748,0.12197
987.37595,0.11981
989.30442,0.11937
991.23289,0.12328
993.16136,0.12864
995.08983,0.12500
997.01830,0.11534
998.94677,0.11310
1000.87523,0.11501
1002.80370,0.11844
1004.73217,0.12563
1006.66064,0.12745
1008.58911,0.11971
1010.51758,0.11216
1012.44605,0.11293
1014.37451,0.11681
1016.30298,0.11785
1018.23145,0.11874
1020.15992,0.12227
1022.08839,0.12880
1024.01686,0.12095
1025.94533,0.06637
1027.87380,0.00741
1029.80226,0.03095
1031.73073,0.09768
1033.65920,0.12387
1035.58767,0.12294
1037.51614,0.11976
1039.44461,0.11140
1041.37308,0.11244
1043.30154,0.12902
1045.23001,0.13706
1047.15848,0.13297
1049.08695,0.13391
1051.01542,0.13889
1052.94389,0.13656
1054.87236,0.12330
1056.80083,0.11395
1058.72929,0.11945
1060.65776,0.13058
1062.58623,0.13932
1064.51470,0.14678
1066.44317,0.14909
1068.37164,0.14408
1070.30011,0.14326
1072.22857,0.14274
1074.15704,0.12869
1076.08551,0.11839
1078.01398,0.12722
1079.94245,0.13926
1081.87092,0.14760
1083.79939,0.15128
1085.72786,0.13976
1087.65632,0.11961
1089.58479,0.11206
1091.51326,0.12619
1093.44173,0.14018
1095.37020,0.13815
1097.29867,0.13600
1099.22714,0.13971
1101.15560,0.14449
1103.08407,0.14424
1105.01254,0.13278
1106.94101,0.12472
1108.86948,0.12902
1110.79795,0.13573
1112.72642,0.14049
1114.65489,0.13913
1116.58335,0.12918
1118.51182,0.11987
1120.44029,0.11687
1122.36876,0.11821
1124.29723,0.12417
1126.22570,0.13277
1128.15417,0.13376
1130.08263,0.12402
1132.01110,0.11682
1133.93957,0.12045
1135.86804,0.12791
1137.79651,0.13092
1139.72498,0.13028
1141.65345,0.13237
1143.58191,0.13765
1145.51038,0.14026
1147.43885,0.14042
1149.36732,0.14284
1151.29579,0.14503
1153.22426,0.14605
1155.15273,0.15289
1157.08120,0.15923
1159.00966,0.15294
1160.93813,0.14308
1162.86660,0.13963
1164.79507,0.14027
1166.72354,0.14164
1168.65201,0.13882
1170.58048,0.13444
1172.50894,0.13595
1174.43741,0.13943
1176.36588,0.14045
1178.29435,0.14462
1180.22282,0.15038
1182.15129,0.15353
1184.07976,0.16426
1186.00823,0.17759
1187.93669,0.17238
1189.86516,0.15697
1191.79363,0.15100
1193.72210,0.15068
1195.65057,0.14882
1197.57904,0.14649
1199.50751,0.14371
1201.43597,0.14209
1203.36444,0.14380
1205.29291,0.14547
1207.22138,0.14645
1209.14985,0.15185
1211.07832,0.15856
1213.00679,0.15944
1214.93526,0.15837
1216.86372,0.15651
1218.79219,0.14675
1220.72066,0.13389
1222.64913,0.12980
1224.57760,0.13438
1226.50607,0.13965
1228.43454,0.14288
1230.36300,0.14511
1232.29147,0.14595
1234.21994,0.14436
1236.14841,0.14229
1238.07688,0.14417
1240.00535,0.14788
1241.93382,0.14851
1243.86229,0.14564
1245.79075,0.14061
1247.71922,0.13756
1249.64769,0.13983
1251.57616,0.14471
1253.50463,0.14684
1255.43310,0.14531
1257.36157,0.14294
1259.29003,0.14078
1261.21850,0.13970
1263.14697,0.14257
1265.07544,0.14781
1267.00391,0.14837
1268.93238,0.14553
1270.86085,0.14476
1272.78932,0.14733
1274.71778,0.15495
1276.64625,0.16340
1278.57472,0.16511
1280.50319,0.15900
1282.43166,0.15167
1284.36013,0.14992
1286.28860,0.15187
1288.21706,0.15376
1290.14553,0.15541
1292.07400,0.15349
1294.00247,0.14623
1295.93094,0.13986
1297.85941,0.13982
1299.78788,0.14469
1301.71634,0.14529
1303.64481,0.13479
1305.57328,0.12682
1307.50175,0.13586
1309.43022,0.15140
1311.35869,0.16132
1313.28716,0.16627
1315.21563,0.16530
1317.14409,0.16196
1319.07256,0.16278
1321.00103,0.16334
1322.92950,0.15817
1324.85797,0.15095
1326.78644,0.14660
1328.71491,0.14478
1330.64337,0.14370
1332.57184,0.14700
1334.50031,0.15525
1336.42878,0.16119
1338.35725,0.16259
1340.28572,0.15162
1342.21419,0.13624
1344.14266,0.13432
1346.07112,0.13232
1347.99959,0.13195
1349.92806,0.14336
1351.85653,0.14918
1353.78500,0.14631
1355.71347,0.14295
1357.64194,0.14314
1359.57040,0.14929
1361.49887,0.15571
1363.42734,0.15543
1365.35581,0.15123
1367.28428,0.15065
1369.21275,0.15662
1371.14122,0.16776
1373.06969,0.17647
1374.99815,0.17473
1376.92662,0.16917
1378.85509,0.16792
1380.78356,0.16470
1382.71203,0.15668
1384.64050,0.15314
1386.56897,0.15834
1388.49743,0.16552
1390.42590,0.16811
1392.35437,0.16867
1394.28284,0.17053
1396.21131,0.17612
1398.13978,0.18118
1400.06825,0.17785
1401.99672,0.17369
1403.92518,0.17530
1405.85365,0.17675
1407.78212,0.17260
1409.71059,0.16704
1411.63906,0.16660
1413.56753,0.17110
1415.49600,0.17884
1417.42446,0.18739
1419.35293,0.18314
1421.28140,0.16978
1423.20987,0.16368
1425.13834,0.16230
1427.06681,0.16519
1428.99528,0.17271
1430.92375,0.17618
1432.85221,0.17548
1434.78068,0.17829
1436.70915,0.17996
1438.63762,0.17495
1440.56609,0.17014
1442.49456,0.16749
1444.42303,0.16869
1446.35149,0.17278
1448.27996,0.17383
1450.20843,0.17581
1452.13690,0.18472
1454.06537,0.19905
1455.99384,0.22220
1457.92231,0.23240
1459.85077,0.20701
1461.77924,0.18948
1463.70771,0.19070
1465.63618,0.19514
1467.56465,0.19215
1469.49312,0.19461
1471.42159,0.20781
1473.35006,0.21247
1475.27852,0.19563
1477.20699,0.18050
1479.13546,0.17764
1481.06393,0.18238
1482.99240,0.18546
1484.92087,0.18778
1486.84934,0.19825
1488.77780,0.21430
1490.70627,0.21182
1492.63474,0.19457
1494.56321,0.18790
1496.49168,0.19458
1498.42015,0.19645
1500.34862,0.18730
1502.27709,0.18201
1504.20555,0.19386
1506.13402,0.22924
1508.06249,0.23824
1509.99096,0.21394
1511.91943,0.19995
1513.84790,0.19680
1515.77637,0.20181
1517.70483,0.21132
1519.63330,0.22237
1521.56177,0.22861
1523.49024,0.22279
1525.41871,0.21577
1527.34718,0.20765
1529.27565,0.19964
1531.20412,0.20162
1533.13258,0.20753
1535.06105,0.20247
1536.98952,0.20603
1538.91799,0.24309
1540.84646,0.28404
1542.77493,0.25675
1544.70340,0.21714
1546.63186,0.19561
1548.56033,0.18971
1550.48880,0.19087
1552.41727,0.19382
1554.34574,0.19935
1556.27421,0.21400
1558.20268,0.23628
1560.13115,0.22097
1562.05961,0.20088
1563.98808,0.19519
1565.91655,0.19306
1567.84502,0.19853
1569.77349,0.20635
1571.70196,0.20190
1573.63043,0.19917
1575.55889,0.20789
1577.48736,0.20868
1579.41583,0.19504
1581.34430,0.18616
1583.27277,0.18350
1585.20124,0.18072
1587.12971,0.17852
1589.05818,0.17769
1590.98664,0.17576
1592.91511,0.17494
1594.84358,0.17714
1596.77205,0.17837
1598.70052,0.17922
1600.62899,0.18332
1602.55746,0.18674
1604.48592,0.18553
1606.41439,0.18593
1608.34286,0.19088
1610.27133,0.19064
1612.19980,0.18485
1614.12827,0.18499
1616.05674,0.19236
1617.98521,0.19484
1619.91367,0.19618
1621.84214,0.20450
1623.77061,0.20951
1625.69908,0.20356
1627.62755,0.19357
1629.55602,0.18438
1631.48449,0.18466
1633.41295,0.19887
1635.34142,0.21911
1637.26989,0.21604
1639.19836,0.19931
1641.12683,0.19065
1643.05530,0.19580
1644.98377,0.21558
1646.91223,0.23192
1648.84070,0.22340
1650.76917,0.22222
1652.69764,0.23908
1654.62611,0.22988
1656.55458,0.20900
1658.48305,0.21384
1660.41152,0.23977
1662.33998,0.24016
1664.26845,0.20361
1666.19692,0.19210
1668.12539,0.20952
1670.05386,0.22252
1671.98233,0.21685
1673.91080,0.21210
1675.83926,0.20982
1677.76773,0.20520
1679.69620,0.20523
1681.62467,0.21817
1683.55314,0.24355
1685.48161,0.24197
1687.41008,0.22035
1689.33855,0.20614
1691.26701,0.19814
1693.19548,0.20097
1695.12395,0.21823
1697.05242,0.23649
1698.98089,0.24039
1700.90936,0.23159
1702.83783,0.22012
1704.76629,0.21455
1706.69476,0.20815
1708.62323,0.19753
1710.55170,0.18918
1712.48017,0.18863
1714.40864,0.20148
1716.33711,0.22286
1718.26558,0.21991
1720.19404,0.19912
1722.12251,0.18944
1724.05098,0.18653
1725.97945,0.18293
1727.90792,0.18604
1729.83639,0.19981
1731.76486,0.21475
1733.69332,0.21917
1735.62179,0.20769
1737.55026,0.20091
1739.47873,0.20465
1741.40720,0.20908
1743.33567,0.20732
1745.26414,0.20292
1747.19261,0.20371
1749.12107,0.20843
1751.04954,0.20178
1752.97801,0.18918
1754.90648,0.18650
1756.83495,0.19176
1758.76342,0.19592
1760.69189,0.19963
1762.62035,0.20062
1764.54882,0.19492
1766.47729,0.19313
1768.40576,0.20107
1770.33423,0.21371
1772.26270,0.21879
1774.19117,0.20877
1776.11964,0.19784
1778.04810,0.19429
1779.97657,0.19543
1781.90504,0.19489
1783.83351,0.19096
1785.76198,0.18551
1787.69045,0.18249
1789.61892,0.18787
1791.54738,0.19997
1793.47585,0.20378
1795.40432,0.19979
1797.33279,0.19740
1799.26126,0.19617
1801.18973,0.19437
1803.11820,0.19011
1805.04666,0.18643
1806.97513,0.18661
1808.90360,0.18934
1810.83207,0.19015
1812.76054,0.18572
1814.68901,0.18117
1816.61748,0.19242
1818.54595,0.21451
1820.47441,0.20925
1822.40288,0.18711
1824.33135,0.18670
1826.25982,0.19408
1828.18829,0.19522
1830.11676,0.19703
1832.04523,0.19151
1833.97369,0.18353
1835.90216,0.18312
1837.83063,0.18904
1839.75910,0.19413
1841.68757,0.19691
1843.61604,0.19592
1845.54451,0.18992
1847.47298,0.18641
1849.40144,0.18547
1851.32991,0.18270
1853.25838,0.18058
1855.18685,0.18214
1857.11532,0.18442
1859.04379,0.18520
1860.97226,0.18539
1862.90072,0.18637
1864.82919,0.19104
1866.75766,0.19998
1868.68613,0.20246
1870.61460,0.19097
1872.54307,0.17898
1874.47154,0.17629
1876.40001,0.18130
1878.32847,0.18573
1880.25694,0.18713
1882.18541,0.18917
1884.11388,0.19061
1886.04235,0.19014
1887.97082,0.19011
1889.89929,0.18868
1891.82775,0.18636
1893.75622,0.18719
1895.68469,0.18786
1897.61316,0.18631
1899.54163,0.18501
1901.47010,0.18521
1903.39857,0.18722
1905.32704,0.19008
1907.25550,0.19275
1909.18397,0.19284
1911.11244,0.18929
1913.04091,0.18760
1914.96938,0.19092
1916.89785,0.19391
1918.82632,0.19394
1920.75478,0.19534
1922.68325,0.19612
1924.61172,0.19041
1926.54019,0.18384
1928.46866,0.18358
1930.39713,0.18304
1932.32560,0.17841
1934.25407,0.17801
1936.18253,0.18249
1938.11100,0.18426
1940.03947,0.18518
1941.96794,0.19036
1943.89641,0.19509
1945.82488,0.19419
1947.75335,0.18861
1949.68181,0.18310
1951.61028,0.18284
1953.53875,0.18581
1955.46722,0.18805
1957.39569,0.18948
1959.32416,0.19042
1961.25263,0.19161
1963.18110,0.19493
1965.10956,0.19825
1967.03803,0.19687
1968.96650,0.19168
1970.89497,0.18769
1972.82344,0.18775
1974.75191,0.19183
1976.68038,0.19461
1978.60884,0.19129
1980.53731,0.18714
1982.46578,0.18675
1984.39425,0.18674
1986.32272,0.18632
1988.25119,0.18739
1990.17966,0.18965
1992.10812,0.19222
1994.03659,0.19375
1995.96506,0.19318
1997.89353,0.19101
1999.82200,0.18898
2001.75047,0.18943
2003.67894,0.18960
2005.60741,0.18624
2007.53587,0.18428
2009.46434,0.18573
2011.39281,0.18708
2013.32128,0.18762
2015.24975,0.18803
2017.17822,0.18769
2019.10669,0.18602
2021.03515,0.18702
2022.96362,0.19168
2024.89209,0.19319
2026.82056,0.19162
2028.74903,0.19204
2030.67750,0.19252
2032.60597,0.19194
2034.53444,0.19206
2036.46290,0.19200
2038.39137,0.19180
2040.31984,0.19201
2042.24831,0.19117
2044.17678,0.18877
2046.10525,0.18778
2048.03372,0.19012
2049.96218,0.19150
2051.89065,0.18868
2053.81912,0.18480
2055.74759,0.18198
2057.67606,0.17929
2059.60453,0.17689
2061.53300,0.17624
2063.46147,0.17906
2065.38993,0.18425
2067.31840,0.18858
2069.24687,0.18980
2071.17534,0.18683
2073.10381,0.18300
2075.03228,0.18281
2076.96075,0.18451
2078.88921,0.18489
2080.81768,0.18538
2082.74615,0.18699
2084.67462,0.18675
2086.60309,0.18488
2088.53156,0.18634
2090.46003,0.19013
2092.38850,0.19111
2094.31696,0.19085
2096.24543,0.19179
2098.17390,0.19221
2100.10237,0.19099
2102.03084,0.18829
2103.95931,0.18563
2105.88778,0.18574
2107.81624,0.18864
2109.74471,0.19242
2111.67318,0.19659
2113.60165,0.19851
2115.53012,0.19679
2117.45859,0.19542
2119.38706,0.19555
2121.31553,0.19564
2123.24399,0.19568
2125.17246,0.19378
2127.10093,0.19002
2129.02940,0.18670
2130.95787,0.18458
2132.88634,0.18823
2134.81481,0.19616
2136.74327,0.19829
2138.67174,0.19429
2140.60021,0.19003
2142.52868,0.18668
2144.45715,0.18411
2146.38562,0.18477
2148.31409,0.18647
2150.24255,0.18461
2152.17102,0.18406
2154.09949,0.18664
2156.02796,0.18843
2157.95643,0.19091
2159.88490,0.19328
2161.81337,0.19419
2163.74184,0.19670
2165.67030,0.20039
2167.59877,0.20247
2169.52724,0.20060
2171.45571,0.19305
2173.38418,0.18590
2175.31265,0.18595
2177.24112,0.18933
2179.16958,0.19212
2181.09805,0.19436
2183.02652,0.19553
2184.95499,0.19698
2186.88346,0.19844
2188.81193,0.19792
2190.74040,0.19559
2192.66887,0.19267
2194.59733,0.19060
2196.52580,0.19077
2198.45427,0.19248
2200.38274,0.19206
2202.31121,0.18879
2204.23968,0.18702
2206.16815,0.18804
2208.09661,0.18835
2210.02508,0.18778
2211.95355,0.18861
2213.88202,0.18924
2215.81049,0.18952
2217.73896,0.19165
2219.66743,0.19339
2221.59590,0.19304
2223.52436,0.19175
2225.45283,0.18859
2227.38130,0.18596
2229.30977,0.18672
2231.23824,0.18666
2233.16671,0.18594
2235.09518,0.18963
2237.02364,0.19542
2238.95211,0.19819
2240.88058,0.19664
2242.80905,0.19436
2244.73752,0.19504
2246.66599,0.19673
2248.59446,0.19742
2250.52293,0.19514
2252.45139,0.18988
2254.37986,0.18838
2256.30833,0.19231
2258.23680,0.19449
2260.16527,0.19298
2262.09374,0.19278
2264.02221,0.19380
2265.95067,0.19282
2267.87914,0.18929
2269.80761,0.18620
2271.73608,0.18815
2273.66455,0.19251
2275.59302,0.19409
2277.52149,0.19208
2279.44996,0.18836
2281.37842,0.18669
2283.30689,0.18840
2285.23536,0.19166
2287.16383,0.19430
2289.09230,0.19327
2291.02077,0.18690
2292.94924,0.17883
2294.87770,0.17404
2296.80617,0.17806
2298.73464,0.18912
2300.66311,0.19477
2302.59158,0.19481
2304.52005,0.19675
2306.44852,0.19895
2308.37699,0.20107
2310.30545,0.20337
2312.23392,0.20226
2314.16239,0.20292
2316.09086,0.21132
2318.01933,0.22222
2319.94780,0.23085
2321.87627,0.23219
2323.80473,0.22413
2325.73320,0.21768
2327.66167,0.21917
2329.59014,0.22422
2331.51861,0.22644
2333.44708,0.22441
2335.37555,0.22641
2337.30401,0.23695
2339.23248,0.24275
2341.16095,0.23170
2343.08942,0.21789
2345.01789,0.21915
2346.94636,0.22680
2348.87483,0.23256
2350.80330,0.23873
2352.73176,0.24358
2354.66023,0.24892
2356.58870,0.26813
2358.51717,0.28645
2360.44564,0.27686
2362.37411,0.26811
2364.30258,0.27879
2366.23104,0.28000
2368.15951,0.26028
2370.08798,0.23401
2372.01645,0.21716
2373.94492,0.21009
2375.87339,0.20925
2377.80186,0.21356
2379.73033,0.21476
2381.65879,0.20954
2383.58726,0.20330
2385.51573,0.19845
2387.44420,0.19528
2389.37267,0.19456
2391.30114,0.19453
2393.22961,0.19367
2395.15807,0.19186
2397.08654,0.18976
2399.01501,0.18953
2400.94348,0.19118
2402.87195,0.19353
2404.80042,0.19621
2406.72889,0.19779
2408.65736,0.19702
2410.58582,0.19413
2412.51429,0.19366
2414.44276,0.19866
2416.37123,0.20154
2418.29970,0.19676
2420.22817,0.19029
2422.15664,0.18806
2424.08510,0.18892
2426.01357,0.18974
2427.94204,0.19066
2429.87051,0.19196
2431.79898,0.19301
2433.72745,0.19391
2435.65592,0.19251
2437.58439,0.18949
2439.51285,0.18991
2441.44132,0.19258
2443.36979,0.19282
2445.29826,0.19242
2447.22673,0.19064
2449.15520,0.18534
2451.08367,0.18382
2453.01213,0.18714
2454.94060,0.19016
2456.86907,0.19340
2458.79754,0.19583
2460.72601,0.19635
2462.65448,0.19559
2464.58295,0.19409
2466.51142,0.19234
2468.43988,0.19045
2470.36835,0.19011
2472.29682,0.19105
2474.22529,0.19185
2476.15376,0.19236
2478.08223,0.19244
2480.01070,0.19285
2481.93916,0.19290
2483.86763,0.19107
2485.79610,0.19019
2487.72457,0.19174
2489.65304,0.19209
2491.58151,0.19235
2493.50998,0.19532
2495.43844,0.19724
2497.36691,0.19760
2499.29538,0.20044
2501.22385,0.20225
2503.15232,0.19991
2505.08079,0.19875
2507.00926,0.20005
2508.93773,0.19988
2510.86619,0.19815
2512.79466,0.19720
2514.72313,0.19697
2516.65160,0.19684
2518.58007,0.19748
2520.50854,0.19868
2522.43701,0.19931
2524.36547,0.19688
2526.29394,0.19299
2528.22241,0.19463
2530.15088,0.20106
2532.07935,0.20355
2534.00782,0.19997
2535.93629,0.19707
2537.86476,0.19807
2539.79322,0.19978
2541.72169,0.20092
2543.65016,0.20168
2545.57863,0.20134
2547.50710,0.20011
2549.43557,0.19705
2551.36404,0.19307
2553.29250,0.19171
2555.22097,0.19191
2557.14944,0.19238
2559.07791,0.19339
2561.00638,0.19273
2562.93485,0.19213
2564.86332,0.19664
2566.79179,0.20326
2568.72025,0.20424
2570.64872,0.20056
2572.57719,0.19758
2574.50566,0.19586
2576.43413,0.19397
2578.36260,0.19283
2580.29107,0.19508
2582.21953,0.19799
2584.14800,0.19725
2586.07647,0.19584
2588.00494,0.19594
2589.93341,0.19479
2591.86188,0.19193
2593.79035,0.19072
2595.71882,0.19438
2597.64728,0.20044
2599.57575,0.20201
2601.50422,0.19988
2603.43269,0.19922
2605.36116,0.20045
2607.28963,0.20746
2609.21810,0.21908
2611.14656,0.22050
2613.07503,0.20965
2615.00350,0.20105
2616.93197,0.19762
2618.86044,0.19453
2620.78891,0.19402
2622.71738,0.19717
2624.64585,0.20237
2626.57431,0.20635
2628.50278,0.20561
2630.43125,0.20399
2632.35972,0.20278
2634.28819,0.19967
2636.21666,0.19723
2638.14513,0.19660
2640.07359,0.19653
2642.00206,0.19592
2643.93053,0.19442
2645.85900,0.19258
2647.78747,0.19201
2649.71594,0.19504
2651.64441,0.19976
2653.57288,0.20204
2655.50134,0.20171
2657.42981,0.20065
2659.35828,0.19848
2661.28675,0.19624
2663.21522,0.19599
2665.14369,0.19569
2667.07216,0.19572
2669.00062,0.19783
2670.92909,0.19792
2672.85756,0.19381
2674.78603,0.19103
2676.71450,0.19326
2678.64297,0.19814
2680.57144,0.20325
2682.49990,0.20586
2684.42837,0.20632
2686.35684,0.20863
2688.28531,0.20987
2690.21378,0.20541
2692.14225,0.20018
2694.07072,0.20061
2695.99919,0.20364
2697.92765,0.20531
2699.85612,0.20694
2701.78459,0.20791
2703.71306,0.20676
2705.64153,0.20544
2707.57000,0.20665
2709.49847,0.20746
2711.42693,0.20400
2713.35540,0.20068
2715.28387,0.20235
2717.21234,0.20582
2719.14081,0.20537
2721.06928,0.20146
2722.99775,0.19751
2724.92622,0.19563
2726.85468,0.19765
2728.78315,0.20079
2730.71162,0.20182
2732.64009,0.20327
2734.56856,0.20580
2736.49703,0.20639
2738.42550,0.20589
2740.35396,0.20557
2742.28243,0.20497
2744.21090,0.20542
2746.13937,0.20459
2748.06784,0.20177
2749.99631,0.20188
2751.92478,0.20454
2753.85325,0.20553
2755.78171,0.20372
2757.71018,0.20205
2759.63865,0.20489
2761.56712,0.21006
2763.49559,0.21072
2765.42406,0.20529
2767.35253,0.19950
2769.28099,0.20021
2771.20946,0.20494
2773.13793,0.20753
2775.06640,0.20931
2776.99487,0.21099
2778.92334,0.21158
2780.85181,0.21258
2782.78028,0.21289
2784.70874,0.21154
2786.63721,0.20936
2788.56568,0.20545
2790.49415,0.20079
2792.42262,0.19971
2794.35109,0.20524
2796.27956,0.21164
2798.20802,0.21015
2800.13649,0.20419
2802.06496,0.19966
2803.99343,0.19736
2805.92190,0.19784
2807.85037,0.19834
2809.77884,0.19901
2811.70731,0.20217
2813.63577,0.20738
2815.56424,0.21406
2817.49271,0.21886
2819.42118,0.21897
2821.34965,0.21704
2823.27812,0.21616
2825.20659,0.21576
2827.13505,0.21577
2829.06352,0.21549
2830.99199,0.21332
2832.92046,0.21377
2834.84893,0.21774
2836.77740,0.21884
2838.70587,0.21758
2840.63433,0.21619
2842.56280,0.21354
2844.49127,0.21053
2846.41974,0.20746
2848.34821,0.20598
2850.27668,0.20634
2852.20515,0.20504
2854.13362,0.20304
2856.06208,0.20434
2857.99055,0.20829
2859.91902,0.21092
2861.84749,0.21332
2863.77596,0.21780
2865.70443,0.22163
2867.63290,0.22167
2869.56136,0.21827
2871.48983,0.21462
2873.41830,0.21117
2875.34677,0.20936
2877.27524,0.21216
2879.20371,0.21531
2881.13218,0.21395
2883.06065,0.20966
2884.98911,0.20688
2886.91758,0.20990
2888.84605,0.21642
2890.77452,0.21819
2892.70299,0.21452
2894.63146,0.21121
2896.55993,0.21096
2898.48839,0.21380
2900.41686,0.21553
2902.34533,0.21221
2904.27380,0.20693
2906.20227,0.20374
2908.13074,0.20536
2910.05921,0.21122
2911.98768,0.21264
2913.91614,0.20466
2915.84461,0.19647
2917.77308,0.19747
2919.70155,0.20378
2921.63002,0.20817
2923.55849,0.20760
2925.48696,0.20259
2927.41542,0.20155
2929.34389,0.20498
2931.27236,0.20217
2933.20083,0.19769
2935.12930,0.19934
2937.05777,0.20204
2938.98624,0.20532
2940.91471,0.21053
2942.84317,0.21350
2944.77164,0.21075
2946.70011,0.20438
2948.62858,0.20343
2950.55705,0.20750
2952.48552,0.20858
2954.41399,0.20608
2956.34245,0.19897
2958.27092,0.19418
2960.19939,0.20147
2962.12786,0.21067
2964.05633,0.21320
2965.98480,0.21378
2967.91327,0.21501
2969.84174,0.21894
2971.77020,0.22244
2973.69867,0.22062
2975.62714,0.21302
2977.55561,0.20299
2979.48408,0.20245
2981.41255,0.21024
2983.34102,0.21396
2985.26948,0.21354
2987.19795,0.21118
2989.12642,0.21151
2991.05489,0.21850
2992.98336,0.22424
2994.91183,0.22433
2996.84030,0.22108
2998.76877,0.21717
3000.69723,0.21605
3002.62570,0.21578
3004.55417,0.21450
3006.48264,0.21251
3008.41111,0.20819
3010.33958,0.20105
3012.26805,0.18717
3014.19651,0.16186
3016.12498,0.13724
3018.05345,0.14474
3019.98192,0.18233
3021.91039,0.20697
3023.83886,0.21191
3025.76733,0.21685
3027.69579,0.21966
3029.62426,0.21855
3031.55273,0.22183
3033.48120,0.22927
3035.40967,0.23203
3037.33814,0.22796
3039.26661,0.22394
3041.19508,0.22223
3043.12354,0.21902
3045.05201,0.21191
3046.98048,0.20143
3048.90895,0.19579
3050.83742,0.20256
3052.76589,0.21339
3054.69436,0.21194
3056.62282,0.20042
3058.55129,0.20184
3060.47976,0.21766
3062.40823,0.22727
3064.33670,0.22387
3066.26517,0.21561
3068.19364,0.21311
3070.12211,0.21633
3072.05057,0.21725
3073.97904,0.21234
3075.90751,0.20757
3077.83598,0.21155
3079.76445,0.21736
3081.69292,0.21328
3083.62139,0.20153
3085.54985,0.19560
3087.47832,0.20376
3089.40679,0.21376
3091.33526,0.21242
3093.26373,0.20300
3095.19220,0.19869
3097.12067,0.20449
3099.04914,0.20702
3100.97760,0.20010
3102.90607,0.19389
3104.83454,0.19737
3106.76301,0.20724
3108.69148,0.21155
3110.61995,0.20554
3112.54842,0.19894
3114.47688,0.20089
3116.40535,0.20745
3118.33382,0.21187
3120.26229,0.20937
3122.19076,0.20448
3124.11923,0.20651
3126.04770,0.20950
3127.97617,0.20926
3129.90463,0.21129
3131.83310,0.21445
3133.76157,0.21564
3135.69004,0.21766
3137.61851,0.21816
3139.54698,0.21273
3141.47545,0.21200
3143.40391,0.22241
3145.33238,0.23147
3147.26085,0.23204
3149.18932,0.22896
3151.11779,0.22804
3153.04626,0.23061
3154.97473,0.23004
3156.90320,0.22600
3158.83166,0.22727
3160.76013,0.23315
3162.68860,0.23569
3164.61707,0.23097
3166.54554,0.22438
3168.47401,0.22342
3170.40248,0.22781
3172.33094,0.23025
3174.25941,0.22440
3176.18788,0.21739
3178.11635,0.21772
3180.04482,0.22115
3181.97329,0.22399
3183.90176,0.22604
3185.83022,0.22541
3187.75869,0.22544
3189.68716,0.22791
3191.61563,0.22677
3193.54410,0.22215
3195.47257,0.21996
3197.40104,0.22201
3199.32951,0.22426
3201.25797,0.22266
3203.18644,0.22231
3205.11491,0.22821
3207.04338,0.23562
3208.97185,0.23753
3210.90032,0.23252
3212.82879,0.22667
3214.75725,0.22669
3216.68572,0.22931
3218.61419,0.22884
3220.54266,0.23001
3222.47113,0.23242
3224.39960,0.22886
3226.32807,0.22449
3228.25654,0.22268
3230.18500,0.21809
3232.11347,0.21319
3234.04194,0.21239
3235.97041,0.21259
3237.89888,0.21171
3239.82735,0.21414
3241.75582,0.21754
3243.68428,0.21630
3245.61275,0.21658
3247.54122,0.21879
3249.46969,0.21747
3251.39816,0.21936
3253.32663,0.22478
3255.25510,0.22500
3257.18357,0.22334
3259.11203,0.22559
3261.04050,0.23048
3262.96897,0.23510
3264.89744,0.23300
3266.82591,0.22423
3268.75438,0.21916
3270.68285,0.22000
3272.61131,0.22337
3274.53978,0.22707
3276.46825,0.22472
3278.39672,0.22026
3280.32519,0.22334
3282.25366,0.22603
3284.18213,0.22177
3286.11060,0.21944
3288.03906,0.22219
3289.96753,0.22510
3291.89600,0.22711
3293.82447,0.22631
3295.75294,0.21961
3297.68141,0.21334
3299.60988,0.21621
3301.53834,0.22258
3303.46681,0.22134
3305.39528,0.21492
3307.32375,0.21215
3309.25222,0.21337
3311.18069,0.21616
3313.10916,0.22001
3315.03763,0.22176
3316.96609,0.22023
3318.89456,0.22039
3320.82303,0.22176
3322.75150,0.21828
3324.67997,0.21380
3326.60844,0.21371
3328.53691,0.21383
3330.46537,0.20905
3332.39384,0.20452
3334.32231,0.20731
3336.25078,0.21130
3338.17925,0.21345
3340.10772,0.21572
3342.03619,0.21524
3343.96466,0.21526
3345.89312,0.21886
3347.82159,0.22463
3349.75006,0.22723
3351.67853,0.22281
3353.60700,0.21980
3355.53547,0.22222
3357.46394,0.22689
3359.39240,0.23141
3361.32087,0.22810
3363.24934,0.21830
3365.17781,0.21514
3367.10628,0.22016
3369.03475,0.22579
3370.96322,0.22672
3372.89168,0.22108
3374.82015,0.21410
3376.74862,0.21088
3378.67709,0.21046
3380.60556,0.21037
3382.53403,0.21006
3384.46250,0.20955
3386.39097,0.20900
3388.31943,0.21177
3390.24790,0.21651
3392.17637,0.21780
3394.10484,0.21808
3396.03331,0.21741
3397.96178,0.21166
3399.89025,0.20686
3401.81871,0.20689
3403.74718,0.20711
3405.67565,0.20693
3407.60412,0.20701
3409.53259,0.20828
3411.46106,0.21251
3413.38953,0.21632
3415.31800,0.21970
3417.24646,0.22607
3419.17493,0.22771
3421.10340,0.21945
3423.03187,0.21300
3424.96034,0.21228
3426.88881,0.21106
3428.81728,0.21149
3430.74574,0.21478
3432.67421,0.21647
3434.60268,0.21329
3436.53115,0.20533
3438.45962,0.20069
3440.38809,0.20298
3442.31656,0.20488
3444.24503,0.20785
3446.17349,0.21496
3448.10196,0.21730
3450.03043,0.21202
3451.95890,0.20716
3453.88737,0.20846
3455.81584,0.21278
3457.74431,0.21450
3459.67277,0.21415
3461.60124,0.20989
3463.52971,0.20206
3465.45818,0.20027
3467.38665,0.20440
3469.31512,0.20587
3471.24359,0.20581
3473.17206,0.20587
3475.10052,0.20356
3477.02899,0.20042
3478.95746,0.19746
3480.88593,0.19397
3482.81440,0.18945
3484.74287,0.18504
3486.67134,0.18369
3488.59980,0.18564
3490.52827,0.18947
3492.45674,0.19387
3494.38521,0.19559
3496.31368,0.19270
3498.24215,0.18745
3500.17062,0.18499
3502.09909,0.18903
3504.02755,0.19326
3505.95602,0.19125
3507.88449,0.18523
3509.81296,0.17802
3511.74143,0.17599
3513.66990,0.17847
3515.59837,0.17844
3517.52683,0.17906
3519.45530,0.18591
3521.38377,0.19359
3523.31224,0.19359
3525.24071,0.18918
3527.16918,0.18855
3529.09765,0.19131
3531.02611,0.19045
3532.95458,0.18531
3534.88305,0.18221
3536.81152,0.17754
3538.73999,0.16805
3540.66846,0.16388
3542.59693,0.16718
3544.52540,0.17258
3546.45386,0.17859
3548.38233,0.18277
3550.31080,0.18582
3552.23927,0.18731
3554.16774,0.18209
3556.09621,0.17409
3558.02468,0.16922
3559.95314,0.16628
3561.88161,0.16624
3563.81008,0.17597
3565.73855,0.19457
3567.66702,0.20108
3569.59549,0.18729
3571.52396,0.17260
3573.45243,0.16555
3575.38089,0.16474
3577.30936,0.16348
3579.23783,0.16069
3581.16630,0.15974
3583.09477,0.16062
3585.02324,0.16568
3586.95171,0.17623
3588.88017,0.18292
3590.80864,0.18396
3592.73711,0.18518
3594.66558,0.18228
3596.59405,0.17263
3598.52252,0.16464
3600.45099,0.16197
3602.37946,0.15955
3604.30792,0.15779
3606.23639,0.16260
3608.16486,0.16951
3610.09333,0.17126
3612.02180,0.17250
3613.95027,0.17084
3615.87874,0.16526
3617.80720,0.16648
3619.73567,0.17190
3621.66414,0.16723
3623.59261,0.16200
3625.52108,0.16749
3627.44955,0.18047
3629.37802,0.17864
3631.30649,0.16131
3633.23495,0.15467
3635.16342,0.15317
3637.09189,0.14916
3639.02036,0.14566
3640.94883,0.14378
3642.87730,0.14576
3644.80577,0.15713
3646.73423,0.17648
3648.66270,0.18621
3650.59117,0.17001
3652.51964,0.15397
3654.44811,0.14826
3656.37658,0.14463
3658.30505,0.13839
3660.23352,0.13551
3662.16198,0.13679
3664.09045,0.13907
3666.01892,0.14294
3667.94739,0.14900
3669.87586,0.15162
3671.80433,0.14875
3673.73280,0.15190
3675.66126,0.16223
3677.58973,0.16340
3679.51820,0.15796
3681.44667,0.15324
3683.37514,0.14502
3685.30361,0.13749
3687.23208,0.14608
3689.16055,0.16467
3691.08901,0.15578
3693.01748,0.13829
3694.94595,0.13473
3696.87442,0.13620
3698.80289,0.13823
3700.73136,0.14096
3702.65983,0.13998
3704.58829,0.13880
3706.51676,0.14670
3708.44523,0.16475
3710.37370,0.17975
3712.30217,0.16904
3714.23064,0.15141
3716.15911,0.14957
3718.08757,0.15594
3720.01604,0.16101
3721.94451,0.15831
3723.87298,0.14876
3725.80145,0.14120
3727.72992,0.13589
3729.65839,0.13815
3731.58686,0.15379
3733.51532,0.17118
3735.44379,0.17231
3737.37226,0.16211
3739.30073,0.15837
3741.22920,0.16617
3743.15767,0.18262
3745.08614,0.19081
3747.01460,0.18316
3748.94307,0.18150
3750.87154,0.17968
3752.80001,0.15968
3754.72848,0.14311
3756.65695,0.13625
3758.58542,0.12948
3760.51389,0.12373
3762.44235,0.12830
3764.37082,0.13900
3766.29929,0.14605
3768.22776,0.15031
3770.15623,0.14954
3772.08470,0.13437
3774.01317,0.11811
3775.94163,0.11398
3777.87010,0.12018
3779.79857,0.12713
3781.72704,0.13282
3783.65551,0.13928
3785.58398,0.13886
3787.51245,0.13163
3789.44092,0.12718
3791.36938,0.12680
3793.29785,0.12770
3795.22632,0.13005
3797.15479,0.13711
3799.08326,0.14894
3801.01173,0.15610
3802.94020,0.14471
3804.86866,0.12917
3806.79713,0.11814
3808.72560,0.11144
3810.65407,0.11249
3812.58254,0.12116
3814.51101,0.13715
3816.43948,0.14903
3818.36795,0.14792
3820.29641,0.15117
3822.22488,0.15477
3824.15335,0.14655
3826.08182,0.13565
3828.01029,0.12886
3829.93876,0.12787
3831.86723,0.12799
3833.79569,0.12868
3835.72416,0.13651
3837.65263,0.15137
3839.58110,0.15805
3841.50957,0.15101
3843.43804,0.13790
3845.36651,0.12637
3847.29498,0.12318
3849.22344,0.12887
3851.15191,0.14133
3853.08038,0.14698
3855.00885,0.13461
3856.93732,0.12967
3858.86579,0.13078
3860.79426,0.13731
3862.72272,0.15031
3864.65119,0.15267
3866.57966,0.14156
3868.50813,0.13438
3870.43660,0.12824
3872.36507,0.12225
3874.29354,0.12069
3876.22200,0.11538
3878.15047,0.11311
3880.07894,0.12537
3882.00741,0.13601
3883.93588,0.12992
3885.86435,0.12067
3887.79282,0.12409
3889.72129,0.13724
3891.64975,0.14130
3893.57822,0.12516
3895.50669,0.10957
3897.43516,0.10607
3899.36363,0.11299
3901.29210,0.12134
3903.22057,0.12443
3905.14903,0.12514
3907.07750,0.12220
3909.00597,0.11365
3910.93444,0.10600
3912.86291,0.10731
3914.79138,0.11520
3916.71985,0.12300
3918.64832,0.12553
3920.57678,0.11995
3922.50525,0.11340
3924.43372,0.11179
3926.36219,0.10690
3928.29066,0.09950
3930.21913,0.10123
3932.14760,0.10562
3934.07606,0.10374
3936.00453,0.10410
3937.93300,0.10757
3939.86147,0.11168
3941.78994,0.11722
3943.71841,0.11796
3945.64688,0.11294
3947.57535,0.10872
3949.50381,0.10586
3951.43228,0.10518
3953.36075,0.10874
3955.28922,0.11148
3957.21769,0.10833
3959.14616,0.10185
3961.07463,0.09475
3963.00309,0.08852
3964.93156,0.08800
3966.86003,0.09293
3968.78850,0.09659
3970.71697,0.09811
3972.64544,0.10027
3974.57391,0.10121
3976.50238,0.10201
3978.43084,0.10613
3980.35931,0.10876
3982.28778,0.10235
3984.21625,0.09221
3986.14472,0.09151
3988.07319,0.09825
3990.00166,0.10339
3991.93012,0.10702
3993.85859,0.10390
3995.78706,0.09223
3997.71553,0.08670
3999.64400,0.09236
4001.57247,0.09860
4003.50094,0.09889
4005.42941,0.09847
4007.35787,0.10062
4009.28634,0.09957
4011.21481,0.09854
4013.14328,0.10238
4015.07175,0.10397
4017.00022,0.10261
4018.92869,0.10367
4020.85715,0.10549
4022.78562,0.10299
4024.71409,0.09590
4026.64256,0.09231
4028.57103,0.09569
4030.49950,0.10021
4032.42797,0.10452
4034.35644,0.10704
4036.28490,0.10311
4038.21337,0.09514
4040.14184,0.08906
4042.07031,0.08695
4043.99878,0.08626
4045.92725,0.08475
4047.85572,0.08259
4049.78418,0.08166
4051.71265,0.08666
4053.64112,0.09537
4055.56959,0.09730
4057.49806,0.09231
4059.42653,0.09168
4061.35500,0.09545
4063.28346,0.09568
4065.21193,0.09409
4067.14040,0.09048
4069.06887,0.08466
4070.99734,0.08410
4072.92581,0.08625
4074.85428,0.08450
4076.78275,0.08275
4078.71121,0.08345
4080.63968,0.08457
4082.56815,0.08608
4084.49662,0.08782
4086.42509,0.08658
4088.35356,0.07921
4090.28203,0.07279
4092.21049,0.07639
4094.13896,0.08486
4096.06743,0.09047
4097.99590,0.09231
4099.92437,0.09153
4101.85284,0.08834
4103.78131,0.08169
4105.70978,0.07576
4107.63824,0.07582
4109.56671,0.07779
4111.49518,0.07665
4113.42365,0.07506
4115.35212,0.07521
4117.28059,0.07400
4119.20906,0.07445
4121.13752,0.08020
4123.06599,0.08183
4124.99446,0.07470
4126.92293,0.06821
4128.85140,0.06964
4130.77987,0.07570
4132.70834,0.07836
4134.63681,0.07496
4136.56527,0.06862
4138.49374,0.06666
4140.42221,0.07488
4142.35068,0.08534
4144.27915,0.08747
4146.20762,0.08420
4148.13609,0.08188
4150.06455,0.07729
4151.99302,0.06678
4153.92149,0.05734
4155.84996,0.05783
4157.77843,0.06658
4159.70690,0.07228
4161.63537,0.06645
4163.56384,0.05569
4165.49230,0.05351
4167.42077,0.05770
4169.34924,0.05617
4171.27771,0.05421
4173.20618,0.06534
4175.13465,0.08310
4177.06312,0.08933
4178.99158,0.08257
4180.92005,0.07550
4182.84852,0.07426
4184.77699,0.07317
4186.70546,0.06391
4188.63393,0.05360
4190.56240,0.05369
4192.49087,0.05982
4194.41933,0.06618
4196.34780,0.06967
4198.27627,0.06869
4200.20474,0.06717
4202.13321,0.06411
4204.06168,0.06086
4205.99015,0.06502
4207.91861,0.07056
4209.84708,0.06641
4211.77555,0.06125
4213.70402,0.06403
4215.63249,0.06156
4217.56096,0.05087
4219.48943,0.04797
4221.41789,0.05054
4223.34636,0.04978
4225.27483,0.05187
4227.20330,0.05438
4229.13177,0.05206
4231.06024,0.05288
4232.98871,0.05612
4234.91718,0.05422
4236.84564,0.05004
4238.77411,0.05000
4240.70258,0.05574
4242.63105,0.06210
4244.55952,0.06311
4246.48799,0.05981
4248.41646,0.05835
4250.34492,0.06179
4252.27339,0.06699
4254.20186,0.06882
4256.13033,0.06052
4258.05880,0.04472
4259.98727,0.03580
4261.91574,0.03489
4263.84421,0.03410
4265.77267,0.03558
4267.70114,0.04456
4269.62961,0.05792
4271.55808,0.06187
4273.48655,0.05474
4275.41502,0.04804
4277.34349,0.04355
4279.27195,0.04137
4281.20042,0.04200
4283.12889,0.04261
4285.05736,0.04478
4286.98583,0.04805
4288.91430,0.04840
4290.84277,0.04755
4292.77124,0.04916
4294.69970,0.05258
4296.62817,0.05154
4298.55664,0.04337
4300.48511,0.04042
4302.41358,0.04507
4304.34205,0.04730
4306.27052,0.04900
4308.19898,0.04891
4310.12745,0.04566
4312.05592,0.04538
4313.98439,0.04460
4315.91286,0.03848
4317.84133,0.03287
4319.76980,0.03549
4321.69827,0.03957
4323.62673,0.03385
4325.55520,0.02273
4327.48367,0.01836
4329.41214,0.02546
4331.34061,0.03592
4333.26908,0.04167
4335.19755,0.04404
4337.12601,0.04241
4339.05448,0.03422
4340.98295,0.02158
4342.91142,0.01440
4344.83989,0.01943
4346.76836,0.02548
4348.69683,0.02126
4350.62530,0.00714
4352.55376,-0.00442
4354.48223,0.00725
4356.41070,0.03335
4358.33917,0.04042
4360.26764,0.02676
4362.19611,0.01511
4364.12458,0.01550
4366.05304,0.02390
4367.98151,0.02801
4369.90998,0.02141
4371.83845,0.01110
4373.76692,0.00589
4375.69539,0.01124
4377.62386,0.02074
4379.55232,0.02253
4381.48079,0.01836
4383.40926,0.01654
4385.33773,0.01767
4387.26620,0.01884
4389.19467,0.01806
4391.12314,0.01253
4393.05161,0.00763
4394.98007,0.00590
4396.90854,0.00104
4398.83701,-0.00480
4400.76548,-0.00806
4402.69395,-0.00605
4404.62242,0.00629
4406.55089,0.02116
4408.47935,0.02313
4410.40782,0.01430
4412.33629,0.00829
4414.26476,0.00614
4416.19323,0.00680
4418.12170,0.01419
4420.05017,0.02133
4421.97864,0.01751
4423.90710,0.00860
4425.83557,0.00593
4427.76404,0.00605
4429.69251,0.00556
4431.62098,0.00796
4433.54945,0.00719
4435.47792,-0.00025
4437.40638,-0.00504
4439.33485,-0.00137
4441.26332,0.00868
4443.19179,0.01889
4445.12026,0.02010
4447.04873,0.01212
4448.97720,0.00567
4450.90567,0.00520
4452.83413,0.00813
4454.76260,0.01058
4456.69107,0.00564
4458.61954,-0.00560
4460.54801,-0.01333
4462.47648,-0.01904
4464.40495,-0.02428
4466.33341,-0.01400
4468.26188,0.00302
4470.19035,-0.00021
4472.11882,-0.01252
4474.04729,-0.01031
4475.97576,0.00341
4477.90423,0.01908
4479.83270,0.03402
4481.76116,0.03934
4483.68963,0.02830
4485.61810,0.01520
4487.54657,0.01401
4489.47504,0.01875
4491.40351,0.01977
4493.33198,0.01682
4495.26044,0.00899
4497.18891,0.00158
4499.11738,0.00426
4501.04585,0.00986
4502.97432,0.00894
4504.90279,0.00523
4506.83126,0.00727
4508.75973,0.01100
4510.68819,0.00714
4512.61666,0.00028
4514.54513,0.00100
4516.47360,0.00773
4518.40207,0.00610
4520.33054,-0.00325
4522.25901,-0.00291
4524.18747,0.00807
4526.11594,0.01249
4528.04441,0.00489
4529.97288,-0.00676
4531.90135,-0.01536
4533.82982,-0.01567
4535.75829,-0.01306
4537.68676,-0.01115
4539.61522,-0.00163
4541.54369,0.01078
4543.47216,0.01030
4545.40063,-0.00137
4547.32910,-0.00432
4549.25757,0.00879
4551.18604,0.02116
4553.11450,0.02277
4555.04297,0.02092
4556.97144,0.02149
4558.89991,0.02627
4560.82838,0.02790
4562.75685,0.02023
4564.68532,0.01118
4566.61378,0.00382
4568.54225,-0.00054
4570.47072,0.00727
4572.39919,0.01685
4574.32766,0.00635
4576.25613,-0.00746
4578.18460,0.00004
4580.11307,0.01162
4582.04153,0.01089
4583.97000,0.00451
4585.89847,-0.00036
4587.82694,0.00310
4589.75541,0.01094
4591.68388,0.01416
4593.61235,0.01773
4595.54081,0.02327
4597.46928,0.02064
4599.39775,0.00812
4601.32622,-0.00235
4603.25469,-0.00485
4605.18316,-0.00492
4607.11163,-0.00151
4609.04010,0.00825
4610.96856,0.01669
4612.89703,0.01806
4614.82550,0.01526
4616.75397,0.01160
4618.68244,0.00779
4620.61091,0.00416
4622.53938,-0.00137
4624.46784,-0.00810
4626.39631,-0.01792
4628.32478,-0.03413
4630.25325,-0.03769
4632.18172,-0.01828
4634.11019,0.00132
4636.03866,0.01298
4637.96713,0.02249
4639.89559,0.02362
4641.82406,0.01450
4643.75253,0.00827
4645.68100,0.01290
4647.60947,0.01966
4649.53794,0.01645
4651.46641,0.00398
4653.39487,-0.00455
4655.32334,-0.00379
4657.25181,0.00182
4659.18028,0.00504
4661.10875,0.00798
4663.03722,0.01278
4664.96569,0.00466
4666.89416,-0.01005
4668.82262,-0.01156
4670.75109,0.00019
4672.67956,0.00811
4674.60803,0.00057
4676.53650,-0.01196
4678.46497,-0.01431
4680.39344,-0.00386
4682.32190,0.01120
4684.25037,0.01872
4686.17884,0.01519
4688.10731,0.00739
4690.03578,0.00156
4691.96425,0.00291
4693.89272,0.01029
4695.82119,0.01774
4697.74965,0.02445
4699.67812,0.02129
4701.60659,0.00758
4703.53506,0.00108
4705.46353,0.00803
4707.39200,0.01300
4709.32047,0.01093
4711.24893,0.01745
4713.17740,0.02521
4715.10587,0.01590
4717.03434,0.00543
4718.96281,0.01318
4720.89128,0.02361
4722.81975,0.02084
4724.74821,0.01321
4726.67668,0.00024
4728.60515,-0.01883
4730.53362,-0.02638
4732.46209,-0.01202
4734.39056,0.00855
4736.31903,0.01390
4738.24750,0.00573
4740.17596,0.00005
4742.10443,0.00335
4744.03290,0.00918
4745.96137,0.01291
4747.88984,0.01207
4749.81831,0.00402
4751.74678,-0.00187
4753.67524,0.00364
4755.60371,0.01604
4757.53218,0.02733
4759.46065,0.02895
4761.38912,0.02233
4763.31759,0.02297
4765.24606,0.02982
4767.17453,0.03089
4769.10299,0.03099
4771.03146,0.02508
4772.95993,0.00587
4774.88840,-0.00663
4776.81687,0.00182
4778.74534,0.01849
4780.67381,0.02400
4782.60227,0.01696
4784.53074,0.00711
4786.45921,-0.00247
4788.38768,-0.00653
4790.31615,-0.00059
4792.24462,0.01205
4794.17309,0.01931
4796.10156,0.00877
4798.03002,-0.00395
4799.95849,-0.00032
4801.88696,0.00371
4803.81543,-0.00055
4805.74390,0.00405
4807.67237,0.01172
4809.60084,0.00872
4811.52930,0.00496
4813.45777,0.00415
4815.38624,0.00488
4817.31471,0.00497
4819.24318,-0.00462
4821.17165,-0.01364
4823.10012,-0.01071
4825.02859,-0.00493
4826.95705,-0.00499
4828.88552,-0.00881
4830.81399,-0.00547
4832.74246,0.00206
4834.67093,0.00085
4836.59940,-0.00086
4838.52787,0.00110
4840.45633,-0.00121
4842.38480,0.00249
4844.31327,0.01614
4846.24174,0.02549
4848.17021,0.02792
4850.09868,0.02721
4852.02715,0.02318
4853.95562,0.01627
4855.88408,0.00785
4857.81255,0.00233
4859.74102,0.00617
4861.66949,0.01334
4863.59796,0.01495
4865.52643,0.01438
4867.45490,0.01862
4869.38336,0.02599
4871.31183,0.01877
4873.24030,-0.00005
4875.16877,-0.00048
4877.09724,0.01292
4879.02571,0.00886
4880.95418,-0.00830
4882.88265,-0.00743
4884.81111,0.00886
4886.73958,0.00922
4888.66805,-0.01178
4890.59652,-0.02500
4892.52499,-0.01604
4894.45346,-0.00715
4896.38193,-0.00682
4898.31039,-0.00213
4900.23886,0.00138
4902.16733,0.00371
4904.09580,0.01977
4906.02427,0.03276
4907.95274,0.02428
4909.88121,0.00979
4911.80967,-0.00265
4913.73814,-0.01169
4915.66661,-0.00402
4917.59508,0.01014
4919.52355,0.01037
4921.45202,0.00823
4923.38049,0.01029
4925.30896,0.00749
4927.23742,-0.00121
4929.16589,-0.01770
4931.09436,-0.02380
4933.02283,-0.00272
4934.95130,0.01932
4936.87977,0.02492
4938.80824,0.02209
4940.73670,0.01778
4942.66517,0.02057
4944.59364,0.02287
4946.52211,0.01245
4948.45058,-0.00220
4950.37905,-0.01053
4952.30752,-0.00153
4954.23599,0.02369
4956.16445,0.03297
4958.09292,0.00767
4960.02139,-0.01752
4961.94986,-0.01222
4963.87833,0.00147
4965.80680,0.00621
4967.73527,0.00871
4969.66373,0.00849
4971.59220,0.00760
4973.52067,0.01521
4975.44914,0.02176
4977.37761,0.01437
4979.30608,0.00711
4981.23455,0.01445
4983.16302,0.02743
4985.09148,0.03131
4987.01995,0.01828
4988.94842,-0.00894
4990.87689,-0.02453
4992.80536,-0.01674
4994.73383,-0.01405
4996.66230,-0.02127
4998.59076,-0.02092
5000.51923,-0.01392
5002.44770,-0.00308
5004.37617,0.00120
5006.30464,-0.00264
5008.23311,-0.00491
5010.16158,-0.00766
5012.09005,-0.00104
5014.01851,0.01754
5015.94698,0.02748
5017.87545,0.01808
5019.80392,-0.00406
5021.73239,-0.02423
5023.66086,-0.03095
5025.58933,-0.02173
5027.51779,-0.00428
5029.44626,0.01093
5031.37473,0.01763
5033.30320,0.01672
5035.23167,0.01000
5037.16014,-0.00272
5039.08861,-0.01000
5041.01708,-0.00031
5042.94554,0.01915
5044.87401,0.01916
5046.80248,-0.00493
5048.73095,-0.01182
5050.65942,0.00237
5052.58789,0.00550
5054.51636,-0.00328
5056.44482,-0.00897
5058.37329,-0.01057
5060.30176,-0.00913
5062.23023,0.00129
5064.15870,0.02028
5066.08717,0.03167
5068.01564,0.02614
5069.94410,0.02440
5071.87257,0.02948
5073.80104,0.02821
5075.72951,0.03313
5077.65798,0.04479
5079.58645,0.04410
5081.51492,0.02619
5083.44339,0.01253
5085.37185,0.01666
5087.30032,0.01566
5089.22879,0.00440
5091.15726,-0.00136
5093.08573,-0.00094
5095.01420,0.01022
5096.94267,0.01972
5098.87113,0.01177
5100.79960,0.00776
5102.72807,0.01612
5104.65654,0.02018
5106.58501,0.02200
5108.51348,0.02996
5110.44195,0.03710
5112.37042,0.03910
5114.29888,0.03533
5116.22735,0.02493
5118.15582,0.02175
5120.08429,0.03016
5122.01276,0.02962
5123.94123,0.01714
5125.86970,0.02324
5127.79816,0.04980
5129.72663,0.06333
5131.65510,0.06528
5133.58357,0.06113
5135.51204,0.04441
5137.44051,0.03081
5139.36898,0.02231
5141.29745,0.01189
5143.22591,0.01198
5145.15438,0.02249
5147.08285,0.02069
5149.01132,0.00922
5150.93979,0.01483
5152.86826,0.03151
5154.79673,0.03517
5156.72519,0.02644
5158.65366,0.02679
5160.58213,0.03847
5162.51060,0.03575
5164.43907,0.01673
5166.36754,0.00557
5168.29601,0.00141
5170.22448,-0.00715
5172.15294,-0.01131
5174.08141,-0.00322
5176.00988,0.00814
5177.93835,0.01285
5179.86682,0.01160
5181.79529,0.01190
5183.72376,0.01107
5185.65222,-0.00128
5187.58069,-0.01891
5189.50916,-0.02367
5191.43763,-0.01094
5193.36610,0.00317
5195.29457,0.00735
5197.22304,0.00628
5199.15151,0.00590
5201.07997,0.01074
5203.00844,0.00918
5204.93691,-0.01008
5206.86538,-0.01691
5208.79385,0.00982
5210.72232,0.03277
5212.65079,0.02967
5214.57925,0.01828
5216.50772,0.02362
5218.43619,0.04020
5220.36466,0.03411
5222.29313,0.00430
5224.22160,-0.00781
5226.15007,0.01679
5228.07854,0.04448
5230.00700,0.04708
5231.93547,0.02987
5233.86394,0.01059
5235.79241,0.00125
5237.72088,0.00727
5239.64935,0.02490
5241.57782,0.03237
5243.50628,0.02245
5245.43475,0.01732
5247.36322,0.03081
5249.29169,0.04642
5251.22016,0.05454
5253.14863,0.06591
5255.07710,0.06574
5257.00556,0.04742
5258.93403,0.03069
5260.86250,0.01133
5262.79097,-0.00569
5264.71944,0.00785
5266.64791,0.03757
5268.57638,0.03596
5270.50485,0.00064
5272.43331,-0.02321
5274.36178,-0.02536
5276.29025,-0.02276
5278.21872,0.00069
5280.14719,0.03868
5282.07566,0.04771
5284.00413,0.04502
5285.93259,0.06549
5287.86106,0.08163
5289.78953,0.08219
5291.71800,0.08061
5293.64647,0.06581
5295.57494,0.04946
5297.50341,0.05259
5299.43188,0.07107
5301.36034,0.08768
5303.28881,0.07999
5305.21728,0.05734
5307.14575,0.04612
5309.07422,0.04894
5311.00269,0.05491
5312.93116,0.05599
5314.85962,0.05854
5316.78809,0.06269
5318.71656,0.05525
5320.64503,0.03615
5322.57350,0.01194
5324.50197,-0.00443
5326.43044,0.00402
5328.35891,0.02797
5330.28737,0.03729
5332.21584,0.02218
5334.14431,-0.00440
5336.07278,-0.01781
5338.00125,0.00362
5339.92972,0.03324
5341.85819,0.03579
5343.78665,0.04353
5345.71512,0.05783
5347.64359,0.04264
5349.57206,0.02155
5351.50053,0.01243
5353.42900,0.01593
5355.35747,0.01801
5357.28594,0.00566
5359.21440,0.00534
5361.14287,0.01948
5363.07134,0.02139
5364.99981,0.01604
5366.92828,0.01667
5368.85675,0.01397
5370.78522,0.01472
5372.71368,0.02211
5374.64215,0.01755
5376.57062,0.00855
5378.49909,0.01115
5380.42756,0.01806
5382.35603,0.02125
5384.28450,0.02392
5386.21297,0.03028
5388.14143,0.03739
5390.06990,0.04905
5391.99837,0.05539
5393.92684,0.04410
5395.85531,0.03060
5397.78378,0.02542
5399.71225,0.01795
5401.64071,0.00870
5403.56918,0.00880
5405.49765,0.02503
5407.42612,0.05941
5409.35459,0.09471
5411.28306,0.11835
5413.21153,0.13072
5415.13999,0.11880
5417.06846,0.08838
5418.99693,0.04988
5420.92540,0.01067
5422.85387,-0.00952
5424.78234,-0.00964
5426.71081,0.00273
5428.63928,0.03959
5430.56774,0.08446
5432.49621,0.10378
5434.42468,0.09006
5436.35315,0.05952
5438.28162,0.04959
5440.21009,0.06312
5442.13856,0.07312
5444.06702,0.07217
5445.99549,0.07171
5447.92396,0.07111
5449.85243,0.05792
5451.78090,0.04496
5453.70937,0.06057
5455.63784,0.09434
5457.56631,0.10558
5459.49477,0.08766
5461.42324,0.05798
5463.35171,0.03277
5465.28018,0.03064
5467.20865,0.05421
5469.13712,0.07852
5471.06559,0.07180
5472.99405,0.05631
5474.92252,0.07623
5476.85099,0.10710
5478.77946,0.08969
5480.70793,0.04276
5482.63640,0.02013
5484.56487,0.02770
5486.49334,0.03580
5488.42180,0.04203
5490.35027,0.06514
5492.27874,0.07966
5494.20721,0.06572
5496.13568,0.06314
5498.06415,0.06362
5499.99262,0.03334
5501.92108,0.00953
5503.84955,0.02835
5505.77802,0.05683
5507.70649,0.07221
5509.63496,0.08781
5511.56343,0.10385
5513.49190,0.09743
5515.42037,0.05906
5517.34883,0.03442
5519.27730,0.04399
5521.20577,0.05192
5523.13424,0.05620
5525.06271,0.07150
5526.99118,0.08764
5528.91965,0.08885
5530.84811,0.07401
5532.77658,0.06513
5534.70505,0.07093
5536.63352,0.06717
5538.56199,0.05192
5540.49046,0.05134
5542.41893,0.05471
5544.34740,0.05892
5546.27586,0.08172
5548.20433,0.09091
5550.13280,0.07250
5552.06127,0.05378
5553.98974,0.04404
5555.91821,0.04842
5557.84668,0.06151
5559.77514,0.05292
5561.70361,0.01488
5563.63208,-0.00622
5565.56055,0.01845
5567.48902,0.05341
5569.41749,0.07776
5571.34596,0.10193
5573.27443,0.10996
5575.20289,0.08287
5577.13136,0.05421
5579.05983,0.05817
5580.98830,0.07910
5582.91677,0.07825
5584.84524,0.04947
5586.77371,0.01996
5588.70217,0.01007
5590.63064,0.02267
5592.55911,0.02720
5594.48758,0.01529
5596.41605,0.02799
5598.34452,0.05533
5600.27299,0.06241
5602.20145,0.05804
5604.12992,0.05748
5606.05839,0.06462
5607.98686,0.06938
5609.91533,0.05372
5611.84380,0.02563
5613.77227,0.01130
5615.70074,0.00471
5617.62920,-0.00450
5619.55767,0.00990
5621.48614,0.06239
5623.41461,0.09270
5625.34308,0.06083
5627.27155,0.03975
5629.20002,0.06405
5631.12848,0.08063
5633.05695,0.06828
5634.98542,0.05256
5636.91389,0.05893
5638.84236,0.07861
5640.77083,0.10361
5642.69930,0.12467
5644.62777,0.12025
5646.55623,0.09769
5648.48470,0.08731
5650.41317,0.09345
5652.34164,0.09648
5654.27011,0.07907
5656.19858,0.04553
5658.12705,0.02177
5660.05551,0.01500
5661.98398,0.03434
5663.91245,0.09128
5665.84092,0.13130
5667.76939,0.12512
5669.69786,0.11981
5671.62633,0.13135
5673.55480,0.13649
5675.48326,0.13074
5677.41173,0.12660
5679.34020,0.10946
5681.26867,0.06310
5683.19714,0.02161
5685.12561,0.01908
5687.05408,0.05059
5688.98254,0.09222
5690.91101,0.12947
5692.83948,0.14148
5694.76795,0.12602
5696.69642,0.11562
5698.62489,0.10536
5700.55336,0.10928
5702.48183,0.15162
5704.41029,0.16999
5706.33876,0.13118
5708.26723,0.09946
5710.19570,0.10811
5712.12417,0.12550
5714.05264,0.13318
5715.98111,0.11044
5717.90957,0.05637
5719.83804,0.01938
5721.76651,0.02408
5723.69498,0.05047
5725.62345,0.06989
5727.55192,0.07973
5729.48039,0.07996
5731.40886,0.05906
5733.33732,0.05227
5735.26579,0.08950
5737.19426,0.10583
5739.12273,0.07348
5741.05120,0.04211
5742.97967,0.00942
5744.90814,-0.00674
5746.83660,0.02498
5748.76507,0.05591
5750.69354,0.06113
5752.62201,0.06342
5754.55048,0.05015
5756.47895,0.04694
5758.40742,0.07929
5760.33588,0.10835
5762.26435,0.10698
5764.19282,0.07938
5766.12129,0.05314
5768.04976,0.04580
5769.97823,0.02500
5771.90670,0.00130
5773.83517,0.04554
5775.76363,0.11805
5777.69210,0.11070
5779.62057,0.03999
5781.54904,0.01042
5783.47751,0.05485
5785.40598,0.10304
5787.33445,0.11171
5789.26291,0.10552
5791.19138,0.08371
5793.11985,0.04940
5795.04832,0.02843
5796.97679,0.03399
5798.90526,0.04876
5800.83373,0.06233
5802.76220,0.08668
5804.69066,0.10564
5806.61913,0.11015
5808.54760,0.11152
5810.47607,0.10208
5812.40454,0.06312
5814.33301,-0.02146
5816.26148,-0.09692
5818.18994,-0.07227
5820.11841,0.02027
5822.04688,0.07374
5823.97535,0.06508
5825.90382,0.05342
5827.83229,0.09007
5829.76076,0.14574
5831.68923,0.15637
5833.61769,0.12351
5835.54616,0.08964
5837.47463,0.06618
5839.40310,0.05134
5841.33157,0.04972
5843.26004,0.05044
5845.18851,0.06873
5847.11697,0.10548
5849.04544,0.09246
5850.97391,0.02374
5852.90238,-0.00830
5854.83085,0.04128
5856.75932,0.13229
5858.68779,0.16612
5860.61626,0.11001
5862.54472,0.05100
5864.47319,0.05708
5866.40166,0.08369
5868.33013,0.06836
5870.25860,0.03446
5872.18707,0.02854
5874.11554,0.06968
5876.04400,0.13070
5877.97247,0.14446
5879.90094,0.11351
5881.82941,0.09620
5883.75788,0.11608
5885.68635,0.13578
5887.61482,0.10521
5889.54329,0.03748
5891.47175,0.01127
5893.40022,0.06527
5895.32869,0.12987
5897.25716,0.15022
5899.18563,0.14467
5901.11410,0.13188
5903.04257,0.10324
5904.97103,0.04543
5906.89950,0.00418
5908.82797,0.02851
5910.75644,0.08731
5912.68491,0.12083
5914.61338,0.10880
5916.54185,0.08447
5918.47032,0.05172
5920.39878,-0.00669
5922.32725,-0.05000
5924.25572,-0.06025
5926.18419,-0.06647
5928.11266,-0.05984
5930.04113,-0.03933
5931.96960,-0.03560
5933.89806,-0.02051
5935.82653,0.04135
5937.75500,0.09447
5939.68347,0.09283
5941.61194,0.08359
5943.54041,0.10333
5945.46888,0.11493
5947.39734,0.10948
5949.32581,0.11184
5951.25428,0.11949
5953.18275,0.10989
5955.11122,0.07415
5957.03969,0.01872
5958.96816,-0.03783
5960.89663,-0.04791
5962.82509,0.01139
5964.75356,0.07836
5966.68203,0.07279
5968.61050,0.01977
5970.53897,0.01259
5972.46744,0.05181
5974.39591,0.07132
5976.32437,0.05310
5978.25284,0.03107
5980.18131,0.04827
5982.10978,0.08421
5984.03825,0.06506
5985.96672,0.01498
5987.89519,0.00093
5989.82366,0.02541
5991.75212,0.06824
5993.68059,0.09565
5995.60906,0.10949
5997.53753,0.11440
5999.46600,0.10934
6001.39447,0.12237
6003.32294,0.13284
6005.25140,0.10291
6007.17987,0.07150
6009.10834,0.08306
6011.03681,0.10170
6012.96528,0.08239
6014.89375,0.04399
6016.82222,0.04061
6018.75069,0.07356
6020.67915,0.09106
6022.60762,0.10190
6024.53609,0.11862
6026.46456,0.13036
6028.39303,0.14551
6030.32150,0.14313
6032.24997,0.10939
6034.17843,0.08909
6036.10690,0.11878
6038.03537,0.14322
6039.96384,0.10720
6041.89231,0.07472
6043.82078,0.10087
6045.74925,0.14226
6047.67772,0.16864
6049.60618,0.16494
6051.53465,0.12522
6053.46312,0.10128
6055.39159,0.11135
6057.32006,0.10871
6059.24853,0.10540
6061.17700,0.13213
6063.10546,0.13655
6065.03393,0.09128
6066.96240,0.02751
6068.89087,-0.01282
6070.81934,0.01787
6072.74781,0.07066
6074.67628,0.08992
6076.60475,0.11666
6078.53321,0.15792
6080.46168,0.17852
6082.39015,0.14493
6084.31862,0.08575
6086.24709,0.08252
6088.17556,0.10741
6090.10403,0.12979
6092.03249,0.15392
6093.96096,0.12686
6095.88943,0.06249
6097.81790,0.01590
6099.74637,0.02059
6101.67484,0.07489
6103.60331,0.09038
6105.53177,0.04220
6107.46024,0.01006
6109.38871,0.01878
6111.31718,0.03428
6113.24565,0.03293
6115.17412,0.02400
6117.10259,0.00401
6119.03106,-0.02392
6120.95952,0.02510
6122.88799,0.11286
6124.81646,0.15898
6126.74493,0.18365
6128.67340,0.15333
6130.60187,0.06980
6132.53034,0.03404
6134.45880,0.07144
6136.38727,0.12208
6138.31574,0.15873
6140.24421,0.20864
6142.17268,0.24137
6144.10115,0.18097
6146.02962,0.07498
6147.95809,0.07059
6149.88655,0.17131
6151.81502,0.21774
6153.74349,0.17133
6155.67196,0.13724
6157.60043,0.14295
6159.52890,0.16426
6161.45737,0.15835
6163.38583,0.10961
6165.31430,0.08001
6167.24277,0.08207
6169.17124,0.09339
6171.09971,0.11411
6173.02818,0.09828
6174.95665,0.03382
6176.88512,-0.01405
6178.81358,-0.03857
6180.74205,-0.09240
6182.67052,-0.15692
6184.59899,-0.15830
6186.52746,-0.08130
6188.45593,-0.01565
6190.38440,-0.01085
6192.31286,0.00837
6194.24133,0.05269
6196.16980,0.08849
6198.09827,0.12715
6200.02674,0.14432
6201.95521,0.12417
6203.88368,0.12841
6205.81215,0.15822
6207.74061,0.11800
6209.66908,0.00767
6211.59755,-0.02417
6213.52602,0.05713
6215.45449,0.11702
6217.38296,0.11473
6219.31143,0.09600
6221.23989,0.06733
6223.16836,0.04261
6225.09683,0.03328
6227.02530,0.03778
6228.95377,0.09194
6230.88224,0.16700
6232.81071,0.14592
6234.73918,0.04478
6236.66764,0.00140
6238.59611,0.04141
6240.52458,0.11109
6242.45305,0.16550
6244.38152,0.16014
6246.30999,0.13088
6248.23846,0.14358
6250.16692,0.13701
6252.09539,0.06735
6254.02386,0.00854
6255.95233,0.00271
6257.88080,0.03749
6259.80927,0.09275
6261.73774,0.15978
6263.66621,0.20524
6265.59467,0.16850
6267.52314,0.06336
6269.45161,0.03044
6271.38008,0.11756
6273.30855,0.18212
6275.23702,0.14758
6277.16549,0.15465
6279.09395,0.21688
6281.02242,0.20011
6282.95089,0.12002
6284.87936,0.05597
6286.80783,0.01719
6288.73630,0.02071
6290.66477,0.03898
6292.59323,0.04027
6294.52170,0.07320
6296.45017,0.10691
6298.37864,0.10428
6300.30711,0.13441
6302.23558,0.14193
6304.16405,0.03304
6306.09252,-0.04955
6308.02098,-0.00597
6309.94945,0.06109
6311.87792,0.05532
6313.80639,0.03289
6315.73486,0.05560
6317.66333,0.07755
6319.59180,0.09068
6321.52026,0.12104
6323.44873,0.14132
6325.37720,0.12186
6327.30567,0.08101
6329.23414,0.07707
6331.16261,0.10414
6333.09108,0.08842
6335.01955,0.04362
6336.94801,0.04209
6338.87648,0.05687
6340.80495,0.04256
6342.73342,0.03060
6344.66189,0.02504
6346.59036,0.01984
6348.51883,0.02960
6350.44729,0.05932
6352.37576,0.08671
6354.30423,0.06275
6356.23270,0.02015
6358.16117,0.02675
6360.08964,0.06642
6362.01811,0.08298
6363.94658,0.05661
6365.87504,0.01353
6367.80351,0.03309
6369.73198,0.13443
6371.66045,0.23016
6373.58892,0.24358
6375.51739,0.17566
6377.44586,0.08533
6379.37432,0.04565
6381.30279,0.08021
6383.23126,0.12055
6385.15973,0.13709
6387.08820,0.16717
6389.01667,0.14772
6390.94514,0.05665
6392.87361,-0.05073
6394.80207,-0.11671
6396.73054,-0.04779
6398.65901,0.08723
6400.58748,0.10580
6402.51595,0.03567
6404.44442,0.01405
6406.37289,0.05901
6408.30135,0.12299
6410.22982,0.14161
6412.15829,0.16650
6414.08676,0.22441
6416.01523,0.23687
6417.94370,0.21839
6419.87217,0.18076
6421.80064,0.07523
6423.72910,-0.00299
6425.65757,0.05184
6427.58604,0.12724
6429.51451,0.14567
6431.44298,0.11469
6433.37145,0.01152
6435.29992,-0.04858
6437.22838,0.03513
6439.15685,0.14778
6441.08532,0.15138
6443.01379,0.05918
6444.94226,-0.06272
6446.87073,-0.13716
6448.79920,-0.11798
6450.72766,-0.04837
6452.65613,0.02657
6454.58460,0.10357
6456.51307,0.12767
6458.44154,0.05083
6460.37001,-0.04015
6462.29848,-0.04410
6464.22695,0.03237
6466.15541,0.12205
6468.08388,0.16800
6470.01235,0.14266
6471.94082,0.04270
6473.86929,-0.06465
6475.79776,-0.08505
6477.72623,-0.00132
6479.65469,0.07923
6481.58316,0.04915
6483.51163,-0.01917
6485.44010,-0.00866
6487.36857,0.01097
6489.29704,-0.02317
6491.22551,-0.00871
6493.15398,0.05345
6495.08244,0.06710
6497.01091,0.06426
6498.93938,0.06679
6500.86785,0.07166
6502.79632,0.06486
6504.72479,0.02636
6506.65326,-0.02281
6508.58172,-0.04880
6510.51019,-0.01116
6512.43866,0.07419
6514.36713,0.10967
6516.29560,0.07594
6518.22407,0.04163
6520.15254,0.01330
6522.08101,-0.04383
6524.00947,-0.06676
6525.93794,-0.01523
6527.86641,0.02326
6529.79488,0.05711
6531.72335,0.11177
6533.65182,0.11151
6535.58029,0.04748
6537.50875,0.01041
6539.43722,0.06161
6541.36569,0.12859
6543.29416,0.10032
6545.22263,-0.01888
6547.15110,-0.10497
6549.07957,-0.06098
6551.00804,0.06868
6552.93650,0.16846
6554.86497,0.20987
6556.79344,0.19663
6558.72191,0.14283
6560.65038,0.11733
6562.57885,0.15704
6564.50732,0.16225
6566.43578,0.12807
6568.36425,0.17656
6570.29272,0.15680
6572.22119,-0.05572
6574.14966,-0.16433
6576.07813,-0.02807
6578.00660,0.10750
6579.93507,0.11113
6581.86353,0.07815
6583.79200,0.04016
6585.72047,0.01274
6587.64894,0.06536
6589.57741,0.13815
6591.50588,0.11594
6593.43435,0.05018
6595.36281,0.06058
6597.29128,0.10780
6599.21975,0.15393
6601.14822,0.22601
6603.07669,0.25089
6605.00516,0.21382
6606.93363,0.16145
6608.86210,0.06236
6610.79056,-0.05915
6612.71903,-0.12803
6614.64750,-0.13679
6616.57597,-0.09586
6618.50444,-0.06807
6620.43291,-0.08120
6622.36138,-0.06923
6624.28984,-0.04175
6626.21831,-0.02088
6628.14678,0.01134
6630.07525,0.02137
6632.00372,-0.03799
6633.93219,-0.14251
6635.86066,-0.13420
6637.78912,0.01848
6639.71759,0.09365
6641.64606,0.08962
6643.57453,0.10616
6645.50300,0.11617
6647.43147,0.11851
6649.35994,0.09024
6651.28841,0.01991
6653.21687,0.01508
6655.14534,0.08211
6657.07381,0.10687
6659.00228,0.06455
6660.93075,0.01177
6662.85922,-0.01889
6664.78769,-0.03414
6666.71615,-0.03460
6668.64462,0.01356
6670.57309,0.08396
6672.50156,0.09595
6674.43003,0.09639
6676.35850,0.13418
6678.28697,0.09994
6680.21544,-0.00135
6682.14390,0.00154
6684.07237,0.10486
6686.00084,0.06966
6687.92931,-0.09008
6689.85778,-0.09709
6691.78625,-0.03405
6693.71472,-0.06708
6695.64318,-0.11625
6697.57165,-0.13090
6699.50012,-0.07136
6701.42859,0.07547
6703.35706,0.13092
6705.28553,0.07002
6707.21400,0.03165
6709.14247,0.02763
6711.07093,0.02195
6712.99940,0.01259
6714.92787,0.01879
6716.85634,0.04390
6718.78481,0.07421
6720.71328,0.06599
6722.64175,-0.02021
6724.57021,-0.08264
6726.49868,-0.02980
6728.42715,0.05954
6730.35562,0.11586
6732.28409,0.15654
6734.21256,0.18531
6736.14103,0.19892
6738.06950,0.17548
6739.99796,0.06782
6741.92643,0.00418
6743.85490,0.09702
6745.78337,0.16088
6747.71184,0.11187
6749.64031,0.06311
6751.56878,0.11629
6753.49724,0.28174
6755.42571,0.35071
6757.35418,0.20998
6759.28265,0.11375
6761.21112,0.14448
6763.13959,0.06607
6765.06806,-0.04255
6766.99653,-0.00956
6768.92499,0.08712
6770.85346,0.14706
6772.78193,0.15139
6774.71040,0.08913
6776.63887,-0.01190
6778.56734,-0.06721
6780.49581,-0.05582
6782.42427,-0.03528
6784.35274,-0.06309
6786.28121,-0.15224
6788.20968,-0.23112
6790.13815,-0.15407
6792.06662,0.03748
6793.99509,0.09557
6795.92355,0.03963
6797.85202,0.01802
6799.78049,0.02305
6801.70896,0.02545
6803.63743,-0.01115
6805.56590,-0.08577
6807.49437,-0.03664
6809.42284,0.09504
6811.35130,0.14532
6813.27977,0.15915
6815.20824,0.17905
6817.13671,0.15990
6819.06518,0.12888
6820.99365,0.11004
6822.92212,0.10548
6824.85058,0.08478
6826.77905,0.02656
6828.70752,-0.04127
6830.63599,-0.10690
6832.56446,-0.18635
6834.49293,-0.23943
6836.42140,-0.17124
6838.34987,-0.03888
6840.27833,0.03372
6842.20680,0.08496
6844.13527,0.10083
6846.06374,0.04016
6847.99221,0.04381
6849.92068,0.15305
6851.84915,0.19051
6853.77761,0.17084
6855.70608,0.19896
6857.63455,0.29801
6859.56302,0.37290
6861.49149,0.25775
6863.41996,0.02572
6865.34843,-0.06360
6867.27690,-0.00464
6869.20536,0.08747
6871.13383,0.15681
6873.06230,0.18699
6874.99077,0.17200
6876.91924,0.11037
6878.84771,0.07657
6880.77618,0.13078
6882.70464,0.13789
6884.63311,0.04964
6886.56158,0.02835
6888.49005,0.11247
6890.41852,0.16728
6892.34699,0.14693
6894.27546,0.09215
6896.20393,0.04474
6898.13239,0.00051
6900.06086,-0.03673
6901.98933,-0.03270
6903.91780,-0.02311
6905.84627,-0.00877
6907.77474,0.07820
6909.70321,0.11667
6911.63167,-0.00716
6913.56014,-0.07284
6915.48861,0.06600
6917.41708,0.19053
6919.34555,0.11620
6921.27402,-0.01116
6923.20249,-0.04545
6925.13096,-0.06037
6927.05942,-0.08099
6928.98789,-0.08531
6930.91636,-0.06502
6932.84483,-0.01949
6934.77330,0.01513
6936.70177,-0.01071
6938.63024,-0.08601
6940.55870,-0.13183
6942.48717,-0.10185
6944.41564,-0.03414
6946.34411,-0.00559
6948.27258,-0.02063
6950.20105,0.04277
6952.12952,0.13988
6954.05799,0.17864
6955.98645,0.20599
6957.91492,0.23358
6959.84339,0.21049
6961.77186,0.16074
6963.70033,0.06557
6965.62880,-0.06355
6967.55727,-0.07616
6969.48573,0.06261
6971.41420,0.20708
6973.34267,0.30242
6975.27114,0.33019
6977.19961,0.24662
6979.12808,0.11405
6981.05655,-0.00702
6982.98501,-0.07840
6984.91348,-0.04946
6986.84195,0.06414
6988.77042,0.19368
6990.69889,0.26628
6992.62736,0.20239
6994.55583,-0.04563
6996.48430,-0.26024
6998.41276,-0.14727
7000.34123,0.00116
7002.26970,-0.01768
7004.19817,0.03898
7006.12664,0.15536
7008.05511,0.14095
7009.98358,0.04055
7011.91204,-0.01819
7013.84051,-0.05422
7015.76898,-0.10522
7017.69745,-0.08944
7019.62592,0.03863
7021.55439,0.14012
7023.48286,0.10172
7025.41133,0.06743
7027.33979,0.13281
7029.26826,0.19329
7031.19673,0.23776
7033.12520,0.29874
7035.05367,0.33896
7036.98214,0.36047
7038.91061,0.34810
7040.83907,0.26031
7042.76754,0.11482
7044.69601,-0.00888
7046.62448,-0.05597
7048.55295,0.01451
7050.48142,0.14430
7052.40989,0.14043
7054.33836,-0.03898
7056.26682,-0.12224
7058.19529,0.04631
7060.12376,0.20971
7062.05223,0.17123
7063.98070,0.04220
7065.90917,0.02407
7067.83764,0.10875
7069.76610,0.15813
7071.69457,0.08488
7073.62304,-0.02575
7075.55151,-0.07472
7077.47998,-0.07572
7079.40845,-0.09651
7081.33692,-0.15836
7083.26539,-0.15212
7085.19385,-0.05793
7087.12232,0.09110
7089.05079,0.27716
7090.97926,0.40206
7092.90773,0.35384
7094.83620,0.21735
7096.76467,0.16422
7098.69313,0.12723
7100.62160,0.01249
7102.55007,-0.09741
7104.47854,-0.12152
7106.40701,-0.01303
7108.33548,0.09551
7110.26395,0.08561
7112.19242,0.07741
7114.12088,0.09098
7116.04935,0.03124
7117.97782,-0.02889
7119.90629,-0.03421
7121.83476,-0.02528
7123.76323,0.02870
7125.69170,0.12207
7127.62016,0.24507
7129.54863,0.32422
7131.47710,0.27528
7133.40557,0.16472
7135.33404,0.06151
7137.26251,0.00996
7139.19098,0.13114
7141.11944,0.31745
7143.04791,0.38472
7144.97638,0.42428
7146.90485,0.37094
7148.83332,0.18667
7150.76179,0.06092
7152.69026,0.00449
7154.61873,-0.06233
7156.54719,-0.13877
7158.47566,-0.15001
7160.40413,-0.04124
7162.33260,0.03584
7164.26107,-0.00220
7166.18954,-0.04090
7168.11801,0.04228
7170.04647,0.23273
7171.97494,0.33822
7173.90341,0.22359
7175.83188,-0.00451
7177.76035,-0.12090
7179.68882,-0.08034
7181.61729,0.00547
7183.54576,-0.00709
7185.47422,-0.10305
7187.40269,-0.11956
7189.33116,-0.08339
7191.25963,-0.03266
7193.18810,0.07689
7195.11657,0.18976
7197.04504,0.25785
7198.97350,0.28523
7200.90197,0.18681
7202.83044,-0.04259
7204.75891,-0.11722
7206.68738,0.03298
7208.61585,0.04198
7210.54432,-0.07841
7212.47279,-0.13791
7214.40125,0.00441
7216.32972,0.34676
7218.25819,0.58953
7220.18666,0.46620
7222.11513,0.19859
7224.04360,0.07165
7225.97207,0.09661
7227.90053,0.07260
7229.82900,0.07517
7231.75747,0.12661
7233.68594,0.07968
7235.61441,0.02695
7237.54288,-0.01930
7239.47135,-0.07350
7241.39982,-0.07771
7243.32828,0.03017
7245.25675,0.16332
7247.18522,0.28030
7249.11369,0.32245
7251.04216,0.12080
7252.97063,-0.05805
7254.89910,0.14480
7256.82756,0.35373
7258.75603,0.37039
7260.68450,0.27569
7262.61297,0.25432
7264.54144,0.22659
7266.46991,-0.02197
7268.39838,-0.26869
7270.32685,-0.27585
7272.25531,-0.16841
7274.18378,-0.16195
7276.11225,-0.18525
7278.04072,-0.13071
7279.96919,0.10547
7281.89766,0.37004
7283.82613,0.37928
7285.75459,0.23714
7287.68306,0.13309
7289.61153,0.00797
7291.54000,-0.07015
7293.46847,0.16482
7295.39694,0.50936
7297.32541,0.58393
7299.25387,0.49000
7301.18234,0.39295
7303.11081,0.22934
7305.03928,0.09857
7306.96775,0.17735
7308.89622,0.38768
7310.82469,0.46048
7312.75316,0.33786
7314.68162,0.20583
7316.61009,0.05679
7318.53856,-0.23903
7320.46703,-0.40271
7322.39550,-0.20243
7324.32397,0.00465
7326.25244,-0.15499
7328.18090,-0.42841
7330.10937,-0.31262
7332.03784,0.00994
7333.96631,0.09374
7335.89478,0.00375
7337.82325,-0.07674
7339.75172,-0.02281
7341.68019,0.07825
7343.60865,0.03948
7345.53712,-0.01775
7347.46559,0.08016
7349.39406,0.34825
7351.32253,0.56854
7353.25100,0.53757
7355.17947,0.36672
7357.10793,0.20358
7359.03640,-0.10727
7360.96487,-0.42266
7362.89334,-0.24220
7364.82181,0.20110
7366.75028,0.45514
7368.67875,0.40358
7370.60722,0.16272
7372.53568,0.01776
7374.46415,0.10879
7376.39262,0.30780
7378.32109,0.29781
7380.24956,0.19383
7382.17803,0.28130
7384.10650,0.43975
7386.03496,0.26199
7387.96343,-0.11722
7389.89190,-0.27446
7391.82037,-0.20919
7393.74884,-0.04642
7395.67731,0.06563
7397.60578,0.08040
7399.53425,0.05849
7401.46271,-0.03197
7403.39118,-0.12777
7405.31965,-0.03737
7407.24812,0.18184
7409.17659,0.29795
7411.10506,0.23199
7413.03353,0.10300
7414.96199,0.02346
7416.89046,-0.02963
7418.81893,-0.04607
7420.74740,0.09695
7422.67587,0.17974
7424.60434,0.07031
7426.53281,0.02795
7428.46128,0.18338
7430.38974,0.24525
7432.31821,0.05399
7434.24668,-0.04283
7436.17515,0.11804
7438.10362,0.27041
7440.03209,0.27875
7441.96056,0.39371
7443.88902,0.56490
7445.81749,0.58078
7447.74596,0.49154
7449.67443,0.29812
7451.60290,0.11445
7453.53137,0.13999
7455.45984,0.17492
7457.38831,0.07113
7459.31677,0.00063
7461.24524,0.08096
7463.17371,0.09263
7465.10218,0.04414
7467.03065,0.04413
7468.95912,0.13982
7470.88759,0.28676
7472.81605,0.20858
7474.74452,-0.04711
7476.67299,-0.17174
7478.60146,0.03088
7480.52993,0.36312
7482.45840,0.42920
7484.38687,0.28073
7486.31533,0.15664
7488.24380,0.16993
7490.17227,0.23998
7492.10074,0.27652
7494.02921,0.40533
7495.95768,0.51780
7497.88615,0.38393
