399.19301,0.84823
401.12148,0.04432
403.04995,-0.25663
404.97842,-0.33141
406.90689,-0.30520
408.83536,-0.25179
410.76382,-0.19540
412.69229,-0.11601
414.62076,-0.05630
416.54923,-0.03245
418.47770,0.00965
420.40617,0.03604
422.33464,0.04794
424.26311,0.11090
426.19157,0.13284
428.12004,0.06445
430.04851,-0.00149
431.97698,-0.00345
433.90545,0.01948
435.83392,0.03908
437.76239,0.06507
439.69085,0.08261
441.61932,0.09507
443.54779,0.14169
445.47626,0.19865
447.40473,0.21088
449.33320,0.20472
451.26167,0.19743
453.19013,0.15566
455.11860,0.10127
457.04707,0.07209
458.97554,0.04953
460.90401,0.02196
462.83248,0.01024
464.76095,0.02410
466.68942,0.04736
468.61788,0.05479
470.54635,0.05249
472.47482,0.08079
474.40329,0.13702
476.33176,0.12671
478.26023,0.08260
480.18870,0.05247
482.11716,0.06427
484.04563,0.10921
485.97410,0.14293
487.90257,0.17308
489.83104,0.20058
491.75951,0.18598
493.68798,0.12096
495.61645,0.06107
497.54491,0.07061
499.47338,0.11236
501.40185,0.12361
503.33032,0.10180
505.25879,0.06217
507.18726,0.02384
509.11573,0.00699
511.04419,0.02016
512.97266,0.05314
514.90113,0.06905
516.82960,0.07850
518.75807,0.12199
520.68654,0.16124
522.61501,0.15508
524.54348,0.12821
526.47194,0.12570
528.40041,0.15132
530.32888,0.16602
532.25735,0.13826
534.18582,0.10727
536.11429,0.11086
538.04276,0.11008
539.97122,0.09029
541.89969,0.06898
543.82816,0.06341
545.75663,0.09288
547.68510,0.12306
549.61357,0.10476
551.54204,0.04788
553.47051,-0.00092
555.39897,-0.01121
557.32744,0.01083
559.25591,0.04916
561.18438,0.09208
563.11285,0.11814
565.04132,0.11839
566.96979,0.09913
568.89825,0.08384
570.82672,0.09589
572.75519,0.11841
574.68366,0.12724
576.61213,0.12223
578.54060,0.10965
580.46907,0.09703
582.39754,0.09017
584.32600,0.08075
586.25447,0.06746
588.18294,0.06243
590.11141,0.06364
592.03988,0.05062
593.96835,0.02649
595.89682,0.02870
597.82528,0.06005
599.75375,0.08971
601.68222,0.10330
603.61069,0.10094
605.53916,0.08841
607.46763,0.07941
609.39610,0.08244
611.32456,0.09122
613.25303,0.10285
615.18150,0.11275
617.10997,0.10337
619.03844,0.08312
620.96691,0.08143
622.89538,0.09026
624.82385,0.09070
626.75231,0.09535
628.68078,0.10802
630.60925,0.11662
632.53772,0.11750
634.46619,0.10618
636.39466,0.10174
638.32313,0.12109
640.25159,0.12911
642.18006,0.10952
644.10853,0.10865
646.03700,0.13273
647.96547,0.14661
649.89394,0.15421
651.82241,0.16079
653.75088,0.15379
655.67934,0.14629
657.60781,0.14617
659.53628,0.13724
661.46475,0.11847
663.39322,0.10908
665.32169,0.11678
667.25016,0.13355
669.17862,0.13627
671.10709,0.13040
673.03556,0.13461
674.96403,0.13390
676.89250,0.12252
678.82097,0.11539
680.74944,0.11299
682.67791,0.10993
684.60637,0.11444
686.53484,0.12349
688.46331,0.12257
690.39178,0.12043
692.32025,0.12769
694.24872,0.13217
696.17719,0.13114
698.10565,0.13272
700.03412,0.13659
701.96259,0.14167
703.89106,0.14046
705.81953,0.12928
707.74800,0.12150
709.67647,0.12072
711.60494,0.11864
713.53340,0.11517
715.46187,0.11478
717.39034,0.12083
719.31881,0.12851
721.24728,0.12354
723.17575,0.11283
725.10422,0.11452
727.03268,0.11849
728.96115,0.11333
730.88962,0.10936
732.81809,0.11583
734.74656,0.12569
736.67503,0.12672
738.60350,0.12065
740.53197,0.11930
742.46043,0.12716
744.38890,0.13394
746.31737,0.13234
748.24584,0.12884
750.17431,0.13012
752.10278,0.13955
754.03125,0.14968
755.95971,0.14218
757.88818,0.11992
759.81665,0.10781
761.74512,0.11209
763.67359,0.11870
765.60206,0.12102
767.53053,0.12225
769.45900,0.12417
771.38746,0.12428
773.31593,0.11797
775.24440,0.11022
777.17287,0.11196
779.10134,0.11920
781.02981,0.12904
782.95828,0.14793
784.88674,0.16832
786.81521,0.17228
788.74368,0.15466
790.67215,0.13618
792.60062,0.13244
794.52909,0.13610
796.45756,0.14028
798.38602,0.13958
800.31449,0.12938
802.24296,0.11987
804.17143,0.11853
806.09990,0.11490
808.02837,0.10780
809.95684,0.10462
811.88531,0.10658
813.81377,0.11447
815.74224,0.11788
817.67071,0.11510
819.59918,0.11772
821.52765,0.12680
823.45612,0.14119
825.38459,0.15307
827.31305,0.15413
829.24152,0.14741
831.16999,0.14098
833.09846,0.14328
835.02693,0.15266
836.95540,0.15729
838.88387,0.15037
840.81234,0.13834
842.74080,0.12899
844.66927,0.12404
846.59774,0.12474
848.52621,0.12827
850.45468,0.12559
852.38315,0.11786
854.31162,0.11941
856.24008,0.12806
858.16855,0.12765
860.09702,0.12108
862.02549,0.11775
863.95396,0.11664
865.88243,0.12060
867.81090,0.12837
869.73937,0.13407
871.66783,0.13751
873.59630,0.13669
875.52477,0.13598
877.45324,0.13664
879.38171,0.12995
881.31018,0.12353
883.23865,0.12630
885.16711,0.13156
887.09558,0.13383
889.02405,0.13139
890.95252,0.12894
892.88099,0.13273
894.80946,0.13554
896.73793,0.13196
898.66640,0.13096
900.59486,0.13274
902.52333,0.12748
904.45180,0.12052
906.38027,0.11956
908.30874,0.12122
910.23721,0.12475
912.16568,0.13028
914.09414,0.13772
916.02261,0.14482
917.95108,0.14540
919.87955,0.14077
921.80802,0.13800
923.73649,0.14392
925.66496,0.15664
927.59343,0.16047
929.52189,0.15041
931.45036,0.13874
933.37883,0.13159
935.30730,0.13014
937.23577,0.13335
939.16424,0.13414
941.09271,0.13178
943.02117,0.13384
944.94964,0.14006
946.87811,0.13988
948.80658,0.13230
950.73505,0.12885
952.66352,0.13466
954.59199,0.14279
956.52045,0.14045
958.44892,0.12944
960.37739,0.12768
962.30586,0.13737
964.23433,0.14527
966.16280,0.14650
968.09127,0.14291
970.01974,0.13757
971.94820,0.13576
973.87667,0.13633
975.80514,0.13318
977.73361,0.12895
979.66208,0.12766
981.59055,0.12420
983.51902,0.11738
985.44748,0.11709
987.37595,0.12767
989.30442,0.14073
991.23289,0.14952
993.16136,0.15229
995.08983,0.14923
997.01830,0.14414
998.94677,0.13855
1000.87523,0.13610
1002.80370,0.14276
1004.73217,0.15207
1006.66064,0.15420
1008.58911,0.15103
1010.51758,0.14993
1012.44605,0.15184
1014.37451,0.14974
1016.30298,0.14427
1018.23145,0.14305
1020.15992,0.14313
1022.08839,0.14031
1024.01686,0.14102
1025.94533,0.14608
1027.87380,0.14867
1029.80226,0.15039
1031.73073,0.15389
1033.65920,0.15483
1035.58767,0.15043
1037.51614,0.14608
1039.44461,0.14572
1041.37308,0.14455
1043.30154,0.14441
1045.23001,0.14847
1047.15848,0.15253
1049.08695,0.15354
1051.01542,0.15056
1052.94389,0.14901
1054.87236,0.15410
1056.80083,0.15995
1058.72929,0.16041
1060.65776,0.15876
1062.58623,0.15538
1064.51470,0.14705
1066.44317,0.14327
1068.37164,0.14725
1070.30011,0.14660
1072.22857,0.14364
1074.15704,0.14721
1076.08551,0.15215
1078.01398,0.15586
1079.94245,0.15787
1081.87092,0.15650
1083.79939,0.15839
1085.72786,0.16189
1087.65632,0.15822
1089.58479,0.15592
1091.51326,0.16182
1093.44173,0.16595
1095.37020,0.16680
1097.29867,0.17141
1099.22714,0.17501
1101.15560,0.17240
1103.08407,0.16912
1105.01254,0.16556
1106.94101,0.15923
1108.86948,0.15465
1110.79795,0.15306
1112.72642,0.15231
1114.65489,0.15118
1116.58335,0.14895
1118.51182,0.14749
1120.44029,0.15010
1122.36876,0.15514
1124.29723,0.15678
1126.22570,0.15648
1128.15417,0.15725
1130.08263,0.15520
1132.01110,0.15116
1133.93957,0.15156
1135.86804,0.15602
1137.79651,0.15929
1139.72498,0.16124
1141.65345,0.16318
1143.58191,0.16318
1145.51038,0.16043
1147.43885,0.15787
1149.36732,0.15795
1151.29579,0.15905
1153.22426,0.16092
1155.15273,0.16438
1157.08120,0.16556
1159.00966,0.16242
1160.93813,0.15895
1162.86660,0.15725
1164.79507,0.15564
1166.72354,0.15480
1168.65201,0.15715
1170.58048,0.16098
1172.50894,0.16209
1174.43741,0.16038
1176.36588,0.16123
1178.29435,0.16663
1180.22282,0.16932
1182.15129,0.16477
1184.07976,0.16011
1186.00823,0.16065
1187.93669,0.16169
1189.86516,0.16206
1191.79363,0.16442
1193.72210,0.16513
1195.65057,0.16275
1197.57904,0.15954
1199.50751,0.15733
1201.43597,0.15881
1203.36444,0.16126
1205.29291,0.16253
1207.22138,0.16500
1209.14985,0.16515
1211.07832,0.16141
1213.00679,0.15998
1214.93526,0.16130
1216.86372,0.16160
1218.79219,0.16154
1220.72066,0.16335
1222.64913,0.16734
1224.57760,0.17040
1226.50607,0.16951
1228.43454,0.16753
1230.36300,0.16934
1232.29147,0.17242
1234.21994,0.16957
1236.14841,0.16184
1238.07688,0.15728
1240.00535,0.15839
1241.93382,0.16113
1243.86229,0.16178
1245.79075,0.15906
1247.71922,0.15636
1249.64769,0.15740
1251.57616,0.15865
1253.50463,0.15803
1255.43310,0.15874
1257.36157,0.16074
1259.29003,0.16177
1261.21850,0.16149
1263.14697,0.16220
1265.07544,0.16551
1267.00391,0.17022
1268.93238,0.17456
1270.86085,0.17600
1272.78932,0.17431
1274.71778,0.17242
1276.64625,0.17164
1278.57472,0.17117
1280.50319,0.17117
1282.43166,0.17214
1284.36013,0.17339
1286.28860,0.17593
1288.21706,0.18001
1290.14553,0.18161
1292.07400,0.17682
1294.00247,0.16762
1295.93094,0.16216
1297.85941,0.16412
1299.78788,0.16759
1301.71634,0.16756
1303.64481,0.16755
1305.57328,0.17213
1307.50175,0.17705
1309.43022,0.17747
1311.35869,0.17696
1313.28716,0.17793
1315.21563,0.17772
1317.14409,0.17622
1319.07256,0.17530
1321.00103,0.17429
1322.92950,0.17088
1324.85797,0.16583
1326.78644,0.16342
1328.71491,0.16442
1330.64337,0.16525
1332.57184,0.16464
1334.50031,0.16462
1336.42878,0.16667
1338.35725,0.16988
1340.28572,0.16928
1342.21419,0.16624
1344.14266,0.16926
1346.07112,0.17538
1347.99959,0.17617
1349.92806,0.17341
1351.85653,0.17210
1353.78500,0.17345
1355.71347,0.17658
1357.64194,0.17880
1359.57040,0.18006
1361.49887,0.18089
1363.42734,0.17882
1365.35581,0.17642
1367.28428,0.17678
1369.21275,0.17753
1371.14122,0.17929
1373.06969,0.18332
1374.99815,0.18444
1376.92662,0.18169
1378.85509,0.17877
1380.78356,0.17490
1382.71203,0.17247
1384.64050,0.17483
1386.56897,0.17900
1388.49743,0.17983
1390.42590,0.17906
1392.35437,0.18164
1394.28284,0.18897
1396.21131,0.19396
1398.13978,0.18911
1400.06825,0.17964
1401.99672,0.17645
1403.92518,0.18240
1405.85365,0.18762
1407.78212,0.18495
1409.71059,0.18295
1411.63906,0.18381
1413.56753,0.18302
1415.49600,0.18459
1417.42446,0.19203
1419.35293,0.19446
1421.28140,0.18784
1423.20987,0.18470
1425.13834,0.18532
1427.06681,0.18587
1428.99528,0.18567
1430.92375,0.18335
1432.85221,0.18217
1434.78068,0.18451
1436.70915,0.18453
1438.63762,0.18133
1440.56609,0.18119
1442.49456,0.18308
1444.42303,0.18604
1446.35149,0.19054
1448.27996,0.19291
1450.20843,0.19329
1452.13690,0.19694
1454.06537,0.20288
1455.99384,0.21002
1457.92231,0.21029
1459.85077,0.19916
1461.77924,0.19250
1463.70771,0.19197
1465.63618,0.18982
1467.56465,0.18444
1469.49312,0.18454
1471.42159,0.19370
1473.35006,0.20318
1475.27852,0.19882
1477.20699,0.18963
1479.13546,0.18627
1481.06393,0.18758
1482.99240,0.18874
1484.92087,0.19170
1486.84934,0.19995
1488.77780,0.20822
1490.70627,0.20380
1492.63474,0.19314
1494.56321,0.19020
1496.49168,0.19702
1498.42015,0.20137
1500.34862,0.19646
1502.27709,0.19251
1504.20555,0.19516
1506.13402,0.20562
1508.06249,0.20947
1509.99096,0.19995
1511.91943,0.19185
1513.84790,0.19144
1515.77637,0.20030
1517.70483,0.21053
1519.63330,0.21579
1521.56177,0.21657
1523.49024,0.21048
1525.41871,0.20539
1527.34718,0.20207
1529.27565,0.19833
1531.20412,0.19816
1533.13258,0.20140
1535.06105,0.20162
1536.98952,0.20186
1538.91799,0.20888
1540.84646,0.21574
1542.77493,0.20998
1544.70340,0.20012
1546.63186,0.19253
1548.56033,0.19192
1550.48880,0.19473
1552.41727,0.19514
1554.34574,0.19325
1556.27421,0.18945
1558.20268,0.18535
1560.13115,0.18608
1562.05961,0.18931
1563.98808,0.19440
1565.91655,0.20001
1567.84502,0.20421
1569.77349,0.20457
1571.70196,0.20186
1573.63043,0.20375
1575.55889,0.20881
1577.48736,0.20643
1579.41583,0.19837
1581.34430,0.19230
1583.27277,0.18991
1585.20124,0.18963
1587.12971,0.18904
1589.05818,0.18855
1590.98664,0.18888
1592.91511,0.18745
1594.84358,0.18230
1596.77205,0.17760
1598.70052,0.17872
1600.62899,0.18312
1602.55746,0.18532
1604.48592,0.18605
1606.41439,0.18814
1608.34286,0.19044
1610.27133,0.19159
1612.19980,0.19424
1614.12827,0.20026
1616.05674,0.20700
1617.98521,0.20805
1619.91367,0.20681
1621.84214,0.20657
1623.77061,0.20311
1625.69908,0.19938
1627.62755,0.19943
1629.55602,0.20041
1631.48449,0.20207
1633.41295,0.20655
1635.34142,0.21251
1637.26989,0.21017
1639.19836,0.20399
1641.12683,0.20039
1643.05530,0.19944
1644.98377,0.20423
1646.91223,0.21419
1648.84070,0.21693
1650.76917,0.21782
1652.69764,0.22245
1654.62611,0.21544
1656.55458,0.20552
1658.48305,0.20330
1660.41152,0.20665
1662.33998,0.20961
1664.26845,0.20809
1666.19692,0.20638
1668.12539,0.20697
1670.05386,0.20774
1671.98233,0.20708
1673.91080,0.20545
1675.83926,0.20146
1677.76773,0.19870
1679.69620,0.19953
1681.62467,0.20432
1683.55314,0.21505
1685.48161,0.21937
1687.41008,0.21494
1689.33855,0.21121
1691.26701,0.20619
1693.19548,0.20240
1695.12395,0.20595
1697.05242,0.21657
1698.98089,0.22347
1700.90936,0.21870
1702.83783,0.21090
1704.76629,0.20834
1706.69476,0.20585
1708.62323,0.20125
1710.55170,0.19854
1712.48017,0.19972
1714.40864,0.20457
1716.33711,0.20826
1718.26558,0.20126
1720.19404,0.19220
1722.12251,0.18863
1724.05098,0.18819
1725.97945,0.18983
1727.90792,0.19260
1729.83639,0.19534
1731.76486,0.19894
1733.69332,0.20341
1735.62179,0.20426
1737.55026,0.20210
1739.47873,0.19896
1741.40720,0.19601
1743.33567,0.19505
1745.26414,0.19728
1747.19261,0.20313
1749.12107,0.20691
1751.04954,0.20127
1752.97801,0.19409
1754.90648,0.19294
1756.83495,0.19514
1758.76342,0.19609
1760.69189,0.19472
1762.62035,0.19181
1764.54882,0.18907
1766.47729,0.18814
1768.40576,0.18980
1770.33423,0.19481
1772.26270,0.20041
1774.19117,0.20069
1776.11964,0.19837
1778.04810,0.19860
1779.97657,0.20051
1781.90504,0.19886
1783.83351,0.19542
1785.76198,0.19508
1787.69045,0.19715
1789.61892,0.20004
1791.54738,0.20231
1793.47585,0.20172
1795.40432,0.19972
1797.33279,0.19805
1799.26126,0.19617
1801.18973,0.19323
1803.11820,0.18970
1805.04666,0.18889
1806.97513,0.19291
1808.90360,0.19750
1810.83207,0.19740
1812.76054,0.19424
1814.68901,0.19198
1816.61748,0.19046
1818.54595,0.18833
1820.47441,0.18763
1822.40288,0.19093
1824.33135,0.19536
1826.25982,0.19678
1828.18829,0.19788
1830.11676,0.19967
1832.04523,0.19838
1833.97369,0.19665
1835.90216,0.19656
1837.83063,0.19558
1839.75910,0.19425
1841.68757,0.19576
1843.61604,0.19925
1845.54451,0.19996
1847.47298,0.19806
1849.40144,0.19576
1851.32991,0.19209
1853.25838,0.18777
1855.18685,0.18580
1857.11532,0.18683
1859.04379,0.18827
1860.97226,0.18905
1862.90072,0.19026
1864.82919,0.19312
1866.75766,0.19807
1868.68613,0.20123
1870.61460,0.19940
1872.54307,0.19696
1874.47154,0.19505
1876.40001,0.19224
1878.32847,0.18993
1880.25694,0.19016
1882.18541,0.19316
1884.11388,0.19686
1886.04235,0.19924
1887.97082,0.20003
1889.89929,0.19735
1891.82775,0.19301
1893.75622,0.19223
1895.68469,0.19309
1897.61316,0.19138
1899.54163,0.19003
1901.47010,0.19109
1903.39857,0.19091
1905.32704,0.19026
1907.25550,0.19222
1909.18397,0.19428
1911.11244,0.19486
1913.04091,0.19516
1914.96938,0.19507
1916.89785,0.19484
1918.82632,0.19527
1920.75478,0.19720
1922.68325,0.19903
1924.61172,0.19735
1926.54019,0.19361
1928.46866,0.19138
1930.39713,0.19163
1932.32560,0.19266
1934.25407,0.19256
1936.18253,0.19188
1938.11100,0.19248
1940.03947,0.19469
1941.96794,0.19536
1943.89641,0.19345
1945.82488,0.19257
1947.75335,0.19273
1949.68181,0.19224
1951.61028,0.19178
1953.53875,0.19261
1955.46722,0.19439
1957.39569,0.19546
1959.32416,0.19629
1961.25263,0.19777
1963.18110,0.19825
1965.10956,0.19651
1967.03803,0.19284
1968.96650,0.19039
1970.89497,0.19138
1972.82344,0.19295
1974.75191,0.19278
1976.68038,0.19208
1978.60884,0.19269
1980.53731,0.19384
1982.46578,0.19355
1984.39425,0.19209
1986.32272,0.19186
1988.25119,0.19305
1990.17966,0.19407
1992.10812,0.19644
1994.03659,0.19923
1995.96506,0.19830
1997.89353,0.19382
1999.82200,0.18986
2001.75047,0.18968
2003.67894,0.19234
2005.60741,0.19562
2007.53587,0.19779
2009.46434,0.19752
2011.39281,0.19646
2013.32128,0.19695
2015.24975,0.19777
2017.17822,0.19705
2019.10669,0.19499
2021.03515,0.19304
2022.96362,0.19341
2024.89209,0.19583
2026.82056,0.19689
2028.74903,0.19563
2030.67750,0.19447
2032.60597,0.19431
2034.53444,0.19405
2036.46290,0.19420
2038.39137,0.19561
2040.31984,0.19699
2042.24831,0.19724
2044.17678,0.19772
2046.10525,0.19835
2048.03372,0.19809
2049.96218,0.19796
2051.89065,0.19718
2053.81912,0.19433
2055.74759,0.19206
2057.67606,0.19381
2059.60453,0.19887
2061.53300,0.20172
2063.46147,0.19929
2065.38993,0.19586
2067.31840,0.19545
2069.24687,0.19671
2071.17534,0.19671
2073.10381,0.19499
2075.03228,0.19357
2076.96075,0.19273
2078.88921,0.19102
2080.81768,0.18843
2082.74615,0.18766
2084.67462,0.19040
2086.60309,0.19302
2088.53156,0.19284
2090.46003,0.19310
2092.38850,0.19640
2094.31696,0.19896
2096.24543,0.19722
2098.17390,0.19498
2100.10237,0.19614
2102.03084,0.19830
2103.95931,0.19848
2105.88778,0.19760
2107.81624,0.19764
2109.74471,0.19781
2111.67318,0.19647
2113.60165,0.19451
2115.53012,0.19333
2117.45859,0.19279
2119.38706,0.19195
2121.31553,0.19022
2123.24399,0.18992
2125.17246,0.19336
2127.10093,0.19709
2129.02940,0.19755
2130.95787,0.19659
2132.88634,0.19585
2134.81481,0.19572
2136.74327,0.19664
2138.67174,0.19657
2140.60021,0.19589
2142.52868,0.19759
2144.45715,0.20013
2146.38562,0.20078
2148.31409,0.19965
2150.24255,0.19792
2152.17102,0.19706
2154.09949,0.19637
2156.02796,0.19438
2157.95643,0.19301
2159.88490,0.19341
2161.81337,0.19325
2163.74184,0.19265
2165.67030,0.19426
2167.59877,0.19731
2169.52724,0.19816
2171.45571,0.19624
2173.38418,0.19485
2175.31265,0.19502
2177.24112,0.19569
2179.16958,0.19760
2181.09805,0.20006
2183.02652,0.20060
2184.95499,0.19980
2186.88346,0.19964
2188.81193,0.19924
2190.74040,0.19864
2192.66887,0.19943
2194.59733,0.19893
2196.52580,0.19632
2198.45427,0.19488
2200.38274,0.19386
2202.31121,0.19257
2204.23968,0.19355
2206.16815,0.19520
2208.09661,0.19430
2210.02508,0.19298
2211.95355,0.19385
2213.88202,0.19512
2215.81049,0.19527
2217.73896,0.19547
2219.66743,0.19682
2221.59590,0.19859
2223.52436,0.19889
2225.45283,0.19777
2227.38130,0.19758
2229.30977,0.19876
2231.23824,0.19904
2233.16671,0.19717
2235.09518,0.19551
2237.02364,0.19613
2238.95211,0.19616
2240.88058,0.19380
2242.80905,0.19314
2244.73752,0.19538
2246.66599,0.19599
2248.59446,0.19432
2250.52293,0.19442
2252.45139,0.19711
2254.37986,0.19934
2256.30833,0.19976
2258.23680,0.19881
2260.16527,0.19756
2262.09374,0.19788
2264.02221,0.19823
2265.95067,0.19703
2267.87914,0.19719
2269.80761,0.19868
2271.73608,0.19797
2273.66455,0.19510
2275.59302,0.19261
2277.52149,0.19377
2279.44996,0.19864
2281.37842,0.20113
2283.30689,0.19930
2285.23536,0.19697
2287.16383,0.19586
2289.09230,0.19532
2291.02077,0.19429
2292.94924,0.19336
2294.87770,0.19357
2296.80617,0.19348
2298.73464,0.19272
2300.66311,0.19364
2302.59158,0.19656
2304.52005,0.20067
2306.44852,0.20427
2308.37699,0.20442
2310.30545,0.20379
2312.23392,0.20559
2314.16239,0.20686
2316.09086,0.20402
2318.01933,0.19771
2319.94780,0.19364
2321.87627,0.19541
2323.80473,0.19761
2325.73320,0.19366
2327.66167,0.18568
2329.59014,0.17990
2331.51861,0.18150
2333.44708,0.19096
2335.37555,0.20029
2337.30401,0.20212
2339.23248,0.20061
2341.16095,0.20401
2343.08942,0.20721
2345.01789,0.20265
2346.94636,0.19663
2348.87483,0.19421
2350.80330,0.19455
2352.73176,0.19792
2354.66023,0.20477
2356.58870,0.20919
2358.51717,0.20264
2360.44564,0.19918
2362.37411,0.20994
2364.30258,0.21060
2366.23104,0.20210
2368.15951,0.20177
2370.08798,0.20031
2372.01645,0.19403
2373.94492,0.19137
2375.87339,0.19443
2377.80186,0.19724
2379.73033,0.19650
2381.65879,0.19471
2383.58726,0.19426
2385.51573,0.19446
2387.44420,0.19428
2389.37267,0.19529
2391.30114,0.19724
2393.22961,0.19793
2395.15807,0.19768
2397.08654,0.19682
2399.01501,0.19624
2400.94348,0.19763
2402.87195,0.19950
2404.80042,0.19962
2406.72889,0.19877
2408.65736,0.19774
2410.58582,0.19685
2412.51429,0.19734
2414.44276,0.19764
2416.37123,0.19619
2418.29970,0.19467
2420.22817,0.19348
2422.15664,0.19261
2424.08510,0.19393
2426.01357,0.19640
2427.94204,0.19719
2429.87051,0.19784
2431.79898,0.19990
2433.72745,0.20196
2435.65592,0.20292
2437.58439,0.20268
2439.51285,0.20186
2441.44132,0.19997
2443.36979,0.19785
2445.29826,0.19872
2447.22673,0.20162
2449.15520,0.20278
2451.08367,0.20228
2453.01213,0.20112
2454.94060,0.19916
2456.86907,0.19726
2458.79754,0.19557
2460.72601,0.19485
2462.65448,0.19607
2464.58295,0.19711
2466.51142,0.19701
2468.43988,0.19740
2470.36835,0.19819
2472.29682,0.19813
2474.22529,0.19828
2476.15376,0.19977
2478.08223,0.20079
2480.01070,0.20109
2481.93916,0.20116
2483.86763,0.20011
2485.79610,0.19969
2487.72457,0.20109
2489.65304,0.20250
2491.58151,0.20258
2493.50998,0.20165
2495.43844,0.20093
2497.36691,0.20145
2499.29538,0.20250
2501.22385,0.20177
2503.15232,0.19940
2505.08079,0.19872
2507.00926,0.20057
2508.93773,0.20203
2510.86619,0.20124
2512.79466,0.19927
2514.72313,0.19908
2516.65160,0.20185
2518.58007,0.20407
2520.50854,0.20293
2522.43701,0.20061
2524.36547,0.20023
2526.29394,0.20119
2528.22241,0.20207
2530.15088,0.20414
2532.07935,0.20742
2534.00782,0.20962
2535.93629,0.20838
2537.86476,0.20415
2539.79322,0.20073
2541.72169,0.20018
2543.65016,0.20098
2545.57863,0.20091
2547.50710,0.20034
2549.43557,0.20057
2551.36404,0.20105
2553.29250,0.20144
2555.22097,0.20221
2557.14944,0.20233
2559.07791,0.20166
2561.00638,0.20220
2562.93485,0.20287
2564.86332,0.20158
2566.79179,0.20109
2568.72025,0.20358
2570.64872,0.20629
2572.57719,0.20673
2574.50566,0.20456
2576.43413,0.20111
2578.36260,0.19945
2580.29107,0.20022
2582.21953,0.20075
2584.14800,0.19968
2586.07647,0.19950
2588.00494,0.20147
2589.93341,0.20351
2591.86188,0.20356
2593.79035,0.20039
2595.71882,0.19578
2597.64728,0.19345
2599.57575,0.19552
2601.50422,0.20109
2603.43269,0.20523
2605.36116,0.20377
2607.28963,0.20049
2609.21810,0.20203
2611.14656,0.20655
2613.07503,0.20782
2615.00350,0.20545
2616.93197,0.20362
2618.86044,0.20460
2620.78891,0.20585
2622.71738,0.20562
2624.64585,0.20495
2626.57431,0.20280
2628.50278,0.20061
2630.43125,0.20117
2632.35972,0.20170
2634.28819,0.20026
2636.21666,0.19926
2638.14513,0.20004
2640.07359,0.20063
2642.00206,0.20062
2643.93053,0.20166
2645.85900,0.20335
2647.78747,0.20548
2649.71594,0.20739
2651.64441,0.20804
2653.57288,0.20781
2655.50134,0.20666
2657.42981,0.20514
2659.35828,0.20488
2661.28675,0.20628
2663.21522,0.20775
2665.14369,0.20778
2667.07216,0.20602
2669.00062,0.20428
2670.92909,0.20482
2672.85756,0.20609
2674.78603,0.20686
2676.71450,0.20797
2678.64297,0.20772
2680.57144,0.20624
2682.49990,0.20589
2684.42837,0.20588
2686.35684,0.20634
2688.28531,0.20777
2690.21378,0.20794
2692.14225,0.20701
2694.07072,0.20739
2695.99919,0.20953
2697.92765,0.21122
2699.85612,0.21083
2701.78459,0.20919
2703.71306,0.20869
2705.64153,0.20985
2707.57000,0.20904
2709.49847,0.20759
2711.42693,0.21067
2713.35540,0.21397
2715.28387,0.21199
2717.21234,0.20905
2719.14081,0.20932
2721.06928,0.21063
2722.99775,0.21047
2724.92622,0.21009
2726.85468,0.21108
2728.78315,0.21210
2730.71162,0.21217
2732.64009,0.21149
2734.56856,0.21054
2736.49703,0.21105
2738.42550,0.21375
2740.35396,0.21616
2742.28243,0.21605
2744.21090,0.21484
2746.13937,0.21381
2748.06784,0.21169
2749.99631,0.20968
2751.92478,0.21001
2753.85325,0.21092
2755.78171,0.21007
2757.71018,0.20767
2759.63865,0.20571
2761.56712,0.20617
2763.49559,0.20801
2765.42406,0.20936
2767.35253,0.20916
2769.28099,0.20750
2771.20946,0.20694
2773.13793,0.20954
2775.06640,0.21278
2776.99487,0.21196
2778.92334,0.21002
2780.85181,0.21199
2782.78028,0.21356
2784.70874,0.21353
2786.63721,0.21632
2788.56568,0.21853
2790.49415,0.21696
2792.42262,0.21613
2794.35109,0.21811
2796.27956,0.21999
2798.20802,0.21990
2800.13649,0.21784
2802.06496,0.21391
2803.99343,0.21057
2805.92190,0.21214
2807.85037,0.21535
2809.77884,0.21540
2811.70731,0.21629
2813.63577,0.21787
2815.56424,0.21722
2817.49271,0.21772
2819.42118,0.21854
2821.34965,0.21680
2823.27812,0.21520
2825.20659,0.21567
2827.13505,0.21713
2829.06352,0.21745
2830.99199,0.21600
2832.92046,0.21647
2834.84893,0.21941
2836.77740,0.21997
2838.70587,0.21783
2840.63433,0.21768
2842.56280,0.22063
2844.49127,0.22356
2846.41974,0.22373
2848.34821,0.22056
2850.27668,0.21681
2852.20515,0.21517
2854.13362,0.21596
2856.06208,0.21848
2857.99055,0.22056
2859.91902,0.21958
2861.84749,0.21559
2863.77596,0.21421
2865.70443,0.21767
2867.63290,0.22138
2869.56136,0.22136
2871.48983,0.21730
2873.41830,0.21455
2875.34677,0.21498
2877.27524,0.21663
2879.20371,0.21867
2881.13218,0.21919
2883.06065,0.21858
2884.98911,0.21626
2886.91758,0.21221
2888.84605,0.21063
2890.77452,0.21288
2892.70299,0.21429
2894.63146,0.21392
2896.55993,0.21592
2898.48839,0.21694
2900.41686,0.21459
2902.34533,0.21442
2904.27380,0.21668
2906.20227,0.21730
2908.13074,0.21572
2910.05921,0.21462
2911.98768,0.21647
2913.91614,0.21895
2915.84461,0.21913
2917.77308,0.21792
2919.70155,0.21661
2921.63002,0.21605
2923.55849,0.21567
2925.48696,0.21504
2927.41542,0.21475
2929.34389,0.21656
2931.27236,0.22067
2933.20083,0.22141
2935.12930,0.21944
2937.05777,0.21939
2938.98624,0.21953
2940.91471,0.21961
2942.84317,0.22081
2944.77164,0.22271
2946.70011,0.22404
2948.62858,0.22282
2950.55705,0.21939
2952.48552,0.21766
2954.41399,0.21881
2956.34245,0.21927
2958.27092,0.21832
2960.19939,0.21829
2962.12786,0.21957
2964.05633,0.22016
2965.98480,0.21842
2967.91327,0.21513
2969.84174,0.21350
2971.77020,0.21662
2973.69867,0.22319
2975.62714,0.22915
2977.55561,0.23220
2979.48408,0.23191
2981.41255,0.22798
2983.34102,0.22323
2985.26948,0.22142
2987.19795,0.22191
2989.12642,0.22346
2991.05489,0.22577
2992.98336,0.22685
2994.91183,0.22631
2996.84030,0.22785
2998.76877,0.23072
3000.69723,0.23061
3002.62570,0.22911
3004.55417,0.22810
3006.48264,0.22589
3008.41111,0.22306
3010.33958,0.22265
3012.26805,0.22402
3014.19651,0.22500
3016.12498,0.22718
3018.05345,0.22817
3019.98192,0.22526
3021.91039,0.22374
3023.83886,0.22582
3025.76733,0.22773
3027.69579,0.22796
3029.62426,0.22682
3031.55273,0.22574
3033.48120,0.22436
3035.40967,0.22097
3037.33814,0.22045
3039.26661,0.22440
3041.19508,0.22690
3043.12354,0.22762
3045.05201,0.22884
3046.98048,0.22921
3048.90895,0.22801
3050.83742,0.22802
3052.76589,0.22965
3054.69436,0.22822
3056.62282,0.22291
3058.55129,0.21964
3060.47976,0.22107
3062.40823,0.22260
3064.33670,0.22243
3066.26517,0.22286
3068.19364,0.22459
3070.12211,0.22744
3072.05057,0.23155
3073.97904,0.23595
3075.90751,0.23671
3077.83598,0.23276
3079.76445,0.22851
3081.69292,0.22761
3083.62139,0.22994
3085.54985,0.23232
3087.47832,0.23089
3089.40679,0.22605
3091.33526,0.22141
3093.26373,0.21887
3095.19220,0.21931
3097.12067,0.22025
3099.04914,0.21981
3100.97760,0.22177
3102.90607,0.22695
3104.83454,0.23018
3106.76301,0.22818
3108.69148,0.22344
3110.61995,0.21984
3112.54842,0.22064
3114.47688,0.22695
3116.40535,0.23362
3118.33382,0.23427
3120.26229,0.22967
3122.19076,0.22523
3124.11923,0.22459
3126.04770,0.22795
3127.97617,0.23198
3129.90463,0.23415
3131.83310,0.23515
3133.76157,0.23472
3135.69004,0.23308
3137.61851,0.23291
3139.54698,0.23423
3141.47545,0.23374
3143.40391,0.23119
3145.33238,0.22948
3147.26085,0.22965
3149.18932,0.23029
3151.11779,0.23112
3153.04626,0.23164
3154.97473,0.23100
3156.90320,0.23082
3158.83166,0.23203
3160.76013,0.23333
3162.68860,0.23176
3164.61707,0.22768
3166.54554,0.22659
3168.47401,0.22929
3170.40248,0.23073
3172.33094,0.22942
3174.25941,0.22856
3176.18788,0.23056
3178.11635,0.23518
3180.04482,0.23768
3181.97329,0.23597
3183.90176,0.23579
3185.83022,0.23636
3187.75869,0.23129
3189.68716,0.22384
3191.61563,0.22153
3193.54410,0.22373
3195.47257,0.22424
3197.40104,0.22158
3199.32951,0.22190
3201.25797,0.22647
3203.18644,0.22764
3205.11491,0.22443
3207.04338,0.22298
3208.97185,0.22555
3210.90032,0.23017
3212.82879,0.23158
3214.75725,0.22764
3216.68572,0.22378
3218.61419,0.22296
3220.54266,0.22381
3222.47113,0.22593
3224.39960,0.22717
3226.32807,0.22757
3228.25654,0.22884
3230.18500,0.22952
3232.11347,0.22893
3234.04194,0.22789
3235.97041,0.22712
3237.89888,0.22408
3239.82735,0.21831
3241.75582,0.21652
3243.68428,0.22095
3245.61275,0.22464
3247.54122,0.22351
3249.46969,0.22325
3251.39816,0.22524
3253.32663,0.22534
3255.25510,0.22511
3257.18357,0.22582
3259.11203,0.22594
3261.04050,0.22434
3262.96897,0.22175
3264.89744,0.22065
3266.82591,0.22171
3268.75438,0.22406
3270.68285,0.22683
3272.61131,0.22789
3274.53978,0.22636
3276.46825,0.22405
3278.39672,0.22090
3280.32519,0.21916
3282.25366,0.22191
3284.18213,0.22281
3286.11060,0.21802
3288.03906,0.21478
3289.96753,0.21612
3291.89600,0.21658
3293.82447,0.21537
3295.75294,0.21789
3297.68141,0.22292
3299.60988,0.22441
3301.53834,0.22392
3303.46681,0.22449
3305.39528,0.22372
3307.32375,0.22406
3309.25222,0.22931
3311.18069,0.23276
3313.10916,0.22939
3315.03763,0.22588
3316.96609,0.22735
3318.89456,0.23148
3320.82303,0.23368
3322.75150,0.23192
3324.67997,0.22961
3326.60844,0.22872
3328.53691,0.22693
3330.46537,0.22570
3332.39384,0.22768
3334.32231,0.22902
3336.25078,0.22642
3338.17925,0.22270
3340.10772,0.22156
3342.03619,0.22488
3343.96466,0.22988
3345.89312,0.23108
3347.82159,0.22846
3349.75006,0.22536
3351.67853,0.22397
3353.60700,0.22554
3355.53547,0.22884
3357.46394,0.23191
3359.39240,0.23490
3361.32087,0.23681
3363.24934,0.23549
3365.17781,0.23249
3367.10628,0.23062
3369.03475,0.22975
3370.96322,0.22849
3372.89168,0.22669
3374.82015,0.22629
3376.74862,0.22653
3378.67709,0.22575
3380.60556,0.22790
3382.53403,0.23132
3384.46250,0.22892
3386.39097,0.22542
3388.31943,0.22706
3390.24790,0.22958
3392.17637,0.22981
3394.10484,0.22927
3396.03331,0.22799
3397.96178,0.22438
3399.89025,0.22072
3401.81871,0.22015
3403.74718,0.22095
3405.67565,0.22258
3407.60412,0.22696
3409.53259,0.23065
3411.46106,0.22868
3413.38953,0.22495
3415.31800,0.22289
3417.24646,0.22032
3419.17493,0.21958
3421.10340,0.22110
3423.03187,0.22004
3424.96034,0.21518
3426.88881,0.20994
3428.81728,0.20912
3430.74574,0.21114
3432.67421,0.21243
3434.60268,0.21322
3436.53115,0.21188
3438.45962,0.21052
3440.38809,0.21193
3442.31656,0.21271
3444.24503,0.21405
3446.17349,0.21815
3448.10196,0.22189
3450.03043,0.22346
3451.95890,0.22098
3453.88737,0.21519
3455.81584,0.21092
3457.74431,0.20741
3459.67277,0.20366
3461.60124,0.20285
3463.52971,0.20223
3465.45818,0.19938
3467.38665,0.19791
3469.31512,0.19874
3471.24359,0.20060
3473.17206,0.20191
3475.10052,0.20138
3477.02899,0.20150
3478.95746,0.20523
3480.88593,0.20983
3482.81440,0.20875
3484.74287,0.20492
3486.67134,0.20558
3488.59980,0.20620
3490.52827,0.20284
3492.45674,0.19971
3494.38521,0.19875
3496.31368,0.19968
3498.24215,0.19987
3500.17062,0.19853
3502.09909,0.19877
3504.02755,0.20011
3505.95602,0.19982
3507.88449,0.19837
3509.81296,0.19429
3511.74143,0.18478
3513.66990,0.17792
3515.59837,0.18094
3517.52683,0.18609
3519.45530,0.18932
3521.38377,0.19547
3523.31224,0.20100
3525.24071,0.20101
3527.16918,0.19786
3529.09765,0.19121
3531.02611,0.18307
3532.95458,0.17901
3534.88305,0.17996
3536.81152,0.18391
3538.73999,0.18832
3540.66846,0.19016
3542.59693,0.18862
3544.52540,0.18705
3546.45386,0.18503
3548.38233,0.18025
3550.31080,0.17860
3552.23927,0.18131
3554.16774,0.18249
3556.09621,0.18123
3558.02468,0.17818
3559.95314,0.17408
3561.88161,0.17210
3563.81008,0.17298
3565.73855,0.17738
3567.66702,0.18187
3569.59549,0.17689
3571.52396,0.16845
3573.45243,0.16681
3575.38089,0.17167
3577.30936,0.17605
3579.23783,0.17697
3581.16630,0.17533
3583.09477,0.17544
3585.02324,0.17992
3586.95171,0.18356
3588.88017,0.17800
3590.80864,0.16838
3592.73711,0.16214
3594.66558,0.15972
3596.59405,0.16033
3598.52252,0.16164
3600.45099,0.16007
3602.37946,0.15787
3604.30792,0.15839
3606.23639,0.15937
3608.16486,0.15851
3610.09333,0.15941
3612.02180,0.16450
3613.95027,0.16652
3615.87874,0.16432
3617.80720,0.16619
3619.73567,0.16669
3621.66414,0.15794
3623.59261,0.14942
3625.52108,0.14673
3627.44955,0.14938
3629.37802,0.15271
3631.30649,0.15311
3633.23495,0.15529
3635.16342,0.15613
3637.09189,0.15134
3639.02036,0.14868
3640.94883,0.15422
3642.87730,0.16128
3644.80577,0.16701
3646.73423,0.17300
3648.66270,0.16934
3650.59117,0.15668
3652.51964,0.15209
3654.44811,0.15063
3656.37658,0.14966
3658.30505,0.14784
3660.23352,0.14378
3662.16198,0.14137
3664.09045,0.14417
3666.01892,0.14928
3667.94739,0.15342
3669.87586,0.15682
3671.80433,0.15779
3673.73280,0.15675
3675.66126,0.15158
3677.58973,0.14403
3679.51820,0.14202
3681.44667,0.14131
3683.37514,0.13870
3685.30361,0.13882
3687.23208,0.14617
3689.16055,0.15464
3691.08901,0.14936
3693.01748,0.13975
3694.94595,0.13689
3696.87442,0.13714
3698.80289,0.13698
3700.73136,0.13889
3702.65983,0.14219
3704.58829,0.14277
3706.51676,0.14372
3708.44523,0.14742
3710.37370,0.14968
3712.30217,0.14786
3714.23064,0.14516
3716.15911,0.14266
3718.08757,0.14169
3720.01604,0.14354
3721.94451,0.14648
3723.87298,0.14643
3725.80145,0.14331
3727.72992,0.14116
3729.65839,0.14056
3731.58686,0.14101
3733.51532,0.14453
3735.44379,0.15107
3737.37226,0.15308
3739.30073,0.15025
3741.22920,0.15083
3743.15767,0.15965
3745.08614,0.16839
3747.01460,0.16634
3748.94307,0.16489
3750.87154,0.16558
3752.80001,0.15911
3754.72848,0.15044
3756.65695,0.14582
3758.58542,0.14486
3760.51389,0.14165
3762.44235,0.13649
3764.37082,0.13419
3766.29929,0.13340
3768.22776,0.13313
3770.15623,0.13398
3772.08470,0.13220
3774.01317,0.12874
3775.94163,0.12808
3777.87010,0.13220
3779.79857,0.13732
3781.72704,0.13897
3783.65551,0.14062
3785.58398,0.14165
3787.51245,0.13849
3789.44092,0.13461
3791.36938,0.13342
3793.29785,0.13398
3795.22632,0.13703
3797.15479,0.14309
3799.08326,0.14801
3801.01173,0.14821
3802.94020,0.14095
3804.86866,0.13480
3806.79713,0.13283
3808.72560,0.12916
3810.65407,0.12408
3812.58254,0.12224
3814.51101,0.12438
3816.43948,0.12824
3818.36795,0.13278
3820.29641,0.13623
3822.22488,0.13524
3824.15335,0.13394
3826.08182,0.13245
3828.01029,0.13081
3829.93876,0.13362
3831.86723,0.13713
3833.79569,0.13610
3835.72416,0.13699
3837.65263,0.14434
3839.58110,0.15224
3841.50957,0.15385
3843.43804,0.14984
3845.36651,0.14565
3847.29498,0.14322
3849.22344,0.14306
3851.15191,0.14708
3853.08038,0.14800
3855.00885,0.13701
3856.93732,0.13183
3858.86579,0.13245
3860.79426,0.13394
3862.72272,0.13744
3864.65119,0.14281
3866.57966,0.14328
3868.50813,0.14006
3870.43660,0.13751
3872.36507,0.13385
3874.29354,0.12811
3876.22200,0.12499
3878.15047,0.12842
3880.07894,0.13530
3882.00741,0.13631
3883.93588,0.13459
3885.86435,0.13500
3887.79282,0.13469
3889.72129,0.13762
3891.64975,0.14018
3893.57822,0.13348
3895.50669,0.12838
3897.43516,0.12958
3899.36363,0.13086
3901.29210,0.13086
3903.22057,0.12860
3905.14903,0.12271
3907.07750,0.11897
3909.00597,0.11883
3910.93444,0.12020
3912.86291,0.12180
3914.79138,0.12460
3916.71985,0.12811
3918.64832,0.12785
3920.57678,0.12562
3922.50525,0.12658
3924.43372,0.12716
3926.36219,0.12310
3928.29066,0.12050
3930.21913,0.12532
3932.14760,0.13300
3934.07606,0.13394
3936.00453,0.12864
3937.93300,0.12266
3939.86147,0.12001
3941.78994,0.11920
3943.71841,0.11679
3945.64688,0.11745
3947.57535,0.12172
3949.50381,0.12254
3951.43228,0.12070
3953.36075,0.12099
3955.28922,0.12049
3957.21769,0.11869
3959.14616,0.11981
3961.07463,0.12228
3963.00309,0.12208
3964.93156,0.11720
3966.86003,0.11068
3968.78850,0.11090
3970.71697,0.11811
3972.64544,0.12193
3974.57391,0.11833
3976.50238,0.11506
3978.43084,0.11466
3980.35931,0.11170
3982.28778,0.10812
3984.21625,0.10782
3986.14472,0.10860
3988.07319,0.11057
3990.00166,0.11343
3991.93012,0.11364
3993.85859,0.11131
3995.78706,0.10938
3997.71553,0.10840
3999.64400,0.10859
4001.57247,0.11034
4003.50094,0.10993
4005.42941,0.10720
4007.35787,0.10724
4009.28634,0.10755
4011.21481,0.10417
4013.14328,0.10268
4015.07175,0.10660
4017.00022,0.11068
4018.92869,0.11081
4020.85715,0.10734
4022.78562,0.10374
4024.71409,0.10254
4026.64256,0.10196
4028.57103,0.10233
4030.49950,0.10458
4032.42797,0.10632
4034.35644,0.10641
4036.28490,0.10523
4038.21337,0.10240
4040.14184,0.09907
4042.07031,0.10007
4043.99878,0.10610
4045.92725,0.10918
4047.85572,0.10614
4049.78418,0.10206
4051.71265,0.10102
4053.64112,0.10252
4055.56959,0.10194
4057.49806,0.10038
4059.42653,0.10417
4061.35500,0.11119
4063.28346,0.11220
4065.21193,0.10431
4067.14040,0.09551
4069.06887,0.09269
4070.99734,0.09481
4072.92581,0.09926
4074.85428,0.10281
4076.78275,0.10330
4078.71121,0.10362
4080.63968,0.10567
4082.56815,0.10717
4084.49662,0.10653
4086.42509,0.10315
4088.35356,0.09868
4090.28203,0.09696
4092.21049,0.09813
4094.13896,0.09988
4096.06743,0.10036
4097.99590,0.09786
4099.92437,0.09460
4101.85284,0.09697
4103.78131,0.10317
4105.70978,0.10449
4107.63824,0.10062
4109.56671,0.09575
4111.49518,0.09364
4113.42365,0.09740
4115.35212,0.10233
4117.28059,0.10284
4119.20906,0.10083
4121.13752,0.09894
4123.06599,0.09621
4124.99446,0.09443
4126.92293,0.09707
4128.85140,0.09938
4130.77987,0.09686
4132.70834,0.09574
4134.63681,0.09941
4136.56527,0.10112
4138.49374,0.09745
4140.42221,0.09370
4142.35068,0.09248
4144.27915,0.09133
4146.20762,0.08983
4148.13609,0.08932
4150.06455,0.09028
4151.99302,0.08913
4153.92149,0.08373
4155.84996,0.08007
4157.77843,0.08192
4159.70690,0.08595
4161.63537,0.08703
4163.56384,0.08346
4165.49230,0.07948
4167.42077,0.07674
4169.34924,0.07299
4171.27771,0.07168
4173.20618,0.07557
4175.13465,0.07844
4177.06312,0.07683
4178.99158,0.07744
4180.92005,0.08032
4182.84852,0.07868
4184.77699,0.07652
4186.70546,0.07725
4188.63393,0.07619
4190.56240,0.07363
4192.49087,0.07467
4194.41933,0.07771
4196.34780,0.07659
4198.27627,0.07558
4200.20474,0.07788
4202.13321,0.07587
4204.06168,0.07123
4205.99015,0.07046
4207.91861,0.07206
4209.84708,0.07289
4211.77555,0.07215
4213.70402,0.07141
4215.63249,0.07285
4217.56096,0.07588
4219.48943,0.07759
4221.41789,0.07582
4223.34636,0.07155
4225.27483,0.07054
4227.20330,0.07435
4229.13177,0.07656
4231.06024,0.07594
4232.98871,0.07676
4234.91718,0.07769
4236.84564,0.07367
4238.77411,0.06898
4240.70258,0.07155
4242.63105,0.07567
4244.55952,0.07397
4246.48799,0.06964
4248.41646,0.06620
4250.34492,0.06334
4252.27339,0.06014
4254.20186,0.05689
4256.13033,0.05539
4258.05880,0.05740
4259.98727,0.06147
4261.91574,0.06455
4263.84421,0.06612
4265.77267,0.06599
4267.70114,0.06352
4269.62961,0.06157
4271.55808,0.06250
4273.48655,0.06157
4275.41502,0.05685
4277.34349,0.05340
4279.27195,0.05227
4281.20042,0.05147
4283.12889,0.05190
4285.05736,0.05644
4286.98583,0.06476
4288.91430,0.07021
4290.84277,0.06673
4292.77124,0.05812
4294.69970,0.05242
4296.62817,0.04813
4298.55664,0.04442
4300.48511,0.04854
4302.41358,0.05644
4304.34205,0.05741
4306.27052,0.05412
4308.19898,0.05467
4310.12745,0.05792
4312.05592,0.05706
4313.98439,0.05342
4315.91286,0.05314
4317.84133,0.05496
4319.76980,0.05508
4321.69827,0.05413
4323.62673,0.05659
4325.55520,0.06270
4327.48367,0.06291
4329.41214,0.05108
4331.34061,0.03864
4333.26908,0.04047
4335.19755,0.05047
4337.12601,0.05256
4339.05448,0.04784
4340.98295,0.04854
4342.91142,0.05542
4344.83989,0.06063
4346.76836,0.05966
4348.69683,0.05378
4350.62530,0.05056
4352.55376,0.05434
4354.48223,0.05868
4356.41070,0.05605
4358.33917,0.05014
4360.26764,0.04804
4362.19611,0.04757
4364.12458,0.04369
4366.05304,0.03717
4367.98151,0.03168
4369.90998,0.03067
4371.83845,0.03686
4373.76692,0.04480
4375.69539,0.04854
4377.62386,0.05164
4379.55232,0.05380
4381.48079,0.05032
4383.40926,0.04388
4385.33773,0.03904
4387.26620,0.03562
4389.19467,0.03459
4391.12314,0.03609
4393.05161,0.03489
4394.98007,0.02969
4396.90854,0.02699
4398.83701,0.02954
4400.76548,0.03219
4402.69395,0.03243
4404.62242,0.03236
4406.55089,0.03620
4408.47935,0.04118
4410.40782,0.03618
4412.33629,0.02466
4414.26476,0.01997
4416.19323,0.02289
4418.12170,0.02329
4420.05017,0.01776
4421.97864,0.01546
4423.90710,0.01888
4425.83557,0.02185
4427.76404,0.02413
4429.69251,0.02751
4431.62098,0.03115
4433.54945,0.03550
4435.47792,0.03829
4437.40638,0.03334
4439.33485,0.02376
4441.26332,0.02173
4443.19179,0.02418
4445.12026,0.01995
4447.04873,0.01372
4448.97720,0.01120
4450.90567,0.01217
4452.83413,0.01467
4454.76260,0.01271
4456.69107,0.00740
4458.61954,0.00373
4460.54801,0.00667
4462.47648,0.01901
4464.40495,0.03114
4466.33341,0.03402
4468.26188,0.02613
4470.19035,0.01124
4472.11882,0.00393
4474.04729,0.01023
4475.97576,0.02088
4477.90423,0.02927
4479.83270,0.02991
4481.76116,0.02251
4483.68963,0.01537
4485.61810,0.00995
4487.54657,0.00800
4489.47504,0.01494
4491.40351,0.02154
4493.33198,0.01826
4495.26044,0.01518
4497.18891,0.01690
4499.11738,0.01178
4501.04585,0.00044
4502.97432,-0.00509
4504.90279,-0.00370
4506.83126,0.00036
4508.75973,0.00716
4510.68819,0.01573
4512.61666,0.01800
4514.54513,0.01289
4516.47360,0.01086
4518.40207,0.01073
4520.33054,0.00681
4522.25901,0.00387
4524.18747,0.00349
4526.11594,0.00313
4528.04441,0.00391
4529.97288,0.00533
4531.90135,0.00547
4533.82982,0.00374
4535.75829,0.00066
4537.68676,0.00035
4539.61522,0.00130
4541.54369,-0.00350
4543.47216,-0.00739
4545.40063,-0.00121
4547.32910,0.00547
4549.25757,0.00470
4551.18604,0.00307
4553.11450,0.00388
4555.04297,0.00653
4556.97144,0.01043
4558.89991,0.01051
4560.82838,0.00371
4562.75685,-0.00289
4564.68532,0.00018
4566.61378,0.00556
4568.54225,0.00256
4570.47072,-0.00009
4572.39919,0.00335
4574.32766,0.00894
4576.25613,0.01471
4578.18460,0.01352
4580.11307,0.00440
4582.04153,-0.00220
4583.97000,0.00173
4585.89847,0.01282
4587.82694,0.01720
4589.75541,0.01106
4591.68388,0.00259
4593.61235,-0.00115
4595.54081,0.00594
4597.46928,0.01829
4599.39775,0.01999
4601.32622,0.01214
4603.25469,0.00686
4605.18316,0.00319
4607.11163,-0.00218
4609.04010,-0.00501
4610.96856,-0.00515
4612.89703,-0.00419
4614.82550,0.00169
4616.75397,0.00961
4618.68244,0.01162
4620.61091,0.01042
4622.53938,0.00984
4624.46784,0.00829
4626.39631,0.00501
4628.32478,0.00523
4630.25325,0.00920
4632.18172,0.00779
4634.11019,0.00425
4636.03866,0.00512
4637.96713,0.00864
4639.89559,0.01177
4641.82406,0.00959
4643.75253,0.00472
4645.68100,0.00107
4647.60947,-0.00119
4649.53794,-0.00215
4651.46641,-0.00321
4653.39487,-0.00079
4655.32334,0.00623
4657.25181,0.01353
4659.18028,0.02069
4661.10875,0.02501
4663.03722,0.02209
4664.96569,0.01517
4666.89416,0.00934
4668.82262,0.00775
4670.75109,0.00771
4672.67956,0.00607
4674.60803,0.00928
4676.53650,0.01416
4678.46497,0.01381
4680.39344,0.01557
4682.32190,0.01676
4684.25037,0.01227
4686.17884,0.01264
4688.10731,0.01757
4690.03578,0.01762
4691.96425,0.01507
4693.89272,0.01457
4695.82119,0.01665
4697.74965,0.01782
4699.67812,0.01410
4701.60659,0.00755
4703.53506,-0.00180
4705.46353,-0.01419
4707.39200,-0.01617
4709.32047,-0.00523
4711.24893,-0.00119
4713.17740,-0.00392
4715.10587,0.00290
4717.03434,0.01409
4718.96281,0.01421
4720.89128,0.00527
4722.81975,-0.00139
4724.74821,-0.00641
4726.67668,-0.00955
4728.60515,-0.00619
4730.53362,0.00140
4732.46209,0.01048
4734.39056,0.01429
4736.31903,0.00565
4738.24750,-0.00524
4740.17596,-0.00575
4742.10443,-0.00368
4744.03290,-0.00691
4745.96137,-0.01190
4747.88984,-0.01389
4749.81831,-0.00870
4751.74678,-0.00317
4753.67524,-0.00407
4755.60371,-0.00458
4757.53218,-0.00405
4759.46065,-0.00595
4761.38912,-0.00206
4763.31759,0.00800
4765.24606,0.01141
4767.17453,0.00678
4769.10299,0.00394
4771.03146,0.00466
4772.95993,0.00407
4774.88840,0.00525
4776.81687,0.00976
4778.74534,0.00991
4780.67381,0.01045
4782.60227,0.01807
4784.53074,0.01986
4786.45921,0.01347
4788.38768,0.01160
4790.31615,0.01195
4792.24462,0.00564
4794.17309,-0.00330
4796.10156,-0.00499
4798.03002,-0.00046
4799.95849,0.00251
4801.88696,0.00175
4803.81543,-0.00156
4805.74390,-0.00436
4807.67237,-0.00247
4809.60084,0.00466
4811.52930,0.01669
4813.45777,0.02828
4815.38624,0.02883
4817.31471,0.02042
4819.24318,0.01130
4821.17165,0.00482
4823.10012,-0.00058
4825.02859,-0.00446
4826.95705,0.00054
4828.88552,0.01072
4830.81399,0.01257
4832.74246,0.00422
4834.67093,0.00137
4836.59940,0.00989
4838.52787,0.01219
4840.45633,0.00322
4842.38480,-0.00709
4844.31327,-0.01493
4846.24174,-0.01715
4848.17021,-0.01000
4850.09868,0.00328
4852.02715,0.01332
4853.95562,0.01110
4855.88408,-0.00161
4857.81255,-0.01109
4859.74102,-0.00726
4861.66949,0.00911
4863.59796,0.02403
4865.52643,0.02719
4867.45490,0.02225
4869.38336,0.01386
4871.31183,0.00993
4873.24030,0.01165
4875.16877,0.00955
4877.09724,0.00298
4879.02571,0.00048
4880.95418,0.00748
4882.88265,0.01392
4884.81111,0.00737
4886.73958,-0.00908
4888.66805,-0.02054
4890.59652,-0.01391
4892.52499,0.00260
4894.45346,0.00677
4896.38193,-0.00314
4898.31039,-0.00915
4900.23886,-0.00417
4902.16733,0.00462
4904.09580,0.01150
4906.02427,0.01384
4907.95274,0.01635
4909.88121,0.02411
4911.80967,0.02722
4913.73814,0.01842
4915.66661,0.00632
4917.59508,0.00376
4919.52355,0.00998
4921.45202,0.01006
4923.38049,0.00505
4925.30896,0.00715
4927.23742,0.01262
4929.16589,0.01604
4931.09436,0.01587
4933.02283,0.01106
4934.95130,0.01353
4936.87977,0.02170
4938.80824,0.01373
4940.73670,-0.00192
4942.66517,-0.00247
4944.59364,0.00537
4946.52211,0.00823
4948.45058,0.00742
4950.37905,0.00570
4952.30752,0.00318
4954.23599,-0.00272
4956.16445,-0.00879
4958.09292,-0.00356
4960.02139,0.00940
4961.94986,0.01636
4963.87833,0.01493
4965.80680,0.01417
4967.73527,0.02440
4969.66373,0.03013
4971.59220,0.01079
4973.52067,-0.02083
4975.44914,-0.03882
4977.37761,-0.03000
4979.30608,-0.00266
4981.23455,0.01747
4983.16302,0.01767
4985.09148,0.00050
4987.01995,-0.01984
4988.94842,-0.02397
4990.87689,-0.01270
4992.80536,0.00213
4994.73383,0.00789
4996.66230,0.00386
4998.59076,0.00806
5000.51923,0.01965
5002.44770,0.02398
5004.37617,0.02147
5006.30464,0.01805
5008.23311,0.01198
5010.16158,0.00465
5012.09005,0.00982
5014.01851,0.02756
5015.94698,0.03583
5017.87545,0.02729
5019.80392,0.01563
5021.73239,0.01146
5023.66086,0.01591
5025.58933,0.02222
5027.51779,0.02115
5029.44626,0.01594
5031.37473,0.01874
5033.30320,0.02424
5035.23167,0.01674
5037.16014,0.00201
5039.08861,-0.00524
5041.01708,-0.00847
5042.94554,-0.01575
5044.87401,-0.02065
5046.80248,-0.00827
5048.73095,0.01176
5050.65942,0.01268
5052.58789,0.00568
5054.51636,0.01351
5056.44482,0.02254
5058.37329,0.01966
5060.30176,0.01247
5062.23023,0.00036
5064.15870,-0.01847
5066.08717,-0.02701
5068.01564,-0.01384
5069.94410,0.00612
5071.87257,0.01539
5073.80104,0.01561
5075.72951,0.01608
5077.65798,0.01987
5079.58645,0.02628
5081.51492,0.02972
5083.44339,0.01779
5085.37185,-0.00073
5087.30032,0.00598
5089.22879,0.03046
5091.15726,0.03771
5093.08573,0.03018
5095.01420,0.02298
5096.94267,0.01935
5098.87113,0.02321
5100.79960,0.02568
5102.72807,0.01719
5104.65654,0.00349
5106.58501,-0.00940
5108.51348,-0.00960
5110.44195,0.00614
5112.37042,0.01485
5114.29888,0.00718
5116.22735,0.00435
5118.15582,0.01583
5120.08429,0.02519
5122.01276,0.02986
5123.94123,0.04597
5125.86970,0.06243
5127.79816,0.05385
5129.72663,0.02928
5131.65510,0.01037
5133.58357,0.00005
5135.51204,-0.00351
5137.44051,0.00224
5139.36898,0.01515
5141.29745,0.02816
5143.22591,0.03416
5145.15438,0.03038
5147.08285,0.02691
5149.01132,0.02855
5150.93979,0.03047
5152.86826,0.03669
5154.79673,0.04374
5156.72519,0.04087
5158.65366,0.03596
5160.58213,0.04301
5162.51060,0.05652
5164.43907,0.05479
5166.36754,0.03343
5168.29601,0.01787
5170.22448,0.02225
5172.15294,0.03382
5174.08141,0.04615
5176.00988,0.05775
5177.93835,0.05461
5179.86682,0.03575
5181.79529,0.02166
5183.72376,0.02522
5185.65222,0.04040
5187.58069,0.04274
5189.50916,0.01959
5191.43763,0.00092
5193.36610,0.01014
5195.29457,0.02143
5197.22304,0.01083
5199.15151,0.00074
5201.07997,0.01231
5203.00844,0.02824
5204.93691,0.04000
5206.86538,0.05570
5208.79385,0.06873
5210.72232,0.06936
5212.65079,0.05649
5214.57925,0.04133
5216.50772,0.04097
5218.43619,0.05519
5220.36466,0.06836
5222.29313,0.06717
5224.22160,0.04763
5226.15007,0.02467
5228.07854,0.02623
5230.00700,0.05055
5231.93547,0.06991
5233.86394,0.06429
5235.79241,0.04087
5237.72088,0.02232
5239.64935,0.02024
5241.57782,0.02757
5243.50628,0.03630
5245.43475,0.04294
5247.36322,0.04213
5249.29169,0.03898
5251.22016,0.04406
5253.14863,0.04691
5255.07710,0.04195
5257.00556,0.04508
5258.93403,0.06028
5260.86250,0.07380
5262.79097,0.07518
5264.71944,0.06862
5266.64791,0.06027
5268.57638,0.05054
5270.50485,0.04516
5272.43331,0.04204
5274.36178,0.02875
5276.29025,0.01265
5278.21872,0.00942
5280.14719,0.01678
5282.07566,0.02900
5284.00413,0.03832
5285.93259,0.03326
5287.86106,0.01859
5289.78953,0.00969
5291.71800,0.01101
5293.64647,0.01378
5295.57494,0.02024
5297.50341,0.03639
5299.43188,0.05554
5301.36034,0.06895
5303.28881,0.06758
5305.21728,0.05213
5307.14575,0.04133
5309.07422,0.04880
5311.00269,0.06255
5312.93116,0.06846
5314.85962,0.07574
5316.78809,0.07935
5318.71656,0.06364
5320.64503,0.05822
5322.57350,0.07437
5324.50197,0.08393
5326.43044,0.07883
5328.35891,0.06086
5330.28737,0.04371
5332.21584,0.03194
5334.14431,0.01384
5336.07278,0.01126
5338.00125,0.03773
5339.92972,0.06411
5341.85819,0.07939
5343.78665,0.07930
5345.71512,0.06067
5347.64359,0.06240
5349.57206,0.08560
5351.50053,0.08891
5353.42900,0.06392
5355.35747,0.04336
5357.28594,0.03436
5359.21440,0.02934
5361.14287,0.03475
5363.07134,0.04168
5364.99981,0.04911
5366.92828,0.06940
5368.85675,0.08326
5370.78522,0.07545
5372.71368,0.06396
5374.64215,0.05774
5376.57062,0.05424
5378.49909,0.05995
5380.42756,0.06403
5382.35603,0.06164
5384.28450,0.06710
5386.21297,0.07341
5388.14143,0.06384
5390.06990,0.05268
5391.99837,0.04952
5393.92684,0.04280
5395.85531,0.03006
5397.78378,0.02217
5399.71225,0.02640
5401.64071,0.04737
5403.56918,0.06832
5405.49765,0.07591
5407.42612,0.08734
5409.35459,0.10558
5411.28306,0.11426
5413.21153,0.10490
5415.13999,0.07834
5417.06846,0.05020
5418.99693,0.04162
5420.92540,0.05750
5422.85387,0.07483
5424.78234,0.07830
5426.71081,0.08216
5428.63928,0.09399
5430.56774,0.09905
5432.49621,0.09242
5434.42468,0.07700
5436.35315,0.05790
5438.28162,0.05500
5440.21009,0.06987
5442.13856,0.07036
5444.06702,0.05254
5445.99549,0.04930
5447.92396,0.06137
5449.85243,0.07246
5451.78090,0.08059
5453.70937,0.07812
5455.63784,0.05987
5457.56631,0.03600
5459.49477,0.02177
5461.42324,0.02362
5463.35171,0.03864
5465.28018,0.05278
5467.20865,0.04988
5469.13712,0.03989
5471.06559,0.05055
5472.99405,0.07806
5474.92252,0.10674
5476.85099,0.12433
5478.77946,0.11707
5480.70793,0.09535
5482.63640,0.07504
5484.56487,0.05608
5486.49334,0.04735
5488.42180,0.05844
5490.35027,0.06445
5492.27874,0.04652
5494.20721,0.03571
5496.13568,0.04825
5498.06415,0.06444
5499.99262,0.07761
5501.92108,0.08743
5503.84955,0.09048
5505.77802,0.09064
5507.70649,0.08474
5509.63496,0.07145
5511.56343,0.06078
5513.49190,0.06176
5515.42037,0.08610
5517.34883,0.11578
5519.27730,0.11718
5521.20577,0.09884
5523.13424,0.08080
5525.06271,0.07038
5526.99118,0.06867
5528.91965,0.06825
5530.84811,0.06785
5532.77658,0.06968
5534.70505,0.06706
5536.63352,0.05460
5538.56199,0.04110
5540.49046,0.03956
5542.41893,0.04759
5544.34740,0.05334
5546.27586,0.05443
5548.20433,0.06008
5550.13280,0.07259
5552.06127,0.08736
5553.98974,0.10582
5555.91821,0.11810
5557.84668,0.11049
5559.77514,0.08932
5561.70361,0.06981
5563.63208,0.06366
5565.56055,0.06240
5567.48902,0.05538
5569.41749,0.05233
5571.34596,0.05389
5573.27443,0.06373
5575.20289,0.08853
5577.13136,0.09550
5579.05983,0.08192
5580.98830,0.09237
5582.91677,0.10772
5584.84524,0.09129
5586.77371,0.07724
5588.70217,0.07835
5590.63064,0.06867
5592.55911,0.06247
5594.48758,0.07173
5596.41605,0.07330
5598.34452,0.07586
5600.27299,0.09770
5602.20145,0.11367
5604.12992,0.11396
5606.05839,0.11270
5607.98686,0.09441
5609.91533,0.05490
5611.84380,0.03854
5613.77227,0.06501
5615.70074,0.09907
5617.62920,0.10560
5619.55767,0.07068
5621.48614,0.02888
5623.41461,0.02821
5625.34308,0.05056
5627.27155,0.04800
5629.20002,0.02711
5631.12848,0.02531
5633.05695,0.03929
5634.98542,0.04679
5636.91389,0.04889
5638.84236,0.06251
5640.77083,0.08862
5642.69930,0.11196
5644.62777,0.13321
5646.55623,0.15086
5648.48470,0.14408
5650.41317,0.11708
5652.34164,0.10296
5654.27011,0.10090
5656.19858,0.09046
5658.12705,0.08700
5660.05551,0.09260
5661.98398,0.09029
5663.91245,0.08579
5665.84092,0.07923
5667.76939,0.06622
5669.69786,0.06032
5671.62633,0.06962
5673.55480,0.08264
5675.48326,0.08881
5677.41173,0.08516
5679.34020,0.07785
5681.26867,0.07267
5683.19714,0.07243
5685.12561,0.07498
5687.05408,0.06695
5688.98254,0.06482
5690.91101,0.09597
5692.83948,0.13889
5694.76795,0.16020
5696.69642,0.15590
5698.62489,0.14855
5700.55336,0.14946
5702.48183,0.13989
5704.41029,0.10928
5706.33876,0.06667
5708.26723,0.04797
5710.19570,0.07957
5712.12417,0.11289
5714.05264,0.10764
5715.98111,0.10676
5717.90957,0.13241
5719.83804,0.14088
5721.76651,0.11524
5723.69498,0.08965
5725.62345,0.08767
5727.55192,0.10173
5729.48039,0.11140
5731.40886,0.11152
5733.33732,0.10552
5735.26579,0.09827
5737.19426,0.10092
5739.12273,0.11323
5741.05120,0.12629
5742.97967,0.12376
5744.90814,0.10778
5746.83660,0.09536
5748.76507,0.07798
5750.69354,0.05572
5752.62201,0.05529
5754.55048,0.07933
5756.47895,0.10970
5758.40742,0.12906
5760.33588,0.13965
5762.26435,0.15072
5764.19282,0.14021
5766.12129,0.11021
5768.04976,0.09298
5769.97823,0.09790
5771.90670,0.11745
5773.83517,0.11503
5775.76363,0.09352
5777.69210,0.10636
5779.62057,0.14011
5781.54904,0.13422
5783.47751,0.08658
5785.40598,0.04258
5787.33445,0.04564
5789.26291,0.09791
5791.19138,0.14917
5793.11985,0.16260
5795.04832,0.13654
5796.97679,0.08236
5798.90526,0.05133
5800.83373,0.07291
5802.76220,0.10145
5804.69066,0.10693
5806.61913,0.10733
5808.54760,0.09840
5810.47607,0.07057
5812.40454,0.04506
5814.33301,0.05321
5816.26148,0.09805
5818.18994,0.14249
5820.11841,0.14981
5822.04688,0.12140
5823.97535,0.08410
5825.90382,0.05644
5827.83229,0.05507
5829.76076,0.08145
5831.68923,0.08787
5833.61769,0.06745
5835.54616,0.06354
5837.47463,0.07312
5839.40310,0.08633
5841.33157,0.10013
5843.26004,0.09424
5845.18851,0.07531
5847.11697,0.06567
5849.04544,0.06482
5850.97391,0.06409
5852.90238,0.06217
5854.83085,0.06621
5856.75932,0.09723
5858.68779,0.14445
5860.61626,0.16131
5862.54472,0.14265
5864.47319,0.12081
5866.40166,0.10571
5868.33013,0.10005
5870.25860,0.11430
5872.18707,0.13064
5874.11554,0.13755
5876.04400,0.14353
5877.97247,0.13771
5879.90094,0.12846
5881.82941,0.12556
5883.75788,0.09414
5885.68635,0.04653
5887.61482,0.04630
5889.54329,0.08939
5891.47175,0.11092
5893.40022,0.08495
5895.32869,0.05200
5897.25716,0.05820
5899.18563,0.09270
5901.11410,0.10473
5903.04257,0.08469
5904.97103,0.09369
5906.89950,0.12712
5908.82797,0.11914
5910.75644,0.09623
5912.68491,0.10956
5914.61338,0.13189
5916.54185,0.12663
5918.47032,0.09560
5920.39878,0.05593
5922.32725,0.03889
5924.25572,0.05741
5926.18419,0.07880
5928.11266,0.09617
5930.04113,0.13514
5931.96960,0.17836
5933.89806,0.17934
5935.82653,0.13763
5937.75500,0.09459
5939.68347,0.06128
5941.61194,0.04106
5943.54041,0.04991
5945.46888,0.07228
5947.39734,0.08204
5949.32581,0.09145
5951.25428,0.11138
5953.18275,0.10289
5955.11122,0.07269
5957.03969,0.08329
5958.96816,0.12203
5960.89663,0.14123
5962.82509,0.14505
5964.75356,0.13624
5966.68203,0.11416
5968.61050,0.10297
5970.53897,0.12028
5972.46744,0.13784
5974.39591,0.12327
5976.32437,0.10093
5978.25284,0.10432
5980.18131,0.13775
5982.10978,0.17770
5984.03825,0.18218
5985.96672,0.15511
5987.89519,0.14079
5989.82366,0.14890
5991.75212,0.16674
5993.68059,0.16983
5995.60906,0.13891
5997.53753,0.10829
5999.46600,0.10168
6001.39447,0.08637
6003.32294,0.05292
6005.25140,0.05318
6007.17987,0.09963
6009.10834,0.13102
6011.03681,0.11134
6012.96528,0.07428
6014.89375,0.06141
6016.82222,0.07467
6018.75069,0.11737
6020.67915,0.15178
6022.60762,0.12331
6024.53609,0.07876
6026.46456,0.05990
6028.39303,0.06809
6030.32150,0.11034
6032.24997,0.14279
6034.17843,0.13201
6036.10690,0.10579
6038.03537,0.09821
6039.96384,0.09952
6041.89231,0.09039
6043.82078,0.09939
6045.74925,0.10923
6047.67772,0.07896
6049.60618,0.06430
6051.53465,0.08641
6053.46312,0.09716
6055.39159,0.09812
6057.32006,0.09485
6059.24853,0.08680
6061.17700,0.07783
6063.10546,0.04835
6065.03393,-0.00308
6066.96240,-0.01398
6068.89087,0.03853
6070.81934,0.08149
6072.74781,0.10533
6074.67628,0.14292
6076.60475,0.16646
6078.53321,0.16949
6080.46168,0.15781
6082.39015,0.14953
6084.31862,0.15431
6086.24709,0.12669
6088.17556,0.08489
6090.10403,0.08602
6092.03249,0.09793
6093.96096,0.08207
6095.88943,0.06170
6097.81790,0.06372
6099.74637,0.08022
6101.67484,0.08500
6103.60331,0.05650
6105.53177,0.01348
6107.46024,0.01020
6109.38871,0.04851
6111.31718,0.08054
6113.24565,0.10105
6115.17412,0.11518
6117.10259,0.10910
6119.03106,0.08026
6120.95952,0.04760
6122.88799,0.03614
6124.81646,0.06110
6126.74493,0.10482
6128.67340,0.13556
6130.60187,0.13151
6132.53034,0.08603
6134.45880,0.04852
6136.38727,0.04714
6138.31574,0.05827
6140.24421,0.08189
6142.17268,0.08819
6144.10115,0.04788
6146.02962,0.01692
6147.95809,0.02076
6149.88655,0.03359
6151.81502,0.03861
6153.74349,0.03488
6155.67196,0.03146
6157.60043,0.02741
6159.52890,0.04399
6161.45737,0.11663
6163.38583,0.19111
6165.31430,0.18996
6167.24277,0.14753
6169.17124,0.11577
6171.09971,0.10071
6173.02818,0.10793
6174.95665,0.13130
6176.88512,0.13112
6178.81358,0.08436
6180.74205,0.04018
6182.67052,0.04923
6184.59899,0.08717
6186.52746,0.11294
6188.45593,0.11298
6190.38440,0.08222
6192.31286,0.03391
6194.24133,0.01510
6196.16980,0.04917
6198.09827,0.09808
6200.02674,0.13168
6201.95521,0.14720
6203.88368,0.13630
6205.81215,0.11623
6207.74061,0.11893
6209.66908,0.14594
6211.59755,0.16027
6213.52602,0.13966
6215.45449,0.11889
6217.38296,0.10474
6219.31143,0.09206
6221.23989,0.09108
6223.16836,0.07198
6225.09683,0.04240
6227.02530,0.04912
6228.95377,0.06492
6230.88224,0.05780
6232.81071,0.05055
6234.73918,0.06025
6236.66764,0.08089
6238.59611,0.11339
6240.52458,0.13907
6242.45305,0.12512
6244.38152,0.08107
6246.30999,0.05094
6248.23846,0.05350
6250.16692,0.06435
6252.09539,0.07496
6254.02386,0.10539
6255.95233,0.12377
6257.88080,0.08678
6259.80927,0.05753
6261.73774,0.09069
6263.66621,0.11459
6265.59467,0.09688
6267.52314,0.10658
6269.45161,0.13244
6271.38008,0.11925
6273.30855,0.09010
6275.23702,0.10727
6277.16549,0.12741
6279.09395,0.09783
6281.02242,0.08237
6282.95089,0.09921
6284.87936,0.10758
6286.80783,0.08068
6288.73630,0.03925
6290.66477,0.05163
6292.59323,0.07648
6294.52170,0.05021
6296.45017,0.03025
6298.37864,0.03046
6300.30711,0.02130
6302.23558,0.01239
6304.16405,-0.00787
6306.09252,-0.03495
6308.02098,-0.03660
6309.94945,-0.01077
6311.87792,0.03039
6313.80639,0.05277
6315.73486,0.05896
6317.66333,0.08478
6319.59180,0.09863
6321.52026,0.08618
6323.44873,0.09157
6325.37720,0.11608
6327.30567,0.11211
6329.23414,0.06769
6331.16261,0.05019
6333.09108,0.06446
6335.01955,0.06454
6336.94801,0.07416
6338.87648,0.08623
6340.80495,0.08286
6342.73342,0.10201
6344.66189,0.14855
6346.59036,0.15987
6348.51883,0.11423
6350.44729,0.08644
6352.37576,0.10723
6354.30423,0.11991
6356.23270,0.10177
6358.16117,0.08379
6360.08964,0.07014
6362.01811,0.03459
6363.94658,0.01520
6365.87504,0.04577
6367.80351,0.07549
6369.73198,0.07054
6371.66045,0.05655
6373.58892,0.06240
6375.51739,0.08264
6377.44586,0.08234
6379.37432,0.05445
6381.30279,0.03521
6383.23126,0.04463
6385.15973,0.07399
6387.08820,0.11054
6389.01667,0.11218
6390.94514,0.05359
6392.87361,-0.00675
6394.80207,-0.00528
6396.73054,0.01896
6398.65901,0.03275
6400.58748,0.05500
6402.51595,0.08356
6404.44442,0.10492
6406.37289,0.13096
6408.30135,0.15936
6410.22982,0.14369
6412.15829,0.08309
6414.08676,0.06967
6416.01523,0.09663
6417.94370,0.08579
6419.87217,0.06367
6421.80064,0.05312
6423.72910,0.04108
6425.65757,0.02334
6427.58604,-0.01411
6429.51451,-0.02208
6431.44298,0.03257
6433.37145,0.09785
6435.29992,0.12708
6437.22838,0.12189
6439.15685,0.12242
6441.08532,0.14702
6443.01379,0.17946
6444.94226,0.19227
6446.87073,0.18457
6448.79920,0.17103
6450.72766,0.12646
6452.65613,0.04401
6454.58460,-0.01387
6456.51307,-0.01015
6458.44154,0.02288
6460.37001,0.02809
6462.29848,-0.01535
6464.22695,-0.04539
6466.15541,-0.01849
6468.08388,-0.00525
6470.01235,-0.02329
6471.94082,0.03401
6473.86929,0.16081
6475.79776,0.23870
6477.72623,0.23553
6479.65469,0.18697
6481.58316,0.09595
6483.51163,-0.00265
6485.44010,-0.03862
6487.36857,-0.01783
6489.29704,0.00388
6491.22551,0.03271
6493.15398,0.08953
6495.08244,0.12971
6497.01091,0.12226
6498.93938,0.08306
6500.86785,0.05902
6502.79632,0.08182
6504.72479,0.11786
6506.65326,0.11411
6508.58172,0.05519
6510.51019,-0.00936
6512.43866,-0.02160
6514.36713,0.00466
6516.29560,0.01897
6518.22407,0.02038
6520.15254,0.05437
6522.08101,0.10273
6524.00947,0.09921
6525.93794,0.06378
6527.86641,0.03908
6529.79488,-0.00727
6531.72335,-0.05049
6533.65182,-0.02627
6535.58029,0.00580
6537.50875,-0.00999
6539.43722,0.00071
6541.36569,0.04047
6543.29416,0.05386
6545.22263,0.05948
6547.15110,0.07818
6549.07957,0.11048
6551.00804,0.14525
6552.93650,0.17558
6554.86497,0.16754
6556.79344,0.12963
6558.72191,0.13206
6560.65038,0.11879
6562.57885,0.04417
6564.50732,0.00291
6566.43578,0.03394
6568.36425,0.07870
6570.29272,0.08338
6572.22119,0.06739
6574.14966,0.09212
6576.07813,0.13375
6578.00660,0.13749
6579.93507,0.11109
6581.86353,0.09614
6583.79200,0.10538
6585.72047,0.12482
6587.64894,0.12515
6589.57741,0.06720
6591.50588,-0.00398
6593.43435,0.00520
6595.36281,0.09456
6597.29128,0.16569
6599.21975,0.14206
6601.14822,0.06939
6603.07669,0.05343
6605.00516,0.04434
6606.93363,0.03374
6608.86210,0.10367
6610.79056,0.19488
6612.71903,0.19950
6614.64750,0.13727
6616.57597,0.08502
6618.50444,0.09986
6620.43291,0.14960
6622.36138,0.13999
6624.28984,0.04407
6626.21831,-0.04321
6628.14678,-0.02768
6630.07525,0.05586
6632.00372,0.07725
6633.93219,-0.00893
6635.86066,-0.12519
6637.78912,-0.15443
6639.71759,-0.13615
6641.64606,-0.14597
6643.57453,-0.12277
6645.50300,-0.02504
6647.43147,0.08122
6649.35994,0.16320
6651.28841,0.19901
6653.21687,0.18745
6655.14534,0.17787
6657.07381,0.16177
6659.00228,0.15277
6660.93075,0.15839
6662.85922,0.10800
6664.78769,0.00749
6666.71615,-0.07541
6668.64462,-0.04825
6670.57309,0.05984
6672.50156,0.08135
6674.43003,0.03237
6676.35850,0.03916
6678.28697,0.08139
6680.21544,0.10198
6682.14390,0.09140
6684.07237,0.09642
6686.00084,0.13728
6687.92931,0.15641
6689.85778,0.17663
6691.78625,0.21908
6693.71472,0.19742
6695.64318,0.10992
6697.57165,0.04838
6699.50012,0.05048
6701.42859,0.06486
6703.35706,0.05724
6705.28553,0.07783
6707.21400,0.10757
6709.14247,0.03677
6711.07093,-0.05776
6712.99940,-0.06560
6714.92787,-0.02940
6716.85634,-0.01383
6718.78481,-0.00099
6720.71328,0.06884
6722.64175,0.12852
6724.57021,0.10456
6726.49868,0.08766
6728.42715,0.12020
6730.35562,0.17967
6732.28409,0.20603
6734.21256,0.16066
6736.14103,0.13180
6738.06950,0.15804
6739.99796,0.17482
6741.92643,0.16187
6743.85490,0.16842
6745.78337,0.20026
6747.71184,0.19916
6749.64031,0.12865
6751.56878,0.02811
6753.49724,-0.01344
6755.42571,0.03569
6757.35418,0.12787
6759.28265,0.18768
6761.21112,0.13068
6763.13959,0.06351
6765.06806,0.11369
6766.99653,0.16108
6768.92499,0.10434
6770.85346,0.05945
6772.78193,0.08278
6774.71040,0.09582
6776.63887,0.07872
6778.56734,0.08994
6780.49581,0.15521
6782.42427,0.23521
6784.35274,0.22547
6786.28121,0.07746
6788.20968,-0.06823
6790.13815,-0.08774
6792.06662,-0.02462
6793.99509,0.04048
6795.92355,0.06888
6797.85202,0.05423
6799.78049,0.03291
6801.70896,0.01990
6803.63743,0.03018
6805.56590,0.05560
6807.49437,0.04229
6809.42284,0.03899
6811.35130,0.09613
6813.27977,0.11723
6815.20824,0.06891
6817.13671,0.04193
6819.06518,0.04567
6820.99365,0.02986
6822.92212,0.00260
6824.85058,0.00970
6826.77905,0.02738
6828.70752,0.01399
6830.63599,0.04137
6832.56446,0.13070
6834.49293,0.14333
6836.42140,0.06066
6838.34987,0.03018
6840.27833,0.05862
6842.20680,0.10486
6844.13527,0.19220
6846.06374,0.27530
6847.99221,0.27438
6849.92068,0.18930
6851.84915,0.10074
6853.77761,0.04525
6855.70608,0.01903
6857.63455,0.03889
6859.56302,0.10468
6861.49149,0.11821
6863.41996,0.01352
6865.34843,-0.08151
6867.27690,-0.04042
6869.20536,0.05631
6871.13383,0.06224
6873.06230,-0.00810
6874.99077,-0.05414
6876.91924,-0.05977
6878.84771,-0.00263
6880.77618,0.10783
6882.70464,0.14817
6884.63311,0.08679
6886.56158,0.02586
6888.49005,0.04664
6890.41852,0.09309
6892.34699,0.10323
6894.27546,0.11222
6896.20393,0.10898
6898.13239,0.07101
6900.06086,0.06195
6901.98933,0.12785
6903.91780,0.22679
6905.84627,0.26113
6907.77474,0.23222
6909.70321,0.19193
6911.63167,0.16011
6913.56014,0.14767
6915.48861,0.13314
6917.41708,0.13559
6919.34555,0.18650
6921.27402,0.19029
6923.20249,0.08946
6925.13096,-0.01987
6927.05942,-0.05946
6928.98789,-0.01383
6930.91636,0.06663
6932.84483,0.09192
6934.77330,0.07252
6936.70177,0.04672
6938.63024,-0.00115
6940.55870,-0.04399
6942.48717,-0.05269
6944.41564,-0.06885
6946.34411,-0.07349
6948.27258,-0.04966
6950.20105,-0.04425
6952.12952,-0.05678
6954.05799,-0.03974
6955.98645,-0.00873
6957.91492,-0.01460
6959.84339,-0.04345
6961.77186,-0.07580
6963.70033,-0.07859
6965.62880,-0.07898
6967.55727,-0.11325
6969.48573,-0.11336
6971.41420,-0.07842
6973.34267,-0.08610
6975.27114,-0.07061
6977.19961,0.03964
6979.12808,0.12061
6981.05655,0.10500
6982.98501,0.08938
6984.91348,0.12517
6986.84195,0.15264
6988.77042,0.12796
6990.69889,0.07071
6992.62736,0.03721
6994.55583,0.03651
6996.48430,0.02756
6998.41276,0.02401
7000.34123,0.08480
7002.26970,0.15636
7004.19817,0.19468
7006.12664,0.20073
7008.05511,0.11732
7009.98358,-0.00307
7011.91204,-0.04495
7013.84051,0.01841
7015.76898,0.08340
7017.69745,0.06187
7019.62592,0.06671
7021.55439,0.16134
7023.48286,0.22227
7025.41133,0.18847
7027.33979,0.12206
7029.26826,0.10792
7031.19673,0.13053
7033.12520,0.13827
7035.05367,0.08719
7036.98214,-0.02634
7038.91061,-0.03629
7040.83907,0.08743
7042.76754,0.17008
7044.69601,0.15686
7046.62448,0.14421
7048.55295,0.11968
7050.48142,0.05736
7052.40989,-0.02759
7054.33836,-0.07710
7056.26682,-0.05080
7058.19529,0.00481
7060.12376,0.04815
7062.05223,0.04135
7063.98070,-0.03126
7065.90917,-0.05393
7067.83764,0.03137
7069.76610,0.13907
7071.69457,0.17287
7073.62304,0.09635
7075.55151,-0.00833
7077.47998,-0.06146
7079.40845,-0.05266
7081.33692,0.01393
7083.26539,0.07149
7085.19385,0.07672
7087.12232,0.07215
7089.05079,0.05342
7090.97926,-0.00501
7092.90773,-0.00883
7094.83620,0.07330
7096.76467,0.11120
7098.69313,0.03378
7100.62160,-0.09350
7102.55007,-0.16306
7104.47854,-0.11296
7106.40701,-0.00283
7108.33548,0.06061
7110.26395,0.07253
7112.19242,0.05540
7114.12088,0.05280
7116.04935,0.12369
7117.97782,0.21848
7119.90629,0.20851
7121.83476,0.13380
7123.76323,0.06054
7125.69170,-0.02008
7127.62016,-0.11317
7129.54863,-0.16185
7131.47710,-0.06233
7133.40557,0.14370
7135.33404,0.22632
7137.26251,0.15573
7139.19098,0.04838
7141.11944,-0.02527
7143.04791,-0.01310
7144.97638,0.03348
7146.90485,-0.00455
7148.83332,-0.08190
7150.76179,-0.08433
7152.69026,-0.06350
7154.61873,-0.11190
7156.54719,-0.12620
7158.47566,-0.04445
7160.40413,0.05781
7162.33260,0.08693
7164.26107,0.06842
7166.18954,0.09772
7168.11801,0.11021
7170.04647,-0.01615
7171.97494,-0.13056
7173.90341,-0.07359
7175.83188,0.03455
7177.76035,0.13794
7179.68882,0.22733
7181.61729,0.21156
7183.54576,0.14438
7185.47422,0.11790
7187.40269,0.06764
7189.33116,0.02220
7191.25963,0.11524
7193.18810,0.25124
7195.11657,0.20456
7197.04504,0.04790
7198.97350,-0.04263
7200.90197,-0.07007
7202.83044,-0.05618
7204.75891,0.02241
7206.68738,0.06655
7208.61585,0.10665
7210.54432,0.17249
7212.47279,0.16632
7214.40125,0.08724
7216.32972,0.00935
7218.25819,-0.00957
7220.18666,-0.03464
7222.11513,-0.07013
7224.04360,-0.03444
7225.97207,0.05588
7227.90053,0.13288
7229.82900,0.15381
7231.75747,0.08531
7233.68594,0.00790
7235.61441,-0.00637
7237.54288,0.01100
7239.47135,-0.00865
7241.39982,-0.13890
7243.32828,-0.28034
7245.25675,-0.23260
7247.18522,-0.09068
7249.11369,0.08836
7251.04216,0.24631
7252.97063,0.21272
7254.89910,0.04781
7256.82756,-0.06122
7258.75603,-0.11695
7260.68450,-0.04718
7262.61297,0.15614
7264.54144,0.30435
7266.46991,0.25668
7268.39838,0.06755
7270.32685,-0.06848
7272.25531,-0.00622
7274.18378,0.09228
7276.11225,0.10524
7278.04072,0.07414
7279.96919,-0.00277
7281.89766,-0.07293
7283.82613,-0.11155
7285.75459,-0.13353
7287.68306,-0.14216
7289.61153,-0.16886
7291.54000,-0.12500
7293.46847,0.04601
7295.39694,0.16476
7297.32541,0.15502
7299.25387,0.09209
7301.18234,0.03954
7303.11081,0.00236
7305.03928,-0.02079
7306.96775,0.00602
7308.89622,0.06587
7310.82469,0.12796
7312.75316,0.14605
7314.68162,0.06935
7316.61009,-0.05332
7318.53856,-0.08741
7320.46703,-0.07723
7322.39550,-0.05295
7324.32397,0.04601
7326.25244,0.13828
7328.18090,0.15267
7330.10937,0.09393
7332.03784,0.03992
7333.96631,0.03961
7335.89478,0.04129
7337.82325,-0.02541
7339.75172,-0.14202
7341.68019,-0.09419
7343.60865,0.03888
7345.53712,0.08381
7347.46559,0.03629
7349.39406,-0.01092
7351.32253,0.00899
7353.25100,0.08496
7355.17947,0.13223
7357.10793,0.12508
7359.03640,0.18518
7360.96487,0.25292
7362.89334,0.23807
7364.82181,0.27418
7366.75028,0.31405
7368.67875,0.24372
7370.60722,0.09953
7372.53568,-0.05182
7374.46415,-0.14421
7376.39262,-0.08472
7378.32109,0.03618
7380.24956,0.12118
7382.17803,0.11984
7384.10650,0.12617
7386.03496,0.23921
7387.96343,0.31476
7389.89190,0.21797
7391.82037,0.08625
7393.74884,0.09681
7395.67731,0.21529
7397.60578,0.27925
7399.53425,0.24117
7401.46271,0.19959
7403.39118,0.19052
7405.31965,0.20102
7407.24812,0.27186
7409.17659,0.30563
7411.10506,0.20894
7413.03353,0.10206
7414.96199,0.10777
7416.89046,0.15786
7418.81893,0.11766
7420.74740,0.03985
7422.67587,0.01613
7424.60434,0.01304
7426.53281,0.01410
7428.46128,0.00557
7430.38974,-0.07529
7432.31821,-0.14155
7434.24668,-0.07731
7436.17515,0.04642
7438.10362,0.15500
7440.03209,0.16456
7441.96056,0.06921
7443.88902,0.07751
7445.81749,0.25861
7447.74596,0.37734
7449.67443,0.27952
7451.60290,0.10390
7453.53137,0.03794
7455.45984,0.05907
7457.38831,0.05559
7459.31677,-0.00733
7461.24524,-0.00411
7463.17371,0.03015
7465.10218,-0.03310
7467.03065,-0.04992
7468.95912,0.06042
7470.88759,0.19489
7472.81605,0.24913
7474.74452,0.20896
7476.67299,0.17143
7478.60146,0.18537
7480.52993,0.20185
7482.45840,0.20816
7484.38687,0.19604
7486.31533,0.14853
7488.24380,0.15427
7490.17227,0.26490
7492.10074,0.31522
7494.02921,0.28027
7495.95768,0.22350
7497.88615,0.08142
