399.19301,0.06591
401.12148,0.18356
403.04995,0.22627
404.97842,0.18548
406.90689,0.12044
408.83536,0.01961
410.76382,-0.05744
412.69229,-0.03727
414.62076,-0.00545
416.54923,-0.01785
418.47770,-0.07344
420.40617,-0.11240
422.33464,-0.08292
424.26311,-0.00024
426.19157,0.11040
428.12004,0.17780
430.04851,0.15412
431.97698,0.07197
433.90545,0.03708
435.83392,0.03717
437.76239,0.02349
439.69085,-0.01722
441.61932,-0.02086
443.54779,0.06478
445.47626,0.10392
447.40473,0.06185
449.33320,-0.00545
451.26167,-0.08871
453.19013,-0.11720
455.11860,-0.03611
457.04707,0.11499
458.97554,0.21129
460.90401,0.17888
462.83248,0.09774
464.76095,0.05818
466.68942,0.05546
468.61788,0.04089
470.54635,0.04200
472.47482,0.10247
474.40329,0.16398
476.33176,0.16344
478.26023,0.13078
480.18870,0.06507
482.11716,0.00942
484.04563,0.00944
485.97410,0.03589
487.90257,0.05030
489.83104,0.05708
491.75951,0.07453
493.68798,0.11483
495.61645,0.15874
497.54491,0.15305
499.47338,0.11044
501.40185,0.08932
503.33032,0.10080
505.25879,0.11640
507.18726,0.13082
509.11573,0.14771
511.04419,0.14620
512.97266,0.12214
514.90113,0.09766
516.82960,0.08899
518.75807,0.08801
520.68654,0.07890
522.61501,0.07716
524.54348,0.11505
526.47194,0.17219
528.40041,0.17795
530.32888,0.11764
532.25735,0.04304
534.18582,0.00769
536.11429,0.02382
538.04276,0.07139
539.97122,0.10608
541.89969,0.09511
543.82816,0.05315
545.75663,0.03711
547.68510,0.06045
549.61357,0.04187
551.54204,-0.08941
553.47051,-0.21995
555.39897,-0.17123
557.32744,-0.01326
559.25591,0.06154
561.18438,0.06107
563.11285,0.06936
565.04132,0.09569
566.96979,0.11505
568.89825,0.11696
570.82672,0.11832
572.75519,0.11907
574.68366,0.09659
576.61213,0.07490
578.54060,0.09464
580.46907,0.11302
582.39754,0.08500
584.32600,0.05207
586.25447,0.04732
588.18294,0.04886
590.11141,0.05466
592.03988,0.07591
593.96835,0.08992
595.89682,0.08719
597.82528,0.07812
599.75375,0.06934
601.68222,0.07012
603.61069,0.08292
605.53916,0.08867
607.46763,0.07996
609.39610,0.07448
611.32456,0.08077
613.25303,0.09912
615.18150,0.11094
617.10997,0.09719
619.03844,0.07654
620.96691,0.06595
622.89538,0.06941
624.82385,0.08601
626.75231,0.10755
628.68078,0.13627
630.60925,0.16238
632.53772,0.15488
634.46619,0.11636
636.39466,0.09972
638.32313,0.12009
640.25159,0.12919
642.18006,0.10521
644.10853,0.08405
646.03700,0.09104
647.96547,0.11110
649.89394,0.11786
651.82241,0.11110
653.75088,0.10585
655.67934,0.11135
657.60781,0.12360
659.53628,0.12994
661.46475,0.12442
663.39322,0.11535
665.32169,0.11517
667.25016,0.12132
669.17862,0.12265
671.10709,0.12953
673.03556,0.13508
674.96403,0.12022
676.89250,0.10134
678.82097,0.10305
680.74944,0.11725
682.67791,0.13029
684.60637,0.12591
686.53484,0.10720
688.46331,0.10775
690.39178,0.12827
692.32025,0.13832
694.24872,0.13169
696.17719,0.12344
698.10565,0.11888
700.03412,0.11513
701.96259,0.11365
703.89106,0.11548
705.81953,0.11700
707.74800,0.11572
709.67647,0.11275
711.60494,0.11133
713.53340,0.11858
715.46187,0.13015
717.39034,0.13220
719.31881,0.12710
721.24728,0.12169
723.17575,0.11552
725.10422,0.11046
727.03268,0.10535
728.96115,0.10197
730.88962,0.10894
732.81809,0.11699
734.74656,0.11245
736.67503,0.10589
738.60350,0.10476
740.53197,0.10625
742.46043,0.10922
744.38890,0.11226
746.31737,0.11699
748.24584,0.12083
750.17431,0.12087
752.10278,0.11902
754.03125,0.12080
755.95971,0.12726
757.88818,0.12418
759.81665,0.11423
761.74512,0.11851
763.67359,0.13045
765.60206,0.12853
767.53053,0.11936
769.45900,0.11925
771.38746,0.12276
773.31593,0.11990
775.24440,0.11554
777.17287,0.11839
779.10134,0.12437
781.02981,0.12297
782.95828,0.11978
784.88674,0.12557
786.81521,0.12836
788.74368,0.12117
790.67215,0.12016
792.60062,0.12363
794.52909,0.11961
796.45756,0.11713
798.38602,0.12207
800.31449,0.12268
802.24296,0.11817
804.17143,0.12211
806.09990,0.12996
808.02837,0.12745
809.95684,0.11966
811.88531,0.12018
813.81377,0.13174
815.74224,0.14524
817.67071,0.14860
819.59918,0.13711
821.52765,0.12151
823.45612,0.11651
825.38459,0.12038
827.31305,0.12821
829.24152,0.13978
831.16999,0.14512
833.09846,0.14435
835.02693,0.14790
836.95540,0.14842
838.88387,0.14130
840.81234,0.13549
842.74080,0.13525
844.66927,0.13648
846.59774,0.13131
848.52621,0.12280
850.45468,0.12085
852.38315,0.12518
854.31162,0.12907
856.24008,0.13253
858.16855,0.13360
860.09702,0.12898
862.02549,0.12856
863.95396,0.13402
865.88243,0.13834
867.81090,0.14303
869.73937,0.14594
871.66783,0.14168
873.59630,0.13270
875.52477,0.12870
877.45324,0.13378
879.38171,0.13911
881.31018,0.13694
883.23865,0.13333
885.16711,0.13686
887.09558,0.14166
889.02405,0.13882
890.95252,0.13147
892.88099,0.12406
894.80946,0.11807
896.73793,0.11691
898.66640,0.11985
900.59486,0.12377
902.52333,0.12696
904.45180,0.13039
906.38027,0.13447
908.30874,0.13460
910.23721,0.13454
912.16568,0.13838
914.09414,0.14105
916.02261,0.14473
917.95108,0.15106
919.87955,0.15329
921.80802,0.14919
923.73649,0.14258
925.66496,0.13736
927.59343,0.13943
929.52189,0.14796
931.45036,0.14881
933.37883,0.14019
935.30730,0.13448
937.23577,0.13301
939.16424,0.13160
941.09271,0.13140
943.02117,0.13285
944.94964,0.13509
946.87811,0.13842
948.80658,0.13892
950.73505,0.13741
952.66352,0.14131
954.59199,0.14589
956.52045,0.14503
958.44892,0.14115
960.37739,0.13332
962.30586,0.12408
964.23433,0.12203
966.16280,0.12750
968.09127,0.13396
970.01974,0.14064
971.94820,0.14444
973.87667,0.13805
975.80514,0.12597
977.73361,0.12231
979.66208,0.13061
981.59055,0.13983
983.51902,0.14314
985.44748,0.14190
987.37595,0.13870
989.30442,0.13653
991.23289,0.13766
993.16136,0.14298
995.08983,0.14860
997.01830,0.14979
998.94677,0.14761
1000.87523,0.14627
1002.80370,0.14620
1004.73217,0.14515
1006.66064,0.14318
1008.58911,0.13935
1010.51758,0.13458
1012.44605,0.13532
1014.37451,0.14446
1016.30298,0.15489
1018.23145,0.15891
1020.15992,0.15926
1022.08839,0.15874
1024.01686,0.15580
1025.94533,0.15284
1027.87380,0.14905
1029.80226,0.14350
1031.73073,0.14197
1033.65920,0.14536
1035.58767,0.14850
1037.51614,0.14660
1039.44461,0.14117
1041.37308,0.13945
1043.30154,0.14208
1045.23001,0.14299
1047.15848,0.14005
1049.08695,0.14047
1051.01542,0.14606
1052.94389,0.14746
1054.87236,0.15034
1056.80083,0.15827
1058.72929,0.15621
1060.65776,0.14867
1062.58623,0.15030
1064.51470,0.15723
1066.44317,0.16028
1068.37164,0.15866
1070.30011,0.15751
1072.22857,0.15751
1074.15704,0.15514
1076.08551,0.14813
1078.01398,0.14323
1079.94245,0.14771
1081.87092,0.15348
1083.79939,0.15959
1085.72786,0.17005
1087.65632,0.17584
1089.58479,0.17225
1091.51326,0.16498
1093.44173,0.16261
1095.37020,0.16515
1097.29867,0.16705
1099.22714,0.16536
1101.15560,0.15674
1103.08407,0.14724
1105.01254,0.14387
1106.94101,0.14511
1108.86948,0.15096
1110.79795,0.15868
1112.72642,0.16193
1114.65489,0.15752
1116.58335,0.14915
1118.51182,0.14416
1120.44029,0.14518
1122.36876,0.15005
1124.29723,0.15549
1126.22570,0.15974
1128.15417,0.15924
1130.08263,0.15241
1132.01110,0.14818
1133.93957,0.15076
1135.86804,0.15226
1137.79651,0.15163
1139.72498,0.15501
1141.65345,0.16065
1143.58191,0.16284
1145.51038,0.16186
1147.43885,0.16045
1149.36732,0.15848
1151.29579,0.15713
1153.22426,0.15733
1155.15273,0.15622
1157.08120,0.15626
1159.00966,0.16220
1160.93813,0.16630
1162.86660,0.16097
1164.79507,0.15458
1166.72354,0.15481
1168.65201,0.15765
1170.58048,0.15941
1172.50894,0.16074
1174.43741,0.16180
1176.36588,0.16276
1178.29435,0.16371
1180.22282,0.16287
1182.15129,0.15970
1184.07976,0.15733
1186.00823,0.15602
1187.93669,0.15392
1189.86516,0.15484
1191.79363,0.15977
1193.72210,0.16324
1195.65057,0.16324
1197.57904,0.16222
1199.50751,0.16293
1201.43597,0.16459
1203.36444,0.16495
1205.29291,0.16334
1207.22138,0.16024
1209.14985,0.15986
1211.07832,0.16338
1213.00679,0.16594
1214.93526,0.16693
1216.86372,0.16832
1218.79219,0.16898
1220.72066,0.16841
1222.64913,0.16881
1224.57760,0.17050
1226.50607,0.17037
1228.43454,0.16844
1230.36300,0.16702
1232.29147,0.16615
1234.21994,0.16483
1236.14841,0.16382
1238.07688,0.16580
1240.00535,0.16939
1241.93382,0.16861
1243.86229,0.16444
1245.79075,0.16243
1247.71922,0.16143
1249.64769,0.16000
1251.57616,0.15866
1253.50463,0.15628
1255.43310,0.15543
1257.36157,0.15920
1259.29003,0.16387
1261.21850,0.16667
1263.14697,0.17240
1265.07544,0.17910
1267.00391,0.17778
1268.93238,0.17154
1270.86085,0.16989
1272.78932,0.17300
1274.71778,0.17604
1276.64625,0.17698
1278.57472,0.17554
1280.50319,0.17324
1282.43166,0.17182
1284.36013,0.17077
1286.28860,0.16989
1288.21706,0.16953
1290.14553,0.16944
1292.07400,0.17031
1294.00247,0.17191
1295.93094,0.17284
1297.85941,0.17545
1299.78788,0.17990
1301.71634,0.18068
1303.64481,0.17631
1305.57328,0.17097
1307.50175,0.16838
1309.43022,0.16855
1311.35869,0.17044
1313.28716,0.17244
1315.21563,0.17177
1317.14409,0.17053
1319.07256,0.17137
1321.00103,0.17172
1322.92950,0.17010
1324.85797,0.16763
1326.78644,0.16631
1328.71491,0.16814
1330.64337,0.17192
1332.57184,0.17380
1334.50031,0.17162
1336.42878,0.16924
1338.35725,0.17167
1340.28572,0.17506
1342.21419,0.17512
1344.14266,0.17484
1346.07112,0.17485
1347.99959,0.17461
1349.92806,0.17555
1351.85653,0.17647
1353.78500,0.17404
1355.71347,0.17142
1357.64194,0.17451
1359.57040,0.17988
1361.49887,0.18064
1363.42734,0.17693
1365.35581,0.17472
1367.28428,0.17344
1369.21275,0.17057
1371.14122,0.17203
1373.06969,0.18209
1374.99815,0.19107
1376.92662,0.18876
1378.85509,0.18135
1380.78356,0.17636
1382.71203,0.17632
1384.64050,0.18119
1386.56897,0.18560
1388.49743,0.18275
1390.42590,0.17866
1392.35437,0.17917
1394.28284,0.18212
1396.21131,0.18634
1398.13978,0.19060
1400.06825,0.19119
1401.99672,0.18722
1403.92518,0.18034
1405.85365,0.17534
1407.78212,0.17637
1409.71059,0.17830
1411.63906,0.17590
1413.56753,0.17433
1415.49600,0.18009
1417.42446,0.18935
1419.35293,0.19337
1421.28140,0.19183
1423.20987,0.18954
1425.13834,0.18594
1427.06681,0.18253
1428.99528,0.18088
1430.92375,0.17965
1432.85221,0.18104
1434.78068,0.18571
1436.70915,0.18767
1438.63762,0.18496
1440.56609,0.18270
1442.49456,0.18190
1444.42303,0.18382
1446.35149,0.18763
1448.27996,0.18754
1450.20843,0.18320
1452.13690,0.18341
1454.06537,0.19261
1455.99384,0.20678
1457.92231,0.20627
1459.85077,0.19377
1461.77924,0.19133
1463.70771,0.19542
1465.63618,0.19589
1467.56465,0.19311
1469.49312,0.19459
1471.42159,0.20125
1473.35006,0.20705
1475.27852,0.20199
1477.20699,0.19299
1479.13546,0.19002
1481.06393,0.19134
1482.99240,0.19000
1484.92087,0.18690
1486.84934,0.18744
1488.77780,0.19464
1490.70627,0.20177
1492.63474,0.20233
1494.56321,0.20324
1496.49168,0.20391
1498.42015,0.19838
1500.34862,0.19455
1502.27709,0.19572
1504.20555,0.20056
1506.13402,0.21035
1508.06249,0.20820
1509.99096,0.19503
1511.91943,0.18973
1513.84790,0.19300
1515.77637,0.20025
1517.70483,0.20772
1519.63330,0.21442
1521.56177,0.21360
1523.49024,0.20393
1525.41871,0.19893
1527.34718,0.19683
1529.27565,0.19235
1531.20412,0.19084
1533.13258,0.19728
1535.06105,0.20287
1536.98952,0.20565
1538.91799,0.21358
1540.84646,0.21610
1542.77493,0.20964
1544.70340,0.20514
1546.63186,0.20083
1548.56033,0.20170
1550.48880,0.20500
1552.41727,0.20351
1554.34574,0.20181
1556.27421,0.20798
1558.20268,0.21974
1560.13115,0.21258
1562.05961,0.20016
1563.98808,0.19534
1565.91655,0.19598
1567.84502,0.20067
1569.77349,0.20150
1571.70196,0.19411
1573.63043,0.18903
1575.55889,0.19191
1577.48736,0.19707
1579.41583,0.19547
1581.34430,0.19258
1583.27277,0.19222
1585.20124,0.19204
1587.12971,0.19082
1589.05818,0.19097
1590.98664,0.19223
1592.91511,0.19281
1594.84358,0.19214
1596.77205,0.18957
1598.70052,0.18769
1600.62899,0.18930
1602.55746,0.19246
1604.48592,0.19264
1606.41439,0.18928
1608.34286,0.18753
1610.27133,0.19024
1612.19980,0.19437
1614.12827,0.19983
1616.05674,0.20805
1617.98521,0.20822
1619.91367,0.20222
1621.84214,0.20225
1623.77061,0.20555
1625.69908,0.20570
1627.62755,0.20343
1629.55602,0.20159
1631.48449,0.20425
1633.41295,0.21058
1635.34142,0.21270
1637.26989,0.20518
1639.19836,0.20200
1641.12683,0.20290
1643.05530,0.20503
1644.98377,0.21219
1646.91223,0.22053
1648.84070,0.21799
1650.76917,0.21627
1652.69764,0.22118
1654.62611,0.21523
1656.55458,0.20337
1658.48305,0.19598
1660.41152,0.19181
1662.33998,0.19081
1664.26845,0.19402
1666.19692,0.20061
1668.12539,0.20822
1670.05386,0.21056
1671.98233,0.20848
1673.91080,0.20871
1675.83926,0.20782
1677.76773,0.20652
1679.69620,0.21022
1681.62467,0.21926
1683.55314,0.22732
1685.48161,0.21822
1687.41008,0.20568
1689.33855,0.20162
1691.26701,0.20194
1693.19548,0.20473
1695.12395,0.21198
1697.05242,0.21868
1698.98089,0.21543
1700.90936,0.20487
1702.83783,0.20109
1704.76629,0.20284
1706.69476,0.19984
1708.62323,0.19290
1710.55170,0.19123
1712.48017,0.19714
1714.40864,0.20589
1716.33711,0.20913
1718.26558,0.20201
1720.19404,0.19582
1722.12251,0.19427
1724.05098,0.19320
1725.97945,0.19121
1727.90792,0.19139
1729.83639,0.19609
1731.76486,0.20242
1733.69332,0.20476
1735.62179,0.20277
1737.55026,0.20355
1739.47873,0.20560
1741.40720,0.20293
1743.33567,0.19781
1745.26414,0.19741
1747.19261,0.20130
1749.12107,0.20242
1751.04954,0.19686
1752.97801,0.19082
1754.90648,0.18949
1756.83495,0.19156
1758.76342,0.19444
1760.69189,0.19783
1762.62035,0.19876
1764.54882,0.19690
1766.47729,0.19687
1768.40576,0.19937
1770.33423,0.20500
1772.26270,0.20953
1774.19117,0.20344
1776.11964,0.19520
1778.04810,0.19312
1779.97657,0.19582
1781.90504,0.19770
1783.83351,0.19569
1785.76198,0.19181
1787.69045,0.19017
1789.61892,0.19353
1791.54738,0.19995
1793.47585,0.20145
1795.40432,0.19814
1797.33279,0.19500
1799.26126,0.19248
1801.18973,0.19051
1803.11820,0.18957
1805.04666,0.19117
1806.97513,0.19482
1808.90360,0.19720
1810.83207,0.19557
1812.76054,0.19162
1814.68901,0.19113
1816.61748,0.19545
1818.54595,0.19940
1820.47441,0.20001
1822.40288,0.19997
1824.33135,0.19999
1826.25982,0.19917
1828.18829,0.19966
1830.11676,0.20008
1832.04523,0.19640
1833.97369,0.19178
1835.90216,0.18949
1837.83063,0.18930
1839.75910,0.19183
1841.68757,0.19702
1843.61604,0.20067
1845.54451,0.19861
1847.47298,0.19411
1849.40144,0.19048
1851.32991,0.18860
1853.25838,0.18967
1855.18685,0.19257
1857.11532,0.19462
1859.04379,0.19582
1860.97226,0.19679
1862.90072,0.19695
1864.82919,0.19708
1866.75766,0.19838
1868.68613,0.19816
1870.61460,0.19434
1872.54307,0.19189
1874.47154,0.19216
1876.40001,0.19293
1878.32847,0.19297
1880.25694,0.19214
1882.18541,0.19246
1884.11388,0.19382
1886.04235,0.19433
1887.97082,0.19561
1889.89929,0.19561
1891.82775,0.19282
1893.75622,0.19254
1895.68469,0.19377
1897.61316,0.19201
1899.54163,0.18972
1901.47010,0.19061
1903.39857,0.19258
1905.32704,0.19318
1907.25550,0.19494
1909.18397,0.19800
1911.11244,0.19796
1913.04091,0.19512
1914.96938,0.19397
1916.89785,0.19445
1918.82632,0.19330
1920.75478,0.19258
1922.68325,0.19320
1924.61172,0.19218
1926.54019,0.19138
1928.46866,0.19225
1930.39713,0.19294
1932.32560,0.19352
1934.25407,0.19432
1936.18253,0.19494
1938.11100,0.19539
1940.03947,0.19603
1941.96794,0.19674
1943.89641,0.19720
1945.82488,0.19689
1947.75335,0.19458
1949.68181,0.19228
1951.61028,0.19185
1953.53875,0.19205
1955.46722,0.19258
1957.39569,0.19325
1959.32416,0.19372
1961.25263,0.19368
1963.18110,0.19408
1965.10956,0.19643
1967.03803,0.19832
1968.96650,0.19700
1970.89497,0.19373
1972.82344,0.19026
1974.75191,0.18826
1976.68038,0.18962
1978.60884,0.19196
1980.53731,0.19274
1982.46578,0.19344
1984.39425,0.19394
1986.32272,0.19396
1988.25119,0.19397
1990.17966,0.19307
1992.10812,0.19195
1994.03659,0.19276
1995.96506,0.19446
1997.89353,0.19474
1999.82200,0.19407
2001.75047,0.19332
2003.67894,0.19314
2005.60741,0.19457
2007.53587,0.19630
2009.46434,0.19613
2011.39281,0.19516
2013.32128,0.19579
2015.24975,0.19758
2017.17822,0.19715
2019.10669,0.19355
2021.03515,0.19151
2022.96362,0.19292
2024.89209,0.19402
2026.82056,0.19289
2028.74903,0.19167
2030.67750,0.19266
2032.60597,0.19523
2034.53444,0.19576
2036.46290,0.19341
2038.39137,0.19245
2040.31984,0.19474
2042.24831,0.19781
2044.17678,0.19945
2046.10525,0.19923
2048.03372,0.19802
2049.96218,0.19657
2051.89065,0.19464
2053.81912,0.19284
2055.74759,0.19324
2057.67606,0.19445
2059.60453,0.19384
2061.53300,0.19341
2063.46147,0.19439
2065.38993,0.19499
2067.31840,0.19504
2069.24687,0.19578
2071.17534,0.19718
2073.10381,0.19780
2075.03228,0.19591
2076.96075,0.19367
2078.88921,0.19447
2080.81768,0.19577
2082.74615,0.19531
2084.67462,0.19526
2086.60309,0.19557
2088.53156,0.19485
2090.46003,0.19466
2092.38850,0.19552
2094.31696,0.19512
2096.24543,0.19367
2098.17390,0.19395
2100.10237,0.19662
2102.03084,0.20002
2103.95931,0.20151
2105.88778,0.19996
2107.81624,0.19889
2109.74471,0.20046
2111.67318,0.20258
2113.60165,0.20395
2115.53012,0.20327
2117.45859,0.20003
2119.38706,0.19698
2121.31553,0.19664
2123.24399,0.19800
2125.17246,0.19904
2127.10093,0.19807
2129.02940,0.19458
2130.95787,0.19184
2132.88634,0.19269
2134.81481,0.19636
2136.74327,0.19919
2138.67174,0.19872
2140.60021,0.19728
2142.52868,0.19758
2144.45715,0.19865
2146.38562,0.19793
2148.31409,0.19620
2150.24255,0.19577
2152.17102,0.19701
2154.09949,0.19928
2156.02796,0.19909
2157.95643,0.19598
2159.88490,0.19535
2161.81337,0.19783
2163.74184,0.19918
2165.67030,0.19747
2167.59877,0.19445
2169.52724,0.19357
2171.45571,0.19459
2173.38418,0.19516
2175.31265,0.19551
2177.24112,0.19735
2179.16958,0.20045
2181.09805,0.20160
2183.02652,0.20025
2184.95499,0.19893
2186.88346,0.19832
2188.81193,0.19736
2190.74040,0.19631
2192.66887,0.19664
2194.59733,0.19719
2196.52580,0.19669
2198.45427,0.19617
2200.38274,0.19599
2202.31121,0.19611
2204.23968,0.19615
2206.16815,0.19624
2208.09661,0.19769
2210.02508,0.19863
2211.95355,0.19709
2213.88202,0.19495
2215.81049,0.19353
2217.73896,0.19418
2219.66743,0.19697
2221.59590,0.19848
2223.52436,0.19771
2225.45283,0.19695
2227.38130,0.19742
2229.30977,0.19844
2231.23824,0.19862
2233.16671,0.19811
2235.09518,0.19884
2237.02364,0.20051
2238.95211,0.20091
2240.88058,0.19932
2242.80905,0.19686
2244.73752,0.19578
2246.66599,0.19634
2248.59446,0.19683
2250.52293,0.19736
2252.45139,0.19803
2254.37986,0.19777
2256.30833,0.19804
2258.23680,0.19970
2260.16527,0.20037
2262.09374,0.19905
2264.02221,0.19706
2265.95067,0.19625
2267.87914,0.19632
2269.80761,0.19613
2271.73608,0.19645
2273.66455,0.19711
2275.59302,0.19674
2277.52149,0.19591
2279.44996,0.19656
2281.37842,0.19845
2283.30689,0.19914
2285.23536,0.19807
2287.16383,0.19734
2289.09230,0.19756
2291.02077,0.19741
2292.94924,0.19695
2294.87770,0.19647
2296.80617,0.19687
2298.73464,0.19885
2300.66311,0.19936
2302.59158,0.19790
2304.52005,0.19770
2306.44852,0.19717
2308.37699,0.19456
2310.30545,0.19374
2312.23392,0.19646
2314.16239,0.19944
2316.09086,0.20008
2318.01933,0.19922
2319.94780,0.19709
2321.87627,0.19095
2323.80473,0.18312
2325.73320,0.18341
2327.66167,0.19236
2329.59014,0.20054
2331.51861,0.20691
2333.44708,0.21284
2335.37555,0.21332
2337.30401,0.20745
2339.23248,0.19833
2341.16095,0.19032
2343.08942,0.18672
2345.01789,0.18849
2346.94636,0.19387
2348.87483,0.19645
2350.80330,0.19445
2352.73176,0.19142
2354.66023,0.19194
2356.58870,0.20092
2358.51717,0.21225
2360.44564,0.20959
2362.37411,0.20144
2364.30258,0.20363
2366.23104,0.21066
2368.15951,0.20891
2370.08798,0.20031
2372.01645,0.19765
2373.94492,0.19959
2375.87339,0.19991
2377.80186,0.20106
2379.73033,0.20237
2381.65879,0.20152
2383.58726,0.20046
2385.51573,0.20009
2387.44420,0.19924
2389.37267,0.19742
2391.30114,0.19679
2393.22961,0.19862
2395.15807,0.20051
2397.08654,0.20050
2399.01501,0.19920
2400.94348,0.19922
2402.87195,0.20104
2404.80042,0.20124
2406.72889,0.19904
2408.65736,0.19788
2410.58582,0.19904
2412.51429,0.20058
2414.44276,0.20050
2416.37123,0.19870
2418.29970,0.19669
2420.22817,0.19545
2422.15664,0.19591
2424.08510,0.19784
2426.01357,0.19941
2427.94204,0.20003
2429.87051,0.19950
2431.79898,0.19788
2433.72745,0.19552
2435.65592,0.19316
2437.58439,0.19356
2439.51285,0.19720
2441.44132,0.19952
2443.36979,0.19833
2445.29826,0.19703
2447.22673,0.19692
2449.15520,0.19640
2451.08367,0.19662
2453.01213,0.19793
2454.94060,0.19894
2456.86907,0.20044
2458.79754,0.20222
2460.72601,0.20222
2462.65448,0.20041
2464.58295,0.19841
2466.51142,0.19696
2468.43988,0.19617
2470.36835,0.19617
2472.29682,0.19680
2474.22529,0.19798
2476.15376,0.19861
2478.08223,0.19801
2480.01070,0.19820
2481.93916,0.19893
2483.86763,0.19785
2485.79610,0.19663
2487.72457,0.19771
2489.65304,0.19968
2491.58151,0.19998
2493.50998,0.19920
2495.43844,0.19958
2497.36691,0.20124
2499.29538,0.20250
2501.22385,0.20209
2503.15232,0.20136
2505.08079,0.20113
2507.00926,0.20028
2508.93773,0.19863
2510.86619,0.19651
2512.79466,0.19581
2514.72313,0.19726
2516.65160,0.19743
2518.58007,0.19664
2520.50854,0.19784
2522.43701,0.19785
2524.36547,0.19543
2526.29394,0.19528
2528.22241,0.19762
2530.15088,0.19977
2532.07935,0.20122
2534.00782,0.20197
2535.93629,0.20170
2537.86476,0.20073
2539.79322,0.20023
2541.72169,0.19969
2543.65016,0.20011
2545.57863,0.20299
2547.50710,0.20446
2549.43557,0.20338
2551.36404,0.20315
2553.29250,0.20342
2555.22097,0.20259
2557.14944,0.20231
2559.07791,0.20273
2561.00638,0.20149
2562.93485,0.19981
2564.86332,0.19971
2566.79179,0.20081
2568.72025,0.20211
2570.64872,0.20168
2572.57719,0.20131
2574.50566,0.20381
2576.43413,0.20556
2578.36260,0.20373
2580.29107,0.20130
2582.21953,0.20009
2584.14800,0.19893
2586.07647,0.19791
2588.00494,0.19867
2589.93341,0.20149
2591.86188,0.20399
2593.79035,0.20430
2595.71882,0.20411
2597.64728,0.20434
2599.57575,0.20375
2601.50422,0.20311
2603.43269,0.20349
2605.36116,0.20393
2607.28963,0.20374
2609.21810,0.20310
2611.14656,0.20264
2613.07503,0.20306
2615.00350,0.20327
2616.93197,0.20134
2618.86044,0.19889
2620.78891,0.19920
2622.71738,0.20160
2624.64585,0.20325
2626.57431,0.20272
2628.50278,0.20090
2630.43125,0.19978
2632.35972,0.20050
2634.28819,0.20384
2636.21666,0.20753
2638.14513,0.20738
2640.07359,0.20513
2642.00206,0.20543
2643.93053,0.20743
2645.85900,0.20754
2647.78747,0.20515
2649.71594,0.20348
2651.64441,0.20493
2653.57288,0.20672
2655.50134,0.20609
2657.42981,0.20330
2659.35828,0.20031
2661.28675,0.20046
2663.21522,0.20385
2665.14369,0.20658
2667.07216,0.20691
2669.00062,0.20699
2670.92909,0.20747
2672.85756,0.20686
2674.78603,0.20569
2676.71450,0.20499
2678.64297,0.20361
2680.57144,0.20271
2682.49990,0.20610
2684.42837,0.21101
2686.35684,0.21184
2688.28531,0.20981
2690.21378,0.20785
2692.14225,0.20643
2694.07072,0.20637
2695.99919,0.20718
2697.92765,0.20652
2699.85612,0.20502
2701.78459,0.20464
2703.71306,0.20533
2705.64153,0.20648
2707.57000,0.20771
2709.49847,0.20886
2711.42693,0.21003
2713.35540,0.20960
2715.28387,0.20600
2717.21234,0.20271
2719.14081,0.20291
2721.06928,0.20561
2722.99775,0.20992
2724.92622,0.21347
2726.85468,0.21355
2728.78315,0.21173
2730.71162,0.21059
2732.64009,0.20926
2734.56856,0.20718
2736.49703,0.20643
2738.42550,0.20823
2740.35396,0.21025
2742.28243,0.20984
2744.21090,0.20934
2746.13937,0.21289
2748.06784,0.21876
2749.99631,0.22047
2751.92478,0.21707
2753.85325,0.21407
2755.78171,0.21482
2757.71018,0.21790
2759.63865,0.21941
2761.56712,0.21789
2763.49559,0.21566
2765.42406,0.21506
2767.35253,0.21616
2769.28099,0.21642
2771.20946,0.21494
2773.13793,0.21418
2775.06640,0.21548
2776.99487,0.21630
2778.92334,0.21543
2780.85181,0.21688
2782.78028,0.21962
2784.70874,0.21827
2786.63721,0.21749
2788.56568,0.22096
2790.49415,0.22255
2792.42262,0.21964
2794.35109,0.21632
2796.27956,0.21579
2798.20802,0.21477
2800.13649,0.21095
2802.06496,0.20838
2803.99343,0.20851
2805.92190,0.21065
2807.85037,0.21535
2809.77884,0.22027
2811.70731,0.22293
2813.63577,0.22351
2815.56424,0.22195
2817.49271,0.22022
2819.42118,0.21959
2821.34965,0.21782
2823.27812,0.21657
2825.20659,0.21806
2827.13505,0.22013
2829.06352,0.22142
2830.99199,0.22165
2832.92046,0.22076
2834.84893,0.21965
2836.77740,0.21882
2838.70587,0.21839
2840.63433,0.21728
2842.56280,0.21579
2844.49127,0.21584
2846.41974,0.21641
2848.34821,0.21590
2850.27668,0.21452
2852.20515,0.21367
2854.13362,0.21442
2856.06208,0.21525
2857.99055,0.21491
2859.91902,0.21507
2861.84749,0.21830
2863.77596,0.22263
2865.70443,0.22359
2867.63290,0.22228
2869.56136,0.22094
2871.48983,0.21899
2873.41830,0.21710
2875.34677,0.21548
2877.27524,0.21501
2879.20371,0.21674
2881.13218,0.21778
2883.06065,0.21713
2884.98911,0.21691
2886.91758,0.21774
2888.84605,0.21857
2890.77452,0.21807
2892.70299,0.21732
2894.63146,0.21900
2896.55993,0.22128
2898.48839,0.21999
2900.41686,0.21820
2902.34533,0.21950
2904.27380,0.22010
2906.20227,0.21856
2908.13074,0.21777
2910.05921,0.21732
2911.98768,0.21583
2913.91614,0.21550
2915.84461,0.21655
2917.77308,0.21612
2919.70155,0.21591
2921.63002,0.21805
2923.55849,0.21697
2925.48696,0.21135
2927.41542,0.21070
2929.34389,0.21514
2931.27236,0.21656
2933.20083,0.21505
2935.12930,0.21276
2937.05777,0.21235
2938.98624,0.21671
2940.91471,0.21954
2942.84317,0.21529
2944.77164,0.21078
2946.70011,0.21282
2948.62858,0.21781
2950.55705,0.22100
2952.48552,0.22236
2954.41399,0.22100
2956.34245,0.21684
2958.27092,0.21463
2960.19939,0.21688
2962.12786,0.21886
2964.05633,0.21689
2965.98480,0.21587
2967.91327,0.21997
2969.84174,0.22553
2971.77020,0.22837
2973.69867,0.22842
2975.62714,0.22778
2977.55561,0.22630
2979.48408,0.22338
2981.41255,0.22232
2983.34102,0.22397
2985.26948,0.22486
2987.19795,0.22511
2989.12642,0.22750
2991.05489,0.23140
2992.98336,0.23300
2994.91183,0.23002
2996.84030,0.22577
2998.76877,0.22375
3000.69723,0.22332
3002.62570,0.22478
3004.55417,0.22649
3006.48264,0.22568
3008.41111,0.22418
3010.33958,0.22216
3012.26805,0.21933
3014.19651,0.22074
3016.12498,0.22662
3018.05345,0.22766
3019.98192,0.22208
3021.91039,0.21887
3023.83886,0.22090
3025.76733,0.22370
3027.69579,0.22349
3029.62426,0.22181
3031.55273,0.22281
3033.48120,0.22624
3035.40967,0.22823
3037.33814,0.22598
3039.26661,0.22205
3041.19508,0.22005
3043.12354,0.22022
3045.05201,0.22193
3046.98048,0.22301
3048.90895,0.22250
3050.83742,0.22306
3052.76589,0.22470
3054.69436,0.22402
3056.62282,0.22084
3058.55129,0.21873
3060.47976,0.21741
3062.40823,0.21533
3064.33670,0.21861
3066.26517,0.22727
3068.19364,0.22864
3070.12211,0.22207
3072.05057,0.21869
3073.97904,0.22066
3075.90751,0.22454
3077.83598,0.22852
3079.76445,0.22902
3081.69292,0.22672
3083.62139,0.22771
3085.54985,0.23042
3087.47832,0.22914
3089.40679,0.22516
3091.33526,0.22138
3093.26373,0.21862
3095.19220,0.22094
3097.12067,0.22883
3099.04914,0.23399
3100.97760,0.23290
3102.90607,0.22948
3104.83454,0.22605
3106.76301,0.22414
3108.69148,0.22436
3110.61995,0.22523
3112.54842,0.22716
3114.47688,0.22891
3116.40535,0.22670
3118.33382,0.22281
3120.26229,0.22193
3122.19076,0.22255
3124.11923,0.22240
3126.04770,0.22281
3127.97617,0.22448
3129.90463,0.22700
3131.83310,0.22916
3133.76157,0.23150
3135.69004,0.23341
3137.61851,0.23061
3139.54698,0.22704
3141.47545,0.22887
3143.40391,0.23132
3145.33238,0.23134
3147.26085,0.23263
3149.18932,0.23306
3151.11779,0.22941
3153.04626,0.22611
3154.97473,0.22593
3156.90320,0.22683
3158.83166,0.22764
3160.76013,0.22827
3162.68860,0.22919
3164.61707,0.23177
3166.54554,0.23356
3168.47401,0.23144
3170.40248,0.22855
3172.33094,0.22570
3174.25941,0.22390
3176.18788,0.22626
3178.11635,0.23008
3180.04482,0.23381
3181.97329,0.23776
3183.90176,0.23859
3185.83022,0.23319
3187.75869,0.22505
3189.68716,0.22147
3191.61563,0.22338
3193.54410,0.22769
3195.47257,0.23234
3197.40104,0.23333
3199.32951,0.22932
3201.25797,0.22480
3203.18644,0.22338
3205.11491,0.22547
3207.04338,0.22897
3208.97185,0.23025
3210.90032,0.22952
3212.82879,0.23086
3214.75725,0.23051
3216.68572,0.22366
3218.61419,0.21697
3220.54266,0.21552
3222.47113,0.21933
3224.39960,0.22559
3226.32807,0.22796
3228.25654,0.22597
3230.18500,0.22392
3232.11347,0.22307
3234.04194,0.22337
3235.97041,0.22428
3237.89888,0.22446
3239.82735,0.22543
3241.75582,0.22812
3243.68428,0.23135
3245.61275,0.23364
3247.54122,0.23071
3249.46969,0.22408
3251.39816,0.22118
3253.32663,0.22291
3255.25510,0.22502
3257.18357,0.22578
3259.11203,0.22638
3261.04050,0.22813
3262.96897,0.22866
3264.89744,0.22470
3266.82591,0.21891
3268.75438,0.21723
3270.68285,0.22248
3272.61131,0.22972
3274.53978,0.23247
3276.46825,0.23080
3278.39672,0.22661
3280.32519,0.22340
3282.25366,0.22330
3284.18213,0.22404
3286.11060,0.22502
3288.03906,0.22776
3289.96753,0.23125
3291.89600,0.23154
3293.82447,0.22955
3295.75294,0.22856
3297.68141,0.22698
3299.60988,0.22339
3301.53834,0.21963
3303.46681,0.21846
3305.39528,0.21858
3307.32375,0.21899
3309.25222,0.22157
3311.18069,0.22326
3313.10916,0.22356
3315.03763,0.22575
3316.96609,0.22905
3318.89456,0.23248
3320.82303,0.23324
3322.75150,0.22993
3324.67997,0.22652
3326.60844,0.22495
3328.53691,0.22651
3330.46537,0.23047
3332.39384,0.22992
3334.32231,0.22445
3336.25078,0.22120
3338.17925,0.22001
3340.10772,0.22056
3342.03619,0.22685
3343.96466,0.23432
3345.89312,0.23585
3347.82159,0.23225
3349.75006,0.22873
3351.67853,0.23080
3353.60700,0.23824
3355.53547,0.24065
3357.46394,0.23314
3359.39240,0.22698
3361.32087,0.22677
3363.24934,0.22499
3365.17781,0.22217
3367.10628,0.22365
3369.03475,0.22821
3370.96322,0.23165
3372.89168,0.23078
3374.82015,0.22717
3376.74862,0.22682
3378.67709,0.22944
3380.60556,0.22952
3382.53403,0.22654
3384.46250,0.22579
3386.39097,0.23030
3388.31943,0.23268
3390.24790,0.22926
3392.17637,0.22765
3394.10484,0.23023
3396.03331,0.23245
3397.96178,0.23131
3399.89025,0.22820
3401.81871,0.22556
3403.74718,0.22247
3405.67565,0.22104
3407.60412,0.22356
3409.53259,0.22706
3411.46106,0.22945
3413.38953,0.22920
3415.31800,0.22639
3417.24646,0.22410
3419.17493,0.22170
3421.10340,0.22016
3423.03187,0.22319
3424.96034,0.22580
3426.88881,0.22385
3428.81728,0.21897
3430.74574,0.21100
3432.67421,0.20536
3434.60268,0.20679
3436.53115,0.20968
3438.45962,0.21133
3440.38809,0.21362
3442.31656,0.21541
3444.24503,0.21653
3446.17349,0.21871
3448.10196,0.21904
3450.03043,0.21476
3451.95890,0.21068
3453.88737,0.21193
3455.81584,0.21543
3457.74431,0.21333
3459.67277,0.20832
3461.60124,0.20804
3463.52971,0.21035
3465.45818,0.21243
3467.38665,0.21202
3469.31512,0.20658
3471.24359,0.20202
3473.17206,0.20245
3475.10052,0.20528
3477.02899,0.20672
3478.95746,0.20334
3480.88593,0.19987
3482.81440,0.20266
3484.74287,0.20624
3486.67134,0.20434
3488.59980,0.20167
3490.52827,0.20442
3492.45674,0.20784
3494.38521,0.20569
3496.31368,0.20046
3498.24215,0.19806
3500.17062,0.19890
3502.09909,0.19867
3504.02755,0.19653
3505.95602,0.19330
3507.88449,0.18904
3509.81296,0.18822
3511.74143,0.19110
3513.66990,0.19202
3515.59837,0.19294
3517.52683,0.19655
3519.45530,0.19838
3521.38377,0.19532
3523.31224,0.19001
3525.24071,0.18818
3527.16918,0.19048
3529.09765,0.19078
3531.02611,0.18766
3532.95458,0.18429
3534.88305,0.18131
3536.81152,0.17884
3538.73999,0.17806
3540.66846,0.17971
3542.59693,0.18361
3544.52540,0.18957
3546.45386,0.19236
3548.38233,0.18764
3550.31080,0.18222
3552.23927,0.18020
3554.16774,0.18187
3556.09621,0.18510
3558.02468,0.18241
3559.95314,0.17416
3561.88161,0.17157
3563.81008,0.17752
3565.73855,0.18227
3567.66702,0.17886
3569.59549,0.17264
3571.52396,0.17006
3573.45243,0.17259
3575.38089,0.17588
3577.30936,0.17527
3579.23783,0.17247
3581.16630,0.16829
3583.09477,0.16514
3585.02324,0.17074
3586.95171,0.18015
3588.88017,0.17429
3590.80864,0.16394
3592.73711,0.16073
3594.66558,0.15731
3596.59405,0.15390
3598.52252,0.15644
3600.45099,0.15983
3602.37946,0.16089
3604.30792,0.16455
3606.23639,0.16997
3608.16486,0.16877
3610.09333,0.16081
3612.02180,0.15639
3613.95027,0.15614
3615.87874,0.15635
3617.80720,0.16036
3619.73567,0.16638
3621.66414,0.16446
3623.59261,0.15897
3625.52108,0.15696
3627.44955,0.15902
3629.37802,0.16103
3631.30649,0.15988
3633.23495,0.15863
3635.16342,0.15634
3637.09189,0.15241
3639.02036,0.15112
3640.94883,0.15494
3642.87730,0.15917
3644.80577,0.16137
3646.73423,0.16573
3648.66270,0.17070
3650.59117,0.16278
3652.51964,0.15217
3654.44811,0.14919
3656.37658,0.14982
3658.30505,0.14939
3660.23352,0.14817
3662.16198,0.14737
3664.09045,0.14718
3666.01892,0.14873
3667.94739,0.15300
3669.87586,0.15326
3671.80433,0.14781
3673.73280,0.14806
3675.66126,0.15112
3677.58973,0.14972
3679.51820,0.14863
3681.44667,0.14818
3683.37514,0.14576
3685.30361,0.14317
3687.23208,0.14322
3689.16055,0.14233
3691.08901,0.13600
3693.01748,0.13205
3694.94595,0.13386
3696.87442,0.13931
3698.80289,0.14551
3700.73136,0.14855
3702.65983,0.14614
3704.58829,0.14265
3706.51676,0.14183
3708.44523,0.14279
3710.37370,0.14536
3712.30217,0.14684
3714.23064,0.14152
3716.15911,0.13529
3718.08757,0.13486
3720.01604,0.13995
3721.94451,0.14554
3723.87298,0.14823
3725.80145,0.14578
3727.72992,0.13976
3729.65839,0.13673
3731.58686,0.13988
3733.51532,0.14700
3735.44379,0.15172
3737.37226,0.15191
3739.30073,0.15129
3741.22920,0.15061
3743.15767,0.15092
3745.08614,0.15656
3747.01460,0.16192
3748.94307,0.16150
3750.87154,0.15362
3752.80001,0.14005
3754.72848,0.13450
3756.65695,0.13853
3758.58542,0.14498
3760.51389,0.14610
3762.44235,0.14279
3764.37082,0.13901
3766.29929,0.13506
3768.22776,0.13310
3770.15623,0.13500
3772.08470,0.13508
3774.01317,0.13352
3775.94163,0.13533
3777.87010,0.13918
3779.79857,0.14229
3781.72704,0.14374
3783.65551,0.14326
3785.58398,0.14135
3787.51245,0.13881
3789.44092,0.13717
3791.36938,0.13583
3793.29785,0.13299
3795.22632,0.13294
3797.15479,0.13768
3799.08326,0.13861
3801.01173,0.13512
3802.94020,0.13317
3804.86866,0.13128
3806.79713,0.12972
3808.72560,0.13136
3810.65407,0.13264
3812.58254,0.13264
3814.51101,0.13542
3816.43948,0.13977
3818.36795,0.14078
3820.29641,0.13973
3822.22488,0.13602
3824.15335,0.13507
3826.08182,0.13753
3828.01029,0.13772
3829.93876,0.13531
3831.86723,0.13629
3833.79569,0.14506
3835.72416,0.15715
3837.65263,0.16136
3839.58110,0.15260
3841.50957,0.14386
3843.43804,0.14041
3845.36651,0.13774
3847.29498,0.13419
3849.22344,0.13286
3851.15191,0.13654
3853.08038,0.13646
3855.00885,0.12520
3856.93732,0.12297
3858.86579,0.12645
3860.79426,0.12992
3862.72272,0.13383
3864.65119,0.13515
3866.57966,0.13465
3868.50813,0.13565
3870.43660,0.13033
3872.36507,0.12386
3874.29354,0.12578
3876.22200,0.12862
3878.15047,0.13094
3880.07894,0.13449
3882.00741,0.13379
3883.93588,0.12671
3885.86435,0.11916
3887.79282,0.12092
3889.72129,0.12695
3891.64975,0.12648
3893.57822,0.12261
3895.50669,0.12648
3897.43516,0.13676
3899.36363,0.14367
3901.29210,0.13810
3903.22057,0.12543
3905.14903,0.11947
3907.07750,0.12199
3909.00597,0.12274
3910.93444,0.11802
3912.86291,0.11444
3914.79138,0.11782
3916.71985,0.12555
3918.64832,0.13212
3920.57678,0.13284
3922.50525,0.12925
3924.43372,0.12750
3926.36219,0.12730
3928.29066,0.12495
3930.21913,0.12301
3932.14760,0.12777
3934.07606,0.13381
3936.00453,0.12993
3937.93300,0.12224
3939.86147,0.12156
3941.78994,0.12511
3943.71841,0.12496
3945.64688,0.12217
3947.57535,0.12232
3949.50381,0.12463
3951.43228,0.12242
3953.36075,0.11670
3955.28922,0.11520
3957.21769,0.12007
3959.14616,0.12656
3961.07463,0.12951
3963.00309,0.12595
3964.93156,0.11602
3966.86003,0.10565
3968.78850,0.10189
3970.71697,0.10631
3972.64544,0.11399
3974.57391,0.11772
3976.50238,0.11575
3978.43084,0.11232
3980.35931,0.11018
3982.28778,0.10856
3984.21625,0.10896
3986.14472,0.11356
3988.07319,0.11716
3990.00166,0.11388
3991.93012,0.10910
3993.85859,0.11065
3995.78706,0.11406
3997.71553,0.11376
3999.64400,0.11301
4001.57247,0.11242
4003.50094,0.10793
4005.42941,0.10103
4007.35787,0.09744
4009.28634,0.09712
4011.21481,0.09719
4013.14328,0.09862
4015.07175,0.10311
4017.00022,0.10890
4018.92869,0.11181
4020.85715,0.10898
4022.78562,0.10269
4024.71409,0.10016
4026.64256,0.10385
4028.57103,0.10698
4030.49950,0.10491
4032.42797,0.10235
4034.35644,0.10397
4036.28490,0.10564
4038.21337,0.10534
4040.14184,0.10733
4042.07031,0.10951
4043.99878,0.10700
4045.92725,0.10239
4047.85572,0.10240
4049.78418,0.10783
4051.71265,0.11109
4053.64112,0.10945
4055.56959,0.10671
4057.49806,0.10526
4059.42653,0.10548
4061.35500,0.10336
4063.28346,0.09787
4065.21193,0.09159
4067.14040,0.08707
4069.06887,0.08920
4070.99734,0.09373
4072.92581,0.09376
4074.85428,0.09192
4076.78275,0.09029
4078.71121,0.08849
4080.63968,0.09046
4082.56815,0.09727
4084.49662,0.10228
4086.42509,0.10181
4088.35356,0.09905
4090.28203,0.09809
4092.21049,0.09942
4094.13896,0.10153
4096.06743,0.10259
4097.99590,0.09924
4099.92437,0.09499
4101.85284,0.09546
4103.78131,0.09717
4105.70978,0.09882
4107.63824,0.09925
4109.56671,0.09478
4111.49518,0.09127
4113.42365,0.09344
4115.35212,0.09756
4117.28059,0.09975
4119.20906,0.10001
4121.13752,0.10015
4123.06599,0.09911
4124.99446,0.09716
4126.92293,0.09762
4128.85140,0.09921
4130.77987,0.09813
4132.70834,0.09518
4134.63681,0.09247
4136.56527,0.09237
4138.49374,0.09451
4140.42221,0.09339
4142.35068,0.08852
4144.27915,0.08463
4146.20762,0.08404
4148.13609,0.08398
4150.06455,0.08305
4151.99302,0.08366
4153.92149,0.08268
4155.84996,0.08022
4157.77843,0.08367
4159.70690,0.08846
4161.63537,0.08699
4163.56384,0.08620
4165.49230,0.08648
4167.42077,0.08209
4169.34924,0.08040
4171.27771,0.08364
4173.20618,0.08257
4175.13465,0.07943
4177.06312,0.08282
4178.99158,0.08822
4180.92005,0.08874
4182.84852,0.08729
4184.77699,0.08728
4186.70546,0.08727
4188.63393,0.08588
4190.56240,0.08378
4192.49087,0.08041
4194.41933,0.07878
4196.34780,0.08093
4198.27627,0.08212
4200.20474,0.08071
4202.13321,0.07918
4204.06168,0.07872
4205.99015,0.07747
4207.91861,0.07614
4209.84708,0.07898
4211.77555,0.08207
4213.70402,0.08021
4215.63249,0.07615
4217.56096,0.07199
4219.48943,0.06953
4221.41789,0.07114
4223.34636,0.07411
4225.27483,0.07611
4227.20330,0.07593
4229.13177,0.07054
4231.06024,0.06404
4232.98871,0.06176
4234.91718,0.06206
4236.84564,0.06440
4238.77411,0.06709
4240.70258,0.06717
4242.63105,0.06530
4244.55952,0.06608
4246.48799,0.07333
4248.41646,0.08027
4250.34492,0.07937
4252.27339,0.07405
4254.20186,0.07166
4256.13033,0.07242
4258.05880,0.07090
4259.98727,0.06890
4261.91574,0.06957
4263.84421,0.07023
4265.77267,0.06926
4267.70114,0.06562
4269.62961,0.05945
4271.55808,0.05695
4273.48655,0.06293
4275.41502,0.07089
4277.34349,0.07401
4279.27195,0.07525
4281.20042,0.07506
4283.12889,0.07170
4285.05736,0.06775
4286.98583,0.06250
4288.91430,0.05747
4290.84277,0.05504
4292.77124,0.05264
4294.69970,0.05065
4296.62817,0.04846
4298.55664,0.04577
4300.48511,0.04448
4302.41358,0.04438
4304.34205,0.04703
4306.27052,0.05285
4308.19898,0.05755
4310.12745,0.05491
4312.05592,0.04531
4313.98439,0.03930
4315.91286,0.04343
4317.84133,0.05270
4319.76980,0.06015
4321.69827,0.06056
4323.62673,0.05357
4325.55520,0.04836
4327.48367,0.05006
4329.41214,0.05514
4331.34061,0.06211
4333.26908,0.06791
4335.19755,0.06951
4337.12601,0.06823
4339.05448,0.06467
4340.98295,0.06242
4342.91142,0.06211
4344.83989,0.05524
4346.76836,0.04298
4348.69683,0.03555
4350.62530,0.03650
4352.55376,0.04255
4354.48223,0.04666
4356.41070,0.04568
4358.33917,0.04109
4360.26764,0.03828
4362.19611,0.04354
4364.12458,0.04897
4366.05304,0.04596
4367.98151,0.04286
4369.90998,0.04218
4371.83845,0.03757
4373.76692,0.03350
4375.69539,0.03575
4377.62386,0.04028
4379.55232,0.04117
4381.48079,0.03896
4383.40926,0.03767
4385.33773,0.03674
4387.26620,0.03496
4389.19467,0.03431
4391.12314,0.03400
4393.05161,0.03091
4394.98007,0.02725
4396.90854,0.02823
4398.83701,0.03385
4400.76548,0.03928
4402.69395,0.03784
4404.62242,0.03004
4406.55089,0.02607
4408.47935,0.02879
4410.40782,0.03100
4412.33629,0.02859
4414.26476,0.02487
4416.19323,0.02755
4418.12170,0.03382
4420.05017,0.03034
4421.97864,0.01923
4423.90710,0.01428
4425.83557,0.01819
4427.76404,0.02401
4429.69251,0.02685
4431.62098,0.02748
4433.54945,0.02729
4435.47792,0.02463
4437.40638,0.01857
4439.33485,0.01534
4441.26332,0.01876
4443.19179,0.02232
4445.12026,0.02012
4447.04873,0.01487
4448.97720,0.01517
4450.90567,0.02119
4452.83413,0.02470
4454.76260,0.02405
4456.69107,0.02218
4458.61954,0.01774
4460.54801,0.01165
4462.47648,0.01066
4464.40495,0.01418
4466.33341,0.01836
4468.26188,0.02325
4470.19035,0.02387
4472.11882,0.01841
4474.04729,0.01296
4475.97576,0.00884
4477.90423,0.00751
4479.83270,0.01197
4481.76116,0.01947
4483.68963,0.02746
4485.61810,0.02844
4487.54657,0.01869
4489.47504,0.00962
4491.40351,0.00601
4493.33198,0.00512
4495.26044,0.00893
4497.18891,0.01596
4499.11738,0.02052
4501.04585,0.02340
4502.97432,0.02714
4504.90279,0.02764
4506.83126,0.02244
4508.75973,0.01447
4510.68819,0.00738
4512.61666,0.00651
4514.54513,0.01186
4516.47360,0.01664
4518.40207,0.02239
4520.33054,0.02736
4522.25901,0.02474
4524.18747,0.01826
4526.11594,0.00874
4528.04441,0.00035
4529.97288,0.00181
4531.90135,0.00395
4533.82982,0.00039
4535.75829,0.00287
4537.68676,0.01028
4539.61522,0.01080
4541.54369,0.00975
4543.47216,0.00907
4545.40063,0.00249
4547.32910,-0.00079
4549.25757,-0.00055
4551.18604,-0.00852
4553.11450,-0.01521
4555.04297,-0.00933
4556.97144,-0.00113
4558.89991,-0.00137
4560.82838,-0.00343
4562.75685,0.00163
4564.68532,0.00600
4566.61378,0.00288
4568.54225,-0.00070
4570.47072,0.00050
4572.39919,0.00078
4574.32766,0.00126
4576.25613,0.00236
4578.18460,0.00489
4580.11307,0.00910
4582.04153,0.00848
4583.97000,0.00423
4585.89847,-0.00058
4587.82694,-0.00140
4589.75541,0.00266
4591.68388,0.00044
4593.61235,-0.00346
4595.54081,0.00285
4597.46928,0.00692
4599.39775,-0.00153
4601.32622,-0.01005
4603.25469,-0.01089
4605.18316,-0.00881
4607.11163,-0.00161
4609.04010,0.00567
4610.96856,0.00432
4612.89703,0.00313
4614.82550,0.00686
4616.75397,0.00756
4618.68244,0.00782
4620.61091,0.00942
4622.53938,0.00396
4624.46784,-0.00502
4626.39631,-0.00535
4628.32478,0.00495
4630.25325,0.01627
4632.18172,0.01506
4634.11019,0.00572
4636.03866,0.00487
4637.96713,0.01016
4639.89559,0.01261
4641.82406,0.01195
4643.75253,0.01071
4645.68100,0.01249
4647.60947,0.01484
4649.53794,0.01186
4651.46641,0.00572
4653.39487,0.00304
4655.32334,0.00584
4657.25181,0.01205
4659.18028,0.01691
4661.10875,0.01541
4663.03722,0.00896
4664.96569,0.00428
4666.89416,0.00480
4668.82262,0.00723
4670.75109,0.00738
4672.67956,0.00456
4674.60803,0.00223
4676.53650,0.00350
4678.46497,0.00787
4680.39344,0.01099
4682.32190,0.00888
4684.25037,0.00727
4686.17884,0.00761
4688.10731,0.00484
4690.03578,0.00382
4691.96425,0.00804
4693.89272,0.01369
4695.82119,0.01658
4697.74965,0.01186
4699.67812,0.00273
4701.60659,-0.00011
4703.53506,0.00135
4705.46353,0.00143
4707.39200,0.00614
4709.32047,0.01189
4711.24893,0.00761
4713.17740,0.00060
4715.10587,0.00301
4717.03434,0.00959
4718.96281,0.01077
4720.89128,0.00620
4722.81975,0.00102
4724.74821,0.00222
4726.67668,0.00517
4728.60515,0.00043
4730.53362,-0.00762
4732.46209,-0.00768
4734.39056,0.00134
4736.31903,0.00643
4738.24750,0.00393
4740.17596,0.00305
4742.10443,0.00356
4744.03290,-0.00079
4745.96137,-0.00434
4747.88984,0.00064
4749.81831,0.00689
4751.74678,0.00503
4753.67524,-0.00080
4755.60371,-0.00335
4757.53218,-0.00326
4759.46065,-0.00178
4761.38912,-0.00143
4763.31759,-0.00312
4765.24606,-0.00330
4767.17453,-0.00033
4769.10299,0.00722
4771.03146,0.01641
4772.95993,0.01870
4774.88840,0.01384
4776.81687,0.01049
4778.74534,0.01387
4780.67381,0.01785
4782.60227,0.01391
4784.53074,0.00996
4786.45921,0.01319
4788.38768,0.01398
4790.31615,0.00855
4792.24462,0.00353
4794.17309,0.00424
4796.10156,0.00724
4798.03002,0.00248
4799.95849,-0.00663
4801.88696,-0.01007
4803.81543,-0.00436
4805.74390,0.00802
4807.67237,0.01641
4809.60084,0.01349
4811.52930,0.00776
4813.45777,0.00773
4815.38624,0.00482
4817.31471,-0.00605
4819.24318,-0.01517
4821.17165,-0.01819
4823.10012,-0.01850
4825.02859,-0.01417
4826.95705,0.00209
4828.88552,0.01927
4830.81399,0.01844
4832.74246,0.00720
4834.67093,0.00284
4836.59940,0.00329
4838.52787,0.00196
4840.45633,0.00433
4842.38480,0.01090
4844.31327,0.01321
4846.24174,0.00940
4848.17021,0.00042
4850.09868,-0.00612
4852.02715,-0.00523
4853.95562,-0.00375
4855.88408,-0.00293
4857.81255,0.00092
4859.74102,0.00360
4861.66949,-0.00045
4863.59796,-0.00840
4865.52643,-0.01342
4867.45490,-0.01485
4869.38336,-0.01259
4871.31183,-0.00296
4873.24030,0.01221
4875.16877,0.02066
4877.09724,0.01749
4879.02571,0.01314
4880.95418,0.00987
4882.88265,0.00790
4884.81111,0.01324
4886.73958,0.01673
4888.66805,0.01155
4890.59652,0.00895
4892.52499,0.01491
4894.45346,0.02109
4896.38193,0.01605
4898.31039,0.00295
4900.23886,-0.00227
4902.16733,-0.00026
4904.09580,0.00280
4906.02427,0.00737
4907.95274,0.00665
4909.88121,-0.00025
4911.80967,-0.00502
4913.73814,-0.00317
4915.66661,0.00054
4917.59508,-0.00159
4919.52355,-0.00228
4921.45202,0.01088
4923.38049,0.02501
4925.30896,0.02375
4927.23742,0.01495
4929.16589,0.00728
4931.09436,0.00166
4933.02283,-0.00136
4934.95130,-0.00059
4936.87977,0.00720
4938.80824,0.01676
4940.73670,0.01758
4942.66517,0.01167
4944.59364,0.01193
4946.52211,0.01929
4948.45058,0.02234
4950.37905,0.01721
4952.30752,0.00714
4954.23599,-0.00320
4956.16445,-0.01015
4958.09292,-0.01485
4960.02139,-0.01662
4961.94986,-0.00976
4963.87833,0.00160
4965.80680,0.00990
4967.73527,0.01438
4969.66373,0.01580
4971.59220,0.01895
4973.52067,0.02143
4975.44914,0.01845
4977.37761,0.01342
4979.30608,0.01211
4981.23455,0.01606
4983.16302,0.01597
4985.09148,0.00732
4987.01995,-0.00574
4988.94842,-0.01209
4990.87689,-0.00286
4992.80536,0.01238
4994.73383,0.01993
4996.66230,0.01144
4998.59076,0.00020
5000.51923,0.00168
5002.44770,0.00224
5004.37617,-0.00471
5006.30464,-0.00743
5008.23311,-0.00167
5010.16158,0.00677
5012.09005,0.01156
5014.01851,0.01357
5015.94698,0.01357
5017.87545,0.01396
5019.80392,0.01695
5021.73239,0.01492
5023.66086,0.00653
5025.58933,0.00776
5027.51779,0.02366
5029.44626,0.03202
5031.37473,0.02506
5033.30320,0.02140
5035.23167,0.02933
5037.16014,0.03728
5039.08861,0.03159
5041.01708,0.02061
5042.94554,0.02380
5044.87401,0.03497
5046.80248,0.03658
5048.73095,0.03243
5050.65942,0.03009
5052.58789,0.02292
5054.51636,0.01103
5056.44482,0.00256
5058.37329,0.00176
5060.30176,0.00641
5062.23023,0.00822
5064.15870,0.00666
5066.08717,0.00840
5068.01564,0.01134
5069.94410,0.01373
5071.87257,0.01833
5073.80104,0.02403
5075.72951,0.03626
5077.65798,0.04965
5079.58645,0.04413
5081.51492,0.02460
5083.44339,0.01251
5085.37185,0.01069
5087.30032,0.00563
5089.22879,-0.00367
5091.15726,-0.00516
5093.08573,-0.00236
5095.01420,-0.00083
5096.94267,0.01143
5098.87113,0.03393
5100.79960,0.03985
5102.72807,0.02236
5104.65654,0.00650
5106.58501,0.00818
5108.51348,0.02002
5110.44195,0.02646
5112.37042,0.02516
5114.29888,0.02695
5116.22735,0.03364
5118.15582,0.03822
5120.08429,0.03780
5122.01276,0.03521
5123.94123,0.03364
5125.86970,0.03026
5127.79816,0.02481
5129.72663,0.02769
5131.65510,0.03673
5133.58357,0.03472
5135.51204,0.02389
5137.44051,0.02053
5139.36898,0.02521
5141.29745,0.02866
5143.22591,0.03119
5145.15438,0.03421
5147.08285,0.03021
5149.01132,0.02204
5150.93979,0.01573
5152.86826,0.01271
5154.79673,0.01787
5156.72519,0.01986
5158.65366,0.00765
5160.58213,-0.00386
5162.51060,0.00062
5164.43907,0.01513
5166.36754,0.01532
5168.29601,0.00487
5170.22448,0.01190
5172.15294,0.02685
5174.08141,0.02421
5176.00988,0.01303
5177.93835,0.00831
5179.86682,0.00717
5181.79529,0.00928
5183.72376,0.01882
5185.65222,0.02394
5187.58069,0.02154
5189.50916,0.02938
5191.43763,0.03953
5193.36610,0.03811
5195.29457,0.03795
5197.22304,0.04111
5199.15151,0.03750
5201.07997,0.03093
5203.00844,0.02944
5204.93691,0.03435
5206.86538,0.03340
5208.79385,0.01623
5210.72232,0.00727
5212.65079,0.02747
5214.57925,0.05056
5216.50772,0.04793
5218.43619,0.03639
5220.36466,0.03400
5222.29313,0.03472
5224.22160,0.03911
5226.15007,0.04498
5228.07854,0.04033
5230.00700,0.03078
5231.93547,0.03302
5233.86394,0.04252
5235.79241,0.03953
5237.72088,0.03271
5239.64935,0.03940
5241.57782,0.04538
5243.50628,0.04085
5245.43475,0.04363
5247.36322,0.05294
5249.29169,0.04488
5251.22016,0.03237
5253.14863,0.04622
5255.07710,0.07337
5257.00556,0.08048
5258.93403,0.06924
5260.86250,0.05997
5262.79097,0.05613
5264.71944,0.04947
5266.64791,0.04264
5268.57638,0.04080
5270.50485,0.04190
5272.43331,0.03602
5274.36178,0.02253
5276.29025,0.02478
5278.21872,0.04666
5280.14719,0.06343
5282.07566,0.06980
5284.00413,0.07162
5285.93259,0.06703
5287.86106,0.06356
5289.78953,0.06288
5291.71800,0.05419
5293.64647,0.05038
5295.57494,0.05551
5297.50341,0.05215
5299.43188,0.04932
5301.36034,0.05436
5303.28881,0.05494
5305.21728,0.05218
5307.14575,0.04894
5309.07422,0.03946
5311.00269,0.02727
5312.93116,0.02425
5314.85962,0.02756
5316.78809,0.03074
5318.71656,0.03949
5320.64503,0.05319
5322.57350,0.06609
5324.50197,0.07022
5326.43044,0.05864
5328.35891,0.04103
5330.28737,0.03684
5332.21584,0.04789
5334.14431,0.05406
5336.07278,0.05202
5338.00125,0.05442
5339.92972,0.05349
5341.85819,0.05402
5343.78665,0.06458
5345.71512,0.06770
5347.64359,0.06438
5349.57206,0.06101
5351.50053,0.04503
5353.42900,0.02700
5355.35747,0.03179
5357.28594,0.04613
5359.21440,0.05559
5361.14287,0.06514
5363.07134,0.07235
5364.99981,0.07349
5366.92828,0.06742
5368.85675,0.05589
5370.78522,0.05015
5372.71368,0.05194
5374.64215,0.05590
5376.57062,0.05265
5378.49909,0.03576
5380.42756,0.03372
5382.35603,0.05678
5384.28450,0.06860
5386.21297,0.05438
5388.14143,0.04775
5390.06990,0.04963
5391.99837,0.04716
5393.92684,0.05761
5395.85531,0.07879
5397.78378,0.09054
5399.71225,0.09412
5401.64071,0.07547
5403.56918,0.04454
5405.49765,0.04237
5407.42612,0.06500
5409.35459,0.08716
5411.28306,0.09874
5413.21153,0.09300
5415.13999,0.07531
5417.06846,0.05903
5418.99693,0.04990
5420.92540,0.04779
5422.85387,0.04796
5424.78234,0.05399
5426.71081,0.06732
5428.63928,0.07177
5430.56774,0.07239
5432.49621,0.08527
5434.42468,0.09287
5436.35315,0.08584
5438.28162,0.07903
5440.21009,0.07071
5442.13856,0.06781
5444.06702,0.08848
5445.99549,0.10910
5447.92396,0.09289
5449.85243,0.05639
5451.78090,0.03871
5453.70937,0.04196
5455.63784,0.05059
5457.56631,0.05813
5459.49477,0.05938
5461.42324,0.05515
5463.35171,0.05993
5465.28018,0.07417
5467.20865,0.07988
5469.13712,0.07752
5471.06559,0.07285
5472.99405,0.05835
5474.92252,0.04479
5476.85099,0.05098
5478.77946,0.07224
5480.70793,0.09197
5482.63640,0.08680
5484.56487,0.05812
5486.49334,0.03842
5488.42180,0.03665
5490.35027,0.04414
5492.27874,0.06712
5494.20721,0.08756
5496.13568,0.07608
5498.06415,0.04292
5499.99262,0.01643
5501.92108,0.00875
5503.84955,0.01661
5505.77802,0.04109
5507.70649,0.06133
5509.63496,0.06034
5511.56343,0.06467
5513.49190,0.07604
5515.42037,0.06946
5517.34883,0.06250
5519.27730,0.07725
5521.20577,0.08748
5523.13424,0.06787
5525.06271,0.03795
5526.99118,0.03133
5528.91965,0.04535
5530.84811,0.05862
5532.77658,0.06959
5534.70505,0.07647
5536.63352,0.08070
5538.56199,0.08508
5540.49046,0.07133
5542.41893,0.05600
5544.34740,0.07992
5546.27586,0.11726
5548.20433,0.11734
5550.13280,0.09270
5552.06127,0.07807
5553.98974,0.07480
5555.91821,0.07973
5557.84668,0.10131
5559.77514,0.12284
5561.70361,0.12428
5563.63208,0.10911
5565.56055,0.07649
5567.48902,0.04855
5569.41749,0.06085
5571.34596,0.09092
5573.27443,0.10132
5575.20289,0.10118
5577.13136,0.10377
5579.05983,0.09538
5580.98830,0.07732
5582.91677,0.06658
5584.84524,0.06845
5586.77371,0.07841
5588.70217,0.08550
5590.63064,0.07863
5592.55911,0.06598
5594.48758,0.07111
5596.41605,0.08481
5598.34452,0.07845
5600.27299,0.06460
5602.20145,0.06353
5604.12992,0.06954
5606.05839,0.08617
5607.98686,0.11385
5609.91533,0.12912
5611.84380,0.11938
5613.77227,0.09529
5615.70074,0.06977
5617.62920,0.05150
5619.55767,0.04912
5621.48614,0.05375
5623.41461,0.05002
5625.34308,0.05259
5627.27155,0.08018
5629.20002,0.10875
5631.12848,0.10489
5633.05695,0.09068
5634.98542,0.09518
5636.91389,0.09938
5638.84236,0.09083
5640.77083,0.08478
5642.69930,0.08939
5644.62777,0.09254
5646.55623,0.08200
5648.48470,0.07606
5650.41317,0.09632
5652.34164,0.11718
5654.27011,0.10829
5656.19858,0.08670
5658.12705,0.07034
5660.05551,0.06358
5661.98398,0.06429
5663.91245,0.06688
5665.84092,0.07219
5667.76939,0.07067
5669.69786,0.06031
5671.62633,0.06234
5673.55480,0.08468
5675.48326,0.10015
5677.41173,0.09928
5679.34020,0.09274
5681.26867,0.07917
5683.19714,0.07623
5685.12561,0.08875
5687.05408,0.09962
5688.98254,0.10304
5690.91101,0.10429
5692.83948,0.10240
5694.76795,0.08595
5696.69642,0.06113
5698.62489,0.04181
5700.55336,0.04426
5702.48183,0.06911
5704.41029,0.07922
5706.33876,0.07404
5708.26723,0.08064
5710.19570,0.08763
5712.12417,0.09402
5714.05264,0.11249
5715.98111,0.12598
5717.90957,0.12545
5719.83804,0.10893
5721.76651,0.07623
5723.69498,0.05691
5725.62345,0.06500
5727.55192,0.07541
5729.48039,0.07684
5731.40886,0.07210
5733.33732,0.06223
5735.26579,0.06752
5737.19426,0.09496
5739.12273,0.11727
5741.05120,0.11678
5742.97967,0.10717
5744.90814,0.10479
5746.83660,0.10381
5748.76507,0.09713
5750.69354,0.09120
5752.62201,0.09271
5754.55048,0.09562
5756.47895,0.10741
5758.40742,0.13647
5760.33588,0.14861
5762.26435,0.11170
5764.19282,0.06088
5766.12129,0.05346
5768.04976,0.08697
5769.97823,0.12452
5771.90670,0.14085
5773.83517,0.13442
5775.76363,0.12215
5777.69210,0.11321
5779.62057,0.11237
5781.54904,0.11751
5783.47751,0.12188
5785.40598,0.12276
5787.33445,0.10760
5789.26291,0.07750
5791.19138,0.05452
5793.11985,0.05450
5795.04832,0.07283
5796.97679,0.07672
5798.90526,0.06298
5800.83373,0.06462
5802.76220,0.07168
5804.69066,0.07190
5806.61913,0.09016
5808.54760,0.12569
5810.47607,0.14242
5812.40454,0.10986
5814.33301,0.07385
5816.26148,0.09545
5818.18994,0.12935
5820.11841,0.12567
5822.04688,0.10303
5823.97535,0.06926
5825.90382,0.04809
5827.83229,0.06055
5829.76076,0.08004
5831.68923,0.09755
5833.61769,0.11761
5835.54616,0.11773
5837.47463,0.09361
5839.40310,0.06585
5841.33157,0.03628
5843.26004,0.01172
5845.18851,0.01529
5847.11697,0.03686
5849.04544,0.06013
5850.97391,0.07779
5852.90238,0.08946
5854.83085,0.10448
5856.75932,0.11712
5858.68779,0.12535
5860.61626,0.12590
5862.54472,0.11876
5864.47319,0.11873
5866.40166,0.11770
5868.33013,0.10901
5870.25860,0.09855
5872.18707,0.08881
5874.11554,0.10107
5876.04400,0.14106
5877.97247,0.17391
5879.90094,0.17000
5881.82941,0.11887
5883.75788,0.05892
5885.68635,0.04563
5887.61482,0.06120
5889.54329,0.06819
5891.47175,0.08295
5893.40022,0.11726
5895.32869,0.13823
5897.25716,0.12095
5899.18563,0.08571
5901.11410,0.06152
5903.04257,0.06040
5904.97103,0.07691
5906.89950,0.09016
5908.82797,0.07983
5910.75644,0.06382
5912.68491,0.08112
5914.61338,0.11638
5916.54185,0.13314
5918.47032,0.13130
5920.39878,0.11865
5922.32725,0.10671
5924.25572,0.10771
5926.18419,0.11014
5928.11266,0.09969
5930.04113,0.08957
5931.96960,0.07769
5933.89806,0.02667
5935.82653,-0.02457
5937.75500,0.00721
5939.68347,0.06761
5941.61194,0.08024
5943.54041,0.06961
5945.46888,0.06682
5947.39734,0.08061
5949.32581,0.09901
5951.25428,0.10631
5953.18275,0.10769
5955.11122,0.08603
5957.03969,0.05534
5958.96816,0.06438
5960.89663,0.10414
5962.82509,0.12297
5964.75356,0.11017
5966.68203,0.08849
5968.61050,0.08682
5970.53897,0.11461
5972.46744,0.14447
5974.39591,0.16094
5976.32437,0.17036
5978.25284,0.15732
5980.18131,0.12058
5982.10978,0.09990
5984.03825,0.11219
5985.96672,0.12119
5987.89519,0.08896
5989.82366,0.03382
5991.75212,0.01289
5993.68059,0.03210
5995.60906,0.06658
5997.53753,0.09983
5999.46600,0.10938
6001.39447,0.10421
6003.32294,0.09961
6005.25140,0.10040
6007.17987,0.10847
6009.10834,0.09777
6011.03681,0.06733
6012.96528,0.05207
6014.89375,0.05282
6016.82222,0.05065
6018.75069,0.05899
6020.67915,0.08003
6022.60762,0.07920
6024.53609,0.06788
6026.46456,0.09151
6028.39303,0.13621
6030.32150,0.15490
6032.24997,0.16116
6034.17843,0.15807
6036.10690,0.11164
6038.03537,0.06060
6039.96384,0.06111
6041.89231,0.08007
6043.82078,0.07770
6045.74925,0.08287
6047.67772,0.09279
6049.60618,0.08003
6051.53465,0.08323
6053.46312,0.11551
6055.39159,0.14223
6057.32006,0.12840
6059.24853,0.09175
6061.17700,0.10460
6063.10546,0.14138
6065.03393,0.13193
6066.96240,0.10737
6068.89087,0.09357
6070.81934,0.08548
6072.74781,0.09752
6074.67628,0.13387
6076.60475,0.15950
6078.53321,0.12827
6080.46168,0.07116
6082.39015,0.07181
6084.31862,0.10934
6086.24709,0.11297
6088.17556,0.09723
6090.10403,0.09072
6092.03249,0.08617
6093.96096,0.08737
6095.88943,0.09237
6097.81790,0.07071
6099.74637,0.03249
6101.67484,0.01507
6103.60331,0.00338
6105.53177,0.00420
6107.46024,0.04012
6109.38871,0.08359
6111.31718,0.10516
6113.24565,0.09583
6115.17412,0.07074
6117.10259,0.06549
6119.03106,0.10547
6120.95952,0.14000
6122.88799,0.10390
6124.81646,0.05206
6126.74493,0.05386
6128.67340,0.07755
6130.60187,0.06822
6132.53034,0.04448
6134.45880,0.04780
6136.38727,0.05521
6138.31574,0.05144
6140.24421,0.05563
6142.17268,0.06123
6144.10115,0.08279
6146.02962,0.10245
6147.95809,0.07223
6149.88655,0.01866
6151.81502,0.00287
6153.74349,0.03907
6155.67196,0.07710
6157.60043,0.09535
6159.52890,0.13304
6161.45737,0.17787
6163.38583,0.16056
6165.31430,0.10483
6167.24277,0.09936
6169.17124,0.13550
6171.09971,0.15294
6173.02818,0.11277
6174.95665,0.03165
6176.88512,0.01252
6178.81358,0.08115
6180.74205,0.13151
6182.67052,0.14256
6184.59899,0.16633
6186.52746,0.20145
6188.45593,0.19524
6190.38440,0.14027
6192.31286,0.08366
6194.24133,0.05050
6196.16980,0.06653
6198.09827,0.10319
6200.02674,0.09954
6201.95521,0.06229
6203.88368,0.03551
6205.81215,0.05343
6207.74061,0.09496
6209.66908,0.10854
6211.59755,0.08119
6213.52602,0.05906
6215.45449,0.06590
6217.38296,0.07975
6219.31143,0.09005
6221.23989,0.11458
6223.16836,0.13142
6225.09683,0.10308
6227.02530,0.07082
6228.95377,0.06054
6230.88224,0.05183
6232.81071,0.05235
6234.73918,0.06870
6236.66764,0.07811
6238.59611,0.06090
6240.52458,0.04795
6242.45305,0.07029
6244.38152,0.10504
6246.30999,0.13738
6248.23846,0.15584
6250.16692,0.14539
6252.09539,0.12615
6254.02386,0.11007
6255.95233,0.08831
6257.88080,0.07007
6259.80927,0.05968
6261.73774,0.05182
6263.66621,0.05404
6265.59467,0.08212
6267.52314,0.12299
6269.45161,0.12532
6271.38008,0.08476
6273.30855,0.06906
6275.23702,0.12208
6277.16549,0.16899
6279.09395,0.14837
6281.02242,0.10033
6282.95089,0.07155
6284.87936,0.06962
6286.80783,0.07504
6288.73630,0.07173
6290.66477,0.05950
6292.59323,0.05480
6294.52170,0.08174
6296.45017,0.11974
6298.37864,0.12339
6300.30711,0.10344
6302.23558,0.09500
6304.16405,0.10528
6306.09252,0.12736
6308.02098,0.14576
6309.94945,0.14141
6311.87792,0.12526
6313.80639,0.12435
6315.73486,0.12997
6317.66333,0.13518
6319.59180,0.14342
6321.52026,0.13686
6323.44873,0.11897
6325.37720,0.10434
6327.30567,0.08995
6329.23414,0.07957
6331.16261,0.06456
6333.09108,0.03220
6335.01955,0.00222
6336.94801,-0.01228
6338.87648,0.00271
6340.80495,0.04922
6342.73342,0.08553
6344.66189,0.10667
6346.59036,0.12089
6348.51883,0.10580
6350.44729,0.08865
6352.37576,0.10364
6354.30423,0.10412
6356.23270,0.07045
6358.16117,0.03599
6360.08964,0.02109
6362.01811,0.02674
6363.94658,0.05475
6365.87504,0.10185
6367.80351,0.10719
6369.73198,0.06470
6371.66045,0.07103
6373.58892,0.14188
6375.51739,0.18919
6377.44586,0.15777
6379.37432,0.08318
6381.30279,0.02012
6383.23126,0.00923
6385.15973,0.05680
6387.08820,0.09299
6389.01667,0.07992
6390.94514,0.03921
6392.87361,0.02709
6394.80207,0.02792
6396.73054,-0.00614
6398.65901,-0.02007
6400.58748,0.00643
6402.51595,0.05645
6404.44442,0.12429
6406.37289,0.14261
6408.30135,0.10255
6410.22982,0.07701
6412.15829,0.03944
6414.08676,-0.01773
6416.01523,-0.01226
6417.94370,0.07568
6419.87217,0.14623
6421.80064,0.12444
6423.72910,0.05658
6425.65757,0.01230
6427.58604,0.00627
6429.51451,0.02787
6431.44298,0.07782
6433.37145,0.12278
6435.29992,0.14246
6437.22838,0.15798
6439.15685,0.15919
6441.08532,0.13840
6443.01379,0.12523
6444.94226,0.11865
6446.87073,0.09549
6448.79920,0.07579
6450.72766,0.08260
6452.65613,0.10520
6454.58460,0.10827
6456.51307,0.05632
6458.44154,-0.00526
6460.37001,-0.00760
6462.29848,0.02803
6464.22695,0.05128
6466.15541,0.05558
6468.08388,0.07467
6470.01235,0.09922
6471.94082,0.10308
6473.86929,0.13201
6475.79776,0.14228
6477.72623,0.05887
6479.65469,-0.01396
6481.58316,0.00526
6483.51163,0.04404
6485.44010,0.05384
6487.36857,0.06926
6489.29704,0.09429
6491.22551,0.09128
6493.15398,0.07252
6495.08244,0.06366
6497.01091,0.04525
6498.93938,0.02630
6500.86785,0.01770
6502.79632,0.01541
6504.72479,0.02290
6506.65326,0.01915
6508.58172,0.01678
6510.51019,0.03934
6512.43866,0.06643
6514.36713,0.08781
6516.29560,0.09731
6518.22407,0.09545
6520.15254,0.08243
6522.08101,0.04848
6524.00947,0.01618
6525.93794,0.01099
6527.86641,0.02790
6529.79488,0.05768
6531.72335,0.05910
6533.65182,0.02586
6535.58029,0.01397
6537.50875,0.01396
6539.43722,-0.00017
6541.36569,0.00446
6543.29416,0.06215
6545.22263,0.12993
6547.15110,0.14341
6549.07957,0.12487
6551.00804,0.11325
6552.93650,0.11222
6554.86497,0.10653
6556.79344,0.08806
6558.72191,0.05948
6560.65038,0.03128
6562.57885,0.00282
6564.50732,-0.03706
6566.43578,-0.04184
6568.36425,0.00650
6570.29272,0.05625
6572.22119,0.08524
6574.14966,0.08310
6576.07813,0.03944
6578.00660,0.01119
6579.93507,0.04848
6581.86353,0.08606
6583.79200,0.09613
6585.72047,0.09732
6587.64894,0.07982
6589.57741,0.05232
6591.50588,0.01913
6593.43435,0.00982
6595.36281,0.05130
6597.29128,0.09096
6599.21975,0.10191
6601.14822,0.12621
6603.07669,0.15954
6605.00516,0.16140
6606.93363,0.15350
6608.86210,0.14849
6610.79056,0.12846
6612.71903,0.07644
6614.64750,0.00055
6616.57597,-0.05274
6618.50444,-0.02594
6620.43291,0.06285
6622.36138,0.13726
6624.28984,0.16332
6626.21831,0.12811
6628.14678,0.03824
6630.07525,-0.00837
6632.00372,0.01779
6633.93219,0.02793
6635.86066,0.01355
6637.78912,0.04027
6639.71759,0.08128
6641.64606,0.06905
6643.57453,0.04347
6645.50300,0.06618
6647.43147,0.10454
6649.35994,0.13261
6651.28841,0.13713
6653.21687,0.09636
6655.14534,0.04921
6657.07381,0.05315
6659.00228,0.08478
6660.93075,0.09032
6662.85922,0.09440
6664.78769,0.11978
6666.71615,0.16133
6668.64462,0.20871
6670.57309,0.21337
6672.50156,0.17748
6674.43003,0.15806
6676.35850,0.12715
6678.28697,0.07334
6680.21544,0.05735
6682.14390,0.05656
6684.07237,0.02286
6686.00084,-0.00247
6687.92931,0.03012
6689.85778,0.11091
6691.78625,0.16209
6693.71472,0.16935
6695.64318,0.17612
6697.57165,0.16729
6699.50012,0.12601
6701.42859,0.10394
6703.35706,0.13433
6705.28553,0.16508
6707.21400,0.13808
6709.14247,0.10311
6711.07093,0.11981
6712.99940,0.13851
6714.92787,0.10627
6716.85634,0.05913
6718.78481,0.05539
6720.71328,0.07037
6722.64175,0.06524
6724.57021,0.05880
6726.49868,0.04121
6728.42715,0.02462
6730.35562,0.06257
6732.28409,0.11198
6734.21256,0.11365
6736.14103,0.11947
6738.06950,0.15153
6739.99796,0.13704
6741.92643,0.07156
6743.85490,0.03608
6745.78337,0.01665
6747.71184,-0.00280
6749.64031,0.05845
6751.56878,0.15911
6753.49724,0.16857
6755.42571,0.12313
6757.35418,0.09784
6759.28265,0.09703
6761.21112,0.11094
6763.13959,0.09873
6765.06806,0.07434
6766.99653,0.08197
6768.92499,0.07704
6770.85346,0.03266
6772.78193,0.03135
6774.71040,0.08471
6776.63887,0.12626
6778.56734,0.11794
6780.49581,0.06666
6782.42427,0.03201
6784.35274,0.01733
6786.28121,-0.00215
6788.20968,0.03719
6790.13815,0.12389
6792.06662,0.12611
6793.99509,0.04144
6795.92355,-0.00725
6797.85202,0.03147
6799.78049,0.07929
6801.70896,0.02110
6803.63743,-0.08472
6805.56590,-0.11534
6807.49437,-0.10196
6809.42284,-0.07978
6811.35130,-0.05119
6813.27977,-0.02727
6815.20824,0.00485
6817.13671,0.08055
6819.06518,0.12821
6820.99365,0.06235
6822.92212,0.01154
6824.85058,0.07594
6826.77905,0.11905
6828.70752,0.11580
6830.63599,0.07675
6832.56446,0.00291
6834.49293,-0.02265
6836.42140,0.04260
6838.34987,0.11699
6840.27833,0.14202
6842.20680,0.16729
6844.13527,0.17613
6846.06374,0.08322
6847.99221,-0.03919
6849.92068,-0.07695
6851.84915,-0.08022
6853.77761,-0.04816
6855.70608,0.02564
6857.63455,0.07481
6859.56302,0.10882
6861.49149,0.11390
6863.41996,0.04067
6865.34843,-0.05160
6867.27690,-0.07795
6869.20536,-0.04180
6871.13383,-0.01876
6873.06230,-0.03510
6874.99077,-0.02354
6876.91924,0.02699
6878.84771,0.03850
6880.77618,0.02270
6882.70464,0.09227
6884.63311,0.16484
6886.56158,0.10386
6888.49005,-0.01146
6890.41852,-0.08303
6892.34699,-0.09046
6894.27546,-0.02416
6896.20393,0.03376
6898.13239,-0.00619
6900.06086,-0.05523
6901.98933,-0.06600
6903.91780,-0.11345
6905.84627,-0.13639
6907.77474,-0.07430
6909.70321,-0.01286
6911.63167,0.02535
6913.56014,0.07656
6915.48861,0.12574
6917.41708,0.13482
6919.34555,0.08207
6921.27402,0.03134
6923.20249,0.04795
6925.13096,0.08275
6927.05942,0.10008
6928.98789,0.07288
6930.91636,0.02708
6932.84483,0.04111
6934.77330,0.00582
6936.70177,-0.11679
6938.63024,-0.15466
6940.55870,-0.02672
6942.48717,0.07330
6944.41564,0.08345
6946.34411,0.09501
6948.27258,0.16502
6950.20105,0.22319
6952.12952,0.14937
6954.05799,-0.00669
6955.98645,-0.05398
6957.91492,0.02865
6959.84339,0.07472
6961.77186,0.04727
6963.70033,0.04255
6965.62880,0.09514
6967.55727,0.13215
6969.48573,0.10081
6971.41420,0.08808
6973.34267,0.08629
6975.27114,0.00592
6977.19961,-0.06082
6979.12808,-0.03163
6981.05655,0.07558
6982.98501,0.16380
6984.91348,0.15004
6986.84195,0.12268
6988.77042,0.18096
6990.69889,0.25595
6992.62736,0.27822
6994.55583,0.26928
6996.48430,0.19572
6998.41276,0.05139
7000.34123,0.00164
7002.26970,0.06841
7004.19817,0.11161
7006.12664,0.12387
7008.05511,0.10770
7009.98358,0.04756
7011.91204,0.00051
7013.84051,0.02067
7015.76898,0.07945
7017.69745,0.06667
7019.62592,-0.01276
7021.55439,-0.07279
7023.48286,-0.11994
7025.41133,-0.12546
7027.33979,-0.06067
7029.26826,0.00934
7031.19673,0.06692
7033.12520,0.11539
7035.05367,0.10145
7036.98214,0.04308
7038.91061,-0.00989
7040.83907,-0.01928
7042.76754,0.04111
7044.69601,0.03067
7046.62448,-0.10831
7048.55295,-0.16122
7050.48142,-0.03791
7052.40989,0.12382
7054.33836,0.16657
7056.26682,0.09614
7058.19529,0.05225
7060.12376,0.01049
7062.05223,-0.07330
7063.98070,-0.08927
7065.90917,0.00333
7067.83764,0.12495
7069.76610,0.16048
7071.69457,0.07434
7073.62304,-0.00629
7075.55151,-0.02869
7077.47998,0.00463
7079.40845,0.07333
7081.33692,0.07567
7083.26539,0.05381
7085.19385,0.09721
7087.12232,0.08802
7089.05079,-0.00765
7090.97926,-0.04786
7092.90773,0.00204
7094.83620,0.06178
7096.76467,0.06912
7098.69313,0.02769
7100.62160,-0.03979
7102.55007,-0.06029
7104.47854,0.03604
7106.40701,0.14098
7108.33548,0.13352
7110.26395,0.09199
7112.19242,0.02111
7114.12088,-0.03788
7116.04935,-0.01384
7117.97782,-0.03911
7119.90629,-0.11498
7121.83476,-0.04829
7123.76323,0.09865
7125.69170,0.16684
7127.62016,0.12445
7129.54863,0.07048
7131.47710,0.05991
7133.40557,0.00597
7135.33404,-0.12709
7137.26251,-0.24793
7139.19098,-0.20379
7141.11944,-0.01770
7143.04791,0.08293
7144.97638,0.06070
7146.90485,0.06174
7148.83332,0.11766
7150.76179,0.08882
7152.69026,-0.01244
7154.61873,0.03270
7156.54719,0.11072
7158.47566,0.03492
7160.40413,-0.03053
7162.33260,0.02415
7164.26107,0.11383
7166.18954,0.19831
7168.11801,0.22511
7170.04647,0.11320
7171.97494,0.00363
7173.90341,0.03054
7175.83188,0.05591
7177.76035,0.04807
7179.68882,0.07089
7181.61729,-0.00193
7183.54576,-0.14893
7185.47422,-0.12841
7187.40269,-0.03138
7189.33116,-0.01811
7191.25963,-0.01792
7193.18810,0.08402
7195.11657,0.14937
7197.04504,0.08332
7198.97350,0.00485
7200.90197,-0.00131
7202.83044,0.10830
7204.75891,0.29344
7206.68738,0.32072
7208.61585,0.24252
7210.54432,0.16995
7212.47279,0.12345
7214.40125,0.09328
7216.32972,0.02090
7218.25819,-0.04501
7220.18666,-0.00192
7222.11513,0.07573
7224.04360,0.10621
7225.97207,0.10070
7227.90053,0.10093
7229.82900,0.03182
7231.75747,-0.10514
7233.68594,-0.16564
7235.61441,-0.13195
7237.54288,-0.04535
7239.47135,0.04134
7241.39982,0.14113
7243.32828,0.19254
7245.25675,0.05593
7247.18522,-0.10010
7249.11369,-0.10447
7251.04216,-0.02058
7252.97063,0.04448
7254.89910,0.12101
7256.82756,0.10609
7258.75603,-0.02396
7260.68450,-0.04705
7262.61297,0.14579
7264.54144,0.27555
7266.46991,0.18690
7268.39838,0.02416
7270.32685,-0.07723
7272.25531,-0.06281
7274.18378,-0.00635
7276.11225,-0.01652
7278.04072,-0.06226
7279.96919,-0.05292
7281.89766,0.02331
7283.82613,0.03211
7285.75459,-0.00654
7287.68306,0.00860
7289.61153,0.03537
7291.54000,0.06015
7293.46847,0.06930
7295.39694,-0.03631
7297.32541,-0.13367
7299.25387,-0.04501
7301.18234,0.15806
7303.11081,0.29483
7305.03928,0.26490
7306.96775,0.16979
7308.89622,0.15428
7310.82469,0.11319
7312.75316,0.02438
7314.68162,0.03500
7316.61009,0.11604
7318.53856,0.08612
7320.46703,-0.02466
7322.39550,-0.09815
7324.32397,-0.08036
7326.25244,-0.00380
7328.18090,0.01527
7330.10937,-0.11124
7332.03784,-0.18029
7333.96631,-0.04702
7335.89478,0.07845
7337.82325,-0.01850
7339.75172,-0.26721
7341.68019,-0.21527
7343.60865,-0.00811
7345.53712,0.07799
7347.46559,0.08914
7349.39406,0.09705
7351.32253,0.07365
7353.25100,0.00106
7355.17947,0.00710
7357.10793,0.17515
7359.03640,0.25723
7360.96487,0.18644
7362.89334,0.18410
7364.82181,0.13825
7366.75028,-0.00176
7368.67875,-0.05539
7370.60722,0.09023
7372.53568,0.28323
7374.46415,0.33445
7376.39262,0.26375
7378.32109,0.26945
7380.24956,0.29774
7382.17803,0.22640
7384.10650,0.04479
7386.03496,-0.11971
7387.96343,-0.14480
7389.89190,-0.08384
7391.82037,-0.04888
7393.74884,-0.06990
7395.67731,-0.11147
7397.60578,-0.06790
7399.53425,0.02992
7401.46271,0.03227
7403.39118,-0.02185
7405.31965,0.00687
7407.24812,0.05802
7409.17659,0.06300
7411.10506,0.00859
7413.03353,-0.10086
7414.96199,-0.15682
7416.89046,-0.06059
7418.81893,0.13733
7420.74740,0.18751
7422.67587,0.07616
7424.60434,-0.00088
7426.53281,0.02858
7428.46128,0.17945
7430.38974,0.38882
7432.31821,0.45945
7434.24668,0.38332
7436.17515,0.29696
7438.10362,0.22178
7440.03209,0.10749
7441.96056,0.03788
7443.88902,0.08568
7445.81749,0.19370
7447.74596,0.24038
7449.67443,0.17290
7451.60290,0.06066
7453.53137,-0.02601
7455.45984,-0.07543
7457.38831,-0.08094
7459.31677,-0.02943
7461.24524,0.02843
7463.17371,0.06009
7465.10218,0.07543
7467.03065,0.05813
7468.95912,0.06476
7470.88759,0.11267
7472.81605,0.15177
7474.74452,0.24789
7476.67299,0.39082
7478.60146,0.37558
7480.52993,0.21141
7482.45840,0.00725
7484.38687,-0.19628
7486.31533,-0.25978
7488.24380,-0.16429
7490.17227,-0.04385
7492.10074,0.02112
7494.02921,0.04287
7495.95768,0.02907
7497.88615,0.05056
