399.19301,0.28195
401.12148,-0.14962
403.04995,-0.23371
404.97842,-0.05799
406.90689,0.10676
408.83536,0.17082
410.76382,0.15756
412.69229,0.11900
414.62076,0.08186
416.54923,0.03303
418.47770,0.04343
420.40617,0.14406
422.33464,0.13693
424.26311,0.05602
426.19157,0.04482
428.12004,0.10458
430.04851,0.11431
431.97698,0.05228
433.90545,0.04857
435.83392,0.10625
437.76239,0.17783
439.69085,0.25589
441.61932,0.29083
443.54779,0.24465
445.47626,0.20225
447.40473,0.16762
449.33320,0.14583
451.26167,0.21944
453.19013,0.30189
455.11860,0.28705
457.04707,0.20935
458.97554,0.11728
460.90401,0.04874
462.83248,0.02682
464.76095,0.05009
466.68942,0.08995
468.61788,0.10551
470.54635,0.12045
472.47482,0.16889
474.40329,0.16583
476.33176,0.11954
478.26023,0.09794
480.18870,0.07088
482.11716,0.07334
484.04563,0.11984
485.97410,0.14757
487.90257,0.14466
489.83104,0.13532
491.75951,0.14095
493.68798,0.15824
495.61645,0.15638
497.54491,0.12713
499.47338,0.08905
501.40185,0.06211
503.33032,0.06127
505.25879,0.08121
507.18726,0.10710
509.11573,0.11799
511.04419,0.09979
512.97266,0.07081
514.90113,0.05829
516.82960,0.07158
518.75807,0.08110
520.68654,0.05931
522.61501,0.03983
524.54348,0.05029
526.47194,0.06523
528.40041,0.05680
530.32888,0.05124
532.25735,0.06584
534.18582,0.07189
536.11429,0.06115
538.04276,0.05933
539.97122,0.07337
541.89969,0.08712
543.82816,0.08543
545.75663,0.07619
547.68510,0.08002
549.61357,0.14412
551.54204,0.39817
553.47051,0.68029
555.39897,0.59390
557.32744,0.28203
559.25591,0.13359
561.18438,0.11906
563.11285,0.13366
565.04132,0.15093
566.96979,0.14292
568.89825,0.12453
570.82672,0.11171
572.75519,0.09604
574.68366,0.08838
576.61213,0.10245
578.54060,0.11688
580.46907,0.12040
582.39754,0.11815
584.32600,0.12512
586.25447,0.14281
588.18294,0.15092
590.11141,0.15135
592.03988,0.14397
593.96835,0.11857
595.89682,0.10034
597.82528,0.10333
599.75375,0.11066
601.68222,0.11687
603.61069,0.11978
605.53916,0.11901
607.46763,0.11947
609.39610,0.11777
611.32456,0.11134
613.25303,0.09970
615.18150,0.09056
617.10997,0.09602
619.03844,0.10298
620.96691,0.09827
622.89538,0.09383
624.82385,0.09405
626.75231,0.10188
628.68078,0.11616
630.60925,0.11577
632.53772,0.10039
634.46619,0.08667
636.39466,0.07244
638.32313,0.06855
640.25159,0.08759
642.18006,0.10482
644.10853,0.10467
646.03700,0.09151
647.96547,0.07561
649.89394,0.08357
651.82241,0.11281
653.75088,0.12923
655.67934,0.12539
657.60781,0.11702
659.53628,0.11225
661.46475,0.11424
663.39322,0.11453
665.32169,0.10403
667.25016,0.09063
669.17862,0.09427
671.10709,0.10541
673.03556,0.10799
674.96403,0.10811
676.89250,0.10405
678.82097,0.09303
680.74944,0.09228
682.67791,0.10977
684.60637,0.12406
686.53484,0.11909
688.46331,0.10404
690.39178,0.09365
692.32025,0.09715
694.24872,0.10627
696.17719,0.10965
698.10565,0.11082
700.03412,0.11212
701.96259,0.11485
703.89106,0.11788
705.81953,0.12426
707.74800,0.13828
709.67647,0.14707
711.60494,0.14249
713.53340,0.13161
715.46187,0.12188
717.39034,0.12214
719.31881,0.13423
721.24728,0.14330
723.17575,0.14154
725.10422,0.12904
727.03268,0.11156
728.96115,0.11204
730.88962,0.12997
732.81809,0.13875
734.74656,0.13119
736.67503,0.12155
738.60350,0.12402
740.53197,0.13481
742.46043,0.13935
744.38890,0.13680
746.31737,0.13549
748.24584,0.13619
750.17431,0.13302
752.10278,0.12472
754.03125,0.11757
755.95971,0.11718
757.88818,0.12004
759.81665,0.12222
761.74512,0.12518
763.67359,0.12622
765.60206,0.12560
767.53053,0.12629
769.45900,0.12469
771.38746,0.12200
773.31593,0.12460
775.24440,0.13289
777.17287,0.14118
779.10134,0.14769
781.02981,0.15335
782.95828,0.15226
784.88674,0.14508
786.81521,0.13758
788.74368,0.12770
790.67215,0.12139
792.60062,0.12728
794.52909,0.13592
796.45756,0.13658
798.38602,0.13564
800.31449,0.13412
802.24296,0.12327
804.17143,0.11018
806.09990,0.10607
808.02837,0.10969
809.95684,0.11626
811.88531,0.11931
813.81377,0.11500
815.74224,0.10900
817.67071,0.10670
819.59918,0.10506
821.52765,0.10630
823.45612,0.11061
825.38459,0.11603
827.31305,0.13105
829.24152,0.14697
831.16999,0.14688
833.09846,0.13137
835.02693,0.11337
836.95540,0.10685
838.88387,0.11286
840.81234,0.12445
842.74080,0.13389
844.66927,0.13567
846.59774,0.13075
848.52621,0.12629
850.45468,0.12519
852.38315,0.12390
854.31162,0.12552
856.24008,0.12949
858.16855,0.13025
860.09702,0.13393
862.02549,0.14318
863.95396,0.14283
865.88243,0.13221
867.81090,0.12872
869.73937,0.13029
871.66783,0.12857
873.59630,0.12645
875.52477,0.12533
877.45324,0.12689
879.38171,0.13221
881.31018,0.13828
883.23865,0.14249
885.16711,0.14205
887.09558,0.13743
889.02405,0.13203
890.95252,0.13010
892.88099,0.13576
894.80946,0.14225
896.73793,0.14322
898.66640,0.14410
900.59486,0.14685
902.52333,0.14527
904.45180,0.13835
906.38027,0.13675
908.30874,0.14153
910.23721,0.13979
912.16568,0.13326
914.09414,0.13240
916.02261,0.13440
917.95108,0.13600
919.87955,0.13733
921.80802,0.13669
923.73649,0.14006
925.66496,0.14875
927.59343,0.15406
929.52189,0.15409
931.45036,0.14890
933.37883,0.13916
935.30730,0.13214
937.23577,0.13233
939.16424,0.13631
941.09271,0.13750
943.02117,0.13477
944.94964,0.13163
946.87811,0.12832
948.80658,0.12547
950.73505,0.12676
952.66352,0.13154
954.59199,0.13492
956.52045,0.13725
958.44892,0.14111
960.37739,0.14148
962.30586,0.13355
964.23433,0.12694
966.16280,0.13177
968.09127,0.13882
970.01974,0.14029
971.94820,0.14053
973.87667,0.13956
975.80514,0.13713
977.73361,0.13633
979.66208,0.13554
981.59055,0.13608
983.51902,0.14327
985.44748,0.15163
987.37595,0.15306
989.30442,0.15028
991.23289,0.14866
993.16136,0.14885
995.08983,0.14866
997.01830,0.14911
998.94677,0.15070
1000.87523,0.15098
1002.80370,0.15185
1004.73217,0.15117
1006.66064,0.14623
1008.58911,0.14480
1010.51758,0.14910
1012.44605,0.15136
1014.37451,0.14441
1016.30298,0.13235
1018.23145,0.13043
1020.15992,0.13931
1022.08839,0.14719
1024.01686,0.15467
1025.94533,0.16686
1027.87380,0.17337
1029.80226,0.16499
1031.73073,0.15524
1033.65920,0.15519
1035.58767,0.15899
1037.51614,0.16092
1039.44461,0.15754
1041.37308,0.14833
1043.30154,0.14173
1045.23001,0.14449
1047.15848,0.14772
1049.08695,0.14201
1051.01542,0.13692
1052.94389,0.13864
1054.87236,0.14171
1056.80083,0.14852
1058.72929,0.15518
1060.65776,0.15494
1062.58623,0.15593
1064.51470,0.15892
1066.44317,0.15955
1068.37164,0.16392
1070.30011,0.17176
1072.22857,0.17632
1074.15704,0.17761
1076.08551,0.17596
1078.01398,0.16809
1079.94245,0.15845
1081.87092,0.15519
1083.79939,0.15604
1085.72786,0.15540
1087.65632,0.15572
1089.58479,0.15709
1091.51326,0.15131
1093.44173,0.14466
1095.37020,0.15237
1097.29867,0.16696
1099.22714,0.17347
1101.15560,0.17204
1103.08407,0.16734
1105.01254,0.16354
1106.94101,0.16511
1108.86948,0.16865
1110.79795,0.16850
1112.72642,0.16892
1114.65489,0.16978
1116.58335,0.16667
1118.51182,0.16357
1120.44029,0.16235
1122.36876,0.16159
1124.29723,0.16054
1126.22570,0.15808
1128.15417,0.15648
1130.08263,0.15693
1132.01110,0.15627
1133.93957,0.15331
1135.86804,0.15363
1137.79651,0.15909
1139.72498,0.16033
1141.65345,0.15520
1143.58191,0.15178
1145.51038,0.15242
1147.43885,0.15448
1149.36732,0.15731
1151.29579,0.16192
1153.22426,0.16695
1155.15273,0.16910
1157.08120,0.16738
1159.00966,0.16517
1160.93813,0.16421
1162.86660,0.15996
1164.79507,0.15365
1166.72354,0.15350
1168.65201,0.15846
1170.58048,0.16174
1172.50894,0.16267
1174.43741,0.16113
1176.36588,0.15821
1178.29435,0.15887
1180.22282,0.16309
1182.15129,0.16528
1184.07976,0.16257
1186.00823,0.15919
1187.93669,0.15853
1189.86516,0.15830
1191.79363,0.15900
1193.72210,0.16251
1195.65057,0.16441
1197.57904,0.16104
1199.50751,0.15793
1201.43597,0.16041
1203.36444,0.16441
1205.29291,0.16362
1207.22138,0.15953
1209.14985,0.15843
1211.07832,0.16066
1213.00679,0.16148
1214.93526,0.15831
1216.86372,0.15411
1218.79219,0.15419
1220.72066,0.15811
1222.64913,0.16223
1224.57760,0.16675
1226.50607,0.16886
1228.43454,0.16549
1230.36300,0.16435
1232.29147,0.16798
1234.21994,0.16773
1236.14841,0.16344
1238.07688,0.16105
1240.00535,0.16033
1241.93382,0.16013
1243.86229,0.15971
1245.79075,0.15778
1247.71922,0.15803
1249.64769,0.16231
1251.57616,0.16486
1253.50463,0.16379
1255.43310,0.16382
1257.36157,0.16269
1259.29003,0.15704
1261.21850,0.15362
1263.14697,0.15604
1265.07544,0.16023
1267.00391,0.15999
1268.93238,0.15492
1270.86085,0.15556
1272.78932,0.16225
1274.71778,0.16404
1276.64625,0.16273
1278.57472,0.16483
1280.50319,0.16538
1282.43166,0.16329
1284.36013,0.16453
1286.28860,0.16591
1288.21706,0.16588
1290.14553,0.16915
1292.07400,0.17109
1294.00247,0.16725
1295.93094,0.16257
1297.85941,0.15861
1299.78788,0.15023
1301.71634,0.13234
1303.64481,0.11181
1305.57328,0.11235
1307.50175,0.14023
1309.43022,0.16805
1311.35869,0.17874
1313.28716,0.17869
1315.21563,0.17503
1317.14409,0.17214
1319.07256,0.16912
1321.00103,0.16503
1322.92950,0.16305
1324.85797,0.16046
1326.78644,0.15594
1328.71491,0.15420
1330.64337,0.15265
1332.57184,0.15004
1334.50031,0.15024
1336.42878,0.15325
1338.35725,0.15953
1340.28572,0.16117
1342.21419,0.15669
1344.14266,0.15484
1346.07112,0.15414
1347.99959,0.15606
1349.92806,0.15977
1351.85653,0.15996
1353.78500,0.15839
1355.71347,0.15785
1357.64194,0.16033
1359.57040,0.16513
1361.49887,0.16928
1363.42734,0.16971
1365.35581,0.16949
1367.28428,0.17209
1369.21275,0.17307
1371.14122,0.17249
1373.06969,0.17629
1374.99815,0.18353
1376.92662,0.18572
1378.85509,0.18129
1380.78356,0.17544
1382.71203,0.17294
1384.64050,0.17701
1386.56897,0.18635
1388.49743,0.19007
1390.42590,0.18595
1392.35437,0.18433
1394.28284,0.18822
1396.21131,0.19192
1398.13978,0.19085
1400.06825,0.18696
1401.99672,0.18462
1403.92518,0.18565
1405.85365,0.18645
1407.78212,0.18282
1409.71059,0.17873
1411.63906,0.17893
1413.56753,0.18164
1415.49600,0.18543
1417.42446,0.19255
1419.35293,0.19611
1421.28140,0.18991
1423.20987,0.18432
1425.13834,0.18201
1427.06681,0.18243
1428.99528,0.18549
1430.92375,0.18593
1432.85221,0.18434
1434.78068,0.18699
1436.70915,0.19121
1438.63762,0.19177
1440.56609,0.19123
1442.49456,0.18962
1444.42303,0.18809
1446.35149,0.18906
1448.27996,0.18998
1450.20843,0.18845
1452.13690,0.18718
1454.06537,0.18965
1455.99384,0.19719
1457.92231,0.19978
1459.85077,0.19316
1461.77924,0.19019
1463.70771,0.19160
1465.63618,0.19251
1467.56465,0.19213
1469.49312,0.19707
1471.42159,0.20918
1473.35006,0.21591
1475.27852,0.20679
1477.20699,0.19575
1479.13546,0.19118
1481.06393,0.19215
1482.99240,0.19417
1484.92087,0.19466
1486.84934,0.19518
1488.77780,0.19565
1490.70627,0.19221
1492.63474,0.19013
1494.56321,0.19506
1496.49168,0.20377
1498.42015,0.20455
1500.34862,0.19907
1502.27709,0.19993
1504.20555,0.21124
1506.13402,0.23178
1508.06249,0.23397
1509.99096,0.21731
1511.91943,0.20680
1513.84790,0.20377
1515.77637,0.20530
1517.70483,0.20976
1519.63330,0.21562
1521.56177,0.21401
1523.49024,0.20456
1525.41871,0.20115
1527.34718,0.20033
1529.27565,0.19781
1531.20412,0.19664
1533.13258,0.19533
1535.06105,0.19300
1536.98952,0.19626
1538.91799,0.21114
1540.84646,0.22898
1542.77493,0.22382
1544.70340,0.21161
1546.63186,0.20270
1548.56033,0.19863
1550.48880,0.19810
1552.41727,0.20020
1554.34574,0.20446
1556.27421,0.21067
1558.20268,0.21711
1560.13115,0.20779
1562.05961,0.19923
1563.98808,0.19813
1565.91655,0.19852
1567.84502,0.20141
1569.77349,0.20469
1571.70196,0.20106
1573.63043,0.19687
1575.55889,0.19675
1577.48736,0.19743
1579.41583,0.19632
1581.34430,0.19609
1583.27277,0.19598
1585.20124,0.19247
1587.12971,0.18791
1589.05818,0.18695
1590.98664,0.18774
1592.91511,0.18787
1594.84358,0.18870
1596.77205,0.18891
1598.70052,0.18723
1600.62899,0.18612
1602.55746,0.18626
1604.48592,0.18680
1606.41439,0.18880
1608.34286,0.19120
1610.27133,0.19199
1612.19980,0.19442
1614.12827,0.20155
1616.05674,0.20950
1617.98521,0.20867
1619.91367,0.20548
1621.84214,0.20579
1623.77061,0.20392
1625.69908,0.19990
1627.62755,0.19795
1629.55602,0.19755
1631.48449,0.19857
1633.41295,0.20287
1635.34142,0.21094
1637.26989,0.21201
1639.19836,0.20703
1641.12683,0.20400
1643.05530,0.20495
1644.98377,0.21155
1646.91223,0.21833
1648.84070,0.21656
1650.76917,0.21677
1652.69764,0.22277
1654.62611,0.21608
1656.55458,0.20342
1658.48305,0.19740
1660.41152,0.19821
1662.33998,0.20085
1664.26845,0.19998
1666.19692,0.20273
1668.12539,0.21232
1670.05386,0.21948
1671.98233,0.21766
1673.91080,0.21202
1675.83926,0.20402
1677.76773,0.20057
1679.69620,0.20215
1681.62467,0.20430
1683.55314,0.20676
1685.48161,0.20805
1687.41008,0.20708
1689.33855,0.20561
1691.26701,0.20276
1693.19548,0.20029
1695.12395,0.20214
1697.05242,0.20938
1698.98089,0.21476
1700.90936,0.21200
1702.83783,0.20878
1704.76629,0.21036
1706.69476,0.20921
1708.62323,0.20345
1710.55170,0.20009
1712.48017,0.20088
1714.40864,0.20573
1716.33711,0.21288
1718.26558,0.21074
1720.19404,0.20235
1722.12251,0.19773
1724.05098,0.19496
1725.97945,0.19445
1727.90792,0.19875
1729.83639,0.20454
1731.76486,0.20757
1733.69332,0.20562
1735.62179,0.19901
1737.55026,0.19512
1739.47873,0.19348
1741.40720,0.19301
1743.33567,0.19489
1745.26414,0.19845
1747.19261,0.20333
1749.12107,0.20681
1751.04954,0.20295
1752.97801,0.19589
1754.90648,0.19327
1756.83495,0.19515
1758.76342,0.19787
1760.69189,0.19971
1762.62035,0.19895
1764.54882,0.19627
1766.47729,0.19625
1768.40576,0.20057
1770.33423,0.20850
1772.26270,0.21316
1774.19117,0.20725
1776.11964,0.19849
1778.04810,0.19251
1779.97657,0.19087
1781.90504,0.19309
1783.83351,0.19527
1785.76198,0.19440
1787.69045,0.19329
1789.61892,0.19653
1791.54738,0.20289
1793.47585,0.20424
1795.40432,0.19958
1797.33279,0.19676
1799.26126,0.19913
1801.18973,0.20115
1803.11820,0.19664
1805.04666,0.19129
1806.97513,0.19036
1808.90360,0.19125
1810.83207,0.19249
1812.76054,0.19529
1814.68901,0.19742
1816.61748,0.19723
1818.54595,0.19583
1820.47441,0.19500
1822.40288,0.19674
1824.33135,0.19917
1826.25982,0.19826
1828.18829,0.19760
1830.11676,0.19944
1832.04523,0.19898
1833.97369,0.19665
1835.90216,0.19602
1837.83063,0.19659
1839.75910,0.19658
1841.68757,0.19837
1843.61604,0.20210
1845.54451,0.20163
1847.47298,0.19883
1849.40144,0.19798
1851.32991,0.19557
1853.25838,0.19086
1855.18685,0.18859
1857.11532,0.19037
1859.04379,0.19348
1860.97226,0.19404
1862.90072,0.19163
1864.82919,0.19128
1866.75766,0.19561
1868.68613,0.19952
1870.61460,0.19809
1872.54307,0.19538
1874.47154,0.19486
1876.40001,0.19542
1878.32847,0.19433
1880.25694,0.19269
1882.18541,0.19317
1884.11388,0.19398
1886.04235,0.19471
1887.97082,0.19716
1889.89929,0.19779
1891.82775,0.19447
1893.75622,0.19151
1895.68469,0.19033
1897.61316,0.18867
1899.54163,0.18639
1901.47010,0.18641
1903.39857,0.18943
1905.32704,0.19226
1907.25550,0.19290
1909.18397,0.19238
1911.11244,0.19172
1913.04091,0.19142
1914.96938,0.19306
1916.89785,0.19608
1918.82632,0.19650
1920.75478,0.19445
1922.68325,0.19298
1924.61172,0.19295
1926.54019,0.19459
1928.46866,0.19565
1930.39713,0.19364
1932.32560,0.19105
1934.25407,0.19109
1936.18253,0.19291
1938.11100,0.19478
1940.03947,0.19738
1941.96794,0.20132
1943.89641,0.20343
1945.82488,0.20057
1947.75335,0.19580
1949.68181,0.19330
1951.61028,0.19259
1953.53875,0.19256
1955.46722,0.19268
1957.39569,0.19240
1959.32416,0.19308
1961.25263,0.19391
1963.18110,0.19349
1965.10956,0.19331
1967.03803,0.19382
1968.96650,0.19499
1970.89497,0.19613
1972.82344,0.19617
1974.75191,0.19762
1976.68038,0.20049
1978.60884,0.20091
1980.53731,0.19868
1982.46578,0.19636
1984.39425,0.19590
1986.32272,0.19639
1988.25119,0.19662
1990.17966,0.19652
1992.10812,0.19564
1994.03659,0.19518
1995.96506,0.19465
1997.89353,0.19323
1999.82200,0.19233
2001.75047,0.19232
2003.67894,0.19204
2005.60741,0.19076
2007.53587,0.19031
2009.46434,0.19243
2011.39281,0.19558
2013.32128,0.19631
2015.24975,0.19480
2017.17822,0.19575
2019.10669,0.19811
2021.03515,0.19794
2022.96362,0.19692
2024.89209,0.19580
2026.82056,0.19338
2028.74903,0.19048
2030.67750,0.18902
2032.60597,0.19119
2034.53444,0.19573
2036.46290,0.19886
2038.39137,0.19961
2040.31984,0.19836
2042.24831,0.19603
2044.17678,0.19395
2046.10525,0.19254
2048.03372,0.19255
2049.96218,0.19369
2051.89065,0.19369
2053.81912,0.19261
2055.74759,0.19334
2057.67606,0.19625
2059.60453,0.19840
2061.53300,0.19803
2063.46147,0.19673
2065.38993,0.19595
2067.31840,0.19456
2069.24687,0.19305
2071.17534,0.19399
2073.10381,0.19687
2075.03228,0.19861
2076.96075,0.19822
2078.88921,0.19597
2080.81768,0.19284
2082.74615,0.19179
2084.67462,0.19332
2086.60309,0.19548
2088.53156,0.19809
2090.46003,0.20020
2092.38850,0.20057
2094.31696,0.19974
2096.24543,0.19848
2098.17390,0.19797
2100.10237,0.19830
2102.03084,0.19845
2103.95931,0.19882
2105.88778,0.19950
2107.81624,0.20010
2109.74471,0.20089
2111.67318,0.20104
2113.60165,0.19971
2115.53012,0.19821
2117.45859,0.19864
2119.38706,0.20004
2121.31553,0.19993
2123.24399,0.19849
2125.17246,0.19729
2127.10093,0.19783
2129.02940,0.19912
2130.95787,0.19907
2132.88634,0.19808
2134.81481,0.19762
2136.74327,0.19863
2138.67174,0.19879
2140.60021,0.19685
2142.52868,0.19597
2144.45715,0.19618
2146.38562,0.19595
2148.31409,0.19649
2150.24255,0.19642
2152.17102,0.19456
2154.09949,0.19393
2156.02796,0.19536
2157.95643,0.19742
2159.88490,0.19928
2161.81337,0.20023
2163.74184,0.20157
2165.67030,0.20307
2167.59877,0.20151
2169.52724,0.19760
2171.45571,0.19569
2173.38418,0.19638
2175.31265,0.19665
2177.24112,0.19656
2179.16958,0.19808
2181.09805,0.19906
2183.02652,0.19715
2184.95499,0.19493
2186.88346,0.19503
2188.81193,0.19667
2190.74040,0.19794
2192.66887,0.19822
2194.59733,0.19767
2196.52580,0.19699
2198.45427,0.19755
2200.38274,0.19936
2202.31121,0.20023
2204.23968,0.19873
2206.16815,0.19630
2208.09661,0.19480
2210.02508,0.19532
2211.95355,0.19783
2213.88202,0.19973
2215.81049,0.19916
2217.73896,0.19789
2219.66743,0.19789
2221.59590,0.19896
2223.52436,0.19996
2225.45283,0.19959
2227.38130,0.19810
2229.30977,0.19659
2231.23824,0.19553
2233.16671,0.19505
2235.09518,0.19446
2237.02364,0.19398
2238.95211,0.19535
2240.88058,0.19833
2242.80905,0.20076
2244.73752,0.20249
2246.66599,0.20322
2248.59446,0.20224
2250.52293,0.20069
2252.45139,0.19943
2254.37986,0.19874
2256.30833,0.19843
2258.23680,0.19768
2260.16527,0.19640
2262.09374,0.19575
2264.02221,0.19646
2265.95067,0.19762
2267.87914,0.19848
2269.80761,0.19831
2271.73608,0.19694
2273.66455,0.19712
2275.59302,0.19992
2277.52149,0.20140
2279.44996,0.19995
2281.37842,0.19895
2283.30689,0.19900
2285.23536,0.19707
2287.16383,0.19422
2289.09230,0.19471
2291.02077,0.19780
2292.94924,0.19849
2294.87770,0.19576
2296.80617,0.19451
2298.73464,0.19651
2300.66311,0.19856
2302.59158,0.19916
2304.52005,0.19850
2306.44852,0.19831
2308.37699,0.19947
2310.30545,0.19814
2312.23392,0.19361
2314.16239,0.19162
2316.09086,0.19323
2318.01933,0.19325
2319.94780,0.19152
2321.87627,0.19273
2323.80473,0.19473
2325.73320,0.19632
2327.66167,0.20242
2329.59014,0.20707
2331.51861,0.20437
2333.44708,0.20333
2335.37555,0.20518
2337.30401,0.20202
2339.23248,0.19499
2341.16095,0.19148
2343.08942,0.19807
2345.01789,0.20613
2346.94636,0.20184
2348.87483,0.19427
2350.80330,0.19208
2352.73176,0.19153
2354.66023,0.18119
2356.58870,0.16722
2358.51717,0.17220
2360.44564,0.18771
2362.37411,0.19420
2364.30258,0.19433
2366.23104,0.19750
2368.15951,0.20192
2370.08798,0.19880
2372.01645,0.19156
2373.94492,0.18802
2375.87339,0.18844
2377.80186,0.19041
2379.73033,0.19300
2381.65879,0.19628
2383.58726,0.19916
2385.51573,0.20012
2387.44420,0.19971
2389.37267,0.19872
2391.30114,0.19805
2393.22961,0.19786
2395.15807,0.19640
2397.08654,0.19461
2399.01501,0.19442
2400.94348,0.19529
2402.87195,0.19641
2404.80042,0.19810
2406.72889,0.20014
2408.65736,0.19992
2410.58582,0.19783
2412.51429,0.19818
2414.44276,0.20121
2416.37123,0.20333
2418.29970,0.20293
2420.22817,0.20103
2422.15664,0.19921
2424.08510,0.19804
2426.01357,0.19689
2427.94204,0.19659
2429.87051,0.19798
2431.79898,0.19966
2433.72745,0.20092
2435.65592,0.20144
2437.58439,0.20037
2439.51285,0.19897
2441.44132,0.19918
2443.36979,0.20020
2445.29826,0.20021
2447.22673,0.19862
2449.15520,0.19609
2451.08367,0.19533
2453.01213,0.19779
2454.94060,0.20024
2456.86907,0.20105
2458.79754,0.20215
2460.72601,0.20334
2462.65448,0.20358
2464.58295,0.20369
2466.51142,0.20395
2468.43988,0.20242
2470.36835,0.19974
2472.29682,0.19915
2474.22529,0.19923
2476.15376,0.19818
2478.08223,0.19847
2480.01070,0.20099
2481.93916,0.20317
2483.86763,0.20279
2485.79610,0.20090
2487.72457,0.20086
2489.65304,0.20233
2491.58151,0.20149
2493.50998,0.19916
2495.43844,0.19905
2497.36691,0.20099
2499.29538,0.20322
2501.22385,0.20504
2503.15232,0.20664
2505.08079,0.20708
2507.00926,0.20489
2508.93773,0.20295
2510.86619,0.20409
2512.79466,0.20547
2514.72313,0.20449
2516.65160,0.20268
2518.58007,0.20201
2520.50854,0.20212
2522.43701,0.20209
2524.36547,0.20172
2526.29394,0.20136
2528.22241,0.20264
2530.15088,0.20447
2532.07935,0.20291
2534.00782,0.19916
2535.93629,0.19824
2537.86476,0.20061
2539.79322,0.20247
2541.72169,0.20245
2543.65016,0.20251
2545.57863,0.20314
2547.50710,0.20323
2549.43557,0.20344
2551.36404,0.20408
2553.29250,0.20339
2555.22097,0.20159
2557.14944,0.20123
2559.07791,0.20254
2561.00638,0.20347
2562.93485,0.20359
2564.86332,0.20363
2566.79179,0.20275
2568.72025,0.20208
2570.64872,0.20410
2572.57719,0.20574
2574.50566,0.20468
2576.43413,0.20400
2578.36260,0.20334
2580.29107,0.20233
2582.21953,0.20436
2584.14800,0.20764
2586.07647,0.20770
2588.00494,0.20578
2589.93341,0.20426
2591.86188,0.20182
2593.79035,0.19973
2595.71882,0.20005
2597.64728,0.20021
2599.57575,0.19995
2601.50422,0.20161
2603.43269,0.20391
2605.36116,0.20439
2607.28963,0.20355
2609.21810,0.20347
2611.14656,0.20460
2613.07503,0.20586
2615.00350,0.20528
2616.93197,0.20299
2618.86044,0.20316
2620.78891,0.20645
2622.71738,0.20832
2624.64585,0.20793
2626.57431,0.20751
2628.50278,0.20757
2630.43125,0.20802
2632.35972,0.20762
2634.28819,0.20539
2636.21666,0.20317
2638.14513,0.20334
2640.07359,0.20645
2642.00206,0.20985
2643.93053,0.20951
2645.85900,0.20622
2647.78747,0.20426
2649.71594,0.20525
2651.64441,0.20807
2653.57288,0.21011
2655.50134,0.20949
2657.42981,0.20807
2659.35828,0.20788
2661.28675,0.20793
2663.21522,0.20763
2665.14369,0.20715
2667.07216,0.20661
2669.00062,0.20696
2670.92909,0.20834
2672.85756,0.21003
2674.78603,0.21020
2676.71450,0.20843
2678.64297,0.20766
2680.57144,0.20786
2682.49990,0.20669
2684.42837,0.20546
2686.35684,0.20570
2688.28531,0.20648
2690.21378,0.20613
2692.14225,0.20415
2694.07072,0.20353
2695.99919,0.20545
2697.92765,0.20664
2699.85612,0.20613
2701.78459,0.20540
2703.71306,0.20652
2705.64153,0.20923
2707.57000,0.21032
2709.49847,0.21085
2711.42693,0.21472
2713.35540,0.21977
2715.28387,0.22004
2717.21234,0.21517
2719.14081,0.20964
2721.06928,0.20697
2722.99775,0.20763
2724.92622,0.20982
2726.85468,0.21268
2728.78315,0.21525
2730.71162,0.21442
2732.64009,0.20964
2734.56856,0.20588
2736.49703,0.20630
2738.42550,0.20802
2740.35396,0.20966
2742.28243,0.21173
2744.21090,0.21188
2746.13937,0.21035
2748.06784,0.21009
2749.99631,0.21116
2751.92478,0.21180
2753.85325,0.21124
2755.78171,0.21066
2757.71018,0.21101
2759.63865,0.21225
2761.56712,0.21334
2763.49559,0.21306
2765.42406,0.21327
2767.35253,0.21451
2769.28099,0.21402
2771.20946,0.21233
2773.13793,0.21270
2775.06640,0.21534
2776.99487,0.21768
2778.92334,0.21786
2780.85181,0.21701
2782.78028,0.21754
2784.70874,0.21844
2786.63721,0.21768
2788.56568,0.21618
2790.49415,0.21522
2792.42262,0.21477
2794.35109,0.21498
2796.27956,0.21564
2798.20802,0.21490
2800.13649,0.21427
2802.06496,0.21640
2803.99343,0.21827
2805.92190,0.21748
2807.85037,0.21689
2809.77884,0.21897
2811.70731,0.22048
2813.63577,0.21875
2815.56424,0.21640
2817.49271,0.21550
2819.42118,0.21653
2821.34965,0.21688
2823.27812,0.21501
2825.20659,0.21469
2827.13505,0.21625
2829.06352,0.21779
2830.99199,0.21945
2832.92046,0.22027
2834.84893,0.22011
2836.77740,0.21995
2838.70587,0.21960
2840.63433,0.21918
2842.56280,0.22000
2844.49127,0.22154
2846.41974,0.22231
2848.34821,0.22242
2850.27668,0.22126
2852.20515,0.21961
2854.13362,0.21851
2856.06208,0.21617
2857.99055,0.21441
2859.91902,0.21634
2861.84749,0.21930
2863.77596,0.21880
2865.70443,0.21655
2867.63290,0.21622
2869.56136,0.21676
2871.48983,0.21817
2873.41830,0.21965
2875.34677,0.21893
2877.27524,0.21753
2879.20371,0.21591
2881.13218,0.21416
2883.06065,0.21363
2884.98911,0.21338
2886.91758,0.21371
2888.84605,0.21569
2890.77452,0.21716
2892.70299,0.21630
2894.63146,0.21438
2896.55993,0.21443
2898.48839,0.21641
2900.41686,0.21622
2902.34533,0.21325
2904.27380,0.20946
2906.20227,0.20715
2908.13074,0.20950
2910.05921,0.21359
2911.98768,0.21352
2913.91614,0.20808
2915.84461,0.20158
2917.77308,0.20190
2919.70155,0.20666
2921.63002,0.20839
2923.55849,0.20635
2925.48696,0.19964
2927.41542,0.19752
2929.34389,0.20735
2931.27236,0.21618
2933.20083,0.21724
2935.12930,0.21135
2937.05777,0.20096
2938.98624,0.20066
2940.91471,0.21113
2942.84317,0.21559
2944.77164,0.20783
2946.70011,0.19520
2948.62858,0.19388
2950.55705,0.20679
2952.48552,0.21773
2954.41399,0.21740
2956.34245,0.20418
2958.27092,0.19263
2960.19939,0.20306
2962.12786,0.22349
2964.05633,0.22942
2965.98480,0.21740
2967.91327,0.20435
2969.84174,0.20771
2971.77020,0.21890
2973.69867,0.22278
2975.62714,0.21766
2977.55561,0.20607
2979.48408,0.20229
2981.41255,0.21292
2983.34102,0.22263
2985.26948,0.22200
2987.19795,0.21264
2989.12642,0.20483
2991.05489,0.20935
2992.98336,0.21950
2994.91183,0.22434
2996.84030,0.22253
2998.76877,0.21879
3000.69723,0.21834
3002.62570,0.22045
3004.55417,0.22119
3006.48264,0.21934
3008.41111,0.21561
3010.33958,0.20295
3012.26805,0.17166
3014.19651,0.12821
3016.12498,0.09955
3018.05345,0.11766
3019.98192,0.17111
3021.91039,0.21138
3023.83886,0.22384
3025.76733,0.22257
3027.69579,0.21634
3029.62426,0.21456
3031.55273,0.22034
3033.48120,0.22394
3035.40967,0.22061
3037.33814,0.21545
3039.26661,0.21386
3041.19508,0.21632
3043.12354,0.22127
3045.05201,0.22552
3046.98048,0.22458
3048.90895,0.22353
3050.83742,0.22552
3052.76589,0.22513
3054.69436,0.21862
3056.62282,0.20685
3058.55129,0.20477
3060.47976,0.21644
3062.40823,0.22321
3064.33670,0.21468
3066.26517,0.20096
3068.19364,0.20273
3070.12211,0.21759
3072.05057,0.22412
3073.97904,0.21638
3075.90751,0.20471
3077.83598,0.20367
3079.76445,0.21243
3081.69292,0.21579
3083.62139,0.20595
3085.54985,0.19519
3087.47832,0.20121
3089.40679,0.21571
3091.33526,0.21871
3093.26373,0.20624
3095.19220,0.19589
3097.12067,0.20449
3099.04914,0.22125
3100.97760,0.22622
3102.90607,0.21322
3104.83454,0.20136
3106.76301,0.20773
3108.69148,0.21983
3110.61995,0.22030
3112.54842,0.21085
3114.47688,0.20846
3116.40535,0.21461
3118.33382,0.21753
3120.26229,0.21554
3122.19076,0.21556
3124.11923,0.22307
3126.04770,0.22938
3127.97617,0.22770
3129.90463,0.22324
3131.83310,0.22308
3133.76157,0.22583
3135.69004,0.22403
3137.61851,0.21965
3139.54698,0.21702
3141.47545,0.21720
3143.40391,0.21941
3145.33238,0.22103
3147.26085,0.22203
3149.18932,0.22461
3151.11779,0.22953
3153.04626,0.23281
3154.97473,0.23004
3156.90320,0.22469
3158.83166,0.22445
3160.76013,0.22749
3162.68860,0.22758
3164.61707,0.22664
3166.54554,0.22846
3168.47401,0.23064
3170.40248,0.22988
3172.33094,0.22635
3174.25941,0.22317
3176.18788,0.22657
3178.11635,0.23412
3180.04482,0.23622
3181.97329,0.23391
3183.90176,0.23297
3185.83022,0.23289
3187.75869,0.23281
3189.68716,0.23336
3191.61563,0.23207
3193.54410,0.23129
3195.47257,0.23458
3197.40104,0.23581
3199.32951,0.23192
3201.25797,0.22876
3203.18644,0.22848
3205.11491,0.22809
3207.04338,0.22702
3208.97185,0.22755
3210.90032,0.22996
3212.82879,0.23148
3214.75725,0.23258
3216.68572,0.23553
3218.61419,0.23625
3220.54266,0.23311
3222.47113,0.23008
3224.39960,0.22811
3226.32807,0.22665
3228.25654,0.22567
3230.18500,0.22536
3232.11347,0.22524
3234.04194,0.22422
3235.97041,0.22372
3237.89888,0.22479
3239.82735,0.22590
3241.75582,0.22650
3243.68428,0.22801
3245.61275,0.23035
3247.54122,0.23191
3249.46969,0.23323
3251.39816,0.23421
3253.32663,0.23212
3255.25510,0.22775
3257.18357,0.22438
3259.11203,0.22284
3261.04050,0.22427
3262.96897,0.22692
3264.89744,0.22602
3266.82591,0.22310
3268.75438,0.22367
3270.68285,0.22548
3272.61131,0.22405
3274.53978,0.22485
3276.46825,0.22861
3278.39672,0.22650
3280.32519,0.22143
3282.25366,0.22262
3284.18213,0.22853
3286.11060,0.23187
3288.03906,0.23070
3289.96753,0.22799
3291.89600,0.22585
3293.82447,0.22430
3295.75294,0.22304
3297.68141,0.22313
3299.60988,0.22471
3301.53834,0.22569
3303.46681,0.22491
3305.39528,0.22418
3307.32375,0.22450
3309.25222,0.22494
3311.18069,0.22597
3313.10916,0.22708
3315.03763,0.22730
3316.96609,0.22765
3318.89456,0.22783
3320.82303,0.22602
3322.75150,0.22358
3324.67997,0.22331
3326.60844,0.22577
3328.53691,0.23006
3330.46537,0.23156
3332.39384,0.22726
3334.32231,0.22271
3336.25078,0.22414
3338.17925,0.22904
3340.10772,0.22988
3342.03619,0.22748
3343.96466,0.22764
3345.89312,0.22942
3347.82159,0.23171
3349.75006,0.23561
3351.67853,0.23894
3353.60700,0.24046
3355.53547,0.24089
3357.46394,0.23929
3359.39240,0.23527
3361.32087,0.23151
3363.24934,0.23071
3365.17781,0.23086
3367.10628,0.22928
3369.03475,0.22882
3370.96322,0.23208
3372.89168,0.23532
3374.82015,0.23485
3376.74862,0.23242
3378.67709,0.23172
3380.60556,0.23522
3382.53403,0.23828
3384.46250,0.23336
3386.39097,0.22694
3388.31943,0.22656
3390.24790,0.22665
3392.17637,0.22441
3394.10484,0.22302
3396.03331,0.22483
3397.96178,0.22593
3399.89025,0.22101
3401.81871,0.21624
3403.74718,0.21856
3405.67565,0.22371
3407.60412,0.22467
3409.53259,0.22313
3411.46106,0.22538
3413.38953,0.22937
3415.31800,0.22764
3417.24646,0.22098
3419.17493,0.21924
3421.10340,0.22306
3423.03187,0.22180
3424.96034,0.21564
3426.88881,0.21363
3428.81728,0.21739
3430.74574,0.22264
3432.67421,0.22506
3434.60268,0.22171
3436.53115,0.21481
3438.45962,0.20996
3440.38809,0.21103
3442.31656,0.21565
3444.24503,0.21637
3446.17349,0.21296
3448.10196,0.21183
3450.03043,0.21307
3451.95890,0.21397
3453.88737,0.21619
3455.81584,0.21883
3457.74431,0.21824
3459.67277,0.21415
3461.60124,0.21063
3463.52971,0.21120
3465.45818,0.21039
3467.38665,0.20492
3469.31512,0.20283
3471.24359,0.20707
3473.17206,0.21225
3475.10052,0.21393
3477.02899,0.21164
3478.95746,0.20831
3480.88593,0.20463
3482.81440,0.20228
3484.74287,0.20513
3486.67134,0.20875
3488.59980,0.20446
3490.52827,0.19546
3492.45674,0.19394
3494.38521,0.20173
3496.31368,0.20753
3498.24215,0.20316
3500.17062,0.19453
3502.09909,0.19045
3504.02755,0.19180
3505.95602,0.19570
3507.88449,0.19895
3509.81296,0.19916
3511.74143,0.19906
3513.66990,0.19983
3515.59837,0.19720
3517.52683,0.19161
3519.45530,0.18788
3521.38377,0.18861
3523.31224,0.19403
3525.24071,0.19694
3527.16918,0.19124
3529.09765,0.18493
3531.02611,0.18503
3532.95458,0.18666
3534.88305,0.18631
3536.81152,0.18545
3538.73999,0.18431
3540.66846,0.18297
3542.59693,0.18337
3544.52540,0.18501
3546.45386,0.18344
3548.38233,0.17916
3550.31080,0.17879
3552.23927,0.18422
3554.16774,0.18943
3556.09621,0.18950
3558.02468,0.18674
3559.95314,0.18356
3561.88161,0.18138
3563.81008,0.18141
3565.73855,0.18341
3567.66702,0.18496
3569.59549,0.18073
3571.52396,0.17417
3573.45243,0.17130
3575.38089,0.17140
3577.30936,0.17134
3579.23783,0.17066
3581.16630,0.16822
3583.09477,0.16658
3585.02324,0.17004
3586.95171,0.17243
3588.88017,0.16643
3590.80864,0.16111
3592.73711,0.16006
3594.66558,0.16087
3596.59405,0.16392
3598.52252,0.16866
3600.45099,0.17153
3602.37946,0.17178
3604.30792,0.17200
3606.23639,0.17267
3608.16486,0.17188
3610.09333,0.17137
3612.02180,0.17370
3613.95027,0.17236
3615.87874,0.16626
3617.80720,0.16212
3619.73567,0.15858
3621.66414,0.15583
3623.59261,0.15796
3625.52108,0.16337
3627.44955,0.16677
3629.37802,0.16117
3631.30649,0.15369
3633.23495,0.15079
3635.16342,0.14954
3637.09189,0.15019
3639.02036,0.15316
3640.94883,0.15556
3642.87730,0.15589
3644.80577,0.15771
3646.73423,0.16359
3648.66270,0.17040
3650.59117,0.16883
3652.51964,0.16148
3654.44811,0.15601
3656.37658,0.15367
3658.30505,0.15141
3660.23352,0.14696
3662.16198,0.14265
3664.09045,0.14157
3666.01892,0.14540
3667.94739,0.15064
3669.87586,0.14747
3671.80433,0.14207
3673.73280,0.14890
3675.66126,0.15807
3677.58973,0.15530
3679.51820,0.15175
3681.44667,0.14999
3683.37514,0.14725
3685.30361,0.14500
3687.23208,0.14438
3689.16055,0.14669
3691.08901,0.15088
3693.01748,0.15129
3694.94595,0.14768
3696.87442,0.14337
3698.80289,0.14229
3700.73136,0.14499
3702.65983,0.14594
3704.58829,0.14317
3706.51676,0.14181
3708.44523,0.14328
3710.37370,0.14725
3712.30217,0.15025
3714.23064,0.14580
3716.15911,0.13975
3718.08757,0.14182
3720.01604,0.15077
3721.94451,0.15249
3723.87298,0.14482
3725.80145,0.13719
3727.72992,0.13285
3729.65839,0.13297
3731.58686,0.13907
3733.51532,0.14869
3735.44379,0.15411
3737.37226,0.15413
3739.30073,0.15041
3741.22920,0.14459
3743.15767,0.13967
3745.08614,0.14039
3747.01460,0.15161
3748.94307,0.16785
3750.87154,0.17050
3752.80001,0.14993
3754.72848,0.13745
3756.65695,0.13921
3758.58542,0.14203
3760.51389,0.13602
3762.44235,0.12844
3764.37082,0.12634
3766.29929,0.13359
3768.22776,0.14629
3770.15623,0.15021
3772.08470,0.14211
3774.01317,0.13460
3775.94163,0.13295
3777.87010,0.13388
3779.79857,0.13079
3781.72704,0.12502
3783.65551,0.12462
3785.58398,0.12922
3787.51245,0.13292
3789.44092,0.13406
3791.36938,0.13480
3793.29785,0.13848
3795.22632,0.14298
3797.15479,0.14223
3799.08326,0.14115
3801.01173,0.14494
3802.94020,0.14732
3804.86866,0.14636
3806.79713,0.14464
3808.72560,0.14201
3810.65407,0.13837
3812.58254,0.13550
3814.51101,0.13739
3816.43948,0.14420
3818.36795,0.14919
3820.29641,0.15136
3822.22488,0.14872
3824.15335,0.14179
3826.08182,0.13523
3828.01029,0.13301
3829.93876,0.13598
3831.86723,0.13736
3833.79569,0.13343
3835.72416,0.13132
3837.65263,0.13594
3839.58110,0.14060
3841.50957,0.14154
3843.43804,0.14062
3845.36651,0.13726
3847.29498,0.13406
3849.22344,0.13307
3851.15191,0.13494
3853.08038,0.13995
3855.00885,0.13823
3856.93732,0.13208
3858.86579,0.13004
3860.79426,0.13222
3862.72272,0.13487
3864.65119,0.13256
3866.57966,0.12792
3868.50813,0.12739
3870.43660,0.12881
3872.36507,0.12813
3874.29354,0.12734
3876.22200,0.12725
3878.15047,0.12725
3880.07894,0.12620
3882.00741,0.12755
3883.93588,0.13389
3885.86435,0.13739
3887.79282,0.13308
3889.72129,0.12781
3891.64975,0.12478
3893.57822,0.12291
3895.50669,0.12489
3897.43516,0.13322
3899.36363,0.14371
3901.29210,0.14691
3903.22057,0.13902
3905.14903,0.12702
3907.07750,0.12048
3909.00597,0.11953
3910.93444,0.11924
3912.86291,0.11823
3914.79138,0.11997
3916.71985,0.12343
3918.64832,0.12249
3920.57678,0.11751
3922.50525,0.11289
3924.43372,0.11182
3926.36219,0.11667
3928.29066,0.12356
3930.21913,0.12585
3932.14760,0.12248
3934.07606,0.11856
3936.00453,0.11622
3937.93300,0.11417
3939.86147,0.11436
3941.78994,0.11792
3943.71841,0.12231
3945.64688,0.12661
3947.57535,0.12950
3949.50381,0.12636
3951.43228,0.12043
3953.36075,0.12010
3955.28922,0.12139
3957.21769,0.11799
3959.14616,0.11455
3961.07463,0.11456
3963.00309,0.11493
3964.93156,0.11382
3966.86003,0.11188
3968.78850,0.11049
3970.71697,0.11117
3972.64544,0.11317
3974.57391,0.11558
3976.50238,0.11847
3978.43084,0.11757
3980.35931,0.11251
3982.28778,0.11118
3984.21625,0.11434
3986.14472,0.11569
3988.07319,0.11354
3990.00166,0.10798
3991.93012,0.10208
3993.85859,0.10174
3995.78706,0.10644
3997.71553,0.11066
3999.64400,0.10918
4001.57247,0.10290
4003.50094,0.10211
4005.42941,0.10916
4007.35787,0.11320
4009.28634,0.11131
4011.21481,0.10889
4013.14328,0.10772
4015.07175,0.10878
4017.00022,0.11180
4018.92869,0.11236
4020.85715,0.10927
4022.78562,0.10791
4024.71409,0.10765
4026.64256,0.10362
4028.57103,0.10137
4030.49950,0.10600
4032.42797,0.10941
4034.35644,0.10725
4036.28490,0.10604
4038.21337,0.10490
4040.14184,0.09965
4042.07031,0.09607
4043.99878,0.09973
4045.92725,0.10526
4047.85572,0.10336
4049.78418,0.09770
4051.71265,0.09889
4053.64112,0.10374
4055.56959,0.10281
4057.49806,0.09881
4059.42653,0.09897
4061.35500,0.10298
4063.28346,0.10409
4065.21193,0.10063
4067.14040,0.09896
4069.06887,0.09892
4070.99734,0.09869
4072.92581,0.10053
4074.85428,0.10252
4076.78275,0.10108
4078.71121,0.09638
4080.63968,0.09465
4082.56815,0.09888
4084.49662,0.10403
4086.42509,0.10559
4088.35356,0.10171
4090.28203,0.09495
4092.21049,0.09138
4094.13896,0.09272
4096.06743,0.09496
4097.99590,0.09541
4099.92437,0.09717
4101.85284,0.10037
4103.78131,0.09971
4105.70978,0.09686
4107.63824,0.09505
4109.56671,0.09311
4111.49518,0.09294
4113.42365,0.09381
4115.35212,0.09351
4117.28059,0.09218
4119.20906,0.08928
4121.13752,0.08850
4123.06599,0.09174
4124.99446,0.09136
4126.92293,0.08548
4128.85140,0.08278
4130.77987,0.08621
4132.70834,0.09133
4134.63681,0.09244
4136.56527,0.08776
4138.49374,0.08356
4140.42221,0.08534
4142.35068,0.09114
4144.27915,0.09458
4146.20762,0.09254
4148.13609,0.08927
4150.06455,0.08990
4151.99302,0.09234
4153.92149,0.09235
4155.84996,0.09196
4157.77843,0.09111
4159.70690,0.08787
4161.63537,0.08712
4163.56384,0.08910
4165.49230,0.08725
4167.42077,0.08400
4169.34924,0.08538
4171.27771,0.08892
4173.20618,0.09130
4175.13465,0.09189
4177.06312,0.09238
4178.99158,0.09342
4180.92005,0.09005
4182.84852,0.08242
4184.77699,0.07604
4186.70546,0.07465
4188.63393,0.07940
4190.56240,0.08488
4192.49087,0.08473
4194.41933,0.08116
4196.34780,0.08085
4198.27627,0.08414
4200.20474,0.08533
4202.13321,0.08274
4204.06168,0.08117
4205.99015,0.08342
4207.91861,0.08394
4209.84708,0.07879
4211.77555,0.07307
4213.70402,0.07168
4215.63249,0.07299
4217.56096,0.07305
4219.48943,0.07005
4221.41789,0.06761
4223.34636,0.07152
4225.27483,0.07606
4227.20330,0.07408
4229.13177,0.07218
4231.06024,0.07371
4232.98871,0.07223
4234.91718,0.06667
4236.84564,0.06427
4238.77411,0.06886
4240.70258,0.07488
4242.63105,0.07720
4244.55952,0.07726
4246.48799,0.07697
4248.41646,0.07573
4250.34492,0.07446
4252.27339,0.07522
4254.20186,0.07427
4256.13033,0.06700
4258.05880,0.05772
4259.98727,0.05391
4261.91574,0.05824
4263.84421,0.06605
4265.77267,0.06969
4267.70114,0.06798
4269.62961,0.06511
4271.55808,0.06258
4273.48655,0.06090
4275.41502,0.06077
4277.34349,0.05973
4279.27195,0.06031
4281.20042,0.06484
4283.12889,0.06638
4285.05736,0.06406
4286.98583,0.06144
4288.91430,0.05621
4290.84277,0.04992
4292.77124,0.04796
4294.69970,0.05063
4296.62817,0.05539
4298.55664,0.05924
4300.48511,0.05793
4302.41358,0.05189
4304.34205,0.04646
4306.27052,0.04622
4308.19898,0.05155
4310.12745,0.05594
4312.05592,0.05660
4313.98439,0.05758
4315.91286,0.05837
4317.84133,0.05634
4319.76980,0.05200
4321.69827,0.04913
4323.62673,0.05059
4325.55520,0.05245
4327.48367,0.05032
4329.41214,0.04662
4331.34061,0.04670
4333.26908,0.05038
4335.19755,0.05129
4337.12601,0.04687
4339.05448,0.04425
4340.98295,0.04609
4342.91142,0.04668
4344.83989,0.04686
4346.76836,0.04751
4348.69683,0.04548
4350.62530,0.04011
4352.55376,0.03416
4354.48223,0.03595
4356.41070,0.04573
4358.33917,0.05005
4360.26764,0.04448
4362.19611,0.04113
4364.12458,0.04370
4366.05304,0.04211
4367.98151,0.03552
4369.90998,0.02878
4371.83845,0.02387
4373.76692,0.02517
4375.69539,0.03142
4377.62386,0.03474
4379.55232,0.03470
4381.48079,0.03466
4383.40926,0.03478
4385.33773,0.03525
4387.26620,0.03425
4389.19467,0.03324
4391.12314,0.03446
4393.05161,0.03334
4394.98007,0.02984
4396.90854,0.02808
4398.83701,0.02897
4400.76548,0.03137
4402.69395,0.03220
4404.62242,0.02933
4406.55089,0.02197
4408.47935,0.01396
4410.40782,0.01553
4412.33629,0.02887
4414.26476,0.03918
4416.19323,0.03438
4418.12170,0.02429
4420.05017,0.02225
4421.97864,0.02682
4423.90710,0.03160
4425.83557,0.03068
4427.76404,0.02271
4429.69251,0.01495
4431.62098,0.01193
4433.54945,0.01168
4435.47792,0.01371
4437.40638,0.01771
4439.33485,0.02128
4441.26332,0.02170
4443.19179,0.01798
4445.12026,0.01561
4447.04873,0.01885
4448.97720,0.02368
4450.90567,0.02653
4452.83413,0.02675
4454.76260,0.02645
4456.69107,0.02651
4458.61954,0.02395
4460.54801,0.02021
4462.47648,0.01750
4464.40495,0.01446
4466.33341,0.01184
4468.26188,0.01069
4470.19035,0.01106
4472.11882,0.01384
4474.04729,0.01834
4475.97576,0.02137
4477.90423,0.02177
4479.83270,0.02087
4481.76116,0.01706
4483.68963,0.00930
4485.61810,0.00560
4487.54657,0.01306
4489.47504,0.02167
4491.40351,0.02030
4493.33198,0.01614
4495.26044,0.01671
4497.18891,0.01686
4499.11738,0.01222
4501.04585,0.00605
4502.97432,0.00422
4504.90279,0.00569
4506.83126,0.00324
4508.75973,0.00027
4510.68819,0.00551
4512.61666,0.01313
4514.54513,0.01235
4516.47360,0.00516
4518.40207,0.00355
4520.33054,0.01073
4522.25901,0.01450
4524.18747,0.01088
4526.11594,0.01009
4528.04441,0.01244
4529.97288,0.00706
4531.90135,-0.00510
4533.82982,-0.01099
4535.75829,-0.00614
4537.68676,0.00227
4539.61522,0.00571
4541.54369,0.00309
4543.47216,0.00169
4545.40063,0.00594
4547.32910,0.01192
4549.25757,0.01395
4551.18604,0.01003
4553.11450,0.00585
4555.04297,0.00800
4556.97144,0.01078
4558.89991,0.00852
4560.82838,0.00613
4562.75685,0.00516
4564.68532,0.00378
4566.61378,0.00642
4568.54225,0.01296
4570.47072,0.01552
4572.39919,0.01084
4574.32766,0.00197
4576.25613,-0.00239
4578.18460,-0.00031
4580.11307,-0.00246
4582.04153,-0.01101
4583.97000,-0.01507
4585.89847,-0.01147
4587.82694,-0.01046
4589.75541,-0.01283
4591.68388,-0.00984
4593.61235,-0.00255
4595.54081,0.00248
4597.46928,0.00490
4599.39775,0.00879
4601.32622,0.01100
4603.25469,0.00834
4605.18316,0.00142
4607.11163,-0.00558
4609.04010,-0.00889
4610.96856,-0.00968
4612.89703,-0.00419
4614.82550,0.00635
4616.75397,0.01013
4618.68244,0.00780
4620.61091,0.00508
4622.53938,0.00247
4624.46784,0.00153
4626.39631,-0.00217
4628.32478,-0.00756
4630.25325,-0.00273
4632.18172,0.00612
4634.11019,0.00682
4636.03866,0.00798
4637.96713,0.01183
4639.89559,0.01226
4641.82406,0.01232
4643.75253,0.01007
4645.68100,0.00330
4647.60947,-0.00057
4649.53794,0.00240
4651.46641,0.00773
4653.39487,0.00935
4655.32334,0.00933
4657.25181,0.00753
4659.18028,-0.00235
4661.10875,-0.00783
4663.03722,0.00159
4664.96569,0.00948
4666.89416,0.00730
4668.82262,0.00586
4670.75109,0.00797
4672.67956,0.00621
4674.60803,0.00207
4676.53650,0.00066
4678.46497,0.00241
4680.39344,0.00551
4682.32190,0.00745
4684.25037,0.00744
4686.17884,0.00623
4688.10731,0.00293
4690.03578,-0.00200
4691.96425,-0.00204
4693.89272,0.00254
4695.82119,0.00122
4697.74965,-0.00463
4699.67812,-0.00623
4701.60659,-0.00470
4703.53506,-0.00309
4705.46353,-0.00264
4707.39200,-0.00180
4709.32047,0.00562
4711.24893,0.01367
4713.17740,0.01164
4715.10587,0.00285
4717.03434,-0.00275
4718.96281,0.00107
4720.89128,0.00893
4722.81975,0.01164
4724.74821,0.00788
4726.67668,0.00052
4728.60515,-0.00305
4730.53362,0.00059
4732.46209,0.00244
4734.39056,-0.00065
4736.31903,-0.00514
4738.24750,-0.01232
4740.17596,-0.01470
4742.10443,-0.00574
4744.03290,0.00594
4745.96137,0.01386
4747.88984,0.01662
4749.81831,0.01045
4751.74678,0.00097
4753.67524,-0.00043
4755.60371,0.00691
4757.53218,0.01496
4759.46065,0.01389
4761.38912,0.00469
4763.31759,-0.00150
4765.24606,-0.00158
4767.17453,-0.00105
4769.10299,0.00241
4771.03146,0.01364
4772.95993,0.02126
4774.88840,0.01283
4776.81687,-0.00288
4778.74534,-0.00940
4780.67381,-0.00374
4782.60227,0.00447
4784.53074,0.00724
4786.45921,0.01065
4788.38768,0.01975
4790.31615,0.02208
4792.24462,0.01383
4794.17309,0.00841
4796.10156,0.00788
4798.03002,-0.00004
4799.95849,-0.01053
4801.88696,-0.00986
4803.81543,0.00018
4805.74390,0.00879
4807.67237,0.00693
4809.60084,0.00339
4811.52930,0.00906
4813.45777,0.01279
4815.38624,0.01206
4817.31471,0.01676
4819.24318,0.01753
4821.17165,0.01164
4823.10012,0.01420
4825.02859,0.02105
4826.95705,0.01944
4828.88552,0.01523
4830.81399,0.01491
4832.74246,0.01205
4834.67093,0.00691
4836.59940,0.00678
4838.52787,0.00711
4840.45633,0.00615
4842.38480,0.00757
4844.31327,0.00660
4846.24174,-0.00013
4848.17021,-0.00713
4850.09868,-0.00350
4852.02715,0.01017
4853.95562,0.01938
4855.88408,0.02038
4857.81255,0.01842
4859.74102,0.01502
4861.66949,0.01108
4863.59796,0.00721
4865.52643,0.00014
4867.45490,-0.00637
4869.38336,-0.00230
4871.31183,0.00435
4873.24030,0.00626
4875.16877,0.01047
4877.09724,0.01194
4879.02571,0.00622
4880.95418,0.00140
4882.88265,0.00212
4884.81111,0.00700
4886.73958,0.01064
4888.66805,0.00388
4890.59652,-0.00793
4892.52499,-0.00693
4894.45346,0.00397
4896.38193,0.01294
4898.31039,0.01793
4900.23886,0.01594
4902.16733,0.01097
4904.09580,0.00880
4906.02427,0.00192
4907.95274,-0.01063
4909.88121,-0.01540
4911.80967,-0.00815
4913.73814,-0.00112
4915.66661,-0.00590
4917.59508,-0.01263
4919.52355,-0.01067
4921.45202,-0.00948
4923.38049,-0.00860
4925.30896,-0.00285
4927.23742,-0.00022
4929.16589,0.00075
4931.09436,0.00505
4933.02283,0.00619
4934.95130,0.00005
4936.87977,-0.00243
4938.80824,0.00884
4940.73670,0.02167
4942.66517,0.02259
4944.59364,0.01913
4946.52211,0.01593
4948.45058,0.00689
4950.37905,-0.00064
4952.30752,0.00186
4954.23599,0.00379
4956.16445,0.00170
4958.09292,0.00347
4960.02139,0.00519
4961.94986,0.00806
4963.87833,0.01677
4965.80680,0.02007
4967.73527,0.01369
4969.66373,0.00773
4971.59220,0.00962
4973.52067,0.01935
4975.44914,0.02647
4977.37761,0.01869
4979.30608,0.00394
4981.23455,-0.00054
4983.16302,0.00008
4985.09148,-0.00351
4987.01995,-0.00429
4988.94842,0.00217
4990.87689,0.01380
4992.80536,0.03093
4994.73383,0.04366
4996.66230,0.03520
4998.59076,0.01131
5000.51923,-0.00436
5002.44770,-0.00052
5004.37617,0.01024
5006.30464,0.01363
5008.23311,0.01274
5010.16158,0.01271
5012.09005,0.01132
5014.01851,0.01179
5015.94698,0.01882
5017.87545,0.01826
5019.80392,0.01113
5021.73239,0.01929
5023.66086,0.03246
5025.58933,0.02615
5027.51779,0.00915
5029.44626,0.00465
5031.37473,0.01027
5033.30320,0.01364
5035.23167,0.01302
5037.16014,0.01201
5039.08861,0.01460
5041.01708,0.01355
5042.94554,0.00816
5044.87401,0.01394
5046.80248,0.02396
5048.73095,0.01711
5050.65942,0.00155
5052.58789,-0.00270
5054.51636,0.00439
5056.44482,0.00790
5058.37329,0.00231
5060.30176,0.00255
5062.23023,0.01909
5064.15870,0.04041
5066.08717,0.04890
5068.01564,0.04464
5069.94410,0.03911
5071.87257,0.03424
5073.80104,0.02885
5075.72951,0.02507
5077.65798,0.02660
5079.58645,0.03479
5081.51492,0.04280
5083.44339,0.03999
5085.37185,0.02703
5087.30032,0.01199
5089.22879,-0.00306
5091.15726,-0.01047
5093.08573,-0.00299
5095.01420,0.00791
5096.94267,0.01395
5098.87113,0.02253
5100.79960,0.03544
5102.72807,0.04485
5104.65654,0.04293
5106.58501,0.03401
5108.51348,0.02552
5110.44195,0.01660
5112.37042,0.02185
5114.29888,0.03827
5116.22735,0.03526
5118.15582,0.01450
5120.08429,-0.00114
5122.01276,0.00083
5123.94123,0.01598
5125.86970,0.02841
5127.79816,0.03494
5129.72663,0.03728
5131.65510,0.02831
5133.58357,0.01839
5135.51204,0.02271
5137.44051,0.02991
5139.36898,0.03061
5141.29745,0.03392
5143.22591,0.04422
5145.15438,0.04832
5147.08285,0.04116
5149.01132,0.03880
5150.93979,0.03916
5152.86826,0.03257
5154.79673,0.02972
5156.72519,0.03041
5158.65366,0.02602
5160.58213,0.02510
5162.51060,0.03868
5164.43907,0.05829
5166.36754,0.06309
5168.29601,0.05655
5170.22448,0.04536
5172.15294,0.02495
5174.08141,0.01280
5176.00988,0.02107
5177.93835,0.03401
5179.86682,0.03691
5181.79529,0.03191
5183.72376,0.02155
5185.65222,0.00355
5187.58069,-0.00363
5189.50916,0.01244
5191.43763,0.02843
5193.36610,0.02764
5195.29457,0.02107
5197.22304,0.01941
5199.15151,0.02439
5201.07997,0.03373
5203.00844,0.04152
5204.93691,0.04251
5206.86538,0.04426
5208.79385,0.05586
5210.72232,0.06418
5212.65079,0.06299
5214.57925,0.05683
5216.50772,0.04614
5218.43619,0.04295
5220.36466,0.05502
5222.29313,0.06385
5224.22160,0.06377
5226.15007,0.06564
5228.07854,0.06634
5230.00700,0.06534
5231.93547,0.06536
5233.86394,0.05362
5235.79241,0.03582
5237.72088,0.03283
5239.64935,0.04119
5241.57782,0.05118
5243.50628,0.05849
5245.43475,0.05259
5247.36322,0.03365
5249.29169,0.02144
5251.22016,0.02541
5253.14863,0.03267
5255.07710,0.03886
5257.00556,0.04322
5258.93403,0.04219
5260.86250,0.04244
5262.79097,0.05067
5264.71944,0.06156
5266.64791,0.07071
5268.57638,0.07397
5270.50485,0.05933
5272.43331,0.03487
5274.36178,0.02138
5276.29025,0.02404
5278.21872,0.03880
5280.14719,0.05199
5282.07566,0.04913
5284.00413,0.04544
5285.93259,0.06258
5287.86106,0.08290
5289.78953,0.08364
5291.71800,0.06146
5293.64647,0.03140
5295.57494,0.02102
5297.50341,0.03229
5299.43188,0.04215
5301.36034,0.04832
5303.28881,0.06304
5305.21728,0.07604
5307.14575,0.07377
5309.07422,0.05975
5311.00269,0.04284
5312.93116,0.03403
5314.85962,0.03990
5316.78809,0.05169
5318.71656,0.05955
5320.64503,0.06563
5322.57350,0.06882
5324.50197,0.05820
5326.43044,0.03331
5328.35891,0.02333
5330.28737,0.04952
5332.21584,0.08068
5334.14431,0.08058
5336.07278,0.06693
5338.00125,0.06447
5339.92972,0.06182
5341.85819,0.05395
5343.78665,0.04341
5345.71512,0.03026
5347.64359,0.02837
5349.57206,0.03519
5351.50053,0.03969
5353.42900,0.04498
5355.35747,0.05136
5357.28594,0.05598
5359.21440,0.06020
5361.14287,0.05750
5363.07134,0.05597
5364.99981,0.06680
5366.92828,0.07227
5368.85675,0.07248
5370.78522,0.07739
5372.71368,0.07309
5374.64215,0.06016
5376.57062,0.05488
5378.49909,0.05430
5380.42756,0.05458
5382.35603,0.05520
5384.28450,0.05278
5386.21297,0.05728
5388.14143,0.06272
5390.06990,0.05747
5391.99837,0.06256
5393.92684,0.07705
5395.85531,0.07102
5397.78378,0.06078
5399.71225,0.06518
5401.64071,0.06810
5403.56918,0.06445
5405.49765,0.06799
5407.42612,0.07684
5409.35459,0.07388
5411.28306,0.06054
5413.21153,0.05398
5415.13999,0.06144
5417.06846,0.07214
5418.99693,0.07588
5420.92540,0.07794
5422.85387,0.08323
5424.78234,0.08441
5426.71081,0.07286
5428.63928,0.05811
5430.56774,0.05539
5432.49621,0.05779
5434.42468,0.06095
5436.35315,0.06397
5438.28162,0.06930
5440.21009,0.07277
5442.13856,0.06414
5444.06702,0.05744
5445.99549,0.06556
5447.92396,0.08464
5449.85243,0.10277
5451.78090,0.10376
5453.70937,0.09161
5455.63784,0.09068
5457.56631,0.10123
5459.49477,0.09334
5461.42324,0.07774
5463.35171,0.08199
5465.28018,0.09159
5467.20865,0.08344
5469.13712,0.06241
5471.06559,0.04567
5472.99405,0.04534
5474.92252,0.06538
5476.85099,0.07480
5478.77946,0.06004
5480.70793,0.05384
5482.63640,0.06144
5484.56487,0.07276
5486.49334,0.08233
5488.42180,0.07545
5490.35027,0.05831
5492.27874,0.04799
5494.20721,0.05552
5496.13568,0.07241
5498.06415,0.06561
5499.99262,0.04443
5501.92108,0.04924
5503.84955,0.07110
5505.77802,0.08745
5507.70649,0.09616
5509.63496,0.09595
5511.56343,0.09179
5513.49190,0.08763
5515.42037,0.08046
5517.34883,0.06720
5519.27730,0.04119
5521.20577,0.02226
5523.13424,0.03231
5525.06271,0.04022
5526.99118,0.03923
5528.91965,0.06169
5530.84811,0.08841
5532.77658,0.08918
5534.70505,0.07041
5536.63352,0.06282
5538.56199,0.08474
5540.49046,0.10115
5542.41893,0.09813
5544.34740,0.09245
5546.27586,0.08310
5548.20433,0.06978
5550.13280,0.04897
5552.06127,0.03445
5553.98974,0.04463
5555.91821,0.06451
5557.84668,0.07654
5559.77514,0.08367
5561.70361,0.09284
5563.63208,0.09711
5565.56055,0.08330
5567.48902,0.05820
5569.41749,0.04681
5571.34596,0.04865
5573.27443,0.04775
5575.20289,0.06045
5577.13136,0.09759
5579.05983,0.12430
5580.98830,0.11914
5582.91677,0.10862
5584.84524,0.10424
5586.77371,0.08511
5588.70217,0.06301
5590.63064,0.06682
5592.55911,0.08185
5594.48758,0.09067
5596.41605,0.08686
5598.34452,0.07064
5600.27299,0.06977
5602.20145,0.08513
5604.12992,0.08689
5606.05839,0.07917
5607.98686,0.08720
5609.91533,0.09116
5611.84380,0.06524
5613.77227,0.04952
5615.70074,0.07189
5617.62920,0.09417
5619.55767,0.08281
5621.48614,0.05804
5623.41461,0.04945
5625.34308,0.05736
5627.27155,0.06208
5629.20002,0.05895
5631.12848,0.06210
5633.05695,0.06382
5634.98542,0.06244
5636.91389,0.05838
5638.84236,0.05008
5640.77083,0.05086
5642.69930,0.04556
5644.62777,0.03346
5646.55623,0.05020
5648.48470,0.08444
5650.41317,0.10147
5652.34164,0.10312
5654.27011,0.08523
5656.19858,0.05656
5658.12705,0.05651
5660.05551,0.07522
5661.98398,0.07436
5663.91245,0.06547
5665.84092,0.07315
5667.76939,0.09086
5669.69786,0.10171
5671.62633,0.09701
5673.55480,0.07830
5675.48326,0.06122
5677.41173,0.06479
5679.34020,0.08432
5681.26867,0.11641
5683.19714,0.15003
5685.12561,0.14645
5687.05408,0.10617
5688.98254,0.05903
5690.91101,0.02929
5692.83948,0.04240
5694.76795,0.08099
5696.69642,0.09260
5698.62489,0.05766
5700.55336,0.02101
5702.48183,0.03400
5704.41029,0.06948
5706.33876,0.07137
5708.26723,0.04695
5710.19570,0.04458
5712.12417,0.08030
5714.05264,0.11287
5715.98111,0.10907
5717.90957,0.10025
5719.83804,0.10852
5721.76651,0.11534
5723.69498,0.12612
5725.62345,0.14214
5727.55192,0.14101
5729.48039,0.12077
5731.40886,0.09276
5733.33732,0.07069
5735.26579,0.07324
5737.19426,0.10338
5739.12273,0.12529
5741.05120,0.10743
5742.97967,0.08210
5744.90814,0.07823
5746.83660,0.08394
5748.76507,0.09628
5750.69354,0.11339
5752.62201,0.12341
5754.55048,0.12501
5756.47895,0.12798
5758.40742,0.13622
5760.33588,0.13109
5762.26435,0.10773
5764.19282,0.09168
5766.12129,0.09003
5768.04976,0.09229
5769.97823,0.09237
5771.90670,0.09687
5773.83517,0.11153
5775.76363,0.12337
5777.69210,0.12112
5779.62057,0.10502
5781.54904,0.08973
5783.47751,0.08760
5785.40598,0.09901
5787.33445,0.11381
5789.26291,0.11967
5791.19138,0.11196
5793.11985,0.08724
5795.04832,0.07126
5796.97679,0.07297
5798.90526,0.06318
5800.83373,0.05667
5802.76220,0.07763
5804.69066,0.10262
5806.61913,0.10981
5808.54760,0.11207
5810.47607,0.11306
5812.40454,0.11403
5814.33301,0.12336
5816.26148,0.12190
5818.18994,0.10424
5820.11841,0.09590
5822.04688,0.09191
5823.97535,0.06907
5825.90382,0.04861
5827.83229,0.05760
5829.76076,0.07346
5831.68923,0.07231
5833.61769,0.06347
5835.54616,0.06205
5837.47463,0.07793
5839.40310,0.10284
5841.33157,0.11184
5843.26004,0.10204
5845.18851,0.10065
5847.11697,0.10042
5849.04544,0.07580
5850.97391,0.05247
5852.90238,0.04272
5854.83085,0.03644
5856.75932,0.04762
5858.68779,0.07074
5860.61626,0.08828
5862.54472,0.10327
5864.47319,0.11102
5866.40166,0.09938
5868.33013,0.07920
5870.25860,0.05971
5872.18707,0.04669
5874.11554,0.04156
5876.04400,0.03780
5877.97247,0.05636
5879.90094,0.09684
5881.82941,0.11262
5883.75788,0.09813
5885.68635,0.08942
5887.61482,0.08114
5889.54329,0.06624
5891.47175,0.08045
5893.40022,0.11007
5895.32869,0.11708
5897.25716,0.11094
5899.18563,0.11476
5901.11410,0.12402
5903.04257,0.11346
5904.97103,0.08506
5906.89950,0.08436
5908.82797,0.12806
5910.75644,0.15245
5912.68491,0.12698
5914.61338,0.10058
5916.54185,0.10069
5918.47032,0.11622
5920.39878,0.13065
5922.32725,0.12918
5924.25572,0.11705
5926.18419,0.10970
5928.11266,0.09497
5930.04113,0.06486
5931.96960,0.04640
5933.89806,0.06346
5935.82653,0.09687
5937.75500,0.11176
5939.68347,0.12936
5941.61194,0.16661
5943.54041,0.17850
5945.46888,0.15854
5947.39734,0.14857
5949.32581,0.15071
5951.25428,0.13793
5953.18275,0.09812
5955.11122,0.06330
5957.03969,0.06827
5958.96816,0.08882
5960.89663,0.09794
5962.82509,0.10821
5964.75356,0.13151
5966.68203,0.15066
5968.61050,0.13276
5970.53897,0.09623
5972.46744,0.09905
5974.39591,0.13689
5976.32437,0.13387
5978.25284,0.08221
5980.18131,0.05773
5982.10978,0.07230
5984.03825,0.08517
5985.96672,0.10417
5987.89519,0.13622
5989.82366,0.16092
5991.75212,0.15033
5993.68059,0.09533
5995.60906,0.04527
5997.53753,0.02517
5999.46600,0.02259
6001.39447,0.03845
6003.32294,0.05906
6005.25140,0.08248
6007.17987,0.12083
6009.10834,0.14645
6011.03681,0.11495
6012.96528,0.06026
6014.89375,0.04011
6016.82222,0.03185
6018.75069,0.01107
6020.67915,0.00455
6022.60762,0.02090
6024.53609,0.04169
6026.46456,0.05738
6028.39303,0.07577
6030.32150,0.08677
6032.24997,0.07780
6034.17843,0.07621
6036.10690,0.08382
6038.03537,0.07973
6039.96384,0.07616
6041.89231,0.08221
6043.82078,0.09486
6045.74925,0.09056
6047.67772,0.06791
6049.60618,0.06137
6051.53465,0.06924
6053.46312,0.08125
6055.39159,0.10653
6057.32006,0.13070
6059.24853,0.12291
6061.17700,0.08226
6063.10546,0.05859
6065.03393,0.06060
6066.96240,0.04343
6068.89087,0.03717
6070.81934,0.06835
6072.74781,0.07591
6074.67628,0.05699
6076.60475,0.06883
6078.53321,0.10192
6080.46168,0.12923
6082.39015,0.14363
6084.31862,0.12310
6086.24709,0.07601
6088.17556,0.04451
6090.10403,0.02318
6092.03249,0.00831
6093.96096,0.02702
6095.88943,0.06247
6097.81790,0.08783
6099.74637,0.10722
6101.67484,0.12043
6103.60331,0.11907
6105.53177,0.08672
6107.46024,0.02258
6109.38871,-0.02694
6111.31718,-0.03426
6113.24565,-0.00680
6115.17412,0.04987
6117.10259,0.08058
6119.03106,0.04795
6120.95952,0.03134
6122.88799,0.06136
6124.81646,0.08891
6126.74493,0.11400
6128.67340,0.14351
6130.60187,0.15054
6132.53034,0.14050
6134.45880,0.13322
6136.38727,0.12459
6138.31574,0.10285
6140.24421,0.08237
6142.17268,0.10774
6144.10115,0.15837
6146.02962,0.17134
6147.95809,0.15739
6149.88655,0.13327
6151.81502,0.09767
6153.74349,0.06702
6155.67196,0.04791
6157.60043,0.05071
6159.52890,0.09365
6161.45737,0.14956
6163.38583,0.14210
6165.31430,0.07691
6167.24277,0.04548
6169.17124,0.03579
6171.09971,0.00831
6173.02818,0.01283
6174.95665,0.07286
6176.88512,0.12555
6178.81358,0.12394
6180.74205,0.10993
6182.67052,0.11603
6184.59899,0.11619
6186.52746,0.09142
6188.45593,0.05198
6190.38440,0.05425
6192.31286,0.10877
6194.24133,0.14821
6196.16980,0.15186
6198.09827,0.14450
6200.02674,0.14425
6201.95521,0.16248
6203.88368,0.16145
6205.81215,0.10958
6207.74061,0.07080
6209.66908,0.10303
6211.59755,0.14212
6213.52602,0.12898
6215.45449,0.10606
6217.38296,0.08497
6219.31143,0.07088
6221.23989,0.08117
6223.16836,0.10899
6225.09683,0.14559
6227.02530,0.14948
6228.95377,0.10403
6230.88224,0.09150
6232.81071,0.14205
6234.73918,0.15665
6236.66764,0.12572
6238.59611,0.11066
6240.52458,0.09453
6242.45305,0.07384
6244.38152,0.09136
6246.30999,0.11705
6248.23846,0.10410
6250.16692,0.09203
6252.09539,0.10948
6254.02386,0.10389
6255.95233,0.08372
6257.88080,0.11279
6259.80927,0.15115
6261.73774,0.14577
6263.66621,0.13676
6265.59467,0.14844
6267.52314,0.15608
6269.45161,0.13280
6271.38008,0.08770
6273.30855,0.07276
6275.23702,0.10239
6277.16549,0.12131
6279.09395,0.10333
6281.02242,0.08642
6282.95089,0.09519
6284.87936,0.08738
6286.80783,0.04587
6288.73630,0.03743
6290.66477,0.08760
6292.59323,0.12753
6294.52170,0.12584
6296.45017,0.10353
6298.37864,0.08193
6300.30711,0.06955
6302.23558,0.04525
6304.16405,0.01988
6306.09252,0.02412
6308.02098,0.02952
6309.94945,0.01055
6311.87792,-0.01832
6313.80639,-0.02755
6315.73486,0.02063
6317.66333,0.08237
6319.59180,0.09371
6321.52026,0.11875
6323.44873,0.17542
6325.37720,0.17540
6327.30567,0.13543
6329.23414,0.12385
6331.16261,0.13063
6333.09108,0.13503
6335.01955,0.15496
6336.94801,0.19024
6338.87648,0.21052
6340.80495,0.18390
6342.73342,0.13751
6344.66189,0.11868
6346.59036,0.11009
6348.51883,0.09071
6350.44729,0.07944
6352.37576,0.08614
6354.30423,0.08371
6356.23270,0.04412
6358.16117,-0.01039
6360.08964,-0.02680
6362.01811,0.01936
6363.94658,0.09319
6365.87504,0.14329
6367.80351,0.15328
6369.73198,0.13824
6371.66045,0.13178
6373.58892,0.13494
6375.51739,0.11721
6377.44586,0.10083
6379.37432,0.11701
6381.30279,0.14468
6383.23126,0.13275
6385.15973,0.09478
6387.08820,0.11308
6389.01667,0.16371
6390.94514,0.16915
6392.87361,0.11520
6394.80207,0.06200
6396.73054,0.05891
6398.65901,0.06658
6400.58748,0.07602
6402.51595,0.10292
6404.44442,0.11001
6406.37289,0.10665
6408.30135,0.14340
6410.22982,0.17945
6412.15829,0.13723
6414.08676,0.06358
6416.01523,0.02524
6417.94370,0.01863
6419.87217,0.02658
6421.80064,0.02731
6423.72910,0.04847
6425.65757,0.11206
6427.58604,0.14413
6429.51451,0.07741
6431.44298,-0.01180
6433.37145,0.00420
6435.29992,0.07930
6437.22838,0.09053
6439.15685,0.02765
6441.08532,-0.01726
6443.01379,-0.00587
6444.94226,0.02794
6446.87073,0.05007
6448.79920,0.07328
6450.72766,0.07816
6452.65613,0.03292
6454.58460,0.00097
6456.51307,0.03722
6458.44154,0.08532
6460.37001,0.08993
6462.29848,0.06725
6464.22695,0.04608
6466.15541,0.05287
6468.08388,0.05933
6470.01235,0.02231
6471.94082,-0.01163
6473.86929,0.00162
6475.79776,0.02858
6477.72623,0.02071
6479.65469,0.02650
6481.58316,0.08130
6483.51163,0.08892
6485.44010,0.04228
6487.36857,0.04408
6489.29704,0.08660
6491.22551,0.07002
6493.15398,0.01808
6495.08244,0.02593
6497.01091,0.07849
6498.93938,0.12718
6500.86785,0.13873
6502.79632,0.10782
6504.72479,0.08222
6506.65326,0.07310
6508.58172,0.05573
6510.51019,0.05963
6512.43866,0.11008
6514.36713,0.14324
6516.29560,0.10843
6518.22407,0.03597
6520.15254,-0.01022
6522.08101,-0.01593
6524.00947,-0.00426
6525.93794,0.01064
6527.86641,0.01544
6529.79488,0.02592
6531.72335,0.05707
6533.65182,0.07346
6535.58029,0.07141
6537.50875,0.04445
6539.43722,-0.00019
6541.36569,0.01891
6543.29416,0.10651
6545.22263,0.15674
6547.15110,0.14233
6549.07957,0.12564
6551.00804,0.11350
6552.93650,0.10223
6554.86497,0.11951
6556.79344,0.15700
6558.72191,0.19465
6560.65038,0.19195
6562.57885,0.15071
6564.50732,0.12662
6566.43578,0.13697
6568.36425,0.13897
6570.29272,0.08945
6572.22119,0.05356
6574.14966,0.08714
6576.07813,0.10207
6578.00660,0.06863
6579.93507,0.05098
6581.86353,0.04537
6583.79200,0.02898
6585.72047,0.02016
6587.64894,0.04101
6589.57741,0.07608
6591.50588,0.08970
6593.43435,0.08040
6595.36281,0.07518
6597.29128,0.10269
6599.21975,0.13627
6601.14822,0.11797
6603.07669,0.06502
6605.00516,0.02748
6606.93363,0.01052
6608.86210,0.01370
6610.79056,0.02501
6612.71903,0.02188
6614.64750,0.00408
6616.57597,-0.00185
6618.50444,0.02290
6620.43291,0.03412
6622.36138,0.01580
6624.28984,0.03706
6626.21831,0.09945
6628.14678,0.11986
6630.07525,0.08655
6632.00372,0.07014
6633.93219,0.09083
6635.86066,0.11394
6637.78912,0.10944
6639.71759,0.10640
6641.64606,0.08974
6643.57453,-0.02388
6645.50300,-0.17314
6647.43147,-0.19871
6649.35994,-0.15332
6651.28841,-0.13561
6653.21687,-0.09501
6655.14534,-0.00931
6657.07381,0.06760
6659.00228,0.12051
6660.93075,0.15581
6662.85922,0.16572
6664.78769,0.14490
6666.71615,0.08554
6668.64462,0.03912
6670.57309,0.08540
6672.50156,0.17408
6674.43003,0.17994
6676.35850,0.12739
6678.28697,0.08977
6680.21544,0.07022
6682.14390,0.05322
6684.07237,0.03784
6686.00084,0.02577
6687.92931,0.00727
6689.85778,0.00028
6691.78625,0.02849
6693.71472,0.05434
6695.64318,0.04370
6697.57165,0.00538
6699.50012,-0.03655
6701.42859,-0.03820
6703.35706,0.02787
6705.28553,0.07563
6707.21400,0.05188
6709.14247,0.03552
6711.07093,0.05221
6712.99940,0.06000
6714.92787,0.05842
6716.85634,0.06115
6718.78481,0.06004
6720.71328,0.05225
6722.64175,0.06754
6724.57021,0.10759
6726.49868,0.12531
6728.42715,0.12180
6730.35562,0.11137
6732.28409,0.08257
6734.21256,0.06563
6736.14103,0.07730
6738.06950,0.09043
6739.99796,0.10258
6741.92643,0.12179
6743.85490,0.10716
6745.78337,0.04279
6747.71184,-0.01238
6749.64031,-0.02431
6751.56878,-0.03453
6753.49724,-0.07374
6755.42571,-0.11428
6757.35418,-0.09817
6759.28265,-0.00136
6761.21112,0.06757
6763.13959,0.00677
6765.06806,-0.05951
6766.99653,-0.02403
6768.92499,0.08665
6770.85346,0.18849
6772.78193,0.18101
6774.71040,0.08389
6776.63887,0.02506
6778.56734,0.04026
6780.49581,0.08371
6782.42427,0.11880
6784.35274,0.09859
6786.28121,0.02759
6788.20968,-0.04502
6790.13815,-0.09071
6792.06662,-0.07082
6793.99509,0.00546
6795.92355,0.05210
6797.85202,0.05119
6799.78049,0.05420
6801.70896,0.07083
6803.63743,0.09636
6805.56590,0.13818
6807.49437,0.14295
6809.42284,0.07192
6811.35130,0.02503
6813.27977,0.07061
6815.20824,0.09128
6817.13671,0.06818
6819.06518,0.09781
6820.99365,0.17057
6822.92212,0.20605
6824.85058,0.17955
6826.77905,0.12121
6828.70752,0.02632
6830.63599,-0.05017
6832.56446,-0.03976
6834.49293,0.00739
6836.42140,0.03571
6838.34987,0.04792
6840.27833,0.03507
6842.20680,0.02420
6844.13527,0.07027
6846.06374,0.15898
6847.99221,0.20602
6849.92068,0.12813
6851.84915,0.01030
6853.77761,0.00013
6855.70608,0.12622
6857.63455,0.21400
6859.56302,0.16652
6861.49149,0.07814
6863.41996,0.03985
6865.34843,0.04134
6867.27690,0.03946
6869.20536,0.05611
6871.13383,0.09025
6873.06230,0.11129
6874.99077,0.12303
6876.91924,0.13471
6878.84771,0.14595
6880.77618,0.13247
6882.70464,0.11590
6884.63311,0.14485
6886.56158,0.18802
6888.49005,0.17034
6890.41852,0.09203
6892.34699,0.03262
6894.27546,0.01273
6896.20393,0.02372
6898.13239,0.06598
6900.06086,0.08601
6901.98933,0.08076
6903.91780,0.07125
6905.84627,0.02071
6907.77474,0.00802
6909.70321,0.15126
6911.63167,0.31060
6913.56014,0.28559
6915.48861,0.12481
6917.41708,-0.01070
6919.34555,-0.06401
6921.27402,-0.05378
6923.20249,-0.01834
6925.13096,-0.03699
6927.05942,-0.09146
6928.98789,-0.08676
6930.91636,-0.07472
6932.84483,-0.08524
6934.77330,-0.02718
6936.70177,0.02379
6938.63024,0.01138
6940.55870,0.03584
6942.48717,0.10793
6944.41564,0.17616
6946.34411,0.24116
6948.27258,0.23435
6950.20105,0.15998
6952.12952,0.09281
6954.05799,0.05303
6955.98645,0.05159
6957.91492,0.06859
6959.84339,0.05896
6961.77186,0.02193
6963.70033,-0.00833
6965.62880,0.01530
6967.55727,0.07344
6969.48573,0.04846
6971.41420,-0.03416
6973.34267,-0.02690
6975.27114,0.00445
6977.19961,-0.05244
6979.12808,-0.09810
6981.05655,-0.05881
6982.98501,0.02979
6984.91348,0.08098
6986.84195,0.06562
6988.77042,0.05224
6990.69889,0.03446
6992.62736,-0.03483
6994.55583,-0.12423
6996.48430,-0.15577
6998.41276,-0.06634
7000.34123,0.04326
7002.26970,0.06357
7004.19817,0.04711
7006.12664,0.03208
7008.05511,0.01753
7009.98358,-0.00895
7011.91204,-0.03945
7013.84051,-0.06114
7015.76898,-0.08356
7017.69745,-0.08403
7019.62592,-0.06958
7021.55439,-0.10568
7023.48286,-0.12614
7025.41133,-0.00649
7027.33979,0.18238
7029.26826,0.24760
7031.19673,0.17589
7033.12520,0.14177
7035.05367,0.15797
7036.98214,0.09911
7038.91061,0.01679
7040.83907,0.03532
7042.76754,0.13533
7044.69601,0.20721
7046.62448,0.22028
7048.55295,0.17976
7050.48142,0.11422
7052.40989,0.06542
7054.33836,0.04623
7056.26682,0.01128
7058.19529,-0.07041
7060.12376,-0.07855
7062.05223,0.00886
7063.98070,0.03552
7065.90917,0.00611
7067.83764,0.01171
7069.76610,0.03176
7071.69457,0.08328
7073.62304,0.07936
7075.55151,0.00480
7077.47998,0.01763
7079.40845,0.10518
7081.33692,0.09130
7083.26539,-0.01223
7085.19385,-0.06680
7087.12232,-0.11624
7089.05079,-0.18593
7090.97926,-0.14613
7092.90773,-0.05731
7094.83620,-0.05516
7096.76467,-0.01401
7098.69313,0.06655
7100.62160,0.02912
7102.55007,-0.02231
7104.47854,0.01422
7106.40701,0.07831
7108.33548,0.09185
7110.26395,0.07506
7112.19242,0.03932
7114.12088,0.01281
7116.04935,0.03453
7117.97782,0.10055
7119.90629,0.18948
7121.83476,0.20939
7123.76323,0.15891
7125.69170,0.16016
7127.62016,0.17693
7129.54863,0.14208
7131.47710,0.13784
7133.40557,0.17039
7135.33404,0.14598
7137.26251,0.04943
7139.19098,-0.04516
7141.11944,-0.04662
7143.04791,0.02934
7144.97638,0.01088
7146.90485,-0.12109
7148.83332,-0.14492
7150.76179,-0.07555
7152.69026,-0.01815
7154.61873,0.03986
7156.54719,0.10735
7158.47566,0.15423
7160.40413,0.16123
7162.33260,0.13560
7164.26107,0.12389
7166.18954,0.20193
7168.11801,0.28583
7170.04647,0.21442
7171.97494,0.12839
7173.90341,0.18158
7175.83188,0.16463
7177.76035,-0.01882
7179.68882,-0.14885
7181.61729,-0.19814
7183.54576,-0.24245
7185.47422,-0.16454
7187.40269,-0.00512
7189.33116,0.05172
7191.25963,-0.00841
7193.18810,-0.05708
7195.11657,-0.06955
7197.04504,-0.05959
7198.97350,-0.03027
7200.90197,-0.01604
7202.83044,-0.03173
7204.75891,-0.04565
7206.68738,-0.02320
7208.61585,-0.02038
7210.54432,-0.01123
7212.47279,0.05224
7214.40125,0.10557
7216.32972,0.07160
7218.25819,-0.03527
7220.18666,-0.06396
7222.11513,0.01455
7224.04360,0.09992
7225.97207,0.09177
7227.90053,0.01328
7229.82900,0.05455
7231.75747,0.20177
7233.68594,0.22837
7235.61441,0.12047
7237.54288,0.00265
7239.47135,-0.01561
7241.39982,0.03048
7243.32828,0.11441
7245.25675,0.20790
7247.18522,0.21358
7249.11369,0.10880
7251.04216,0.00287
7252.97063,0.01507
7254.89910,0.05276
7256.82756,0.07357
7258.75603,0.15552
7260.68450,0.26450
7262.61297,0.24193
7264.54144,0.09751
7266.46991,0.00491
7268.39838,0.01503
7270.32685,0.11165
7272.25531,0.19855
7274.18378,0.14194
7276.11225,0.04910
7278.04072,-0.02922
7279.96919,-0.07241
7281.89766,0.00309
7283.82613,0.06668
7285.75459,0.05316
7287.68306,0.08406
7289.61153,0.13627
7291.54000,0.11884
7293.46847,0.04650
7295.39694,-0.03731
7297.32541,0.02475
7299.25387,0.23777
7301.18234,0.39440
7303.11081,0.36841
7305.03928,0.17148
7306.96775,-0.09742
7308.89622,-0.26152
7310.82469,-0.21353
7312.75316,-0.05570
7314.68162,0.16283
7316.61009,0.35250
7318.53856,0.31712
7320.46703,0.19878
7322.39550,0.12507
7324.32397,0.06497
7326.25244,0.05368
7328.18090,0.06321
7330.10937,0.07197
7332.03784,0.23313
7333.96631,0.37419
7335.89478,0.28726
7337.82325,0.13806
7339.75172,0.13578
7341.68019,0.23560
7343.60865,0.23745
7345.53712,0.13492
7347.46559,0.09320
7349.39406,0.23848
7351.32253,0.29076
7353.25100,0.16626
7355.17947,0.11759
7357.10793,0.21903
7359.03640,0.28105
7360.96487,0.15854
7362.89334,0.05513
7364.82181,0.09840
7366.75028,0.17577
7368.67875,0.20187
7370.60722,0.13036
7372.53568,-0.01825
7374.46415,-0.08754
7376.39262,0.02709
7378.32109,0.06977
7380.24956,0.03671
7382.17803,0.03574
7384.10650,0.01603
7386.03496,-0.00788
7387.96343,0.02377
7389.89190,0.01452
7391.82037,-0.05627
7393.74884,-0.10326
7395.67731,-0.08481
7397.60578,0.00898
7399.53425,0.12799
7401.46271,0.16220
7403.39118,0.07118
7405.31965,-0.06240
7407.24812,-0.13340
7409.17659,-0.15146
7411.10506,-0.07907
7413.03353,0.13571
7414.96199,0.32054
7416.89046,0.33320
7418.81893,0.29043
7420.74740,0.22388
7422.67587,0.05306
7424.60434,-0.12168
7426.53281,-0.19460
7428.46128,-0.10331
7430.38974,0.07778
7432.31821,0.09581
7434.24668,0.03454
7436.17515,0.08363
7438.10362,0.12444
7440.03209,0.04454
7441.96056,-0.03238
7443.88902,-0.09398
7445.81749,-0.20386
7447.74596,-0.22517
7449.67443,-0.07047
7451.60290,0.15517
7453.53137,0.31638
7455.45984,0.32361
7457.38831,0.27325
7459.31677,0.27966
7461.24524,0.22480
7463.17371,0.07823
7465.10218,0.01205
7467.03065,0.04556
7468.95912,0.03718
7470.88759,-0.05847
7472.81605,-0.05388
7474.74452,0.14314
7476.67299,0.30391
7478.60146,0.23820
7480.52993,0.09700
7482.45840,0.07574
7484.38687,0.12423
7486.31533,0.14197
7488.24380,0.14777
7490.17227,0.20877
7492.10074,0.15909
7494.02921,-0.04480
7495.95768,-0.14993
7497.88615,-0.05017
