399.19301,0.24353
401.12148,0.02871
403.04995,0.29632
404.97842,0.27952
406.90689,0.04040
408.83536,-0.06399
410.76382,0.03154
412.69229,0.13108
414.62076,0.10770
416.54923,-0.01369
418.47770,-0.08713
420.40617,0.01576
422.33464,0.06959
424.26311,0.00016
426.19157,-0.03820
428.12004,0.00133
430.04851,0.03820
431.97698,0.08591
433.90545,0.12759
435.83392,0.08172
437.76239,0.00912
439.69085,-0.00590
441.61932,0.02530
443.54779,0.07973
445.47626,0.16376
447.40473,0.20392
449.33320,0.12966
451.26167,0.03848
453.19013,0.02823
455.11860,0.05057
457.04707,0.04176
458.97554,0.02830
460.90401,0.04253
462.83248,0.05601
464.76095,0.06543
466.68942,0.09298
468.61788,0.11443
470.54635,0.09616
472.47482,0.10934
474.40329,0.25567
476.33176,0.27937
478.26023,0.18387
480.18870,0.13154
482.11716,0.12372
484.04563,0.11102
485.97410,0.10734
487.90257,0.11639
489.83104,0.08727
491.75951,0.04740
493.68798,0.05789
495.61645,0.07739
497.54491,0.07049
499.47338,0.08896
501.40185,0.13318
503.33032,0.11475
505.25879,0.03215
507.18726,0.00286
509.11573,0.07479
511.04419,0.11801
512.97266,0.06728
514.90113,0.01736
516.82960,0.03918
518.75807,0.09673
520.68654,0.11073
522.61501,0.06922
524.54348,0.05616
526.47194,0.09895
528.40041,0.11778
530.32888,0.08776
532.25735,0.05913
534.18582,0.07916
536.11429,0.11683
538.04276,0.12683
539.97122,0.11417
541.89969,0.09604
543.82816,0.09774
545.75663,0.10684
547.68510,0.09135
549.61357,0.07122
551.54204,0.09362
553.47051,0.13291
555.39897,0.12162
557.32744,0.07931
559.25591,0.04919
561.18438,0.03040
563.11285,0.04105
565.04132,0.07982
566.96979,0.10103
568.89825,0.09259
570.82672,0.09072
572.75519,0.10501
574.68366,0.10779
576.61213,0.09812
578.54060,0.10654
580.46907,0.11989
582.39754,0.11039
584.32600,0.08607
586.25447,0.05797
588.18294,0.04504
590.11141,0.05770
592.03988,0.07914
593.96835,0.09600
595.89682,0.10945
597.82528,0.11898
599.75375,0.12365
601.68222,0.13060
603.61069,0.13128
605.53916,0.11744
607.46763,0.10814
609.39610,0.11369
611.32456,0.11765
613.25303,0.10932
615.18150,0.10351
617.10997,0.10461
619.03844,0.09698
620.96691,0.08748
622.89538,0.09613
624.82385,0.11553
626.75231,0.12667
628.68078,0.12760
630.60925,0.12611
632.53772,0.12672
634.46619,0.12600
636.39466,0.11105
638.32313,0.08585
640.25159,0.08040
642.18006,0.09775
644.10853,0.10609
646.03700,0.10722
647.96547,0.11723
649.89394,0.11517
651.82241,0.10122
653.75088,0.10682
655.67934,0.12078
657.60781,0.11900
659.53628,0.11467
661.46475,0.11629
663.39322,0.11077
665.32169,0.10328
667.25016,0.10897
669.17862,0.12211
671.10709,0.12107
673.03556,0.11603
674.96403,0.11919
676.89250,0.12901
678.82097,0.13381
680.74944,0.12990
682.67791,0.11928
684.60637,0.10729
686.53484,0.10517
688.46331,0.10952
690.39178,0.10661
692.32025,0.10336
694.24872,0.10703
696.17719,0.10933
698.10565,0.10767
700.03412,0.10564
701.96259,0.10000
703.89106,0.09360
705.81953,0.10052
707.74800,0.11864
709.67647,0.12714
711.60494,0.12045
713.53340,0.11684
715.46187,0.11953
717.39034,0.11626
719.31881,0.11467
721.24728,0.11951
723.17575,0.12589
725.10422,0.13664
727.03268,0.14170
728.96115,0.13222
730.88962,0.12333
732.81809,0.12233
734.74656,0.12175
736.67503,0.12072
738.60350,0.11766
740.53197,0.10961
742.46043,0.10191
744.38890,0.10695
746.31737,0.12460
748.24584,0.13512
750.17431,0.13523
752.10278,0.13977
754.03125,0.14737
755.95971,0.14736
757.88818,0.14148
759.81665,0.13664
761.74512,0.13371
763.67359,0.13093
765.60206,0.13103
767.53053,0.13533
769.45900,0.13777
771.38746,0.13498
773.31593,0.12914
775.24440,0.12458
777.17287,0.12346
779.10134,0.12408
781.02981,0.12579
782.95828,0.12518
784.88674,0.11709
786.81521,0.10791
788.74368,0.10994
790.67215,0.12205
792.60062,0.13376
794.52909,0.13513
796.45756,0.12771
798.38602,0.12257
800.31449,0.11913
802.24296,0.11601
804.17143,0.12030
806.09990,0.12755
808.02837,0.12639
809.95684,0.11938
811.88531,0.11828
813.81377,0.12803
815.74224,0.14036
817.67071,0.13677
819.59918,0.11755
821.52765,0.10977
823.45612,0.11989
825.38459,0.13012
827.31305,0.13432
829.24152,0.13254
831.16999,0.12822
833.09846,0.12681
835.02693,0.12411
836.95540,0.12240
838.88387,0.12461
840.81234,0.12587
842.74080,0.13092
844.66927,0.13761
846.59774,0.13567
848.52621,0.13138
850.45468,0.13169
852.38315,0.12886
854.31162,0.12370
856.24008,0.12663
858.16855,0.13150
860.09702,0.13014
862.02549,0.12807
863.95396,0.12976
865.88243,0.13454
867.81090,0.14760
869.73937,0.16906
871.66783,0.17158
873.59630,0.14962
875.52477,0.13734
877.45324,0.13835
879.38171,0.13596
881.31018,0.13324
883.23865,0.13303
885.16711,0.13471
887.09558,0.13704
889.02405,0.13406
890.95252,0.12952
892.88099,0.13012
894.80946,0.13073
896.73793,0.12782
898.66640,0.12699
900.59486,0.13421
902.52333,0.14566
904.45180,0.15157
906.38027,0.15261
908.30874,0.15305
910.23721,0.14941
912.16568,0.14508
914.09414,0.14993
916.02261,0.15778
917.95108,0.15324
919.87955,0.13701
921.80802,0.12626
923.73649,0.12858
925.66496,0.13732
927.59343,0.14546
929.52189,0.14707
931.45036,0.14433
933.37883,0.14017
935.30730,0.13384
937.23577,0.13296
939.16424,0.14089
941.09271,0.14864
943.02117,0.15110
944.94964,0.15001
946.87811,0.14369
948.80658,0.13586
950.73505,0.13545
952.66352,0.13987
954.59199,0.14356
956.52045,0.14633
958.44892,0.14607
960.37739,0.14083
962.30586,0.13503
964.23433,0.13481
966.16280,0.13657
968.09127,0.13590
970.01974,0.13595
971.94820,0.13887
973.87667,0.14435
975.80514,0.14568
977.73361,0.14124
979.66208,0.14011
981.59055,0.14159
983.51902,0.14032
985.44748,0.14297
987.37595,0.15375
989.30442,0.15900
991.23289,0.15341
993.16136,0.14951
995.08983,0.14716
997.01830,0.14202
998.94677,0.14082
1000.87523,0.14347
1002.80370,0.14509
1004.73217,0.14722
1006.66064,0.15105
1008.58911,0.15545
1010.51758,0.15699
1012.44605,0.15088
1014.37451,0.14224
1016.30298,0.14273
1018.23145,0.15076
1020.15992,0.15314
1022.08839,0.14831
1024.01686,0.14566
1025.94533,0.14734
1027.87380,0.14674
1029.80226,0.14190
1031.73073,0.13629
1033.65920,0.13142
1035.58767,0.13324
1037.51614,0.14365
1039.44461,0.15224
1041.37308,0.15256
1043.30154,0.15006
1045.23001,0.14984
1047.15848,0.14930
1049.08695,0.14949
1051.01542,0.15445
1052.94389,0.15724
1054.87236,0.14938
1056.80083,0.14126
1058.72929,0.14455
1060.65776,0.15178
1062.58623,0.15586
1064.51470,0.16172
1066.44317,0.17094
1068.37164,0.17591
1070.30011,0.17302
1072.22857,0.16662
1074.15704,0.16273
1076.08551,0.16398
1078.01398,0.16760
1079.94245,0.16614
1081.87092,0.15558
1083.79939,0.14763
1085.72786,0.15276
1087.65632,0.16055
1089.58479,0.15828
1091.51326,0.14927
1093.44173,0.14368
1095.37020,0.14487
1097.29867,0.15055
1099.22714,0.15540
1101.15560,0.15716
1103.08407,0.15967
1105.01254,0.16271
1106.94101,0.16277
1108.86948,0.15994
1110.79795,0.15622
1112.72642,0.15503
1114.65489,0.15485
1116.58335,0.15150
1118.51182,0.14920
1120.44029,0.14877
1122.36876,0.14668
1124.29723,0.14663
1126.22570,0.15048
1128.15417,0.15186
1130.08263,0.14642
1132.01110,0.14071
1133.93957,0.14205
1135.86804,0.14858
1137.79651,0.15321
1139.72498,0.15485
1141.65345,0.15953
1143.58191,0.16382
1145.51038,0.16246
1147.43885,0.16144
1149.36732,0.16354
1151.29579,0.16386
1153.22426,0.16093
1155.15273,0.15774
1157.08120,0.15555
1159.00966,0.15728
1160.93813,0.16404
1162.86660,0.16812
1164.79507,0.16589
1166.72354,0.16315
1168.65201,0.16409
1170.58048,0.16587
1172.50894,0.16362
1174.43741,0.15967
1176.36588,0.16045
1178.29435,0.16484
1180.22282,0.16736
1182.15129,0.16566
1184.07976,0.16241
1186.00823,0.16386
1187.93669,0.16928
1189.86516,0.17019
1191.79363,0.16513
1193.72210,0.16007
1195.65057,0.15820
1197.57904,0.15822
1199.50751,0.15875
1201.43597,0.16092
1203.36444,0.16304
1205.29291,0.16064
1207.22138,0.15711
1209.14985,0.15720
1211.07832,0.15844
1213.00679,0.16066
1214.93526,0.16402
1216.86372,0.16474
1218.79219,0.16325
1220.72066,0.16191
1222.64913,0.16087
1224.57760,0.16132
1226.50607,0.16251
1228.43454,0.16086
1230.36300,0.15743
1232.29147,0.15697
1234.21994,0.15832
1236.14841,0.15795
1238.07688,0.15882
1240.00535,0.16272
1241.93382,0.16520
1243.86229,0.16260
1245.79075,0.15739
1247.71922,0.15688
1249.64769,0.16148
1251.57616,0.16287
1253.50463,0.16034
1255.43310,0.15903
1257.36157,0.15785
1259.29003,0.15531
1261.21850,0.15425
1263.14697,0.15570
1265.07544,0.15599
1267.00391,0.15211
1268.93238,0.14835
1270.86085,0.15100
1272.78932,0.15637
1274.71778,0.15635
1276.64625,0.15542
1278.57472,0.15900
1280.50319,0.15851
1282.43166,0.15445
1284.36013,0.15634
1286.28860,0.15823
1288.21706,0.15776
1290.14553,0.16105
1292.07400,0.16110
1294.00247,0.15397
1295.93094,0.14873
1297.85941,0.14752
1299.78788,0.14067
1301.71634,0.12064
1303.64481,0.09721
1305.57328,0.09938
1307.50175,0.13234
1309.43022,0.15915
1311.35869,0.16434
1313.28716,0.16561
1315.21563,0.16903
1317.14409,0.17142
1319.07256,0.17090
1321.00103,0.16710
1322.92950,0.16515
1324.85797,0.16425
1326.78644,0.16192
1328.71491,0.16098
1330.64337,0.15550
1332.57184,0.14895
1334.50031,0.15199
1336.42878,0.15771
1338.35725,0.16050
1340.28572,0.15608
1342.21419,0.14729
1344.14266,0.14082
1346.07112,0.13679
1347.99959,0.14300
1349.92806,0.15204
1351.85653,0.15249
1353.78500,0.15226
1355.71347,0.15569
1357.64194,0.16114
1359.57040,0.16621
1361.49887,0.16843
1363.42734,0.16777
1365.35581,0.16734
1367.28428,0.16952
1369.21275,0.17300
1371.14122,0.17587
1373.06969,0.17791
1374.99815,0.17870
1376.92662,0.17885
1378.85509,0.17940
1380.78356,0.17934
1382.71203,0.18011
1384.64050,0.18216
1386.56897,0.18339
1388.49743,0.18276
1390.42590,0.18173
1392.35437,0.18357
1394.28284,0.18799
1396.21131,0.19198
1398.13978,0.19193
1400.06825,0.18702
1401.99672,0.18233
1403.92518,0.17938
1405.85365,0.17763
1407.78212,0.17716
1409.71059,0.17682
1411.63906,0.17700
1413.56753,0.17841
1415.49600,0.18123
1417.42446,0.18636
1419.35293,0.18915
1421.28140,0.18473
1423.20987,0.17998
1425.13834,0.17809
1427.06681,0.17951
1428.99528,0.18338
1430.92375,0.18462
1432.85221,0.18390
1434.78068,0.18824
1436.70915,0.19426
1438.63762,0.18998
1440.56609,0.18133
1442.49456,0.17861
1444.42303,0.18296
1446.35149,0.18655
1448.27996,0.18481
1450.20843,0.18328
1452.13690,0.18629
1454.06537,0.19330
1455.99384,0.20467
1457.92231,0.21128
1459.85077,0.20329
1461.77924,0.19600
1463.70771,0.19374
1465.63618,0.19160
1467.56465,0.18895
1469.49312,0.19403
1471.42159,0.20752
1473.35006,0.21402
1475.27852,0.20550
1477.20699,0.19487
1479.13546,0.18816
1481.06393,0.18574
1482.99240,0.18534
1484.92087,0.18977
1486.84934,0.20209
1488.77780,0.21184
1490.70627,0.20545
1492.63474,0.19710
1494.56321,0.19711
1496.49168,0.19977
1498.42015,0.19664
1500.34862,0.19207
1502.27709,0.19310
1504.20555,0.20175
1506.13402,0.22064
1508.06249,0.22563
1509.99096,0.20887
1511.91943,0.19942
1513.84790,0.20128
1515.77637,0.20814
1517.70483,0.21452
1519.63330,0.22006
1521.56177,0.21953
1523.49024,0.21010
1525.41871,0.20313
1527.34718,0.19726
1529.27565,0.19161
1531.20412,0.19277
1533.13258,0.19956
1535.06105,0.20391
1536.98952,0.21044
1538.91799,0.22389
1540.84646,0.23041
1542.77493,0.22314
1544.70340,0.21107
1546.63186,0.19934
1548.56033,0.19626
1550.48880,0.19939
1552.41727,0.20262
1554.34574,0.20611
1556.27421,0.21326
1558.20268,0.22252
1560.13115,0.21242
1562.05961,0.20183
1563.98808,0.20023
1565.91655,0.19931
1567.84502,0.19780
1569.77349,0.19813
1571.70196,0.19910
1573.63043,0.20024
1575.55889,0.20092
1577.48736,0.19998
1579.41583,0.19788
1581.34430,0.19448
1583.27277,0.19141
1585.20124,0.18955
1587.12971,0.18881
1589.05818,0.19066
1590.98664,0.19303
1592.91511,0.19291
1594.84358,0.19115
1596.77205,0.18944
1598.70052,0.18907
1600.62899,0.18949
1602.55746,0.19031
1604.48592,0.19085
1606.41439,0.18917
1608.34286,0.18783
1610.27133,0.19085
1612.19980,0.19525
1614.12827,0.19731
1616.05674,0.19827
1617.98521,0.19851
1619.91367,0.19965
1621.84214,0.20441
1623.77061,0.20711
1625.69908,0.20197
1627.62755,0.19545
1629.55602,0.19413
1631.48449,0.19883
1633.41295,0.20750
1635.34142,0.21618
1637.26989,0.21457
1639.19836,0.20895
1641.12683,0.20561
1643.05530,0.20593
1644.98377,0.21260
1646.91223,0.22276
1648.84070,0.22601
1650.76917,0.22817
1652.69764,0.23100
1654.62611,0.21909
1656.55458,0.20692
1658.48305,0.20113
1660.41152,0.20018
1662.33998,0.20260
1664.26845,0.20360
1666.19692,0.20405
1668.12539,0.20742
1670.05386,0.20977
1671.98233,0.20681
1673.91080,0.20479
1675.83926,0.20385
1677.76773,0.20250
1679.69620,0.20438
1681.62467,0.21123
1683.55314,0.22286
1685.48161,0.22524
1687.41008,0.21461
1689.33855,0.20450
1691.26701,0.20010
1693.19548,0.20122
1695.12395,0.20579
1697.05242,0.21206
1698.98089,0.21380
1700.90936,0.20836
1702.83783,0.20545
1704.76629,0.20634
1706.69476,0.20536
1708.62323,0.20242
1710.55170,0.20024
1712.48017,0.20077
1714.40864,0.20759
1716.33711,0.21736
1718.26558,0.21473
1720.19404,0.20591
1722.12251,0.20065
1724.05098,0.19603
1725.97945,0.19268
1727.90792,0.19400
1729.83639,0.20000
1731.76486,0.20842
1733.69332,0.21188
1735.62179,0.20381
1737.55026,0.19880
1739.47873,0.20035
1741.40720,0.20153
1743.33567,0.19862
1745.26414,0.19483
1747.19261,0.19402
1749.12107,0.19788
1751.04954,0.20064
1752.97801,0.19720
1754.90648,0.19332
1756.83495,0.19317
1758.76342,0.19671
1760.69189,0.20058
1762.62035,0.20056
1764.54882,0.19814
1766.47729,0.19764
1768.40576,0.19936
1770.33423,0.20331
1772.26270,0.20683
1774.19117,0.20359
1776.11964,0.19737
1778.04810,0.19425
1779.97657,0.19593
1781.90504,0.19762
1783.83351,0.19604
1785.76198,0.19381
1787.69045,0.19247
1789.61892,0.19360
1791.54738,0.19745
1793.47585,0.19843
1795.40432,0.19590
1797.33279,0.19655
1799.26126,0.20004
1801.18973,0.19976
1803.11820,0.19693
1805.04666,0.19645
1806.97513,0.19640
1808.90360,0.19580
1810.83207,0.19604
1812.76054,0.19525
1814.68901,0.19359
1816.61748,0.19276
1818.54595,0.19209
1820.47441,0.19200
1822.40288,0.19388
1824.33135,0.19608
1826.25982,0.19535
1828.18829,0.19528
1830.11676,0.19862
1832.04523,0.19914
1833.97369,0.19659
1835.90216,0.19564
1837.83063,0.19569
1839.75910,0.19467
1841.68757,0.19515
1843.61604,0.19790
1845.54451,0.19841
1847.47298,0.19687
1849.40144,0.19592
1851.32991,0.19479
1853.25838,0.19369
1855.18685,0.19306
1857.11532,0.19132
1859.04379,0.18938
1860.97226,0.19056
1862.90072,0.19465
1864.82919,0.19864
1866.75766,0.20132
1868.68613,0.20157
1870.61460,0.19895
1872.54307,0.19634
1874.47154,0.19471
1876.40001,0.19394
1878.32847,0.19380
1880.25694,0.19392
1882.18541,0.19447
1884.11388,0.19360
1886.04235,0.19051
1887.97082,0.18898
1889.89929,0.19042
1891.82775,0.19229
1893.75622,0.19418
1895.68469,0.19642
1897.61316,0.19788
1899.54163,0.19684
1901.47010,0.19389
1903.39857,0.19165
1905.32704,0.19059
1907.25550,0.19116
1909.18397,0.19387
1911.11244,0.19670
1913.04091,0.19785
1914.96938,0.19740
1916.89785,0.19580
1918.82632,0.19435
1920.75478,0.19537
1922.68325,0.19708
1924.61172,0.19585
1926.54019,0.19348
1928.46866,0.19317
1930.39713,0.19434
1932.32560,0.19492
1934.25407,0.19388
1936.18253,0.19172
1938.11100,0.19173
1940.03947,0.19642
1941.96794,0.20157
1943.89641,0.20076
1945.82488,0.19610
1947.75335,0.19287
1949.68181,0.19168
1951.61028,0.19157
1953.53875,0.19190
1955.46722,0.19208
1957.39569,0.19247
1959.32416,0.19350
1961.25263,0.19517
1963.18110,0.19684
1965.10956,0.19737
1967.03803,0.19641
1968.96650,0.19443
1970.89497,0.19293
1972.82344,0.19319
1974.75191,0.19442
1976.68038,0.19513
1978.60884,0.19503
1980.53731,0.19440
1982.46578,0.19340
1984.39425,0.19308
1986.32272,0.19325
1988.25119,0.19307
1990.17966,0.19434
1992.10812,0.19604
1994.03659,0.19536
1995.96506,0.19452
1997.89353,0.19540
1999.82200,0.19593
2001.75047,0.19488
2003.67894,0.19476
2005.60741,0.19617
2007.53587,0.19648
2009.46434,0.19626
2011.39281,0.19689
2013.32128,0.19728
2015.24975,0.19774
2017.17822,0.19876
2019.10669,0.19889
2021.03515,0.19871
2022.96362,0.19939
2024.89209,0.19967
2026.82056,0.19898
2028.74903,0.19801
2030.67750,0.19753
2032.60597,0.19790
2034.53444,0.19835
2036.46290,0.19850
2038.39137,0.19780
2040.31984,0.19610
2042.24831,0.19492
2044.17678,0.19526
2046.10525,0.19693
2048.03372,0.19796
2049.96218,0.19688
2051.89065,0.19577
2053.81912,0.19607
2055.74759,0.19693
2057.67606,0.19780
2059.60453,0.19755
2061.53300,0.19607
2063.46147,0.19553
2065.38993,0.19666
2067.31840,0.19777
2069.24687,0.19802
2071.17534,0.19856
2073.10381,0.19928
2075.03228,0.19861
2076.96075,0.19699
2078.88921,0.19573
2080.81768,0.19499
2082.74615,0.19484
2084.67462,0.19479
2086.60309,0.19365
2088.53156,0.19243
2090.46003,0.19333
2092.38850,0.19625
2094.31696,0.19810
2096.24543,0.19650
2098.17390,0.19359
2100.10237,0.19243
2102.03084,0.19396
2103.95931,0.19664
2105.88778,0.19708
2107.81624,0.19521
2109.74471,0.19442
2111.67318,0.19604
2113.60165,0.19796
2115.53012,0.19812
2117.45859,0.19828
2119.38706,0.20055
2121.31553,0.20236
2123.24399,0.20166
2125.17246,0.19993
2127.10093,0.19827
2129.02940,0.19735
2130.95787,0.19744
2132.88634,0.19765
2134.81481,0.19530
2136.74327,0.19104
2138.67174,0.19224
2140.60021,0.19880
2142.52868,0.20200
2144.45715,0.20098
2146.38562,0.19986
2148.31409,0.19960
2150.24255,0.20035
2152.17102,0.20086
2154.09949,0.19976
2156.02796,0.19774
2157.95643,0.19610
2159.88490,0.19589
2161.81337,0.19664
2163.74184,0.19693
2165.67030,0.19727
2167.59877,0.19886
2169.52724,0.20068
2171.45571,0.20094
2173.38418,0.19874
2175.31265,0.19556
2177.24112,0.19466
2179.16958,0.19618
2181.09805,0.19760
2183.02652,0.19753
2184.95499,0.19645
2186.88346,0.19607
2188.81193,0.19676
2190.74040,0.19725
2192.66887,0.19701
2194.59733,0.19683
2196.52580,0.19752
2198.45427,0.19861
2200.38274,0.19854
2202.31121,0.19723
2204.23968,0.19626
2206.16815,0.19647
2208.09661,0.19750
2210.02508,0.19750
2211.95355,0.19616
2213.88202,0.19597
2215.81049,0.19658
2217.73896,0.19683
2219.66743,0.19775
2221.59590,0.19861
2223.52436,0.19858
2225.45283,0.19932
2227.38130,0.20030
2229.30977,0.19983
2231.23824,0.19899
2233.16671,0.19846
2235.09518,0.19818
2237.02364,0.19851
2238.95211,0.19933
2240.88058,0.19971
2242.80905,0.19833
2244.73752,0.19597
2246.66599,0.19421
2248.59446,0.19385
2250.52293,0.19550
2252.45139,0.19797
2254.37986,0.19940
2256.30833,0.20049
2258.23680,0.20139
2260.16527,0.20020
2262.09374,0.19834
2264.02221,0.19769
2265.95067,0.19801
2267.87914,0.19899
2269.80761,0.19926
2271.73608,0.19812
2273.66455,0.19677
2275.59302,0.19642
2277.52149,0.19649
2279.44996,0.19621
2281.37842,0.19648
2283.30689,0.19757
2285.23536,0.19872
2287.16383,0.19932
2289.09230,0.19981
2291.02077,0.20130
2292.94924,0.20291
2294.87770,0.20339
2296.80617,0.20186
2298.73464,0.19720
2300.66311,0.19366
2302.59158,0.19487
2304.52005,0.19598
2306.44852,0.19409
2308.37699,0.19135
2310.30545,0.18906
2312.23392,0.18884
2314.16239,0.19349
2316.09086,0.20032
2318.01933,0.19936
2319.94780,0.19044
2321.87627,0.18653
2323.80473,0.18880
2325.73320,0.18844
2327.66167,0.18632
2329.59014,0.18628
2331.51861,0.18733
2333.44708,0.19070
2335.37555,0.19901
2337.30401,0.20498
2339.23248,0.20494
2341.16095,0.20632
2343.08942,0.20641
2345.01789,0.19987
2346.94636,0.19343
2348.87483,0.18924
2350.80330,0.18382
2352.73176,0.17616
2354.66023,0.16836
2356.58870,0.16369
2358.51717,0.16378
2360.44564,0.16276
2362.37411,0.16406
2364.30258,0.17768
2366.23104,0.19479
2368.15951,0.20428
2370.08798,0.20447
2372.01645,0.19765
2373.94492,0.19248
2375.87339,0.19471
2377.80186,0.19955
2379.73033,0.20101
2381.65879,0.20059
2383.58726,0.20154
2385.51573,0.20243
2387.44420,0.20155
2389.37267,0.20003
2391.30114,0.19949
2393.22961,0.20054
2395.15807,0.20163
2397.08654,0.20094
2399.01501,0.19946
2400.94348,0.19924
2402.87195,0.19981
2404.80042,0.19951
2406.72889,0.19843
2408.65736,0.19719
2410.58582,0.19579
2412.51429,0.19459
2414.44276,0.19526
2416.37123,0.19863
2418.29970,0.20139
2420.22817,0.20032
2422.15664,0.19791
2424.08510,0.19698
2426.01357,0.19654
2427.94204,0.19669
2429.87051,0.19696
2431.79898,0.19675
2433.72745,0.19811
2435.65592,0.19927
2437.58439,0.19763
2439.51285,0.19631
2441.44132,0.19777
2443.36979,0.19972
2445.29826,0.20008
2447.22673,0.19986
2449.15520,0.19936
2451.08367,0.19789
2453.01213,0.19763
2454.94060,0.19963
2456.86907,0.20059
2458.79754,0.19993
2460.72601,0.20035
2462.65448,0.20129
2464.58295,0.20138
2466.51142,0.20179
2468.43988,0.20232
2470.36835,0.20112
2472.29682,0.19865
2474.22529,0.19689
2476.15376,0.19697
2478.08223,0.19935
2480.01070,0.20220
2481.93916,0.20249
2483.86763,0.20124
2485.79610,0.20059
2487.72457,0.19976
2489.65304,0.19946
2491.58151,0.20088
2493.50998,0.20167
2495.43844,0.20070
2497.36691,0.20074
2499.29538,0.20138
2501.22385,0.19967
2503.15232,0.19799
2505.08079,0.19960
2507.00926,0.20247
2508.93773,0.20320
2510.86619,0.20252
2512.79466,0.20198
2514.72313,0.20066
2516.65160,0.19909
2518.58007,0.19834
2520.50854,0.19903
2522.43701,0.20125
2524.36547,0.20225
2526.29394,0.20103
2528.22241,0.20186
2530.15088,0.20610
2532.07935,0.20765
2534.00782,0.20383
2535.93629,0.19978
2537.86476,0.19961
2539.79322,0.20175
2541.72169,0.20239
2543.65016,0.20209
2545.57863,0.20277
2547.50710,0.20262
2549.43557,0.20019
2551.36404,0.19718
2553.29250,0.19711
2555.22097,0.20048
2557.14944,0.20369
2559.07791,0.20442
2561.00638,0.20309
2562.93485,0.20083
2564.86332,0.19965
2566.79179,0.20155
2568.72025,0.20580
2570.64872,0.20779
2572.57719,0.20487
2574.50566,0.20084
2576.43413,0.19899
2578.36260,0.19863
2580.29107,0.19868
2582.21953,0.19829
2584.14800,0.19735
2586.07647,0.19862
2588.00494,0.20346
2589.93341,0.20756
2591.86188,0.20743
2593.79035,0.20506
2595.71882,0.20371
2597.64728,0.20334
2599.57575,0.20274
2601.50422,0.20248
2603.43269,0.20273
2605.36116,0.20341
2607.28963,0.20369
2609.21810,0.20343
2611.14656,0.20353
2613.07503,0.20274
2615.00350,0.20274
2616.93197,0.20446
2618.86044,0.20386
2620.78891,0.20255
2622.71738,0.20406
2624.64585,0.20595
2626.57431,0.20696
2628.50278,0.20772
2630.43125,0.20758
2632.35972,0.20661
2634.28819,0.20609
2636.21666,0.20639
2638.14513,0.20589
2640.07359,0.20555
2642.00206,0.20745
2643.93053,0.21007
2645.85900,0.21122
2647.78747,0.21067
2649.71594,0.20948
2651.64441,0.20824
2653.57288,0.20689
2655.50134,0.20750
2657.42981,0.21033
2659.35828,0.21019
2661.28675,0.20662
2663.21522,0.20417
2665.14369,0.20329
2667.07216,0.20426
2669.00062,0.20662
2670.92909,0.20664
2672.85756,0.20443
2674.78603,0.20419
2676.71450,0.20660
2678.64297,0.20825
2680.57144,0.20752
2682.49990,0.20541
2684.42837,0.20429
2686.35684,0.20618
2688.28531,0.20932
2690.21378,0.20992
2692.14225,0.20883
2694.07072,0.20956
2695.99919,0.21056
2697.92765,0.20942
2699.85612,0.20851
2701.78459,0.20890
2703.71306,0.20953
2705.64153,0.21266
2707.57000,0.21631
2709.49847,0.21388
2711.42693,0.20879
2713.35540,0.20791
2715.28387,0.20915
2717.21234,0.20988
2719.14081,0.21145
2721.06928,0.21233
2722.99775,0.20894
2724.92622,0.20464
2726.85468,0.20587
2728.78315,0.21102
2730.71162,0.21445
2732.64009,0.21512
2734.56856,0.21442
2736.49703,0.21236
2738.42550,0.20956
2740.35396,0.20872
2742.28243,0.21130
2744.21090,0.21494
2746.13937,0.21511
2748.06784,0.21132
2749.99631,0.20838
2751.92478,0.20886
2753.85325,0.21122
2755.78171,0.21422
2757.71018,0.21680
2759.63865,0.21727
2761.56712,0.21563
2763.49559,0.21370
2765.42406,0.21317
2767.35253,0.21487
2769.28099,0.21645
2771.20946,0.21527
2773.13793,0.21334
2775.06640,0.21215
2776.99487,0.21093
2778.92334,0.21189
2780.85181,0.21670
2782.78028,0.22128
2784.70874,0.22234
2786.63721,0.22023
2788.56568,0.21706
2790.49415,0.21584
2792.42262,0.21566
2794.35109,0.21519
2796.27956,0.21576
2798.20802,0.21748
2800.13649,0.21903
2802.06496,0.21867
2803.99343,0.21732
2805.92190,0.21663
2807.85037,0.21513
2809.77884,0.21320
2811.70731,0.21282
2813.63577,0.21318
2815.56424,0.21404
2817.49271,0.21521
2819.42118,0.21449
2821.34965,0.21306
2823.27812,0.21385
2825.20659,0.21565
2827.13505,0.21664
2829.06352,0.21760
2830.99199,0.21783
2832.92046,0.21756
2834.84893,0.21885
2836.77740,0.22072
2838.70587,0.22198
2840.63433,0.22185
2842.56280,0.21986
2844.49127,0.21869
2846.41974,0.21971
2848.34821,0.22017
2850.27668,0.21893
2852.20515,0.21823
2854.13362,0.21879
2856.06208,0.21985
2857.99055,0.22014
2859.91902,0.21905
2861.84749,0.21749
2863.77596,0.21615
2865.70443,0.21689
2867.63290,0.21920
2869.56136,0.21863
2871.48983,0.21630
2873.41830,0.21639
2875.34677,0.21768
2877.27524,0.21860
2879.20371,0.21979
2881.13218,0.21835
2883.06065,0.21299
2884.98911,0.21216
2886.91758,0.21863
2888.84605,0.22286
2890.77452,0.22112
2892.70299,0.21667
2894.63146,0.21227
2896.55993,0.21102
2898.48839,0.21350
2900.41686,0.21586
2902.34533,0.21316
2904.27380,0.20615
2906.20227,0.20371
2908.13074,0.20923
2910.05921,0.21364
2911.98768,0.21266
2913.91614,0.20549
2915.84461,0.19372
2917.77308,0.19286
2919.70155,0.20426
2921.63002,0.21239
2923.55849,0.21150
2925.48696,0.20102
2927.41542,0.19288
2929.34389,0.20026
2931.27236,0.21273
2933.20083,0.21578
2935.12930,0.20465
2937.05777,0.19033
2938.98624,0.19431
2940.91471,0.21086
2942.84317,0.21878
2944.77164,0.21162
2946.70011,0.19454
2948.62858,0.18925
2950.55705,0.20381
2952.48552,0.21682
2954.41399,0.21440
2956.34245,0.19573
2958.27092,0.18152
2960.19939,0.19341
2962.12786,0.21205
2964.05633,0.21652
2965.98480,0.20986
2967.91327,0.20090
2969.84174,0.20309
2971.77020,0.21386
2973.69867,0.21792
2975.62714,0.21204
2977.55561,0.20219
2979.48408,0.20183
2981.41255,0.21273
2983.34102,0.21967
2985.26948,0.21704
2987.19795,0.20756
2989.12642,0.20275
2991.05489,0.21184
2992.98336,0.22077
2994.91183,0.22067
2996.84030,0.21903
2998.76877,0.21966
3000.69723,0.22239
3002.62570,0.22382
3004.55417,0.22084
3006.48264,0.21392
3008.41111,0.20303
3010.33958,0.18478
3012.26805,0.15256
3014.19651,0.10756
3016.12498,0.07567
3018.05345,0.09731
3019.98192,0.16288
3021.91039,0.21227
3023.83886,0.22506
3025.76733,0.22223
3027.69579,0.21780
3029.62426,0.21893
3031.55273,0.22400
3033.48120,0.22524
3035.40967,0.22103
3037.33814,0.21567
3039.26661,0.21556
3041.19508,0.21921
3043.12354,0.21989
3045.05201,0.21406
3046.98048,0.20451
3048.90895,0.20430
3050.83742,0.21375
3052.76589,0.21827
3054.69436,0.21197
3056.62282,0.19961
3058.55129,0.19704
3060.47976,0.20738
3062.40823,0.21509
3064.33670,0.21100
3066.26517,0.19978
3068.19364,0.19998
3070.12211,0.21421
3072.05057,0.22186
3073.97904,0.21064
3075.90751,0.19272
3077.83598,0.19346
3079.76445,0.20880
3081.69292,0.21332
3083.62139,0.20135
3085.54985,0.19017
3087.47832,0.19819
3089.40679,0.21493
3091.33526,0.21792
3093.26373,0.20432
3095.19220,0.19407
3097.12067,0.20264
3099.04914,0.21589
3100.97760,0.21644
3102.90607,0.20424
3104.83454,0.19910
3106.76301,0.21013
3108.69148,0.21901
3110.61995,0.21496
3112.54842,0.20440
3114.47688,0.20187
3116.40535,0.20978
3118.33382,0.21400
3120.26229,0.20618
3122.19076,0.19731
3124.11923,0.20310
3126.04770,0.21326
3127.97617,0.21352
3129.90463,0.20860
3131.83310,0.20690
3133.76157,0.21134
3135.69004,0.21796
3137.61851,0.21893
3139.54698,0.21442
3141.47545,0.21690
3143.40391,0.22641
3145.33238,0.22842
3147.26085,0.22140
3149.18932,0.21862
3151.11779,0.22534
3153.04626,0.23058
3154.97473,0.22942
3156.90320,0.22885
3158.83166,0.23108
3160.76013,0.23305
3162.68860,0.23351
3164.61707,0.23296
3166.54554,0.23275
3168.47401,0.23270
3170.40248,0.23155
3172.33094,0.22986
3174.25941,0.22889
3176.18788,0.22915
3178.11635,0.23050
3180.04482,0.23276
3181.97329,0.23503
3183.90176,0.23543
3185.83022,0.23273
3187.75869,0.22988
3189.68716,0.22950
3191.61563,0.23026
3193.54410,0.23165
3195.47257,0.23233
3197.40104,0.23125
3199.32951,0.23098
3201.25797,0.23303
3203.18644,0.23388
3205.11491,0.23098
3207.04338,0.22610
3208.97185,0.22124
3210.90032,0.21907
3212.82879,0.22112
3214.75725,0.22449
3216.68572,0.22520
3218.61419,0.22424
3220.54266,0.22443
3222.47113,0.22638
3224.39960,0.23019
3226.32807,0.23337
3228.25654,0.23232
3230.18500,0.22858
3232.11347,0.22651
3234.04194,0.22705
3235.97041,0.22753
3237.89888,0.22496
3239.82735,0.22378
3241.75582,0.22844
3243.68428,0.23294
3245.61275,0.23430
3247.54122,0.23487
3249.46969,0.23369
3251.39816,0.22978
3253.32663,0.22610
3255.25510,0.22495
3257.18357,0.22422
3259.11203,0.22456
3261.04050,0.22777
3262.96897,0.22856
3264.89744,0.22444
3266.82591,0.22349
3268.75438,0.22818
3270.68285,0.23110
3272.61131,0.23043
3274.53978,0.23059
3276.46825,0.23134
3278.39672,0.22962
3280.32519,0.22715
3282.25366,0.22714
3284.18213,0.22884
3286.11060,0.22648
3288.03906,0.22077
3289.96753,0.21966
3291.89600,0.22172
3293.82447,0.22319
3295.75294,0.22588
3297.68141,0.22750
3299.60988,0.22404
3301.53834,0.22018
3303.46681,0.22428
3305.39528,0.23461
3307.32375,0.23940
3309.25222,0.23275
3311.18069,0.22456
3313.10916,0.22348
3315.03763,0.22476
3316.96609,0.22408
3318.89456,0.22230
3320.82303,0.22173
3322.75150,0.22557
3324.67997,0.23220
3326.60844,0.23474
3328.53691,0.23074
3330.46537,0.22592
3332.39384,0.22569
3334.32231,0.22844
3336.25078,0.23092
3338.17925,0.23212
3340.10772,0.23067
3342.03619,0.22787
3343.96466,0.22857
3345.89312,0.23383
3347.82159,0.23921
3349.75006,0.24159
3351.67853,0.24091
3353.60700,0.23941
3355.53547,0.23967
3357.46394,0.23835
3359.39240,0.23399
3361.32087,0.23303
3363.24934,0.23564
3365.17781,0.23365
3367.10628,0.22831
3369.03475,0.22758
3370.96322,0.23065
3372.89168,0.23381
3374.82015,0.23451
3376.74862,0.23052
3378.67709,0.22453
3380.60556,0.22101
3382.53403,0.22239
3384.46250,0.22515
3386.39097,0.22636
3388.31943,0.22839
3390.24790,0.22787
3392.17637,0.22240
3394.10484,0.22047
3396.03331,0.22700
3397.96178,0.23439
3399.89025,0.23490
3401.81871,0.23000
3403.74718,0.22512
3405.67565,0.22337
3407.60412,0.22476
3409.53259,0.22673
3411.46106,0.22689
3413.38953,0.22729
3415.31800,0.23082
3417.24646,0.23487
3419.17493,0.23454
3421.10340,0.22955
3423.03187,0.22369
3424.96034,0.22089
3426.88881,0.22082
3428.81728,0.22066
3430.74574,0.22003
3432.67421,0.21757
3434.60268,0.21409
3436.53115,0.21480
3438.45962,0.21786
3440.38809,0.21574
3442.31656,0.21231
3444.24503,0.21619
3446.17349,0.22179
3448.10196,0.22187
3450.03043,0.21877
3451.95890,0.21570
3453.88737,0.21411
3455.81584,0.21422
3457.74431,0.21493
3459.67277,0.21432
3461.60124,0.21028
3463.52971,0.20376
3465.45818,0.20049
3467.38665,0.20374
3469.31512,0.20725
3471.24359,0.20808
3473.17206,0.21177
3475.10052,0.21409
3477.02899,0.21162
3478.95746,0.21084
3480.88593,0.20978
3482.81440,0.20499
3484.74287,0.20157
3486.67134,0.20135
3488.59980,0.20058
3490.52827,0.19964
3492.45674,0.20196
3494.38521,0.20610
3496.31368,0.20699
3498.24215,0.20137
3500.17062,0.19478
3502.09909,0.19420
3504.02755,0.19728
3505.95602,0.19996
3507.88449,0.20185
3509.81296,0.20110
3511.74143,0.19888
3513.66990,0.19723
3515.59837,0.19284
3517.52683,0.18736
3519.45530,0.18766
3521.38377,0.19311
3523.31224,0.19575
3525.24071,0.19434
3527.16918,0.19201
3529.09765,0.18479
3531.02611,0.17524
3532.95458,0.17206
3534.88305,0.17588
3536.81152,0.17982
3538.73999,0.17911
3540.66846,0.17946
3542.59693,0.18542
3544.52540,0.19191
3546.45386,0.19269
3548.38233,0.19097
3550.31080,0.19212
3552.23927,0.19249
3554.16774,0.18665
3556.09621,0.17796
3558.02468,0.17302
3559.95314,0.17406
3561.88161,0.17835
3563.81008,0.18173
3565.73855,0.18180
3567.66702,0.17716
3569.59549,0.17311
3571.52396,0.17328
3573.45243,0.17319
3575.38089,0.17072
3577.30936,0.16784
3579.23783,0.16564
3581.16630,0.16608
3583.09477,0.16997
3585.02324,0.17362
3586.95171,0.17066
3588.88017,0.16325
3590.80864,0.16241
3592.73711,0.16686
3594.66558,0.16997
3596.59405,0.16946
3598.52252,0.16869
3600.45099,0.16750
3602.37946,0.16397
3604.30792,0.16172
3606.23639,0.16435
3608.16486,0.16976
3610.09333,0.17326
3612.02180,0.17301
3613.95027,0.16911
3615.87874,0.16635
3617.80720,0.16773
3619.73567,0.16895
3621.66414,0.16527
3623.59261,0.15873
3625.52108,0.15505
3627.44955,0.15966
3629.37802,0.16812
3631.30649,0.16689
3633.23495,0.16109
3635.16342,0.15600
3637.09189,0.15212
3639.02036,0.14822
3640.94883,0.14576
3642.87730,0.14789
3644.80577,0.15345
3646.73423,0.15984
3648.66270,0.16164
3650.59117,0.15310
3652.51964,0.14636
3654.44811,0.14573
3656.37658,0.14775
3658.30505,0.14874
3660.23352,0.14901
3662.16198,0.14859
3664.09045,0.14775
3666.01892,0.15018
3667.94739,0.15633
3669.87586,0.16059
3671.80433,0.15795
3673.73280,0.15603
3675.66126,0.15663
3677.58973,0.15114
3679.51820,0.14337
3681.44667,0.13922
3683.37514,0.13963
3685.30361,0.14161
3687.23208,0.14452
3689.16055,0.14961
3691.08901,0.14651
3693.01748,0.13879
3694.94595,0.13730
3696.87442,0.14098
3698.80289,0.14505
3700.73136,0.14447
3702.65983,0.14001
3704.58829,0.13804
3706.51676,0.14044
3708.44523,0.14672
3710.37370,0.15016
3712.30217,0.14192
3714.23064,0.13631
3716.15911,0.13869
3718.08757,0.14071
3720.01604,0.13970
3721.94451,0.13752
3723.87298,0.13648
3725.80145,0.13753
3727.72992,0.14014
3729.65839,0.14604
3731.58686,0.15463
3733.51532,0.16104
3735.44379,0.15910
3737.37226,0.14863
3739.30073,0.14027
3741.22920,0.13964
3743.15767,0.14783
3745.08614,0.15918
3747.01460,0.16002
3748.94307,0.15596
3750.87154,0.15500
3752.80001,0.15554
3754.72848,0.15171
3756.65695,0.14673
3758.58542,0.14375
3760.51389,0.14057
3762.44235,0.13697
3764.37082,0.13404
3766.29929,0.13341
3768.22776,0.13798
3770.15623,0.14323
3772.08470,0.14204
3774.01317,0.13788
3775.94163,0.13669
3777.87010,0.13826
3779.79857,0.13860
3781.72704,0.13829
3783.65551,0.13922
3785.58398,0.13972
3787.51245,0.13945
3789.44092,0.13884
3791.36938,0.13786
3793.29785,0.13728
3795.22632,0.13673
3797.15479,0.13771
3799.08326,0.14231
3801.01173,0.14663
3802.94020,0.14377
3804.86866,0.13916
3806.79713,0.13855
3808.72560,0.14024
3810.65407,0.14114
3812.58254,0.14064
3814.51101,0.14002
3816.43948,0.14119
3818.36795,0.14575
3820.29641,0.15162
3822.22488,0.14790
3824.15335,0.14090
3826.08182,0.13912
3828.01029,0.13698
3829.93876,0.13404
3831.86723,0.13570
3833.79569,0.14256
3835.72416,0.14951
3837.65263,0.15177
3839.58110,0.14732
3841.50957,0.14227
3843.43804,0.14018
3845.36651,0.13947
3847.29498,0.13950
3849.22344,0.13937
3851.15191,0.13915
3853.08038,0.14171
3855.00885,0.13933
3856.93732,0.12965
3858.86579,0.12459
3860.79426,0.12833
3862.72272,0.13455
3864.65119,0.13494
3866.57966,0.13476
3868.50813,0.13948
3870.43660,0.14253
3872.36507,0.13956
3874.29354,0.13452
3876.22200,0.12929
3878.15047,0.12911
3880.07894,0.13326
3882.00741,0.13362
3883.93588,0.13197
3885.86435,0.12942
3887.79282,0.12375
3889.72129,0.12057
3891.64975,0.12331
3893.57822,0.12655
3895.50669,0.12690
3897.43516,0.12869
3899.36363,0.13408
3901.29210,0.13812
3903.22057,0.13341
3905.14903,0.12716
3907.07750,0.12697
3909.00597,0.12516
3910.93444,0.11940
3912.86291,0.11562
3914.79138,0.11737
3916.71985,0.12192
3918.64832,0.12284
3920.57678,0.12157
3922.50525,0.12428
3924.43372,0.12559
3926.36219,0.11945
3928.29066,0.11385
3930.21913,0.11388
3932.14760,0.11611
3934.07606,0.11921
3936.00453,0.12296
3937.93300,0.12423
3939.86147,0.12269
3941.78994,0.12229
3943.71841,0.12341
3945.64688,0.12278
3947.57535,0.12228
3949.50381,0.12096
3951.43228,0.11775
3953.36075,0.11981
3955.28922,0.12581
3957.21769,0.12885
3959.14616,0.12866
3961.07463,0.12653
3963.00309,0.12307
3964.93156,0.11778
3966.86003,0.11171
3968.78850,0.11041
3970.71697,0.11264
3972.64544,0.10978
3974.57391,0.10596
3976.50238,0.10831
3978.43084,0.11060
3980.35931,0.11092
3982.28778,0.11423
3984.21625,0.11718
3986.14472,0.11320
3988.07319,0.10754
3990.00166,0.10683
3991.93012,0.10673
3993.85859,0.10598
3995.78706,0.10812
3997.71553,0.11223
3999.64400,0.11499
4001.57247,0.11334
4003.50094,0.11119
4005.42941,0.11421
4007.35787,0.11658
4009.28634,0.11342
4011.21481,0.10929
4013.14328,0.10750
4015.07175,0.10914
4017.00022,0.11300
4018.92869,0.11438
4020.85715,0.11132
4022.78562,0.10818
4024.71409,0.10954
4026.64256,0.11280
4028.57103,0.11256
4030.49950,0.10923
4032.42797,0.10659
4034.35644,0.10710
4036.28490,0.10857
4038.21337,0.10832
4040.14184,0.10926
4042.07031,0.11106
4043.99878,0.10891
4045.92725,0.10343
4047.85572,0.09915
4049.78418,0.09685
4051.71265,0.09700
4053.64112,0.10122
4055.56959,0.10456
4057.49806,0.10396
4059.42653,0.10261
4061.35500,0.10072
4063.28346,0.10022
4065.21193,0.10481
4067.14040,0.11025
4069.06887,0.11061
4070.99734,0.10648
4072.92581,0.10145
4074.85428,0.09878
4076.78275,0.09772
4078.71121,0.09515
4080.63968,0.09253
4082.56815,0.09371
4084.49662,0.09756
4086.42509,0.10149
4088.35356,0.10436
4090.28203,0.10149
4092.21049,0.09576
4094.13896,0.09504
4096.06743,0.09552
4097.99590,0.09355
4099.92437,0.09238
4101.85284,0.09366
4103.78131,0.09641
4105.70978,0.09920
4107.63824,0.10263
4109.56671,0.10558
4111.49518,0.10600
4113.42365,0.10537
4115.35212,0.10243
4117.28059,0.09668
4119.20906,0.09241
4121.13752,0.08879
4123.06599,0.08607
4124.99446,0.08967
4126.92293,0.09589
4128.85140,0.09641
4130.77987,0.09275
4132.70834,0.09054
4134.63681,0.08995
4136.56527,0.08883
4138.49374,0.08955
4140.42221,0.09221
4142.35068,0.09203
4144.27915,0.09060
4146.20762,0.09163
4148.13609,0.09397
4150.06455,0.09445
4151.99302,0.09104
4153.92149,0.08819
4155.84996,0.08909
4157.77843,0.09020
4159.70690,0.08969
4161.63537,0.08715
4163.56384,0.08476
4165.49230,0.08530
4167.42077,0.08735
4169.34924,0.09091
4171.27771,0.09281
4173.20618,0.08945
4175.13465,0.08565
4177.06312,0.08341
4178.99158,0.08190
4180.92005,0.08226
4182.84852,0.08284
4184.77699,0.08077
4186.70546,0.07691
4188.63393,0.07586
4190.56240,0.07940
4192.49087,0.08442
4194.41933,0.08581
4196.34780,0.08257
4198.27627,0.07819
4200.20474,0.07483
4202.13321,0.07309
4204.06168,0.07310
4205.99015,0.07459
4207.91861,0.07549
4209.84708,0.07545
4211.77555,0.07492
4213.70402,0.07099
4215.63249,0.06695
4217.56096,0.06896
4219.48943,0.07295
4221.41789,0.07330
4223.34636,0.07153
4225.27483,0.06951
4227.20330,0.07061
4229.13177,0.07730
4231.06024,0.08083
4232.98871,0.07618
4234.91718,0.07159
4236.84564,0.07074
4238.77411,0.06978
4240.70258,0.06802
4242.63105,0.06977
4244.55952,0.07576
4246.48799,0.07891
4248.41646,0.07615
4250.34492,0.07279
4252.27339,0.07275
4254.20186,0.07347
4256.13033,0.06826
4258.05880,0.05874
4259.98727,0.05673
4261.91574,0.06314
4263.84421,0.06700
4265.77267,0.06609
4267.70114,0.06479
4269.62961,0.06441
4271.55808,0.06347
4273.48655,0.05968
4275.41502,0.05414
4277.34349,0.05090
4279.27195,0.05492
4281.20042,0.06378
4283.12889,0.06669
4285.05736,0.06392
4286.98583,0.06233
4288.91430,0.06298
4290.84277,0.06475
4292.77124,0.06341
4294.69970,0.06195
4296.62817,0.06440
4298.55664,0.06256
4300.48511,0.05652
4302.41358,0.05617
4304.34205,0.06098
4306.27052,0.06476
4308.19898,0.06437
4310.12745,0.05951
4312.05592,0.05565
4313.98439,0.05631
4315.91286,0.05764
4317.84133,0.05682
4319.76980,0.05585
4321.69827,0.05699
4323.62673,0.05562
4325.55520,0.04885
4327.48367,0.04318
4329.41214,0.04269
4331.34061,0.04547
4333.26908,0.04774
4335.19755,0.04538
4337.12601,0.04056
4339.05448,0.04032
4340.98295,0.04242
4342.91142,0.04342
4344.83989,0.04743
4346.76836,0.05108
4348.69683,0.04925
4350.62530,0.04387
4352.55376,0.03646
4354.48223,0.03312
4356.41070,0.03785
4358.33917,0.04125
4360.26764,0.03836
4362.19611,0.03475
4364.12458,0.03551
4366.05304,0.04128
4367.98151,0.04499
4369.90998,0.04274
4371.83845,0.04180
4373.76692,0.04593
4375.69539,0.04632
4377.62386,0.03889
4379.55232,0.03448
4381.48079,0.03606
4383.40926,0.03431
4385.33773,0.03006
4387.26620,0.03180
4389.19467,0.03842
4391.12314,0.04237
4393.05161,0.03791
4394.98007,0.02680
4396.90854,0.02136
4398.83701,0.02618
4400.76548,0.03140
4402.69395,0.03302
4404.62242,0.03370
4406.55089,0.03236
4408.47935,0.03219
4410.40782,0.03629
4412.33629,0.03749
4414.26476,0.03412
4416.19323,0.03084
4418.12170,0.02789
4420.05017,0.02756
4421.97864,0.02825
4423.90710,0.02335
4425.83557,0.01814
4427.76404,0.02286
4429.69251,0.02983
4431.62098,0.02683
4433.54945,0.02160
4435.47792,0.02138
4437.40638,0.02118
4439.33485,0.02228
4441.26332,0.02567
4443.19179,0.02775
4445.12026,0.02971
4447.04873,0.03232
4448.97720,0.03344
4450.90567,0.02971
4452.83413,0.02060
4454.76260,0.01457
4456.69107,0.01651
4458.61954,0.02018
4460.54801,0.02183
4462.47648,0.02360
4464.40495,0.02388
4466.33341,0.01949
4468.26188,0.01360
4470.19035,0.01164
4472.11882,0.01440
4474.04729,0.01887
4475.97576,0.02164
4477.90423,0.02098
4479.83270,0.01585
4481.76116,0.00830
4483.68963,0.00604
4485.61810,0.01088
4487.54657,0.01452
4489.47504,0.01374
4491.40351,0.01067
4493.33198,0.00592
4495.26044,0.00339
4497.18891,0.00777
4499.11738,0.01437
4501.04585,0.01325
4502.97432,0.01131
4504.90279,0.01895
4506.83126,0.02355
4508.75973,0.01857
4510.68819,0.01204
4512.61666,0.00303
4514.54513,-0.00028
4516.47360,0.00989
4518.40207,0.01750
4520.33054,0.01546
4522.25901,0.01184
4524.18747,0.00684
4526.11594,0.00265
4528.04441,0.00304
4529.97288,0.00290
4531.90135,0.00016
4533.82982,-0.00232
4535.75829,-0.00161
4537.68676,0.00555
4539.61522,0.01213
4541.54369,0.01093
4543.47216,0.00930
4545.40063,0.01153
4547.32910,0.01384
4549.25757,0.01259
4551.18604,0.00984
4553.11450,0.01086
4555.04297,0.01203
4556.97144,0.00799
4558.89991,0.00236
4560.82838,0.00152
4562.75685,0.00535
4564.68532,0.00511
4566.61378,-0.00144
4568.54225,-0.00561
4570.47072,-0.00552
4572.39919,-0.00591
4574.32766,-0.00757
4576.25613,-0.00837
4578.18460,-0.00660
4580.11307,0.00045
4582.04153,0.01136
4583.97000,0.01710
4585.89847,0.01660
4587.82694,0.01898
4589.75541,0.02223
4591.68388,0.01639
4593.61235,0.00452
4595.54081,-0.00051
4597.46928,0.00580
4599.39775,0.01345
4601.32622,0.01342
4603.25469,0.00872
4605.18316,0.00599
4607.11163,0.00816
4609.04010,0.01256
4610.96856,0.01493
4612.89703,0.01429
4614.82550,0.01067
4616.75397,0.00300
4618.68244,-0.00550
4620.61091,-0.00687
4622.53938,-0.00097
4624.46784,0.00408
4626.39631,0.00334
4628.32478,-0.00397
4630.25325,-0.01508
4632.18172,-0.01816
4634.11019,-0.00833
4636.03866,-0.00083
4637.96713,0.00001
4639.89559,0.00381
4641.82406,0.00739
4643.75253,0.00728
4645.68100,0.01204
4647.60947,0.02243
4649.53794,0.02522
4651.46641,0.01773
4653.39487,0.01279
4655.32334,0.01075
4657.25181,0.00203
4659.18028,-0.00661
4661.10875,-0.00199
4663.03722,0.00935
4664.96569,0.00872
4666.89416,-0.00113
4668.82262,-0.00155
4670.75109,0.00455
4672.67956,0.00558
4674.60803,0.00524
4676.53650,0.00543
4678.46497,0.00353
4680.39344,0.00356
4682.32190,0.00455
4684.25037,0.00585
4686.17884,0.01476
4688.10731,0.01999
4690.03578,0.00825
4691.96425,-0.00408
4693.89272,-0.00251
4695.82119,0.00320
4697.74965,0.00027
4699.67812,-0.00463
4701.60659,0.00224
4703.53506,0.01297
4705.46353,0.01357
4707.39200,0.00862
4709.32047,0.00877
4711.24893,0.01106
4713.17740,0.00704
4715.10587,0.00056
4717.03434,-0.00458
4718.96281,-0.00981
4720.89128,-0.01181
4722.81975,-0.00731
4724.74821,-0.00294
4726.67668,-0.00004
4728.60515,0.00278
4730.53362,0.00216
4732.46209,-0.00213
4734.39056,-0.00559
4736.31903,-0.00440
4738.24750,0.00263
4740.17596,0.01039
4742.10443,0.01102
4744.03290,0.00367
4745.96137,-0.00445
4747.88984,-0.00564
4749.81831,-0.00058
4751.74678,0.00567
4753.67524,0.00947
4755.60371,0.00940
4757.53218,0.00798
4759.46065,0.00581
4761.38912,0.00287
4763.31759,0.00190
4765.24606,0.00556
4767.17453,0.00950
4769.10299,0.00395
4771.03146,-0.00677
4772.95993,-0.00816
4774.88840,-0.00183
4776.81687,0.00238
4778.74534,0.00438
4780.67381,0.00457
4782.60227,0.00504
4784.53074,0.00862
4786.45921,0.01016
4788.38768,0.00528
4790.31615,0.00012
4792.24462,-0.00035
4794.17309,-0.00088
4796.10156,-0.00130
4798.03002,-0.00061
4799.95849,0.00147
4801.88696,0.00717
4803.81543,0.00590
4805.74390,0.00055
4807.67237,0.00905
4809.60084,0.01851
4811.52930,0.01123
4813.45777,0.00104
4815.38624,0.00430
4817.31471,0.00946
4819.24318,0.00288
4821.17165,-0.00153
4823.10012,0.00560
4825.02859,0.01445
4826.95705,0.01945
4828.88552,0.01772
4830.81399,0.00932
4832.74246,0.00422
4834.67093,0.00355
4836.59940,-0.00022
4838.52787,-0.00384
4840.45633,-0.00419
4842.38480,-0.00334
4844.31327,-0.00335
4846.24174,-0.00614
4848.17021,-0.00665
4850.09868,-0.00001
4852.02715,0.01088
4853.95562,0.02203
4855.88408,0.02734
4857.81255,0.02047
4859.74102,0.00799
4861.66949,0.00154
4863.59796,0.00109
4865.52643,0.00509
4867.45490,0.01176
4869.38336,0.00816
4871.31183,-0.00632
4873.24030,-0.01045
4875.16877,-0.00240
4877.09724,0.00054
4879.02571,-0.00383
4880.95418,-0.00863
4882.88265,-0.01030
4884.81111,-0.01308
4886.73958,-0.01006
4888.66805,0.00782
4890.59652,0.02021
4892.52499,0.01737
4894.45346,0.01534
4896.38193,0.01492
4898.31039,0.00882
4900.23886,0.00194
4902.16733,0.00169
4904.09580,0.00353
4906.02427,-0.00185
4907.95274,-0.00867
4909.88121,-0.00232
4911.80967,0.00673
4913.73814,0.00608
4915.66661,0.00886
4917.59508,0.01872
4919.52355,0.02461
4921.45202,0.02413
4923.38049,0.01964
4925.30896,0.01440
4927.23742,0.00757
4929.16589,-0.00147
4931.09436,-0.00566
4933.02283,-0.00223
4934.95130,0.00359
4936.87977,0.00752
4938.80824,0.00602
4940.73670,0.00310
4942.66517,0.00524
4944.59364,0.00945
4946.52211,0.01202
4948.45058,0.01296
4950.37905,0.01188
4952.30752,0.00839
4954.23599,0.00745
4956.16445,0.01297
4958.09292,0.01811
4960.02139,0.01870
4961.94986,0.01220
4963.87833,-0.00190
4965.80680,-0.00729
4967.73527,0.00657
4969.66373,0.02625
4971.59220,0.03207
4973.52067,0.01871
4975.44914,0.00557
4977.37761,0.01199
4979.30608,0.02746
4981.23455,0.02899
4983.16302,0.01711
4985.09148,0.00891
4987.01995,0.00885
4988.94842,0.00786
4990.87689,0.00551
4992.80536,0.01224
4994.73383,0.02052
4996.66230,0.01587
4998.59076,0.00815
5000.51923,0.01015
5002.44770,0.01480
5004.37617,0.01014
5006.30464,0.00424
5008.23311,0.01008
5010.16158,0.01616
5012.09005,0.00863
5014.01851,-0.00122
5015.94698,0.00176
5017.87545,0.01342
5019.80392,0.02489
5021.73239,0.03254
5023.66086,0.02645
5025.58933,0.01061
5027.51779,0.00541
5029.44626,0.00516
5031.37473,0.00045
5033.30320,0.00660
5035.23167,0.02462
5037.16014,0.03618
5039.08861,0.03283
5041.01708,0.02495
5042.94554,0.03059
5044.87401,0.04398
5046.80248,0.04007
5048.73095,0.01871
5050.65942,0.00608
5052.58789,0.01015
5054.51636,0.01541
5056.44482,0.01782
5058.37329,0.02163
5060.30176,0.02224
5062.23023,0.01845
5064.15870,0.01562
5066.08717,0.01530
5068.01564,0.01116
5069.94410,0.00257
5071.87257,-0.00021
5073.80104,0.00152
5075.72951,0.00433
5077.65798,0.01208
5079.58645,0.01534
5081.51492,0.01362
5083.44339,0.01997
5085.37185,0.02707
5087.30032,0.02531
5089.22879,0.02186
5091.15726,0.01965
5093.08573,0.02068
5095.01420,0.02974
5096.94267,0.03557
5098.87113,0.02850
5100.79960,0.01807
5102.72807,0.01568
5104.65654,0.02161
5106.58501,0.02974
5108.51348,0.03610
5110.44195,0.03315
5112.37042,0.02319
5114.29888,0.02171
5116.22735,0.02697
5118.15582,0.02466
5120.08429,0.01213
5122.01276,0.00658
5123.94123,0.01779
5125.86970,0.02641
5127.79816,0.02177
5129.72663,0.01980
5131.65510,0.02484
5133.58357,0.03102
5135.51204,0.04147
5137.44051,0.05022
5139.36898,0.04627
5141.29745,0.03516
5143.22591,0.03451
5145.15438,0.04380
5147.08285,0.04609
5149.01132,0.04557
5150.93979,0.05010
5152.86826,0.04763
5154.79673,0.03142
5156.72519,0.02034
5158.65366,0.03043
5160.58213,0.04394
5162.51060,0.04397
5164.43907,0.04060
5166.36754,0.04828
5168.29601,0.06009
5170.22448,0.06083
5172.15294,0.05289
5174.08141,0.05163
5176.00988,0.05138
5177.93835,0.03258
5179.86682,0.00974
5181.79529,0.01167
5183.72376,0.02883
5185.65222,0.03782
5187.58069,0.04391
5189.50916,0.05456
5191.43763,0.04680
5193.36610,0.01681
5195.29457,0.00259
5197.22304,0.01586
5199.15151,0.03035
5201.07997,0.03916
5203.00844,0.04878
5204.93691,0.04824
5206.86538,0.03245
5208.79385,0.02655
5210.72232,0.03908
5212.65079,0.04456
5214.57925,0.03369
5216.50772,0.02801
5218.43619,0.04034
5220.36466,0.05275
5222.29313,0.05043
5224.22160,0.04631
5226.15007,0.05644
5228.07854,0.06461
5230.00700,0.05282
5231.93547,0.04034
5233.86394,0.03772
5235.79241,0.03027
5237.72088,0.01615
5239.64935,0.00755
5241.57782,0.01259
5243.50628,0.02702
5245.43475,0.04055
5247.36322,0.04124
5249.29169,0.02894
5251.22016,0.02217
5253.14863,0.02585
5255.07710,0.03409
5257.00556,0.03900
5258.93403,0.03697
5260.86250,0.03741
5262.79097,0.03892
5264.71944,0.03679
5266.64791,0.04185
5268.57638,0.04916
5270.50485,0.04719
5272.43331,0.04637
5274.36178,0.05068
5276.29025,0.04251
5278.21872,0.02350
5280.14719,0.02071
5282.07566,0.03623
5284.00413,0.04239
5285.93259,0.03588
5287.86106,0.03896
5289.78953,0.04912
5291.71800,0.04765
5293.64647,0.03685
5295.57494,0.02897
5297.50341,0.02751
5299.43188,0.03296
5301.36034,0.04609
5303.28881,0.06027
5305.21728,0.06662
5307.14575,0.06180
5309.07422,0.05271
5311.00269,0.05367
5312.93116,0.06652
5314.85962,0.07973
5316.78809,0.07686
5318.71656,0.06387
5320.64503,0.06401
5322.57350,0.07091
5324.50197,0.06541
5326.43044,0.05456
5328.35891,0.05396
5330.28737,0.05527
5332.21584,0.04699
5334.14431,0.04041
5336.07278,0.04881
5338.00125,0.06630
5339.92972,0.07382
5341.85819,0.06588
5343.78665,0.05836
5345.71512,0.06372
5347.64359,0.06725
5349.57206,0.06122
5351.50053,0.05582
5353.42900,0.05301
5355.35747,0.05060
5357.28594,0.05293
5359.21440,0.06539
5361.14287,0.08103
5363.07134,0.08065
5364.99981,0.06718
5366.92828,0.06187
5368.85675,0.06253
5370.78522,0.05993
5372.71368,0.06105
5374.64215,0.07180
5376.57062,0.08332
5378.49909,0.08443
5380.42756,0.08736
5382.35603,0.09547
5384.28450,0.08824
5386.21297,0.07647
5388.14143,0.08542
5390.06990,0.09100
5391.99837,0.07279
5393.92684,0.04925
5395.85531,0.04792
5397.78378,0.05912
5399.71225,0.06751
5401.64071,0.07200
5403.56918,0.07637
5405.49765,0.08748
5407.42612,0.09519
5409.35459,0.09067
5411.28306,0.08411
5413.21153,0.08050
5415.13999,0.07810
5417.06846,0.07834
5418.99693,0.08208
5420.92540,0.08291
5422.85387,0.07516
5424.78234,0.06975
5426.71081,0.07459
5428.63928,0.07855
5430.56774,0.08222
5432.49621,0.08586
5434.42468,0.06403
5436.35315,0.03868
5438.28162,0.04974
5440.21009,0.06252
5442.13856,0.04912
5444.06702,0.04279
5445.99549,0.06089
5447.92396,0.08639
5449.85243,0.10037
5451.78090,0.09506
5453.70937,0.08394
5455.63784,0.08604
5457.56631,0.09298
5459.49477,0.07983
5461.42324,0.05979
5463.35171,0.05626
5465.28018,0.06112
5467.20865,0.05880
5469.13712,0.05005
5471.06559,0.05335
5472.99405,0.07852
5474.92252,0.10767
5476.85099,0.11184
5478.77946,0.09782
5480.70793,0.07569
5482.63640,0.04938
5484.56487,0.04636
5486.49334,0.06481
5488.42180,0.07283
5490.35027,0.06252
5492.27874,0.05052
5494.20721,0.04853
5496.13568,0.04567
5498.06415,0.04296
5499.99262,0.05670
5501.92108,0.07620
5503.84955,0.07149
5505.77802,0.05098
5507.70649,0.05369
5509.63496,0.07840
5511.56343,0.10265
5513.49190,0.11910
5515.42037,0.11491
5517.34883,0.09293
5519.27730,0.07343
5521.20577,0.06949
5523.13424,0.08373
5525.06271,0.10617
5526.99118,0.12226
5528.91965,0.12113
5530.84811,0.10466
5532.77658,0.09012
5534.70505,0.08538
5536.63352,0.08418
5538.56199,0.08156
5540.49046,0.08018
5542.41893,0.08410
5544.34740,0.08981
5546.27586,0.08777
5548.20433,0.08531
5550.13280,0.09101
5552.06127,0.08882
5553.98974,0.07496
5555.91821,0.07197
5557.84668,0.09139
5559.77514,0.11449
5561.70361,0.12547
5563.63208,0.12619
5565.56055,0.11812
5567.48902,0.10954
5569.41749,0.11167
5571.34596,0.11183
5573.27443,0.09858
5575.20289,0.08573
5577.13136,0.06811
5579.05983,0.04821
5580.98830,0.05924
5582.91677,0.08362
5584.84524,0.08436
5586.77371,0.08035
5588.70217,0.09372
5590.63064,0.10538
5592.55911,0.08998
5594.48758,0.06607
5596.41605,0.06803
5598.34452,0.08238
5600.27299,0.07646
5602.20145,0.06784
5604.12992,0.07623
5606.05839,0.07114
5607.98686,0.04369
5609.91533,0.04453
5611.84380,0.09532
5613.77227,0.14059
5615.70074,0.14475
5617.62920,0.13206
5619.55767,0.11763
5621.48614,0.10636
5623.41461,0.11324
5625.34308,0.12878
5627.27155,0.12390
5629.20002,0.10262
5631.12848,0.08953
5633.05695,0.09135
5634.98542,0.10196
5636.91389,0.10335
5638.84236,0.08542
5640.77083,0.06021
5642.69930,0.05185
5644.62777,0.07901
5646.55623,0.11059
5648.48470,0.10611
5650.41317,0.08991
5652.34164,0.08162
5654.27011,0.06410
5656.19858,0.04244
5658.12705,0.03603
5660.05551,0.05021
5661.98398,0.08093
5663.91245,0.09871
5665.84092,0.07226
5667.76939,0.04260
5669.69786,0.06723
5671.62633,0.11528
5673.55480,0.12926
5675.48326,0.10690
5677.41173,0.08314
5679.34020,0.08568
5681.26867,0.09526
5683.19714,0.09754
5685.12561,0.10895
5687.05408,0.12493
5688.98254,0.12237
5690.91101,0.09872
5692.83948,0.07477
5694.76795,0.06789
5696.69642,0.07962
5698.62489,0.10122
5700.55336,0.11498
5702.48183,0.09255
5704.41029,0.05929
5706.33876,0.07444
5708.26723,0.10775
5710.19570,0.10832
5712.12417,0.09976
5714.05264,0.10023
5715.98111,0.09085
5717.90957,0.06739
5719.83804,0.04914
5721.76651,0.05859
5723.69498,0.09117
5725.62345,0.11552
5727.55192,0.10338
5729.48039,0.06394
5731.40886,0.05102
5733.33732,0.07615
5735.26579,0.09891
5737.19426,0.10544
5739.12273,0.10600
5741.05120,0.10266
5742.97967,0.10425
5744.90814,0.10777
5746.83660,0.09819
5748.76507,0.08276
5750.69354,0.08667
5752.62201,0.11825
5754.55048,0.14239
5756.47895,0.12811
5758.40742,0.11130
5760.33588,0.11982
5762.26435,0.11768
5764.19282,0.09887
5766.12129,0.09989
5768.04976,0.09498
5769.97823,0.05323
5771.90670,0.02975
5773.83517,0.06543
5775.76363,0.10765
5777.69210,0.10946
5779.62057,0.09375
5781.54904,0.09595
5783.47751,0.11175
5785.40598,0.13137
5787.33445,0.15366
5789.26291,0.15817
5791.19138,0.13690
5793.11985,0.11575
5795.04832,0.09472
5796.97679,0.06139
5798.90526,0.05464
5800.83373,0.07711
5802.76220,0.07459
5804.69066,0.05177
5806.61913,0.04390
5808.54760,0.05680
5810.47607,0.08345
5812.40454,0.10162
5814.33301,0.10276
5816.26148,0.10210
5818.18994,0.10724
5820.11841,0.11197
5822.04688,0.11223
5823.97535,0.10332
5825.90382,0.08953
5827.83229,0.07860
5829.76076,0.06041
5831.68923,0.04885
5833.61769,0.05435
5835.54616,0.06124
5837.47463,0.07414
5839.40310,0.07890
5841.33157,0.06455
5843.26004,0.05939
5845.18851,0.05866
5847.11697,0.05548
5849.04544,0.06993
5850.97391,0.08229
5852.90238,0.07729
5854.83085,0.08183
5856.75932,0.09772
5858.68779,0.09188
5860.61626,0.07015
5862.54472,0.08210
5864.47319,0.11712
5866.40166,0.11779
5868.33013,0.08635
5870.25860,0.06398
5872.18707,0.06350
5874.11554,0.06611
5876.04400,0.05225
5877.97247,0.03543
5879.90094,0.04431
5881.82941,0.07052
5883.75788,0.07821
5885.68635,0.07268
5887.61482,0.09303
5889.54329,0.12663
5891.47175,0.13095
5893.40022,0.11697
5895.32869,0.11316
5897.25716,0.10252
5899.18563,0.07058
5901.11410,0.05488
5903.04257,0.07143
5904.97103,0.08164
5906.89950,0.07608
5908.82797,0.06928
5910.75644,0.04895
5912.68491,0.02615
5914.61338,0.02527
5916.54185,0.03121
5918.47032,0.04120
5920.39878,0.05292
5922.32725,0.04401
5924.25572,0.03329
5926.18419,0.05358
5928.11266,0.07540
5930.04113,0.05232
5931.96960,0.02375
5933.89806,0.04273
5935.82653,0.07573
5937.75500,0.08967
5939.68347,0.08426
5941.61194,0.06096
5943.54041,0.04776
5945.46888,0.05839
5947.39734,0.08091
5949.32581,0.09124
5951.25428,0.09461
5953.18275,0.11989
5955.11122,0.13107
5957.03969,0.11076
5958.96816,0.09524
5960.89663,0.08519
5962.82509,0.06297
5964.75356,0.04771
5966.68203,0.05942
5968.61050,0.08613
5970.53897,0.09476
5972.46744,0.07132
5974.39591,0.05627
5976.32437,0.07389
5978.25284,0.10398
5980.18131,0.12489
5982.10978,0.13153
5984.03825,0.13980
5985.96672,0.14347
5987.89519,0.12802
5989.82366,0.09498
5991.75212,0.06142
5993.68059,0.05705
5995.60906,0.08864
5997.53753,0.12331
5999.46600,0.12470
6001.39447,0.10369
6003.32294,0.09257
6005.25140,0.10523
6007.17987,0.11874
6009.10834,0.10602
6011.03681,0.09150
6012.96528,0.09478
6014.89375,0.10134
6016.82222,0.09882
6018.75069,0.08067
6020.67915,0.06455
6022.60762,0.05590
6024.53609,0.03006
6026.46456,0.01157
6028.39303,0.04524
6030.32150,0.10252
6032.24997,0.12955
6034.17843,0.11290
6036.10690,0.06819
6038.03537,0.03925
6039.96384,0.04284
6041.89231,0.05968
6043.82078,0.07278
6045.74925,0.06554
6047.67772,0.04652
6049.60618,0.03713
6051.53465,0.04992
6053.46312,0.08267
6055.39159,0.08382
6057.32006,0.03505
6059.24853,0.00896
6061.17700,0.03619
6063.10546,0.07970
6065.03393,0.10452
6066.96240,0.10826
6068.89087,0.10434
6070.81934,0.10519
6072.74781,0.11951
6074.67628,0.13660
6076.60475,0.13120
6078.53321,0.09941
6080.46168,0.06540
6082.39015,0.06668
6084.31862,0.09708
6086.24709,0.09493
6088.17556,0.05318
6090.10403,0.03523
6092.03249,0.06037
6093.96096,0.08853
6095.88943,0.10236
6097.81790,0.11505
6099.74637,0.09420
6101.67484,0.03119
6103.60331,-0.00082
6105.53177,0.01818
6107.46024,0.03832
6109.38871,0.05054
6111.31718,0.07948
6113.24565,0.10915
6115.17412,0.11391
6117.10259,0.10266
6119.03106,0.09092
6120.95952,0.10316
6122.88799,0.13346
6124.81646,0.12777
6126.74493,0.10583
6128.67340,0.09946
6130.60187,0.05503
6132.53034,-0.00930
6134.45880,-0.03402
6136.38727,-0.01998
6138.31574,0.01610
6140.24421,0.05910
6142.17268,0.09205
6144.10115,0.10827
6146.02962,0.10958
6147.95809,0.09282
6149.88655,0.06489
6151.81502,0.06019
6153.74349,0.10426
6155.67196,0.16420
6157.60043,0.18604
6159.52890,0.14538
6161.45737,0.08091
6163.38583,0.06051
6165.31430,0.09248
6167.24277,0.12419
6169.17124,0.11909
6171.09971,0.10151
6173.02818,0.08445
6174.95665,0.06647
6176.88512,0.08533
6178.81358,0.09394
6180.74205,0.03908
6182.67052,-0.01120
6184.59899,-0.01354
6186.52746,0.02125
6188.45593,0.06768
6190.38440,0.08312
6192.31286,0.06335
6194.24133,0.03457
6196.16980,0.02772
6198.09827,0.05478
6200.02674,0.08052
6201.95521,0.08397
6203.88368,0.10107
6205.81215,0.14032
6207.74061,0.15857
6209.66908,0.13699
6211.59755,0.09217
6213.52602,0.05616
6215.45449,0.04980
6217.38296,0.07220
6219.31143,0.09756
6221.23989,0.10437
6223.16836,0.09922
6225.09683,0.09327
6227.02530,0.08008
6228.95377,0.06203
6230.88224,0.05442
6232.81071,0.07128
6234.73918,0.08732
6236.66764,0.08192
6238.59611,0.08927
6240.52458,0.10452
6242.45305,0.09409
6244.38152,0.09258
6246.30999,0.12756
6248.23846,0.14828
6250.16692,0.13927
6252.09539,0.12825
6254.02386,0.09866
6255.95233,0.07367
6257.88080,0.08148
6259.80927,0.09752
6261.73774,0.12960
6263.66621,0.15865
6265.59467,0.12598
6267.52314,0.07447
6269.45161,0.07809
6271.38008,0.10182
6273.30855,0.11821
6275.23702,0.16431
6277.16549,0.20487
6279.09395,0.16771
6281.02242,0.09143
6282.95089,0.04429
6284.87936,0.04170
6286.80783,0.05875
6288.73630,0.08358
6290.66477,0.11340
6292.59323,0.10743
6294.52170,0.06724
6296.45017,0.04698
6298.37864,0.05260
6300.30711,0.06070
6302.23558,0.07038
6304.16405,0.08125
6306.09252,0.07988
6308.02098,0.08929
6309.94945,0.12050
6311.87792,0.11800
6313.80639,0.08315
6315.73486,0.09220
6317.66333,0.14891
6319.59180,0.18715
6321.52026,0.17562
6323.44873,0.12323
6325.37720,0.07188
6327.30567,0.06160
6329.23414,0.08154
6331.16261,0.11842
6333.09108,0.17764
6335.01955,0.19928
6336.94801,0.14909
6338.87648,0.10069
6340.80495,0.08277
6342.73342,0.06886
6344.66189,0.06878
6346.59036,0.09930
6348.51883,0.12931
6350.44729,0.11018
6352.37576,0.09542
6354.30423,0.11580
6356.23270,0.10377
6358.16117,0.09041
6360.08964,0.12235
6362.01811,0.11944
6363.94658,0.05244
6365.87504,-0.00878
6367.80351,-0.00793
6369.73198,0.04944
6371.66045,0.09785
6373.58892,0.11712
6375.51739,0.13260
6377.44586,0.13957
6379.37432,0.13898
6381.30279,0.11868
6383.23126,0.06816
6385.15973,0.03069
6387.08820,0.01666
6389.01667,0.01305
6390.94514,0.03710
6392.87361,0.07093
6394.80207,0.08518
6396.73054,0.08636
6398.65901,0.08478
6400.58748,0.06368
6402.51595,-0.00883
6404.44442,-0.07645
6406.37289,-0.05708
6408.30135,0.04165
6410.22982,0.15375
6412.15829,0.16947
6414.08676,0.10103
6416.01523,0.08539
6417.94370,0.13181
6419.87217,0.17131
6421.80064,0.18507
6423.72910,0.15888
6425.65757,0.11263
6427.58604,0.09285
6429.51451,0.09516
6431.44298,0.11788
6433.37145,0.13451
6435.29992,0.11751
6437.22838,0.11967
6439.15685,0.13529
6441.08532,0.12386
6443.01379,0.12503
6444.94226,0.12539
6446.87073,0.09429
6448.79920,0.08189
6450.72766,0.08444
6452.65613,0.05124
6454.58460,0.02486
6456.51307,0.05209
6458.44154,0.07824
6460.37001,0.04679
6462.29848,-0.00423
6464.22695,-0.01070
6466.15541,0.02399
6468.08388,0.06266
6470.01235,0.10904
6471.94082,0.17378
6473.86929,0.21386
6475.79776,0.18827
6477.72623,0.09093
6479.65469,-0.03415
6481.58316,-0.09120
6483.51163,-0.03726
6485.44010,0.06679
6487.36857,0.15392
6489.29704,0.16612
6491.22551,0.10053
6493.15398,0.05529
6495.08244,0.06683
6497.01091,0.07353
6498.93938,0.08202
6500.86785,0.08926
6502.79632,0.07926
6504.72479,0.07215
6506.65326,0.05799
6508.58172,0.05800
6510.51019,0.07718
6512.43866,0.05880
6514.36713,0.00632
6516.29560,-0.02047
6518.22407,-0.01427
6520.15254,-0.00858
6522.08101,0.00011
6524.00947,0.01215
6525.93794,0.01438
6527.86641,0.02627
6529.79488,0.05898
6531.72335,0.08277
6533.65182,0.07582
6535.58029,0.05994
6537.50875,0.05421
6539.43722,0.04575
6541.36569,0.04093
6543.29416,0.06582
6545.22263,0.09848
6547.15110,0.10508
6549.07957,0.07278
6551.00804,0.01292
6552.93650,0.00209
6554.86497,0.07962
6556.79344,0.14168
6558.72191,0.11386
6560.65038,0.06868
6562.57885,0.04716
6564.50732,0.05712
6566.43578,0.12201
6568.36425,0.16169
6570.29272,0.11565
6572.22119,0.06702
6574.14966,0.08313
6576.07813,0.09920
6578.00660,0.08161
6579.93507,0.06904
6581.86353,0.03106
6583.79200,-0.02868
6585.72047,0.00078
6587.64894,0.10507
6589.57741,0.18151
6591.50588,0.21529
6593.43435,0.19693
6595.36281,0.12149
6597.29128,0.06055
6599.21975,0.02168
6601.14822,0.01050
6603.07669,0.04458
6605.00516,0.04963
6606.93363,0.02546
6608.86210,0.05153
6610.79056,0.12647
6612.71903,0.18505
6614.64750,0.18327
6616.57597,0.15008
6618.50444,0.16356
6620.43291,0.20179
6622.36138,0.16080
6624.28984,0.06385
6626.21831,0.02389
6628.14678,0.05830
6630.07525,0.10480
6632.00372,0.10979
6633.93219,0.05589
6635.86066,-0.02153
6637.78912,-0.00726
6639.71759,0.07259
6641.64606,0.14442
6643.57453,0.21574
6645.50300,0.25789
6647.43147,0.23559
6649.35994,0.15863
6651.28841,0.07383
6653.21687,0.04464
6655.14534,0.09537
6657.07381,0.13465
6659.00228,0.08945
6660.93075,0.07773
6662.85922,0.14273
6664.78769,0.18888
6666.71615,0.17687
6668.64462,0.16861
6670.57309,0.20268
6672.50156,0.23101
6674.43003,0.20666
6676.35850,0.15926
6678.28697,0.11490
6680.21544,0.04802
6682.14390,0.01873
6684.07237,0.07670
6686.00084,0.10773
6687.92931,0.04728
6689.85778,0.00430
6691.78625,0.04418
6693.71472,0.08438
6695.64318,0.06546
6697.57165,-0.00559
6699.50012,-0.07112
6701.42859,-0.05261
6703.35706,0.04923
6705.28553,0.09871
6707.21400,0.04061
6709.14247,0.00404
6711.07093,0.04284
6712.99940,0.06476
6714.92787,0.05227
6716.85634,0.07001
6718.78481,0.09189
6720.71328,0.08277
6722.64175,0.07412
6724.57021,0.06401
6726.49868,0.04944
6728.42715,0.02907
6730.35562,-0.01642
6732.28409,-0.07738
6734.21256,-0.07931
6736.14103,-0.02433
6738.06950,-0.00541
6739.99796,0.01430
6741.92643,0.08287
6743.85490,0.11346
6745.78337,0.09608
6747.71184,0.09305
6749.64031,0.10562
6751.56878,0.12219
6753.49724,0.12074
6755.42571,0.10076
6757.35418,0.09487
6759.28265,0.06562
6761.21112,-0.00779
6763.13959,-0.05357
6765.06806,-0.02109
6766.99653,0.03891
6768.92499,0.05475
6770.85346,0.04041
6772.78193,0.02438
6774.71040,0.02114
6776.63887,0.01950
6778.56734,0.01242
6780.49581,0.05604
6782.42427,0.15395
6784.35274,0.20002
6786.28121,0.16966
6788.20968,0.14984
6790.13815,0.15918
6792.06662,0.15996
6793.99509,0.11501
6795.92355,0.04469
6797.85202,0.01487
6799.78049,0.03251
6801.70896,0.07767
6803.63743,0.10600
6805.56590,0.10269
6807.49437,0.09152
6809.42284,0.07093
6811.35130,0.05521
6813.27977,0.02214
6815.20824,-0.05874
6817.13671,-0.13071
6819.06518,-0.12100
6820.99365,-0.03589
6822.92212,0.03221
6824.85058,0.03378
6826.77905,0.04116
6828.70752,0.06720
6830.63599,0.07393
6832.56446,0.05607
6834.49293,0.05507
6836.42140,0.05412
6838.34987,0.04254
6840.27833,0.07684
6842.20680,0.11459
6844.13527,0.09495
6846.06374,0.02343
6847.99221,-0.07365
6849.92068,-0.09100
6851.84915,-0.00220
6853.77761,0.06794
6855.70608,0.07753
6857.63455,0.05638
6859.56302,0.01686
6861.49149,-0.01275
6863.41996,0.01678
6865.34843,0.10132
6867.27690,0.15460
6869.20536,0.13827
6871.13383,0.11079
6873.06230,0.09281
6874.99077,0.08775
6876.91924,0.07776
6878.84771,0.00269
6880.77618,-0.10850
6882.70464,-0.12108
6884.63311,-0.04750
6886.56158,0.02721
6888.49005,0.08010
6890.41852,0.09482
6892.34699,0.07351
6894.27546,0.08085
6896.20393,0.13515
6898.13239,0.16018
6900.06086,0.13871
6901.98933,0.14496
6903.91780,0.17553
6905.84627,0.18374
6907.77474,0.17311
6909.70321,0.15369
6911.63167,0.12339
6913.56014,0.07594
6915.48861,0.01712
6917.41708,-0.02774
6919.34555,-0.06544
6921.27402,-0.13243
6923.20249,-0.14951
6925.13096,-0.04604
6927.05942,0.04901
6928.98789,0.05685
6930.91636,0.09313
6932.84483,0.17770
6934.77330,0.20665
6936.70177,0.16012
6938.63024,0.07804
6940.55870,0.00094
6942.48717,-0.04979
6944.41564,-0.01128
6946.34411,0.09477
6948.27258,0.13314
6950.20105,0.10750
6952.12952,0.11993
6954.05799,0.15624
6955.98645,0.13008
6957.91492,0.07839
6959.84339,0.06883
6961.77186,0.06874
6963.70033,0.04433
6965.62880,0.01092
6967.55727,0.00755
6969.48573,0.03277
6971.41420,0.04425
6973.34267,0.07834
6975.27114,0.13903
6977.19961,0.13760
6979.12808,0.07928
6981.05655,0.02720
6982.98501,0.00382
6984.91348,-0.00590
6986.84195,0.03031
6988.77042,0.10413
6990.69889,0.10282
6992.62736,0.03710
6994.55583,-0.01095
6996.48430,-0.06786
6998.41276,-0.10252
7000.34123,-0.04180
7002.26970,-0.02241
7004.19817,-0.06783
7006.12664,-0.02486
7008.05511,0.10428
7009.98358,0.16219
7011.91204,0.13592
7013.84051,0.10423
7015.76898,0.05934
7017.69745,-0.00556
7019.62592,0.00111
7021.55439,0.06847
7023.48286,0.09825
7025.41133,0.08383
7027.33979,0.02730
7029.26826,-0.03077
7031.19673,0.01123
7033.12520,0.08415
7035.05367,0.04782
7036.98214,-0.08208
7038.91061,-0.10696
7040.83907,0.01397
7042.76754,0.12114
7044.69601,0.16452
7046.62448,0.18113
7048.55295,0.08846
7050.48142,-0.05682
7052.40989,-0.10606
7054.33836,-0.02631
7056.26682,0.07788
7058.19529,0.11017
7060.12376,0.08130
7062.05223,0.06255
7063.98070,0.08429
7065.90917,0.09116
7067.83764,0.05987
7069.76610,0.02087
7071.69457,-0.00997
7073.62304,-0.00759
7075.55151,0.00799
7077.47998,-0.01402
7079.40845,-0.07188
7081.33692,-0.03129
7083.26539,0.08989
7085.19385,0.07054
7087.12232,-0.03678
7089.05079,-0.05411
7090.97926,0.01757
7092.90773,0.09431
7094.83620,0.14012
7096.76467,0.14274
7098.69313,0.08917
7100.62160,0.01490
7102.55007,-0.06493
7104.47854,-0.12841
7106.40701,-0.10404
7108.33548,0.00964
7110.26395,0.09513
7112.19242,0.05532
7114.12088,-0.02459
7116.04935,-0.06146
7117.97782,-0.09503
7119.90629,-0.07307
7121.83476,-0.00119
7123.76323,0.03858
7125.69170,0.05619
7127.62016,0.03656
7129.54863,-0.03635
7131.47710,-0.06144
7133.40557,0.03959
7135.33404,0.19608
7137.26251,0.27775
7139.19098,0.20729
7141.11944,0.06149
7143.04791,0.00022
7144.97638,0.02315
7146.90485,0.04678
7148.83332,0.08207
7150.76179,0.13473
7152.69026,0.13957
7154.61873,0.08959
7156.54719,0.10869
7158.47566,0.15391
7160.40413,0.08230
7162.33260,0.00810
7164.26107,0.09119
7166.18954,0.20233
7168.11801,0.18546
7170.04647,0.08819
7171.97494,0.05871
7173.90341,0.11032
7175.83188,0.14856
7177.76035,0.19560
7179.68882,0.19124
7181.61729,0.04805
7183.54576,-0.03112
7185.47422,0.07040
7187.40269,0.17315
7189.33116,0.23290
7191.25963,0.28377
7193.18810,0.24782
7195.11657,0.13567
7197.04504,0.10426
7198.97350,0.11957
7200.90197,0.08561
7202.83044,0.03582
7204.75891,-0.05870
7206.68738,-0.14838
7208.61585,-0.14119
7210.54432,-0.09667
7212.47279,-0.00950
7214.40125,0.12883
7216.32972,0.19978
7218.25819,0.10608
7220.18666,-0.00536
7222.11513,-0.02631
7224.04360,-0.02237
7225.97207,-0.09371
7227.90053,-0.18542
7229.82900,-0.15166
7231.75747,-0.02530
7233.68594,0.06731
7235.61441,0.08521
7237.54288,-0.01735
7239.47135,-0.12831
7241.39982,-0.08076
7243.32828,0.03652
7245.25675,0.08167
7247.18522,0.10808
7249.11369,0.11518
7251.04216,0.10636
7252.97063,0.11261
7254.89910,0.01314
7256.82756,-0.10672
7258.75603,-0.10849
7260.68450,-0.03451
7262.61297,-0.01743
7264.54144,-0.06399
7266.46991,-0.12654
7268.39838,-0.14883
7270.32685,-0.04647
7272.25531,0.16946
7274.18378,0.22863
7276.11225,0.12731
7278.04072,0.06814
7279.96919,0.13541
7281.89766,0.18763
7283.82613,0.09930
7285.75459,-0.01117
7287.68306,-0.04057
7289.61153,-0.03098
7291.54000,-0.03948
7293.46847,-0.01593
7295.39694,0.07310
7297.32541,0.16500
7299.25387,0.20355
7301.18234,0.20245
7303.11081,0.19530
7305.03928,0.17307
7306.96775,0.12689
7308.89622,0.05748
7310.82469,-0.00139
7312.75316,0.03130
7314.68162,0.14460
7316.61009,0.26682
7318.53856,0.31014
7320.46703,0.23879
7322.39550,0.08597
7324.32397,-0.01680
7326.25244,0.00604
7328.18090,0.11963
7330.10937,0.21879
7332.03784,0.16346
7333.96631,0.07068
7335.89478,0.08441
7337.82325,0.09127
7339.75172,-0.04132
7341.68019,-0.11875
7343.60865,-0.14293
7345.53712,-0.22228
7347.46559,-0.21631
7349.39406,-0.07000
7351.32253,0.08313
7353.25100,0.11163
7355.17947,0.02837
7357.10793,-0.08166
7359.03640,-0.12385
7360.96487,-0.12305
7362.89334,-0.06262
7364.82181,0.11213
7366.75028,0.20362
7368.67875,0.16833
7370.60722,0.17537
7372.53568,0.20341
7374.46415,0.15357
7376.39262,0.07869
7378.32109,0.05840
7380.24956,0.04159
7382.17803,-0.01755
7384.10650,-0.11000
7386.03496,-0.11615
7387.96343,-0.02247
7389.89190,0.04009
7391.82037,0.05774
7393.74884,0.05826
7395.67731,0.08387
7397.60578,0.11633
7399.53425,0.08388
7401.46271,0.02167
7403.39118,-0.02089
7405.31965,-0.01501
7407.24812,0.00958
7409.17659,-0.03748
7411.10506,-0.12480
7413.03353,-0.10949
7414.96199,-0.00502
7416.89046,0.04991
7418.81893,0.05257
7420.74740,0.13315
7422.67587,0.20335
7424.60434,0.15265
7426.53281,0.01645
7428.46128,-0.05475
7430.38974,0.05606
7432.31821,0.15643
7434.24668,0.09208
7436.17515,-0.00846
7438.10362,-0.07028
7440.03209,-0.07243
7441.96056,0.06270
7443.88902,0.16778
7445.81749,0.07815
7447.74596,-0.06153
7449.67443,-0.09272
7451.60290,0.00239
7453.53137,0.12552
7455.45984,0.19817
7457.38831,0.19841
7459.31677,0.10605
7461.24524,0.05326
7463.17371,0.14881
7465.10218,0.24274
7467.03065,0.21821
7468.95912,0.09985
7470.88759,-0.03070
7472.81605,-0.06505
7474.74452,-0.05304
7476.67299,-0.07128
7478.60146,-0.07736
7480.52993,-0.05632
7482.45840,0.00238
7484.38687,0.10251
7486.31533,0.17029
7488.24380,0.11280
7490.17227,-0.05629
7492.10074,-0.13041
7494.02921,-0.08142
7495.95768,-0.05862
7497.88615,-0.00810
