399.19301,0.44565
401.12148,0.57056
403.04995,0.39861
404.97842,0.20348
406.90689,0.10552
408.83536,0.11173
410.76382,0.11172
412.69229,0.08216
414.62076,0.08514
416.54923,0.13254
418.47770,0.22799
420.40617,0.23200
422.33464,0.14640
424.26311,0.13987
426.19157,0.19468
428.12004,0.20716
430.04851,0.14969
431.97698,0.03333
433.90545,-0.05899
435.83392,-0.06204
437.76239,0.00691
439.69085,0.08883
441.61932,0.11542
443.54779,0.07833
445.47626,0.03165
447.40473,-0.03658
449.33320,-0.08419
451.26167,-0.03338
453.19013,0.06213
455.11860,0.11338
457.04707,0.11235
458.97554,0.12467
460.90401,0.15385
462.83248,0.15332
464.76095,0.13734
466.68942,0.14389
468.61788,0.16624
470.54635,0.17551
472.47482,0.14766
474.40329,0.06564
476.33176,0.02514
478.26023,0.05441
480.18870,0.10049
482.11716,0.14393
484.04563,0.20045
485.97410,0.23919
487.90257,0.21092
489.83104,0.16366
491.75951,0.14492
493.68798,0.15269
495.61645,0.14978
497.54491,0.10327
499.47338,0.08295
501.40185,0.11041
503.33032,0.10874
505.25879,0.06344
507.18726,0.02084
509.11573,0.02671
511.04419,0.06168
512.97266,0.08388
514.90113,0.10078
516.82960,0.13005
518.75807,0.15191
520.68654,0.13584
522.61501,0.10370
524.54348,0.09861
526.47194,0.11198
528.40041,0.11244
530.32888,0.09785
532.25735,0.09002
534.18582,0.10328
536.11429,0.09954
538.04276,0.06787
539.97122,0.06935
541.89969,0.10209
543.82816,0.10322
545.75663,0.08932
547.68510,0.11374
549.61357,0.15378
551.54204,0.17344
553.47051,0.16638
555.39897,0.12168
557.32744,0.07210
559.25591,0.06358
561.18438,0.07061
563.11285,0.06327
565.04132,0.06821
566.96979,0.09925
568.89825,0.13122
570.82672,0.15111
572.75519,0.14585
574.68366,0.12295
576.61213,0.11097
578.54060,0.10568
580.46907,0.10087
582.39754,0.10187
584.32600,0.10715
586.25447,0.10393
588.18294,0.09656
590.11141,0.10513
592.03988,0.10836
593.96835,0.09166
595.89682,0.09290
597.82528,0.11535
599.75375,0.11482
601.68222,0.08939
603.61069,0.07490
605.53916,0.07071
607.46763,0.07348
609.39610,0.09102
611.32456,0.10632
613.25303,0.10772
615.18150,0.09909
617.10997,0.08602
619.03844,0.08156
620.96691,0.08720
622.89538,0.08958
624.82385,0.08725
626.75231,0.09697
628.68078,0.11626
630.60925,0.11642
632.53772,0.09434
634.46619,0.07788
636.39466,0.08754
638.32313,0.10972
640.25159,0.12436
642.18006,0.13166
644.10853,0.13214
646.03700,0.13168
647.96547,0.13655
649.89394,0.13727
651.82241,0.12742
653.75088,0.10950
655.67934,0.09207
657.60781,0.08860
659.53628,0.10429
661.46475,0.11988
663.39322,0.11726
665.32169,0.10364
667.25016,0.07554
669.17862,0.04800
671.10709,0.06807
673.03556,0.09757
674.96403,0.11119
676.89250,0.11087
678.82097,0.10886
680.74944,0.11494
682.67791,0.12199
684.60637,0.12251
686.53484,0.12227
688.46331,0.12197
690.39178,0.12372
692.32025,0.13202
694.24872,0.13604
696.17719,0.12846
698.10565,0.11858
700.03412,0.11775
701.96259,0.12379
703.89106,0.12431
705.81953,0.12067
707.74800,0.11959
709.67647,0.11642
711.60494,0.11213
713.53340,0.11692
715.46187,0.12747
717.39034,0.13079
719.31881,0.12810
721.24728,0.12361
723.17575,0.12110
725.10422,0.12256
727.03268,0.11995
728.96115,0.11689
730.88962,0.11783
732.81809,0.11278
734.74656,0.10425
736.67503,0.10367
738.60350,0.11034
740.53197,0.11946
742.46043,0.12888
744.38890,0.13010
746.31737,0.11898
748.24584,0.11496
750.17431,0.12665
752.10278,0.13543
754.03125,0.13262
755.95971,0.12286
757.88818,0.11875
759.81665,0.12517
761.74512,0.13043
763.67359,0.13732
765.60206,0.14391
767.53053,0.13745
769.45900,0.12931
771.38746,0.13240
773.31593,0.14095
775.24440,0.14587
777.17287,0.14654
779.10134,0.14798
781.02981,0.14540
782.95828,0.13505
784.88674,0.12619
786.81521,0.12134
788.74368,0.11570
790.67215,0.11426
792.60062,0.12178
794.52909,0.13122
796.45756,0.13868
798.38602,0.14851
800.31449,0.14884
802.24296,0.12824
804.17143,0.11226
806.09990,0.12028
808.02837,0.13120
809.95684,0.12560
811.88531,0.11598
813.81377,0.11952
815.74224,0.12929
817.67071,0.13345
819.59918,0.13016
821.52765,0.11827
823.45612,0.10962
825.38459,0.11831
827.31305,0.13030
829.24152,0.12912
831.16999,0.12539
833.09846,0.13189
835.02693,0.14474
836.95540,0.15091
838.88387,0.14584
840.81234,0.13946
842.74080,0.14044
844.66927,0.14450
846.59774,0.14450
848.52621,0.14622
850.45468,0.15204
852.38315,0.14773
854.31162,0.13086
856.24008,0.11819
858.16855,0.11860
860.09702,0.12841
862.02549,0.13735
863.95396,0.13560
865.88243,0.12734
867.81090,0.12161
869.73937,0.12167
871.66783,0.12669
873.59630,0.13077
875.52477,0.13058
877.45324,0.12812
879.38171,0.12485
881.31018,0.12150
883.23865,0.11990
885.16711,0.12013
887.09558,0.12058
889.02405,0.12290
890.95252,0.12979
892.88099,0.13661
894.80946,0.13800
896.73793,0.13665
898.66640,0.13303
900.59486,0.12811
902.52333,0.12734
904.45180,0.13065
906.38027,0.13492
908.30874,0.13615
910.23721,0.12975
912.16568,0.12096
914.09414,0.12106
916.02261,0.12786
917.95108,0.13405
919.87955,0.13776
921.80802,0.13671
923.73649,0.13587
925.66496,0.14179
927.59343,0.14974
929.52189,0.15109
931.45036,0.14603
933.37883,0.14254
935.30730,0.14333
937.23577,0.14372
939.16424,0.14295
941.09271,0.14337
943.02117,0.14225
944.94964,0.14039
946.87811,0.14199
948.80658,0.14344
950.73505,0.14256
952.66352,0.14285
954.59199,0.14295
956.52045,0.14105
958.44892,0.14049
960.37739,0.13986
962.30586,0.13561
964.23433,0.13105
966.16280,0.13104
968.09127,0.13313
970.01974,0.13344
971.94820,0.13378
973.87667,0.13504
975.80514,0.13859
977.73361,0.14226
979.66208,0.13930
981.59055,0.13475
983.51902,0.13868
985.44748,0.14841
987.37595,0.15418
989.30442,0.15416
991.23289,0.15190
993.16136,0.14911
995.08983,0.14576
997.01830,0.14101
998.94677,0.13907
1000.87523,0.14327
1002.80370,0.14794
1004.73217,0.14531
1006.66064,0.13753
1008.58911,0.13249
1010.51758,0.13208
1012.44605,0.13617
1014.37451,0.14102
1016.30298,0.14263
1018.23145,0.14573
1020.15992,0.15202
1022.08839,0.15629
1024.01686,0.15574
1025.94533,0.15240
1027.87380,0.15171
1029.80226,0.15371
1031.73073,0.15229
1033.65920,0.14970
1035.58767,0.15036
1037.51614,0.15175
1039.44461,0.14971
1041.37308,0.14256
1043.30154,0.13697
1045.23001,0.14218
1047.15848,0.15378
1049.08695,0.16044
1051.01542,0.16292
1052.94389,0.16458
1054.87236,0.16487
1056.80083,0.16502
1058.72929,0.16268
1060.65776,0.15986
1062.58623,0.16210
1064.51470,0.16621
1066.44317,0.16575
1068.37164,0.16162
1070.30011,0.16127
1072.22857,0.16439
1074.15704,0.16306
1076.08551,0.15838
1078.01398,0.15547
1079.94245,0.15266
1081.87092,0.14845
1083.79939,0.14705
1085.72786,0.15200
1087.65632,0.15567
1089.58479,0.14957
1091.51326,0.13903
1093.44173,0.13641
1095.37020,0.14762
1097.29867,0.15977
1099.22714,0.15958
1101.15560,0.15567
1103.08407,0.15622
1105.01254,0.15757
1106.94101,0.15893
1108.86948,0.16015
1110.79795,0.15519
1112.72642,0.14843
1114.65489,0.15281
1116.58335,0.16215
1118.51182,0.16315
1120.44029,0.16071
1122.36876,0.16422
1124.29723,0.17057
1126.22570,0.17113
1128.15417,0.16628
1130.08263,0.16146
1132.01110,0.15538
1133.93957,0.14747
1135.86804,0.14302
1137.79651,0.14406
1139.72498,0.14828
1141.65345,0.15303
1143.58191,0.15670
1145.51038,0.16104
1147.43885,0.16624
1149.36732,0.16630
1151.29579,0.16066
1153.22426,0.15966
1155.15273,0.16494
1157.08120,0.16647
1159.00966,0.16313
1160.93813,0.15895
1162.86660,0.15553
1164.79507,0.15651
1166.72354,0.15919
1168.65201,0.15823
1170.58048,0.15795
1172.50894,0.16208
1174.43741,0.16664
1176.36588,0.16851
1178.29435,0.16759
1180.22282,0.16615
1182.15129,0.16682
1184.07976,0.16876
1186.00823,0.16784
1187.93669,0.15979
1189.86516,0.15068
1191.79363,0.15181
1193.72210,0.16096
1195.65057,0.16688
1197.57904,0.16523
1199.50751,0.16058
1201.43597,0.15811
1203.36444,0.15759
1205.29291,0.15715
1207.22138,0.15691
1209.14985,0.15563
1211.07832,0.15454
1213.00679,0.15729
1214.93526,0.16074
1216.86372,0.16080
1218.79219,0.15922
1220.72066,0.15831
1222.64913,0.15929
1224.57760,0.16340
1226.50607,0.16751
1228.43454,0.16643
1230.36300,0.16301
1232.29147,0.16288
1234.21994,0.16342
1236.14841,0.16079
1238.07688,0.15783
1240.00535,0.15745
1241.93382,0.15886
1243.86229,0.15805
1245.79075,0.15299
1247.71922,0.14984
1249.64769,0.15321
1251.57616,0.15644
1253.50463,0.15511
1255.43310,0.15570
1257.36157,0.15676
1259.29003,0.15096
1261.21850,0.14565
1263.14697,0.14842
1265.07544,0.15063
1267.00391,0.14683
1268.93238,0.14665
1270.86085,0.15532
1272.78932,0.16268
1274.71778,0.16126
1276.64625,0.15861
1278.57472,0.15890
1280.50319,0.15540
1282.43166,0.15271
1284.36013,0.15817
1286.28860,0.16131
1288.21706,0.15894
1290.14553,0.15945
1292.07400,0.15868
1294.00247,0.15237
1295.93094,0.14520
1297.85941,0.13957
1299.78788,0.13007
1301.71634,0.10756
1303.64481,0.08275
1305.57328,0.08766
1307.50175,0.12482
1309.43022,0.15696
1311.35869,0.16863
1313.28716,0.17227
1315.21563,0.17163
1317.14409,0.17063
1319.07256,0.17230
1321.00103,0.16945
1322.92950,0.16173
1324.85797,0.15237
1326.78644,0.14749
1328.71491,0.15376
1330.64337,0.15660
1332.57184,0.15132
1334.50031,0.15170
1336.42878,0.15338
1338.35725,0.15120
1340.28572,0.14469
1342.21419,0.14048
1344.14266,0.14501
1346.07112,0.14721
1347.99959,0.14765
1349.92806,0.15126
1351.85653,0.15251
1353.78500,0.15150
1355.71347,0.15148
1357.64194,0.15319
1359.57040,0.15568
1361.49887,0.16134
1363.42734,0.16651
1365.35581,0.16483
1367.28428,0.16389
1369.21275,0.16807
1371.14122,0.17304
1373.06969,0.17604
1374.99815,0.17665
1376.92662,0.17564
1378.85509,0.17607
1380.78356,0.17806
1382.71203,0.17922
1384.64050,0.17814
1386.56897,0.17528
1388.49743,0.17491
1390.42590,0.17835
1392.35437,0.18260
1394.28284,0.18644
1396.21131,0.18742
1398.13978,0.18483
1400.06825,0.18124
1401.99672,0.18017
1403.92518,0.18404
1405.85365,0.18701
1407.78212,0.18295
1409.71059,0.17823
1411.63906,0.17776
1413.56753,0.17998
1415.49600,0.18278
1417.42446,0.18489
1419.35293,0.18510
1421.28140,0.18559
1423.20987,0.18653
1425.13834,0.18508
1427.06681,0.18233
1428.99528,0.17967
1430.92375,0.17841
1432.85221,0.18223
1434.78068,0.19072
1436.70915,0.19513
1438.63762,0.18922
1440.56609,0.18360
1442.49456,0.18218
1444.42303,0.18215
1446.35149,0.18236
1448.27996,0.18527
1450.20843,0.18977
1452.13690,0.19236
1454.06537,0.19450
1455.99384,0.19896
1457.92231,0.20003
1459.85077,0.19414
1461.77924,0.19022
1463.70771,0.18919
1465.63618,0.18921
1467.56465,0.18942
1469.49312,0.19174
1471.42159,0.19751
1473.35006,0.20322
1475.27852,0.20288
1477.20699,0.19721
1479.13546,0.19131
1481.06393,0.18901
1482.99240,0.18882
1484.92087,0.19138
1486.84934,0.19984
1488.77780,0.20841
1490.70627,0.20487
1492.63474,0.19688
1494.56321,0.19566
1496.49168,0.20045
1498.42015,0.20064
1500.34862,0.19499
1502.27709,0.19376
1504.20555,0.20224
1506.13402,0.22118
1508.06249,0.22315
1509.99096,0.21000
1511.91943,0.20472
1513.84790,0.20388
1515.77637,0.20308
1517.70483,0.19858
1519.63330,0.19324
1521.56177,0.19698
1523.49024,0.20459
1525.41871,0.20353
1527.34718,0.19765
1529.27565,0.19569
1531.20412,0.20076
1533.13258,0.20927
1535.06105,0.21296
1536.98952,0.21452
1538.91799,0.22109
1540.84646,0.22788
1542.77493,0.22229
1544.70340,0.20946
1546.63186,0.19784
1548.56033,0.19174
1550.48880,0.18961
1552.41727,0.19264
1554.34574,0.20231
1556.27421,0.21551
1558.20268,0.22610
1560.13115,0.21332
1562.05961,0.19867
1563.98808,0.19374
1565.91655,0.19524
1567.84502,0.20082
1569.77349,0.20388
1571.70196,0.20170
1573.63043,0.20069
1575.55889,0.19973
1577.48736,0.19552
1579.41583,0.19328
1581.34430,0.19346
1583.27277,0.19340
1585.20124,0.19275
1587.12971,0.19398
1589.05818,0.19774
1590.98664,0.19908
1592.91511,0.19414
1594.84358,0.18600
1596.77205,0.18143
1598.70052,0.18446
1600.62899,0.19243
1602.55746,0.19873
1604.48592,0.19881
1606.41439,0.19557
1608.34286,0.19414
1610.27133,0.19349
1612.19980,0.19381
1614.12827,0.20009
1616.05674,0.20911
1617.98521,0.20706
1619.91367,0.20047
1621.84214,0.19890
1623.77061,0.20019
1625.69908,0.20078
1627.62755,0.19901
1629.55602,0.19570
1631.48449,0.19494
1633.41295,0.19977
1635.34142,0.20919
1637.26989,0.20851
1639.19836,0.20159
1641.12683,0.20191
1643.05530,0.21001
1644.98377,0.22400
1646.91223,0.23555
1648.84070,0.23117
1650.76917,0.22761
1652.69764,0.23024
1654.62611,0.21946
1656.55458,0.20767
1658.48305,0.20340
1660.41152,0.20358
1662.33998,0.20525
1664.26845,0.20441
1666.19692,0.20320
1668.12539,0.20411
1670.05386,0.20502
1671.98233,0.20603
1673.91080,0.20801
1675.83926,0.20561
1677.76773,0.20084
1679.69620,0.20233
1681.62467,0.21163
1683.55314,0.22281
1685.48161,0.21926
1687.41008,0.20902
1689.33855,0.20283
1691.26701,0.19880
1693.19548,0.19795
1695.12395,0.20378
1697.05242,0.21324
1698.98089,0.21690
1700.90936,0.21186
1702.83783,0.20578
1704.76629,0.20425
1706.69476,0.20173
1708.62323,0.19729
1710.55170,0.19695
1712.48017,0.20195
1714.40864,0.21189
1716.33711,0.22231
1718.26558,0.21554
1720.19404,0.20159
1722.12251,0.19647
1724.05098,0.19436
1725.97945,0.19174
1727.90792,0.19215
1729.83639,0.19468
1731.76486,0.19769
1733.69332,0.20156
1735.62179,0.20070
1737.55026,0.19752
1739.47873,0.19657
1741.40720,0.19885
1743.33567,0.20162
1745.26414,0.20238
1747.19261,0.20346
1749.12107,0.20582
1751.04954,0.20428
1752.97801,0.19873
1754.90648,0.19534
1756.83495,0.19593
1758.76342,0.19777
1760.69189,0.19849
1762.62035,0.19807
1764.54882,0.19802
1766.47729,0.19948
1768.40576,0.20083
1770.33423,0.20379
1772.26270,0.20868
1774.19117,0.20634
1776.11964,0.20002
1778.04810,0.19639
1779.97657,0.19510
1781.90504,0.19416
1783.83351,0.19449
1785.76198,0.19726
1787.69045,0.20073
1789.61892,0.20483
1791.54738,0.20858
1793.47585,0.20510
1795.40432,0.19718
1797.33279,0.19367
1799.26126,0.19452
1801.18973,0.19464
1803.11820,0.19457
1805.04666,0.19684
1806.97513,0.19844
1808.90360,0.19749
1810.83207,0.19630
1812.76054,0.19586
1814.68901,0.19780
1816.61748,0.20113
1818.54595,0.19904
1820.47441,0.19624
1822.40288,0.20025
1824.33135,0.20191
1826.25982,0.19690
1828.18829,0.19441
1830.11676,0.19463
1832.04523,0.19308
1833.97369,0.19229
1835.90216,0.19490
1837.83063,0.19719
1839.75910,0.19672
1841.68757,0.19741
1843.61604,0.19967
1845.54451,0.19961
1847.47298,0.19818
1849.40144,0.19633
1851.32991,0.19403
1853.25838,0.19408
1855.18685,0.19656
1857.11532,0.19847
1859.04379,0.19792
1860.97226,0.19483
1862.90072,0.19268
1864.82919,0.19484
1866.75766,0.20066
1868.68613,0.20584
1870.61460,0.20375
1872.54307,0.19660
1874.47154,0.19162
1876.40001,0.19082
1878.32847,0.19138
1880.25694,0.19203
1882.18541,0.19254
1884.11388,0.19165
1886.04235,0.19119
1887.97082,0.19392
1889.89929,0.19629
1891.82775,0.19476
1893.75622,0.19295
1895.68469,0.19285
1897.61316,0.19262
1899.54163,0.19162
1901.47010,0.19203
1903.39857,0.19425
1905.32704,0.19542
1907.25550,0.19523
1909.18397,0.19508
1911.11244,0.19371
1913.04091,0.19176
1914.96938,0.19355
1916.89785,0.19813
1918.82632,0.19872
1920.75478,0.19630
1922.68325,0.19571
1924.61172,0.19572
1926.54019,0.19426
1928.46866,0.19221
1930.39713,0.19201
1932.32560,0.19377
1934.25407,0.19503
1936.18253,0.19380
1938.11100,0.19192
1940.03947,0.19375
1941.96794,0.19761
1943.89641,0.19865
1945.82488,0.19688
1947.75335,0.19380
1949.68181,0.19100
1951.61028,0.19019
1953.53875,0.19253
1955.46722,0.19535
1957.39569,0.19419
1959.32416,0.19211
1961.25263,0.19289
1963.18110,0.19469
1965.10956,0.19676
1967.03803,0.19830
1968.96650,0.19698
1970.89497,0.19372
1972.82344,0.19112
1974.75191,0.19168
1976.68038,0.19500
1978.60884,0.19692
1980.53731,0.19629
1982.46578,0.19504
1984.39425,0.19394
1986.32272,0.19372
1988.25119,0.19485
1990.17966,0.19739
1992.10812,0.19971
1994.03659,0.19997
1995.96506,0.19969
1997.89353,0.19870
1999.82200,0.19582
2001.75047,0.19389
2003.67894,0.19459
2005.60741,0.19547
2007.53587,0.19637
2009.46434,0.19883
2011.39281,0.20034
2013.32128,0.19933
2015.24975,0.19840
2017.17822,0.19791
2019.10669,0.19612
2021.03515,0.19430
2022.96362,0.19355
2024.89209,0.19263
2026.82056,0.19278
2028.74903,0.19495
2030.67750,0.19658
2032.60597,0.19762
2034.53444,0.19823
2036.46290,0.19614
2038.39137,0.19386
2040.31984,0.19456
2042.24831,0.19598
2044.17678,0.19682
2046.10525,0.19700
2048.03372,0.19550
2049.96218,0.19378
2051.89065,0.19330
2053.81912,0.19335
2055.74759,0.19438
2057.67606,0.19690
2059.60453,0.19811
2061.53300,0.19692
2063.46147,0.19631
2065.38993,0.19689
2067.31840,0.19818
2069.24687,0.19971
2071.17534,0.19862
2073.10381,0.19538
2075.03228,0.19428
2076.96075,0.19611
2078.88921,0.19765
2080.81768,0.19674
2082.74615,0.19523
2084.67462,0.19519
2086.60309,0.19469
2088.53156,0.19290
2090.46003,0.19231
2092.38850,0.19239
2094.31696,0.19301
2096.24543,0.19586
2098.17390,0.19853
2100.10237,0.19894
2102.03084,0.19805
2103.95931,0.19662
2105.88778,0.19614
2107.81624,0.19665
2109.74471,0.19642
2111.67318,0.19562
2113.60165,0.19525
2115.53012,0.19608
2117.45859,0.19726
2119.38706,0.19793
2121.31553,0.19888
2123.24399,0.19859
2125.17246,0.19687
2127.10093,0.19723
2129.02940,0.19946
2130.95787,0.20010
2132.88634,0.19893
2134.81481,0.19736
2136.74327,0.19626
2138.67174,0.19626
2140.60021,0.19699
2142.52868,0.19842
2144.45715,0.19914
2146.38562,0.19850
2148.31409,0.19850
2150.24255,0.19826
2152.17102,0.19682
2154.09949,0.19575
2156.02796,0.19522
2157.95643,0.19478
2159.88490,0.19551
2161.81337,0.19761
2163.74184,0.19969
2165.67030,0.20198
2167.59877,0.20373
2169.52724,0.20312
2171.45571,0.20103
2173.38418,0.19869
2175.31265,0.19666
2177.24112,0.19679
2179.16958,0.19916
2181.09805,0.20014
2183.02652,0.19835
2184.95499,0.19649
2186.88346,0.19655
2188.81193,0.19761
2190.74040,0.19706
2192.66887,0.19544
2194.59733,0.19582
2196.52580,0.19853
2198.45427,0.20163
2200.38274,0.20321
2202.31121,0.20287
2204.23968,0.20091
2206.16815,0.19801
2208.09661,0.19685
2210.02508,0.19763
2211.95355,0.19858
2213.88202,0.20082
2215.81049,0.20294
2217.73896,0.20174
2219.66743,0.19963
2221.59590,0.19980
2223.52436,0.20086
2225.45283,0.20058
2227.38130,0.20015
2229.30977,0.20029
2231.23824,0.19887
2233.16671,0.19651
2235.09518,0.19594
2237.02364,0.19713
2238.95211,0.19932
2240.88058,0.20206
2242.80905,0.20338
2244.73752,0.20241
2246.66599,0.20109
2248.59446,0.20009
2250.52293,0.19783
2252.45139,0.19574
2254.37986,0.19649
2256.30833,0.19792
2258.23680,0.19792
2260.16527,0.19766
2262.09374,0.19751
2264.02221,0.19816
2265.95067,0.19955
2267.87914,0.19868
2269.80761,0.19641
2271.73608,0.19712
2273.66455,0.19926
2275.59302,0.19964
2277.52149,0.19939
2279.44996,0.19922
2281.37842,0.19954
2283.30689,0.20014
2285.23536,0.19919
2287.16383,0.19805
2289.09230,0.19864
2291.02077,0.19860
2292.94924,0.19689
2294.87770,0.19616
2296.80617,0.19763
2298.73464,0.19952
2300.66311,0.19988
2302.59158,0.19845
2304.52005,0.19642
2306.44852,0.19629
2308.37699,0.19792
2310.30545,0.19783
2312.23392,0.19777
2314.16239,0.20109
2316.09086,0.20495
2318.01933,0.20565
2319.94780,0.20079
2321.87627,0.19160
2323.80473,0.18576
2325.73320,0.18954
2327.66167,0.19872
2329.59014,0.20035
2331.51861,0.19115
2333.44708,0.18439
2335.37555,0.18785
2337.30401,0.19533
2339.23248,0.19722
2341.16095,0.19439
2343.08942,0.19474
2345.01789,0.19867
2346.94636,0.20359
2348.87483,0.20774
2350.80330,0.20428
2352.73176,0.18641
2354.66023,0.17190
2356.58870,0.18587
2358.51717,0.19902
2360.44564,0.18671
2362.37411,0.17987
2364.30258,0.19222
2366.23104,0.20842
2368.15951,0.21521
2370.08798,0.21019
2372.01645,0.20304
2373.94492,0.20049
2375.87339,0.20046
2377.80186,0.20041
2379.73033,0.19981
2381.65879,0.19898
2383.58726,0.19985
2385.51573,0.20226
2387.44420,0.20324
2389.37267,0.20100
2391.30114,0.19684
2393.22961,0.19491
2395.15807,0.19678
2397.08654,0.19873
2399.01501,0.19817
2400.94348,0.19746
2402.87195,0.19828
2404.80042,0.19887
2406.72889,0.19867
2408.65736,0.19879
2410.58582,0.20009
2412.51429,0.20194
2414.44276,0.20217
2416.37123,0.20109
2418.29970,0.20121
2420.22817,0.20196
2422.15664,0.20056
2424.08510,0.19730
2426.01357,0.19557
2427.94204,0.19688
2429.87051,0.19764
2431.79898,0.19644
2433.72745,0.19653
2435.65592,0.19782
2437.58439,0.19851
2439.51285,0.19885
2441.44132,0.19812
2443.36979,0.19598
2445.29826,0.19519
2447.22673,0.19567
2449.15520,0.19596
2451.08367,0.19848
2453.01213,0.20126
2454.94060,0.19966
2456.86907,0.19650
2458.79754,0.19658
2460.72601,0.19889
2462.65448,0.20036
2464.58295,0.20015
2466.51142,0.19969
2468.43988,0.20102
2470.36835,0.20221
2472.29682,0.20018
2474.22529,0.19726
2476.15376,0.19745
2478.08223,0.19973
2480.01070,0.20092
2481.93916,0.20107
2483.86763,0.20083
2485.79610,0.20011
2487.72457,0.20031
2489.65304,0.20197
2491.58151,0.20292
2493.50998,0.20106
2495.43844,0.19835
2497.36691,0.19870
2499.29538,0.20189
2501.22385,0.20461
2503.15232,0.20522
2505.08079,0.20399
2507.00926,0.20198
2508.93773,0.20148
2510.86619,0.20305
2512.79466,0.20442
2514.72313,0.20451
2516.65160,0.20303
2518.58007,0.20107
2520.50854,0.20037
2522.43701,0.20047
2524.36547,0.20107
2526.29394,0.20232
2528.22241,0.20423
2530.15088,0.20387
2532.07935,0.20002
2534.00782,0.19917
2535.93629,0.20303
2537.86476,0.20562
2539.79322,0.20433
2541.72169,0.20214
2543.65016,0.20216
2545.57863,0.20344
2547.50710,0.20331
2549.43557,0.20172
2551.36404,0.20118
2553.29250,0.20211
2555.22097,0.20362
2557.14944,0.20601
2559.07791,0.20725
2561.00638,0.20672
2562.93485,0.20670
2564.86332,0.20541
2566.79179,0.20146
2568.72025,0.19926
2570.64872,0.20066
2572.57719,0.20173
2574.50566,0.20204
2576.43413,0.20423
2578.36260,0.20546
2580.29107,0.20404
2582.21953,0.20304
2584.14800,0.20215
2586.07647,0.20078
2588.00494,0.20065
2589.93341,0.20094
2591.86188,0.20110
2593.79035,0.20192
2595.71882,0.20269
2597.64728,0.20323
2599.57575,0.20361
2601.50422,0.20287
2603.43269,0.20227
2605.36116,0.20384
2607.28963,0.20547
2609.21810,0.20528
2611.14656,0.20452
2613.07503,0.20345
2615.00350,0.20252
2616.93197,0.20300
2618.86044,0.20350
2620.78891,0.20256
2622.71738,0.20264
2624.64585,0.20459
2626.57431,0.20496
2628.50278,0.20339
2630.43125,0.20235
2632.35972,0.20195
2634.28819,0.20118
2636.21666,0.20051
2638.14513,0.20170
2640.07359,0.20472
2642.00206,0.20663
2643.93053,0.20577
2645.85900,0.20445
2647.78747,0.20504
2649.71594,0.20668
2651.64441,0.20717
2653.57288,0.20687
2655.50134,0.20751
2657.42981,0.20869
2659.35828,0.20959
2661.28675,0.21005
2663.21522,0.20939
2665.14369,0.20759
2667.07216,0.20567
2669.00062,0.20446
2670.92909,0.20433
2672.85756,0.20522
2674.78603,0.20628
2676.71450,0.20670
2678.64297,0.20621
2680.57144,0.20529
2682.49990,0.20440
2684.42837,0.20400
2686.35684,0.20505
2688.28531,0.20757
2690.21378,0.20964
2692.14225,0.20973
2694.07072,0.20846
2695.99919,0.20670
2697.92765,0.20583
2699.85612,0.20621
2701.78459,0.20584
2703.71306,0.20467
2705.64153,0.20440
2707.57000,0.20512
2709.49847,0.20594
2711.42693,0.20624
2713.35540,0.20543
2715.28387,0.20382
2717.21234,0.20250
2719.14081,0.20317
2721.06928,0.20710
2722.99775,0.21059
2724.92622,0.20996
2726.85468,0.20842
2728.78315,0.20899
2730.71162,0.21043
2732.64009,0.21132
2734.56856,0.21074
2736.49703,0.21099
2738.42550,0.21432
2740.35396,0.21599
2742.28243,0.21304
2744.21090,0.20896
2746.13937,0.20714
2748.06784,0.20874
2749.99631,0.21189
2751.92478,0.21310
2753.85325,0.21270
2755.78171,0.21315
2757.71018,0.21350
2759.63865,0.21193
2761.56712,0.21022
2763.49559,0.21098
2765.42406,0.21158
2767.35253,0.21063
2769.28099,0.21216
2771.20946,0.21519
2773.13793,0.21565
2775.06640,0.21488
2776.99487,0.21556
2778.92334,0.21684
2780.85181,0.21692
2782.78028,0.21564
2784.70874,0.21450
2786.63721,0.21525
2788.56568,0.21741
2790.49415,0.21819
2792.42262,0.21584
2794.35109,0.21250
2796.27956,0.21126
2798.20802,0.21257
2800.13649,0.21483
2802.06496,0.21708
2803.99343,0.21784
2805.92190,0.21597
2807.85037,0.21497
2809.77884,0.21664
2811.70731,0.21750
2813.63577,0.21694
2815.56424,0.21681
2817.49271,0.21649
2819.42118,0.21602
2821.34965,0.21544
2823.27812,0.21495
2825.20659,0.21594
2827.13505,0.21590
2829.06352,0.21421
2830.99199,0.21319
2832.92046,0.21266
2834.84893,0.21212
2836.77740,0.21161
2838.70587,0.21343
2840.63433,0.21764
2842.56280,0.21908
2844.49127,0.21697
2846.41974,0.21638
2848.34821,0.21804
2850.27668,0.21848
2852.20515,0.21856
2854.13362,0.21961
2856.06208,0.21949
2857.99055,0.21749
2859.91902,0.21435
2861.84749,0.21079
2863.77596,0.20922
2865.70443,0.21158
2867.63290,0.21687
2869.56136,0.22203
2871.48983,0.22341
2873.41830,0.21943
2875.34677,0.21428
2877.27524,0.21384
2879.20371,0.21717
2881.13218,0.21876
2883.06065,0.21503
2884.98911,0.20905
2886.91758,0.20731
2888.84605,0.21065
2890.77452,0.21560
2892.70299,0.21691
2894.63146,0.21107
2896.55993,0.20493
2898.48839,0.20591
2900.41686,0.21050
2902.34533,0.21262
2904.27380,0.20962
2906.20227,0.20648
2908.13074,0.21007
2910.05921,0.21574
2911.98768,0.21698
2913.91614,0.20999
2915.84461,0.19760
2917.77308,0.19665
2919.70155,0.20922
2921.63002,0.21844
2923.55849,0.21245
2925.48696,0.19386
2927.41542,0.18659
2929.34389,0.19954
2931.27236,0.21078
2933.20083,0.20978
2935.12930,0.19618
2937.05777,0.17910
2938.98624,0.18415
2940.91471,0.20561
2942.84317,0.21473
2944.77164,0.20433
2946.70011,0.18544
2948.62858,0.18328
2950.55705,0.20359
2952.48552,0.21960
2954.41399,0.21517
2956.34245,0.19268
2958.27092,0.17745
2960.19939,0.19137
2962.12786,0.21217
2964.05633,0.21621
2965.98480,0.20573
2967.91327,0.19556
2969.84174,0.20345
2971.77020,0.21937
2973.69867,0.22420
2975.62714,0.21643
2977.55561,0.20055
2979.48408,0.19602
2981.41255,0.21031
2983.34102,0.22154
2985.26948,0.21802
2987.19795,0.20582
2989.12642,0.19999
2991.05489,0.20787
2992.98336,0.21812
2994.91183,0.22240
2996.84030,0.21869
2998.76877,0.21179
3000.69723,0.21257
3002.62570,0.21874
3004.55417,0.21953
3006.48264,0.21002
3008.41111,0.19198
3010.33958,0.16567
3012.26805,0.12713
3014.19651,0.08121
3016.12498,0.05357
3018.05345,0.07917
3019.98192,0.14695
3021.91039,0.20264
3023.83886,0.22505
3025.76733,0.22526
3027.69579,0.21573
3029.62426,0.21144
3031.55273,0.21542
3033.48120,0.21894
3035.40967,0.21949
3037.33814,0.21739
3039.26661,0.21544
3041.19508,0.21952
3043.12354,0.22686
3045.05201,0.22591
3046.98048,0.21501
3048.90895,0.21114
3050.83742,0.21927
3052.76589,0.22539
3054.69436,0.21815
3056.62282,0.19978
3058.55129,0.19619
3060.47976,0.21270
3062.40823,0.22081
3064.33670,0.20835
3066.26517,0.18942
3068.19364,0.18901
3070.12211,0.20633
3072.05057,0.21552
3073.97904,0.20726
3075.90751,0.19655
3077.83598,0.20368
3079.76445,0.21978
3081.69292,0.22004
3083.62139,0.20171
3085.54985,0.18669
3087.47832,0.19560
3089.40679,0.21353
3091.33526,0.21560
3093.26373,0.20080
3095.19220,0.18985
3097.12067,0.19857
3099.04914,0.21211
3100.97760,0.21193
3102.90607,0.19809
3104.83454,0.19343
3106.76301,0.20929
3108.69148,0.22195
3110.61995,0.21501
3112.54842,0.19958
3114.47688,0.19945
3116.40535,0.21515
3118.33382,0.22257
3120.26229,0.21307
3122.19076,0.20417
3124.11923,0.21188
3126.04770,0.22213
3127.97617,0.21874
3129.90463,0.20825
3131.83310,0.20761
3133.76157,0.21994
3135.69004,0.22717
3137.61851,0.21916
3139.54698,0.20840
3141.47545,0.21206
3143.40391,0.22358
3145.33238,0.22429
3147.26085,0.21507
3149.18932,0.21248
3151.11779,0.22194
3153.04626,0.23222
3154.97473,0.23538
3156.90320,0.23156
3158.83166,0.22652
3160.76013,0.22479
3162.68860,0.22570
3164.61707,0.22820
3166.54554,0.23037
3168.47401,0.23171
3170.40248,0.23239
3172.33094,0.23183
3174.25941,0.23100
3176.18788,0.23133
3178.11635,0.23121
3180.04482,0.23174
3181.97329,0.23552
3183.90176,0.23963
3185.83022,0.24116
3187.75869,0.23700
3189.68716,0.22844
3191.61563,0.22386
3193.54410,0.22605
3195.47257,0.22773
3197.40104,0.22604
3199.32951,0.22683
3201.25797,0.22889
3203.18644,0.22852
3205.11491,0.22671
3207.04338,0.22433
3208.97185,0.22336
3210.90032,0.22507
3212.82879,0.22626
3214.75725,0.22413
3216.68572,0.22331
3218.61419,0.22655
3220.54266,0.22906
3222.47113,0.22906
3224.39960,0.22780
3226.32807,0.22611
3228.25654,0.22645
3230.18500,0.22959
3232.11347,0.23298
3234.04194,0.23560
3235.97041,0.23868
3237.89888,0.24015
3239.82735,0.23522
3241.75582,0.22723
3243.68428,0.22555
3245.61275,0.22777
3247.54122,0.22610
3249.46969,0.22391
3251.39816,0.22451
3253.32663,0.22511
3255.25510,0.22434
3257.18357,0.22309
3259.11203,0.22280
3261.04050,0.22397
3262.96897,0.22606
3264.89744,0.22794
3266.82591,0.22970
3268.75438,0.23097
3270.68285,0.22927
3272.61131,0.22676
3274.53978,0.22743
3276.46825,0.22773
3278.39672,0.22375
3280.32519,0.21949
3282.25366,0.21854
3284.18213,0.22131
3286.11060,0.22577
3288.03906,0.22808
3289.96753,0.22948
3291.89600,0.23004
3293.82447,0.22543
3295.75294,0.21998
3297.68141,0.22244
3299.60988,0.22948
3301.53834,0.23144
3303.46681,0.22839
3305.39528,0.22645
3307.32375,0.22824
3309.25222,0.23129
3311.18069,0.23125
3313.10916,0.22691
3315.03763,0.22216
3316.96609,0.22158
3318.89456,0.22442
3320.82303,0.22652
3322.75150,0.22697
3324.67997,0.22780
3326.60844,0.22910
3328.53691,0.22996
3330.46537,0.23125
3332.39384,0.23249
3334.32231,0.23117
3336.25078,0.22826
3338.17925,0.22813
3340.10772,0.23247
3342.03619,0.23735
3343.96466,0.23653
3345.89312,0.22992
3347.82159,0.22446
3349.75006,0.22527
3351.67853,0.22975
3353.60700,0.23108
3355.53547,0.22815
3357.46394,0.22566
3359.39240,0.22655
3361.32087,0.22949
3363.24934,0.23150
3365.17781,0.23096
3367.10628,0.22769
3369.03475,0.22522
3370.96322,0.22543
3372.89168,0.22542
3374.82015,0.22639
3376.74862,0.22886
3378.67709,0.22931
3380.60556,0.22819
3382.53403,0.22714
3384.46250,0.22627
3386.39097,0.22641
3388.31943,0.22632
3390.24790,0.22450
3392.17637,0.22311
3394.10484,0.22269
3396.03331,0.22334
3397.96178,0.22750
3399.89025,0.23198
3401.81871,0.23138
3403.74718,0.22719
3405.67565,0.22541
3407.60412,0.22711
3409.53259,0.22682
3411.46106,0.22436
3413.38953,0.22426
3415.31800,0.22557
3417.24646,0.22795
3419.17493,0.23305
3421.10340,0.23520
3423.03187,0.23015
3424.96034,0.22234
3426.88881,0.21655
3428.81728,0.21565
3430.74574,0.21754
3432.67421,0.21848
3434.60268,0.22008
3436.53115,0.22152
3438.45962,0.21842
3440.38809,0.21414
3442.31656,0.21601
3444.24503,0.22144
3446.17349,0.22294
3448.10196,0.21996
3450.03043,0.21625
3451.95890,0.21475
3453.88737,0.21530
3455.81584,0.21509
3457.74431,0.21377
3459.67277,0.21336
3461.60124,0.21338
3463.52971,0.21201
3465.45818,0.21092
3467.38665,0.21070
3469.31512,0.20914
3471.24359,0.20768
3473.17206,0.20794
3475.10052,0.20758
3477.02899,0.20539
3478.95746,0.20526
3480.88593,0.20857
3482.81440,0.21081
3484.74287,0.21119
3486.67134,0.21098
3488.59980,0.20905
3490.52827,0.20582
3492.45674,0.20405
3494.38521,0.20389
3496.31368,0.20248
3498.24215,0.19943
3500.17062,0.19550
3502.09909,0.19359
3504.02755,0.19480
3505.95602,0.19536
3507.88449,0.19389
3509.81296,0.18896
3511.74143,0.18262
3513.66990,0.18152
3515.59837,0.18681
3517.52683,0.19344
3519.45530,0.19870
3521.38377,0.20327
3523.31224,0.20362
3525.24071,0.19878
3527.16918,0.19513
3529.09765,0.19520
3531.02611,0.19342
3532.95458,0.18714
3534.88305,0.18248
3536.81152,0.18202
3538.73999,0.18297
3540.66846,0.18484
3542.59693,0.18510
3544.52540,0.18355
3546.45386,0.18314
3548.38233,0.18144
3550.31080,0.17953
3552.23927,0.18085
3554.16774,0.18193
3556.09621,0.18025
3558.02468,0.17982
3559.95314,0.18167
3561.88161,0.18253
3563.81008,0.18285
3565.73855,0.18405
3567.66702,0.18485
3569.59549,0.18243
3571.52396,0.17642
3573.45243,0.17091
3575.38089,0.16913
3577.30936,0.17031
3579.23783,0.17187
3581.16630,0.17060
3583.09477,0.16744
3585.02324,0.16721
3586.95171,0.17004
3588.88017,0.17044
3590.80864,0.17011
3592.73711,0.17246
3594.66558,0.17402
3596.59405,0.17235
3598.52252,0.17106
3600.45099,0.17011
3602.37946,0.16813
3604.30792,0.16895
3606.23639,0.17339
3608.16486,0.17511
3610.09333,0.17121
3612.02180,0.16514
3613.95027,0.15990
3615.87874,0.16052
3617.80720,0.16359
3619.73567,0.16264
3621.66414,0.16015
3623.59261,0.15759
3625.52108,0.15589
3627.44955,0.15882
3629.37802,0.16084
3631.30649,0.15459
3633.23495,0.14904
3635.16342,0.14666
3637.09189,0.14651
3639.02036,0.14718
3640.94883,0.14771
3642.87730,0.14839
3644.80577,0.15132
3646.73423,0.16188
3648.66270,0.17520
3650.59117,0.16754
3652.51964,0.15356
3654.44811,0.14845
3656.37658,0.14968
3658.30505,0.15236
3660.23352,0.15201
3662.16198,0.14768
3664.09045,0.14272
3666.01892,0.14339
3667.94739,0.15189
3669.87586,0.16052
3671.80433,0.16179
3673.73280,0.16490
3675.66126,0.16503
3677.58973,0.15472
3679.51820,0.14822
3681.44667,0.14813
3683.37514,0.14958
3685.30361,0.14767
3687.23208,0.14394
3689.16055,0.14578
3691.08901,0.14660
3693.01748,0.14012
3694.94595,0.13698
3696.87442,0.13880
3698.80289,0.13968
3700.73136,0.13817
3702.65983,0.13742
3704.58829,0.14030
3706.51676,0.14540
3708.44523,0.14944
3710.37370,0.15114
3712.30217,0.15203
3714.23064,0.15104
3716.15911,0.14639
3718.08757,0.13902
3720.01604,0.13414
3721.94451,0.13621
3723.87298,0.13927
3725.80145,0.13865
3727.72992,0.13864
3729.65839,0.13998
3731.58686,0.14348
3733.51532,0.15252
3735.44379,0.15749
3737.37226,0.14888
3739.30073,0.14270
3741.22920,0.14423
3743.15767,0.14657
3745.08614,0.14500
3747.01460,0.14219
3748.94307,0.14222
3750.87154,0.14908
3752.80001,0.15505
3754.72848,0.15247
3756.65695,0.14612
3758.58542,0.14030
3760.51389,0.13871
3762.44235,0.14070
3764.37082,0.14166
3766.29929,0.13890
3768.22776,0.13599
3770.15623,0.13479
3772.08470,0.13450
3774.01317,0.13574
3775.94163,0.13693
3777.87010,0.13606
3779.79857,0.13152
3781.72704,0.12824
3783.65551,0.13079
3785.58398,0.13345
3787.51245,0.13323
3789.44092,0.13493
3791.36938,0.13919
3793.29785,0.14205
3795.22632,0.14182
3797.15479,0.14358
3799.08326,0.15003
3801.01173,0.15233
3802.94020,0.14580
3804.86866,0.14109
3806.79713,0.13659
3808.72560,0.12853
3810.65407,0.12438
3812.58254,0.12618
3814.51101,0.13134
3816.43948,0.13788
3818.36795,0.14084
3820.29641,0.13729
3822.22488,0.13262
3824.15335,0.13270
3826.08182,0.13239
3828.01029,0.13397
3829.93876,0.14160
3831.86723,0.14866
3833.79569,0.15198
3835.72416,0.15366
3837.65263,0.14661
3839.58110,0.13220
3841.50957,0.12545
3843.43804,0.12520
3845.36651,0.12723
3847.29498,0.13111
3849.22344,0.13542
3851.15191,0.14275
3853.08038,0.15474
3855.00885,0.14771
3856.93732,0.13101
3858.86579,0.12454
3860.79426,0.12886
3862.72272,0.13653
3864.65119,0.13747
3866.57966,0.13495
3868.50813,0.13762
3870.43660,0.14152
3872.36507,0.13712
3874.29354,0.12752
3876.22200,0.12111
3878.15047,0.12167
3880.07894,0.12562
3882.00741,0.12896
3883.93588,0.13369
3885.86435,0.13642
3887.79282,0.13194
3889.72129,0.12631
3891.64975,0.12282
3893.57822,0.12064
3895.50669,0.12007
3897.43516,0.12303
3899.36363,0.13091
3901.29210,0.13795
3903.22057,0.13731
3905.14903,0.13393
3907.07750,0.13214
3909.00597,0.12888
3910.93444,0.12303
3912.86291,0.11911
3914.79138,0.12170
3916.71985,0.12761
3918.64832,0.12910
3920.57678,0.12672
3922.50525,0.12688
3924.43372,0.12837
3926.36219,0.12681
3928.29066,0.12518
3930.21913,0.12576
3932.14760,0.12586
3934.07606,0.12347
3936.00453,0.11907
3937.93300,0.11492
3939.86147,0.11509
3941.78994,0.11983
3943.71841,0.12363
3945.64688,0.12328
3947.57535,0.12017
3949.50381,0.11750
3951.43228,0.11835
3953.36075,0.12025
3955.28922,0.11951
3957.21769,0.11692
3959.14616,0.11360
3961.07463,0.10945
3963.00309,0.10729
3964.93156,0.10907
3966.86003,0.11378
3968.78850,0.11644
3970.71697,0.11313
3972.64544,0.11099
3974.57391,0.11379
3976.50238,0.11447
3978.43084,0.11265
3980.35931,0.11285
3982.28778,0.11233
3984.21625,0.10929
3986.14472,0.10932
3988.07319,0.11432
3990.00166,0.11746
3991.93012,0.11456
3993.85859,0.11222
3995.78706,0.11512
3997.71553,0.11781
3999.64400,0.11347
4001.57247,0.10528
4003.50094,0.10330
4005.42941,0.10564
4007.35787,0.10515
4009.28634,0.10523
4011.21481,0.10857
4013.14328,0.11144
4015.07175,0.11302
4017.00022,0.11315
4018.92869,0.11065
4020.85715,0.10826
4022.78562,0.10722
4024.71409,0.10606
4026.64256,0.10244
4028.57103,0.09687
4030.49950,0.09557
4032.42797,0.09944
4034.35644,0.10420
4036.28490,0.10663
4038.21337,0.10544
4040.14184,0.10258
4042.07031,0.10060
4043.99878,0.10197
4045.92725,0.10524
4047.85572,0.10712
4049.78418,0.10951
4051.71265,0.11065
4053.64112,0.10664
4055.56959,0.10402
4057.49806,0.10639
4059.42653,0.10602
4061.35500,0.10341
4063.28346,0.10548
4065.21193,0.10747
4067.14040,0.10466
4069.06887,0.10220
4070.99734,0.10333
4072.92581,0.10619
4074.85428,0.10619
4076.78275,0.10034
4078.71121,0.09435
4080.63968,0.09652
4082.56815,0.10300
4084.49662,0.10427
4086.42509,0.10174
4088.35356,0.10004
4090.28203,0.09878
4092.21049,0.09812
4094.13896,0.09936
4096.06743,0.10005
4097.99590,0.09700
4099.92437,0.09373
4101.85284,0.09426
4103.78131,0.09786
4105.70978,0.10103
4107.63824,0.10022
4109.56671,0.09791
4111.49518,0.09744
4113.42365,0.09659
4115.35212,0.09319
4117.28059,0.08875
4119.20906,0.08904
4121.13752,0.09660
4123.06599,0.10211
4124.99446,0.09796
4126.92293,0.09047
4128.85140,0.08989
4130.77987,0.09483
4132.70834,0.09503
4134.63681,0.08935
4136.56527,0.08585
4138.49374,0.08779
4140.42221,0.09055
4142.35068,0.09157
4144.27915,0.09052
4146.20762,0.08455
4148.13609,0.07943
4150.06455,0.08229
4151.99302,0.08691
4153.92149,0.08776
4155.84996,0.08773
4157.77843,0.08795
4159.70690,0.08797
4161.63537,0.08807
4163.56384,0.08629
4165.49230,0.08257
4167.42077,0.07970
4169.34924,0.08026
4171.27771,0.08315
4173.20618,0.08489
4175.13465,0.08482
4177.06312,0.08241
4178.99158,0.07903
4180.92005,0.07811
4182.84852,0.08093
4184.77699,0.08603
4186.70546,0.08951
4188.63393,0.09251
4190.56240,0.09544
4192.49087,0.09246
4194.41933,0.08597
4196.34780,0.08275
4198.27627,0.08234
4200.20474,0.08298
4202.13321,0.08267
4204.06168,0.07846
4205.99015,0.07524
4207.91861,0.07851
4209.84708,0.08070
4211.77555,0.07606
4213.70402,0.07324
4215.63249,0.07588
4217.56096,0.07623
4219.48943,0.07332
4221.41789,0.07267
4223.34636,0.07589
4225.27483,0.08006
4227.20330,0.07899
4229.13177,0.07252
4231.06024,0.06703
4232.98871,0.06202
4234.91718,0.05761
4236.84564,0.05948
4238.77411,0.06553
4240.70258,0.07010
4242.63105,0.07241
4244.55952,0.07482
4246.48799,0.07450
4248.41646,0.06733
4250.34492,0.05978
4252.27339,0.05566
4254.20186,0.05330
4256.13033,0.05604
4258.05880,0.06233
4259.98727,0.06719
4261.91574,0.07107
4263.84421,0.07194
4265.77267,0.06722
4267.70114,0.06111
4269.62961,0.05897
4271.55808,0.06177
4273.48655,0.06579
4275.41502,0.06861
4277.34349,0.07064
4279.27195,0.07050
4281.20042,0.06818
4283.12889,0.06510
4285.05736,0.06297
4286.98583,0.06361
4288.91430,0.06353
4290.84277,0.06239
4292.77124,0.06492
4294.69970,0.06521
4296.62817,0.05888
4298.55664,0.05490
4300.48511,0.05841
4302.41358,0.06394
4304.34205,0.06622
4306.27052,0.06589
4308.19898,0.06223
4310.12745,0.05484
4312.05592,0.04997
4313.98439,0.05057
4315.91286,0.05072
4317.84133,0.04889
4319.76980,0.04960
4321.69827,0.05128
4323.62673,0.05151
4325.55520,0.05067
4327.48367,0.05121
4329.41214,0.05686
4331.34061,0.06408
4333.26908,0.06521
4335.19755,0.05736
4337.12601,0.04834
4339.05448,0.04568
4340.98295,0.04355
4342.91142,0.04003
4344.83989,0.04205
4346.76836,0.04660
4348.69683,0.04838
4350.62530,0.05148
4352.55376,0.05790
4354.48223,0.06163
4356.41070,0.05434
4358.33917,0.04128
4360.26764,0.03523
4362.19611,0.03681
4364.12458,0.04077
4366.05304,0.04123
4367.98151,0.03465
4369.90998,0.02575
4371.83845,0.02322
4373.76692,0.03012
4375.69539,0.04010
4377.62386,0.04553
4379.55232,0.04686
4381.48079,0.04612
4383.40926,0.03956
4385.33773,0.03132
4387.26620,0.03114
4389.19467,0.03787
4391.12314,0.04576
4393.05161,0.05145
4394.98007,0.05258
4396.90854,0.04941
4398.83701,0.04593
4400.76548,0.04315
4402.69395,0.03721
4404.62242,0.02828
4406.55089,0.02181
4408.47935,0.02242
4410.40782,0.02923
4412.33629,0.03610
4414.26476,0.03964
4416.19323,0.04062
4418.12170,0.03877
4420.05017,0.03432
4421.97864,0.02825
4423.90710,0.02189
4425.83557,0.01981
4427.76404,0.02485
4429.69251,0.03057
4431.62098,0.02704
4433.54945,0.01900
4435.47792,0.01912
4437.40638,0.02470
4439.33485,0.02837
4441.26332,0.03066
4443.19179,0.03232
4445.12026,0.03401
4447.04873,0.03200
4448.97720,0.02269
4450.90567,0.01759
4452.83413,0.02319
4454.76260,0.02502
4456.69107,0.01766
4458.61954,0.01371
4460.54801,0.01642
4462.47648,0.01608
4464.40495,0.01186
4466.33341,0.01196
4468.26188,0.01767
4470.19035,0.01958
4472.11882,0.01350
4474.04729,0.00826
4475.97576,0.00854
4477.90423,0.00689
4479.83270,0.00147
4481.76116,0.00356
4483.68963,0.01331
4485.61810,0.01897
4487.54657,0.01850
4489.47504,0.01844
4491.40351,0.02088
4493.33198,0.01757
4495.26044,0.00877
4497.18891,0.00283
4499.11738,0.00074
4501.04585,0.00489
4502.97432,0.01354
4504.90279,0.01779
4506.83126,0.01597
4508.75973,0.01529
4510.68819,0.02076
4512.61666,0.02635
4514.54513,0.02323
4516.47360,0.01416
4518.40207,0.00725
4520.33054,0.00544
4522.25901,0.00927
4524.18747,0.01555
4526.11594,0.01618
4528.04441,0.00897
4529.97288,0.00323
4531.90135,0.00532
4533.82982,0.01292
4535.75829,0.02087
4537.68676,0.01958
4539.61522,0.01001
4541.54369,0.00612
4543.47216,0.01139
4545.40063,0.01759
4547.32910,0.02093
4549.25757,0.02197
4551.18604,0.01902
4553.11450,0.01475
4555.04297,0.01023
4556.97144,0.00213
4558.89991,-0.00550
4560.82838,-0.00804
4562.75685,-0.00605
4564.68532,-0.00228
4566.61378,-0.00101
4568.54225,-0.00140
4570.47072,-0.00013
4572.39919,-0.00078
4574.32766,-0.00401
4576.25613,-0.00343
4578.18460,0.00128
4580.11307,0.00721
4582.04153,0.01438
4583.97000,0.01930
4585.89847,0.01899
4587.82694,0.01838
4589.75541,0.01798
4591.68388,0.01463
4593.61235,0.01319
4595.54081,0.01319
4597.46928,0.00884
4599.39775,0.00300
4601.32622,0.00136
4603.25469,0.00361
4605.18316,0.00879
4607.11163,0.01806
4609.04010,0.02717
4610.96856,0.03060
4612.89703,0.02609
4614.82550,0.01425
4616.75397,0.00494
4618.68244,0.00478
4620.61091,0.00360
4622.53938,-0.00149
4624.46784,0.00105
4626.39631,0.01086
4628.32478,0.01744
4630.25325,0.01597
4632.18172,0.01024
4634.11019,0.00923
4636.03866,0.00784
4637.96713,-0.00001
4639.89559,-0.00138
4641.82406,0.00690
4643.75253,0.00939
4645.68100,0.00410
4647.60947,0.00206
4649.53794,0.00440
4651.46641,0.00627
4653.39487,0.00678
4655.32334,0.00904
4657.25181,0.01323
4659.18028,0.01054
4661.10875,0.00281
4663.03722,0.00366
4664.96569,0.01011
4666.89416,0.01493
4668.82262,0.01487
4670.75109,0.00771
4672.67956,0.00158
4674.60803,0.00175
4676.53650,-0.00029
4678.46497,-0.00597
4680.39344,-0.00488
4682.32190,0.00176
4684.25037,0.00338
4686.17884,0.00257
4688.10731,0.01047
4690.03578,0.02133
4691.96425,0.02025
4693.89272,0.01454
4695.82119,0.01403
4697.74965,0.01173
4699.67812,0.00639
4701.60659,0.00278
4703.53506,0.00453
4705.46353,0.01024
4707.39200,0.01269
4709.32047,0.00935
4711.24893,0.00355
4713.17740,0.00111
4715.10587,0.00363
4717.03434,0.00641
4718.96281,0.00542
4720.89128,0.00404
4722.81975,0.00540
4724.74821,0.00885
4726.67668,0.01324
4728.60515,0.01203
4730.53362,0.00538
4732.46209,0.00222
4734.39056,0.00319
4736.31903,0.00719
4738.24750,0.01688
4740.17596,0.02332
4742.10443,0.01571
4744.03290,0.00412
4745.96137,0.00446
4747.88984,0.00962
4749.81831,0.00657
4751.74678,0.00151
4753.67524,0.00065
4755.60371,0.00154
4757.53218,-0.00103
4759.46065,-0.00635
4761.38912,-0.00359
4763.31759,0.00678
4765.24606,0.01498
4767.17453,0.01840
4769.10299,0.02009
4771.03146,0.01658
4772.95993,0.00210
4774.88840,-0.01238
4776.81687,-0.01353
4778.74534,-0.00433
4780.67381,0.00121
4782.60227,-0.00102
4784.53074,0.00051
4786.45921,0.00641
4788.38768,0.00792
4790.31615,0.00466
4792.24462,0.00195
4794.17309,0.00413
4796.10156,0.00353
4798.03002,-0.00264
4799.95849,-0.00046
4801.88696,0.00841
4803.81543,0.00720
4805.74390,-0.00294
4807.67237,-0.00383
4809.60084,0.00237
4811.52930,0.00028
4813.45777,-0.00423
4815.38624,-0.00406
4817.31471,-0.00064
4819.24318,0.00587
4821.17165,0.00849
4823.10012,0.00483
4825.02859,0.00065
4826.95705,-0.00370
4828.88552,-0.00464
4830.81399,0.00318
4832.74246,0.00616
4834.67093,-0.00399
4836.59940,-0.01248
4838.52787,-0.01459
4840.45633,-0.01438
4842.38480,-0.00808
4844.31327,0.00208
4846.24174,0.00883
4848.17021,0.01171
4850.09868,0.01418
4852.02715,0.01620
4853.95562,0.01472
4855.88408,0.00656
4857.81255,0.00323
4859.74102,0.01627
4861.66949,0.02898
4863.59796,0.02410
4865.52643,0.00557
4867.45490,-0.01298
4869.38336,-0.02111
4871.31183,-0.01663
4873.24030,-0.00406
4875.16877,0.00224
4877.09724,0.00062
4879.02571,0.00453
4880.95418,0.00832
4882.88265,-0.00012
4884.81111,-0.00657
4886.73958,0.00172
4888.66805,0.01154
4890.59652,0.01264
4892.52499,0.00914
4894.45346,0.00794
4896.38193,0.01032
4898.31039,0.00931
4900.23886,0.00584
4902.16733,0.00756
4904.09580,0.00794
4906.02427,0.00008
4907.95274,-0.00316
4909.88121,0.00572
4911.80967,0.01552
4913.73814,0.01928
4915.66661,0.02033
4917.59508,0.01893
4919.52355,0.01156
4921.45202,0.00187
4923.38049,-0.00243
4925.30896,-0.00416
4927.23742,-0.00610
4929.16589,0.00051
4931.09436,0.01145
4933.02283,0.01243
4934.95130,0.00563
4936.87977,-0.00235
4938.80824,-0.00687
4940.73670,-0.00110
4942.66517,0.00648
4944.59364,0.00947
4946.52211,0.01283
4948.45058,0.01363
4950.37905,0.00774
4952.30752,0.00655
4954.23599,0.01440
4956.16445,0.01831
4958.09292,0.00917
4960.02139,-0.00753
4961.94986,-0.01717
4963.87833,-0.01166
4965.80680,0.00008
4967.73527,0.00410
4969.66373,0.00512
4971.59220,0.01415
4973.52067,0.02388
4975.44914,0.02485
4977.37761,0.01641
4979.30608,0.00681
4981.23455,0.00441
4983.16302,0.00907
4985.09148,0.01002
4987.01995,0.00687
4988.94842,0.01146
4990.87689,0.01976
4992.80536,0.02191
4994.73383,0.01504
4996.66230,0.00428
4998.59076,0.00844
5000.51923,0.02172
5002.44770,0.01742
5004.37617,0.00338
5006.30464,-0.00316
5008.23311,-0.01032
5010.16158,-0.01572
5012.09005,-0.00799
5014.01851,0.00444
5015.94698,0.00931
5017.87545,0.01116
5019.80392,0.01228
5021.73239,0.00767
5023.66086,0.00532
5025.58933,0.01123
5027.51779,0.01428
5029.44626,0.01030
5031.37473,0.01152
5033.30320,0.01658
5035.23167,0.01380
5037.16014,0.00942
5039.08861,0.01315
5041.01708,0.02344
5042.94554,0.03120
5044.87401,0.02894
5046.80248,0.02088
5048.73095,0.01351
5050.65942,0.00670
5052.58789,0.00718
5054.51636,0.02045
5056.44482,0.03327
5058.37329,0.03338
5060.30176,0.02206
5062.23023,0.00979
5064.15870,0.00718
5066.08717,0.00533
5068.01564,-0.00258
5069.94410,0.00033
5071.87257,0.01355
5073.80104,0.01372
5075.72951,0.00029
5077.65798,-0.00887
5079.58645,-0.00681
5081.51492,0.00763
5083.44339,0.02587
5085.37185,0.02798
5087.30032,0.01504
5089.22879,0.00917
5091.15726,0.02024
5093.08573,0.03323
5095.01420,0.02913
5096.94267,0.01896
5098.87113,0.01907
5100.79960,0.01973
5102.72807,0.01609
5104.65654,0.01310
5106.58501,0.00824
5108.51348,0.00463
5110.44195,0.01025
5112.37042,0.03015
5114.29888,0.05484
5116.22735,0.05748
5118.15582,0.04118
5120.08429,0.03299
5122.01276,0.03800
5123.94123,0.04813
5125.86970,0.05164
5127.79816,0.04276
5129.72663,0.03628
5131.65510,0.04009
5133.58357,0.03440
5135.51204,0.01482
5137.44051,0.00911
5139.36898,0.02448
5141.29745,0.04108
5143.22591,0.04463
5145.15438,0.03670
5147.08285,0.03329
5149.01132,0.03958
5150.93979,0.04024
5152.86826,0.03277
5154.79673,0.02623
5156.72519,0.01989
5158.65366,0.01301
5160.58213,0.00954
5162.51060,0.01136
5164.43907,0.01701
5166.36754,0.02571
5168.29601,0.02921
5170.22448,0.02492
5172.15294,0.02756
5174.08141,0.02745
5176.00988,0.01293
5177.93835,0.01206
5179.86682,0.03505
5181.79529,0.05131
5183.72376,0.04454
5185.65222,0.02521
5187.58069,0.01242
5189.50916,0.01328
5191.43763,0.02126
5193.36610,0.03452
5195.29457,0.05117
5197.22304,0.05995
5199.15151,0.05365
5201.07997,0.04827
5203.00844,0.05021
5204.93691,0.04537
5206.86538,0.03658
5208.79385,0.03253
5210.72232,0.03144
5212.65079,0.03239
5214.57925,0.03193
5216.50772,0.02753
5218.43619,0.02649
5220.36466,0.03770
5222.29313,0.04655
5224.22160,0.03928
5226.15007,0.02864
5228.07854,0.02800
5230.00700,0.03346
5231.93547,0.03788
5233.86394,0.04140
5235.79241,0.04538
5237.72088,0.04355
5239.64935,0.04006
5241.57782,0.04056
5243.50628,0.03516
5245.43475,0.02639
5247.36322,0.03078
5249.29169,0.04529
5251.22016,0.05312
5253.14863,0.05587
5255.07710,0.06244
5257.00556,0.07469
5258.93403,0.08900
5260.86250,0.09526
5262.79097,0.09114
5264.71944,0.07921
5266.64791,0.06759
5268.57638,0.06454
5270.50485,0.06092
5272.43331,0.05773
5274.36178,0.06754
5276.29025,0.07826
5278.21872,0.07212
5280.14719,0.06244
5282.07566,0.06360
5284.00413,0.05841
5285.93259,0.03723
5287.86106,0.03031
5289.78953,0.05456
5291.71800,0.07727
5293.64647,0.06852
5295.57494,0.04638
5297.50341,0.04138
5299.43188,0.04892
5301.36034,0.04881
5303.28881,0.05008
5305.21728,0.05975
5307.14575,0.06422
5309.07422,0.06191
5311.00269,0.06013
5312.93116,0.05367
5314.85962,0.04421
5316.78809,0.03719
5318.71656,0.03948
5320.64503,0.05581
5322.57350,0.06868
5324.50197,0.07355
5326.43044,0.07872
5328.35891,0.07519
5330.28737,0.06498
5332.21584,0.05636
5334.14431,0.04301
5336.07278,0.02501
5338.00125,0.02884
5339.92972,0.06276
5341.85819,0.07285
5343.78665,0.03782
5345.71512,0.01306
5347.64359,0.02671
5349.57206,0.04488
5351.50053,0.05253
5353.42900,0.05997
5355.35747,0.08004
5357.28594,0.09493
5359.21440,0.08458
5361.14287,0.06164
5363.07134,0.05420
5364.99981,0.06290
5366.92828,0.06068
5368.85675,0.05330
5370.78522,0.07488
5372.71368,0.10888
5374.64215,0.10284
5376.57062,0.06332
5378.49909,0.04084
5380.42756,0.03467
5382.35603,0.02971
5384.28450,0.02973
5386.21297,0.04021
5388.14143,0.05479
5390.06990,0.05999
5391.99837,0.05861
5393.92684,0.05958
5395.85531,0.05412
5397.78378,0.04452
5399.71225,0.04144
5401.64071,0.04081
5403.56918,0.04543
5405.49765,0.05282
5407.42612,0.05044
5409.35459,0.04986
5411.28306,0.06661
5413.21153,0.08359
5415.13999,0.07686
5417.06846,0.06117
5418.99693,0.06091
5420.92540,0.07575
5422.85387,0.08897
5424.78234,0.08716
5426.71081,0.07534
5428.63928,0.06505
5430.56774,0.06040
5432.49621,0.06556
5434.42468,0.06552
5436.35315,0.04567
5438.28162,0.02826
5440.21009,0.03332
5442.13856,0.05021
5444.06702,0.05603
5445.99549,0.06201
5447.92396,0.08649
5449.85243,0.10973
5451.78090,0.11155
5453.70937,0.09441
5455.63784,0.06589
5457.56631,0.05097
5459.49477,0.06320
5461.42324,0.07673
5463.35171,0.08000
5465.28018,0.08652
5467.20865,0.09730
5469.13712,0.10682
5471.06559,0.11256
5472.99405,0.10403
5474.92252,0.08661
5476.85099,0.08310
5478.77946,0.08798
5480.70793,0.08578
5482.63640,0.07627
5484.56487,0.07144
5486.49334,0.08343
5488.42180,0.10616
5490.35027,0.11768
5492.27874,0.10840
5494.20721,0.08852
5496.13568,0.07315
5498.06415,0.06622
5499.99262,0.05965
5501.92108,0.06070
5503.84955,0.07352
5505.77802,0.08323
5507.70649,0.08205
5509.63496,0.06494
5511.56343,0.03792
5513.49190,0.02449
5515.42037,0.03536
5517.34883,0.04506
5519.27730,0.03814
5521.20577,0.03544
5523.13424,0.05283
5525.06271,0.07991
5526.99118,0.07905
5528.91965,0.04698
5530.84811,0.03799
5532.77658,0.06166
5534.70505,0.07962
5536.63352,0.07630
5538.56199,0.05517
5540.49046,0.04631
5542.41893,0.07745
5544.34740,0.11160
5546.27586,0.10557
5548.20433,0.08348
5550.13280,0.07875
5552.06127,0.08024
5553.98974,0.08090
5555.91821,0.08769
5557.84668,0.09242
5559.77514,0.09255
5561.70361,0.09500
5563.63208,0.10009
5565.56055,0.10729
5567.48902,0.11282
5569.41749,0.10623
5571.34596,0.08362
5573.27443,0.05403
5575.20289,0.03994
5577.13136,0.05472
5579.05983,0.08379
5580.98830,0.11037
5582.91677,0.11407
5584.84524,0.08947
5586.77371,0.08296
5588.70217,0.11400
5590.63064,0.12540
5592.55911,0.09597
5594.48758,0.07001
5596.41605,0.06202
5598.34452,0.05569
5600.27299,0.05669
5602.20145,0.06375
5604.12992,0.07158
5606.05839,0.08748
5607.98686,0.08422
5609.91533,0.05515
5611.84380,0.03715
5613.77227,0.04188
5615.70074,0.06078
5617.62920,0.07168
5619.55767,0.06917
5621.48614,0.07650
5623.41461,0.09252
5625.34308,0.09650
5627.27155,0.08118
5629.20002,0.06900
5631.12848,0.07807
5633.05695,0.10009
5634.98542,0.11676
5636.91389,0.11715
5638.84236,0.11180
5640.77083,0.11291
5642.69930,0.11946
5644.62777,0.12250
5646.55623,0.11622
5648.48470,0.10175
5650.41317,0.09618
5652.34164,0.10847
5654.27011,0.11325
5656.19858,0.10523
5658.12705,0.09608
5660.05551,0.08648
5661.98398,0.08523
5663.91245,0.08851
5665.84092,0.08247
5667.76939,0.07516
5669.69786,0.07064
5671.62633,0.06939
5673.55480,0.08631
5675.48326,0.09966
5677.41173,0.08524
5679.34020,0.07968
5681.26867,0.08623
5683.19714,0.06561
5685.12561,0.03548
5687.05408,0.03697
5688.98254,0.05189
5690.91101,0.05592
5692.83948,0.06582
5694.76795,0.08241
5696.69642,0.10961
5698.62489,0.14073
5700.55336,0.13532
5702.48183,0.10955
5704.41029,0.09372
5706.33876,0.07372
5708.26723,0.06668
5710.19570,0.08978
5712.12417,0.10874
5714.05264,0.11533
5715.98111,0.12508
5717.90957,0.12339
5719.83804,0.10380
5721.76651,0.08431
5723.69498,0.08242
5725.62345,0.09007
5727.55192,0.09439
5729.48039,0.10060
5731.40886,0.09692
5733.33732,0.07083
5735.26579,0.05200
5737.19426,0.07743
5739.12273,0.11953
5741.05120,0.13425
5742.97967,0.12559
5744.90814,0.11079
5746.83660,0.10129
5748.76507,0.09778
5750.69354,0.09574
5752.62201,0.09627
5754.55048,0.08583
5756.47895,0.06540
5758.40742,0.06043
5760.33588,0.07984
5762.26435,0.11234
5764.19282,0.14387
5766.12129,0.15671
5768.04976,0.13805
5769.97823,0.11096
5771.90670,0.10332
5773.83517,0.10793
5775.76363,0.10865
5777.69210,0.09437
5779.62057,0.07946
5781.54904,0.09716
5783.47751,0.13738
5785.40598,0.15871
5787.33445,0.13740
5789.26291,0.09944
5791.19138,0.09268
5793.11985,0.10404
5795.04832,0.09909
5796.97679,0.09279
5798.90526,0.10262
5800.83373,0.11610
5802.76220,0.10991
5804.69066,0.09293
5806.61913,0.10517
5808.54760,0.13657
5810.47607,0.14275
5812.40454,0.12174
5814.33301,0.10699
5816.26148,0.10385
5818.18994,0.10309
5820.11841,0.10912
5822.04688,0.10767
5823.97535,0.09470
5825.90382,0.09012
5827.83229,0.09741
5829.76076,0.10735
5831.68923,0.11429
5833.61769,0.11551
5835.54616,0.10507
5837.47463,0.09716
5839.40310,0.10790
5841.33157,0.11309
5843.26004,0.09041
5845.18851,0.07001
5847.11697,0.08767
5849.04544,0.12242
5850.97391,0.12506
5852.90238,0.09015
5854.83085,0.04378
5856.75932,0.02521
5858.68779,0.05120
5860.61626,0.08028
5862.54472,0.08828
5864.47319,0.10038
5866.40166,0.11218
5868.33013,0.09986
5870.25860,0.08385
5872.18707,0.09327
5874.11554,0.10027
5876.04400,0.07818
5877.97247,0.06488
5879.90094,0.07810
5881.82941,0.09707
5883.75788,0.10746
5885.68635,0.11759
5887.61482,0.13175
5889.54329,0.11538
5891.47175,0.07599
5893.40022,0.05720
5895.32869,0.05577
5897.25716,0.05529
5899.18563,0.07059
5901.11410,0.10278
5903.04257,0.11780
5904.97103,0.10385
5906.89950,0.07761
5908.82797,0.05903
5910.75644,0.05415
5912.68491,0.04179
5914.61338,0.01707
5916.54185,0.00932
5918.47032,0.03307
5920.39878,0.06387
5922.32725,0.07577
5924.25572,0.06626
5926.18419,0.05170
5928.11266,0.04592
5930.04113,0.05134
5931.96960,0.06052
5933.89806,0.05697
5935.82653,0.04783
5937.75500,0.05549
5939.68347,0.08222
5941.61194,0.11745
5943.54041,0.14708
5945.46888,0.15316
5947.39734,0.12496
5949.32581,0.08584
5951.25428,0.07331
5953.18275,0.08264
5955.11122,0.09609
5957.03969,0.10196
5958.96816,0.07098
5960.89663,0.01974
5962.82509,0.01603
5964.75356,0.04976
5966.68203,0.05752
5968.61050,0.05483
5970.53897,0.08051
5972.46744,0.09575
5974.39591,0.08492
5976.32437,0.07746
5978.25284,0.07551
5980.18131,0.06988
5982.10978,0.07276
5984.03825,0.08825
5985.96672,0.08176
5987.89519,0.05318
5989.82366,0.05161
5991.75212,0.09351
5993.68059,0.13447
5995.60906,0.11185
5997.53753,0.04460
5999.46600,0.01108
6001.39447,0.03822
6003.32294,0.09244
6005.25140,0.11983
6007.17987,0.11269
6009.10834,0.08302
6011.03681,0.04407
6012.96528,0.05384
6014.89375,0.10534
6016.82222,0.11264
6018.75069,0.07225
6020.67915,0.06353
6022.60762,0.09329
6024.53609,0.09866
6026.46456,0.07286
6028.39303,0.06803
6030.32150,0.08248
6032.24997,0.08114
6034.17843,0.09134
6036.10690,0.11321
6038.03537,0.09852
6039.96384,0.06794
6041.89231,0.05797
6043.82078,0.06186
6045.74925,0.05791
6047.67772,0.03565
6049.60618,0.02087
6051.53465,0.04748
6053.46312,0.09676
6055.39159,0.12936
6057.32006,0.12161
6059.24853,0.09709
6061.17700,0.11416
6063.10546,0.13997
6065.03393,0.11268
6066.96240,0.07031
6068.89087,0.03765
6070.81934,0.01519
6072.74781,0.00940
6074.67628,0.01691
6076.60475,0.04951
6078.53321,0.09283
6080.46168,0.09852
6082.39015,0.06523
6084.31862,0.02849
6086.24709,0.02724
6088.17556,0.07026
6090.10403,0.11086
6092.03249,0.12424
6093.96096,0.12792
6095.88943,0.12694
6097.81790,0.10372
6099.74637,0.07648
6101.67484,0.07626
6103.60331,0.08624
6105.53177,0.08996
6107.46024,0.08382
6109.38871,0.06554
6111.31718,0.05877
6113.24565,0.08114
6115.17412,0.11263
6117.10259,0.14335
6119.03106,0.16604
6120.95952,0.14206
6122.88799,0.08869
6124.81646,0.05440
6126.74493,0.04163
6128.67340,0.05037
6130.60187,0.07490
6132.53034,0.08961
6134.45880,0.09010
6136.38727,0.08807
6138.31574,0.09796
6140.24421,0.10652
6142.17268,0.10722
6144.10115,0.10947
6146.02962,0.08269
6147.95809,0.03857
6149.88655,0.01104
6151.81502,-0.00420
6153.74349,0.01562
6155.67196,0.07698
6157.60043,0.10885
6159.52890,0.08266
6161.45737,0.05682
6163.38583,0.05421
6165.31430,0.03861
6167.24277,0.00636
6169.17124,0.00176
6171.09971,0.04387
6173.02818,0.10884
6174.95665,0.17690
6176.88512,0.21655
6178.81358,0.20348
6180.74205,0.14600
6182.67052,0.07326
6184.59899,0.03611
6186.52746,0.06620
6188.45593,0.14780
6190.38440,0.20244
6192.31286,0.17871
6194.24133,0.12817
6196.16980,0.09944
6198.09827,0.06381
6200.02674,0.02772
6201.95521,0.03230
6203.88368,0.08240
6205.81215,0.13917
6207.74061,0.15083
6209.66908,0.14531
6211.59755,0.15307
6213.52602,0.12021
6215.45449,0.07994
6217.38296,0.11373
6219.31143,0.17332
6221.23989,0.17103
6223.16836,0.13101
6225.09683,0.13906
6227.02530,0.16278
6228.95377,0.14886
6230.88224,0.15197
6232.81071,0.17513
6234.73918,0.16602
6236.66764,0.14301
6238.59611,0.12807
6240.52458,0.10513
6242.45305,0.07368
6244.38152,0.04961
6246.30999,0.03213
6248.23846,0.02591
6250.16692,0.06325
6252.09539,0.12885
6254.02386,0.13433
6255.95233,0.08956
6257.88080,0.07082
6259.80927,0.07557
6261.73774,0.09202
6263.66621,0.11383
6265.59467,0.10675
6267.52314,0.08821
6269.45161,0.07699
6271.38008,0.06357
6273.30855,0.08407
6275.23702,0.13974
6277.16549,0.15992
6279.09395,0.14656
6281.02242,0.14955
6282.95089,0.15142
6284.87936,0.10581
6286.80783,0.04340
6288.73630,0.02555
6290.66477,0.04158
6292.59323,0.03741
6294.52170,0.02322
6296.45017,0.02859
6298.37864,0.04926
6300.30711,0.08511
6302.23558,0.11889
6304.16405,0.11725
6306.09252,0.07745
6308.02098,0.04238
6309.94945,0.04395
6311.87792,0.04225
6313.80639,0.02086
6315.73486,0.00660
6317.66333,0.01868
6319.59180,0.03851
6321.52026,0.01073
6323.44873,-0.02325
6325.37720,0.01514
6327.30567,0.06134
6329.23414,0.05502
6331.16261,0.06047
6333.09108,0.09516
6335.01955,0.10667
6336.94801,0.09658
6338.87648,0.09099
6340.80495,0.09133
6342.73342,0.09070
6344.66189,0.10216
6346.59036,0.14170
6348.51883,0.18615
6350.44729,0.18306
6352.37576,0.12805
6354.30423,0.08509
6356.23270,0.07396
6358.16117,0.07765
6360.08964,0.09111
6362.01811,0.10228
6363.94658,0.10234
6365.87504,0.09180
6367.80351,0.05609
6369.73198,0.01730
6371.66045,0.02833
6373.58892,0.05985
6375.51739,0.05167
6377.44586,0.03882
6379.37432,0.06395
6381.30279,0.12053
6383.23126,0.18216
6385.15973,0.21652
6387.08820,0.21392
6389.01667,0.15967
6390.94514,0.06361
6392.87361,0.00158
6394.80207,0.02125
6396.73054,0.07412
6398.65901,0.12041
6400.58748,0.16178
6402.51595,0.19595
6404.44442,0.21335
6406.37289,0.20314
6408.30135,0.16661
6410.22982,0.12029
6412.15829,0.04743
6414.08676,-0.03910
6416.01523,-0.07349
6417.94370,-0.05078
6419.87217,-0.01497
6421.80064,0.03805
6423.72910,0.08148
6425.65757,0.05885
6427.58604,0.02664
6429.51451,0.04359
6431.44298,0.05280
6433.37145,0.01444
6435.29992,-0.02062
6437.22838,-0.03097
6439.15685,-0.05181
6441.08532,-0.05507
6443.01379,0.00430
6444.94226,0.05888
6446.87073,0.04530
6448.79920,0.02076
6450.72766,0.03382
6452.65613,0.05849
6454.58460,0.08520
6456.51307,0.11203
6458.44154,0.10222
6460.37001,0.05495
6462.29848,0.01835
6464.22695,0.02970
6466.15541,0.08574
6468.08388,0.15225
6470.01235,0.17284
6471.94082,0.15352
6473.86929,0.14334
6475.79776,0.14892
6477.72623,0.17214
6479.65469,0.18251
6481.58316,0.14727
6483.51163,0.10562
6485.44010,0.10505
6487.36857,0.11968
6489.29704,0.10849
6491.22551,0.08545
6493.15398,0.07787
6495.08244,0.07825
6497.01091,0.07258
6498.93938,0.07876
6500.86785,0.08604
6502.79632,0.05151
6504.72479,0.02310
6506.65326,0.02994
6508.58172,0.02928
6510.51019,0.01193
6512.43866,-0.01538
6514.36713,-0.01730
6516.29560,0.03308
6518.22407,0.06811
6520.15254,0.06573
6522.08101,0.07144
6524.00947,0.06847
6525.93794,0.03552
6527.86641,0.01218
6529.79488,0.03726
6531.72335,0.12532
6533.65182,0.21996
6535.58029,0.22312
6537.50875,0.13395
6539.43722,0.05810
6541.36569,0.04406
6543.29416,0.03736
6545.22263,0.02879
6547.15110,0.05209
6549.07957,0.08519
6551.00804,0.08471
6552.93650,0.07699
6554.86497,0.06979
6556.79344,0.02503
6558.72191,-0.02451
6560.65038,-0.04611
6562.57885,-0.04568
6564.50732,-0.01290
6566.43578,0.03038
6568.36425,0.05075
6570.29272,0.06520
6572.22119,0.08069
6574.14966,0.09872
6576.07813,0.13558
6578.00660,0.15740
6579.93507,0.12461
6581.86353,0.03728
6583.79200,-0.04776
6585.72047,-0.05073
6587.64894,-0.00382
6589.57741,0.04056
6591.50588,0.07569
6593.43435,0.09042
6595.36281,0.07627
6597.29128,0.05445
6599.21975,0.04731
6601.14822,0.05173
6603.07669,0.05602
6605.00516,0.07060
6606.93363,0.09081
6608.86210,0.08467
6610.79056,0.07195
6612.71903,0.09010
6614.64750,0.09072
6616.57597,0.06195
6618.50444,0.08773
6620.43291,0.13441
6622.36138,0.10862
6624.28984,0.04960
6626.21831,0.03557
6628.14678,0.06019
6630.07525,0.07495
6632.00372,0.07167
6633.93219,0.08738
6635.86066,0.12611
6637.78912,0.15324
6639.71759,0.14017
6641.64606,0.10829
6643.57453,0.10815
6645.50300,0.13260
6647.43147,0.13240
6649.35994,0.08898
6651.28841,0.01249
6653.21687,-0.03709
6655.14534,0.00851
6657.07381,0.12892
6659.00228,0.18236
6660.93075,0.11567
6662.85922,0.03702
6664.78769,0.00289
6666.71615,0.01765
6668.64462,0.04720
6670.57309,0.03387
6672.50156,-0.01286
6674.43003,-0.05261
6676.35850,-0.04650
6678.28697,-0.01003
6680.21544,-0.00037
6682.14390,-0.01867
6684.07237,-0.03417
6686.00084,-0.04156
6687.92931,-0.05502
6689.85778,-0.05934
6691.78625,-0.02414
6693.71472,0.04822
6695.64318,0.12863
6697.57165,0.14556
6699.50012,0.07514
6701.42859,0.05256
6703.35706,0.14591
6705.28553,0.20235
6707.21400,0.16986
6709.14247,0.14721
6711.07093,0.12836
6712.99940,0.08342
6714.92787,0.05649
6716.85634,0.07257
6718.78481,0.10084
6720.71328,0.13274
6722.64175,0.17877
6724.57021,0.19921
6726.49868,0.17350
6728.42715,0.14100
6730.35562,0.10264
6732.28409,0.04598
6734.21256,0.01757
6736.14103,0.06635
6738.06950,0.13532
6739.99796,0.14703
6741.92643,0.11154
6743.85490,0.04633
6745.78337,0.00133
6747.71184,0.05082
6749.64031,0.13693
6751.56878,0.14340
6753.49724,0.07555
6755.42571,0.03406
6757.35418,0.02764
6759.28265,-0.03068
6761.21112,-0.08442
6763.13959,-0.05576
6765.06806,-0.00635
6766.99653,0.05778
6768.92499,0.12152
6770.85346,0.12990
6772.78193,0.10413
6774.71040,0.10155
6776.63887,0.10559
6778.56734,0.04403
6780.49581,-0.04338
6782.42427,-0.04956
6784.35274,0.01348
6786.28121,0.05470
6788.20968,0.06221
6790.13815,0.06980
6792.06662,0.10263
6793.99509,0.17251
6795.92355,0.24909
6797.85202,0.28066
6799.78049,0.22086
6801.70896,0.11361
6803.63743,0.03689
6805.56590,-0.03695
6807.49437,-0.07300
6809.42284,-0.05609
6811.35130,-0.05232
6813.27977,-0.00929
6815.20824,0.10995
6817.13671,0.15395
6819.06518,0.10130
6820.99365,0.04604
6822.92212,-0.00388
6824.85058,0.00632
6826.77905,0.08453
6828.70752,0.15703
6830.63599,0.17456
6832.56446,0.12035
6834.49293,0.05521
6836.42140,0.09491
6838.34987,0.16208
6840.27833,0.11645
6842.20680,0.04418
6844.13527,0.01882
6846.06374,0.01219
6847.99221,0.00432
6849.92068,-0.02389
6851.84915,-0.01778
6853.77761,0.07217
6855.70608,0.15029
6857.63455,0.12047
6859.56302,0.05651
6861.49149,0.00943
6863.41996,-0.01040
6865.34843,0.00828
6867.27690,0.03149
6869.20536,0.04243
6871.13383,0.06643
6873.06230,0.05987
6874.99077,0.00504
6876.91924,-0.03221
6878.84771,-0.05433
6880.77618,-0.06982
6882.70464,-0.07098
6884.63311,-0.09533
6886.56158,-0.13682
6888.49005,-0.12735
6890.41852,-0.07439
6892.34699,-0.05609
6894.27546,-0.04066
6896.20393,0.00423
6898.13239,0.02476
6900.06086,0.04618
6901.98933,0.11325
6903.91780,0.15318
6905.84627,0.09605
6907.77474,0.05598
6909.70321,0.06387
6911.63167,0.03313
6913.56014,0.01719
6915.48861,0.03343
6917.41708,0.04232
6919.34555,0.10413
6921.27402,0.12775
6923.20249,0.03043
6925.13096,-0.02596
6927.05942,0.03666
6928.98789,0.09674
6930.91636,0.05862
6932.84483,-0.00371
6934.77330,-0.05655
6936.70177,-0.12649
6938.63024,-0.17298
6940.55870,-0.10347
6942.48717,0.08908
6944.41564,0.23060
6946.34411,0.21293
6948.27258,0.14620
6950.20105,0.14226
6952.12952,0.14371
6954.05799,0.13190
6955.98645,0.15128
6957.91492,0.17070
6959.84339,0.11036
6961.77186,-0.01490
6963.70033,-0.06881
6965.62880,-0.01672
6967.55727,0.07126
6969.48573,0.11306
6971.41420,0.08860
6973.34267,0.12103
6975.27114,0.22978
6977.19961,0.24418
6979.12808,0.17484
6981.05655,0.09341
6982.98501,-0.04290
6984.91348,-0.17918
6986.84195,-0.15922
6988.77042,-0.04633
6990.69889,0.01064
6992.62736,0.04075
6994.55583,0.06709
6996.48430,0.03131
6998.41276,-0.02705
7000.34123,-0.01989
7002.26970,-0.01340
7004.19817,0.00456
7006.12664,0.08509
7008.05511,0.10290
7009.98358,0.02193
7011.91204,-0.05984
7013.84051,-0.07110
7015.76898,0.00159
7017.69745,0.07160
7019.62592,0.10476
7021.55439,0.12505
7023.48286,0.07584
7025.41133,-0.07326
7027.33979,-0.16350
7029.26826,-0.07030
7031.19673,0.05787
7033.12520,0.11971
7035.05367,0.13849
7036.98214,0.09275
7038.91061,0.02301
7040.83907,-0.01892
7042.76754,0.00571
7044.69601,0.07831
7046.62448,0.12422
7048.55295,0.14274
7050.48142,0.09480
7052.40989,-0.01626
7054.33836,-0.02434
7056.26682,0.10081
7058.19529,0.15676
7060.12376,0.07309
7062.05223,-0.02079
7063.98070,-0.04833
7065.90917,-0.02238
7067.83764,0.02033
7069.76610,0.05997
7071.69457,0.05135
7073.62304,0.02906
7075.55151,0.07151
7077.47998,0.12618
7079.40845,0.13918
7081.33692,0.13050
7083.26539,0.08622
7085.19385,0.00550
7087.12232,-0.01685
7089.05079,0.04861
7090.97926,0.08553
7092.90773,0.03774
7094.83620,-0.03232
7096.76467,0.00091
7098.69313,0.10760
7100.62160,0.12682
7102.55007,0.10304
7104.47854,0.09528
7106.40701,0.06093
7108.33548,0.03290
7110.26395,0.03375
7112.19242,0.03110
7114.12088,0.11897
7116.04935,0.33535
7117.97782,0.43865
7119.90629,0.30516
7121.83476,0.16832
7123.76323,0.11202
7125.69170,0.07916
7127.62016,0.02776
7129.54863,0.00161
7131.47710,0.05474
7133.40557,0.11423
7135.33404,0.12128
7137.26251,0.12348
7139.19098,0.10428
7141.11944,0.08232
7143.04791,0.11579
7144.97638,0.09616
7146.90485,0.01759
7148.83332,0.03573
7150.76179,0.14588
7152.69026,0.23587
7154.61873,0.21529
7156.54719,0.13523
7158.47566,0.05139
7160.40413,-0.04394
7162.33260,-0.13267
7164.26107,-0.12389
7166.18954,0.03821
7168.11801,0.20834
7170.04647,0.20935
7171.97494,0.10507
7173.90341,0.09278
7175.83188,0.10218
7177.76035,-0.01987
7179.68882,-0.16654
7181.61729,-0.19343
7183.54576,-0.05679
7185.47422,0.11348
7187.40269,0.15771
7189.33116,0.05027
7191.25963,-0.09113
7193.18810,-0.11991
7195.11657,-0.09838
7197.04504,-0.05637
7198.97350,0.01805
7200.90197,0.05740
7202.83044,0.00276
7204.75891,-0.09963
7206.68738,-0.06265
7208.61585,0.02424
7210.54432,0.00977
7212.47279,-0.05258
7214.40125,-0.03502
7216.32972,0.13511
7218.25819,0.33953
7220.18666,0.34332
7222.11513,0.23759
7224.04360,0.13531
7225.97207,0.06374
7227.90053,0.07024
7229.82900,0.16458
7231.75747,0.27922
7233.68594,0.34631
7235.61441,0.38633
7237.54288,0.33900
7239.47135,0.23843
7241.39982,0.23430
7243.32828,0.24342
7245.25675,0.18447
7247.18522,0.14369
7249.11369,0.12201
7251.04216,0.09945
7252.97063,0.04753
7254.89910,0.04022
7256.82756,0.10843
7258.75603,0.13983
7260.68450,0.06485
7262.61297,-0.01607
7264.54144,0.02657
7266.46991,0.11423
7268.39838,0.12751
7270.32685,0.08244
7272.25531,0.03027
7274.18378,0.04124
7276.11225,0.09062
7278.04072,0.10672
7279.96919,0.15951
7281.89766,0.22044
7283.82613,0.11306
7285.75459,-0.04831
7287.68306,-0.11296
7289.61153,-0.06154
7291.54000,0.06891
7293.46847,0.12884
7295.39694,0.09921
7297.32541,0.05652
7299.25387,-0.04073
7301.18234,-0.15409
7303.11081,-0.15596
7305.03928,-0.04985
7306.96775,0.08081
7308.89622,0.21979
7310.82469,0.21397
7312.75316,0.06107
7314.68162,-0.05614
7316.61009,-0.12382
7318.53856,-0.13345
7320.46703,-0.07735
7322.39550,0.00048
7324.32397,0.08866
7326.25244,0.16254
7328.18090,0.24933
7330.10937,0.33282
7332.03784,0.31998
7333.96631,0.27087
7335.89478,0.24939
7337.82325,0.22961
7339.75172,0.21879
7341.68019,0.23442
7343.60865,0.20001
7345.53712,0.12063
7347.46559,0.05737
7349.39406,0.06177
7351.32253,0.10686
7353.25100,0.09060
7355.17947,-0.00369
7357.10793,-0.05519
7359.03640,0.00705
7360.96487,0.04031
7362.89334,0.00912
7364.82181,0.04030
7366.75028,0.12714
7368.67875,0.12608
7370.60722,0.02170
7372.53568,-0.09134
7374.46415,-0.08671
7376.39262,0.14178
7378.32109,0.25775
7380.24956,0.17771
7382.17803,0.07188
7384.10650,-0.03339
7386.03496,-0.16139
7387.96343,-0.18971
7389.89190,-0.12401
7391.82037,-0.07956
7393.74884,-0.04241
7395.67731,-0.02411
7397.60578,-0.04799
7399.53425,-0.00053
7401.46271,0.07631
7403.39118,0.07240
7405.31965,0.02753
7407.24812,-0.01655
7409.17659,0.00076
7411.10506,0.14265
7413.03353,0.22636
7414.96199,0.09047
7416.89046,-0.14155
7418.81893,-0.23284
7420.74740,-0.09521
7422.67587,0.12039
7424.60434,0.22333
7426.53281,0.16690
7428.46128,0.10406
7430.38974,0.21336
7432.31821,0.35162
7434.24668,0.31496
7436.17515,0.14203
7438.10362,-0.04198
7440.03209,-0.08181
7441.96056,0.13744
7443.88902,0.43150
7445.81749,0.47152
7447.74596,0.31060
7449.67443,0.16463
7451.60290,0.04751
7453.53137,-0.01211
7455.45984,0.05033
7457.38831,0.10069
7459.31677,0.03069
7461.24524,-0.04036
7463.17371,0.04832
7465.10218,0.18959
7467.03065,0.15239
7468.95912,0.01051
7470.88759,-0.01285
7472.81605,0.07435
7474.74452,0.11294
7476.67299,0.09873
7478.60146,0.13372
7480.52993,0.15391
7482.45840,0.06057
7484.38687,-0.04866
7486.31533,-0.12784
7488.24380,-0.04441
7490.17227,0.16785
7492.10074,0.21544
7494.02921,0.13547
7495.95768,0.06298
7497.88615,-0.00888
