399.19301,1.58297
401.12148,0.81256
403.04995,0.26953
404.97842,-0.04147
406.90689,-0.06414
408.83536,0.05985
410.76382,0.15672
412.69229,0.20667
414.62076,0.26549
416.54923,0.28503
418.47770,0.14612
420.40617,-0.06524
422.33464,-0.09566
424.26311,-0.01771
426.19157,0.00664
428.12004,-0.03660
430.04851,-0.00779
431.97698,0.07511
433.90545,0.03236
435.83392,-0.04617
437.76239,-0.05257
439.69085,-0.05268
441.61932,-0.09782
443.54779,-0.09583
445.47626,-0.00229
447.40473,0.09005
449.33320,0.14202
451.26167,0.13534
453.19013,0.07675
455.11860,0.04186
457.04707,0.05449
458.97554,0.06809
460.90401,0.10047
462.83248,0.14686
464.76095,0.13268
466.68942,0.06275
468.61788,0.02193
470.54635,0.05823
472.47482,0.10630
474.40329,0.04576
476.33176,0.01031
478.26023,0.02949
480.18870,0.03588
482.11716,0.05137
484.04563,0.08443
485.97410,0.08758
487.90257,0.04411
489.83104,-0.00251
491.75951,-0.00171
493.68798,0.03039
495.61645,0.05094
497.54491,0.05037
499.47338,0.04181
501.40185,0.05552
503.33032,0.08051
505.25879,0.08237
507.18726,0.07091
509.11573,0.06559
511.04419,0.09095
512.97266,0.14200
514.90113,0.15913
516.82960,0.11563
518.75807,0.07707
520.68654,0.09579
522.61501,0.13196
524.54348,0.13797
526.47194,0.12687
528.40041,0.12952
530.32888,0.13920
532.25735,0.13543
534.18582,0.11768
536.11429,0.10495
538.04276,0.10716
539.97122,0.10563
541.89969,0.07703
543.82816,0.04354
545.75663,0.04770
547.68510,0.07586
549.61357,0.13441
551.54204,0.35210
553.47051,0.59216
555.39897,0.49887
557.32744,0.22541
559.25591,0.12238
561.18438,0.13336
563.11285,0.15311
565.04132,0.15840
566.96979,0.13020
568.89825,0.10653
570.82672,0.11379
572.75519,0.12874
574.68366,0.12894
576.61213,0.11509
578.54060,0.10028
580.46907,0.10111
582.39754,0.11226
584.32600,0.12659
586.25447,0.14145
588.18294,0.13792
590.11141,0.12793
592.03988,0.12836
593.96835,0.11489
595.89682,0.09500
597.82528,0.09551
599.75375,0.10324
601.68222,0.10509
603.61069,0.10561
605.53916,0.11143
607.46763,0.11809
609.39610,0.11302
611.32456,0.10099
613.25303,0.09909
615.18150,0.10924
617.10997,0.11497
619.03844,0.11776
620.96691,0.13232
622.89538,0.14067
624.82385,0.12292
626.75231,0.09953
628.68078,0.09579
630.60925,0.11110
632.53772,0.12889
634.46619,0.13699
636.39466,0.14366
638.32313,0.14757
640.25159,0.13664
642.18006,0.11811
644.10853,0.10983
646.03700,0.11649
647.96547,0.12547
649.89394,0.13176
651.82241,0.14166
653.75088,0.14683
655.67934,0.13590
657.60781,0.11890
659.53628,0.11197
661.46475,0.11401
663.39322,0.11568
665.32169,0.11616
667.25016,0.11941
669.17862,0.12209
671.10709,0.11759
673.03556,0.10989
674.96403,0.10754
676.89250,0.11363
678.82097,0.11322
680.74944,0.10277
682.67791,0.09587
684.60637,0.09954
686.53484,0.10946
688.46331,0.11526
690.39178,0.11553
692.32025,0.11336
694.24872,0.11067
696.17719,0.11161
698.10565,0.11228
700.03412,0.11040
701.96259,0.11233
703.89106,0.11921
705.81953,0.12135
707.74800,0.11341
709.67647,0.10996
711.60494,0.11595
713.53340,0.12175
715.46187,0.13118
717.39034,0.13941
719.31881,0.13439
721.24728,0.12526
723.17575,0.12338
725.10422,0.12542
727.03268,0.12829
728.96115,0.13469
730.88962,0.13877
732.81809,0.13549
734.74656,0.13530
736.67503,0.13322
738.60350,0.11917
740.53197,0.11139
742.46043,0.12050
744.38890,0.13213
746.31737,0.13475
748.24584,0.13015
750.17431,0.12420
752.10278,0.12006
754.03125,0.11999
755.95971,0.12246
757.88818,0.12915
759.81665,0.13867
761.74512,0.13734
763.67359,0.12442
765.60206,0.11640
767.53053,0.12332
769.45900,0.13483
771.38746,0.13471
773.31593,0.12833
775.24440,0.12560
777.17287,0.12420
779.10134,0.12642
781.02981,0.13119
782.95828,0.13114
784.88674,0.12991
786.81521,0.12938
788.74368,0.12428
790.67215,0.11935
792.60062,0.12362
794.52909,0.13316
796.45756,0.13513
798.38602,0.12943
800.31449,0.12627
802.24296,0.12945
804.17143,0.13164
806.09990,0.12727
808.02837,0.12557
809.95684,0.13725
811.88531,0.15218
813.81377,0.15053
815.74224,0.13645
817.67071,0.12836
819.59918,0.12978
821.52765,0.13679
823.45612,0.14386
825.38459,0.14366
827.31305,0.13768
829.24152,0.13568
831.16999,0.13730
833.09846,0.13424
835.02693,0.12921
836.95540,0.12622
838.88387,0.12386
840.81234,0.12799
842.74080,0.13707
844.66927,0.13723
846.59774,0.12844
848.52621,0.12470
850.45468,0.13002
852.38315,0.13402
854.31162,0.13462
856.24008,0.13980
858.16855,0.14667
860.09702,0.14961
862.02549,0.14873
863.95396,0.14359
865.88243,0.13487
867.81090,0.12722
869.73937,0.12738
871.66783,0.13543
873.59630,0.14377
875.52477,0.14524
877.45324,0.13768
879.38171,0.12661
881.31018,0.12589
883.23865,0.13732
885.16711,0.13998
887.09558,0.12877
889.02405,0.12283
890.95252,0.12679
892.88099,0.13030
894.80946,0.13373
896.73793,0.14261
898.66640,0.14811
900.59486,0.14341
902.52333,0.13567
904.45180,0.13262
906.38027,0.13742
908.30874,0.14272
910.23721,0.14376
912.16568,0.14829
914.09414,0.15352
916.02261,0.15339
917.95108,0.15172
919.87955,0.14840
921.80802,0.14412
923.73649,0.14150
925.66496,0.13863
927.59343,0.13350
929.52189,0.12736
931.45036,0.12877
933.37883,0.14046
935.30730,0.15162
937.23577,0.15354
939.16424,0.14765
941.09271,0.14211
943.02117,0.14089
944.94964,0.14389
946.87811,0.14974
948.80658,0.14967
950.73505,0.14121
952.66352,0.13361
954.59199,0.13300
956.52045,0.13779
958.44892,0.14435
960.37739,0.14728
962.30586,0.14393
964.23433,0.13961
966.16280,0.13723
968.09127,0.13317
970.01974,0.12806
971.94820,0.12852
973.87667,0.13481
975.80514,0.14232
977.73361,0.15171
979.66208,0.15878
981.59055,0.15410
983.51902,0.13984
985.44748,0.12993
987.37595,0.13498
989.30442,0.14788
991.23289,0.15323
993.16136,0.14929
995.08983,0.14221
997.01830,0.13694
998.94677,0.13584
1000.87523,0.13682
1002.80370,0.14037
1004.73217,0.14391
1006.66064,0.14367
1008.58911,0.14403
1010.51758,0.14674
1012.44605,0.14993
1014.37451,0.15253
1016.30298,0.14974
1018.23145,0.14250
1020.15992,0.14065
1022.08839,0.14282
1024.01686,0.14075
1025.94533,0.13613
1027.87380,0.13552
1029.80226,0.14075
1031.73073,0.14792
1033.65920,0.15656
1035.58767,0.16116
1037.51614,0.15420
1039.44461,0.14520
1041.37308,0.14403
1043.30154,0.14709
1045.23001,0.15016
1047.15848,0.15311
1049.08695,0.15396
1051.01542,0.15078
1052.94389,0.14608
1054.87236,0.14511
1056.80083,0.14912
1058.72929,0.15313
1060.65776,0.15340
1062.58623,0.15604
1064.51470,0.16667
1066.44317,0.17352
1068.37164,0.16926
1070.30011,0.16366
1072.22857,0.16283
1074.15704,0.16286
1076.08551,0.15722
1078.01398,0.15052
1079.94245,0.15381
1081.87092,0.16158
1083.79939,0.16220
1085.72786,0.15924
1087.65632,0.15752
1089.58479,0.15265
1091.51326,0.14594
1093.44173,0.14423
1095.37020,0.14780
1097.29867,0.15654
1099.22714,0.16624
1101.15560,0.16666
1103.08407,0.16442
1105.01254,0.16575
1106.94101,0.16246
1108.86948,0.15686
1110.79795,0.15394
1112.72642,0.15272
1114.65489,0.15423
1116.58335,0.15601
1118.51182,0.15577
1120.44029,0.15551
1122.36876,0.15472
1124.29723,0.15392
1126.22570,0.15541
1128.15417,0.15947
1130.08263,0.16222
1132.01110,0.15972
1133.93957,0.15533
1135.86804,0.15235
1137.79651,0.15222
1139.72498,0.15331
1141.65345,0.15202
1143.58191,0.15088
1145.51038,0.15371
1147.43885,0.15850
1149.36732,0.15991
1151.29579,0.15863
1153.22426,0.15833
1155.15273,0.16006
1157.08120,0.16383
1159.00966,0.16559
1160.93813,0.16411
1162.86660,0.16209
1164.79507,0.15835
1166.72354,0.15318
1168.65201,0.15139
1170.58048,0.15545
1172.50894,0.16239
1174.43741,0.16846
1176.36588,0.17207
1178.29435,0.17205
1180.22282,0.16669
1182.15129,0.15749
1184.07976,0.15120
1186.00823,0.15102
1187.93669,0.15288
1189.86516,0.15412
1191.79363,0.15537
1193.72210,0.15663
1195.65057,0.15573
1197.57904,0.15377
1199.50751,0.15444
1201.43597,0.15520
1203.36444,0.15469
1205.29291,0.15679
1207.22138,0.16270
1209.14985,0.16834
1211.07832,0.16873
1213.00679,0.16655
1214.93526,0.16655
1216.86372,0.16552
1218.79219,0.16086
1220.72066,0.15698
1222.64913,0.15805
1224.57760,0.16250
1226.50607,0.16531
1228.43454,0.16467
1230.36300,0.16476
1232.29147,0.16661
1234.21994,0.16504
1236.14841,0.15985
1238.07688,0.15525
1240.00535,0.15294
1241.93382,0.15343
1243.86229,0.15537
1245.79075,0.15693
1247.71922,0.15967
1249.64769,0.16336
1251.57616,0.16275
1253.50463,0.15755
1255.43310,0.15310
1257.36157,0.15107
1259.29003,0.15071
1261.21850,0.15280
1263.14697,0.15652
1265.07544,0.15605
1267.00391,0.15021
1268.93238,0.14662
1270.86085,0.14996
1272.78932,0.15650
1274.71778,0.15874
1276.64625,0.15810
1278.57472,0.15873
1280.50319,0.15392
1282.43166,0.14731
1284.36013,0.15226
1286.28860,0.15910
1288.21706,0.15679
1290.14553,0.15523
1292.07400,0.15642
1294.00247,0.15465
1295.93094,0.14922
1297.85941,0.13925
1299.78788,0.12437
1301.71634,0.10244
1303.64481,0.08096
1305.57328,0.08707
1307.50175,0.12410
1309.43022,0.15484
1311.35869,0.16485
1313.28716,0.17058
1315.21563,0.17409
1317.14409,0.17117
1319.07256,0.16567
1321.00103,0.16328
1322.92950,0.16597
1324.85797,0.16457
1326.78644,0.15840
1328.71491,0.15710
1330.64337,0.15207
1332.57184,0.14425
1334.50031,0.14507
1336.42878,0.14697
1338.35725,0.14858
1340.28572,0.14880
1342.21419,0.14583
1344.14266,0.14470
1346.07112,0.14119
1347.99959,0.14036
1349.92806,0.14527
1351.85653,0.14691
1353.78500,0.14637
1355.71347,0.14931
1357.64194,0.15358
1359.57040,0.15607
1361.49887,0.15916
1363.42734,0.16211
1365.35581,0.16235
1367.28428,0.16243
1369.21275,0.16416
1371.14122,0.16810
1373.06969,0.17269
1374.99815,0.17413
1376.92662,0.17337
1378.85509,0.17359
1380.78356,0.17450
1382.71203,0.17691
1384.64050,0.18002
1386.56897,0.18160
1388.49743,0.18149
1390.42590,0.18075
1392.35437,0.18091
1394.28284,0.18298
1396.21131,0.18664
1398.13978,0.18602
1400.06825,0.18105
1401.99672,0.18136
1403.92518,0.18548
1405.85365,0.18557
1407.78212,0.18379
1409.71059,0.18425
1411.63906,0.18418
1413.56753,0.18429
1415.49600,0.18857
1417.42446,0.19276
1419.35293,0.18707
1421.28140,0.18114
1423.20987,0.18390
1425.13834,0.18598
1427.06681,0.18386
1428.99528,0.18151
1430.92375,0.17949
1432.85221,0.18014
1434.78068,0.18350
1436.70915,0.18354
1438.63762,0.17977
1440.56609,0.17840
1442.49456,0.18008
1444.42303,0.18401
1446.35149,0.18790
1448.27996,0.18795
1450.20843,0.18681
1452.13690,0.18989
1454.06537,0.19610
1455.99384,0.20293
1457.92231,0.20142
1459.85077,0.19292
1461.77924,0.19068
1463.70771,0.19318
1465.63618,0.19332
1467.56465,0.18878
1469.49312,0.18489
1471.42159,0.18551
1473.35006,0.19398
1475.27852,0.20317
1477.20699,0.20442
1479.13546,0.20012
1481.06393,0.19511
1482.99240,0.19212
1484.92087,0.19278
1486.84934,0.19639
1488.77780,0.19983
1490.70627,0.19978
1492.63474,0.19749
1494.56321,0.19745
1496.49168,0.20063
1498.42015,0.19888
1500.34862,0.19098
1502.27709,0.18825
1504.20555,0.19535
1506.13402,0.20971
1508.06249,0.20977
1509.99096,0.19863
1511.91943,0.19423
1513.84790,0.19788
1515.77637,0.20651
1517.70483,0.21161
1519.63330,0.21281
1521.56177,0.21447
1523.49024,0.21126
1525.41871,0.20666
1527.34718,0.20214
1529.27565,0.19767
1531.20412,0.19721
1533.13258,0.19898
1535.06105,0.19815
1536.98952,0.20122
1538.91799,0.21800
1540.84646,0.23830
1542.77493,0.23027
1544.70340,0.21166
1546.63186,0.19787
1548.56033,0.19393
1550.48880,0.19624
1552.41727,0.20085
1554.34574,0.20867
1556.27421,0.21962
1558.20268,0.22900
1560.13115,0.21688
1562.05961,0.20310
1563.98808,0.19716
1565.91655,0.19732
1567.84502,0.20543
1569.77349,0.21125
1571.70196,0.20544
1573.63043,0.20247
1575.55889,0.20768
1577.48736,0.20978
1579.41583,0.20345
1581.34430,0.19552
1583.27277,0.18991
1585.20124,0.18801
1587.12971,0.18917
1589.05818,0.19049
1590.98664,0.18809
1592.91511,0.18522
1594.84358,0.18783
1596.77205,0.19323
1598.70052,0.19572
1600.62899,0.19668
1602.55746,0.19863
1604.48592,0.19934
1606.41439,0.19829
1608.34286,0.19598
1610.27133,0.19302
1612.19980,0.19338
1614.12827,0.19745
1616.05674,0.20224
1617.98521,0.20268
1619.91367,0.20026
1621.84214,0.19851
1623.77061,0.19650
1625.69908,0.19717
1627.62755,0.20009
1629.55602,0.20020
1631.48449,0.19942
1633.41295,0.20243
1635.34142,0.21126
1637.26989,0.21425
1639.19836,0.20783
1641.12683,0.20252
1643.05530,0.20154
1644.98377,0.20642
1646.91223,0.21487
1648.84070,0.21739
1650.76917,0.21967
1652.69764,0.22418
1654.62611,0.21303
1656.55458,0.20035
1658.48305,0.19469
1660.41152,0.19123
1662.33998,0.19077
1664.26845,0.19740
1666.19692,0.20617
1668.12539,0.21517
1670.05386,0.22025
1671.98233,0.21589
1673.91080,0.21204
1675.83926,0.21111
1677.76773,0.21096
1679.69620,0.21437
1681.62467,0.22261
1683.55314,0.23177
1685.48161,0.22568
1687.41008,0.21358
1689.33855,0.20690
1691.26701,0.20241
1693.19548,0.20187
1695.12395,0.20943
1697.05242,0.21885
1698.98089,0.21908
1700.90936,0.21189
1702.83783,0.20804
1704.76629,0.20935
1706.69476,0.20786
1708.62323,0.20236
1710.55170,0.19924
1712.48017,0.20121
1714.40864,0.20798
1716.33711,0.21423
1718.26558,0.20953
1720.19404,0.20072
1722.12251,0.19616
1724.05098,0.19381
1725.97945,0.19265
1727.90792,0.19430
1729.83639,0.19813
1731.76486,0.20188
1733.69332,0.20417
1735.62179,0.20279
1737.55026,0.20092
1739.47873,0.20137
1741.40720,0.20236
1743.33567,0.20041
1745.26414,0.19862
1747.19261,0.20138
1749.12107,0.20610
1751.04954,0.20599
1752.97801,0.20000
1754.90648,0.19447
1756.83495,0.19388
1758.76342,0.19714
1760.69189,0.20016
1762.62035,0.20045
1764.54882,0.19942
1766.47729,0.19950
1768.40576,0.20025
1770.33423,0.20354
1772.26270,0.20725
1774.19117,0.20428
1776.11964,0.19951
1778.04810,0.19650
1779.97657,0.19482
1781.90504,0.19424
1783.83351,0.19320
1785.76198,0.19118
1787.69045,0.19070
1789.61892,0.19369
1791.54738,0.19951
1793.47585,0.20353
1795.40432,0.20280
1797.33279,0.20104
1799.26126,0.20101
1801.18973,0.20152
1803.11820,0.20060
1805.04666,0.19949
1806.97513,0.19990
1808.90360,0.20140
1810.83207,0.20138
1812.76054,0.19795
1814.68901,0.19413
1816.61748,0.19320
1818.54595,0.19349
1820.47441,0.19342
1822.40288,0.19489
1824.33135,0.19673
1826.25982,0.19778
1828.18829,0.19994
1830.11676,0.20052
1832.04523,0.19826
1833.97369,0.19724
1835.90216,0.19762
1837.83063,0.19689
1839.75910,0.19507
1841.68757,0.19532
1843.61604,0.19891
1845.54451,0.20115
1847.47298,0.19967
1849.40144,0.19760
1851.32991,0.19594
1853.25838,0.19493
1855.18685,0.19453
1857.11532,0.19459
1859.04379,0.19551
1860.97226,0.19594
1862.90072,0.19515
1864.82919,0.19627
1866.75766,0.20121
1868.68613,0.20390
1870.61460,0.19864
1872.54307,0.19259
1874.47154,0.19003
1876.40001,0.18914
1878.32847,0.18843
1880.25694,0.18846
1882.18541,0.19011
1884.11388,0.19270
1886.04235,0.19477
1887.97082,0.19662
1889.89929,0.19885
1891.82775,0.20029
1893.75622,0.20079
1895.68469,0.19959
1897.61316,0.19586
1899.54163,0.19324
1901.47010,0.19367
1903.39857,0.19479
1905.32704,0.19608
1907.25550,0.19767
1909.18397,0.19709
1911.11244,0.19403
1913.04091,0.19277
1914.96938,0.19469
1916.89785,0.19657
1918.82632,0.19753
1920.75478,0.19947
1922.68325,0.19947
1924.61172,0.19373
1926.54019,0.18714
1928.46866,0.18603
1930.39713,0.18975
1932.32560,0.19329
1934.25407,0.19442
1936.18253,0.19468
1938.11100,0.19489
1940.03947,0.19593
1941.96794,0.19829
1943.89641,0.19872
1945.82488,0.19589
1947.75335,0.19346
1949.68181,0.19325
1951.61028,0.19328
1953.53875,0.19252
1955.46722,0.19229
1957.39569,0.19289
1959.32416,0.19371
1961.25263,0.19516
1963.18110,0.19765
1965.10956,0.19912
1967.03803,0.19731
1968.96650,0.19468
1970.89497,0.19457
1972.82344,0.19604
1974.75191,0.19612
1976.68038,0.19374
1978.60884,0.19188
1980.53731,0.19279
1982.46578,0.19368
1984.39425,0.19399
1986.32272,0.19538
1988.25119,0.19516
1990.17966,0.19366
1992.10812,0.19411
1994.03659,0.19516
1995.96506,0.19589
1997.89353,0.19694
1999.82200,0.19725
2001.75047,0.19568
2003.67894,0.19329
2005.60741,0.19277
2007.53587,0.19440
2009.46434,0.19557
2011.39281,0.19535
2013.32128,0.19484
2015.24975,0.19407
2017.17822,0.19383
2019.10669,0.19483
2021.03515,0.19453
2022.96362,0.19267
2024.89209,0.19238
2026.82056,0.19320
2028.74903,0.19343
2030.67750,0.19476
2032.60597,0.19716
2034.53444,0.19755
2036.46290,0.19529
2038.39137,0.19266
2040.31984,0.19194
2042.24831,0.19322
2044.17678,0.19455
2046.10525,0.19555
2048.03372,0.19639
2049.96218,0.19604
2051.89065,0.19507
2053.81912,0.19448
2055.74759,0.19354
2057.67606,0.19194
2059.60453,0.19046
2061.53300,0.19003
2063.46147,0.19108
2065.38993,0.19299
2067.31840,0.19527
2069.24687,0.19767
2071.17534,0.19958
2073.10381,0.20041
2075.03228,0.19947
2076.96075,0.19760
2078.88921,0.19702
2080.81768,0.19699
2082.74615,0.19562
2084.67462,0.19447
2086.60309,0.19536
2088.53156,0.19660
2090.46003,0.19567
2092.38850,0.19347
2094.31696,0.19354
2096.24543,0.19631
2098.17390,0.19798
2100.10237,0.19863
2102.03084,0.20162
2103.95931,0.20397
2105.88778,0.20246
2107.81624,0.19998
2109.74471,0.19861
2111.67318,0.19791
2113.60165,0.19712
2115.53012,0.19670
2117.45859,0.19791
2119.38706,0.19936
2121.31553,0.19866
2123.24399,0.19679
2125.17246,0.19586
2127.10093,0.19558
2129.02940,0.19551
2130.95787,0.19636
2132.88634,0.19742
2134.81481,0.19642
2136.74327,0.19430
2138.67174,0.19418
2140.60021,0.19568
2142.52868,0.19727
2144.45715,0.19804
2146.38562,0.19758
2148.31409,0.19780
2150.24255,0.19878
2152.17102,0.19766
2154.09949,0.19539
2156.02796,0.19503
2157.95643,0.19560
2159.88490,0.19564
2161.81337,0.19653
2163.74184,0.19907
2165.67030,0.20158
2167.59877,0.20162
2169.52724,0.19948
2171.45571,0.19797
2173.38418,0.19832
2175.31265,0.19986
2177.24112,0.20091
2179.16958,0.19949
2181.09805,0.19672
2183.02652,0.19623
2184.95499,0.19872
2186.88346,0.20086
2188.81193,0.20013
2190.74040,0.19846
2192.66887,0.19800
2194.59733,0.19787
2196.52580,0.19763
2198.45427,0.19732
2200.38274,0.19587
2202.31121,0.19407
2204.23968,0.19428
2206.16815,0.19597
2208.09661,0.19726
2210.02508,0.19769
2211.95355,0.19726
2213.88202,0.19655
2215.81049,0.19593
2217.73896,0.19610
2219.66743,0.19707
2221.59590,0.19694
2223.52436,0.19593
2225.45283,0.19602
2227.38130,0.19703
2229.30977,0.19722
2231.23824,0.19681
2233.16671,0.19724
2235.09518,0.19900
2237.02364,0.20105
2238.95211,0.20061
2240.88058,0.19710
2242.80905,0.19420
2244.73752,0.19434
2246.66599,0.19525
2248.59446,0.19501
2250.52293,0.19417
2252.45139,0.19377
2254.37986,0.19498
2256.30833,0.19724
2258.23680,0.19851
2260.16527,0.19867
2262.09374,0.19879
2264.02221,0.19917
2265.95067,0.20046
2267.87914,0.20145
2269.80761,0.19927
2271.73608,0.19586
2273.66455,0.19524
2275.59302,0.19657
2277.52149,0.19703
2279.44996,0.19642
2281.37842,0.19530
2283.30689,0.19552
2285.23536,0.19794
2287.16383,0.19886
2289.09230,0.19782
2291.02077,0.19860
2292.94924,0.20072
2294.87770,0.20039
2296.80617,0.19680
2298.73464,0.19452
2300.66311,0.19641
2302.59158,0.19763
2304.52005,0.19589
2306.44852,0.19554
2308.37699,0.19633
2310.30545,0.19451
2312.23392,0.19263
2314.16239,0.19471
2316.09086,0.19724
2318.01933,0.19580
2319.94780,0.19354
2321.87627,0.19341
2323.80473,0.19227
2325.73320,0.18886
2327.66167,0.18757
2329.59014,0.19436
2331.51861,0.20324
2333.44708,0.20218
2335.37555,0.19551
2337.30401,0.18697
2339.23248,0.17808
2341.16095,0.17865
2343.08942,0.18089
2345.01789,0.17706
2346.94636,0.17904
2348.87483,0.18486
2350.80330,0.18866
2352.73176,0.19317
2354.66023,0.19760
2356.58870,0.19134
2358.51717,0.17788
2360.44564,0.16568
2362.37411,0.15898
2364.30258,0.16512
2366.23104,0.17739
2368.15951,0.18472
2370.08798,0.18453
2372.01645,0.18359
2373.94492,0.18579
2375.87339,0.18753
2377.80186,0.18808
2379.73033,0.18852
2381.65879,0.18990
2383.58726,0.19303
2385.51573,0.19565
2387.44420,0.19701
2389.37267,0.19869
2391.30114,0.19916
2393.22961,0.19763
2395.15807,0.19681
2397.08654,0.19729
2399.01501,0.19835
2400.94348,0.19997
2402.87195,0.20100
2404.80042,0.20088
2406.72889,0.20070
2408.65736,0.20024
2410.58582,0.19892
2412.51429,0.19774
2414.44276,0.19673
2416.37123,0.19631
2418.29970,0.19805
2420.22817,0.20036
2422.15664,0.20149
2424.08510,0.20224
2426.01357,0.20179
2427.94204,0.20076
2429.87051,0.20193
2431.79898,0.20259
2433.72745,0.20050
2435.65592,0.19974
2437.58439,0.20088
2439.51285,0.20039
2441.44132,0.19921
2443.36979,0.19980
2445.29826,0.20103
2447.22673,0.20098
2449.15520,0.19941
2451.08367,0.19874
2453.01213,0.20091
2454.94060,0.20357
2456.86907,0.20395
2458.79754,0.20172
2460.72601,0.19788
2462.65448,0.19438
2464.58295,0.19369
2466.51142,0.19664
2468.43988,0.20099
2470.36835,0.20374
2472.29682,0.20332
2474.22529,0.20111
2476.15376,0.20053
2478.08223,0.20110
2480.01070,0.20083
2481.93916,0.20246
2483.86763,0.20552
2485.79610,0.20435
2487.72457,0.19982
2489.65304,0.19632
2491.58151,0.19523
2493.50998,0.19672
2495.43844,0.19826
2497.36691,0.19812
2499.29538,0.19869
2501.22385,0.20060
2503.15232,0.20194
2505.08079,0.20304
2507.00926,0.20450
2508.93773,0.20447
2510.86619,0.20243
2512.79466,0.20121
2514.72313,0.20236
2516.65160,0.20397
2518.58007,0.20482
2520.50854,0.20547
2522.43701,0.20590
2524.36547,0.20512
2526.29394,0.20361
2528.22241,0.20314
2530.15088,0.20247
2532.07935,0.20085
2534.00782,0.20005
2535.93629,0.19984
2537.86476,0.20053
2539.79322,0.20234
2541.72169,0.20300
2543.65016,0.20254
2545.57863,0.20257
2547.50710,0.20198
2549.43557,0.20138
2551.36404,0.20261
2553.29250,0.20370
2555.22097,0.20328
2557.14944,0.20267
2559.07791,0.20315
2561.00638,0.20441
2562.93485,0.20428
2564.86332,0.20296
2566.79179,0.20239
2568.72025,0.20191
2570.64872,0.20131
2572.57719,0.20237
2574.50566,0.20480
2576.43413,0.20671
2578.36260,0.20764
2580.29107,0.20650
2582.21953,0.20319
2584.14800,0.20172
2586.07647,0.20421
2588.00494,0.20761
2589.93341,0.20843
2591.86188,0.20564
2593.79035,0.20197
2595.71882,0.20138
2597.64728,0.20333
2599.57575,0.20431
2601.50422,0.20324
2603.43269,0.20158
2605.36116,0.20119
2607.28963,0.20313
2609.21810,0.20572
2611.14656,0.20675
2613.07503,0.20685
2615.00350,0.20709
2616.93197,0.20732
2618.86044,0.20679
2620.78891,0.20584
2622.71738,0.20547
2624.64585,0.20521
2626.57431,0.20539
2628.50278,0.20680
2630.43125,0.20828
2632.35972,0.20782
2634.28819,0.20566
2636.21666,0.20339
2638.14513,0.20254
2640.07359,0.20465
2642.00206,0.20665
2643.93053,0.20560
2645.85900,0.20456
2647.78747,0.20490
2649.71594,0.20567
2651.64441,0.20628
2653.57288,0.20609
2655.50134,0.20606
2657.42981,0.20682
2659.35828,0.20791
2661.28675,0.20915
2663.21522,0.20926
2665.14369,0.20855
2667.07216,0.20990
2669.00062,0.21264
2670.92909,0.21368
2672.85756,0.21196
2674.78603,0.20955
2676.71450,0.20872
2678.64297,0.20729
2680.57144,0.20486
2682.49990,0.20461
2684.42837,0.20646
2686.35684,0.20818
2688.28531,0.20914
2690.21378,0.20940
2692.14225,0.20863
2694.07072,0.20800
2695.99919,0.20788
2697.92765,0.20679
2699.85612,0.20539
2701.78459,0.20401
2703.71306,0.20346
2705.64153,0.20604
2707.57000,0.20974
2709.49847,0.21240
2711.42693,0.21568
2713.35540,0.21792
2715.28387,0.21509
2717.21234,0.20909
2719.14081,0.20495
2721.06928,0.20438
2722.99775,0.20657
2724.92622,0.20995
2726.85468,0.21247
2728.78315,0.21252
2730.71162,0.21198
2732.64009,0.21324
2734.56856,0.21455
2736.49703,0.21412
2738.42550,0.21322
2740.35396,0.21257
2742.28243,0.21131
2744.21090,0.21029
2746.13937,0.21088
2748.06784,0.21201
2749.99631,0.21275
2751.92478,0.21358
2753.85325,0.21326
2755.78171,0.21053
2757.71018,0.20844
2759.63865,0.20961
2761.56712,0.21060
2763.49559,0.20850
2765.42406,0.20623
2767.35253,0.20585
2769.28099,0.20728
2771.20946,0.21127
2773.13793,0.21647
2775.06640,0.21955
2776.99487,0.21883
2778.92334,0.21553
2780.85181,0.21270
2782.78028,0.21221
2784.70874,0.21296
2786.63721,0.21320
2788.56568,0.21195
2790.49415,0.20960
2792.42262,0.20960
2794.35109,0.21273
2796.27956,0.21547
2798.20802,0.21661
2800.13649,0.21702
2802.06496,0.21516
2803.99343,0.21139
2805.92190,0.21077
2807.85037,0.21407
2809.77884,0.21719
2811.70731,0.21774
2813.63577,0.21735
2815.56424,0.21955
2817.49271,0.22247
2819.42118,0.22163
2821.34965,0.21821
2823.27812,0.21671
2825.20659,0.21803
2827.13505,0.21805
2829.06352,0.21499
2830.99199,0.21390
2832.92046,0.21669
2834.84893,0.21881
2836.77740,0.21893
2838.70587,0.21962
2840.63433,0.22051
2842.56280,0.21971
2844.49127,0.21906
2846.41974,0.22035
2848.34821,0.22177
2850.27668,0.22280
2852.20515,0.22330
2854.13362,0.22164
2856.06208,0.22027
2857.99055,0.22066
2859.91902,0.21865
2861.84749,0.21539
2863.77596,0.21485
2865.70443,0.21546
2867.63290,0.21547
2869.56136,0.21492
2871.48983,0.21431
2873.41830,0.21483
2875.34677,0.21603
2877.27524,0.21714
2879.20371,0.21933
2881.13218,0.21983
2883.06065,0.21464
2884.98911,0.20964
2886.91758,0.21148
2888.84605,0.21661
2890.77452,0.21838
2892.70299,0.21296
2894.63146,0.20398
2896.55993,0.20126
2898.48839,0.20567
2900.41686,0.21005
2902.34533,0.21039
2904.27380,0.20572
2906.20227,0.20195
2908.13074,0.20616
2910.05921,0.21328
2911.98768,0.21535
2913.91614,0.20783
2915.84461,0.19465
2917.77308,0.19386
2919.70155,0.20516
2921.63002,0.21149
2923.55849,0.20672
2925.48696,0.18939
2927.41542,0.17796
2929.34389,0.19054
2931.27236,0.21055
2933.20083,0.21782
2935.12930,0.20544
2937.05777,0.18621
2938.98624,0.18716
2940.91471,0.20410
2942.84317,0.21267
2944.77164,0.20360
2946.70011,0.18287
2948.62858,0.17733
2950.55705,0.19674
2952.48552,0.21298
2954.41399,0.20890
2956.34245,0.18908
2958.27092,0.17785
2960.19939,0.19441
2962.12786,0.21628
2964.05633,0.21991
2965.98480,0.20670
2967.91327,0.19141
2969.84174,0.19380
2971.77020,0.20739
2973.69867,0.21365
2975.62714,0.20736
2977.55561,0.19253
2979.48408,0.19012
2981.41255,0.20585
2983.34102,0.21837
2985.26948,0.21592
2987.19795,0.20189
2989.12642,0.19619
2991.05489,0.20933
2992.98336,0.22144
2994.91183,0.22123
2996.84030,0.21424
2998.76877,0.20896
3000.69723,0.21414
3002.62570,0.22262
3004.55417,0.22226
3006.48264,0.21354
3008.41111,0.19847
3010.33958,0.17317
3012.26805,0.13277
3014.19651,0.08331
3016.12498,0.05553
3018.05345,0.08630
3019.98192,0.15742
3021.91039,0.20981
3023.83886,0.22747
3025.76733,0.22886
3027.69579,0.22309
3029.62426,0.21808
3031.55273,0.22003
3033.48120,0.22335
3035.40967,0.22219
3037.33814,0.21785
3039.26661,0.21601
3041.19508,0.22028
3043.12354,0.22533
3045.05201,0.22104
3046.98048,0.20851
3048.90895,0.20450
3050.83742,0.21117
3052.76589,0.21410
3054.69436,0.20650
3056.62282,0.19276
3058.55129,0.19213
3060.47976,0.20800
3062.40823,0.21806
3064.33670,0.21067
3066.26517,0.19607
3068.19364,0.19629
3070.12211,0.21230
3072.05057,0.22231
3073.97904,0.21349
3075.90751,0.19790
3077.83598,0.20089
3079.76445,0.21618
3081.69292,0.21684
3083.62139,0.19782
3085.54985,0.17852
3087.47832,0.18276
3089.40679,0.20298
3091.33526,0.21079
3093.26373,0.19736
3095.19220,0.18708
3097.12067,0.20074
3099.04914,0.21700
3100.97760,0.21280
3102.90607,0.19517
3104.83454,0.18936
3106.76301,0.20383
3108.69148,0.21717
3110.61995,0.21371
3112.54842,0.20106
3114.47688,0.19800
3116.40535,0.20584
3118.33382,0.20899
3120.26229,0.20052
3122.19076,0.19287
3124.11923,0.20219
3126.04770,0.21628
3127.97617,0.21617
3129.90463,0.20691
3131.83310,0.20772
3133.76157,0.22157
3135.69004,0.22926
3137.61851,0.22208
3139.54698,0.21094
3141.47545,0.21128
3143.40391,0.22049
3145.33238,0.22457
3147.26085,0.22274
3149.18932,0.22297
3151.11779,0.22985
3153.04626,0.23714
3154.97473,0.23605
3156.90320,0.22953
3158.83166,0.22607
3160.76013,0.22666
3162.68860,0.22785
3164.61707,0.22780
3166.54554,0.22740
3168.47401,0.22950
3170.40248,0.23177
3172.33094,0.23115
3174.25941,0.23198
3176.18788,0.23747
3178.11635,0.24126
3180.04482,0.23744
3181.97329,0.23103
3183.90176,0.22996
3185.83022,0.23234
3187.75869,0.23067
3189.68716,0.22876
3191.61563,0.23166
3193.54410,0.23314
3195.47257,0.23172
3197.40104,0.23197
3199.32951,0.23287
3201.25797,0.23352
3203.18644,0.23424
3205.11491,0.23372
3207.04338,0.23192
3208.97185,0.22846
3210.90032,0.22431
3212.82879,0.22296
3214.75725,0.22445
3216.68572,0.22596
3218.61419,0.22700
3220.54266,0.22691
3222.47113,0.22530
3224.39960,0.22487
3226.32807,0.22649
3228.25654,0.22778
3230.18500,0.22719
3232.11347,0.22670
3234.04194,0.22716
3235.97041,0.22684
3237.89888,0.22516
3239.82735,0.22375
3241.75582,0.22432
3243.68428,0.22379
3245.61275,0.22366
3247.54122,0.22841
3249.46969,0.23389
3251.39816,0.23550
3253.32663,0.23245
3255.25510,0.22746
3257.18357,0.22415
3259.11203,0.22205
3261.04050,0.22127
3262.96897,0.22359
3264.89744,0.22569
3266.82591,0.22520
3268.75438,0.22652
3270.68285,0.22921
3272.61131,0.22934
3274.53978,0.22794
3276.46825,0.22610
3278.39672,0.22475
3280.32519,0.22452
3282.25366,0.22409
3284.18213,0.22472
3286.11060,0.22764
3288.03906,0.23130
3289.96753,0.23445
3291.89600,0.23479
3293.82447,0.23042
3295.75294,0.22507
3297.68141,0.22351
3299.60988,0.22301
3301.53834,0.22226
3303.46681,0.22545
3305.39528,0.23014
3307.32375,0.23126
3309.25222,0.22923
3311.18069,0.22695
3313.10916,0.22509
3315.03763,0.22304
3316.96609,0.22268
3318.89456,0.22649
3320.82303,0.23085
3322.75150,0.22939
3324.67997,0.22522
3326.60844,0.22205
3328.53691,0.21841
3330.46537,0.21757
3332.39384,0.22045
3334.32231,0.22381
3336.25078,0.22845
3338.17925,0.23243
3340.10772,0.23280
3342.03619,0.23336
3343.96466,0.23393
3345.89312,0.23082
3347.82159,0.22712
3349.75006,0.22530
3351.67853,0.22376
3353.60700,0.22278
3355.53547,0.22425
3357.46394,0.22824
3359.39240,0.23225
3361.32087,0.23402
3363.24934,0.23338
3365.17781,0.23275
3367.10628,0.23578
3369.03475,0.24002
3370.96322,0.24062
3372.89168,0.23864
3374.82015,0.23328
3376.74862,0.22551
3378.67709,0.22430
3380.60556,0.22979
3382.53403,0.23285
3384.46250,0.23107
3386.39097,0.22648
3388.31943,0.22338
3390.24790,0.22680
3392.17637,0.23283
3394.10484,0.23468
3396.03331,0.23383
3397.96178,0.23443
3399.89025,0.23445
3401.81871,0.23018
3403.74718,0.22455
3405.67565,0.22210
3407.60412,0.22247
3409.53259,0.22388
3411.46106,0.22569
3413.38953,0.22656
3415.31800,0.22686
3417.24646,0.22736
3419.17493,0.22585
3421.10340,0.22283
3423.03187,0.21936
3424.96034,0.21691
3426.88881,0.21894
3428.81728,0.22239
3430.74574,0.22451
3432.67421,0.22590
3434.60268,0.22379
3436.53115,0.22007
3438.45962,0.21937
3440.38809,0.22106
3442.31656,0.22156
3444.24503,0.21853
3446.17349,0.21657
3448.10196,0.21915
3450.03043,0.21968
3451.95890,0.21568
3453.88737,0.21044
3455.81584,0.20664
3457.74431,0.20808
3459.67277,0.21291
3461.60124,0.21444
3463.52971,0.21159
3465.45818,0.20792
3467.38665,0.20631
3469.31512,0.20676
3471.24359,0.20788
3473.17206,0.20897
3475.10052,0.20827
3477.02899,0.20558
3478.95746,0.20413
3480.88593,0.20272
3482.81440,0.20011
3484.74287,0.20033
3486.67134,0.20144
3488.59980,0.20044
3490.52827,0.19766
3492.45674,0.19249
3494.38521,0.18869
3496.31368,0.18985
3498.24215,0.19383
3500.17062,0.19849
3502.09909,0.20180
3504.02755,0.19911
3505.95602,0.19220
3507.88449,0.18947
3509.81296,0.19164
3511.74143,0.19317
3513.66990,0.19325
3515.59837,0.19313
3517.52683,0.19300
3519.45530,0.19315
3521.38377,0.19048
3523.31224,0.18429
3525.24071,0.18190
3527.16918,0.18583
3529.09765,0.18945
3531.02611,0.18875
3532.95458,0.18718
3534.88305,0.18722
3536.81152,0.18660
3538.73999,0.18399
3540.66846,0.18180
3542.59693,0.18157
3544.52540,0.18329
3546.45386,0.18656
3548.38233,0.18945
3550.31080,0.18984
3552.23927,0.18661
3554.16774,0.18140
3556.09621,0.17648
3558.02468,0.17271
3559.95314,0.17274
3561.88161,0.17907
3563.81008,0.18994
3565.73855,0.19564
3567.66702,0.18754
3569.59549,0.17821
3571.52396,0.17390
3573.45243,0.17198
3575.38089,0.17373
3577.30936,0.17315
3579.23783,0.16669
3581.16630,0.16279
3583.09477,0.16475
3585.02324,0.16801
3586.95171,0.17065
3588.88017,0.17412
3590.80864,0.17716
3592.73711,0.17650
3594.66558,0.17326
3596.59405,0.17216
3598.52252,0.17175
3600.45099,0.16797
3602.37946,0.16360
3604.30792,0.16327
3606.23639,0.16634
3608.16486,0.16985
3610.09333,0.17083
3612.02180,0.16850
3613.95027,0.16451
3615.87874,0.16454
3617.80720,0.17016
3619.73567,0.17189
3621.66414,0.16690
3623.59261,0.16231
3625.52108,0.15824
3627.44955,0.15741
3629.37802,0.16272
3631.30649,0.16394
3633.23495,0.15968
3635.16342,0.15462
3637.09189,0.15201
3639.02036,0.15117
3640.94883,0.15010
3642.87730,0.14978
3644.80577,0.15310
3646.73423,0.16193
3648.66270,0.16946
3650.59117,0.16182
3652.51964,0.15142
3654.44811,0.14731
3656.37658,0.14526
3658.30505,0.14282
3660.23352,0.14274
3662.16198,0.14440
3664.09045,0.14661
3666.01892,0.14967
3667.94739,0.15361
3669.87586,0.15642
3671.80433,0.15529
3673.73280,0.15713
3675.66126,0.16184
3677.58973,0.15720
3679.51820,0.14783
3681.44667,0.14212
3683.37514,0.14380
3685.30361,0.14950
3687.23208,0.15292
3689.16055,0.15240
3691.08901,0.14837
3693.01748,0.14469
3694.94595,0.14636
3696.87442,0.15127
3698.80289,0.15258
3700.73136,0.14740
3702.65983,0.13945
3704.58829,0.13642
3706.51676,0.14142
3708.44523,0.15155
3710.37370,0.15724
3712.30217,0.15226
3714.23064,0.14597
3716.15911,0.14284
3718.08757,0.14311
3720.01604,0.14683
3721.94451,0.15074
3723.87298,0.15050
3725.80145,0.14532
3727.72992,0.14161
3729.65839,0.14523
3731.58686,0.15358
3733.51532,0.15925
3735.44379,0.15762
3737.37226,0.15186
3739.30073,0.14776
3741.22920,0.14812
3743.15767,0.15218
3745.08614,0.15577
3747.01460,0.15917
3748.94307,0.16631
3750.87154,0.16925
3752.80001,0.16064
3754.72848,0.15078
3756.65695,0.14200
3758.58542,0.13549
3760.51389,0.13436
3762.44235,0.13767
3764.37082,0.14394
3766.29929,0.14878
3768.22776,0.14738
3770.15623,0.14247
3772.08470,0.13836
3774.01317,0.13701
3775.94163,0.13825
3777.87010,0.14042
3779.79857,0.13991
3781.72704,0.13716
3783.65551,0.13681
3785.58398,0.13711
3787.51245,0.13568
3789.44092,0.13537
3791.36938,0.13627
3793.29785,0.13597
3795.22632,0.13637
3797.15479,0.13924
3799.08326,0.14074
3801.01173,0.13929
3802.94020,0.13676
3804.86866,0.13550
3806.79713,0.13514
3808.72560,0.13468
3810.65407,0.13454
3812.58254,0.13560
3814.51101,0.13828
3816.43948,0.13925
3818.36795,0.13813
3820.29641,0.13974
3822.22488,0.14388
3824.15335,0.14605
3826.08182,0.14398
3828.01029,0.14076
3829.93876,0.14012
3831.86723,0.13842
3833.79569,0.13333
3835.72416,0.12947
3837.65263,0.13030
3839.58110,0.13148
3841.50957,0.12975
3843.43804,0.12760
3845.36651,0.12730
3847.29498,0.13027
3849.22344,0.13605
3851.15191,0.14190
3853.08038,0.14283
3855.00885,0.13872
3856.93732,0.13398
3858.86579,0.13095
3860.79426,0.13256
3862.72272,0.13193
3864.65119,0.12240
3866.57966,0.11774
3868.50813,0.12231
3870.43660,0.12823
3872.36507,0.13271
3874.29354,0.13450
3876.22200,0.13462
3878.15047,0.14022
3880.07894,0.14845
3882.00741,0.14630
3883.93588,0.13768
3885.86435,0.12919
3887.79282,0.12494
3889.72129,0.12882
3891.64975,0.13195
3893.57822,0.12617
3895.50669,0.12138
3897.43516,0.11982
3899.36363,0.12025
3901.29210,0.12619
3903.22057,0.13049
3905.14903,0.12871
3907.07750,0.12982
3909.00597,0.13310
3910.93444,0.13314
3912.86291,0.12854
3914.79138,0.12365
3916.71985,0.12453
3918.64832,0.12870
3920.57678,0.13064
3922.50525,0.12977
3924.43372,0.12716
3926.36219,0.12584
3928.29066,0.12650
3930.21913,0.12668
3932.14760,0.12271
3934.07606,0.11630
3936.00453,0.11194
3937.93300,0.11088
3939.86147,0.11453
3941.78994,0.11869
3943.71841,0.11813
3945.64688,0.11612
3947.57535,0.11699
3949.50381,0.12117
3951.43228,0.12395
3953.36075,0.12317
3955.28922,0.12244
3957.21769,0.12168
3959.14616,0.12055
3961.07463,0.12159
3963.00309,0.12116
3964.93156,0.11619
3966.86003,0.11247
3968.78850,0.11300
3970.71697,0.11397
3972.64544,0.11448
3974.57391,0.11632
3976.50238,0.11840
3978.43084,0.11892
3980.35931,0.11719
3982.28778,0.11485
3984.21625,0.11342
3986.14472,0.11166
3988.07319,0.10802
3990.00166,0.10537
3991.93012,0.11003
3993.85859,0.11873
3995.78706,0.12207
3997.71553,0.11883
3999.64400,0.11287
4001.57247,0.10791
4003.50094,0.10616
4005.42941,0.10586
4007.35787,0.10581
4009.28634,0.10707
4011.21481,0.10802
4013.14328,0.10845
4015.07175,0.10784
4017.00022,0.10503
4018.92869,0.10380
4020.85715,0.10411
4022.78562,0.10380
4024.71409,0.10498
4026.64256,0.10821
4028.57103,0.11047
4030.49950,0.11012
4032.42797,0.10981
4034.35644,0.11030
4036.28490,0.10957
4038.21337,0.10696
4040.14184,0.10411
4042.07031,0.10550
4043.99878,0.11103
4045.92725,0.11331
4047.85572,0.11109
4049.78418,0.10973
4051.71265,0.10795
4053.64112,0.10575
4055.56959,0.10842
4057.49806,0.11369
4059.42653,0.11488
4061.35500,0.11054
4063.28346,0.10497
4065.21193,0.10192
4067.14040,0.10040
4069.06887,0.10090
4070.99734,0.10314
4072.92581,0.10160
4074.85428,0.09920
4076.78275,0.10283
4078.71121,0.10718
4080.63968,0.10676
4082.56815,0.10385
4084.49662,0.10165
4086.42509,0.10181
4088.35356,0.10155
4090.28203,0.09742
4092.21049,0.09156
4094.13896,0.08970
4096.06743,0.09417
4097.99590,0.09849
4099.92437,0.09747
4101.85284,0.09574
4103.78131,0.09677
4105.70978,0.09858
4107.63824,0.09919
4109.56671,0.09800
4111.49518,0.09621
4113.42365,0.09465
4115.35212,0.09335
4117.28059,0.09319
4119.20906,0.09315
4121.13752,0.09190
4123.06599,0.09239
4124.99446,0.09520
4126.92293,0.09628
4128.85140,0.09694
4130.77987,0.09992
4132.70834,0.10178
4134.63681,0.09975
4136.56527,0.09604
4138.49374,0.09252
4140.42221,0.08786
4142.35068,0.08364
4144.27915,0.08528
4146.20762,0.09346
4148.13609,0.10005
4150.06455,0.09762
4151.99302,0.09131
4153.92149,0.08940
4155.84996,0.09078
4157.77843,0.09211
4159.70690,0.09169
4161.63537,0.08900
4163.56384,0.08763
4165.49230,0.08939
4167.42077,0.08779
4169.34924,0.07931
4171.27771,0.07179
4173.20618,0.07014
4175.13465,0.07140
4177.06312,0.07404
4178.99158,0.07846
4180.92005,0.08182
4182.84852,0.08184
4184.77699,0.08042
4186.70546,0.07837
4188.63393,0.07738
4190.56240,0.07716
4192.49087,0.07478
4194.41933,0.07294
4196.34780,0.07433
4198.27627,0.07929
4200.20474,0.08505
4202.13321,0.08740
4204.06168,0.08631
4205.99015,0.08194
4207.91861,0.07774
4209.84708,0.07858
4211.77555,0.08170
4213.70402,0.08131
4215.63249,0.07732
4217.56096,0.07589
4219.48943,0.07824
4221.41789,0.07772
4223.34636,0.07479
4225.27483,0.07444
4227.20330,0.07284
4229.13177,0.06815
4231.06024,0.06728
4232.98871,0.07191
4234.91718,0.07407
4236.84564,0.06995
4238.77411,0.06613
4240.70258,0.06704
4242.63105,0.06889
4244.55952,0.06913
4246.48799,0.06949
4248.41646,0.07078
4250.34492,0.07156
4252.27339,0.06931
4254.20186,0.06715
4256.13033,0.06914
4258.05880,0.07032
4259.98727,0.06951
4261.91574,0.07147
4263.84421,0.07589
4265.77267,0.07940
4267.70114,0.07644
4269.62961,0.06594
4271.55808,0.05829
4273.48655,0.06030
4275.41502,0.06636
4277.34349,0.07047
4279.27195,0.06980
4281.20042,0.06371
4283.12889,0.05815
4285.05736,0.05985
4286.98583,0.06608
4288.91430,0.06836
4290.84277,0.06448
4292.77124,0.05654
4294.69970,0.04523
4296.62817,0.03778
4298.55664,0.04206
4300.48511,0.05049
4302.41358,0.05504
4304.34205,0.05835
4306.27052,0.05815
4308.19898,0.05326
4310.12745,0.05092
4312.05592,0.05272
4313.98439,0.05555
4315.91286,0.05783
4317.84133,0.06007
4319.76980,0.06193
4321.69827,0.05959
4323.62673,0.05576
4325.55520,0.05574
4327.48367,0.05598
4329.41214,0.05260
4331.34061,0.04902
4333.26908,0.04610
4335.19755,0.04025
4337.12601,0.03781
4339.05448,0.04554
4340.98295,0.05675
4342.91142,0.06103
4344.83989,0.05260
4346.76836,0.03898
4348.69683,0.03224
4350.62530,0.02969
4352.55376,0.02621
4354.48223,0.02565
4356.41070,0.02894
4358.33917,0.03270
4360.26764,0.03717
4362.19611,0.04301
4364.12458,0.04536
4366.05304,0.04259
4367.98151,0.04125
4369.90998,0.04337
4371.83845,0.04609
4373.76692,0.04631
4375.69539,0.04114
4377.62386,0.03386
4379.55232,0.02991
4381.48079,0.02801
4383.40926,0.02565
4385.33773,0.02712
4387.26620,0.03200
4389.19467,0.03321
4391.12314,0.03267
4393.05161,0.03521
4394.98007,0.03840
4396.90854,0.03980
4398.83701,0.03774
4400.76548,0.03024
4402.69395,0.02314
4404.62242,0.02389
4406.55089,0.02793
4408.47935,0.02732
4410.40782,0.02317
4412.33629,0.01977
4414.26476,0.02037
4416.19323,0.02365
4418.12170,0.02189
4420.05017,0.01900
4421.97864,0.02293
4423.90710,0.02583
4425.83557,0.02228
4427.76404,0.01938
4429.69251,0.02016
4431.62098,0.01877
4433.54945,0.01623
4435.47792,0.02012
4437.40638,0.02692
4439.33485,0.03155
4441.26332,0.03486
4443.19179,0.03133
4445.12026,0.02019
4447.04873,0.01268
4448.97720,0.01390
4450.90567,0.01701
4452.83413,0.01577
4454.76260,0.01694
4456.69107,0.02435
4458.61954,0.02759
4460.54801,0.02541
4462.47648,0.02495
4464.40495,0.02132
4466.33341,0.01212
4468.26188,0.00625
4470.19035,0.00690
4472.11882,0.00984
4474.04729,0.01082
4475.97576,0.00927
4477.90423,0.00870
4479.83270,0.01176
4481.76116,0.01781
4483.68963,0.02081
4485.61810,0.01882
4487.54657,0.01826
4489.47504,0.02032
4491.40351,0.02337
4493.33198,0.02858
4495.26044,0.03271
4497.18891,0.03036
4499.11738,0.02606
4501.04585,0.02461
4502.97432,0.01853
4504.90279,0.00794
4506.83126,0.00229
4508.75973,0.00107
4510.68819,0.00243
4512.61666,0.00871
4514.54513,0.01212
4516.47360,0.00610
4518.40207,0.00018
4520.33054,0.00303
4522.25901,0.00913
4524.18747,0.00691
4526.11594,-0.00009
4528.04441,-0.00071
4529.97288,0.00248
4531.90135,0.00489
4533.82982,0.00310
4535.75829,-0.00098
4537.68676,0.00398
4539.61522,0.01507
4541.54369,0.01912
4543.47216,0.01534
4545.40063,0.01204
4547.32910,0.00987
4549.25757,0.00393
4551.18604,0.00067
4553.11450,0.00929
4555.04297,0.01930
4556.97144,0.01365
4558.89991,0.00049
4560.82838,-0.00279
4562.75685,0.00063
4564.68532,0.00302
4566.61378,0.00474
4568.54225,0.00349
4570.47072,0.00047
4572.39919,0.00150
4574.32766,0.00413
4576.25613,0.00371
4578.18460,0.00009
4580.11307,-0.00088
4582.04153,0.00214
4583.97000,0.00123
4585.89847,0.00020
4587.82694,0.00566
4589.75541,0.00704
4591.68388,0.00149
4593.61235,0.00282
4595.54081,0.00759
4597.46928,0.00692
4599.39775,0.00799
4601.32622,0.01020
4603.25469,0.00966
4605.18316,0.01101
4607.11163,0.01201
4609.04010,0.00919
4610.96856,0.00654
4612.89703,0.00537
4614.82550,0.00560
4616.75397,0.00571
4618.68244,0.00008
4620.61091,-0.00729
4622.53938,-0.00675
4624.46784,0.00005
4626.39631,0.00310
4628.32478,0.00224
4630.25325,0.00696
4632.18172,0.01692
4634.11019,0.02096
4636.03866,0.01611
4637.96713,0.01010
4639.89559,0.00906
4641.82406,0.01335
4643.75253,0.01594
4645.68100,0.01177
4647.60947,0.00266
4649.53794,-0.00521
4651.46641,-0.00356
4653.39487,0.00516
4655.32334,0.00793
4657.25181,0.00049
4659.18028,-0.00493
4661.10875,-0.00215
4663.03722,0.00254
4664.96569,0.00821
4666.89416,0.01519
4668.82262,0.02025
4670.75109,0.02353
4672.67956,0.02523
4674.60803,0.02153
4676.53650,0.01272
4678.46497,0.00661
4680.39344,0.00502
4682.32190,0.00161
4684.25037,-0.00366
4686.17884,-0.00812
4688.10731,-0.00956
4690.03578,-0.00376
4691.96425,0.00454
4693.89272,0.00856
4695.82119,0.00891
4697.74965,0.00700
4699.67812,0.00516
4701.60659,0.00217
4703.53506,-0.00427
4705.46353,-0.00097
4707.39200,0.01498
4709.32047,0.02040
4711.24893,0.01085
4713.17740,-0.00038
4715.10587,-0.00959
4717.03434,-0.01138
4718.96281,-0.00660
4720.89128,-0.00409
4722.81975,0.00041
4724.74821,0.00903
4726.67668,0.00999
4728.60515,0.00789
4730.53362,0.01104
4732.46209,0.01355
4734.39056,0.01375
4736.31903,0.01098
4738.24750,0.00378
4740.17596,0.00154
4742.10443,0.00787
4744.03290,0.01300
4745.96137,0.01351
4747.88984,0.01420
4749.81831,0.01497
4751.74678,0.00978
4753.67524,0.00454
4755.60371,0.00764
4757.53218,0.00504
4759.46065,-0.00767
4761.38912,-0.01112
4763.31759,-0.00232
4765.24606,0.00435
4767.17453,0.00771
4769.10299,0.01105
4771.03146,0.00940
4772.95993,0.00639
4774.88840,0.00550
4776.81687,0.00435
4778.74534,0.00612
4780.67381,0.00916
4782.60227,0.00995
4784.53074,0.00667
4786.45921,0.00076
4788.38768,-0.00166
4790.31615,-0.00194
4792.24462,-0.00039
4794.17309,0.00586
4796.10156,0.01045
4798.03002,0.01203
4799.95849,0.01353
4801.88696,0.01020
4803.81543,0.00729
4805.74390,0.01405
4807.67237,0.01800
4809.60084,0.00999
4811.52930,-0.00232
4813.45777,-0.01301
4815.38624,-0.01449
4817.31471,-0.00313
4819.24318,0.01153
4821.17165,0.02148
4823.10012,0.02248
4825.02859,0.01322
4826.95705,0.01026
4828.88552,0.01770
4830.81399,0.01492
4832.74246,0.00553
4834.67093,0.00395
4836.59940,0.00810
4838.52787,0.01384
4840.45633,0.01697
4842.38480,0.01623
4844.31327,0.01151
4846.24174,0.00303
4848.17021,0.00119
4850.09868,0.00956
4852.02715,0.01426
4853.95562,0.01236
4855.88408,0.00968
4857.81255,0.00558
4859.74102,0.00499
4861.66949,0.00817
4863.59796,0.00875
4865.52643,0.00519
4867.45490,0.00085
4869.38336,0.00182
4871.31183,0.00754
4873.24030,0.01305
4875.16877,0.01083
4877.09724,0.00446
4879.02571,0.00758
4880.95418,0.01634
4882.88265,0.02057
4884.81111,0.01728
4886.73958,0.01170
4888.66805,0.01755
4890.59652,0.02722
4892.52499,0.02078
4894.45346,0.00390
4896.38193,-0.00447
4898.31039,0.00112
4900.23886,0.01156
4902.16733,0.02188
4904.09580,0.02839
4906.02427,0.02546
4907.95274,0.01870
4909.88121,0.01179
4911.80967,0.00478
4913.73814,0.00305
4915.66661,0.00867
4917.59508,0.01932
4919.52355,0.02490
4921.45202,0.01363
4923.38049,-0.00183
4925.30896,-0.00246
4927.23742,-0.00020
4929.16589,-0.00628
4931.09436,-0.00779
4933.02283,-0.00293
4934.95130,0.00369
4936.87977,0.01435
4938.80824,0.01764
4940.73670,0.01270
4942.66517,0.01616
4944.59364,0.02248
4946.52211,0.01450
4948.45058,-0.00480
4950.37905,-0.01740
4952.30752,-0.01431
4954.23599,-0.00525
4956.16445,-0.00244
4958.09292,-0.00449
4960.02139,-0.00351
4961.94986,-0.00174
4963.87833,-0.00422
4965.80680,-0.00435
4967.73527,-0.00490
4969.66373,-0.01512
4971.59220,-0.01394
4973.52067,0.01016
4975.44914,0.02267
4977.37761,0.00760
4979.30608,-0.01048
4981.23455,-0.01861
4983.16302,-0.01652
4985.09148,-0.00084
4987.01995,0.01731
4988.94842,0.02431
4990.87689,0.02387
4992.80536,0.02501
4994.73383,0.02748
4996.66230,0.02114
4998.59076,0.00824
5000.51923,0.00366
5002.44770,0.01035
5004.37617,0.01987
5006.30464,0.02172
5008.23311,0.01339
5010.16158,0.00258
5012.09005,-0.00510
5014.01851,-0.00624
5015.94698,0.00080
5017.87545,0.00471
5019.80392,-0.00108
5021.73239,-0.00621
5023.66086,-0.00411
5025.58933,0.00595
5027.51779,0.01860
5029.44626,0.02253
5031.37473,0.02005
5033.30320,0.02344
5035.23167,0.03025
5037.16014,0.02677
5039.08861,0.01969
5041.01708,0.01964
5042.94554,0.01344
5044.87401,0.00259
5046.80248,0.00122
5048.73095,-0.00109
5050.65942,-0.00958
5052.58789,-0.00976
5054.51636,-0.00153
5056.44482,0.00544
5058.37329,0.00415
5060.30176,-0.00771
5062.23023,-0.01255
5064.15870,0.00098
5066.08717,0.01664
5068.01564,0.01864
5069.94410,0.00984
5071.87257,0.00120
5073.80104,0.00040
5075.72951,0.01138
5077.65798,0.02385
5079.58645,0.02263
5081.51492,0.01984
5083.44339,0.03006
5085.37185,0.03910
5087.30032,0.03296
5089.22879,0.02011
5091.15726,0.01210
5093.08573,0.00866
5095.01420,0.01204
5096.94267,0.02169
5098.87113,0.02066
5100.79960,0.00933
5102.72807,0.00847
5104.65654,0.01680
5106.58501,0.02014
5108.51348,0.01808
5110.44195,0.01125
5112.37042,0.00372
5114.29888,0.00766
5116.22735,0.00985
5118.15582,-0.00444
5120.08429,-0.01608
5122.01276,-0.01022
5123.94123,0.00212
5125.86970,0.00709
5127.79816,0.00839
5129.72663,0.01787
5131.65510,0.03224
5133.58357,0.03780
5135.51204,0.03072
5137.44051,0.02441
5139.36898,0.02934
5141.29745,0.03799
5143.22591,0.03996
5145.15438,0.03362
5147.08285,0.02577
5149.01132,0.02094
5150.93979,0.02047
5152.86826,0.02986
5154.79673,0.04153
5156.72519,0.04254
5158.65366,0.03675
5160.58213,0.03216
5162.51060,0.03491
5164.43907,0.04150
5166.36754,0.03668
5168.29601,0.02368
5170.22448,0.02037
5172.15294,0.02765
5174.08141,0.03689
5176.00988,0.04694
5177.93835,0.05328
5179.86682,0.05364
5181.79529,0.04964
5183.72376,0.04314
5185.65222,0.04171
5187.58069,0.04103
5189.50916,0.03499
5191.43763,0.03559
5193.36610,0.04174
5195.29457,0.04251
5197.22304,0.04328
5199.15151,0.04795
5201.07997,0.05311
5203.00844,0.05665
5204.93691,0.05385
5206.86538,0.04505
5208.79385,0.04394
5210.72232,0.05528
5212.65079,0.06768
5214.57925,0.07020
5216.50772,0.06182
5218.43619,0.06253
5220.36466,0.08290
5222.29313,0.09285
5224.22160,0.07972
5226.15007,0.06370
5228.07854,0.05162
5230.00700,0.04090
5231.93547,0.04380
5233.86394,0.06101
5235.79241,0.07109
5237.72088,0.06353
5239.64935,0.04646
5241.57782,0.03361
5243.50628,0.03655
5245.43475,0.05557
5247.36322,0.07134
5249.29169,0.06883
5251.22016,0.06302
5253.14863,0.06117
5255.07710,0.05218
5257.00556,0.04137
5258.93403,0.03766
5260.86250,0.04313
5262.79097,0.05304
5264.71944,0.05082
5266.64791,0.04252
5268.57638,0.04354
5270.50485,0.04807
5272.43331,0.05063
5274.36178,0.04824
5276.29025,0.04105
5278.21872,0.03880
5280.14719,0.04399
5282.07566,0.04433
5284.00413,0.03361
5285.93259,0.02430
5287.86106,0.02739
5289.78953,0.04216
5291.71800,0.05523
5293.64647,0.05652
5295.57494,0.05588
5297.50341,0.05148
5299.43188,0.04138
5301.36034,0.04951
5303.28881,0.07657
5305.21728,0.08190
5307.14575,0.06021
5309.07422,0.04520
5311.00269,0.03803
5312.93116,0.02486
5314.85962,0.01853
5316.78809,0.03330
5318.71656,0.05397
5320.64503,0.06083
5322.57350,0.05615
5324.50197,0.04871
5326.43044,0.04175
5328.35891,0.03880
5330.28737,0.04489
5332.21584,0.04712
5334.14431,0.03673
5336.07278,0.03228
5338.00125,0.04059
5339.92972,0.04703
5341.85819,0.04328
5343.78665,0.03976
5345.71512,0.05036
5347.64359,0.06154
5349.57206,0.05808
5351.50053,0.04873
5353.42900,0.04996
5355.35747,0.05676
5357.28594,0.05507
5359.21440,0.05759
5361.14287,0.07678
5363.07134,0.09568
5364.99981,0.09663
5366.92828,0.09408
5368.85675,0.09183
5370.78522,0.07327
5372.71368,0.05470
5374.64215,0.06156
5376.57062,0.08239
5378.49909,0.08946
5380.42756,0.08025
5382.35603,0.07283
5384.28450,0.07408
5386.21297,0.07020
5388.14143,0.05793
5390.06990,0.04940
5391.99837,0.04969
5393.92684,0.05711
5395.85531,0.06274
5397.78378,0.06300
5399.71225,0.06443
5401.64071,0.06276
5403.56918,0.05286
5405.49765,0.04793
5407.42612,0.05598
5409.35459,0.06451
5411.28306,0.06293
5413.21153,0.06219
5415.13999,0.07392
5417.06846,0.08978
5418.99693,0.10317
5420.92540,0.10852
5422.85387,0.10251
5424.78234,0.09596
5426.71081,0.09453
5428.63928,0.08779
5430.56774,0.07355
5432.49621,0.06876
5434.42468,0.07700
5436.35315,0.07705
5438.28162,0.06054
5440.21009,0.03641
5442.13856,0.02734
5444.06702,0.04904
5445.99549,0.07899
5447.92396,0.08958
5449.85243,0.08057
5451.78090,0.07834
5453.70937,0.09403
5455.63784,0.11102
5457.56631,0.11715
5459.49477,0.10851
5461.42324,0.09253
5463.35171,0.08109
5465.28018,0.07519
5467.20865,0.07464
5469.13712,0.07330
5471.06559,0.07071
5472.99405,0.06986
5474.92252,0.06652
5476.85099,0.07272
5478.77946,0.08870
5480.70793,0.09853
5482.63640,0.10201
5484.56487,0.09449
5486.49334,0.07794
5488.42180,0.07352
5490.35027,0.08852
5492.27874,0.11395
5494.20721,0.11737
5496.13568,0.08532
5498.06415,0.06517
5499.99262,0.07957
5501.92108,0.08993
5503.84955,0.07919
5505.77802,0.06839
5507.70649,0.06340
5509.63496,0.05944
5511.56343,0.06588
5513.49190,0.08226
5515.42037,0.09328
5517.34883,0.09254
5519.27730,0.08517
5521.20577,0.07149
5523.13424,0.05433
5525.06271,0.05107
5526.99118,0.05371
5528.91965,0.04864
5530.84811,0.04441
5532.77658,0.04075
5534.70505,0.04375
5536.63352,0.06492
5538.56199,0.09268
5540.49046,0.10736
5542.41893,0.11213
5544.34740,0.11053
5546.27586,0.08996
5548.20433,0.06158
5550.13280,0.04339
5552.06127,0.04463
5553.98974,0.06423
5555.91821,0.06966
5557.84668,0.05938
5559.77514,0.07040
5561.70361,0.08954
5563.63208,0.08563
5565.56055,0.07365
5567.48902,0.06976
5569.41749,0.06583
5571.34596,0.06156
5573.27443,0.06340
5575.20289,0.06762
5577.13136,0.06400
5579.05983,0.04867
5580.98830,0.03288
5582.91677,0.03457
5584.84524,0.05481
5586.77371,0.08466
5588.70217,0.10537
5590.63064,0.10485
5592.55911,0.10324
5594.48758,0.10643
5596.41605,0.09752
5598.34452,0.07442
5600.27299,0.05283
5602.20145,0.05113
5604.12992,0.05866
5606.05839,0.05243
5607.98686,0.03918
5609.91533,0.03817
5611.84380,0.04746
5613.77227,0.04915
5615.70074,0.05717
5617.62920,0.08872
5619.55767,0.10976
5621.48614,0.10377
5623.41461,0.09808
5625.34308,0.09095
5627.27155,0.05758
5629.20002,0.02145
5631.12848,0.02630
5633.05695,0.05150
5634.98542,0.05623
5636.91389,0.05265
5638.84236,0.06129
5640.77083,0.06856
5642.69930,0.06157
5644.62777,0.05209
5646.55623,0.06508
5648.48470,0.09213
5650.41317,0.10724
5652.34164,0.11294
5654.27011,0.09993
5656.19858,0.07221
5658.12705,0.07037
5660.05551,0.08268
5661.98398,0.07710
5663.91245,0.07609
5665.84092,0.08799
5667.76939,0.10427
5669.69786,0.12222
5671.62633,0.11812
5673.55480,0.09145
5675.48326,0.06433
5677.41173,0.04839
5679.34020,0.05191
5681.26867,0.07203
5683.19714,0.09289
5685.12561,0.09566
5687.05408,0.08200
5688.98254,0.07814
5690.91101,0.09417
5692.83948,0.11728
5694.76795,0.13624
5696.69642,0.12768
5698.62489,0.08504
5700.55336,0.05348
5702.48183,0.06178
5704.41029,0.08451
5706.33876,0.08003
5708.26723,0.05164
5710.19570,0.05341
5712.12417,0.09743
5714.05264,0.13556
5715.98111,0.14628
5717.90957,0.13619
5719.83804,0.11164
5721.76651,0.09201
5723.69498,0.08503
5725.62345,0.08776
5727.55192,0.10166
5729.48039,0.11571
5731.40886,0.11927
5733.33732,0.12905
5735.26579,0.15638
5737.19426,0.16236
5739.12273,0.12377
5741.05120,0.08339
5742.97967,0.07544
5744.90814,0.09475
5746.83660,0.12310
5748.76507,0.14887
5750.69354,0.16845
5752.62201,0.15293
5754.55048,0.09523
5756.47895,0.05387
5758.40742,0.05174
5760.33588,0.05473
5762.26435,0.03825
5764.19282,0.01074
5766.12129,0.00261
5768.04976,0.02330
5769.97823,0.06558
5771.90670,0.10965
5773.83517,0.12305
5775.76363,0.10368
5777.69210,0.07304
5779.62057,0.05566
5781.54904,0.06685
5783.47751,0.08313
5785.40598,0.07177
5787.33445,0.05963
5789.26291,0.07804
5791.19138,0.09613
5793.11985,0.09413
5795.04832,0.09252
5796.97679,0.10095
5798.90526,0.10367
5800.83373,0.10738
5802.76220,0.12153
5804.69066,0.10939
5806.61913,0.07276
5808.54760,0.05317
5810.47607,0.04672
5812.40454,0.05093
5814.33301,0.06194
5816.26148,0.06991
5818.18994,0.09340
5820.11841,0.11593
5822.04688,0.10720
5823.97535,0.09547
5825.90382,0.10279
5827.83229,0.11690
5829.76076,0.12558
5831.68923,0.13442
5833.61769,0.14378
5835.54616,0.13965
5837.47463,0.12889
5839.40310,0.11570
5841.33157,0.09731
5843.26004,0.08477
5845.18851,0.07322
5847.11697,0.05740
5849.04544,0.05690
5850.97391,0.07669
5852.90238,0.08989
5854.83085,0.08244
5856.75932,0.06595
5858.68779,0.06621
5860.61626,0.10042
5862.54472,0.13790
5864.47319,0.14503
5866.40166,0.13614
5868.33013,0.11278
5870.25860,0.08560
5872.18707,0.09571
5874.11554,0.12990
5876.04400,0.14322
5877.97247,0.13383
5879.90094,0.12122
5881.82941,0.11800
5883.75788,0.13762
5885.68635,0.16281
5887.61482,0.14717
5889.54329,0.10542
5891.47175,0.08886
5893.40022,0.08167
5895.32869,0.06494
5897.25716,0.06026
5899.18563,0.07717
5901.11410,0.10384
5903.04257,0.11494
5904.97103,0.11084
5906.89950,0.09763
5908.82797,0.05204
5910.75644,0.02108
5912.68491,0.05692
5914.61338,0.10137
5916.54185,0.09860
5918.47032,0.07012
5920.39878,0.06377
5922.32725,0.07331
5924.25572,0.05790
5926.18419,0.04043
5928.11266,0.04652
5930.04113,0.04191
5931.96960,0.02901
5933.89806,0.04875
5935.82653,0.07770
5937.75500,0.07940
5939.68347,0.08076
5941.61194,0.08576
5943.54041,0.07836
5945.46888,0.06869
5947.39734,0.04577
5949.32581,0.01461
5951.25428,0.00846
5953.18275,0.01648
5955.11122,0.03002
5957.03969,0.05861
5958.96816,0.08051
5960.89663,0.09049
5962.82509,0.10531
5964.75356,0.10349
5966.68203,0.08183
5968.61050,0.07005
5970.53897,0.06948
5972.46744,0.07112
5974.39591,0.07527
5976.32437,0.08287
5978.25284,0.09217
5980.18131,0.09650
5982.10978,0.09647
5984.03825,0.10032
5985.96672,0.11464
5987.89519,0.12048
5989.82366,0.09827
5991.75212,0.07287
5993.68059,0.06349
5995.60906,0.06183
5997.53753,0.06608
5999.46600,0.07522
6001.39447,0.08210
6003.32294,0.07734
6005.25140,0.04757
6007.17987,0.01489
6009.10834,0.02389
6011.03681,0.04659
6012.96528,0.05381
6014.89375,0.07403
6016.82222,0.09753
6018.75069,0.09833
6020.67915,0.08118
6022.60762,0.06221
6024.53609,0.05794
6026.46456,0.06521
6028.39303,0.06112
6030.32150,0.03024
6032.24997,0.00245
6034.17843,0.01183
6036.10690,0.05536
6038.03537,0.09939
6039.96384,0.10429
6041.89231,0.07652
6043.82078,0.06802
6045.74925,0.10180
6047.67772,0.13712
6049.60618,0.13484
6051.53465,0.11126
6053.46312,0.09948
6055.39159,0.10121
6057.32006,0.11459
6059.24853,0.12827
6061.17700,0.11140
6063.10546,0.07666
6065.03393,0.05134
6066.96240,0.03481
6068.89087,0.02198
6070.81934,0.03425
6072.74781,0.08669
6074.67628,0.11672
6076.60475,0.09493
6078.53321,0.08290
6080.46168,0.10839
6082.39015,0.13053
6084.31862,0.10538
6086.24709,0.06206
6088.17556,0.06058
6090.10403,0.08699
6092.03249,0.09643
6093.96096,0.07400
6095.88943,0.04011
6097.81790,0.01742
6099.74637,0.00030
6101.67484,-0.01014
6103.60331,0.00278
6105.53177,0.04241
6107.46024,0.09598
6109.38871,0.13060
6111.31718,0.11886
6113.24565,0.08932
6115.17412,0.08912
6117.10259,0.11308
6119.03106,0.13155
6120.95952,0.12836
6122.88799,0.10684
6124.81646,0.10187
6126.74493,0.12675
6128.67340,0.15503
6130.60187,0.17305
6132.53034,0.15674
6134.45880,0.10442
6136.38727,0.07602
6138.31574,0.09550
6140.24421,0.13007
6142.17268,0.15696
6144.10115,0.16333
6146.02962,0.14709
6147.95809,0.12062
6149.88655,0.09417
6151.81502,0.07430
6153.74349,0.06357
6155.67196,0.07491
6157.60043,0.12212
6159.52890,0.15385
6161.45737,0.10774
6163.38583,0.04457
6165.31430,0.03930
6167.24277,0.07072
6169.17124,0.10513
6171.09971,0.13490
6173.02818,0.14555
6174.95665,0.11901
6176.88512,0.10033
6178.81358,0.13820
6180.74205,0.17587
6182.67052,0.15118
6184.59899,0.09999
6186.52746,0.09697
6188.45593,0.13350
6190.38440,0.12778
6192.31286,0.08821
6194.24133,0.05523
6196.16980,0.03445
6198.09827,0.03331
6200.02674,0.04859
6201.95521,0.07695
6203.88368,0.10393
6205.81215,0.11514
6207.74061,0.12976
6209.66908,0.13816
6211.59755,0.12995
6213.52602,0.13751
6215.45449,0.13404
6217.38296,0.09007
6219.31143,0.07382
6221.23989,0.11283
6223.16836,0.14894
6225.09683,0.15975
6227.02530,0.13910
6228.95377,0.09225
6230.88224,0.09461
6232.81071,0.11554
6234.73918,0.06249
6236.66764,0.01773
6238.59611,0.05606
6240.52458,0.12481
6242.45305,0.13735
6244.38152,0.08970
6246.30999,0.07532
6248.23846,0.10631
6250.16692,0.09960
6252.09539,0.07261
6254.02386,0.07789
6255.95233,0.06104
6257.88080,0.02841
6259.80927,0.03291
6261.73774,0.05192
6263.66621,0.08417
6265.59467,0.11461
6267.52314,0.09147
6269.45161,0.04514
6271.38008,0.03302
6273.30855,0.06502
6275.23702,0.09221
6277.16549,0.09230
6279.09395,0.10865
6281.02242,0.13771
6282.95089,0.14105
6284.87936,0.09961
6286.80783,0.03944
6288.73630,0.01657
6290.66477,0.03454
6292.59323,0.03391
6294.52170,-0.00942
6296.45017,-0.06007
6298.37864,-0.06165
6300.30711,-0.00916
6302.23558,0.03752
6304.16405,0.07490
6306.09252,0.13086
6308.02098,0.16561
6309.94945,0.15577
6311.87792,0.11490
6313.80639,0.08030
6315.73486,0.09823
6317.66333,0.13390
6319.59180,0.12780
6321.52026,0.11881
6323.44873,0.13458
6325.37720,0.13556
6327.30567,0.11921
6329.23414,0.10164
6331.16261,0.12347
6333.09108,0.16755
6335.01955,0.16581
6336.94801,0.15557
6338.87648,0.15548
6340.80495,0.12454
6342.73342,0.06934
6344.66189,0.02774
6346.59036,0.02393
6348.51883,0.03044
6350.44729,0.03084
6352.37576,0.04532
6354.30423,0.07387
6356.23270,0.10859
6358.16117,0.11771
6360.08964,0.08577
6362.01811,0.07367
6363.94658,0.10096
6365.87504,0.11179
6367.80351,0.08946
6369.73198,0.07521
6371.66045,0.09661
6373.58892,0.11932
6375.51739,0.10115
6377.44586,0.07202
6379.37432,0.07942
6381.30279,0.11554
6383.23126,0.13682
6385.15973,0.11688
6387.08820,0.07101
6389.01667,0.05021
6390.94514,0.08694
6392.87361,0.13214
6394.80207,0.12641
6396.73054,0.11228
6398.65901,0.12309
6400.58748,0.11745
6402.51595,0.09489
6404.44442,0.08771
6406.37289,0.06474
6408.30135,0.01482
6410.22982,-0.02984
6412.15829,-0.04505
6414.08676,-0.00205
6416.01523,0.04577
6417.94370,0.00819
6419.87217,-0.07313
6421.80064,-0.08674
6423.72910,-0.02495
6425.65757,0.02946
6427.58604,0.03254
6429.51451,0.03806
6431.44298,0.05987
6433.37145,0.06840
6435.29992,0.07516
6437.22838,0.08587
6439.15685,0.05870
6441.08532,0.00701
6443.01379,0.02543
6444.94226,0.10286
6446.87073,0.11830
6448.79920,0.07614
6450.72766,0.05267
6452.65613,0.06299
6454.58460,0.07884
6456.51307,0.08488
6458.44154,0.08257
6460.37001,0.06132
6462.29848,0.01345
6464.22695,-0.00533
6466.15541,0.04355
6468.08388,0.09819
6470.01235,0.10665
6471.94082,0.11366
6473.86929,0.15250
6475.79776,0.19354
6477.72623,0.19802
6479.65469,0.15178
6481.58316,0.08779
6483.51163,0.04693
6485.44010,0.02585
6487.36857,0.00377
6489.29704,-0.00323
6491.22551,0.03924
6493.15398,0.07923
6495.08244,0.05992
6497.01091,0.03832
6498.93938,0.06836
6500.86785,0.13551
6502.79632,0.14612
6504.72479,0.07203
6506.65326,0.00823
6508.58172,0.01822
6510.51019,0.08368
6512.43866,0.12963
6514.36713,0.11469
6516.29560,0.08328
6518.22407,0.06707
6520.15254,0.05661
6522.08101,0.04693
6524.00947,0.03878
6525.93794,0.00540
6527.86641,-0.04299
6529.79488,-0.04228
6531.72335,0.00426
6533.65182,0.05493
6535.58029,0.08068
6537.50875,0.07169
6539.43722,0.07319
6541.36569,0.10275
6543.29416,0.11820
6545.22263,0.10849
6547.15110,0.11304
6549.07957,0.14134
6551.00804,0.12367
6552.93650,0.02429
6554.86497,-0.06919
6556.79344,-0.09115
6558.72191,-0.05984
6560.65038,-0.01836
6562.57885,0.00305
6564.50732,0.01666
6566.43578,0.02127
6568.36425,0.03405
6570.29272,0.07260
6572.22119,0.08101
6574.14966,0.04619
6576.07813,-0.00177
6578.00660,-0.02357
6579.93507,0.01462
6581.86353,0.05244
6583.79200,0.05522
6585.72047,0.08768
6587.64894,0.15083
6589.57741,0.17563
6591.50588,0.12655
6593.43435,0.03538
6595.36281,-0.00311
6597.29128,0.01761
6599.21975,0.03107
6601.14822,0.05232
6603.07669,0.11321
6605.00516,0.14150
6606.93363,0.09423
6608.86210,0.05294
6610.79056,0.04944
6612.71903,0.05477
6614.64750,0.09947
6616.57597,0.12307
6618.50444,0.05680
6620.43291,0.05179
6622.36138,0.14229
6624.28984,0.16782
6626.21831,0.13863
6628.14678,0.11788
6630.07525,0.05724
6632.00372,0.00037
6633.93219,0.01435
6635.86066,0.05618
6637.78912,0.09069
6639.71759,0.12849
6641.64606,0.09647
6643.57453,-0.00241
6645.50300,-0.02216
6647.43147,0.03733
6649.35994,0.06609
6651.28841,0.04799
6653.21687,0.02762
6655.14534,0.02091
6657.07381,-0.01177
6659.00228,-0.03554
6660.93075,-0.00256
6662.85922,0.03134
6664.78769,0.03677
6666.71615,0.03283
6668.64462,0.04098
6670.57309,0.07623
6672.50156,0.14246
6674.43003,0.21442
6676.35850,0.22500
6678.28697,0.16535
6680.21544,0.12330
6682.14390,0.10277
6684.07237,0.06739
6686.00084,0.07607
6687.92931,0.10999
6689.85778,0.09917
6691.78625,0.07353
6693.71472,0.04822
6695.64318,0.04188
6697.57165,0.07888
6699.50012,0.10873
6701.42859,0.09801
6703.35706,0.04564
6705.28553,-0.02822
6707.21400,-0.01836
6709.14247,0.08516
6711.07093,0.13642
6712.99940,0.10421
6714.92787,0.06887
6716.85634,0.09522
6718.78481,0.14243
6720.71328,0.10960
6722.64175,0.02281
6724.57021,0.00272
6726.49868,0.06380
6728.42715,0.14624
6730.35562,0.18899
6732.28409,0.15059
6734.21256,0.08833
6736.14103,0.06240
6738.06950,0.04866
6739.99796,0.05019
6741.92643,0.08011
6743.85490,0.08642
6745.78337,0.05717
6747.71184,0.05888
6749.64031,0.11202
6751.56878,0.12147
6753.49724,0.07191
6755.42571,0.06697
6757.35418,0.08359
6759.28265,0.02859
6761.21112,-0.04429
6763.13959,-0.05823
6765.06806,-0.03019
6766.99653,0.02985
6768.92499,0.03726
6770.85346,-0.06579
6772.78193,-0.12092
6774.71040,-0.00522
6776.63887,0.11960
6778.56734,0.10403
6780.49581,0.03550
6782.42427,-0.01635
6784.35274,-0.01030
6786.28121,0.04975
6788.20968,0.06923
6790.13815,0.05658
6792.06662,0.09445
6793.99509,0.11340
6795.92355,0.07769
6797.85202,0.05898
6799.78049,0.01903
6801.70896,-0.08246
6803.63743,-0.10649
6805.56590,0.01291
6807.49437,0.11375
6809.42284,0.11025
6811.35130,0.09211
6813.27977,0.14110
6815.20824,0.19463
6817.13671,0.19512
6819.06518,0.15743
6820.99365,0.09728
6822.92212,0.02342
6824.85058,-0.03227
6826.77905,-0.06150
6828.70752,-0.06255
6830.63599,-0.01758
6832.56446,0.04868
6834.49293,0.10290
6836.42140,0.09893
6838.34987,0.00709
6840.27833,-0.10734
6842.20680,-0.12902
6844.13527,-0.04570
6846.06374,0.02044
6847.99221,0.04911
6849.92068,0.05771
6851.84915,-0.00623
6853.77761,-0.04601
6855.70608,0.02850
6857.63455,0.11166
6859.56302,0.13377
6861.49149,0.13665
6863.41996,0.14651
6865.34843,0.16896
6867.27690,0.17996
6869.20536,0.13774
6871.13383,0.04939
6873.06230,0.00197
6874.99077,0.02527
6876.91924,0.02932
6878.84771,0.00443
6880.77618,-0.00138
6882.70464,0.00513
6884.63311,-0.00244
6886.56158,-0.02951
6888.49005,-0.06463
6890.41852,-0.06393
6892.34699,-0.00218
6894.27546,0.05758
6896.20393,0.09842
6898.13239,0.15500
6900.06086,0.18198
6901.98933,0.16364
6903.91780,0.16155
6905.84627,0.14135
6907.77474,0.05041
6909.70321,-0.02869
6911.63167,-0.03663
6913.56014,0.04500
6915.48861,0.16918
6917.41708,0.24115
6919.34555,0.21559
6921.27402,0.12460
6923.20249,0.05191
6925.13096,0.02299
6927.05942,0.01385
6928.98789,0.02895
6930.91636,0.06913
6932.84483,0.04781
6934.77330,-0.03365
6936.70177,-0.04206
6938.63024,0.06643
6940.55870,0.18146
6942.48717,0.16550
6944.41564,0.11830
6946.34411,0.14638
6948.27258,0.15042
6950.20105,0.05381
6952.12952,-0.02476
6954.05799,-0.00764
6955.98645,0.03148
6957.91492,0.00467
6959.84339,-0.03682
6961.77186,-0.01506
6963.70033,0.03425
6965.62880,0.06553
6967.55727,0.07474
6969.48573,0.05235
6971.41420,0.04935
6973.34267,0.10000
6975.27114,0.07614
6977.19961,-0.05973
6979.12808,-0.15216
6981.05655,-0.11524
6982.98501,-0.00195
6984.91348,0.03768
6986.84195,-0.03883
6988.77042,-0.13954
6990.69889,-0.15264
6992.62736,-0.06449
6994.55583,0.02446
6996.48430,0.06391
6998.41276,0.05676
7000.34123,0.02756
7002.26970,0.02784
7004.19817,0.04329
7006.12664,0.06210
7008.05511,0.06504
7009.98358,0.01415
7011.91204,-0.00975
7013.84051,0.04104
7015.76898,0.04459
7017.69745,-0.00511
7019.62592,0.01948
7021.55439,0.14804
7023.48286,0.27762
7025.41133,0.29674
7027.33979,0.21432
7029.26826,0.08542
7031.19673,0.01326
7033.12520,0.03867
7035.05367,0.10899
7036.98214,0.16912
7038.91061,0.19078
7040.83907,0.17171
7042.76754,0.12736
7044.69601,0.11477
7046.62448,0.12972
7048.55295,0.09970
7050.48142,0.02594
7052.40989,-0.02712
7054.33836,-0.00727
7056.26682,0.06569
7058.19529,0.08620
7060.12376,0.00040
7062.05223,-0.10869
7063.98070,-0.15298
7065.90917,-0.14707
7067.83764,-0.12022
7069.76610,-0.09223
7071.69457,-0.12840
7073.62304,-0.11190
7075.55151,-0.03142
7077.47998,-0.00369
7079.40845,0.00031
7081.33692,-0.00496
7083.26539,-0.01540
7085.19385,0.02192
7087.12232,0.04151
7089.05079,0.01410
7090.97926,0.00720
7092.90773,0.02204
7094.83620,0.06691
7096.76467,0.10534
7098.69313,0.04490
7100.62160,-0.03394
7102.55007,-0.00885
7104.47854,0.10322
7106.40701,0.18597
7108.33548,0.15821
7110.26395,0.09652
7112.19242,0.03974
7114.12088,0.01243
7116.04935,0.08155
7117.97782,0.12308
7119.90629,-0.01472
7121.83476,-0.09598
7123.76323,-0.03019
7125.69170,0.05503
7127.62016,0.10906
7129.54863,0.12140
7131.47710,0.08468
7133.40557,0.05849
7135.33404,0.07013
7137.26251,0.05714
7139.19098,0.01449
7141.11944,0.00290
7143.04791,0.03523
7144.97638,0.07695
7146.90485,0.05583
7148.83332,-0.04561
7150.76179,-0.14126
7152.69026,-0.13304
7154.61873,-0.01798
7156.54719,0.12635
7158.47566,0.25036
7160.40413,0.32823
7162.33260,0.35066
7164.26107,0.26993
7166.18954,0.10007
7168.11801,0.01357
7170.04647,0.02702
7171.97494,0.03406
7173.90341,0.07396
7175.83188,0.13140
7177.76035,0.10596
7179.68882,0.05529
7181.61729,0.09182
7183.54576,0.15294
7185.47422,0.09853
7187.40269,0.03146
7189.33116,0.04322
7191.25963,0.12558
7193.18810,0.21389
7195.11657,0.19176
7197.04504,0.08421
7198.97350,0.01301
7200.90197,0.04803
7202.83044,0.18427
7204.75891,0.27433
7206.68738,0.20432
7208.61585,0.13509
7210.54432,0.11754
7212.47279,0.11357
7214.40125,0.09067
7216.32972,0.03166
7218.25819,-0.00642
7220.18666,0.01387
7222.11513,0.00531
7224.04360,-0.01429
7225.97207,-0.00074
7227.90053,-0.00822
7229.82900,-0.02111
7231.75747,0.00054
7233.68594,0.02785
7235.61441,0.05441
7237.54288,0.00975
7239.47135,-0.10841
7241.39982,-0.20720
7243.32828,-0.18752
7245.25675,-0.05554
7247.18522,-0.01456
7249.11369,-0.05010
7251.04216,0.00189
7252.97063,0.16068
7254.89910,0.26119
7256.82756,0.27461
7258.75603,0.25237
7260.68450,0.19470
7262.61297,0.12815
7264.54144,0.05602
7266.46991,0.03829
7268.39838,0.10820
7270.32685,0.12737
7272.25531,0.04789
7274.18378,0.06003
7276.11225,0.17331
7278.04072,0.19828
7279.96919,-0.00797
7281.89766,-0.19197
7283.82613,-0.21919
7285.75459,-0.26489
7287.68306,-0.28353
7289.61153,-0.17659
7291.54000,-0.03388
7293.46847,0.03261
7295.39694,0.07435
7297.32541,0.11721
7299.25387,0.13812
7301.18234,0.16352
7303.11081,0.21782
7305.03928,0.22354
7306.96775,0.15307
7308.89622,0.13271
7310.82469,0.13269
7312.75316,0.15536
7314.68162,0.25008
7316.61009,0.20211
7318.53856,-0.03512
7320.46703,-0.14266
7322.39550,-0.10013
7324.32397,-0.11443
7326.25244,-0.22336
7328.18090,-0.25284
7330.10937,-0.14625
7332.03784,-0.08087
7333.96631,-0.03377
7335.89478,0.04640
7337.82325,0.09197
7339.75172,0.03984
7341.68019,-0.01248
7343.60865,0.05296
7345.53712,0.12928
7347.46559,0.11420
7349.39406,0.09491
7351.32253,0.10566
7353.25100,0.05658
7355.17947,0.02621
7357.10793,0.07196
7359.03640,0.08809
7360.96487,0.10584
7362.89334,0.17372
7364.82181,0.18747
7366.75028,0.11072
7368.67875,0.00964
7370.60722,-0.02843
7372.53568,0.03231
7374.46415,0.16122
7376.39262,0.15004
7378.32109,0.09955
7380.24956,0.19373
7382.17803,0.22152
7384.10650,0.11543
7386.03496,0.07665
7387.96343,0.05084
7389.89190,0.01980
7391.82037,0.07109
7393.74884,0.14129
7395.67731,0.13372
7397.60578,0.02923
7399.53425,-0.07389
7401.46271,-0.09828
7403.39118,-0.05556
7405.31965,-0.01950
7407.24812,-0.01406
7409.17659,0.04128
7411.10506,0.07687
7413.03353,0.02588
7414.96199,-0.00615
7416.89046,0.05475
7418.81893,0.14794
7420.74740,0.13178
7422.67587,0.08097
7424.60434,0.05118
7426.53281,-0.02387
7428.46128,-0.06940
7430.38974,0.02216
7432.31821,0.05179
7434.24668,-0.07895
7436.17515,-0.20616
7438.10362,-0.22247
7440.03209,-0.08683
7441.96056,0.16538
7443.88902,0.33982
7445.81749,0.37053
7447.74596,0.36246
7449.67443,0.29998
7451.60290,0.19773
7453.53137,0.14007
7455.45984,0.07306
7457.38831,-0.02641
7459.31677,-0.09643
7461.24524,-0.01496
7463.17371,0.16502
7465.10218,0.30452
7467.03065,0.35321
7468.95912,0.33782
7470.88759,0.24850
7472.81605,0.05395
7474.74452,-0.09982
7476.67299,-0.13107
7478.60146,-0.10966
7480.52993,-0.02558
7482.45840,0.11050
7484.38687,0.18552
7486.31533,0.15465
7488.24380,0.08104
7490.17227,0.07122
7492.10074,0.05314
7494.02921,0.00298
7495.95768,-0.01657
7497.88615,-0.00436
