399.19301,1.00904
401.12148,0.75754
403.04995,0.41117
404.97842,0.32082
406.90689,0.33527
408.83536,0.32415
410.76382,0.17885
412.69229,-0.00710
414.62076,-0.08791
416.54923,-0.10308
418.47770,-0.09530
420.40617,-0.10501
422.33464,-0.19185
424.26311,-0.23523
426.19157,-0.13569
428.12004,-0.01928
430.04851,-0.01071
431.97698,-0.06735
433.90545,-0.04320
435.83392,0.05710
437.76239,0.13160
439.69085,0.12880
441.61932,0.10994
443.54779,0.15053
445.47626,0.18258
447.40473,0.14758
449.33320,0.09323
451.26167,0.07801
453.19013,0.10068
455.11860,0.11770
457.04707,0.11943
458.97554,0.12849
460.90401,0.15065
462.83248,0.16858
464.76095,0.14396
466.68942,0.09935
468.61788,0.07294
470.54635,0.05113
472.47482,-0.00652
474.40329,-0.09943
476.33176,-0.08615
478.26023,-0.02027
480.18870,0.03280
482.11716,0.08559
484.04563,0.13403
485.97410,0.15915
487.90257,0.15530
489.83104,0.14490
491.75951,0.16729
493.68798,0.20638
495.61645,0.21542
497.54491,0.18741
499.47338,0.15474
501.40185,0.13239
503.33032,0.11364
505.25879,0.11555
507.18726,0.12105
509.11573,0.08298
511.04419,0.04466
512.97266,0.05235
514.90113,0.07226
516.82960,0.04947
518.75807,0.00603
520.68654,0.01244
522.61501,0.04949
524.54348,0.07633
526.47194,0.09845
528.40041,0.10540
530.32888,0.08970
532.25735,0.08432
534.18582,0.11747
536.11429,0.15934
538.04276,0.17057
539.97122,0.16612
541.89969,0.16215
543.82816,0.15938
545.75663,0.15459
547.68510,0.14741
549.61357,0.14534
551.54204,0.16405
553.47051,0.19729
555.39897,0.18994
557.32744,0.13738
559.25591,0.10165
561.18438,0.09242
563.11285,0.08295
565.04132,0.07134
566.96979,0.07090
568.89825,0.08626
570.82672,0.10245
572.75519,0.10112
574.68366,0.08930
576.61213,0.09561
578.54060,0.12113
580.46907,0.13335
582.39754,0.12112
584.32600,0.10125
586.25447,0.08259
588.18294,0.07820
590.11141,0.09275
592.03988,0.10377
593.96835,0.10454
595.89682,0.11408
597.82528,0.13003
599.75375,0.13111
601.68222,0.11193
603.61069,0.09689
605.53916,0.09221
607.46763,0.07316
609.39610,0.05178
611.32456,0.05243
613.25303,0.06401
615.18150,0.06944
617.10997,0.07025
619.03844,0.07524
620.96691,0.09054
622.89538,0.11713
624.82385,0.14172
626.75231,0.15217
628.68078,0.14880
630.60925,0.13958
632.53772,0.13325
634.46619,0.12710
636.39466,0.12024
638.32313,0.11930
640.25159,0.12250
642.18006,0.11268
644.10853,0.09462
646.03700,0.10032
647.96547,0.11502
649.89394,0.10610
651.82241,0.09236
653.75088,0.08986
655.67934,0.09288
657.60781,0.09785
659.53628,0.09699
661.46475,0.08518
663.39322,0.07881
665.32169,0.09054
667.25016,0.10746
669.17862,0.11257
671.10709,0.11172
673.03556,0.10915
674.96403,0.10439
676.89250,0.10525
678.82097,0.12095
680.74944,0.13999
682.67791,0.14154
684.60637,0.13112
686.53484,0.11995
688.46331,0.10442
690.39178,0.09502
692.32025,0.10170
694.24872,0.10586
696.17719,0.09830
698.10565,0.09217
700.03412,0.09323
701.96259,0.10065
703.89106,0.10939
705.81953,0.11406
707.74800,0.11849
709.67647,0.11920
711.60494,0.11672
713.53340,0.12511
715.46187,0.13504
717.39034,0.13411
719.31881,0.14226
721.24728,0.16052
723.17575,0.16169
725.10422,0.14642
727.03268,0.13136
728.96115,0.12358
730.88962,0.12242
732.81809,0.12298
734.74656,0.12197
736.67503,0.12000
738.60350,0.11921
740.53197,0.11612
742.46043,0.11005
744.38890,0.10612
746.31737,0.10501
748.24584,0.10956
750.17431,0.12056
752.10278,0.12877
754.03125,0.12659
755.95971,0.12013
757.88818,0.12177
759.81665,0.13022
761.74512,0.13685
763.67359,0.13864
765.60206,0.13812
767.53053,0.13792
769.45900,0.13552
771.38746,0.13134
773.31593,0.12675
775.24440,0.12321
777.17287,0.12524
779.10134,0.13051
781.02981,0.13164
782.95828,0.12441
784.88674,0.11650
786.81521,0.11574
788.74368,0.11555
790.67215,0.11364
792.60062,0.11477
794.52909,0.11561
796.45756,0.11575
798.38602,0.12294
800.31449,0.13166
802.24296,0.13482
804.17143,0.13854
806.09990,0.13750
808.02837,0.12578
809.95684,0.12012
811.88531,0.12778
813.81377,0.13329
815.74224,0.13113
817.67071,0.12924
819.59918,0.12475
821.52765,0.11155
823.45612,0.10165
825.38459,0.10398
827.31305,0.11094
829.24152,0.11379
831.16999,0.10929
833.09846,0.10846
835.02693,0.11831
836.95540,0.13329
838.88387,0.14766
840.81234,0.15116
842.74080,0.14423
844.66927,0.13996
846.59774,0.14628
848.52621,0.15521
850.45468,0.15539
852.38315,0.15318
854.31162,0.15393
856.24008,0.15156
858.16855,0.14653
860.09702,0.14459
862.02549,0.14739
863.95396,0.15117
865.88243,0.15084
867.81090,0.14691
869.73937,0.13983
871.66783,0.12787
873.59630,0.11487
875.52477,0.10845
877.45324,0.11371
879.38171,0.12418
881.31018,0.12886
883.23865,0.12588
885.16711,0.12228
887.09558,0.12735
889.02405,0.13660
890.95252,0.14171
892.88099,0.14801
894.80946,0.15491
896.73793,0.15400
898.66640,0.15053
900.59486,0.15043
902.52333,0.14793
904.45180,0.14044
906.38027,0.13091
908.30874,0.12284
910.23721,0.11787
912.16568,0.11856
914.09414,0.12871
916.02261,0.13805
917.95108,0.13458
919.87955,0.12634
921.80802,0.12381
923.73649,0.12409
925.66496,0.12302
927.59343,0.12419
929.52189,0.13177
931.45036,0.14221
933.37883,0.14852
935.30730,0.14845
937.23577,0.14392
939.16424,0.14054
941.09271,0.14330
943.02117,0.15025
944.94964,0.15600
946.87811,0.15167
948.80658,0.13779
950.73505,0.12901
952.66352,0.12822
954.59199,0.12874
956.52045,0.13046
958.44892,0.13222
960.37739,0.12993
962.30586,0.12591
964.23433,0.12585
966.16280,0.12947
968.09127,0.13425
970.01974,0.13812
971.94820,0.14002
973.87667,0.14435
975.80514,0.15148
977.73361,0.15621
979.66208,0.15484
981.59055,0.14698
983.51902,0.13859
985.44748,0.13526
987.37595,0.13883
989.30442,0.14488
991.23289,0.14505
993.16136,0.14371
995.08983,0.14808
997.01830,0.15022
998.94677,0.14420
1000.87523,0.13746
1002.80370,0.13642
1004.73217,0.13998
1006.66064,0.14283
1008.58911,0.14061
1010.51758,0.13687
1012.44605,0.13817
1014.37451,0.14355
1016.30298,0.14622
1018.23145,0.14438
1020.15992,0.14292
1022.08839,0.14307
1024.01686,0.14097
1025.94533,0.13860
1027.87380,0.13949
1029.80226,0.14132
1031.73073,0.14532
1033.65920,0.15153
1035.58767,0.15314
1037.51614,0.14907
1039.44461,0.14217
1041.37308,0.13646
1043.30154,0.13687
1045.23001,0.13845
1047.15848,0.13543
1049.08695,0.13500
1051.01542,0.14446
1052.94389,0.15524
1054.87236,0.15617
1056.80083,0.15342
1058.72929,0.15367
1060.65776,0.15140
1062.58623,0.14661
1064.51470,0.14895
1066.44317,0.15872
1068.37164,0.16425
1070.30011,0.16522
1072.22857,0.16652
1074.15704,0.16408
1076.08551,0.16309
1078.01398,0.17196
1079.94245,0.18272
1081.87092,0.18683
1083.79939,0.18631
1085.72786,0.18254
1087.65632,0.17528
1089.58479,0.16429
1091.51326,0.14958
1093.44173,0.13880
1095.37020,0.13826
1097.29867,0.14246
1099.22714,0.14756
1101.15560,0.15470
1103.08407,0.15901
1105.01254,0.15975
1106.94101,0.15927
1108.86948,0.15546
1110.79795,0.15688
1112.72642,0.16632
1114.65489,0.16681
1116.58335,0.15753
1118.51182,0.15352
1120.44029,0.15572
1122.36876,0.15982
1124.29723,0.16648
1126.22570,0.17227
1128.15417,0.17162
1130.08263,0.16773
1132.01110,0.16480
1133.93957,0.15918
1135.86804,0.15012
1137.79651,0.14518
1139.72498,0.14897
1141.65345,0.15280
1143.58191,0.15060
1145.51038,0.14936
1147.43885,0.15140
1149.36732,0.15474
1151.29579,0.15897
1153.22426,0.16075
1155.15273,0.16089
1157.08120,0.16379
1159.00966,0.16869
1160.93813,0.17290
1162.86660,0.17603
1164.79507,0.17593
1166.72354,0.17151
1168.65201,0.16777
1170.58048,0.16776
1172.50894,0.16788
1174.43741,0.16492
1176.36588,0.15918
1178.29435,0.15490
1180.22282,0.15502
1182.15129,0.15570
1184.07976,0.15513
1186.00823,0.15490
1187.93669,0.15487
1189.86516,0.15404
1191.79363,0.15114
1193.72210,0.14991
1195.65057,0.15567
1197.57904,0.16590
1199.50751,0.17188
1201.43597,0.16841
1203.36444,0.16294
1205.29291,0.16393
1207.22138,0.16732
1209.14985,0.16787
1211.07832,0.16701
1213.00679,0.16522
1214.93526,0.16325
1216.86372,0.16396
1218.79219,0.16646
1220.72066,0.16815
1222.64913,0.16678
1224.57760,0.16279
1226.50607,0.16060
1228.43454,0.16081
1230.36300,0.16069
1232.29147,0.15858
1234.21994,0.15558
1236.14841,0.15629
1238.07688,0.16075
1240.00535,0.16334
1241.93382,0.16389
1243.86229,0.16540
1245.79075,0.16458
1247.71922,0.16241
1249.64769,0.16422
1251.57616,0.16706
1253.50463,0.16897
1255.43310,0.17069
1257.36157,0.16859
1259.29003,0.16433
1261.21850,0.16357
1263.14697,0.16528
1265.07544,0.16636
1267.00391,0.16665
1268.93238,0.16859
1270.86085,0.17268
1272.78932,0.17270
1274.71778,0.16851
1276.64625,0.16836
1278.57472,0.16998
1280.50319,0.16631
1282.43166,0.16289
1284.36013,0.16574
1286.28860,0.16982
1288.21706,0.17058
1290.14553,0.17036
1292.07400,0.17254
1294.00247,0.17614
1295.93094,0.17818
1297.85941,0.17597
1299.78788,0.16941
1301.71634,0.16222
1303.64481,0.15531
1305.57328,0.15299
1307.50175,0.16064
1309.43022,0.16898
1311.35869,0.17045
1313.28716,0.17015
1315.21563,0.17002
1317.14409,0.16982
1319.07256,0.17168
1321.00103,0.17340
1322.92950,0.17264
1324.85797,0.16972
1326.78644,0.16587
1328.71491,0.16427
1330.64337,0.16480
1332.57184,0.16731
1334.50031,0.17225
1336.42878,0.17528
1338.35725,0.17510
1340.28572,0.17282
1342.21419,0.17039
1344.14266,0.17129
1346.07112,0.17342
1347.99959,0.17380
1349.92806,0.17271
1351.85653,0.17171
1353.78500,0.17232
1355.71347,0.17311
1357.64194,0.17114
1359.57040,0.16847
1361.49887,0.17123
1363.42734,0.17568
1365.35581,0.17426
1367.28428,0.17195
1369.21275,0.16982
1371.14122,0.16700
1373.06969,0.16990
1374.99815,0.17702
1376.92662,0.17822
1378.85509,0.17648
1380.78356,0.17738
1382.71203,0.17819
1384.64050,0.17852
1386.56897,0.18268
1388.49743,0.18708
1390.42590,0.18668
1392.35437,0.18729
1394.28284,0.19280
1396.21131,0.19691
1398.13978,0.19321
1400.06825,0.18440
1401.99672,0.17731
1403.92518,0.17545
1405.85365,0.17746
1407.78212,0.17976
1409.71059,0.18076
1411.63906,0.18009
1413.56753,0.17816
1415.49600,0.17796
1417.42446,0.18307
1419.35293,0.18972
1421.28140,0.18836
1423.20987,0.18196
1425.13834,0.17730
1427.06681,0.17884
1428.99528,0.18371
1430.92375,0.18497
1432.85221,0.18350
1434.78068,0.18560
1436.70915,0.19073
1438.63762,0.19091
1440.56609,0.18667
1442.49456,0.18373
1444.42303,0.18420
1446.35149,0.18514
1448.27996,0.18257
1450.20843,0.17957
1452.13690,0.18201
1454.06537,0.19162
1455.99384,0.20907
1457.92231,0.21513
1459.85077,0.19943
1461.77924,0.18977
1463.70771,0.18885
1465.63618,0.18877
1467.56465,0.18643
1469.49312,0.18851
1471.42159,0.19921
1473.35006,0.21075
1475.27852,0.20922
1477.20699,0.20203
1479.13546,0.19738
1481.06393,0.19429
1482.99240,0.19117
1484.92087,0.19326
1486.84934,0.20108
1488.77780,0.20444
1490.70627,0.19818
1492.63474,0.19262
1494.56321,0.19283
1496.49168,0.19627
1498.42015,0.19523
1500.34862,0.19079
1502.27709,0.19126
1504.20555,0.20095
1506.13402,0.22258
1508.06249,0.23067
1509.99096,0.21555
1511.91943,0.20456
1513.84790,0.20398
1515.77637,0.21055
1517.70483,0.21610
1519.63330,0.22117
1521.56177,0.22377
1523.49024,0.21568
1525.41871,0.20991
1527.34718,0.20711
1529.27565,0.20271
1531.20412,0.20366
1533.13258,0.20912
1535.06105,0.20830
1536.98952,0.20805
1538.91799,0.21881
1540.84646,0.22737
1542.77493,0.21510
1544.70340,0.20093
1546.63186,0.19239
1548.56033,0.19103
1550.48880,0.19238
1552.41727,0.19334
1554.34574,0.19888
1556.27421,0.21404
1558.20268,0.23715
1560.13115,0.23010
1562.05961,0.20998
1563.98808,0.20219
1565.91655,0.20334
1567.84502,0.20995
1569.77349,0.21192
1571.70196,0.20501
1573.63043,0.20175
1575.55889,0.20513
1577.48736,0.20545
1579.41583,0.19981
1581.34430,0.19396
1583.27277,0.18905
1585.20124,0.18740
1587.12971,0.18798
1589.05818,0.18676
1590.98664,0.18643
1592.91511,0.18965
1594.84358,0.19183
1596.77205,0.19061
1598.70052,0.18877
1600.62899,0.18713
1602.55746,0.18506
1604.48592,0.18270
1606.41439,0.18262
1608.34286,0.18805
1610.27133,0.19497
1612.19980,0.19694
1614.12827,0.19671
1616.05674,0.20093
1617.98521,0.20459
1619.91367,0.20280
1621.84214,0.20273
1623.77061,0.20375
1625.69908,0.20289
1627.62755,0.19985
1629.55602,0.19425
1631.48449,0.19210
1633.41295,0.19719
1635.34142,0.20632
1637.26989,0.20723
1639.19836,0.20177
1641.12683,0.19850
1643.05530,0.20037
1644.98377,0.20930
1646.91223,0.22141
1648.84070,0.22411
1650.76917,0.22664
1652.69764,0.23476
1654.62611,0.22206
1656.55458,0.20497
1658.48305,0.20058
1660.41152,0.20455
1662.33998,0.20968
1664.26845,0.20958
1666.19692,0.20811
1668.12539,0.21038
1670.05386,0.21272
1671.98233,0.21143
1673.91080,0.21019
1675.83926,0.20500
1677.76773,0.19922
1679.69620,0.20075
1681.62467,0.20921
1683.55314,0.22064
1685.48161,0.22158
1687.41008,0.21611
1689.33855,0.21195
1691.26701,0.20624
1693.19548,0.20395
1695.12395,0.21224
1697.05242,0.22600
1698.98089,0.22995
1700.90936,0.22195
1702.83783,0.21433
1704.76629,0.20933
1706.69476,0.20104
1708.62323,0.19399
1710.55170,0.19302
1712.48017,0.19753
1714.40864,0.20517
1716.33711,0.21095
1718.26558,0.20882
1720.19404,0.20380
1722.12251,0.20071
1724.05098,0.19656
1725.97945,0.19162
1727.90792,0.19239
1729.83639,0.19866
1731.76486,0.20327
1733.69332,0.20483
1735.62179,0.20423
1737.55026,0.20386
1739.47873,0.20429
1741.40720,0.20162
1743.33567,0.19786
1745.26414,0.19941
1747.19261,0.20603
1749.12107,0.21072
1751.04954,0.20715
1752.97801,0.20001
1754.90648,0.19638
1756.83495,0.19500
1758.76342,0.19274
1760.69189,0.19193
1762.62035,0.19284
1764.54882,0.19234
1766.47729,0.19190
1768.40576,0.19391
1770.33423,0.19918
1772.26270,0.20508
1774.19117,0.20649
1776.11964,0.20499
1778.04810,0.20311
1779.97657,0.20219
1781.90504,0.20258
1783.83351,0.20184
1785.76198,0.19936
1787.69045,0.19749
1789.61892,0.19863
1791.54738,0.20356
1793.47585,0.20554
1795.40432,0.20112
1797.33279,0.19747
1799.26126,0.19776
1801.18973,0.19775
1803.11820,0.19366
1805.04666,0.19051
1806.97513,0.19185
1808.90360,0.19398
1810.83207,0.19305
1812.76054,0.19057
1814.68901,0.18876
1816.61748,0.18832
1818.54595,0.18988
1820.47441,0.19300
1822.40288,0.19764
1824.33135,0.20081
1826.25982,0.19947
1828.18829,0.19878
1830.11676,0.19982
1832.04523,0.19851
1833.97369,0.19719
1835.90216,0.19678
1837.83063,0.19499
1839.75910,0.19394
1841.68757,0.19646
1843.61604,0.19897
1845.54451,0.19759
1847.47298,0.19522
1849.40144,0.19228
1851.32991,0.18878
1853.25838,0.18661
1855.18685,0.18497
1857.11532,0.18324
1859.04379,0.18414
1860.97226,0.18799
1862.90072,0.19106
1864.82919,0.19346
1866.75766,0.19769
1868.68613,0.19936
1870.61460,0.19492
1872.54307,0.19108
1874.47154,0.19046
1876.40001,0.19163
1878.32847,0.19405
1880.25694,0.19598
1882.18541,0.19661
1884.11388,0.19663
1886.04235,0.19523
1887.97082,0.19432
1889.89929,0.19561
1891.82775,0.19670
1893.75622,0.19690
1895.68469,0.19567
1897.61316,0.19382
1899.54163,0.19426
1901.47010,0.19497
1903.39857,0.19303
1905.32704,0.19157
1907.25550,0.19302
1909.18397,0.19418
1911.11244,0.19416
1913.04091,0.19523
1914.96938,0.19695
1916.89785,0.19883
1918.82632,0.19928
1920.75478,0.19824
1922.68325,0.19821
1924.61172,0.19767
1926.54019,0.19675
1928.46866,0.19615
1930.39713,0.19397
1932.32560,0.19130
1934.25407,0.18988
1936.18253,0.19044
1938.11100,0.19354
1940.03947,0.19778
1941.96794,0.19996
1943.89641,0.19775
1945.82488,0.19429
1947.75335,0.19242
1949.68181,0.19101
1951.61028,0.19019
1953.53875,0.19077
1955.46722,0.19152
1957.39569,0.19222
1959.32416,0.19391
1961.25263,0.19519
1963.18110,0.19519
1965.10956,0.19661
1967.03803,0.19885
1968.96650,0.19751
1970.89497,0.19413
1972.82344,0.19178
1974.75191,0.18994
1976.68038,0.18858
1978.60884,0.18881
1980.53731,0.19035
1982.46578,0.19079
1984.39425,0.18977
1986.32272,0.18994
1988.25119,0.19139
1990.17966,0.19288
1992.10812,0.19363
1994.03659,0.19271
1995.96506,0.19184
1997.89353,0.19268
1999.82200,0.19416
2001.75047,0.19485
2003.67894,0.19447
2005.60741,0.19399
2007.53587,0.19438
2009.46434,0.19644
2011.39281,0.19853
2013.32128,0.19745
2015.24975,0.19573
2017.17822,0.19686
2019.10669,0.19779
2021.03515,0.19623
2022.96362,0.19451
2024.89209,0.19396
2026.82056,0.19316
2028.74903,0.19194
2030.67750,0.19132
2032.60597,0.19167
2034.53444,0.19298
2036.46290,0.19454
2038.39137,0.19545
2040.31984,0.19466
2042.24831,0.19391
2044.17678,0.19573
2046.10525,0.19745
2048.03372,0.19693
2049.96218,0.19713
2051.89065,0.19845
2053.81912,0.19814
2055.74759,0.19781
2057.67606,0.19929
2059.60453,0.19999
2061.53300,0.19966
2063.46147,0.19992
2065.38993,0.19950
2067.31840,0.19759
2069.24687,0.19539
2071.17534,0.19456
2073.10381,0.19556
2075.03228,0.19635
2076.96075,0.19511
2078.88921,0.19256
2080.81768,0.19165
2082.74615,0.19424
2084.67462,0.19797
2086.60309,0.19897
2088.53156,0.19769
2090.46003,0.19732
2092.38850,0.19816
2094.31696,0.19923
2096.24543,0.19964
2098.17390,0.19871
2100.10237,0.19849
2102.03084,0.20001
2103.95931,0.20082
2105.88778,0.20011
2107.81624,0.19910
2109.74471,0.19797
2111.67318,0.19595
2113.60165,0.19305
2115.53012,0.19193
2117.45859,0.19357
2119.38706,0.19487
2121.31553,0.19507
2123.24399,0.19583
2125.17246,0.19593
2127.10093,0.19448
2129.02940,0.19355
2130.95787,0.19416
2132.88634,0.19575
2134.81481,0.19708
2136.74327,0.19753
2138.67174,0.19765
2140.60021,0.19816
2142.52868,0.20045
2144.45715,0.20245
2146.38562,0.20099
2148.31409,0.19926
2150.24255,0.19974
2152.17102,0.19817
2154.09949,0.19293
2156.02796,0.18915
2157.95643,0.19058
2159.88490,0.19515
2161.81337,0.19778
2163.74184,0.19668
2165.67030,0.19586
2167.59877,0.19780
2169.52724,0.19888
2171.45571,0.19634
2173.38418,0.19432
2175.31265,0.19588
2177.24112,0.19867
2179.16958,0.20088
2181.09805,0.20146
2183.02652,0.20068
2184.95499,0.20003
2186.88346,0.19907
2188.81193,0.19714
2190.74040,0.19609
2192.66887,0.19700
2194.59733,0.19793
2196.52580,0.19889
2198.45427,0.19952
2200.38274,0.19773
2202.31121,0.19497
2204.23968,0.19388
2206.16815,0.19490
2208.09661,0.19568
2210.02508,0.19451
2211.95355,0.19388
2213.88202,0.19577
2215.81049,0.19763
2217.73896,0.19655
2219.66743,0.19460
2221.59590,0.19457
2223.52436,0.19499
2225.45283,0.19516
2227.38130,0.19612
2229.30977,0.19692
2231.23824,0.19794
2233.16671,0.19919
2235.09518,0.19811
2237.02364,0.19633
2238.95211,0.19686
2240.88058,0.19777
2242.80905,0.19759
2244.73752,0.19771
2246.66599,0.19775
2248.59446,0.19726
2250.52293,0.19814
2252.45139,0.19998
2254.37986,0.20042
2256.30833,0.19997
2258.23680,0.20041
2260.16527,0.20051
2262.09374,0.19915
2264.02221,0.19838
2265.95067,0.19925
2267.87914,0.19964
2269.80761,0.19807
2271.73608,0.19661
2273.66455,0.19734
2275.59302,0.19861
2277.52149,0.19869
2279.44996,0.19895
2281.37842,0.20007
2283.30689,0.20113
2285.23536,0.20176
2287.16383,0.20039
2289.09230,0.19666
2291.02077,0.19364
2292.94924,0.19255
2294.87770,0.19183
2296.80617,0.19159
2298.73464,0.19250
2300.66311,0.19370
2302.59158,0.19564
2304.52005,0.19802
2306.44852,0.19884
2308.37699,0.19854
2310.30545,0.19817
2312.23392,0.19750
2314.16239,0.19667
2316.09086,0.19733
2318.01933,0.20168
2319.94780,0.21059
2321.87627,0.21938
2323.80473,0.21701
2325.73320,0.20445
2327.66167,0.19623
2329.59014,0.19880
2331.51861,0.20697
2333.44708,0.21219
2335.37555,0.21104
2337.30401,0.20734
2339.23248,0.20662
2341.16095,0.21273
2343.08942,0.22265
2345.01789,0.22214
2346.94636,0.21054
2348.87483,0.20302
2350.80330,0.20350
2352.73176,0.20636
2354.66023,0.20232
2356.58870,0.19275
2358.51717,0.19381
2360.44564,0.20498
2362.37411,0.21205
2364.30258,0.21952
2366.23104,0.22486
2368.15951,0.21731
2370.08798,0.20573
2372.01645,0.19984
2373.94492,0.19685
2375.87339,0.19484
2377.80186,0.19399
2379.73033,0.19351
2381.65879,0.19394
2383.58726,0.19469
2385.51573,0.19472
2387.44420,0.19537
2389.37267,0.19675
2391.30114,0.19722
2393.22961,0.19757
2395.15807,0.19889
2397.08654,0.19941
2399.01501,0.19834
2400.94348,0.19707
2402.87195,0.19656
2404.80042,0.19723
2406.72889,0.19962
2408.65736,0.20245
2410.58582,0.20267
2412.51429,0.19952
2414.44276,0.19628
2416.37123,0.19678
2418.29970,0.19962
2420.22817,0.20122
2422.15664,0.20183
2424.08510,0.20130
2426.01357,0.19860
2427.94204,0.19629
2429.87051,0.19721
2431.79898,0.19917
2433.72745,0.19890
2435.65592,0.19783
2437.58439,0.19830
2439.51285,0.19946
2441.44132,0.20050
2443.36979,0.20118
2445.29826,0.20092
2447.22673,0.20068
2449.15520,0.20030
2451.08367,0.19892
2453.01213,0.19929
2454.94060,0.20223
2456.86907,0.20400
2458.79754,0.20425
2460.72601,0.20568
2462.65448,0.20689
2464.58295,0.20525
2466.51142,0.20317
2468.43988,0.20303
2470.36835,0.20195
2472.29682,0.19917
2474.22529,0.19739
2476.15376,0.19711
2478.08223,0.19753
2480.01070,0.19735
2481.93916,0.19664
2483.86763,0.19786
2485.79610,0.19996
2487.72457,0.19946
2489.65304,0.19875
2491.58151,0.20055
2493.50998,0.20224
2495.43844,0.20286
2497.36691,0.20384
2499.29538,0.20602
2501.22385,0.20745
2503.15232,0.20529
2505.08079,0.20199
2507.00926,0.20121
2508.93773,0.20253
2510.86619,0.20380
2512.79466,0.20355
2514.72313,0.20187
2516.65160,0.20174
2518.58007,0.20361
2520.50854,0.20355
2522.43701,0.20161
2524.36547,0.19965
2526.29394,0.19769
2528.22241,0.19740
2530.15088,0.19959
2532.07935,0.20190
2534.00782,0.20184
2535.93629,0.19982
2537.86476,0.19872
2539.79322,0.19980
2541.72169,0.20098
2543.65016,0.20212
2545.57863,0.20489
2547.50710,0.20603
2549.43557,0.20384
2551.36404,0.20311
2553.29250,0.20467
2555.22097,0.20501
2557.14944,0.20378
2559.07791,0.20251
2561.00638,0.20207
2562.93485,0.20233
2564.86332,0.20261
2566.79179,0.20201
2568.72025,0.20009
2570.64872,0.19827
2572.57719,0.19849
2574.50566,0.20144
2576.43413,0.20528
2578.36260,0.20644
2580.29107,0.20487
2582.21953,0.20394
2584.14800,0.20436
2586.07647,0.20426
2588.00494,0.20370
2589.93341,0.20371
2591.86188,0.20313
2593.79035,0.20130
2595.71882,0.19998
2597.64728,0.20021
2599.57575,0.20146
2601.50422,0.20103
2603.43269,0.19746
2605.36116,0.19584
2607.28963,0.19883
2609.21810,0.20128
2611.14656,0.20062
2613.07503,0.19951
2615.00350,0.20001
2616.93197,0.20204
2618.86044,0.20504
2620.78891,0.20731
2622.71738,0.20812
2624.64585,0.20950
2626.57431,0.21020
2628.50278,0.20895
2630.43125,0.20764
2632.35972,0.20666
2634.28819,0.20630
2636.21666,0.20621
2638.14513,0.20604
2640.07359,0.20640
2642.00206,0.20574
2643.93053,0.20367
2645.85900,0.20305
2647.78747,0.20323
2649.71594,0.20109
2651.64441,0.19981
2653.57288,0.20215
2655.50134,0.20415
2657.42981,0.20436
2659.35828,0.20535
2661.28675,0.20666
2663.21522,0.20551
2665.14369,0.20284
2667.07216,0.20217
2669.00062,0.20409
2670.92909,0.20687
2672.85756,0.20962
2674.78603,0.21161
2676.71450,0.21184
2678.64297,0.21075
2680.57144,0.20969
2682.49990,0.20977
2684.42837,0.21071
2686.35684,0.21019
2688.28531,0.20718
2690.21378,0.20467
2692.14225,0.20437
2694.07072,0.20455
2695.99919,0.20569
2697.92765,0.20854
2699.85612,0.21095
2701.78459,0.21134
2703.71306,0.21192
2705.64153,0.21510
2707.57000,0.21661
2709.49847,0.21345
2711.42693,0.21086
2713.35540,0.21135
2715.28387,0.21206
2717.21234,0.21199
2719.14081,0.21192
2721.06928,0.21193
2722.99775,0.21115
2724.92622,0.21037
2726.85468,0.21080
2728.78315,0.21029
2730.71162,0.20808
2732.64009,0.20730
2734.56856,0.20782
2736.49703,0.20653
2738.42550,0.20441
2740.35396,0.20413
2742.28243,0.20494
2744.21090,0.20468
2746.13937,0.20326
2748.06784,0.20278
2749.99631,0.20453
2751.92478,0.20703
2753.85325,0.20892
2755.78171,0.21054
2757.71018,0.21162
2759.63865,0.21203
2761.56712,0.21249
2763.49559,0.21352
2765.42406,0.21335
2767.35253,0.21111
2769.28099,0.21091
2771.20946,0.21322
2773.13793,0.21438
2775.06640,0.21471
2776.99487,0.21545
2778.92334,0.21596
2780.85181,0.21715
2782.78028,0.21944
2784.70874,0.21922
2786.63721,0.21529
2788.56568,0.21258
2790.49415,0.21452
2792.42262,0.21742
2794.35109,0.21766
2796.27956,0.21748
2798.20802,0.21731
2800.13649,0.21496
2802.06496,0.21189
2803.99343,0.21126
2805.92190,0.21364
2807.85037,0.21559
2809.77884,0.21445
2811.70731,0.21287
2813.63577,0.21449
2815.56424,0.21859
2817.49271,0.22209
2819.42118,0.22357
2821.34965,0.22199
2823.27812,0.21750
2825.20659,0.21317
2827.13505,0.21185
2829.06352,0.21510
2830.99199,0.21985
2832.92046,0.22091
2834.84893,0.21894
2836.77740,0.21710
2838.70587,0.21722
2840.63433,0.21812
2842.56280,0.21690
2844.49127,0.21502
2846.41974,0.21648
2848.34821,0.22031
2850.27668,0.22191
2852.20515,0.22186
2854.13362,0.22210
2856.06208,0.22145
2857.99055,0.22010
2859.91902,0.21939
2861.84749,0.21934
2863.77596,0.22023
2865.70443,0.22298
2867.63290,0.22458
2869.56136,0.22204
2871.48983,0.21903
2873.41830,0.21944
2875.34677,0.22027
2877.27524,0.21760
2879.20371,0.21523
2881.13218,0.21635
2883.06065,0.21878
2884.98911,0.22068
2886.91758,0.22140
2888.84605,0.22253
2890.77452,0.22350
2892.70299,0.22167
2894.63146,0.21981
2896.55993,0.22011
2898.48839,0.21958
2900.41686,0.21825
2902.34533,0.21823
2904.27380,0.21733
2906.20227,0.21461
2908.13074,0.21337
2910.05921,0.21513
2911.98768,0.21722
2913.91614,0.21522
2915.84461,0.20860
2917.77308,0.20440
2919.70155,0.20813
2921.63002,0.21398
2923.55849,0.21312
2925.48696,0.20574
2927.41542,0.20044
2929.34389,0.20245
2931.27236,0.20681
2933.20083,0.20908
2935.12930,0.21125
2937.05777,0.21330
2938.98624,0.21485
2940.91471,0.21687
2942.84317,0.21769
2944.77164,0.21657
2946.70011,0.21448
2948.62858,0.21351
2950.55705,0.21455
2952.48552,0.21589
2954.41399,0.21580
2956.34245,0.21154
2958.27092,0.20653
2960.19939,0.20793
2962.12786,0.21176
2964.05633,0.21234
2965.98480,0.21230
2967.91327,0.21345
2969.84174,0.21585
2971.77020,0.21928
2973.69867,0.22160
2975.62714,0.22020
2977.55561,0.21686
2979.48408,0.21912
2981.41255,0.22560
2983.34102,0.22850
2985.26948,0.22779
2987.19795,0.22434
2989.12642,0.22252
2991.05489,0.22676
2992.98336,0.22894
2994.91183,0.22490
2996.84030,0.22161
2998.76877,0.22264
3000.69723,0.22514
3002.62570,0.22526
3004.55417,0.22335
3006.48264,0.22186
3008.41111,0.22060
3010.33958,0.21550
3012.26805,0.20173
3014.19651,0.18095
3016.12498,0.16599
3018.05345,0.17426
3019.98192,0.20044
3021.91039,0.21924
3023.83886,0.22455
3025.76733,0.22577
3027.69579,0.22692
3029.62426,0.22993
3031.55273,0.23347
3033.48120,0.23348
3035.40967,0.23070
3037.33814,0.22700
3039.26661,0.22278
3041.19508,0.21979
3043.12354,0.21949
3045.05201,0.21994
3046.98048,0.21780
3048.90895,0.21516
3050.83742,0.21606
3052.76589,0.21830
3054.69436,0.21718
3056.62282,0.21342
3058.55129,0.21399
3060.47976,0.21924
3062.40823,0.22163
3064.33670,0.21873
3066.26517,0.21463
3068.19364,0.21563
3070.12211,0.22182
3072.05057,0.22504
3073.97904,0.21970
3075.90751,0.21280
3077.83598,0.21591
3079.76445,0.22489
3081.69292,0.22804
3083.62139,0.22238
3085.54985,0.21472
3087.47832,0.21483
3089.40679,0.21888
3091.33526,0.21814
3093.26373,0.21490
3095.19220,0.21590
3097.12067,0.22251
3099.04914,0.22737
3100.97760,0.22513
3102.90607,0.21780
3104.83454,0.21306
3106.76301,0.21615
3108.69148,0.22087
3110.61995,0.22046
3112.54842,0.21753
3114.47688,0.21714
3116.40535,0.21910
3118.33382,0.22142
3120.26229,0.22130
3122.19076,0.21900
3124.11923,0.21995
3126.04770,0.22194
3127.97617,0.21973
3129.90463,0.21549
3131.83310,0.21413
3133.76157,0.21624
3135.69004,0.21879
3137.61851,0.22032
3139.54698,0.22097
3141.47545,0.22131
3143.40391,0.22056
3145.33238,0.22038
3147.26085,0.22357
3149.18932,0.22813
3151.11779,0.23160
3153.04626,0.23377
3154.97473,0.23462
3156.90320,0.23106
3158.83166,0.22319
3160.76013,0.21987
3162.68860,0.22495
3164.61707,0.23211
3166.54554,0.23430
3168.47401,0.23127
3170.40248,0.23061
3172.33094,0.23413
3174.25941,0.23639
3176.18788,0.23677
3178.11635,0.23547
3180.04482,0.23250
3181.97329,0.22955
3183.90176,0.22816
3185.83022,0.22922
3187.75869,0.23069
3189.68716,0.23096
3191.61563,0.22988
3193.54410,0.22943
3195.47257,0.23078
3197.40104,0.23083
3199.32951,0.23031
3201.25797,0.23077
3203.18644,0.22979
3205.11491,0.22871
3207.04338,0.23049
3208.97185,0.23327
3210.90032,0.23458
3212.82879,0.23266
3214.75725,0.22607
3216.68572,0.22040
3218.61419,0.22223
3220.54266,0.22731
3222.47113,0.22975
3224.39960,0.22919
3226.32807,0.22492
3228.25654,0.21992
3230.18500,0.21930
3232.11347,0.22085
3234.04194,0.22103
3235.97041,0.22093
3237.89888,0.22265
3239.82735,0.22644
3241.75582,0.23130
3243.68428,0.23472
3245.61275,0.23217
3247.54122,0.22627
3249.46969,0.22721
3251.39816,0.23385
3253.32663,0.23556
3255.25510,0.23150
3257.18357,0.22876
3259.11203,0.22977
3261.04050,0.22891
3262.96897,0.22311
3264.89744,0.21854
3266.82591,0.21902
3268.75438,0.22179
3270.68285,0.22343
3272.61131,0.22375
3274.53978,0.22525
3276.46825,0.22605
3278.39672,0.22341
3280.32519,0.22067
3282.25366,0.22095
3284.18213,0.22288
3286.11060,0.22462
3288.03906,0.22708
3289.96753,0.22979
3291.89600,0.23110
3293.82447,0.23172
3295.75294,0.22885
3297.68141,0.22172
3299.60988,0.21795
3301.53834,0.22097
3303.46681,0.22562
3305.39528,0.22604
3307.32375,0.22462
3309.25222,0.22570
3311.18069,0.22344
3313.10916,0.21793
3315.03763,0.21826
3316.96609,0.22225
3318.89456,0.22363
3320.82303,0.22407
3322.75150,0.22505
3324.67997,0.22450
3326.60844,0.22331
3328.53691,0.22510
3330.46537,0.22870
3332.39384,0.22977
3334.32231,0.23014
3336.25078,0.23461
3338.17925,0.23971
3340.10772,0.23894
3342.03619,0.23345
3343.96466,0.22728
3345.89312,0.22373
3347.82159,0.22536
3349.75006,0.22996
3351.67853,0.23323
3353.60700,0.23160
3355.53547,0.22610
3357.46394,0.22375
3359.39240,0.22631
3361.32087,0.22885
3363.24934,0.22959
3365.17781,0.23101
3367.10628,0.23358
3369.03475,0.23457
3370.96322,0.23466
3372.89168,0.23561
3374.82015,0.23530
3376.74862,0.23370
3378.67709,0.23213
3380.60556,0.23123
3382.53403,0.23140
3384.46250,0.22955
3386.39097,0.22768
3388.31943,0.23165
3390.24790,0.23880
3392.17637,0.24271
3394.10484,0.24074
3396.03331,0.23643
3397.96178,0.23336
3399.89025,0.23064
3401.81871,0.22785
3403.74718,0.22607
3405.67565,0.22712
3407.60412,0.22854
3409.53259,0.22536
3411.46106,0.22120
3413.38953,0.22093
3415.31800,0.22164
3417.24646,0.22161
3419.17493,0.22306
3421.10340,0.22525
3423.03187,0.22491
3424.96034,0.22480
3426.88881,0.22764
3428.81728,0.22793
3430.74574,0.22323
3432.67421,0.21817
3434.60268,0.21472
3436.53115,0.21130
3438.45962,0.20931
3440.38809,0.21218
3442.31656,0.21854
3444.24503,0.22311
3446.17349,0.22384
3448.10196,0.22274
3450.03043,0.21964
3451.95890,0.21313
3453.88737,0.20619
3455.81584,0.20423
3457.74431,0.20863
3459.67277,0.21412
3461.60124,0.21625
3463.52971,0.21603
3465.45818,0.21519
3467.38665,0.21388
3469.31512,0.21342
3471.24359,0.21538
3473.17206,0.21589
3475.10052,0.21200
3477.02899,0.20758
3478.95746,0.20534
3480.88593,0.20527
3482.81440,0.20636
3484.74287,0.20722
3486.67134,0.20911
3488.59980,0.20967
3490.52827,0.20478
3492.45674,0.19847
3494.38521,0.19595
3496.31368,0.19628
3498.24215,0.19522
3500.17062,0.19169
3502.09909,0.18933
3504.02755,0.18804
3505.95602,0.18634
3507.88449,0.18799
3509.81296,0.19233
3511.74143,0.19475
3513.66990,0.19509
3515.59837,0.19443
3517.52683,0.19405
3519.45530,0.19589
3521.38377,0.19739
3523.31224,0.19404
3525.24071,0.18993
3527.16918,0.18962
3529.09765,0.18847
3531.02611,0.18554
3532.95458,0.18366
3534.88305,0.18243
3536.81152,0.17978
3538.73999,0.17545
3540.66846,0.17450
3542.59693,0.17931
3544.52540,0.18684
3546.45386,0.19158
3548.38233,0.18904
3550.31080,0.18335
3552.23927,0.17826
3554.16774,0.17538
3556.09621,0.17729
3558.02468,0.18112
3559.95314,0.18255
3561.88161,0.18251
3563.81008,0.18144
3565.73855,0.17677
3567.66702,0.17246
3569.59549,0.17273
3571.52396,0.17432
3573.45243,0.17715
3575.38089,0.17962
3577.30936,0.17777
3579.23783,0.17093
3581.16630,0.16521
3583.09477,0.16649
3585.02324,0.17209
3586.95171,0.17489
3588.88017,0.17033
3590.80864,0.16557
3592.73711,0.16607
3594.66558,0.16983
3596.59405,0.17206
3598.52252,0.17152
3600.45099,0.17057
3602.37946,0.17073
3604.30792,0.17098
3606.23639,0.16959
3608.16486,0.16681
3610.09333,0.16709
3612.02180,0.17275
3613.95027,0.17828
3615.87874,0.17863
3617.80720,0.17695
3619.73567,0.17430
3621.66414,0.16530
3623.59261,0.15285
3625.52108,0.14550
3627.44955,0.14962
3629.37802,0.16217
3631.30649,0.16541
3633.23495,0.16243
3635.16342,0.15811
3637.09189,0.15286
3639.02036,0.15191
3640.94883,0.15595
3642.87730,0.15888
3644.80577,0.16083
3646.73423,0.16709
3648.66270,0.17399
3650.59117,0.16534
3652.51964,0.15248
3654.44811,0.14888
3656.37658,0.15146
3658.30505,0.15069
3660.23352,0.14590
3662.16198,0.14182
3664.09045,0.14078
3666.01892,0.14453
3667.94739,0.15319
3669.87586,0.15946
3671.80433,0.15595
3673.73280,0.15262
3675.66126,0.15155
3677.58973,0.14909
3679.51820,0.14646
3681.44667,0.14487
3683.37514,0.14626
3685.30361,0.14935
3687.23208,0.15149
3689.16055,0.15428
3691.08901,0.15333
3693.01748,0.14480
3694.94595,0.13906
3696.87442,0.13970
3698.80289,0.14179
3700.73136,0.14522
3702.65983,0.14947
3704.58829,0.14928
3706.51676,0.14740
3708.44523,0.14779
3710.37370,0.15091
3712.30217,0.15209
3714.23064,0.14919
3716.15911,0.14738
3718.08757,0.14718
3720.01604,0.14809
3721.94451,0.15092
3723.87298,0.15346
3725.80145,0.15199
3727.72992,0.14936
3729.65839,0.15131
3731.58686,0.15503
3733.51532,0.15649
3735.44379,0.16000
3737.37226,0.16205
3739.30073,0.15962
3741.22920,0.15794
3743.15767,0.15656
3745.08614,0.15399
3747.01460,0.15308
3748.94307,0.15368
3750.87154,0.15472
3752.80001,0.15188
3754.72848,0.14598
3756.65695,0.14166
3758.58542,0.13939
3760.51389,0.13615
3762.44235,0.13346
3764.37082,0.13502
3766.29929,0.13914
3768.22776,0.14074
3770.15623,0.13652
3772.08470,0.12898
3774.01317,0.12495
3775.94163,0.12729
3777.87010,0.13446
3779.79857,0.14026
3781.72704,0.14110
3783.65551,0.14028
3785.58398,0.14104
3787.51245,0.14241
3789.44092,0.14058
3791.36938,0.13711
3793.29785,0.13522
3795.22632,0.13558
3797.15479,0.13892
3799.08326,0.14376
3801.01173,0.14664
3802.94020,0.14359
3804.86866,0.13877
3806.79713,0.13455
3808.72560,0.13129
3810.65407,0.13187
3812.58254,0.13552
3814.51101,0.14192
3816.43948,0.14798
3818.36795,0.14674
3820.29641,0.14276
3822.22488,0.14115
3824.15335,0.14049
3826.08182,0.14015
3828.01029,0.14015
3829.93876,0.13985
3831.86723,0.14063
3833.79569,0.14430
3835.72416,0.14985
3837.65263,0.15432
3839.58110,0.15016
3841.50957,0.13983
3843.43804,0.13508
3845.36651,0.13719
3847.29498,0.14024
3849.22344,0.14200
3851.15191,0.14433
3853.08038,0.14532
3855.00885,0.13738
3856.93732,0.13088
3858.86579,0.12923
3860.79426,0.12927
3862.72272,0.12969
3864.65119,0.13309
3866.57966,0.13888
3868.50813,0.14256
3870.43660,0.14268
3872.36507,0.13983
3874.29354,0.13406
3876.22200,0.12831
3878.15047,0.12824
3880.07894,0.13178
3882.00741,0.13328
3883.93588,0.13538
3885.86435,0.13668
3887.79282,0.13360
3889.72129,0.13059
3891.64975,0.12935
3893.57822,0.12811
3895.50669,0.12602
3897.43516,0.12703
3899.36363,0.13357
3901.29210,0.13858
3903.22057,0.13631
3905.14903,0.12915
3907.07750,0.12106
3909.00597,0.11714
3910.93444,0.11866
3912.86291,0.12021
3914.79138,0.12179
3916.71985,0.12693
3918.64832,0.12929
3920.57678,0.12696
3922.50525,0.12583
3924.43372,0.12579
3926.36219,0.12413
3928.29066,0.12309
3930.21913,0.12532
3932.14760,0.12654
3934.07606,0.12259
3936.00453,0.11822
3937.93300,0.11864
3939.86147,0.12197
3941.78994,0.12227
3943.71841,0.12064
3945.64688,0.12168
3947.57535,0.12289
3949.50381,0.12239
3951.43228,0.12231
3953.36075,0.12108
3955.28922,0.12000
3957.21769,0.12386
3959.14616,0.12757
3961.07463,0.12515
3963.00309,0.11984
3964.93156,0.11697
3966.86003,0.11820
3968.78850,0.12021
3970.71697,0.12039
3972.64544,0.11877
3974.57391,0.11521
3976.50238,0.11161
3978.43084,0.11101
3980.35931,0.11197
3982.28778,0.11248
3984.21625,0.11289
3986.14472,0.11127
3988.07319,0.10783
3990.00166,0.10442
3991.93012,0.10280
3993.85859,0.10448
3995.78706,0.10548
3997.71553,0.10294
3999.64400,0.10029
4001.57247,0.10105
4003.50094,0.10474
4005.42941,0.10910
4007.35787,0.11337
4009.28634,0.11772
4011.21481,0.11973
4013.14328,0.11764
4015.07175,0.11397
4017.00022,0.10811
4018.92869,0.10333
4020.85715,0.10591
4022.78562,0.10935
4024.71409,0.10821
4026.64256,0.10598
4028.57103,0.10478
4030.49950,0.10479
4032.42797,0.10461
4034.35644,0.10439
4036.28490,0.10742
4038.21337,0.11176
4040.14184,0.11222
4042.07031,0.10946
4043.99878,0.10676
4045.92725,0.10711
4047.85572,0.10902
4049.78418,0.10813
4051.71265,0.10721
4053.64112,0.10728
4055.56959,0.10497
4057.49806,0.10427
4059.42653,0.10703
4061.35500,0.10505
4063.28346,0.09843
4065.21193,0.09348
4067.14040,0.08685
4069.06887,0.08151
4070.99734,0.08556
4072.92581,0.09331
4074.85428,0.09759
4076.78275,0.09944
4078.71121,0.10274
4080.63968,0.10766
4082.56815,0.10641
4084.49662,0.09940
4086.42509,0.09818
4088.35356,0.10235
4090.28203,0.10199
4092.21049,0.09603
4094.13896,0.09074
4096.06743,0.08810
4097.99590,0.08838
4099.92437,0.09420
4101.85284,0.10062
4103.78131,0.10152
4105.70978,0.10073
4107.63824,0.10102
4109.56671,0.09912
4111.49518,0.09467
4113.42365,0.09110
4115.35212,0.09155
4117.28059,0.09648
4119.20906,0.10135
4121.13752,0.10186
4123.06599,0.09743
4124.99446,0.09189
4126.92293,0.09007
4128.85140,0.09093
4130.77987,0.09186
4132.70834,0.09101
4134.63681,0.08838
4136.56527,0.08870
4138.49374,0.09373
4140.42221,0.09756
4142.35068,0.09591
4144.27915,0.09568
4146.20762,0.09999
4148.13609,0.09976
4150.06455,0.09468
4151.99302,0.09061
4153.92149,0.08789
4155.84996,0.08726
4157.77843,0.08612
4159.70690,0.08154
4161.63537,0.07817
4163.56384,0.07977
4165.49230,0.08442
4167.42077,0.08727
4169.34924,0.08388
4171.27771,0.07641
4173.20618,0.07329
4175.13465,0.07589
4177.06312,0.07714
4178.99158,0.07739
4180.92005,0.08224
4182.84852,0.08597
4184.77699,0.08198
4186.70546,0.07750
4188.63393,0.07842
4190.56240,0.08057
4192.49087,0.08103
4194.41933,0.08201
4196.34780,0.08414
4198.27627,0.08288
4200.20474,0.07725
4202.13321,0.07330
4204.06168,0.07225
4205.99015,0.07113
4207.91861,0.07258
4209.84708,0.07606
4211.77555,0.07634
4213.70402,0.07670
4215.63249,0.07979
4217.56096,0.07980
4219.48943,0.07706
4221.41789,0.07783
4223.34636,0.07961
4225.27483,0.07879
4227.20330,0.07773
4229.13177,0.07448
4231.06024,0.06972
4232.98871,0.07060
4234.91718,0.07871
4236.84564,0.08640
4238.77411,0.08363
4240.70258,0.07364
4242.63105,0.06848
4244.55952,0.06925
4246.48799,0.06999
4248.41646,0.06929
4250.34492,0.06894
4252.27339,0.06778
4254.20186,0.06461
4256.13033,0.06327
4258.05880,0.06622
4259.98727,0.07027
4261.91574,0.07099
4263.84421,0.06859
4265.77267,0.06595
4267.70114,0.06448
4269.62961,0.06475
4271.55808,0.06495
4273.48655,0.06406
4275.41502,0.06429
4277.34349,0.06615
4279.27195,0.06717
4281.20042,0.06480
4283.12889,0.06174
4285.05736,0.06363
4286.98583,0.06773
4288.91430,0.06654
4290.84277,0.06147
4292.77124,0.06027
4294.69970,0.06243
4296.62817,0.06041
4298.55664,0.05613
4300.48511,0.05446
4302.41358,0.05460
4304.34205,0.05858
4306.27052,0.06237
4308.19898,0.05989
4310.12745,0.05658
4312.05592,0.05505
4313.98439,0.05115
4315.91286,0.04710
4317.84133,0.05069
4319.76980,0.05969
4321.69827,0.06428
4323.62673,0.06309
4325.55520,0.06019
4327.48367,0.05872
4329.41214,0.05647
4331.34061,0.05145
4333.26908,0.04840
4335.19755,0.04696
4337.12601,0.04341
4339.05448,0.03937
4340.98295,0.03654
4342.91142,0.03631
4344.83989,0.04066
4346.76836,0.04600
4348.69683,0.04621
4350.62530,0.04213
4352.55376,0.04039
4354.48223,0.04634
4356.41070,0.05492
4358.33917,0.05255
4360.26764,0.03841
4362.19611,0.02828
4364.12458,0.02842
4366.05304,0.03068
4367.98151,0.03323
4369.90998,0.03562
4371.83845,0.03185
4373.76692,0.02332
4375.69539,0.01761
4377.62386,0.01860
4379.55232,0.02623
4381.48079,0.03645
4383.40926,0.03918
4385.33773,0.02957
4387.26620,0.02014
4389.19467,0.02549
4391.12314,0.03809
4393.05161,0.04176
4394.98007,0.03886
4396.90854,0.03890
4398.83701,0.03911
4400.76548,0.03471
4402.69395,0.02927
4404.62242,0.02487
4406.55089,0.02124
4408.47935,0.02132
4410.40782,0.02431
4412.33629,0.02387
4414.26476,0.01840
4416.19323,0.01767
4418.12170,0.02415
4420.05017,0.02640
4421.97864,0.02391
4423.90710,0.02188
4425.83557,0.02090
4427.76404,0.02321
4429.69251,0.02623
4431.62098,0.02732
4433.54945,0.02653
4435.47792,0.02485
4437.40638,0.02622
4439.33485,0.02944
4441.26332,0.03161
4443.19179,0.03217
4445.12026,0.03237
4447.04873,0.03405
4448.97720,0.03361
4450.90567,0.02899
4452.83413,0.02565
4454.76260,0.02903
4456.69107,0.03577
4458.61954,0.03693
4460.54801,0.02999
4462.47648,0.02042
4464.40495,0.01588
4466.33341,0.01773
4468.26188,0.01697
4470.19035,0.01213
4472.11882,0.01241
4474.04729,0.01582
4475.97576,0.01528
4477.90423,0.01431
4479.83270,0.01610
4481.76116,0.01772
4483.68963,0.01767
4485.61810,0.01693
4487.54657,0.01758
4489.47504,0.01962
4491.40351,0.02073
4493.33198,0.02228
4495.26044,0.02392
4497.18891,0.02253
4499.11738,0.02200
4501.04585,0.02360
4502.97432,0.02160
4504.90279,0.01682
4506.83126,0.01044
4508.75973,0.00377
4510.68819,0.00425
4512.61666,0.00823
4514.54513,0.00813
4516.47360,0.00795
4518.40207,0.00901
4520.33054,0.00789
4522.25901,0.00431
4524.18747,-0.00042
4526.11594,-0.00185
4528.04441,0.00267
4529.97288,0.00839
4531.90135,0.01442
4533.82982,0.02051
4535.75829,0.01898
4537.68676,0.01316
4539.61522,0.01676
4541.54369,0.02748
4543.47216,0.02882
4545.40063,0.01653
4547.32910,0.00514
4549.25757,0.00419
4551.18604,0.00213
4553.11450,-0.00737
4555.04297,-0.00855
4556.97144,0.00383
4558.89991,0.01195
4560.82838,0.00690
4562.75685,-0.00052
4564.68532,-0.00060
4566.61378,0.00643
4568.54225,0.01332
4570.47072,0.01212
4572.39919,0.00720
4574.32766,0.00818
4576.25613,0.01494
4578.18460,0.02110
4580.11307,0.01972
4582.04153,0.01174
4583.97000,0.00579
4585.89847,0.00397
4587.82694,0.00465
4589.75541,0.00794
4591.68388,0.00877
4593.61235,0.00191
4595.54081,-0.00631
4597.46928,-0.00668
4599.39775,-0.00344
4601.32622,-0.00235
4603.25469,0.00106
4605.18316,0.00486
4607.11163,0.00321
4609.04010,0.00462
4610.96856,0.01194
4612.89703,0.01441
4614.82550,0.01556
4616.75397,0.01905
4618.68244,0.01571
4620.61091,0.00655
4622.53938,-0.00169
4624.46784,-0.00490
4626.39631,-0.00128
4628.32478,0.00597
4630.25325,0.01262
4632.18172,0.00929
4634.11019,-0.00056
4636.03866,-0.00498
4637.96713,-0.00336
4639.89559,-0.00373
4641.82406,-0.00678
4643.75253,-0.00489
4645.68100,0.00092
4647.60947,0.00670
4649.53794,0.00829
4651.46641,-0.00037
4653.39487,-0.00980
4655.32334,-0.00823
4657.25181,-0.00252
4659.18028,0.00162
4661.10875,0.00290
4663.03722,0.00049
4664.96569,-0.00203
4666.89416,-0.00069
4668.82262,-0.00155
4670.75109,-0.00322
4672.67956,0.00046
4674.60803,0.00459
4676.53650,0.00878
4678.46497,0.01762
4680.39344,0.02204
4682.32190,0.01485
4684.25037,0.00670
4686.17884,0.00729
4688.10731,0.01122
4690.03578,0.00943
4691.96425,0.00704
4693.89272,0.01243
4695.82119,0.01640
4697.74965,0.01158
4699.67812,0.00635
4701.60659,0.00478
4703.53506,0.00277
4705.46353,0.00163
4707.39200,0.00427
4709.32047,0.00740
4711.24893,0.00946
4713.17740,0.01103
4715.10587,0.00988
4717.03434,0.00322
4718.96281,-0.00838
4720.89128,-0.01646
4722.81975,-0.01384
4724.74821,-0.00459
4726.67668,0.00443
4728.60515,0.00839
4730.53362,0.00574
4732.46209,0.00228
4734.39056,0.00252
4736.31903,0.00357
4738.24750,0.00315
4740.17596,0.00125
4742.10443,-0.00281
4744.03290,-0.00616
4745.96137,-0.00603
4747.88984,-0.00351
4749.81831,0.00387
4751.74678,0.01512
4753.67524,0.02010
4755.60371,0.01387
4757.53218,0.00552
4759.46065,0.00141
4761.38912,-0.00266
4763.31759,-0.00856
4765.24606,-0.01275
4767.17453,-0.01056
4769.10299,0.00076
4771.03146,0.01354
4772.95993,0.01627
4774.88840,0.01180
4776.81687,0.01154
4778.74534,0.01519
4780.67381,0.01827
4782.60227,0.01542
4784.53074,0.00065
4786.45921,-0.01362
4788.38768,-0.01792
4790.31615,-0.01660
4792.24462,-0.00873
4794.17309,0.00470
4796.10156,0.01356
4798.03002,0.01364
4799.95849,0.00555
4801.88696,-0.00400
4803.81543,-0.00367
4805.74390,0.00352
4807.67237,0.00597
4809.60084,0.00378
4811.52930,0.00367
4813.45777,0.00540
4815.38624,0.00732
4817.31471,0.01354
4819.24318,0.01866
4821.17165,0.01379
4823.10012,0.00805
4825.02859,0.00567
4826.95705,0.00041
4828.88552,-0.00062
4830.81399,0.00373
4832.74246,0.00382
4834.67093,0.00026
4836.59940,-0.00267
4838.52787,-0.00227
4840.45633,0.00448
4842.38480,0.01350
4844.31327,0.02089
4846.24174,0.02676
4848.17021,0.02264
4850.09868,0.00729
4852.02715,-0.00015
4853.95562,0.00700
4855.88408,0.01161
4857.81255,0.00985
4859.74102,0.01293
4861.66949,0.01506
4863.59796,0.00866
4865.52643,0.00251
4867.45490,0.00519
4869.38336,0.01512
4871.31183,0.02259
4873.24030,0.02117
4875.16877,0.01579
4877.09724,0.01720
4879.02571,0.02331
4880.95418,0.01978
4882.88265,0.00926
4884.81111,0.00608
4886.73958,0.01075
4888.66805,0.01903
4890.59652,0.02642
4892.52499,0.02288
4894.45346,0.01326
4896.38193,0.01026
4898.31039,0.00713
4900.23886,-0.00093
4902.16733,0.00133
4904.09580,0.01315
4906.02427,0.01197
4907.95274,0.00108
4909.88121,0.00073
4911.80967,0.00623
4913.73814,0.00574
4915.66661,0.00152
4917.59508,-0.00327
4919.52355,-0.00558
4921.45202,0.00241
4923.38049,0.01681
4925.30896,0.01981
4927.23742,0.01180
4929.16589,0.00877
4931.09436,0.01244
4933.02283,0.01906
4934.95130,0.02364
4936.87977,0.01781
4938.80824,0.00319
4940.73670,-0.00687
4942.66517,-0.00115
4944.59364,0.01370
4946.52211,0.01863
4948.45058,0.00504
4950.37905,-0.01415
4952.30752,-0.02230
4954.23599,-0.02070
4956.16445,-0.01608
4958.09292,-0.00961
4960.02139,-0.00282
4961.94986,0.00157
4963.87833,-0.00223
4965.80680,-0.01122
4967.73527,-0.00601
4969.66373,0.01080
4971.59220,0.01361
4973.52067,0.00549
4975.44914,0.00051
4977.37761,-0.00584
4979.30608,-0.01113
4981.23455,-0.00442
4983.16302,0.01416
4985.09148,0.03177
4987.01995,0.02963
4988.94842,0.00794
4990.87689,-0.00734
4992.80536,-0.00450
4994.73383,0.00385
4996.66230,0.01040
4998.59076,0.01420
5000.51923,0.01228
5002.44770,0.01044
5004.37617,0.01043
5006.30464,0.00674
5008.23311,0.00391
5010.16158,0.00299
5012.09005,0.00585
5014.01851,0.01164
5015.94698,0.01149
5017.87545,0.01048
5019.80392,0.01157
5021.73239,0.00511
5023.66086,-0.00471
5025.58933,-0.00029
5027.51779,0.01818
5029.44626,0.03358
5031.37473,0.03267
5033.30320,0.01260
5035.23167,-0.00532
5037.16014,-0.00366
5039.08861,0.00376
5041.01708,0.00467
5042.94554,0.00289
5044.87401,0.00155
5046.80248,0.00158
5048.73095,0.00848
5050.65942,0.02201
5052.58789,0.03374
5054.51636,0.04255
5056.44482,0.04546
5058.37329,0.04024
5060.30176,0.02897
5062.23023,0.01339
5064.15870,0.00798
5066.08717,0.01062
5068.01564,0.00532
5069.94410,0.00452
5071.87257,0.01843
5073.80104,0.03183
5075.72951,0.03390
5077.65798,0.03238
5079.58645,0.03447
5081.51492,0.03512
5083.44339,0.03046
5085.37185,0.02455
5087.30032,0.02038
5089.22879,0.01678
5091.15726,0.01492
5093.08573,0.01633
5095.01420,0.02301
5096.94267,0.03475
5098.87113,0.04332
5100.79960,0.03832
5102.72807,0.02219
5104.65654,0.01608
5106.58501,0.02570
5108.51348,0.03703
5110.44195,0.05015
5112.37042,0.05918
5114.29888,0.05347
5116.22735,0.04735
5118.15582,0.04622
5120.08429,0.04190
5122.01276,0.03779
5123.94123,0.03884
5125.86970,0.04656
5127.79816,0.04660
5129.72663,0.02987
5131.65510,0.02194
5133.58357,0.03400
5135.51204,0.04486
5137.44051,0.04291
5139.36898,0.03343
5141.29745,0.02544
5143.22591,0.02927
5145.15438,0.04249
5147.08285,0.04664
5149.01132,0.03672
5150.93979,0.02761
5152.86826,0.02619
5154.79673,0.02304
5156.72519,0.01274
5158.65366,0.00320
5160.58213,0.00606
5162.51060,0.02125
5164.43907,0.02992
5166.36754,0.02381
5168.29601,0.02281
5170.22448,0.03640
5172.15294,0.04192
5174.08141,0.02929
5176.00988,0.01802
5177.93835,0.01868
5179.86682,0.02607
5181.79529,0.03270
5183.72376,0.03396
5185.65222,0.03389
5187.58069,0.03428
5189.50916,0.02816
5191.43763,0.02375
5193.36610,0.03282
5195.29457,0.05274
5197.22304,0.07800
5199.15151,0.08468
5201.07997,0.06470
5203.00844,0.05405
5204.93691,0.06337
5206.86538,0.06266
5208.79385,0.04787
5210.72232,0.03685
5212.65079,0.02210
5214.57925,0.00437
5216.50772,0.00540
5218.43619,0.02280
5220.36466,0.02638
5222.29313,0.01913
5224.22160,0.02569
5226.15007,0.03895
5228.07854,0.04271
5230.00700,0.03606
5231.93547,0.01593
5233.86394,0.00080
5235.79241,0.00624
5237.72088,0.01156
5239.64935,0.01362
5241.57782,0.02828
5243.50628,0.04769
5245.43475,0.05298
5247.36322,0.04808
5249.29169,0.04988
5251.22016,0.05291
5253.14863,0.04826
5255.07710,0.04416
5257.00556,0.04602
5258.93403,0.05538
5260.86250,0.07057
5262.79097,0.07186
5264.71944,0.05920
5266.64791,0.06284
5268.57638,0.07444
5270.50485,0.07100
5272.43331,0.05511
5274.36178,0.04188
5276.29025,0.03849
5278.21872,0.03931
5280.14719,0.04262
5282.07566,0.04669
5284.00413,0.05108
5285.93259,0.06132
5287.86106,0.07341
5289.78953,0.07611
5291.71800,0.06445
5293.64647,0.05013
5295.57494,0.04108
5297.50341,0.04029
5299.43188,0.05060
5301.36034,0.05843
5303.28881,0.05388
5305.21728,0.04623
5307.14575,0.04324
5309.07422,0.05045
5311.00269,0.05923
5312.93116,0.04970
5314.85962,0.02490
5316.78809,0.00787
5318.71656,0.01830
5320.64503,0.04995
5322.57350,0.07230
5324.50197,0.06791
5326.43044,0.05238
5328.35891,0.04558
5330.28737,0.04812
5332.21584,0.05407
5334.14431,0.05512
5336.07278,0.05042
5338.00125,0.04750
5339.92972,0.05056
5341.85819,0.05894
5343.78665,0.06953
5345.71512,0.07915
5347.64359,0.07628
5349.57206,0.06173
5351.50053,0.04847
5353.42900,0.04058
5355.35747,0.04200
5357.28594,0.04256
5359.21440,0.03881
5361.14287,0.04998
5363.07134,0.06621
5364.99981,0.07188
5366.92828,0.08309
5368.85675,0.09240
5370.78522,0.08356
5372.71368,0.07115
5374.64215,0.07165
5376.57062,0.07838
5378.49909,0.07005
5380.42756,0.05316
5382.35603,0.05684
5384.28450,0.08237
5386.21297,0.09006
5388.14143,0.07830
5390.06990,0.07893
5391.99837,0.07736
5393.92684,0.06388
5395.85531,0.07117
5397.78378,0.08711
5399.71225,0.07662
5401.64071,0.05681
5403.56918,0.05341
5405.49765,0.06180
5407.42612,0.06261
5409.35459,0.04969
5411.28306,0.04425
5413.21153,0.05639
5415.13999,0.06301
5417.06846,0.06091
5418.99693,0.06533
5420.92540,0.07432
5422.85387,0.08369
5424.78234,0.09234
5426.71081,0.08999
5428.63928,0.07268
5430.56774,0.04764
5432.49621,0.02597
5434.42468,0.02131
5436.35315,0.03486
5438.28162,0.05235
5440.21009,0.06650
5442.13856,0.07239
5444.06702,0.06914
5445.99549,0.05345
5447.92396,0.03835
5449.85243,0.05443
5451.78090,0.07175
5453.70937,0.06374
5455.63784,0.06408
5457.56631,0.07967
5459.49477,0.08543
5461.42324,0.08426
5463.35171,0.08505
5465.28018,0.08293
5467.20865,0.07618
5469.13712,0.07027
5471.06559,0.06018
5472.99405,0.03870
5474.92252,0.01996
5476.85099,0.03155
5478.77946,0.06598
5480.70793,0.08890
5482.63640,0.08652
5484.56487,0.08115
5486.49334,0.08564
5488.42180,0.08086
5490.35027,0.06664
5492.27874,0.06655
5494.20721,0.07395
5496.13568,0.07144
5498.06415,0.06952
5499.99262,0.06536
5501.92108,0.04837
5503.84955,0.03647
5505.77802,0.05234
5507.70649,0.08710
5509.63496,0.10277
5511.56343,0.09604
5513.49190,0.08585
5515.42037,0.07426
5517.34883,0.06491
5519.27730,0.06769
5521.20577,0.07836
5523.13424,0.08215
5525.06271,0.08938
5526.99118,0.10033
5528.91965,0.08107
5530.84811,0.04505
5532.77658,0.03700
5534.70505,0.05077
5536.63352,0.06720
5538.56199,0.08132
5540.49046,0.08227
5542.41893,0.07295
5544.34740,0.07408
5546.27586,0.07754
5548.20433,0.05644
5550.13280,0.04012
5552.06127,0.05735
5553.98974,0.07404
5555.91821,0.07790
5557.84668,0.08392
5559.77514,0.08856
5561.70361,0.09350
5563.63208,0.09854
5565.56055,0.09417
5567.48902,0.08204
5569.41749,0.07591
5571.34596,0.08654
5573.27443,0.09984
5575.20289,0.08366
5577.13136,0.04959
5579.05983,0.03479
5580.98830,0.04859
5582.91677,0.06678
5584.84524,0.06545
5586.77371,0.05394
5588.70217,0.04605
5590.63064,0.05633
5592.55911,0.08411
5594.48758,0.09929
5596.41605,0.09790
5598.34452,0.09713
5600.27299,0.10057
5602.20145,0.10890
5604.12992,0.10619
5606.05839,0.08435
5607.98686,0.07229
5609.91533,0.07725
5611.84380,0.07686
5613.77227,0.06464
5615.70074,0.05268
5617.62920,0.05613
5619.55767,0.07636
5621.48614,0.09988
5623.41461,0.11612
5625.34308,0.12286
5627.27155,0.11550
5629.20002,0.10809
5631.12848,0.12569
5633.05695,0.14913
5634.98542,0.13753
5636.91389,0.10216
5638.84236,0.09706
5640.77083,0.12161
5642.69930,0.13059
5644.62777,0.11455
5646.55623,0.09035
5648.48470,0.06710
5650.41317,0.05835
5652.34164,0.08253
5654.27011,0.12784
5656.19858,0.15467
5658.12705,0.14287
5660.05551,0.11665
5661.98398,0.10403
5663.91245,0.10425
5665.84092,0.10198
5667.76939,0.08076
5669.69786,0.05307
5671.62633,0.05297
5673.55480,0.07748
5675.48326,0.09215
5677.41173,0.08842
5679.34020,0.08433
5681.26867,0.08500
5683.19714,0.09032
5685.12561,0.10667
5687.05408,0.13269
5688.98254,0.15381
5690.91101,0.14913
5692.83948,0.11315
5694.76795,0.08227
5696.69642,0.08492
5698.62489,0.09438
5700.55336,0.09826
5702.48183,0.09911
5704.41029,0.07904
5706.33876,0.04748
5708.26723,0.03290
5710.19570,0.03975
5712.12417,0.05075
5714.05264,0.05357
5715.98111,0.05015
5717.90957,0.05141
5719.83804,0.06628
5721.76651,0.08455
5723.69498,0.08717
5725.62345,0.07546
5727.55192,0.07667
5729.48039,0.08490
5731.40886,0.07236
5733.33732,0.06742
5735.26579,0.08818
5737.19426,0.10305
5739.12273,0.09655
5741.05120,0.08069
5742.97967,0.07247
5744.90814,0.07631
5746.83660,0.08290
5748.76507,0.08011
5750.69354,0.07456
5752.62201,0.07846
5754.55048,0.07365
5756.47895,0.05997
5758.40742,0.06497
5760.33588,0.08760
5762.26435,0.10377
5764.19282,0.10009
5766.12129,0.08710
5768.04976,0.08903
5769.97823,0.10384
5771.90670,0.11954
5773.83517,0.12683
5775.76363,0.10141
5777.69210,0.05953
5779.62057,0.04250
5781.54904,0.04850
5783.47751,0.05946
5785.40598,0.06700
5787.33445,0.07263
5789.26291,0.08833
5791.19138,0.10544
5793.11985,0.09655
5795.04832,0.06385
5796.97679,0.04099
5798.90526,0.05800
5800.83373,0.09758
5802.76220,0.11893
5804.69066,0.11817
5806.61913,0.10490
5808.54760,0.08731
5810.47607,0.09337
5812.40454,0.12274
5814.33301,0.13309
5816.26148,0.12039
5818.18994,0.11742
5820.11841,0.13001
5822.04688,0.13595
5823.97535,0.12103
5825.90382,0.09913
5827.83229,0.08488
5829.76076,0.08001
5831.68923,0.09161
5833.61769,0.11276
5835.54616,0.11503
5837.47463,0.10511
5839.40310,0.10813
5841.33157,0.11172
5843.26004,0.10222
5845.18851,0.09545
5847.11697,0.11042
5849.04544,0.13781
5850.97391,0.13722
5852.90238,0.09645
5854.83085,0.05755
5856.75932,0.07172
5858.68779,0.12203
5860.61626,0.13636
5862.54472,0.10066
5864.47319,0.07806
5866.40166,0.09460
5868.33013,0.11043
5870.25860,0.10104
5872.18707,0.07377
5874.11554,0.05476
5876.04400,0.06784
5877.97247,0.08769
5879.90094,0.08875
5881.82941,0.09075
5883.75788,0.09652
5885.68635,0.09067
5887.61482,0.07370
5889.54329,0.05782
5891.47175,0.04859
5893.40022,0.04095
5895.32869,0.04999
5897.25716,0.07770
5899.18563,0.09260
5901.11410,0.09058
5903.04257,0.08763
5904.97103,0.09511
5906.89950,0.12830
5908.82797,0.16680
5910.75644,0.16202
5912.68491,0.12129
5914.61338,0.09596
5916.54185,0.09846
5918.47032,0.09044
5920.39878,0.07424
5922.32725,0.08399
5924.25572,0.09510
5926.18419,0.08132
5928.11266,0.06531
5930.04113,0.06947
5931.96960,0.08711
5933.89806,0.10428
5935.82653,0.12221
5937.75500,0.14151
5939.68347,0.16071
5941.61194,0.17778
5943.54041,0.17270
5945.46888,0.12889
5947.39734,0.07086
5949.32581,0.04243
5951.25428,0.05546
5953.18275,0.08561
5955.11122,0.10302
5957.03969,0.10604
5958.96816,0.12001
5960.89663,0.12907
5962.82509,0.10665
5964.75356,0.09240
5966.68203,0.10712
5968.61050,0.11771
5970.53897,0.11685
5972.46744,0.09870
5974.39591,0.05390
5976.32437,0.03556
5978.25284,0.07484
5980.18131,0.11778
5982.10978,0.11930
5984.03825,0.11052
5985.96672,0.12523
5987.89519,0.13366
5989.82366,0.11297
5991.75212,0.08541
5993.68059,0.06970
5995.60906,0.07949
5997.53753,0.11682
5999.46600,0.15437
6001.39447,0.16648
6003.32294,0.14725
6005.25140,0.12494
6007.17987,0.11596
6009.10834,0.10066
6011.03681,0.08062
6012.96528,0.06024
6014.89375,0.04133
6016.82222,0.03083
6018.75069,0.02751
6020.67915,0.03347
6022.60762,0.04040
6024.53609,0.05097
6026.46456,0.08101
6028.39303,0.11893
6030.32150,0.12925
6032.24997,0.11016
6034.17843,0.09958
6036.10690,0.10433
6038.03537,0.11032
6039.96384,0.12392
6041.89231,0.13332
6043.82078,0.12036
6045.74925,0.09978
6047.67772,0.07950
6049.60618,0.05340
6051.53465,0.04963
6053.46312,0.09186
6055.39159,0.13633
6057.32006,0.13162
6059.24853,0.10797
6061.17700,0.09661
6063.10546,0.09928
6065.03393,0.10893
6066.96240,0.09462
6068.89087,0.07602
6070.81934,0.08495
6072.74781,0.08744
6074.67628,0.06616
6076.60475,0.05843
6078.53321,0.07387
6080.46168,0.09331
6082.39015,0.11742
6084.31862,0.13471
6086.24709,0.12886
6088.17556,0.09586
6090.10403,0.04019
6092.03249,-0.00108
6093.96096,0.00893
6095.88943,0.05636
6097.81790,0.07477
6099.74637,0.03507
6101.67484,-0.00618
6103.60331,-0.00166
6105.53177,0.03793
6107.46024,0.06562
6109.38871,0.06017
6111.31718,0.06240
6113.24565,0.07907
6115.17412,0.09461
6117.10259,0.11185
6119.03106,0.11260
6120.95952,0.09870
6122.88799,0.07999
6124.81646,0.05306
6126.74493,0.04311
6128.67340,0.05847
6130.60187,0.07481
6132.53034,0.08243
6134.45880,0.09234
6136.38727,0.10676
6138.31574,0.10191
6140.24421,0.08209
6142.17268,0.08333
6144.10115,0.09426
6146.02962,0.09249
6147.95809,0.08415
6149.88655,0.07826
6151.81502,0.09860
6153.74349,0.12543
6155.67196,0.11268
6157.60043,0.07371
6159.52890,0.05398
6161.45737,0.09516
6163.38583,0.15864
6165.31430,0.16637
6167.24277,0.14282
6169.17124,0.14203
6171.09971,0.15173
6173.02818,0.13221
6174.95665,0.06767
6176.88512,-0.00064
6178.81358,-0.01042
6180.74205,0.02550
6182.67052,0.05333
6184.59899,0.05443
6186.52746,0.03882
6188.45593,0.03216
6190.38440,0.05704
6192.31286,0.08165
6194.24133,0.05997
6196.16980,0.02567
6198.09827,0.02397
6200.02674,0.03513
6201.95521,0.05413
6203.88368,0.08887
6205.81215,0.10987
6207.74061,0.09650
6209.66908,0.06113
6211.59755,0.04527
6213.52602,0.07368
6215.45449,0.11493
6217.38296,0.14654
6219.31143,0.15952
6221.23989,0.13773
6223.16836,0.09262
6225.09683,0.06214
6227.02530,0.08128
6228.95377,0.12888
6230.88224,0.14543
6232.81071,0.13238
6234.73918,0.11669
6236.66764,0.09281
6238.59611,0.05154
6240.52458,0.00076
6242.45305,-0.01508
6244.38152,0.02642
6246.30999,0.08971
6248.23846,0.14274
6250.16692,0.15632
6252.09539,0.11163
6254.02386,0.05762
6255.95233,0.04524
6257.88080,0.06004
6259.80927,0.05992
6261.73774,0.03541
6263.66621,0.00580
6265.59467,0.00620
6267.52314,0.05366
6269.45161,0.09093
6271.38008,0.09444
6273.30855,0.10022
6275.23702,0.09147
6277.16549,0.04819
6279.09395,0.01565
6281.02242,0.02158
6282.95089,0.07390
6284.87936,0.14660
6286.80783,0.17250
6288.73630,0.15008
6290.66477,0.12308
6292.59323,0.08516
6294.52170,0.03857
6296.45017,0.01870
6298.37864,0.02450
6300.30711,0.04711
6302.23558,0.10472
6304.16405,0.18302
6306.09252,0.21431
6308.02098,0.16639
6309.94945,0.11666
6311.87792,0.11747
6313.80639,0.11630
6315.73486,0.12383
6317.66333,0.15256
6319.59180,0.14602
6321.52026,0.10217
6323.44873,0.05469
6325.37720,0.04230
6327.30567,0.07763
6329.23414,0.12812
6331.16261,0.15601
6333.09108,0.13019
6335.01955,0.05283
6336.94801,-0.02131
6338.87648,-0.02563
6340.80495,0.03426
6342.73342,0.08491
6344.66189,0.09525
6346.59036,0.07740
6348.51883,0.05014
6350.44729,0.04399
6352.37576,0.06149
6354.30423,0.05180
6356.23270,0.01585
6358.16117,0.00554
6360.08964,0.03624
6362.01811,0.09135
6363.94658,0.14140
6365.87504,0.16088
6367.80351,0.17471
6369.73198,0.15334
6371.66045,0.04308
6373.58892,-0.04581
6375.51739,-0.00712
6377.44586,0.07092
6379.37432,0.09983
6381.30279,0.10469
6383.23126,0.12886
6385.15973,0.15368
6387.08820,0.12827
6389.01667,0.05550
6390.94514,0.01081
6392.87361,0.03588
6394.80207,0.09417
6396.73054,0.14833
6398.65901,0.16926
6400.58748,0.13129
6402.51595,0.07002
6404.44442,0.02974
6406.37289,-0.00373
6408.30135,-0.02459
6410.22982,-0.01386
6412.15829,0.00683
6414.08676,0.01407
6416.01523,-0.00814
6417.94370,-0.05337
6419.87217,-0.06379
6421.80064,-0.03745
6423.72910,-0.00876
6425.65757,0.01669
6427.58604,0.00602
6429.51451,0.00427
6431.44298,0.06638
6433.37145,0.10822
6435.29992,0.09582
6437.22838,0.07172
6439.15685,0.07812
6441.08532,0.12589
6443.01379,0.18059
6444.94226,0.16257
6446.87073,0.06748
6448.79920,0.00529
6450.72766,0.02667
6452.65613,0.08642
6454.58460,0.14246
6456.51307,0.16891
6458.44154,0.17032
6460.37001,0.18819
6462.29848,0.19930
6464.22695,0.14893
6466.15541,0.07151
6468.08388,0.04008
6470.01235,0.05468
6471.94082,0.04265
6473.86929,0.00988
6475.79776,0.02844
6477.72623,0.07818
6479.65469,0.09111
6481.58316,0.08466
6483.51163,0.09366
6485.44010,0.10749
6487.36857,0.12685
6489.29704,0.13708
6491.22551,0.12478
6493.15398,0.10812
6495.08244,0.09357
6497.01091,0.06327
6498.93938,0.01792
6500.86785,0.01502
6502.79632,0.03978
6504.72479,0.01468
6506.65326,-0.01933
6508.58172,-0.00216
6510.51019,0.05236
6512.43866,0.10715
6514.36713,0.11679
6516.29560,0.07535
6518.22407,0.05117
6520.15254,0.07081
6522.08101,0.09245
6524.00947,0.08829
6525.93794,0.06971
6527.86641,0.04203
6529.79488,0.01410
6531.72335,0.04185
6533.65182,0.08323
6535.58029,0.05555
6537.50875,0.00342
6539.43722,-0.01761
6541.36569,-0.01540
6543.29416,-0.00713
6545.22263,-0.01339
6547.15110,-0.02516
6549.07957,-0.00250
6551.00804,0.04423
6552.93650,0.07944
6554.86497,0.10220
6556.79344,0.09581
6558.72191,0.07178
6560.65038,0.05689
6562.57885,0.05669
6564.50732,0.08062
6566.43578,0.11926
6568.36425,0.14283
6570.29272,0.15179
6572.22119,0.13708
6574.14966,0.07960
6576.07813,0.02145
6578.00660,-0.01678
6579.93507,-0.05037
6581.86353,-0.03195
6583.79200,0.04210
6585.72047,0.08341
6587.64894,0.07773
6589.57741,0.07505
6591.50588,0.08628
6593.43435,0.06265
6595.36281,0.01168
6597.29128,-0.01055
6599.21975,-0.01070
6601.14822,0.01181
6603.07669,0.02784
6605.00516,0.02611
6606.93363,0.04866
6608.86210,0.09023
6610.79056,0.12673
6612.71903,0.12734
6614.64750,0.08892
6616.57597,0.05111
6618.50444,0.04487
6620.43291,0.08574
6622.36138,0.13386
6624.28984,0.13366
6626.21831,0.10269
6628.14678,0.04465
6630.07525,-0.03236
6632.00372,-0.05228
6633.93219,-0.02911
6635.86066,0.01445
6637.78912,0.09067
6639.71759,0.14955
6641.64606,0.17932
6643.57453,0.19266
6645.50300,0.17588
6647.43147,0.13150
6649.35994,0.08124
6651.28841,0.06158
6653.21687,0.08598
6655.14534,0.08969
6657.07381,0.03561
6659.00228,-0.00020
6660.93075,0.02933
6662.85922,0.08291
6664.78769,0.11607
6666.71615,0.10763
6668.64462,0.02706
6670.57309,-0.07178
6672.50156,-0.08018
6674.43003,-0.01015
6676.35850,0.06768
6678.28697,0.11805
6680.21544,0.10023
6682.14390,0.03512
6684.07237,0.01554
6686.00084,0.02506
6687.92931,-0.02522
6689.85778,-0.07154
6691.78625,-0.05492
6693.71472,0.01136
6695.64318,0.13804
6697.57165,0.23519
6699.50012,0.22930
6701.42859,0.20042
6703.35706,0.15486
6705.28553,0.05280
6707.21400,0.00780
6709.14247,0.07684
6711.07093,0.11233
6712.99940,0.06131
6714.92787,-0.00411
6716.85634,-0.02125
6718.78481,0.00999
6720.71328,0.04206
6722.64175,0.06188
6724.57021,0.08001
6726.49868,0.09034
6728.42715,0.07489
6730.35562,0.01497
6732.28409,-0.02825
6734.21256,-0.02006
6736.14103,-0.00536
6738.06950,0.02116
6739.99796,0.06197
6741.92643,0.09293
6743.85490,0.11297
6745.78337,0.10615
6747.71184,0.07298
6749.64031,0.02431
6751.56878,-0.03886
6753.49724,-0.04290
6755.42571,0.02797
6757.35418,0.09169
6759.28265,0.14720
6761.21112,0.14121
6763.13959,0.05305
6765.06806,0.04007
6766.99653,0.09896
6768.92499,0.10086
6770.85346,0.06130
6772.78193,0.04053
6774.71040,0.03030
6776.63887,-0.00258
6778.56734,-0.02368
6780.49581,0.02258
6782.42427,0.09535
6784.35274,0.12937
6786.28121,0.11313
6788.20968,0.08711
6790.13815,0.07755
6792.06662,0.03906
6793.99509,-0.02104
6795.92355,-0.02415
6797.85202,0.03249
6799.78049,0.09429
6801.70896,0.14624
6803.63743,0.18392
6805.56590,0.17655
6807.49437,0.13268
6809.42284,0.08473
6811.35130,0.04332
6813.27977,0.04026
6815.20824,0.08839
6817.13671,0.10609
6819.06518,0.07129
6820.99365,0.07358
6822.92212,0.11200
6824.85058,0.11008
6826.77905,0.11440
6828.70752,0.13253
6830.63599,0.07889
6832.56446,0.00013
6834.49293,-0.01433
6836.42140,0.02890
6838.34987,0.03738
6840.27833,-0.03193
6842.20680,-0.11098
6844.13527,-0.13227
6846.06374,-0.05593
6847.99221,0.08901
6849.92068,0.14510
6851.84915,0.07661
6853.77761,0.02229
6855.70608,0.03620
6857.63455,0.04511
6859.56302,-0.00147
6861.49149,-0.06190
6863.41996,-0.08251
6865.34843,-0.04684
6867.27690,0.05043
6869.20536,0.16337
6871.13383,0.19448
6873.06230,0.11390
6874.99077,0.04953
6876.91924,0.07440
6878.84771,0.12069
6880.77618,0.09011
6882.70464,-0.01720
6884.63311,-0.08360
6886.56158,-0.06008
6888.49005,-0.02266
6890.41852,-0.02861
6892.34699,-0.05110
6894.27546,-0.03224
6896.20393,0.04067
6898.13239,0.09225
6900.06086,0.05857
6901.98933,0.00934
6903.91780,0.02693
6905.84627,0.07153
6907.77474,0.06632
6909.70321,0.02710
6911.63167,0.00124
6913.56014,0.05004
6915.48861,0.15773
6917.41708,0.23356
6919.34555,0.24342
6921.27402,0.21706
6923.20249,0.17368
6925.13096,0.12088
6927.05942,0.04328
6928.98789,-0.01762
6930.91636,0.04601
6932.84483,0.11551
6934.77330,0.06927
6936.70177,0.01737
6938.63024,-0.02507
6940.55870,-0.10043
6942.48717,-0.10498
6944.41564,0.06525
6946.34411,0.22192
6948.27258,0.12624
6950.20105,-0.03675
6952.12952,-0.06781
6954.05799,-0.03239
6955.98645,0.02673
6957.91492,0.11278
6959.84339,0.14835
6961.77186,0.05242
6963.70033,-0.09523
6965.62880,-0.15530
6967.55727,-0.10771
6969.48573,-0.02246
6971.41420,0.01751
6973.34267,0.04123
6975.27114,0.10916
6977.19961,0.13908
6979.12808,0.10328
6981.05655,0.04792
6982.98501,-0.01696
6984.91348,-0.03871
6986.84195,-0.00782
6988.77042,-0.00643
6990.69889,-0.03146
6992.62736,-0.03756
6994.55583,-0.02587
6996.48430,0.03822
6998.41276,0.10203
7000.34123,0.07473
7002.26970,0.05782
7004.19817,0.03162
7006.12664,-0.06257
7008.05511,-0.07751
7009.98358,0.00624
7011.91204,0.05077
7013.84051,-0.00601
7015.76898,-0.04370
7017.69745,0.07975
7019.62592,0.23485
7021.55439,0.23613
7023.48286,0.14886
7025.41133,0.11566
7027.33979,0.13841
7029.26826,0.14358
7031.19673,0.12387
7033.12520,0.11441
7035.05367,0.11959
7036.98214,0.13260
7038.91061,0.14168
7040.83907,0.16619
7042.76754,0.22196
7044.69601,0.22334
7046.62448,0.13023
7048.55295,0.00371
7050.48142,-0.06021
7052.40989,0.00909
7054.33836,0.13354
7056.26682,0.19644
7058.19529,0.19898
7060.12376,0.19832
7062.05223,0.19663
7063.98070,0.09883
7065.90917,-0.01193
7067.83764,-0.01525
7069.76610,-0.00242
7071.69457,-0.00980
7073.62304,-0.00411
7075.55151,-0.01915
7077.47998,-0.03697
7079.40845,0.02559
7081.33692,0.21487
7083.26539,0.27587
7085.19385,0.10389
7087.12232,-0.05836
7089.05079,-0.04570
7090.97926,0.01667
7092.90773,0.10918
7094.83620,0.29483
7096.76467,0.45313
7098.69313,0.41558
7100.62160,0.21964
7102.55007,0.10278
7104.47854,0.10574
7106.40701,0.05794
7108.33548,-0.03516
7110.26395,-0.06840
7112.19242,-0.08629
7114.12088,-0.08866
7116.04935,-0.02706
7117.97782,0.02439
7119.90629,-0.02482
7121.83476,-0.04697
7123.76323,0.05235
7125.69170,0.16042
7127.62016,0.17037
7129.54863,0.17857
7131.47710,0.24951
7133.40557,0.31665
7135.33404,0.32371
7137.26251,0.22861
7139.19098,0.00771
7141.11944,-0.23054
7143.04791,-0.30001
7144.97638,-0.14400
7146.90485,0.03672
7148.83332,0.06476
7150.76179,0.06913
7152.69026,0.10594
7154.61873,0.11572
7156.54719,0.15197
7158.47566,0.19931
7160.40413,0.19022
7162.33260,0.14068
7164.26107,0.06733
7166.18954,-0.02675
7168.11801,-0.07433
7170.04647,-0.07278
7171.97494,-0.04323
7173.90341,0.04212
7175.83188,0.06974
7177.76035,0.03203
7179.68882,0.05907
7181.61729,0.08311
7183.54576,0.06868
7185.47422,0.07097
7187.40269,0.08660
7189.33116,0.12162
7191.25963,0.16283
7193.18810,0.16872
7195.11657,0.15829
7197.04504,0.11935
7198.97350,0.01679
7200.90197,-0.05875
7202.83044,-0.03866
7204.75891,0.06357
7206.68738,0.17868
7208.61585,0.22629
7210.54432,0.20036
7212.47279,0.15781
7214.40125,0.13879
7216.32972,0.06170
7218.25819,-0.06664
7220.18666,0.01995
7222.11513,0.23296
7224.04360,0.32899
7225.97207,0.25365
7227.90053,0.14023
7229.82900,0.06351
7231.75747,-0.02869
7233.68594,-0.13183
7235.61441,-0.14202
7237.54288,-0.03934
7239.47135,0.07384
7241.39982,0.13574
7243.32828,0.10925
7245.25675,0.05425
7247.18522,0.10275
7249.11369,0.23095
7251.04216,0.30700
7252.97063,0.25052
7254.89910,0.21691
7256.82756,0.24069
7258.75603,0.17350
7260.68450,-0.00614
7262.61297,-0.12559
7264.54144,-0.08662
7266.46991,-0.01193
7268.39838,0.02224
7270.32685,0.07074
7272.25531,0.10155
7274.18378,0.05798
7276.11225,0.02608
7278.04072,0.02629
7279.96919,0.02478
7281.89766,0.04944
7283.82613,0.08849
7285.75459,0.04521
7287.68306,-0.02489
7289.61153,-0.02804
7291.54000,-0.01254
7293.46847,0.01431
7295.39694,0.05655
7297.32541,0.02968
7299.25387,0.02516
7301.18234,0.14730
7303.11081,0.26702
7305.03928,0.28122
7306.96775,0.23197
7308.89622,0.08079
7310.82469,-0.03743
7312.75316,0.04406
7314.68162,0.15738
7316.61009,0.10342
7318.53856,-0.00524
7320.46703,0.01764
7322.39550,0.04113
7324.32397,-0.02884
7326.25244,-0.05956
7328.18090,-0.00320
7330.10937,0.01853
7332.03784,-0.10303
7333.96631,-0.21116
7335.89478,-0.14952
7337.82325,0.03701
7339.75172,0.24566
7341.68019,0.27766
7343.60865,0.20270
7345.53712,0.17081
7347.46559,0.20337
7349.39406,0.22227
7351.32253,0.18970
7353.25100,0.17811
7355.17947,0.19039
7357.10793,0.15629
7359.03640,0.12533
7360.96487,0.07625
7362.89334,-0.03529
7364.82181,0.00903
7366.75028,0.20131
7368.67875,0.24821
7370.60722,0.06687
7372.53568,-0.10316
7374.46415,-0.07892
7376.39262,0.11150
7378.32109,0.21835
7380.24956,0.17722
7382.17803,0.10182
7384.10650,0.13348
7386.03496,0.16171
7387.96343,0.06527
7389.89190,-0.06560
7391.82037,-0.13579
7393.74884,-0.06629
7395.67731,0.09131
7397.60578,0.11248
7399.53425,0.04448
7401.46271,0.04984
7403.39118,0.11597
7405.31965,0.15662
7407.24812,0.07669
7409.17659,-0.07641
7411.10506,-0.11192
7413.03353,0.00136
7414.96199,0.13831
7416.89046,0.24503
7418.81893,0.25200
7420.74740,0.10500
7422.67587,-0.02527
7424.60434,-0.06350
7426.53281,-0.09356
7428.46128,-0.15000
7430.38974,-0.15263
7432.31821,-0.10179
7434.24668,-0.03898
7436.17515,0.01107
7438.10362,0.02349
7440.03209,0.07321
7441.96056,0.12264
7443.88902,0.11216
7445.81749,0.06735
7447.74596,0.00247
7449.67443,-0.05322
7451.60290,-0.04029
7453.53137,0.05900
7455.45984,0.15113
7457.38831,0.21270
7459.31677,0.23145
7461.24524,0.11238
7463.17371,0.00292
7465.10218,0.08876
7467.03065,0.21596
7468.95912,0.25555
7470.88759,0.30088
7472.81605,0.26636
7474.74452,0.14045
7476.67299,0.10265
7478.60146,0.09347
7480.52993,0.04462
7482.45840,0.04389
7484.38687,0.03258
7486.31533,-0.03287
7488.24380,-0.09202
7490.17227,-0.06024
7492.10074,0.00295
7494.02921,-0.00255
7495.95768,-0.06567
7497.88615,-0.16523
