399.19301,0.39823
401.12148,-0.39486
403.04995,-0.03678
404.97842,0.12839
406.90689,0.03338
408.83536,-0.04962
410.76382,0.01855
412.69229,0.15233
414.62076,0.22841
416.54923,0.23722
418.47770,0.28228
420.40617,0.30430
422.33464,0.13636
424.26311,-0.05326
426.19157,-0.01167
428.12004,0.17448
430.04851,0.27594
431.97698,0.23388
433.90545,0.15295
435.83392,0.08788
437.76239,0.07748
439.69085,0.17327
441.61932,0.30452
443.54779,0.33610
445.47626,0.29091
447.40473,0.23178
449.33320,0.20346
451.26167,0.19268
453.19013,0.15373
455.11860,0.11111
457.04707,0.06750
458.97554,0.02706
460.90401,0.05270
462.83248,0.12509
464.76095,0.15799
466.68942,0.12696
468.61788,0.11181
470.54635,0.16417
472.47482,0.22041
474.40329,0.19215
476.33176,0.15490
478.26023,0.11482
480.18870,0.03885
482.11716,-0.01570
484.04563,0.02480
485.97410,0.09321
487.90257,0.09818
489.83104,0.07966
491.75951,0.07381
493.68798,0.05912
495.61645,0.06527
497.54491,0.11454
499.47338,0.13011
501.40185,0.08836
503.33032,0.04629
505.25879,0.01600
507.18726,0.00960
509.11573,0.03542
511.04419,0.04241
512.97266,0.02748
514.90113,0.01345
516.82960,0.00418
518.75807,0.01273
520.68654,0.04004
522.61501,0.09140
524.54348,0.13910
526.47194,0.11808
528.40041,0.07323
530.32888,0.06526
532.25735,0.07167
534.18582,0.07219
536.11429,0.06802
538.04276,0.06802
539.97122,0.08421
541.89969,0.10230
543.82816,0.09629
545.75663,0.07214
547.68510,0.05406
549.61357,0.05296
551.54204,0.05841
553.47051,0.06489
555.39897,0.08200
557.32744,0.10381
559.25591,0.11811
561.18438,0.12317
563.11285,0.12611
565.04132,0.12631
566.96979,0.10730
568.89825,0.08363
570.82672,0.07883
572.75519,0.09029
574.68366,0.10339
576.61213,0.09374
578.54060,0.08052
580.46907,0.09378
582.39754,0.10916
584.32600,0.10781
586.25447,0.09356
588.18294,0.07954
590.11141,0.09727
592.03988,0.13467
593.96835,0.14180
595.89682,0.11474
597.82528,0.09021
599.75375,0.09625
601.68222,0.11812
603.61069,0.12264
605.53916,0.10619
607.46763,0.08911
609.39610,0.08042
611.32456,0.07482
613.25303,0.07665
615.18150,0.08429
617.10997,0.08486
619.03844,0.08193
620.96691,0.08753
622.89538,0.10558
624.82385,0.12314
626.75231,0.13118
628.68078,0.14089
630.60925,0.14713
632.53772,0.13536
634.46619,0.12173
636.39466,0.12238
638.32313,0.12521
640.25159,0.12107
642.18006,0.11873
644.10853,0.12391
646.03700,0.13143
647.96547,0.13650
649.89394,0.13108
651.82241,0.12018
653.75088,0.12385
655.67934,0.12863
657.60781,0.11310
659.53628,0.09483
661.46475,0.09267
663.39322,0.09749
665.32169,0.09783
667.25016,0.09870
669.17862,0.09775
671.10709,0.08106
673.03556,0.06656
674.96403,0.07582
676.89250,0.10469
678.82097,0.12136
680.74944,0.12528
682.67791,0.13460
684.60637,0.13448
686.53484,0.11634
688.46331,0.10854
690.39178,0.11946
692.32025,0.12841
694.24872,0.13488
696.17719,0.13933
698.10565,0.12791
700.03412,0.10947
701.96259,0.10704
703.89106,0.11590
705.81953,0.11214
707.74800,0.09863
709.67647,0.09817
711.60494,0.11035
713.53340,0.11533
715.46187,0.11011
717.39034,0.11077
719.31881,0.11746
721.24728,0.11765
723.17575,0.11615
725.10422,0.12030
727.03268,0.12469
728.96115,0.12483
730.88962,0.12088
732.81809,0.11815
734.74656,0.12029
736.67503,0.12393
738.60350,0.12846
740.53197,0.13067
742.46043,0.12687
744.38890,0.12499
746.31737,0.12656
748.24584,0.12068
750.17431,0.10984
752.10278,0.10614
754.03125,0.11283
755.95971,0.12562
757.88818,0.13314
759.81665,0.12723
761.74512,0.11261
763.67359,0.10170
765.60206,0.10382
767.53053,0.11340
769.45900,0.12096
771.38746,0.12217
773.31593,0.11562
775.24440,0.10897
777.17287,0.10547
779.10134,0.10537
781.02981,0.11546
782.95828,0.12836
784.88674,0.13598
786.81521,0.13854
788.74368,0.13298
790.67215,0.12863
792.60062,0.13329
794.52909,0.13711
796.45756,0.13477
798.38602,0.13415
800.31449,0.13572
802.24296,0.13447
804.17143,0.13388
806.09990,0.13449
808.02837,0.13216
809.95684,0.12592
811.88531,0.12192
813.81377,0.12726
815.74224,0.13718
817.67071,0.14404
819.59918,0.14262
821.52765,0.13202
823.45612,0.12670
825.38459,0.13649
827.31305,0.14527
829.24152,0.14604
831.16999,0.14711
833.09846,0.14184
835.02693,0.13397
836.95540,0.13858
838.88387,0.14558
840.81234,0.13782
842.74080,0.11969
844.66927,0.11249
846.59774,0.12573
848.52621,0.14145
850.45468,0.14513
852.38315,0.14410
854.31162,0.14175
856.24008,0.13451
858.16855,0.12944
860.09702,0.13355
862.02549,0.13882
863.95396,0.13611
865.88243,0.13577
867.81090,0.14936
869.73937,0.16534
871.66783,0.16510
873.59630,0.14851
875.52477,0.13262
877.45324,0.12845
879.38171,0.12917
881.31018,0.12749
883.23865,0.12422
885.16711,0.11996
887.09558,0.11891
889.02405,0.12652
890.95252,0.13708
892.88099,0.13710
894.80946,0.12601
896.73793,0.12193
898.66640,0.12902
900.59486,0.13437
902.52333,0.13466
904.45180,0.13521
906.38027,0.14000
908.30874,0.14264
910.23721,0.13935
912.16568,0.13836
914.09414,0.13799
916.02261,0.13337
917.95108,0.12883
919.87955,0.12590
921.80802,0.12443
923.73649,0.12688
925.66496,0.13119
927.59343,0.13247
929.52189,0.13090
931.45036,0.12969
933.37883,0.12987
935.30730,0.13200
937.23577,0.13692
939.16424,0.13908
941.09271,0.13515
943.02117,0.13328
944.94964,0.13642
946.87811,0.14014
948.80658,0.14261
950.73505,0.14148
952.66352,0.13783
954.59199,0.13880
956.52045,0.14362
958.44892,0.14434
960.37739,0.13915
962.30586,0.13217
964.23433,0.12945
966.16280,0.12954
968.09127,0.12825
970.01974,0.12932
971.94820,0.13135
973.87667,0.13037
975.80514,0.13122
977.73361,0.13547
979.66208,0.13822
981.59055,0.13672
983.51902,0.13201
985.44748,0.12837
987.37595,0.12665
989.30442,0.12582
991.23289,0.13136
993.16136,0.14131
995.08983,0.14313
997.01830,0.13705
998.94677,0.13452
1000.87523,0.13637
1002.80370,0.13766
1004.73217,0.14001
1006.66064,0.14581
1008.58911,0.14976
1010.51758,0.14706
1012.44605,0.14595
1014.37451,0.14835
1016.30298,0.14370
1018.23145,0.13674
1020.15992,0.13865
1022.08839,0.14540
1024.01686,0.15029
1025.94533,0.15234
1027.87380,0.15180
1029.80226,0.15050
1031.73073,0.15007
1033.65920,0.15039
1035.58767,0.15122
1037.51614,0.15574
1039.44461,0.16309
1041.37308,0.16406
1043.30154,0.15720
1045.23001,0.14948
1047.15848,0.14663
1049.08695,0.14823
1051.01542,0.15051
1052.94389,0.15436
1054.87236,0.15596
1056.80083,0.14904
1058.72929,0.14287
1060.65776,0.14787
1062.58623,0.15510
1064.51470,0.15397
1066.44317,0.14868
1068.37164,0.14649
1070.30011,0.14704
1072.22857,0.15017
1074.15704,0.15835
1076.08551,0.16622
1078.01398,0.16602
1079.94245,0.15993
1081.87092,0.15616
1083.79939,0.15780
1085.72786,0.16119
1087.65632,0.16332
1089.58479,0.16511
1091.51326,0.16604
1093.44173,0.16538
1095.37020,0.16537
1097.29867,0.16526
1099.22714,0.16595
1101.15560,0.16690
1103.08407,0.16154
1105.01254,0.15610
1106.94101,0.15735
1108.86948,0.15626
1110.79795,0.15151
1112.72642,0.15225
1114.65489,0.16035
1116.58335,0.17046
1118.51182,0.17402
1120.44029,0.16882
1122.36876,0.16426
1124.29723,0.16346
1126.22570,0.15971
1128.15417,0.15382
1130.08263,0.15058
1132.01110,0.15066
1133.93957,0.15216
1135.86804,0.15139
1137.79651,0.14979
1139.72498,0.14854
1141.65345,0.14639
1143.58191,0.14831
1145.51038,0.15590
1147.43885,0.16172
1149.36732,0.15997
1151.29579,0.15549
1153.22426,0.15642
1155.15273,0.16054
1157.08120,0.16250
1159.00966,0.16285
1160.93813,0.16091
1162.86660,0.15637
1164.79507,0.15398
1166.72354,0.15546
1168.65201,0.15847
1170.58048,0.16198
1172.50894,0.16476
1174.43741,0.16463
1176.36588,0.16243
1178.29435,0.16076
1180.22282,0.15929
1182.15129,0.15936
1184.07976,0.16231
1186.00823,0.16314
1187.93669,0.16014
1189.86516,0.15859
1191.79363,0.16033
1193.72210,0.16298
1195.65057,0.16480
1197.57904,0.16506
1199.50751,0.16484
1201.43597,0.16512
1203.36444,0.16376
1205.29291,0.16070
1207.22138,0.16048
1209.14985,0.16374
1211.07832,0.16597
1213.00679,0.16727
1214.93526,0.16960
1216.86372,0.16908
1218.79219,0.16475
1220.72066,0.16087
1222.64913,0.15849
1224.57760,0.15673
1226.50607,0.15658
1228.43454,0.15979
1230.36300,0.16441
1232.29147,0.16676
1234.21994,0.16761
1236.14841,0.16861
1238.07688,0.16884
1240.00535,0.16887
1241.93382,0.16869
1243.86229,0.16632
1245.79075,0.16305
1247.71922,0.16241
1249.64769,0.16363
1251.57616,0.16327
1253.50463,0.16266
1255.43310,0.16364
1257.36157,0.16415
1259.29003,0.16298
1261.21850,0.16076
1263.14697,0.15863
1265.07544,0.15766
1267.00391,0.15976
1268.93238,0.16498
1270.86085,0.16986
1272.78932,0.17142
1274.71778,0.16918
1276.64625,0.16768
1278.57472,0.16929
1280.50319,0.16934
1282.43166,0.16798
1284.36013,0.17001
1286.28860,0.17288
1288.21706,0.17221
1290.14553,0.17131
1292.07400,0.17360
1294.00247,0.17585
1295.93094,0.17473
1297.85941,0.17112
1299.78788,0.16487
1301.71634,0.15569
1303.64481,0.14894
1305.57328,0.15145
1307.50175,0.16241
1309.43022,0.17249
1311.35869,0.17667
1313.28716,0.17668
1315.21563,0.17306
1317.14409,0.16901
1319.07256,0.16847
1321.00103,0.17089
1322.92950,0.17445
1324.85797,0.17439
1326.78644,0.16937
1328.71491,0.16639
1330.64337,0.16677
1332.57184,0.16781
1334.50031,0.16825
1336.42878,0.16702
1338.35725,0.16770
1340.28572,0.17048
1342.21419,0.17242
1344.14266,0.17278
1346.07112,0.17330
1347.99959,0.17730
1349.92806,0.17798
1351.85653,0.17187
1353.78500,0.16736
1355.71347,0.16880
1357.64194,0.17420
1359.57040,0.17937
1361.49887,0.18151
1363.42734,0.17959
1365.35581,0.17662
1367.28428,0.17590
1369.21275,0.17718
1371.14122,0.18060
1373.06969,0.18514
1374.99815,0.18635
1376.92662,0.18305
1378.85509,0.17932
1380.78356,0.17806
1382.71203,0.17938
1384.64050,0.18214
1386.56897,0.18556
1388.49743,0.18528
1390.42590,0.18184
1392.35437,0.18171
1394.28284,0.18444
1396.21131,0.18526
1398.13978,0.18367
1400.06825,0.18073
1401.99672,0.17823
1403.92518,0.17965
1405.85365,0.18356
1407.78212,0.18367
1409.71059,0.18149
1411.63906,0.18048
1413.56753,0.17901
1415.49600,0.17818
1417.42446,0.18053
1419.35293,0.18188
1421.28140,0.18321
1423.20987,0.18716
1425.13834,0.18633
1427.06681,0.18123
1428.99528,0.17863
1430.92375,0.17987
1432.85221,0.18301
1434.78068,0.18580
1436.70915,0.18598
1438.63762,0.18559
1440.56609,0.18662
1442.49456,0.18615
1444.42303,0.18570
1446.35149,0.18786
1448.27996,0.18987
1450.20843,0.19111
1452.13690,0.19395
1454.06537,0.19834
1455.99384,0.20260
1457.92231,0.19977
1459.85077,0.19304
1461.77924,0.19167
1463.70771,0.19345
1465.63618,0.19331
1467.56465,0.19163
1469.49312,0.19321
1471.42159,0.19980
1473.35006,0.20604
1475.27852,0.20444
1477.20699,0.19965
1479.13546,0.19435
1481.06393,0.18891
1482.99240,0.18589
1484.92087,0.18978
1486.84934,0.20136
1488.77780,0.21126
1490.70627,0.20798
1492.63474,0.20120
1494.56321,0.19980
1496.49168,0.20146
1498.42015,0.19968
1500.34862,0.19474
1502.27709,0.19177
1504.20555,0.19484
1506.13402,0.20910
1508.06249,0.21506
1509.99096,0.20312
1511.91943,0.19808
1513.84790,0.20325
1515.77637,0.21317
1517.70483,0.21920
1519.63330,0.21951
1521.56177,0.21735
1523.49024,0.21162
1525.41871,0.20571
1527.34718,0.20020
1529.27565,0.19749
1531.20412,0.20184
1533.13258,0.20737
1535.06105,0.20469
1536.98952,0.20457
1538.91799,0.21390
1540.84646,0.21968
1542.77493,0.21455
1544.70340,0.20780
1546.63186,0.20054
1548.56033,0.19833
1550.48880,0.20060
1552.41727,0.20401
1554.34574,0.20931
1556.27421,0.21600
1558.20268,0.22131
1560.13115,0.21385
1562.05961,0.20429
1563.98808,0.19954
1565.91655,0.19883
1567.84502,0.20452
1569.77349,0.21251
1571.70196,0.21229
1573.63043,0.20769
1575.55889,0.20159
1577.48736,0.19470
1579.41583,0.19177
1581.34430,0.19026
1583.27277,0.18795
1585.20124,0.18580
1587.12971,0.18539
1589.05818,0.18650
1590.98664,0.18801
1592.91511,0.19048
1594.84358,0.19249
1596.77205,0.19113
1598.70052,0.18969
1600.62899,0.19120
1602.55746,0.19259
1604.48592,0.19255
1606.41439,0.19249
1608.34286,0.19266
1610.27133,0.19304
1612.19980,0.19310
1614.12827,0.19574
1616.05674,0.20388
1617.98521,0.20659
1619.91367,0.20258
1621.84214,0.20315
1623.77061,0.20483
1625.69908,0.20227
1627.62755,0.20035
1629.55602,0.19858
1631.48449,0.19718
1633.41295,0.19991
1635.34142,0.20554
1637.26989,0.20472
1639.19836,0.20157
1641.12683,0.20186
1643.05530,0.20549
1644.98377,0.21473
1646.91223,0.22481
1648.84070,0.22336
1650.76917,0.22402
1652.69764,0.23275
1654.62611,0.22689
1656.55458,0.21420
1658.48305,0.20891
1660.41152,0.21026
1662.33998,0.21197
1664.26845,0.20716
1666.19692,0.20483
1668.12539,0.21182
1670.05386,0.21886
1671.98233,0.21545
1673.91080,0.21080
1675.83926,0.20706
1677.76773,0.20349
1679.69620,0.20344
1681.62467,0.20932
1683.55314,0.21948
1685.48161,0.21901
1687.41008,0.21097
1689.33855,0.20620
1691.26701,0.20538
1693.19548,0.20926
1695.12395,0.21659
1697.05242,0.22162
1698.98089,0.22100
1700.90936,0.21372
1702.83783,0.20972
1704.76629,0.21287
1706.69476,0.21125
1708.62323,0.20315
1710.55170,0.19821
1712.48017,0.19846
1714.40864,0.20344
1716.33711,0.20944
1718.26558,0.20433
1720.19404,0.19495
1722.12251,0.19161
1724.05098,0.19111
1725.97945,0.19196
1727.90792,0.19602
1729.83639,0.20133
1731.76486,0.20485
1733.69332,0.20495
1735.62179,0.20237
1737.55026,0.20232
1739.47873,0.20288
1741.40720,0.20144
1743.33567,0.20014
1745.26414,0.20103
1747.19261,0.20497
1749.12107,0.21075
1751.04954,0.21089
1752.97801,0.20392
1754.90648,0.19755
1756.83495,0.19494
1758.76342,0.19721
1760.69189,0.20188
1762.62035,0.20111
1764.54882,0.19622
1766.47729,0.19595
1768.40576,0.20123
1770.33423,0.20815
1772.26270,0.20950
1774.19117,0.20247
1776.11964,0.19562
1778.04810,0.19266
1779.97657,0.19291
1781.90504,0.19350
1783.83351,0.19439
1785.76198,0.19656
1787.69045,0.19846
1789.61892,0.20030
1791.54738,0.20138
1793.47585,0.19947
1795.40432,0.19799
1797.33279,0.19865
1799.26126,0.19922
1801.18973,0.19721
1803.11820,0.19264
1805.04666,0.19021
1806.97513,0.19259
1808.90360,0.19763
1810.83207,0.19968
1812.76054,0.19550
1814.68901,0.19178
1816.61748,0.19374
1818.54595,0.19699
1820.47441,0.19818
1822.40288,0.20071
1824.33135,0.20346
1826.25982,0.20422
1828.18829,0.20622
1830.11676,0.20528
1832.04523,0.19793
1833.97369,0.19166
1835.90216,0.18994
1837.83063,0.19081
1839.75910,0.19235
1841.68757,0.19451
1843.61604,0.19646
1845.54451,0.19568
1847.47298,0.19203
1849.40144,0.18985
1851.32991,0.19088
1853.25838,0.19183
1855.18685,0.19109
1857.11532,0.19021
1859.04379,0.19013
1860.97226,0.19062
1862.90072,0.19148
1864.82919,0.19479
1866.75766,0.20261
1868.68613,0.20850
1870.61460,0.20439
1872.54307,0.19624
1874.47154,0.18990
1876.40001,0.18643
1878.32847,0.18581
1880.25694,0.18739
1882.18541,0.19072
1884.11388,0.19486
1886.04235,0.19764
1887.97082,0.19940
1889.89929,0.19949
1891.82775,0.19690
1893.75622,0.19579
1895.68469,0.19618
1897.61316,0.19536
1899.54163,0.19491
1901.47010,0.19565
1903.39857,0.19588
1905.32704,0.19477
1907.25550,0.19341
1909.18397,0.19252
1911.11244,0.19122
1913.04091,0.18977
1914.96938,0.18970
1916.89785,0.19014
1918.82632,0.18969
1920.75478,0.18987
1922.68325,0.18932
1924.61172,0.18672
1926.54019,0.18684
1928.46866,0.19002
1930.39713,0.19116
1932.32560,0.19058
1934.25407,0.19165
1936.18253,0.19424
1938.11100,0.19672
1940.03947,0.19774
1941.96794,0.19707
1943.89641,0.19536
1945.82488,0.19359
1947.75335,0.19280
1949.68181,0.19198
1951.61028,0.19129
1953.53875,0.19305
1955.46722,0.19632
1957.39569,0.19779
1959.32416,0.19664
1961.25263,0.19605
1963.18110,0.19838
1965.10956,0.20144
1967.03803,0.20201
1968.96650,0.19956
1970.89497,0.19679
1972.82344,0.19563
1974.75191,0.19606
1976.68038,0.19638
1978.60884,0.19498
1980.53731,0.19359
1982.46578,0.19377
1984.39425,0.19457
1986.32272,0.19454
1988.25119,0.19352
1990.17966,0.19389
1992.10812,0.19478
1994.03659,0.19278
1995.96506,0.19074
1997.89353,0.19150
1999.82200,0.19331
2001.75047,0.19511
2003.67894,0.19610
2005.60741,0.19527
2007.53587,0.19351
2009.46434,0.19299
2011.39281,0.19545
2013.32128,0.19900
2015.24975,0.20098
2017.17822,0.20133
2019.10669,0.19966
2021.03515,0.19727
2022.96362,0.19606
2024.89209,0.19397
2026.82056,0.19181
2028.74903,0.19313
2030.67750,0.19475
2032.60597,0.19334
2034.53444,0.19170
2036.46290,0.19197
2038.39137,0.19348
2040.31984,0.19514
2042.24831,0.19642
2044.17678,0.19743
2046.10525,0.19762
2048.03372,0.19619
2049.96218,0.19422
2051.89065,0.19401
2053.81912,0.19518
2055.74759,0.19496
2057.67606,0.19392
2059.60453,0.19460
2061.53300,0.19588
2063.46147,0.19610
2065.38993,0.19606
2067.31840,0.19629
2069.24687,0.19588
2071.17534,0.19593
2073.10381,0.19758
2075.03228,0.19738
2076.96075,0.19423
2078.88921,0.19200
2080.81768,0.19291
2082.74615,0.19462
2084.67462,0.19449
2086.60309,0.19436
2088.53156,0.19575
2090.46003,0.19650
2092.38850,0.19443
2094.31696,0.19162
2096.24543,0.19152
2098.17390,0.19270
2100.10237,0.19293
2102.03084,0.19339
2103.95931,0.19530
2105.88778,0.19776
2107.81624,0.19922
2109.74471,0.19876
2111.67318,0.19705
2113.60165,0.19607
2115.53012,0.19570
2117.45859,0.19434
2119.38706,0.19323
2121.31553,0.19373
2123.24399,0.19460
2125.17246,0.19576
2127.10093,0.19649
2129.02940,0.19508
2130.95787,0.19431
2132.88634,0.19570
2134.81481,0.19497
2136.74327,0.19196
2138.67174,0.19204
2140.60021,0.19458
2142.52868,0.19561
2144.45715,0.19597
2146.38562,0.19664
2148.31409,0.19728
2150.24255,0.19803
2152.17102,0.19815
2154.09949,0.19682
2156.02796,0.19517
2157.95643,0.19559
2159.88490,0.19768
2161.81337,0.19947
2163.74184,0.20071
2165.67030,0.20058
2167.59877,0.19895
2169.52724,0.19786
2171.45571,0.19752
2173.38418,0.19680
2175.31265,0.19674
2177.24112,0.19862
2179.16958,0.20013
2181.09805,0.19820
2183.02652,0.19489
2184.95499,0.19354
2186.88346,0.19365
2188.81193,0.19410
2190.74040,0.19471
2192.66887,0.19596
2194.59733,0.19801
2196.52580,0.19840
2198.45427,0.19676
2200.38274,0.19566
2202.31121,0.19509
2204.23968,0.19456
2206.16815,0.19449
2208.09661,0.19464
2210.02508,0.19525
2211.95355,0.19665
2213.88202,0.19805
2215.81049,0.19825
2217.73896,0.19759
2219.66743,0.19707
2221.59590,0.19615
2223.52436,0.19523
2225.45283,0.19545
2227.38130,0.19627
2229.30977,0.19719
2231.23824,0.19859
2233.16671,0.19942
2235.09518,0.19742
2237.02364,0.19452
2238.95211,0.19592
2240.88058,0.20044
2242.80905,0.20267
2244.73752,0.20244
2246.66599,0.20104
2248.59446,0.19805
2250.52293,0.19502
2252.45139,0.19373
2254.37986,0.19450
2256.30833,0.19681
2258.23680,0.19841
2260.16527,0.19727
2262.09374,0.19650
2264.02221,0.19957
2265.95067,0.20250
2267.87914,0.20069
2269.80761,0.19739
2271.73608,0.19766
2273.66455,0.19861
2275.59302,0.19616
2277.52149,0.19353
2279.44996,0.19398
2281.37842,0.19639
2283.30689,0.19790
2285.23536,0.19730
2287.16383,0.19653
2289.09230,0.19739
2291.02077,0.19807
2292.94924,0.19642
2294.87770,0.19422
2296.80617,0.19433
2298.73464,0.19774
2300.66311,0.20110
2302.59158,0.20143
2304.52005,0.20154
2306.44852,0.20109
2308.37699,0.19853
2310.30545,0.19789
2312.23392,0.19910
2314.16239,0.19858
2316.09086,0.19753
2318.01933,0.19873
2319.94780,0.20064
2321.87627,0.19876
2323.80473,0.19700
2325.73320,0.20107
2327.66167,0.20236
2329.59014,0.19680
2331.51861,0.18974
2333.44708,0.18202
2335.37555,0.18112
2337.30401,0.18703
2339.23248,0.18949
2341.16095,0.19486
2343.08942,0.20226
2345.01789,0.20175
2346.94636,0.20156
2348.87483,0.20286
2350.80330,0.20054
2352.73176,0.19779
2354.66023,0.20331
2356.58870,0.21652
2358.51717,0.22312
2360.44564,0.21336
2362.37411,0.20031
2364.30258,0.20075
2366.23104,0.20968
2368.15951,0.20768
2370.08798,0.19704
2372.01645,0.19135
2373.94492,0.19136
2375.87339,0.19469
2377.80186,0.19826
2379.73033,0.19920
2381.65879,0.19863
2383.58726,0.19827
2385.51573,0.19768
2387.44420,0.19620
2389.37267,0.19377
2391.30114,0.19148
2393.22961,0.19235
2395.15807,0.19653
2397.08654,0.20043
2399.01501,0.20174
2400.94348,0.20082
2402.87195,0.19906
2404.80042,0.19769
2406.72889,0.19812
2408.65736,0.19930
2410.58582,0.19881
2412.51429,0.19725
2414.44276,0.19680
2416.37123,0.19873
2418.29970,0.20155
2420.22817,0.20317
2422.15664,0.20274
2424.08510,0.20038
2426.01357,0.19911
2427.94204,0.20028
2429.87051,0.20113
2431.79898,0.20026
2433.72745,0.19810
2435.65592,0.19581
2437.58439,0.19594
2439.51285,0.19926
2441.44132,0.20276
2443.36979,0.20367
2445.29826,0.20260
2447.22673,0.20144
2449.15520,0.20154
2451.08367,0.20179
2453.01213,0.20029
2454.94060,0.19833
2456.86907,0.19719
2458.79754,0.19625
2460.72601,0.19556
2462.65448,0.19581
2464.58295,0.19797
2466.51142,0.20099
2468.43988,0.20186
2470.36835,0.20130
2472.29682,0.20111
2474.22529,0.20021
2476.15376,0.20004
2478.08223,0.20190
2480.01070,0.20353
2481.93916,0.20390
2483.86763,0.20293
2485.79610,0.20099
2487.72457,0.19969
2489.65304,0.19949
2491.58151,0.19935
2493.50998,0.19852
2495.43844,0.19719
2497.36691,0.19668
2499.29538,0.19823
2501.22385,0.20116
2503.15232,0.20273
2505.08079,0.20080
2507.00926,0.19767
2508.93773,0.19715
2510.86619,0.19927
2512.79466,0.20105
2514.72313,0.20038
2516.65160,0.19878
2518.58007,0.19903
2520.50854,0.20064
2522.43701,0.20019
2524.36547,0.19721
2526.29394,0.19584
2528.22241,0.19681
2530.15088,0.19662
2532.07935,0.19616
2534.00782,0.19829
2535.93629,0.20097
2537.86476,0.20172
2539.79322,0.20066
2541.72169,0.19845
2543.65016,0.19714
2545.57863,0.19781
2547.50710,0.19904
2549.43557,0.20112
2551.36404,0.20421
2553.29250,0.20580
2555.22097,0.20513
2557.14944,0.20394
2559.07791,0.20379
2561.00638,0.20469
2562.93485,0.20508
2564.86332,0.20471
2566.79179,0.20464
2568.72025,0.20445
2570.64872,0.20388
2572.57719,0.20381
2574.50566,0.20363
2576.43413,0.20287
2578.36260,0.20195
2580.29107,0.20012
2582.21953,0.19780
2584.14800,0.19709
2586.07647,0.19884
2588.00494,0.20110
2589.93341,0.20155
2591.86188,0.20133
2593.79035,0.20255
2595.71882,0.20352
2597.64728,0.20229
2599.57575,0.19992
2601.50422,0.19797
2603.43269,0.19825
2605.36116,0.19997
2607.28963,0.20099
2609.21810,0.20157
2611.14656,0.20205
2613.07503,0.20265
2615.00350,0.20325
2616.93197,0.20364
2618.86044,0.20443
2620.78891,0.20553
2622.71738,0.20548
2624.64585,0.20468
2626.57431,0.20550
2628.50278,0.20687
2630.43125,0.20666
2632.35972,0.20441
2634.28819,0.20234
2636.21666,0.20404
2638.14513,0.20718
2640.07359,0.20747
2642.00206,0.20651
2643.93053,0.20679
2645.85900,0.20661
2647.78747,0.20543
2649.71594,0.20615
2651.64441,0.20795
2653.57288,0.20719
2655.50134,0.20605
2657.42981,0.20737
2659.35828,0.20764
2661.28675,0.20596
2663.21522,0.20538
2665.14369,0.20609
2667.07216,0.20711
2669.00062,0.20719
2670.92909,0.20605
2672.85756,0.20633
2674.78603,0.20898
2676.71450,0.21049
2678.64297,0.20833
2680.57144,0.20574
2682.49990,0.20650
2684.42837,0.20843
2686.35684,0.20795
2688.28531,0.20612
2690.21378,0.20537
2692.14225,0.20563
2694.07072,0.20576
2695.99919,0.20597
2697.92765,0.20769
2699.85612,0.21055
2701.78459,0.21106
2703.71306,0.20821
2705.64153,0.20529
2707.57000,0.20463
2709.49847,0.20688
2711.42693,0.20931
2713.35540,0.20825
2715.28387,0.20670
2717.21234,0.20751
2719.14081,0.20889
2721.06928,0.21016
2722.99775,0.21040
2724.92622,0.20908
2726.85468,0.20836
2728.78315,0.20965
2730.71162,0.21140
2732.64009,0.21250
2734.56856,0.21326
2736.49703,0.21172
2738.42550,0.20867
2740.35396,0.20900
2742.28243,0.21161
2744.21090,0.21176
2746.13937,0.21047
2748.06784,0.21039
2749.99631,0.21093
2751.92478,0.21200
2753.85325,0.21235
2755.78171,0.21093
2757.71018,0.21098
2759.63865,0.21304
2761.56712,0.21303
2763.49559,0.20954
2765.42406,0.20731
2767.35253,0.20975
2769.28099,0.21327
2771.20946,0.21357
2773.13793,0.21188
2775.06640,0.21211
2776.99487,0.21315
2778.92334,0.21297
2780.85181,0.21255
2782.78028,0.21261
2784.70874,0.21396
2786.63721,0.21531
2788.56568,0.21515
2790.49415,0.21484
2792.42262,0.21483
2794.35109,0.21412
2796.27956,0.21434
2798.20802,0.21579
2800.13649,0.21557
2802.06496,0.21453
2803.99343,0.21417
2805.92190,0.21429
2807.85037,0.21476
2809.77884,0.21455
2811.70731,0.21431
2813.63577,0.21475
2815.56424,0.21471
2817.49271,0.21377
2819.42118,0.21358
2821.34965,0.21521
2823.27812,0.21748
2825.20659,0.21938
2827.13505,0.21996
2829.06352,0.21960
2830.99199,0.22041
2832.92046,0.22070
2834.84893,0.21846
2836.77740,0.21726
2838.70587,0.21841
2840.63433,0.21945
2842.56280,0.22007
2844.49127,0.22043
2846.41974,0.21992
2848.34821,0.21769
2850.27668,0.21500
2852.20515,0.21543
2854.13362,0.21850
2856.06208,0.22086
2857.99055,0.22065
2859.91902,0.21797
2861.84749,0.21650
2863.77596,0.21712
2865.70443,0.21775
2867.63290,0.21960
2869.56136,0.22222
2871.48983,0.22288
2873.41830,0.22034
2875.34677,0.21693
2877.27524,0.21597
2879.20371,0.21775
2881.13218,0.22070
2883.06065,0.22192
2884.98911,0.22118
2886.91758,0.21926
2888.84605,0.21703
2890.77452,0.21599
2892.70299,0.21399
2894.63146,0.21136
2896.55993,0.21114
2898.48839,0.21312
2900.41686,0.21597
2902.34533,0.21725
2904.27380,0.21686
2906.20227,0.21808
2908.13074,0.21931
2910.05921,0.21798
2911.98768,0.21661
2913.91614,0.21391
2915.84461,0.20923
2917.77308,0.20878
2919.70155,0.21231
2921.63002,0.21456
2923.55849,0.21413
2925.48696,0.21105
2927.41542,0.21083
2929.34389,0.21625
2931.27236,0.21979
2933.20083,0.21892
2935.12930,0.21519
2937.05777,0.21138
2938.98624,0.21335
2940.91471,0.21700
2942.84317,0.21700
2944.77164,0.21640
2946.70011,0.21511
2948.62858,0.21364
2950.55705,0.21575
2952.48552,0.22054
2954.41399,0.22207
2956.34245,0.21473
2958.27092,0.20665
2960.19939,0.20971
2962.12786,0.21727
2964.05633,0.22005
2965.98480,0.21878
2967.91327,0.21615
2969.84174,0.21750
2971.77020,0.22253
2973.69867,0.22421
2975.62714,0.22221
2977.55561,0.22007
2979.48408,0.22095
2981.41255,0.22532
2983.34102,0.22720
2985.26948,0.22466
2987.19795,0.22268
2989.12642,0.22410
2991.05489,0.22678
2992.98336,0.22715
2994.91183,0.22512
2996.84030,0.22212
2998.76877,0.22140
3000.69723,0.22437
3002.62570,0.22615
3004.55417,0.22516
3006.48264,0.22366
3008.41111,0.22351
3010.33958,0.22307
3012.26805,0.21361
3014.19651,0.19160
3016.12498,0.17178
3018.05345,0.17699
3019.98192,0.20266
3021.91039,0.22131
3023.83886,0.22794
3025.76733,0.23041
3027.69579,0.22811
3029.62426,0.22533
3031.55273,0.22773
3033.48120,0.23128
3035.40967,0.23075
3037.33814,0.22781
3039.26661,0.22578
3041.19508,0.22494
3043.12354,0.22346
3045.05201,0.22053
3046.98048,0.21824
3048.90895,0.21914
3050.83742,0.22268
3052.76589,0.22641
3054.69436,0.22573
3056.62282,0.21847
3058.55129,0.21490
3060.47976,0.22109
3062.40823,0.22753
3064.33670,0.22563
3066.26517,0.21693
3068.19364,0.21151
3070.12211,0.21270
3072.05057,0.21444
3073.97904,0.21330
3075.90751,0.21011
3077.83598,0.21026
3079.76445,0.21652
3081.69292,0.22219
3083.62139,0.21746
3085.54985,0.20585
3087.47832,0.20168
3089.40679,0.20865
3091.33526,0.21706
3093.26373,0.21659
3095.19220,0.21406
3097.12067,0.21972
3099.04914,0.22589
3100.97760,0.22495
3102.90607,0.21778
3104.83454,0.21305
3106.76301,0.21714
3108.69148,0.22195
3110.61995,0.22062
3112.54842,0.21589
3114.47688,0.21422
3116.40535,0.21682
3118.33382,0.21726
3120.26229,0.21567
3122.19076,0.21885
3124.11923,0.22590
3126.04770,0.23032
3127.97617,0.23086
3129.90463,0.22951
3131.83310,0.22715
3133.76157,0.22438
3135.69004,0.22303
3137.61851,0.22498
3139.54698,0.22901
3141.47545,0.23293
3143.40391,0.23456
3145.33238,0.23193
3147.26085,0.22830
3149.18932,0.22772
3151.11779,0.22816
3153.04626,0.22873
3154.97473,0.22880
3156.90320,0.22528
3158.83166,0.22326
3160.76013,0.22630
3162.68860,0.22807
3164.61707,0.22853
3166.54554,0.23228
3168.47401,0.23619
3170.40248,0.23655
3172.33094,0.23453
3174.25941,0.23076
3176.18788,0.22688
3178.11635,0.22658
3180.04482,0.22889
3181.97329,0.23003
3183.90176,0.23133
3185.83022,0.23332
3187.75869,0.23219
3189.68716,0.22963
3191.61563,0.22864
3193.54410,0.22751
3195.47257,0.22728
3197.40104,0.23068
3199.32951,0.23462
3201.25797,0.23469
3203.18644,0.23293
3205.11491,0.23172
3207.04338,0.22958
3208.97185,0.22766
3210.90032,0.22816
3212.82879,0.23098
3214.75725,0.23458
3216.68572,0.23425
3218.61419,0.22976
3220.54266,0.22821
3222.47113,0.23029
3224.39960,0.23176
3226.32807,0.23170
3228.25654,0.23051
3230.18500,0.23007
3232.11347,0.23054
3234.04194,0.23127
3235.97041,0.23043
3237.89888,0.22474
3239.82735,0.21961
3241.75582,0.22130
3243.68428,0.22597
3245.61275,0.22991
3247.54122,0.23225
3249.46969,0.23028
3251.39816,0.22613
3253.32663,0.22371
3255.25510,0.22402
3257.18357,0.22705
3259.11203,0.22848
3261.04050,0.22827
3262.96897,0.22982
3264.89744,0.23053
3266.82591,0.23030
3268.75438,0.23021
3270.68285,0.22627
3272.61131,0.21936
3274.53978,0.21658
3276.46825,0.21769
3278.39672,0.21856
3280.32519,0.22048
3282.25366,0.22315
3284.18213,0.22395
3286.11060,0.22394
3288.03906,0.22463
3289.96753,0.22612
3291.89600,0.22835
3293.82447,0.22671
3295.75294,0.21965
3297.68141,0.21525
3299.60988,0.21755
3301.53834,0.22261
3303.46681,0.22645
3305.39528,0.22625
3307.32375,0.22435
3309.25222,0.22571
3311.18069,0.22745
3313.10916,0.22618
3315.03763,0.22288
3316.96609,0.21768
3318.89456,0.21533
3320.82303,0.21896
3322.75150,0.22276
3324.67997,0.22509
3326.60844,0.22940
3328.53691,0.23456
3330.46537,0.23784
3332.39384,0.23712
3334.32231,0.23428
3336.25078,0.23505
3338.17925,0.23611
3340.10772,0.23395
3342.03619,0.23511
3343.96466,0.24023
3345.89312,0.24186
3347.82159,0.23700
3349.75006,0.22951
3351.67853,0.22507
3353.60700,0.22566
3355.53547,0.22935
3357.46394,0.23347
3359.39240,0.23600
3361.32087,0.23526
3363.24934,0.23227
3365.17781,0.23263
3367.10628,0.23750
3369.03475,0.24001
3370.96322,0.23778
3372.89168,0.23396
3374.82015,0.23063
3376.74862,0.22909
3378.67709,0.22877
3380.60556,0.23119
3382.53403,0.23579
3384.46250,0.23593
3386.39097,0.23219
3388.31943,0.22994
3390.24790,0.22897
3392.17637,0.22730
3394.10484,0.22572
3396.03331,0.22619
3397.96178,0.22611
3399.89025,0.22250
3401.81871,0.22036
3403.74718,0.22226
3405.67565,0.22166
3407.60412,0.21912
3409.53259,0.21978
3411.46106,0.22063
3413.38953,0.21949
3415.31800,0.21873
3417.24646,0.22049
3419.17493,0.22196
3421.10340,0.22013
3423.03187,0.21976
3424.96034,0.22250
3426.88881,0.22470
3428.81728,0.22367
3430.74574,0.22010
3432.67421,0.21941
3434.60268,0.21997
3436.53115,0.21870
3438.45962,0.22129
3440.38809,0.22636
3442.31656,0.22637
3444.24503,0.22045
3446.17349,0.21270
3448.10196,0.20647
3450.03043,0.20358
3451.95890,0.20530
3453.88737,0.20804
3455.81584,0.20904
3457.74431,0.20981
3459.67277,0.21178
3461.60124,0.21456
3463.52971,0.21297
3465.45818,0.20747
3467.38665,0.20401
3469.31512,0.20198
3471.24359,0.20082
3473.17206,0.20366
3475.10052,0.20795
3477.02899,0.20788
3478.95746,0.20347
3480.88593,0.19851
3482.81440,0.19590
3484.74287,0.19643
3486.67134,0.20005
3488.59980,0.20402
3490.52827,0.20250
3492.45674,0.19551
3494.38521,0.19139
3496.31368,0.19221
3498.24215,0.19226
3500.17062,0.19461
3502.09909,0.20045
3504.02755,0.20226
3505.95602,0.20033
3507.88449,0.19870
3509.81296,0.19639
3511.74143,0.19287
3513.66990,0.18953
3515.59837,0.18686
3517.52683,0.18562
3519.45530,0.18646
3521.38377,0.18871
3523.31224,0.19129
3525.24071,0.19320
3527.16918,0.19329
3529.09765,0.18910
3531.02611,0.18202
3532.95458,0.17706
3534.88305,0.17699
3536.81152,0.18069
3538.73999,0.18280
3540.66846,0.18227
3542.59693,0.18446
3544.52540,0.19035
3546.45386,0.19346
3548.38233,0.19149
3550.31080,0.18964
3552.23927,0.18793
3554.16774,0.18245
3556.09621,0.17621
3558.02468,0.17600
3559.95314,0.18182
3561.88161,0.18649
3563.81008,0.18797
3565.73855,0.18810
3567.66702,0.18463
3569.59549,0.18008
3571.52396,0.17844
3573.45243,0.17831
3575.38089,0.17759
3577.30936,0.17456
3579.23783,0.16883
3581.16630,0.16620
3583.09477,0.17170
3585.02324,0.18058
3586.95171,0.18496
3588.88017,0.18065
3590.80864,0.17505
3592.73711,0.17266
3594.66558,0.17105
3596.59405,0.16951
3598.52252,0.16872
3600.45099,0.16726
3602.37946,0.16520
3604.30792,0.16508
3606.23639,0.16575
3608.16486,0.16474
3610.09333,0.16338
3612.02180,0.16198
3613.95027,0.16156
3615.87874,0.16499
3617.80720,0.17014
3619.73567,0.17024
3621.66414,0.16557
3623.59261,0.16442
3625.52108,0.16683
3627.44955,0.16832
3629.37802,0.16583
3631.30649,0.16297
3633.23495,0.16072
3635.16342,0.15630
3637.09189,0.15273
3639.02036,0.15264
3640.94883,0.15303
3642.87730,0.15198
3644.80577,0.15143
3646.73423,0.15515
3648.66270,0.16256
3650.59117,0.16283
3652.51964,0.15610
3654.44811,0.14867
3656.37658,0.14566
3658.30505,0.14813
3660.23352,0.14860
3662.16198,0.14576
3664.09045,0.14254
3666.01892,0.14210
3667.94739,0.14754
3669.87586,0.15632
3671.80433,0.15768
3673.73280,0.15637
3675.66126,0.15699
3677.58973,0.15230
3679.51820,0.14591
3681.44667,0.14213
3683.37514,0.14145
3685.30361,0.14432
3687.23208,0.14878
3689.16055,0.14926
3691.08901,0.14297
3693.01748,0.13737
3694.94595,0.13616
3696.87442,0.13643
3698.80289,0.13683
3700.73136,0.13893
3702.65983,0.14099
3704.58829,0.14141
3706.51676,0.14215
3708.44523,0.14557
3710.37370,0.14881
3712.30217,0.14655
3714.23064,0.14562
3716.15911,0.14668
3718.08757,0.14738
3720.01604,0.14802
3721.94451,0.14651
3723.87298,0.14341
3725.80145,0.14299
3727.72992,0.14514
3729.65839,0.14743
3731.58686,0.15081
3733.51532,0.15633
3735.44379,0.15862
3737.37226,0.15464
3739.30073,0.15133
3741.22920,0.15053
3743.15767,0.15251
3745.08614,0.15624
3747.01460,0.15497
3748.94307,0.15036
3750.87154,0.14446
3752.80001,0.13983
3754.72848,0.13990
3756.65695,0.14347
3758.58542,0.14754
3760.51389,0.14848
3762.44235,0.14662
3764.37082,0.14298
3766.29929,0.13811
3768.22776,0.13529
3770.15623,0.13391
3772.08470,0.12976
3774.01317,0.12480
3775.94163,0.12289
3777.87010,0.12586
3779.79857,0.13212
3781.72704,0.13636
3783.65551,0.13835
3785.58398,0.13848
3787.51245,0.13554
3789.44092,0.13340
3791.36938,0.13556
3793.29785,0.13847
3795.22632,0.13897
3797.15479,0.13810
3799.08326,0.13669
3801.01173,0.13697
3802.94020,0.13735
3804.86866,0.13631
3806.79713,0.13878
3808.72560,0.14198
3810.65407,0.14185
3812.58254,0.14136
3814.51101,0.14212
3816.43948,0.14279
3818.36795,0.14263
3820.29641,0.14457
3822.22488,0.14473
3824.15335,0.14111
3826.08182,0.14078
3828.01029,0.14401
3829.93876,0.14622
3831.86723,0.14654
3833.79569,0.14846
3835.72416,0.15267
3837.65263,0.15503
3839.58110,0.15623
3841.50957,0.15446
3843.43804,0.14773
3845.36651,0.14187
3847.29498,0.13832
3849.22344,0.13660
3851.15191,0.13947
3853.08038,0.14650
3855.00885,0.14374
3856.93732,0.13470
3858.86579,0.12982
3860.79426,0.13273
3862.72272,0.14041
3864.65119,0.13887
3866.57966,0.13042
3868.50813,0.12934
3870.43660,0.13253
3872.36507,0.13058
3874.29354,0.12596
3876.22200,0.12494
3878.15047,0.13070
3880.07894,0.14003
3882.00741,0.14269
3883.93588,0.13817
3885.86435,0.13108
3887.79282,0.12610
3889.72129,0.12540
3891.64975,0.12619
3893.57822,0.12777
3895.50669,0.12969
3897.43516,0.13005
3899.36363,0.12813
3901.29210,0.12772
3903.22057,0.13165
3905.14903,0.13442
3907.07750,0.13043
3909.00597,0.12212
3910.93444,0.11645
3912.86291,0.11798
3914.79138,0.12351
3916.71985,0.12837
3918.64832,0.13049
3920.57678,0.12917
3922.50525,0.12580
3924.43372,0.12274
3926.36219,0.12196
3928.29066,0.12286
3930.21913,0.12210
3932.14760,0.11889
3934.07606,0.11562
3936.00453,0.11507
3937.93300,0.11791
3939.86147,0.12099
3941.78994,0.12100
3943.71841,0.11803
3945.64688,0.11754
3947.57535,0.12131
3949.50381,0.12522
3951.43228,0.12773
3953.36075,0.12637
3955.28922,0.12066
3957.21769,0.11743
3959.14616,0.11848
3961.07463,0.11919
3963.00309,0.11821
3964.93156,0.11585
3966.86003,0.11351
3968.78850,0.11226
3970.71697,0.11013
3972.64544,0.10878
3974.57391,0.11057
3976.50238,0.11283
3978.43084,0.11396
3980.35931,0.11183
3982.28778,0.10574
3984.21625,0.10111
3986.14472,0.10140
3988.07319,0.10495
3990.00166,0.10770
3991.93012,0.10908
3993.85859,0.11224
3995.78706,0.11445
3997.71553,0.11395
3999.64400,0.11415
4001.57247,0.11391
4003.50094,0.11427
4005.42941,0.11853
4007.35787,0.12112
4009.28634,0.11948
4011.21481,0.11957
4013.14328,0.12064
4015.07175,0.11752
4017.00022,0.11308
4018.92869,0.11208
4020.85715,0.11187
4022.78562,0.11054
4024.71409,0.10950
4026.64256,0.10766
4028.57103,0.10756
4030.49950,0.11298
4032.42797,0.11609
4034.35644,0.10916
4036.28490,0.10090
4038.21337,0.10001
4040.14184,0.10381
4042.07031,0.10978
4043.99878,0.11607
4045.92725,0.11710
4047.85572,0.11099
4049.78418,0.10507
4051.71265,0.10528
4053.64112,0.10596
4055.56959,0.10171
4057.49806,0.09844
4059.42653,0.10080
4061.35500,0.10323
4063.28346,0.10242
4065.21193,0.10189
4067.14040,0.10265
4069.06887,0.10375
4070.99734,0.10454
4072.92581,0.10366
4074.85428,0.10128
4076.78275,0.09826
4078.71121,0.09643
4080.63968,0.09705
4082.56815,0.09812
4084.49662,0.09743
4086.42509,0.09419
4088.35356,0.09229
4090.28203,0.09634
4092.21049,0.10132
4094.13896,0.09788
4096.06743,0.08783
4097.99590,0.08362
4099.92437,0.08782
4101.85284,0.09077
4103.78131,0.08866
4105.70978,0.08616
4107.63824,0.08645
4109.56671,0.08970
4111.49518,0.09548
4113.42365,0.10169
4115.35212,0.10285
4117.28059,0.09659
4119.20906,0.09058
4121.13752,0.09148
4123.06599,0.09580
4124.99446,0.09596
4126.92293,0.09147
4128.85140,0.09011
4130.77987,0.09319
4132.70834,0.09350
4134.63681,0.08996
4136.56527,0.08861
4138.49374,0.09091
4140.42221,0.09381
4142.35068,0.09643
4144.27915,0.09669
4146.20762,0.09145
4148.13609,0.08530
4150.06455,0.08467
4151.99302,0.08863
4153.92149,0.09310
4155.84996,0.09304
4157.77843,0.08595
4159.70690,0.07767
4161.63537,0.07659
4163.56384,0.08240
4165.49230,0.08741
4167.42077,0.08888
4169.34924,0.08903
4171.27771,0.08712
4173.20618,0.08409
4175.13465,0.08426
4177.06312,0.08631
4178.99158,0.08622
4180.92005,0.08398
4182.84852,0.08098
4184.77699,0.07856
4186.70546,0.07798
4188.63393,0.08064
4190.56240,0.08326
4192.49087,0.08066
4194.41933,0.07822
4196.34780,0.08249
4198.27627,0.08831
4200.20474,0.09001
4202.13321,0.08733
4204.06168,0.08017
4205.99015,0.07408
4207.91861,0.07415
4209.84708,0.07496
4211.77555,0.07353
4213.70402,0.07423
4215.63249,0.07652
4217.56096,0.07702
4219.48943,0.07704
4221.41789,0.07642
4223.34636,0.07301
4225.27483,0.07141
4227.20330,0.07500
4229.13177,0.07499
4231.06024,0.06972
4232.98871,0.07118
4234.91718,0.07797
4236.84564,0.07942
4238.77411,0.07712
4240.70258,0.07581
4242.63105,0.07314
4244.55952,0.06701
4246.48799,0.06227
4248.41646,0.06419
4250.34492,0.06751
4252.27339,0.06748
4254.20186,0.06858
4256.13033,0.06953
4258.05880,0.06562
4259.98727,0.06028
4261.91574,0.05992
4263.84421,0.06521
4265.77267,0.06922
4267.70114,0.06761
4269.62961,0.06308
4271.55808,0.05983
4273.48655,0.06118
4275.41502,0.06467
4277.34349,0.06726
4279.27195,0.07063
4281.20042,0.07116
4283.12889,0.06698
4285.05736,0.06338
4286.98583,0.06228
4288.91430,0.06315
4290.84277,0.06373
4292.77124,0.06340
4294.69970,0.06481
4296.62817,0.06269
4298.55664,0.05397
4300.48511,0.04869
4302.41358,0.04984
4304.34205,0.05239
4306.27052,0.05557
4308.19898,0.05607
4310.12745,0.05373
4312.05592,0.05287
4313.98439,0.05140
4315.91286,0.04806
4317.84133,0.04485
4319.76980,0.04013
4321.69827,0.03471
4323.62673,0.03341
4325.55520,0.03830
4327.48367,0.04816
4329.41214,0.05638
4331.34061,0.05745
4333.26908,0.05605
4335.19755,0.05694
4337.12601,0.05737
4339.05448,0.05418
4340.98295,0.04942
4342.91142,0.04592
4344.83989,0.04341
4346.76836,0.04272
4348.69683,0.04399
4350.62530,0.04382
4352.55376,0.04051
4354.48223,0.03406
4356.41070,0.02932
4358.33917,0.03144
4360.26764,0.03739
4362.19611,0.04321
4364.12458,0.04543
4366.05304,0.04603
4367.98151,0.04745
4369.90998,0.04724
4371.83845,0.04897
4373.76692,0.05118
4375.69539,0.04846
4377.62386,0.04610
4379.55232,0.04914
4381.48079,0.04960
4383.40926,0.03975
4385.33773,0.03003
4387.26620,0.03208
4389.19467,0.03914
4391.12314,0.03923
4393.05161,0.03507
4394.98007,0.03667
4396.90854,0.04086
4398.83701,0.04229
4400.76548,0.04200
4402.69395,0.03950
4404.62242,0.03699
4406.55089,0.03340
4408.47935,0.02689
4410.40782,0.02285
4412.33629,0.02270
4414.26476,0.02466
4416.19323,0.02916
4418.12170,0.03225
4420.05017,0.02845
4421.97864,0.02177
4423.90710,0.02048
4425.83557,0.02426
4427.76404,0.02861
4429.69251,0.03332
4431.62098,0.03578
4433.54945,0.02877
4435.47792,0.01756
4437.40638,0.01540
4439.33485,0.02228
4441.26332,0.03076
4443.19179,0.03686
4445.12026,0.03769
4447.04873,0.03206
4448.97720,0.02436
4450.90567,0.02028
4452.83413,0.01860
4454.76260,0.01676
4456.69107,0.01867
4458.61954,0.02381
4460.54801,0.02296
4462.47648,0.01728
4464.40495,0.01803
4466.33341,0.02251
4468.26188,0.01972
4470.19035,0.01230
4472.11882,0.00936
4474.04729,0.01123
4475.97576,0.01363
4477.90423,0.01451
4479.83270,0.01419
4481.76116,0.01450
4483.68963,0.01337
4485.61810,0.00774
4487.54657,0.00333
4489.47504,0.00431
4491.40351,0.00882
4493.33198,0.01425
4495.26044,0.01609
4497.18891,0.01591
4499.11738,0.01659
4501.04585,0.01436
4502.97432,0.01229
4504.90279,0.01740
4506.83126,0.02236
4508.75973,0.02000
4510.68819,0.01816
4512.61666,0.02036
4514.54513,0.02260
4516.47360,0.02438
4518.40207,0.02329
4520.33054,0.01574
4522.25901,0.00816
4524.18747,0.00866
4526.11594,0.01210
4528.04441,0.01152
4529.97288,0.00968
4531.90135,0.01079
4533.82982,0.01180
4535.75829,0.00836
4537.68676,0.00542
4539.61522,0.00577
4541.54369,0.00623
4543.47216,0.00981
4545.40063,0.01325
4547.32910,0.01030
4549.25757,0.00860
4551.18604,0.01136
4553.11450,0.01125
4555.04297,0.00791
4556.97144,0.00545
4558.89991,0.00323
4560.82838,0.00040
4562.75685,-0.00008
4564.68532,0.00399
4566.61378,0.00960
4568.54225,0.01346
4570.47072,0.01584
4572.39919,0.01522
4574.32766,0.01231
4576.25613,0.01030
4578.18460,0.00740
4580.11307,0.00583
4582.04153,0.00884
4583.97000,0.00868
4585.89847,0.00133
4587.82694,-0.00560
4589.75541,-0.00192
4591.68388,0.01036
4593.61235,0.01578
4595.54081,0.01260
4597.46928,0.01139
4599.39775,0.01105
4601.32622,0.00550
4603.25469,-0.00101
4605.18316,-0.00230
4607.11163,-0.00062
4609.04010,0.00076
4610.96856,-0.00049
4612.89703,-0.00499
4614.82550,-0.00739
4616.75397,-0.00044
4618.68244,0.01185
4620.61091,0.01840
4622.53938,0.02003
4624.46784,0.01761
4626.39631,0.00931
4628.32478,0.00460
4630.25325,0.00590
4632.18172,0.00185
4634.11019,-0.00635
4636.03866,-0.00617
4637.96713,-0.00038
4639.89559,0.00175
4641.82406,0.00087
4643.75253,0.00144
4645.68100,0.00187
4647.60947,-0.00032
4649.53794,-0.00083
4651.46641,-0.00079
4653.39487,-0.00503
4655.32334,-0.00679
4657.25181,-0.00036
4659.18028,0.00670
4661.10875,0.00760
4663.03722,0.00248
4664.96569,-0.00664
4666.89416,-0.01093
4668.82262,-0.00173
4670.75109,0.00965
4672.67956,0.00605
4674.60803,-0.00798
4676.53650,-0.01347
4678.46497,-0.00382
4680.39344,0.00727
4682.32190,0.00930
4684.25037,0.00476
4686.17884,0.00057
4688.10731,0.00835
4690.03578,0.02804
4691.96425,0.04046
4693.89272,0.03587
4695.82119,0.02214
4697.74965,0.00754
4699.67812,-0.00091
4701.60659,0.00100
4703.53506,0.00924
4705.46353,0.01802
4707.39200,0.02013
4709.32047,0.01302
4711.24893,0.00567
4713.17740,0.00195
4715.10587,-0.00563
4717.03434,-0.01426
4718.96281,-0.01166
4720.89128,-0.00163
4722.81975,0.00442
4724.74821,0.00562
4726.67668,0.00598
4728.60515,0.00796
4730.53362,0.00587
4732.46209,-0.00120
4734.39056,-0.00202
4736.31903,0.00341
4738.24750,0.00596
4740.17596,0.00450
4742.10443,0.00843
4744.03290,0.01816
4745.96137,0.01853
4747.88984,0.01053
4749.81831,0.00646
4751.74678,0.00191
4753.67524,-0.00557
4755.60371,-0.00278
4757.53218,0.00592
4759.46065,0.00231
4761.38912,-0.00552
4763.31759,-0.00463
4765.24606,-0.00327
4767.17453,-0.00673
4769.10299,-0.00909
4771.03146,-0.00782
4772.95993,-0.00523
4774.88840,-0.00250
4776.81687,-0.00030
4778.74534,0.00177
4780.67381,0.00157
4782.60227,-0.00271
4784.53074,-0.00307
4786.45921,-0.00040
4788.38768,-0.00270
4790.31615,-0.00044
4792.24462,0.00993
4794.17309,0.01609
4796.10156,0.01318
4798.03002,0.00415
4799.95849,0.00046
4801.88696,0.01177
4803.81543,0.02595
4805.74390,0.02644
4807.67237,0.01628
4809.60084,0.00812
4811.52930,0.00955
4813.45777,0.01503
4815.38624,0.01051
4817.31471,-0.00086
4819.24318,-0.00660
4821.17165,-0.00656
4823.10012,0.00145
4825.02859,0.01224
4826.95705,0.01480
4828.88552,0.01175
4830.81399,0.00523
4832.74246,0.00329
4834.67093,0.01327
4836.59940,0.02178
4838.52787,0.01755
4840.45633,0.00527
4842.38480,-0.00084
4844.31327,0.00706
4846.24174,0.01692
4848.17021,0.01516
4850.09868,0.00257
4852.02715,-0.01194
4853.95562,-0.02040
4855.88408,-0.02184
4857.81255,-0.01612
4859.74102,0.00229
4861.66949,0.02152
4863.59796,0.01788
4865.52643,0.00059
4867.45490,-0.00356
4869.38336,0.00481
4871.31183,0.01306
4873.24030,0.01950
4875.16877,0.01732
4877.09724,0.00303
4879.02571,-0.00813
4880.95418,-0.00858
4882.88265,-0.00684
4884.81111,-0.00781
4886.73958,-0.00673
4888.66805,-0.00416
4890.59652,-0.00321
4892.52499,0.00005
4894.45346,0.00467
4896.38193,0.00254
4898.31039,-0.00583
4900.23886,-0.01311
4902.16733,-0.01275
4904.09580,-0.00113
4906.02427,0.00565
4907.95274,-0.00030
4909.88121,-0.00313
4911.80967,0.00012
4913.73814,0.00420
4915.66661,0.01014
4917.59508,0.01425
4919.52355,0.01223
4921.45202,0.00589
4923.38049,-0.00246
4925.30896,-0.00917
4927.23742,-0.00498
4929.16589,0.00818
4931.09436,0.01422
4933.02283,0.00596
4934.95130,-0.00655
4936.87977,-0.00996
4938.80824,-0.00628
4940.73670,-0.00326
4942.66517,0.00279
4944.59364,0.01441
4946.52211,0.02675
4948.45058,0.02873
4950.37905,0.01940
4952.30752,0.01502
4954.23599,0.01258
4956.16445,-0.00021
4958.09292,-0.01202
4960.02139,-0.01117
4961.94986,0.00400
4963.87833,0.02280
4965.80680,0.02588
4967.73527,0.01501
4969.66373,0.00559
4971.59220,0.00500
4973.52067,0.01185
4975.44914,0.02150
4977.37761,0.02770
4979.30608,0.02480
4981.23455,0.01928
4983.16302,0.01820
4985.09148,0.01723
4987.01995,0.01182
4988.94842,0.00772
4990.87689,0.01176
4992.80536,0.02098
4994.73383,0.02752
4996.66230,0.02061
4998.59076,0.00505
5000.51923,0.00076
5002.44770,0.01136
5004.37617,0.02241
5006.30464,0.02552
5008.23311,0.02176
5010.16158,0.01160
5012.09005,0.00393
5014.01851,0.00407
5015.94698,0.00563
5017.87545,0.00842
5019.80392,0.01375
5021.73239,0.01869
5023.66086,0.02236
5025.58933,0.01838
5027.51779,0.00050
5029.44626,-0.01086
5031.37473,0.00086
5033.30320,0.02013
5035.23167,0.03429
5037.16014,0.03839
5039.08861,0.03203
5041.01708,0.02714
5042.94554,0.02673
5044.87401,0.02780
5046.80248,0.03260
5048.73095,0.03428
5050.65942,0.02671
5052.58789,0.01672
5054.51636,0.00801
5056.44482,0.00727
5058.37329,0.02108
5060.30176,0.03564
5062.23023,0.03387
5064.15870,0.01840
5066.08717,0.00876
5068.01564,0.01667
5069.94410,0.02511
5071.87257,0.01928
5073.80104,0.01405
5075.72951,0.02028
5077.65798,0.02823
5079.58645,0.03375
5081.51492,0.03850
5083.44339,0.03731
5085.37185,0.02651
5087.30032,0.01787
5089.22879,0.02545
5091.15726,0.03704
5093.08573,0.03366
5095.01420,0.01843
5096.94267,0.00107
5098.87113,-0.00861
5100.79960,-0.00350
5102.72807,0.01294
5104.65654,0.03270
5106.58501,0.03961
5108.51348,0.03018
5110.44195,0.02765
5112.37042,0.04080
5114.29888,0.05158
5116.22735,0.04908
5118.15582,0.03532
5120.08429,0.02096
5122.01276,0.01945
5123.94123,0.02179
5125.86970,0.01782
5127.79816,0.01453
5129.72663,0.01273
5131.65510,0.01194
5133.58357,0.01636
5135.51204,0.02786
5137.44051,0.03825
5139.36898,0.03553
5141.29745,0.02679
5143.22591,0.02474
5145.15438,0.02328
5147.08285,0.01704
5149.01132,0.01660
5150.93979,0.02389
5152.86826,0.02954
5154.79673,0.02563
5156.72519,0.01381
5158.65366,0.01284
5160.58213,0.02613
5162.51060,0.03560
5164.43907,0.03188
5166.36754,0.02278
5168.29601,0.01968
5170.22448,0.02285
5172.15294,0.03283
5174.08141,0.05179
5176.00988,0.06392
5177.93835,0.05366
5179.86682,0.03186
5181.79529,0.02463
5183.72376,0.03979
5185.65222,0.05821
5187.58069,0.06335
5189.50916,0.05538
5191.43763,0.04054
5193.36610,0.03271
5195.29457,0.03781
5197.22304,0.03897
5199.15151,0.02667
5201.07997,0.02071
5203.00844,0.03330
5204.93691,0.04337
5206.86538,0.03248
5208.79385,0.02224
5210.72232,0.03056
5212.65079,0.04503
5214.57925,0.04929
5216.50772,0.04289
5218.43619,0.03930
5220.36466,0.04462
5222.29313,0.05159
5224.22160,0.05609
5226.15007,0.05937
5228.07854,0.06180
5230.00700,0.06435
5231.93547,0.06357
5233.86394,0.05682
5235.79241,0.04462
5237.72088,0.03704
5239.64935,0.04284
5241.57782,0.04388
5243.50628,0.03486
5245.43475,0.03102
5247.36322,0.03009
5249.29169,0.02368
5251.22016,0.01574
5253.14863,0.01575
5255.07710,0.02873
5257.00556,0.05052
5258.93403,0.06179
5260.86250,0.04982
5262.79097,0.02929
5264.71944,0.02250
5266.64791,0.02974
5268.57638,0.04321
5270.50485,0.06171
5272.43331,0.06521
5274.36178,0.04449
5276.29025,0.02465
5278.21872,0.02461
5280.14719,0.04135
5282.07566,0.05353
5284.00413,0.04860
5285.93259,0.04443
5287.86106,0.04560
5289.78953,0.04023
5291.71800,0.04075
5293.64647,0.05107
5295.57494,0.05310
5297.50341,0.04252
5299.43188,0.03325
5301.36034,0.04274
5303.28881,0.05895
5305.21728,0.05855
5307.14575,0.05033
5309.07422,0.05312
5311.00269,0.06809
5312.93116,0.07146
5314.85962,0.05478
5316.78809,0.04912
5318.71656,0.05324
5320.64503,0.04400
5322.57350,0.03410
5324.50197,0.04564
5326.43044,0.07756
5328.35891,0.09586
5330.28737,0.08877
5332.21584,0.07484
5334.14431,0.06435
5336.07278,0.07385
5338.00125,0.09360
5339.92972,0.07891
5341.85819,0.03962
5343.78665,0.02864
5345.71512,0.05821
5347.64359,0.07543
5349.57206,0.07113
5351.50053,0.07556
5353.42900,0.08279
5355.35747,0.08000
5357.28594,0.08625
5359.21440,0.09708
5361.14287,0.09152
5363.07134,0.07594
5364.99981,0.07005
5366.92828,0.07451
5368.85675,0.07986
5370.78522,0.07852
5372.71368,0.06633
5374.64215,0.05344
5376.57062,0.05725
5378.49909,0.05728
5380.42756,0.03384
5382.35603,0.01713
5384.28450,0.02266
5386.21297,0.03209
5388.14143,0.03691
5390.06990,0.03959
5391.99837,0.04835
5393.92684,0.06160
5395.85531,0.06832
5397.78378,0.07720
5399.71225,0.08792
5401.64071,0.08163
5403.56918,0.06028
5405.49765,0.04968
5407.42612,0.05657
5409.35459,0.06701
5411.28306,0.07354
5413.21153,0.07672
5415.13999,0.07860
5417.06846,0.07950
5418.99693,0.07994
5420.92540,0.08410
5422.85387,0.08746
5424.78234,0.07682
5426.71081,0.05293
5428.63928,0.03401
5430.56774,0.03237
5432.49621,0.03154
5434.42468,0.02458
5436.35315,0.02508
5438.28162,0.03753
5440.21009,0.06374
5442.13856,0.08483
5444.06702,0.08825
5445.99549,0.09796
5447.92396,0.10193
5449.85243,0.08129
5451.78090,0.06490
5453.70937,0.06363
5455.63784,0.06733
5457.56631,0.07125
5459.49477,0.07158
5461.42324,0.07138
5463.35171,0.06809
5465.28018,0.05703
5467.20865,0.04781
5469.13712,0.05984
5471.06559,0.09449
5472.99405,0.11694
5474.92252,0.10169
5476.85099,0.07335
5478.77946,0.07051
5480.70793,0.07850
5482.63640,0.07585
5484.56487,0.08056
5486.49334,0.09387
5488.42180,0.09207
5490.35027,0.07098
5492.27874,0.04118
5494.20721,0.03341
5496.13568,0.05174
5498.06415,0.06764
5499.99262,0.07828
5501.92108,0.08667
5503.84955,0.08925
5505.77802,0.09386
5507.70649,0.09790
5509.63496,0.09127
5511.56343,0.08294
5513.49190,0.07452
5515.42037,0.05581
5517.34883,0.04827
5519.27730,0.06745
5521.20577,0.07490
5523.13424,0.06288
5525.06271,0.07621
5526.99118,0.10983
5528.91965,0.11982
5530.84811,0.09621
5532.77658,0.05996
5534.70505,0.03287
5536.63352,0.03142
5538.56199,0.05598
5540.49046,0.07365
5542.41893,0.06325
5544.34740,0.05762
5546.27586,0.08044
5548.20433,0.10215
5550.13280,0.10416
5552.06127,0.10273
5553.98974,0.10069
5555.91821,0.09109
5557.84668,0.07598
5559.77514,0.06260
5561.70361,0.06238
5563.63208,0.07174
5565.56055,0.07757
5567.48902,0.08938
5569.41749,0.11542
5571.34596,0.12699
5573.27443,0.10121
5575.20289,0.07163
5577.13136,0.06551
5579.05983,0.06176
5580.98830,0.05861
5582.91677,0.06669
5584.84524,0.07350
5586.77371,0.07107
5588.70217,0.05305
5590.63064,0.03282
5592.55911,0.04198
5594.48758,0.07657
5596.41605,0.10676
5598.34452,0.10789
5600.27299,0.08589
5602.20145,0.07229
5604.12992,0.07218
5606.05839,0.07709
5607.98686,0.09264
5609.91533,0.10404
5611.84380,0.09114
5613.77227,0.08043
5615.70074,0.09777
5617.62920,0.10667
5619.55767,0.07759
5621.48614,0.05073
5623.41461,0.05619
5625.34308,0.07071
5627.27155,0.08156
5629.20002,0.10390
5631.12848,0.13102
5633.05695,0.13171
5634.98542,0.11107
5636.91389,0.10742
5638.84236,0.11448
5640.77083,0.11014
5642.69930,0.10145
5644.62777,0.08654
5646.55623,0.07330
5648.48470,0.07948
5650.41317,0.08931
5652.34164,0.08440
5654.27011,0.07417
5656.19858,0.07508
5658.12705,0.08758
5660.05551,0.10839
5661.98398,0.11373
5663.91245,0.08596
5665.84092,0.07284
5667.76939,0.09112
5669.69786,0.10191
5671.62633,0.10827
5673.55480,0.13188
5675.48326,0.15082
5677.41173,0.13130
5679.34020,0.08199
5681.26867,0.04520
5683.19714,0.05148
5685.12561,0.09129
5687.05408,0.12527
5688.98254,0.13025
5690.91101,0.12591
5692.83948,0.12771
5694.76795,0.12766
5696.69642,0.11828
5698.62489,0.10404
5700.55336,0.09436
5702.48183,0.07773
5704.41029,0.04962
5706.33876,0.02807
5708.26723,0.02451
5710.19570,0.03431
5712.12417,0.05459
5714.05264,0.08634
5715.98111,0.10654
5717.90957,0.10412
5719.83804,0.10422
5721.76651,0.10793
5723.69498,0.09663
5725.62345,0.08606
5727.55192,0.08821
5729.48039,0.07206
5731.40886,0.04154
5733.33732,0.04546
5735.26579,0.07570
5737.19426,0.09083
5739.12273,0.08783
5741.05120,0.06452
5742.97967,0.04159
5744.90814,0.03216
5746.83660,0.01492
5748.76507,0.00456
5750.69354,0.02188
5752.62201,0.05132
5754.55048,0.07418
5756.47895,0.07220
5758.40742,0.05331
5760.33588,0.06391
5762.26435,0.10043
5764.19282,0.10349
5766.12129,0.07219
5768.04976,0.06304
5769.97823,0.08495
5771.90670,0.09359
5773.83517,0.09777
5775.76363,0.12003
5777.69210,0.11633
5779.62057,0.08173
5781.54904,0.07010
5783.47751,0.08421
5785.40598,0.08943
5787.33445,0.07836
5789.26291,0.07126
5791.19138,0.08309
5793.11985,0.08999
5795.04832,0.07660
5796.97679,0.06825
5798.90526,0.07575
5800.83373,0.09917
5802.76220,0.13599
5804.69066,0.15110
5806.61913,0.12096
5808.54760,0.08436
5810.47607,0.07460
5812.40454,0.07632
5814.33301,0.07452
5816.26148,0.07468
5818.18994,0.07913
5820.11841,0.07636
5822.04688,0.06165
5823.97535,0.04894
5825.90382,0.03813
5827.83229,0.04627
5829.76076,0.08804
5831.68923,0.10131
5833.61769,0.07534
5835.54616,0.08038
5837.47463,0.11162
5839.40310,0.11694
5841.33157,0.09816
5843.26004,0.09191
5845.18851,0.09380
5847.11697,0.08756
5849.04544,0.09113
5850.97391,0.11336
5852.90238,0.13301
5854.83085,0.12559
5856.75932,0.08490
5858.68779,0.04080
5860.61626,0.03294
5862.54472,0.04781
5864.47319,0.05565
5866.40166,0.06271
5868.33013,0.07214
5870.25860,0.08416
5872.18707,0.09695
5874.11554,0.11095
5876.04400,0.13096
5877.97247,0.12669
5879.90094,0.08357
5881.82941,0.05990
5883.75788,0.07333
5885.68635,0.08633
5887.61482,0.09528
5889.54329,0.09742
5891.47175,0.09267
5893.40022,0.10018
5895.32869,0.11706
5897.25716,0.11795
5899.18563,0.10343
5901.11410,0.10097
5903.04257,0.10147
5904.97103,0.08855
5906.89950,0.08236
5908.82797,0.09757
5910.75644,0.11576
5912.68491,0.10526
5914.61338,0.07102
5916.54185,0.06754
5918.47032,0.11136
5920.39878,0.12788
5922.32725,0.08785
5924.25572,0.07193
5926.18419,0.09940
5928.11266,0.10060
5930.04113,0.08610
5931.96960,0.09877
5933.89806,0.09820
5935.82653,0.07530
5937.75500,0.07895
5939.68347,0.09456
5941.61194,0.10355
5943.54041,0.13319
5945.46888,0.17318
5947.39734,0.17111
5949.32581,0.11206
5951.25428,0.06620
5953.18275,0.09043
5955.11122,0.12848
5957.03969,0.12830
5958.96816,0.11447
5960.89663,0.09110
5962.82509,0.05217
5964.75356,0.03573
5966.68203,0.05392
5968.61050,0.08607
5970.53897,0.10201
5972.46744,0.08303
5974.39591,0.06782
5976.32437,0.06919
5978.25284,0.05085
5980.18131,0.03410
5982.10978,0.03877
5984.03825,0.03243
5985.96672,0.02270
5987.89519,0.04321
5989.82366,0.08315
5991.75212,0.11655
5993.68059,0.13246
5995.60906,0.12709
5997.53753,0.11366
5999.46600,0.11327
6001.39447,0.12533
6003.32294,0.14171
6005.25140,0.14336
6007.17987,0.12253
6009.10834,0.10733
6011.03681,0.09503
6012.96528,0.05964
6014.89375,0.03022
6016.82222,0.03592
6018.75069,0.03290
6020.67915,0.01388
6022.60762,0.02180
6024.53609,0.03280
6026.46456,0.03926
6028.39303,0.06433
6030.32150,0.07963
6032.24997,0.08139
6034.17843,0.09334
6036.10690,0.08562
6038.03537,0.05200
6039.96384,0.03719
6041.89231,0.04968
6043.82078,0.07230
6045.74925,0.10046
6047.67772,0.12176
6049.60618,0.11824
6051.53465,0.08904
6053.46312,0.06277
6055.39159,0.09500
6057.32006,0.13800
6059.24853,0.10533
6061.17700,0.05417
6063.10546,0.04320
6065.03393,0.05458
6066.96240,0.07185
6068.89087,0.10176
6070.81934,0.12553
6072.74781,0.10763
6074.67628,0.08393
6076.60475,0.07730
6078.53321,0.04988
6080.46168,0.01744
6082.39015,0.01219
6084.31862,0.04708
6086.24709,0.10098
6088.17556,0.10380
6090.10403,0.09907
6092.03249,0.14980
6093.96096,0.18079
6095.88943,0.16206
6097.81790,0.14787
6099.74637,0.14625
6101.67484,0.14044
6103.60331,0.12878
6105.53177,0.11347
6107.46024,0.08859
6109.38871,0.05995
6111.31718,0.05375
6113.24565,0.07283
6115.17412,0.09225
6117.10259,0.10670
6119.03106,0.11321
6120.95952,0.10197
6122.88799,0.09440
6124.81646,0.07784
6126.74493,0.05211
6128.67340,0.07094
6130.60187,0.09181
6132.53034,0.07537
6134.45880,0.07919
6136.38727,0.10203
6138.31574,0.09614
6140.24421,0.06612
6142.17268,0.03616
6144.10115,0.01121
6146.02962,0.03194
6147.95809,0.10215
6149.88655,0.14331
6151.81502,0.11617
6153.74349,0.05646
6155.67196,0.00352
6157.60043,-0.01399
6159.52890,0.01516
6161.45737,0.06749
6163.38583,0.09907
6165.31430,0.07800
6167.24277,0.04506
6169.17124,0.04300
6171.09971,0.04275
6173.02818,0.04216
6174.95665,0.07819
6176.88512,0.12968
6178.81358,0.15923
6180.74205,0.16003
6182.67052,0.13092
6184.59899,0.11296
6186.52746,0.12539
6188.45593,0.11337
6190.38440,0.07260
6192.31286,0.02929
6194.24133,0.00758
6196.16980,0.05594
6198.09827,0.13072
6200.02674,0.15303
6201.95521,0.12668
6203.88368,0.08191
6205.81215,0.04185
6207.74061,0.02324
6209.66908,0.03138
6211.59755,0.02986
6213.52602,0.00125
6215.45449,-0.00057
6217.38296,0.02725
6219.31143,0.03767
6221.23989,0.03403
6223.16836,0.04280
6225.09683,0.07057
6227.02530,0.08491
6228.95377,0.06193
6230.88224,0.04918
6232.81071,0.08295
6234.73918,0.10758
6236.66764,0.09772
6238.59611,0.09445
6240.52458,0.09349
6242.45305,0.06741
6244.38152,0.05810
6246.30999,0.10667
6248.23846,0.17035
6250.16692,0.18662
6252.09539,0.16469
6254.02386,0.15410
6255.95233,0.15244
6257.88080,0.14266
6259.80927,0.11946
6261.73774,0.08416
6263.66621,0.04995
6265.59467,0.02016
6267.52314,0.01127
6269.45161,0.03300
6271.38008,0.06012
6273.30855,0.08688
6275.23702,0.13004
6277.16549,0.17464
6279.09395,0.15295
6281.02242,0.07571
6282.95089,0.06086
6284.87936,0.10932
6286.80783,0.11338
6288.73630,0.08142
6290.66477,0.05897
6292.59323,0.03819
6294.52170,0.01118
6296.45017,-0.02519
6298.37864,-0.04519
6300.30711,-0.02606
6302.23558,0.00982
6304.16405,0.06078
6306.09252,0.12909
6308.02098,0.16297
6309.94945,0.13938
6311.87792,0.12016
6313.80639,0.13237
6315.73486,0.14951
6317.66333,0.16377
6319.59180,0.13627
6321.52026,0.08136
6323.44873,0.07617
6325.37720,0.11320
6327.30567,0.16427
6329.23414,0.19451
6331.16261,0.16282
6333.09108,0.10349
6335.01955,0.07532
6336.94801,0.08271
6338.87648,0.09713
6340.80495,0.10512
6342.73342,0.09713
6344.66189,0.07319
6346.59036,0.06467
6348.51883,0.09479
6350.44729,0.14141
6352.37576,0.16900
6354.30423,0.15586
6356.23270,0.11884
6358.16117,0.08201
6360.08964,0.03820
6362.01811,0.00591
6363.94658,-0.00229
6365.87504,-0.01358
6367.80351,-0.01689
6369.73198,0.03036
6371.66045,0.09985
6373.58892,0.10476
6375.51739,0.08181
6377.44586,0.09514
6379.37432,0.10665
6381.30279,0.09993
6383.23126,0.10546
6385.15973,0.13632
6387.08820,0.14559
6389.01667,0.12087
6390.94514,0.12281
6392.87361,0.17807
6394.80207,0.23195
6396.73054,0.23019
6398.65901,0.17063
6400.58748,0.09675
6402.51595,0.05244
6404.44442,0.02033
6406.37289,-0.00481
6408.30135,0.01465
6410.22982,0.06330
6412.15829,0.06948
6414.08676,0.04085
6416.01523,0.06596
6417.94370,0.15285
6419.87217,0.18379
6421.80064,0.13575
6423.72910,0.07192
6425.65757,0.00266
6427.58604,-0.02552
6429.51451,0.01969
6431.44298,0.05534
6433.37145,0.03857
6435.29992,0.04475
6437.22838,0.09055
6439.15685,0.11879
6441.08532,0.11336
6443.01379,0.08708
6444.94226,0.04965
6446.87073,0.00574
6448.79920,-0.01762
6450.72766,0.00283
6452.65613,0.04525
6454.58460,0.08925
6456.51307,0.10330
6458.44154,0.08077
6460.37001,0.07194
6462.29848,0.07815
6464.22695,0.06680
6466.15541,0.06046
6468.08388,0.07670
6470.01235,0.09878
6471.94082,0.13289
6473.86929,0.16588
6475.79776,0.14774
6477.72623,0.05066
6479.65469,-0.01954
6481.58316,0.01987
6483.51163,0.07225
6485.44010,0.09762
6487.36857,0.11455
6489.29704,0.08408
6491.22551,0.03090
6493.15398,0.04071
6495.08244,0.08445
6497.01091,0.08434
6498.93938,0.05742
6500.86785,0.02037
6502.79632,-0.01058
6504.72479,0.02193
6506.65326,0.08293
6508.58172,0.10171
6510.51019,0.11864
6512.43866,0.17073
6514.36713,0.19030
6516.29560,0.14012
6518.22407,0.06825
6520.15254,0.03186
6522.08101,0.00899
6524.00947,-0.03628
6525.93794,-0.04770
6527.86641,-0.00121
6529.79488,0.02048
6531.72335,0.00902
6533.65182,0.02586
6535.58029,0.08022
6537.50875,0.14887
6539.43722,0.16313
6541.36569,0.09405
6543.29416,0.03459
6545.22263,0.04316
6547.15110,0.08431
6549.07957,0.09873
6551.00804,0.09410
6552.93650,0.13384
6554.86497,0.18202
6556.79344,0.18927
6558.72191,0.15392
6560.65038,0.09916
6562.57885,0.06894
6564.50732,0.08201
6566.43578,0.11567
6568.36425,0.14150
6570.29272,0.16156
6572.22119,0.11102
6574.14966,-0.00759
6576.07813,-0.03725
6578.00660,0.04283
6579.93507,0.10432
6581.86353,0.10811
6583.79200,0.09369
6585.72047,0.07876
6587.64894,0.05468
6589.57741,0.01287
6591.50588,-0.02714
6593.43435,-0.00809
6595.36281,0.07537
6597.29128,0.14939
6599.21975,0.16818
6601.14822,0.09465
6603.07669,-0.00805
6605.00516,-0.03309
6606.93363,-0.00962
6608.86210,0.01503
6610.79056,0.05243
6612.71903,0.08844
6614.64750,0.10154
6616.57597,0.10094
6618.50444,0.09675
6620.43291,0.09362
6622.36138,0.08422
6624.28984,0.06135
6626.21831,0.02448
6628.14678,-0.02576
6630.07525,-0.04838
6632.00372,0.01471
6633.93219,0.12403
6635.86066,0.17769
6637.78912,0.15221
6639.71759,0.09382
6641.64606,0.00715
6643.57453,-0.07026
6645.50300,-0.05844
6647.43147,0.05039
6649.35994,0.14142
6651.28841,0.16026
6653.21687,0.15249
6655.14534,0.10290
6657.07381,0.00589
6659.00228,-0.03172
6660.93075,-0.00130
6662.85922,0.03028
6664.78769,0.07067
6666.71615,0.11236
6668.64462,0.11004
6670.57309,0.04979
6672.50156,-0.04844
6674.43003,-0.09160
6676.35850,-0.04118
6678.28697,0.01663
6680.21544,0.06879
6682.14390,0.14119
6684.07237,0.18215
6686.00084,0.18608
6687.92931,0.17090
6689.85778,0.14036
6691.78625,0.13261
6693.71472,0.10766
6695.64318,0.05996
6697.57165,0.05489
6699.50012,0.04804
6701.42859,0.01712
6703.35706,0.06359
6705.28553,0.14755
6707.21400,0.12108
6709.14247,0.02949
6711.07093,0.01598
6712.99940,0.05696
6714.92787,0.09474
6716.85634,0.10702
6718.78481,0.07800
6720.71328,0.07247
6722.64175,0.13341
6724.57021,0.17184
6726.49868,0.13429
6728.42715,0.07715
6730.35562,0.04017
6732.28409,-0.00225
6734.21256,-0.05782
6736.14103,-0.09406
6738.06950,-0.06704
6739.99796,0.01531
6741.92643,0.09107
6743.85490,0.11687
6745.78337,0.09593
6747.71184,0.04999
6749.64031,0.02913
6751.56878,0.07856
6753.49724,0.11802
6755.42571,0.04857
6757.35418,-0.05763
6759.28265,-0.08164
6761.21112,-0.00163
6763.13959,0.07019
6765.06806,0.08196
6766.99653,0.05824
6768.92499,0.05939
6770.85346,0.10577
6772.78193,0.13269
6774.71040,0.17403
6776.63887,0.23237
6778.56734,0.19435
6780.49581,0.08992
6782.42427,0.02356
6784.35274,0.02519
6786.28121,0.04645
6788.20968,0.04177
6790.13815,-0.00230
6792.06662,-0.02569
6793.99509,0.05685
6795.92355,0.14616
6797.85202,0.10172
6799.78049,0.01236
6801.70896,0.02592
6803.63743,0.06548
6805.56590,0.04299
6807.49437,0.00612
6809.42284,-0.05320
6811.35130,-0.08724
6813.27977,-0.02840
6815.20824,0.07310
6817.13671,0.15578
6819.06518,0.17763
6820.99365,0.16350
6822.92212,0.14705
6824.85058,0.09416
6826.77905,0.03790
6828.70752,0.06101
6830.63599,0.12605
6832.56446,0.14513
6834.49293,0.09724
6836.42140,0.03234
6838.34987,0.02534
6840.27833,0.03647
6842.20680,0.04496
6844.13527,0.06372
6846.06374,0.07291
6847.99221,0.07682
6849.92068,0.09262
6851.84915,0.11398
6853.77761,0.13267
6855.70608,0.14982
6857.63455,0.11164
6859.56302,0.00273
6861.49149,-0.05116
6863.41996,0.00256
6865.34843,0.06720
6867.27690,0.10134
6869.20536,0.09213
6871.13383,0.09900
6873.06230,0.15583
6874.99077,0.12757
6876.91924,0.04292
6878.84771,0.05217
6880.77618,0.11345
6882.70464,0.12007
6884.63311,0.10791
6886.56158,0.10224
6888.49005,0.10102
6890.41852,0.12750
6892.34699,0.15625
6894.27546,0.12651
6896.20393,0.05412
6898.13239,0.00164
6900.06086,-0.00639
6901.98933,0.05004
6903.91780,0.15233
6905.84627,0.17179
6907.77474,0.14100
6909.70321,0.15228
6911.63167,0.12130
6913.56014,0.07701
6915.48861,0.12646
6917.41708,0.16346
6919.34555,0.08484
6921.27402,0.02222
6923.20249,0.06278
6925.13096,0.09978
6927.05942,0.08163
6928.98789,0.04721
6930.91636,-0.02809
6932.84483,-0.10424
6934.77330,-0.08911
6936.70177,-0.09375
6938.63024,-0.13377
6940.55870,-0.06722
6942.48717,0.05228
6944.41564,0.09938
6946.34411,0.08937
6948.27258,0.03199
6950.20105,-0.00357
6952.12952,0.05865
6954.05799,0.16777
6955.98645,0.20907
6957.91492,0.17802
6959.84339,0.12588
6961.77186,0.08638
6963.70033,0.08588
6965.62880,0.09023
6967.55727,0.06815
6969.48573,0.03917
6971.41420,0.01235
6973.34267,-0.03504
6975.27114,-0.06477
6977.19961,0.00496
6979.12808,0.09826
6981.05655,0.12984
6982.98501,0.15517
6984.91348,0.15636
6986.84195,0.10924
6988.77042,0.09294
6990.69889,0.07683
6992.62736,0.04019
6994.55583,0.02055
6996.48430,0.01681
6998.41276,0.03980
7000.34123,0.10005
7002.26970,0.14548
7004.19817,0.13517
7006.12664,0.09320
7008.05511,0.04296
7009.98358,-0.01094
7011.91204,-0.03792
7013.84051,-0.02791
7015.76898,-0.02486
7017.69745,-0.02146
7019.62592,0.01191
7021.55439,0.05953
7023.48286,0.07010
7025.41133,0.07874
7027.33979,0.19287
7029.26826,0.26414
7031.19673,0.18275
7033.12520,0.14042
7035.05367,0.14294
7036.98214,0.10114
7038.91061,0.07458
7040.83907,0.15253
7042.76754,0.30482
7044.69601,0.30841
7046.62448,0.14072
7048.55295,0.03156
7050.48142,0.05459
7052.40989,0.11507
7054.33836,0.15277
7056.26682,0.19376
7058.19529,0.28830
7060.12376,0.33427
7062.05223,0.23564
7063.98070,0.09590
7065.90917,0.06558
7067.83764,0.09022
7069.76610,0.10133
7071.69457,0.03072
7073.62304,-0.07366
7075.55151,-0.06053
7077.47998,0.01828
7079.40845,0.04043
7081.33692,0.04087
7083.26539,0.09792
7085.19385,0.15302
7087.12232,0.10798
7089.05079,0.00828
7090.97926,-0.06675
7092.90773,-0.16364
7094.83620,-0.22353
7096.76467,-0.18453
7098.69313,-0.08864
7100.62160,-0.03972
7102.55007,-0.01684
7104.47854,0.08091
7106.40701,0.18405
7108.33548,0.16470
7110.26395,0.09464
7112.19242,0.04858
7114.12088,0.05926
7116.04935,0.13553
7117.97782,0.18876
7119.90629,0.12964
7121.83476,-0.00573
7123.76323,-0.12006
7125.69170,-0.13815
7127.62016,-0.11080
7129.54863,-0.05419
7131.47710,0.05067
7133.40557,0.11207
7135.33404,0.11020
7137.26251,0.10944
7139.19098,0.08201
7141.11944,0.03113
7143.04791,0.05586
7144.97638,0.12577
7146.90485,0.11566
7148.83332,0.04550
7150.76179,-0.00069
7152.69026,0.03845
7154.61873,0.10619
7156.54719,0.06976
7158.47566,-0.00360
7160.40413,-0.00607
7162.33260,0.02669
7164.26107,0.04750
7166.18954,0.08485
7168.11801,0.09758
7170.04647,0.06590
7171.97494,0.10038
7173.90341,0.19779
7175.83188,0.19586
7177.76035,0.07668
7179.68882,-0.00496
7181.61729,-0.08309
7183.54576,-0.18579
7185.47422,-0.17184
7187.40269,-0.09318
7189.33116,-0.01459
7191.25963,0.09287
7193.18810,0.16790
7195.11657,0.13678
7197.04504,0.03780
7198.97350,-0.02898
7200.90197,-0.06479
7202.83044,-0.13661
7204.75891,-0.16105
7206.68738,-0.04972
7208.61585,0.06841
7210.54432,0.13547
7212.47279,0.15399
7214.40125,0.12800
7216.32972,0.05525
7218.25819,0.08891
7220.18666,0.23391
7222.11513,0.21134
7224.04360,0.04978
7225.97207,-0.03298
7227.90053,0.03283
7229.82900,0.13323
7231.75747,0.18922
7233.68594,0.10539
7235.61441,-0.06965
7237.54288,-0.11354
7239.47135,0.04420
7241.39982,0.20165
7243.32828,0.17705
7245.25675,0.03850
7247.18522,0.03260
7249.11369,0.17108
7251.04216,0.26985
7252.97063,0.24191
7254.89910,0.18506
7256.82756,0.14081
7258.75603,0.08625
7260.68450,-0.01977
7262.61297,-0.19152
7264.54144,-0.29532
7266.46991,-0.22344
7268.39838,-0.06870
7270.32685,0.08133
7272.25531,0.14347
7274.18378,0.08097
7276.11225,0.05703
7278.04072,0.05679
7279.96919,-0.02618
7281.89766,-0.03242
7283.82613,0.08599
7285.75459,0.19793
7287.68306,0.21386
7289.61153,0.07588
7291.54000,-0.05354
7293.46847,-0.01597
7295.39694,0.11266
7297.32541,0.18492
7299.25387,0.12350
7301.18234,-0.01280
7303.11081,-0.13837
7305.03928,-0.17069
7306.96775,-0.10148
7308.89622,0.00852
7310.82469,0.09278
7312.75316,0.12908
7314.68162,0.15638
7316.61009,0.15609
7318.53856,0.08973
7320.46703,0.04889
7322.39550,0.10581
7324.32397,0.19777
7326.25244,0.23788
7328.18090,0.26997
7330.10937,0.31392
7332.03784,0.21658
7333.96631,0.03519
7335.89478,-0.04254
7337.82325,-0.04281
7339.75172,0.03158
7341.68019,0.20548
7343.60865,0.29779
7345.53712,0.22187
7347.46559,0.05451
7349.39406,-0.01731
7351.32253,0.07197
7353.25100,0.14237
7355.17947,0.04444
7357.10793,-0.15740
7359.03640,-0.25210
7360.96487,-0.15084
7362.89334,-0.04959
7364.82181,-0.00240
7366.75028,0.03904
7368.67875,0.02097
7370.60722,-0.02103
7372.53568,-0.04333
7374.46415,-0.08262
7376.39262,-0.07194
7378.32109,0.05881
7380.24956,0.21721
7382.17803,0.28243
7384.10650,0.21687
7386.03496,0.08889
7387.96343,-0.03904
7389.89190,-0.14806
7391.82037,-0.23022
7393.74884,-0.22301
7395.67731,-0.10734
7397.60578,0.01590
7399.53425,0.04816
7401.46271,0.03350
7403.39118,0.08966
7405.31965,0.18729
7407.24812,0.16046
7409.17659,0.03615
7411.10506,0.01548
7413.03353,0.11161
7414.96199,0.13983
7416.89046,0.07241
7418.81893,0.03044
7420.74740,0.08049
7422.67587,0.07003
7424.60434,-0.05224
7426.53281,-0.14689
7428.46128,-0.05867
7430.38974,0.17812
7432.31821,0.23656
7434.24668,0.12593
7436.17515,0.08124
7438.10362,0.11342
7440.03209,0.08303
7441.96056,0.01073
7443.88902,0.04604
7445.81749,0.12966
7447.74596,0.11858
7449.67443,0.07074
7451.60290,0.08765
7453.53137,0.05138
7455.45984,-0.08650
7457.38831,-0.14369
7459.31677,0.03072
7461.24524,0.22306
7463.17371,0.23386
7465.10218,0.26881
7467.03065,0.31654
7468.95912,0.29148
7470.88759,0.25414
7472.81605,0.18268
7474.74452,0.12231
7476.67299,0.19648
7478.60146,0.34242
7480.52993,0.42795
7482.45840,0.41177
7484.38687,0.26039
7486.31533,0.08173
7488.24380,0.02332
7490.17227,0.10155
7492.10074,0.22208
7494.02921,0.26172
7495.95768,0.20128
7497.88615,0.06435
