399.19301,1.19245
401.12148,0.04364
403.04995,-0.08389
404.97842,0.11872
406.90689,0.34039
408.83536,0.37595
410.76382,0.21803
412.69229,0.11367
414.62076,0.05710
416.54923,-0.08460
418.47770,-0.24989
420.40617,-0.19147
422.33464,-0.05729
424.26311,-0.04855
426.19157,-0.07416
428.12004,-0.07268
430.04851,-0.09203
431.97698,-0.07646
433.90545,0.02642
435.83392,0.09981
437.76239,0.08167
439.69085,0.03193
441.61932,0.02611
443.54779,0.08631
445.47626,0.13993
447.40473,0.12729
449.33320,0.06814
451.26167,0.00897
453.19013,-0.00617
455.11860,0.03903
457.04707,0.10722
458.97554,0.11967
460.90401,0.06886
462.83248,0.02980
464.76095,0.05417
466.68942,0.11700
468.61788,0.13961
470.54635,0.11238
472.47482,0.06667
474.40329,-0.00942
476.33176,-0.06636
478.26023,-0.03105
480.18870,0.07241
482.11716,0.15027
484.04563,0.14335
485.97410,0.11383
487.90257,0.09966
489.83104,0.06623
491.75951,0.01699
493.68798,0.01552
495.61645,0.04360
497.54491,0.03425
499.47338,0.02248
501.40185,0.04824
503.33032,0.09027
505.25879,0.11115
507.18726,0.08615
509.11573,0.06638
511.04419,0.09370
512.97266,0.13437
514.90113,0.17184
516.82960,0.18591
518.75807,0.16319
520.68654,0.14232
522.61501,0.13192
524.54348,0.10027
526.47194,0.05065
528.40041,0.04130
530.32888,0.05832
532.25735,0.06120
534.18582,0.07759
536.11429,0.10319
538.04276,0.10566
539.97122,0.10557
541.89969,0.12130
543.82816,0.13290
545.75663,0.11136
547.68510,0.07873
549.61357,0.07872
551.54204,0.09610
553.47051,0.10407
555.39897,0.11413
557.32744,0.11266
559.25591,0.08734
561.18438,0.07701
563.11285,0.09414
565.04132,0.10542
566.96979,0.08875
568.89825,0.06290
570.82672,0.07842
572.75519,0.14706
574.68366,0.19565
576.61213,0.16808
578.54060,0.12400
580.46907,0.10680
582.39754,0.09686
584.32600,0.09874
586.25447,0.11722
588.18294,0.11796
590.11141,0.09243
592.03988,0.07800
593.96835,0.09062
595.89682,0.11230
597.82528,0.12595
599.75375,0.12295
601.68222,0.12106
603.61069,0.13635
605.53916,0.13843
607.46763,0.11296
609.39610,0.09722
611.32456,0.10660
613.25303,0.11770
615.18150,0.11416
617.10997,0.09886
619.03844,0.08523
620.96691,0.08284
622.89538,0.09050
624.82385,0.10491
626.75231,0.11500
628.68078,0.10917
630.60925,0.10020
632.53772,0.10751
634.46619,0.11845
636.39466,0.11776
638.32313,0.12095
640.25159,0.13536
642.18006,0.14603
644.10853,0.14172
646.03700,0.12794
647.96547,0.11504
649.89394,0.10689
651.82241,0.10738
653.75088,0.11287
655.67934,0.11476
657.60781,0.10595
659.53628,0.08674
661.46475,0.07644
663.39322,0.08214
665.32169,0.08909
667.25016,0.09095
669.17862,0.09001
671.10709,0.08802
673.03556,0.09595
674.96403,0.11604
676.89250,0.13149
678.82097,0.13379
680.74944,0.13259
682.67791,0.13238
684.60637,0.12709
686.53484,0.12036
688.46331,0.11982
690.39178,0.12291
692.32025,0.12698
694.24872,0.12981
696.17719,0.12898
698.10565,0.12522
700.03412,0.11899
701.96259,0.11301
703.89106,0.11532
705.81953,0.12344
707.74800,0.12656
709.67647,0.12744
711.60494,0.13122
713.53340,0.13318
715.46187,0.13087
717.39034,0.12498
719.31881,0.11737
721.24728,0.11766
723.17575,0.12639
725.10422,0.12817
727.03268,0.12085
728.96115,0.12055
730.88962,0.12995
732.81809,0.13117
734.74656,0.12001
736.67503,0.11100
738.60350,0.11172
740.53197,0.12128
742.46043,0.13085
744.38890,0.12845
746.31737,0.11859
748.24584,0.11359
750.17431,0.11422
752.10278,0.11761
754.03125,0.12014
755.95971,0.12147
757.88818,0.12606
759.81665,0.13115
761.74512,0.13133
763.67359,0.12605
765.60206,0.12146
767.53053,0.12426
769.45900,0.12529
771.38746,0.11832
773.31593,0.11886
775.24440,0.12551
777.17287,0.12148
779.10134,0.11234
781.02981,0.11031
782.95828,0.11920
784.88674,0.13165
786.81521,0.13301
788.74368,0.12226
790.67215,0.11241
792.60062,0.11290
794.52909,0.11844
796.45756,0.12095
798.38602,0.12096
800.31449,0.11808
802.24296,0.11730
804.17143,0.11717
806.09990,0.10817
808.02837,0.10327
809.95684,0.10952
811.88531,0.11308
813.81377,0.11353
815.74224,0.11538
817.67071,0.11634
819.59918,0.11669
821.52765,0.12057
823.45612,0.13023
825.38459,0.14045
827.31305,0.14474
829.24152,0.14523
831.16999,0.14550
833.09846,0.14170
835.02693,0.13225
836.95540,0.12433
838.88387,0.12214
840.81234,0.11898
842.74080,0.11318
844.66927,0.11379
846.59774,0.12033
848.52621,0.12412
850.45468,0.12637
852.38315,0.13423
854.31162,0.14310
856.24008,0.14610
858.16855,0.14802
860.09702,0.14729
862.02549,0.13932
863.95396,0.13059
865.88243,0.12718
867.81090,0.13352
869.73937,0.14595
871.66783,0.15075
873.59630,0.14659
875.52477,0.14223
877.45324,0.14154
879.38171,0.14075
881.31018,0.13854
883.23865,0.14100
885.16711,0.14758
887.09558,0.14964
889.02405,0.14089
890.95252,0.12862
892.88099,0.12539
894.80946,0.12824
896.73793,0.12955
898.66640,0.13182
900.59486,0.13751
902.52333,0.14152
904.45180,0.14181
906.38027,0.14326
908.30874,0.14598
910.23721,0.14526
912.16568,0.13907
914.09414,0.13095
916.02261,0.12693
917.95108,0.12743
919.87955,0.13152
921.80802,0.13991
923.73649,0.14442
925.66496,0.13927
927.59343,0.13436
929.52189,0.13741
931.45036,0.14392
933.37883,0.14755
935.30730,0.14660
937.23577,0.14491
939.16424,0.14699
941.09271,0.14895
943.02117,0.14586
944.94964,0.14368
946.87811,0.14653
948.80658,0.14911
950.73505,0.14720
952.66352,0.14410
954.59199,0.14559
956.52045,0.14668
958.44892,0.14370
960.37739,0.14447
962.30586,0.14742
964.23433,0.14510
966.16280,0.14247
968.09127,0.14449
970.01974,0.14354
971.94820,0.13559
973.87667,0.12967
975.80514,0.13294
977.73361,0.14204
979.66208,0.14793
981.59055,0.14448
983.51902,0.13553
985.44748,0.12760
987.37595,0.12492
989.30442,0.13188
991.23289,0.14235
993.16136,0.14559
995.08983,0.14272
997.01830,0.13860
998.94677,0.13464
1000.87523,0.13067
1002.80370,0.13037
1004.73217,0.13591
1006.66064,0.13893
1008.58911,0.13839
1010.51758,0.14319
1012.44605,0.15119
1014.37451,0.15783
1016.30298,0.16297
1018.23145,0.16061
1020.15992,0.15269
1022.08839,0.14767
1024.01686,0.14677
1025.94533,0.14856
1027.87380,0.15022
1029.80226,0.14728
1031.73073,0.13832
1033.65920,0.13241
1035.58767,0.13675
1037.51614,0.14536
1039.44461,0.15227
1041.37308,0.15614
1043.30154,0.15802
1045.23001,0.15759
1047.15848,0.15390
1049.08695,0.14968
1051.01542,0.14698
1052.94389,0.14759
1054.87236,0.15118
1056.80083,0.15098
1058.72929,0.14653
1060.65776,0.14483
1062.58623,0.14589
1064.51470,0.15199
1066.44317,0.16495
1068.37164,0.17311
1070.30011,0.16964
1072.22857,0.16354
1074.15704,0.16451
1076.08551,0.16802
1078.01398,0.16678
1079.94245,0.16293
1081.87092,0.16007
1083.79939,0.15787
1085.72786,0.15574
1087.65632,0.15505
1089.58479,0.15334
1091.51326,0.15008
1093.44173,0.15114
1095.37020,0.15533
1097.29867,0.15905
1099.22714,0.16442
1101.15560,0.16831
1103.08407,0.16545
1105.01254,0.16147
1106.94101,0.16301
1108.86948,0.16443
1110.79795,0.16148
1112.72642,0.16016
1114.65489,0.16062
1116.58335,0.16026
1118.51182,0.16018
1120.44029,0.15817
1122.36876,0.15633
1124.29723,0.15801
1126.22570,0.15953
1128.15417,0.15748
1130.08263,0.15253
1132.01110,0.14886
1133.93957,0.15167
1135.86804,0.15930
1137.79651,0.16487
1139.72498,0.16538
1141.65345,0.16211
1143.58191,0.16053
1145.51038,0.16395
1147.43885,0.16845
1149.36732,0.17144
1151.29579,0.17160
1153.22426,0.16798
1155.15273,0.16309
1157.08120,0.15940
1159.00966,0.15682
1160.93813,0.15611
1162.86660,0.15880
1164.79507,0.16221
1166.72354,0.16152
1168.65201,0.15789
1170.58048,0.15792
1172.50894,0.16167
1174.43741,0.16273
1176.36588,0.16028
1178.29435,0.15784
1180.22282,0.15645
1182.15129,0.15596
1184.07976,0.15753
1186.00823,0.16118
1187.93669,0.16326
1189.86516,0.16297
1191.79363,0.16521
1193.72210,0.16863
1195.65057,0.16649
1197.57904,0.15972
1199.50751,0.15495
1201.43597,0.15441
1203.36444,0.15507
1205.29291,0.15520
1207.22138,0.15555
1209.14985,0.15734
1211.07832,0.16002
1213.00679,0.16146
1214.93526,0.16174
1216.86372,0.16197
1218.79219,0.16179
1220.72066,0.16096
1222.64913,0.16077
1224.57760,0.16061
1226.50607,0.16025
1228.43454,0.16188
1230.36300,0.16308
1232.29147,0.16066
1234.21994,0.15727
1236.14841,0.15770
1238.07688,0.16225
1240.00535,0.16615
1241.93382,0.16669
1243.86229,0.16662
1245.79075,0.16626
1247.71922,0.16393
1249.64769,0.16450
1251.57616,0.16862
1253.50463,0.16995
1255.43310,0.16818
1257.36157,0.16653
1259.29003,0.16580
1261.21850,0.16623
1263.14697,0.16839
1265.07544,0.16961
1267.00391,0.16785
1268.93238,0.16722
1270.86085,0.16900
1272.78932,0.16929
1274.71778,0.16877
1276.64625,0.17035
1278.57472,0.17228
1280.50319,0.17209
1282.43166,0.17026
1284.36013,0.16941
1286.28860,0.16977
1288.21706,0.16931
1290.14553,0.17029
1292.07400,0.17382
1294.00247,0.17532
1295.93094,0.17193
1297.85941,0.16547
1299.78788,0.15933
1301.71634,0.15320
1303.64481,0.14550
1305.57328,0.14433
1307.50175,0.15508
1309.43022,0.16611
1311.35869,0.16970
1313.28716,0.17041
1315.21563,0.17073
1317.14409,0.16970
1319.07256,0.16878
1321.00103,0.17029
1322.92950,0.17154
1324.85797,0.16990
1326.78644,0.16806
1328.71491,0.16819
1330.64337,0.16814
1332.57184,0.16709
1334.50031,0.16589
1336.42878,0.16555
1338.35725,0.16895
1340.28572,0.17222
1342.21419,0.17589
1344.14266,0.18644
1346.07112,0.19180
1347.99959,0.18236
1349.92806,0.17139
1351.85653,0.16923
1353.78500,0.17188
1355.71347,0.17387
1357.64194,0.17432
1359.57040,0.17538
1361.49887,0.17608
1363.42734,0.17364
1365.35581,0.17291
1367.28428,0.17645
1369.21275,0.17943
1371.14122,0.18085
1373.06969,0.18417
1374.99815,0.18563
1376.92662,0.18258
1378.85509,0.18172
1380.78356,0.18222
1382.71203,0.18080
1384.64050,0.18140
1386.56897,0.18513
1388.49743,0.18610
1390.42590,0.18320
1392.35437,0.18223
1394.28284,0.18583
1396.21131,0.18960
1398.13978,0.18807
1400.06825,0.18311
1401.99672,0.18082
1403.92518,0.18159
1405.85365,0.18105
1407.78212,0.17989
1409.71059,0.18132
1411.63906,0.18318
1413.56753,0.18411
1415.49600,0.18630
1417.42446,0.18866
1419.35293,0.18714
1421.28140,0.18541
1423.20987,0.18577
1425.13834,0.18495
1427.06681,0.18432
1428.99528,0.18515
1430.92375,0.18474
1432.85221,0.18349
1434.78068,0.18496
1436.70915,0.18747
1438.63762,0.18607
1440.56609,0.18529
1442.49456,0.18680
1444.42303,0.18852
1446.35149,0.19095
1448.27996,0.19323
1450.20843,0.19310
1452.13690,0.19286
1454.06537,0.19609
1455.99384,0.20737
1457.92231,0.21682
1459.85077,0.20685
1461.77924,0.19765
1463.70771,0.19636
1465.63618,0.19720
1467.56465,0.19505
1469.49312,0.19475
1471.42159,0.19940
1473.35006,0.20298
1475.27852,0.20212
1477.20699,0.20009
1479.13546,0.19637
1481.06393,0.19180
1482.99240,0.18891
1484.92087,0.19160
1486.84934,0.19850
1488.77780,0.20270
1490.70627,0.20080
1492.63474,0.19823
1494.56321,0.19973
1496.49168,0.20376
1498.42015,0.20096
1500.34862,0.19465
1502.27709,0.19515
1504.20555,0.20279
1506.13402,0.21675
1508.06249,0.21966
1509.99096,0.20822
1511.91943,0.20102
1513.84790,0.20162
1515.77637,0.20816
1517.70483,0.21395
1519.63330,0.21791
1521.56177,0.21876
1523.49024,0.21077
1525.41871,0.20310
1527.34718,0.19787
1529.27565,0.19297
1531.20412,0.19305
1533.13258,0.19913
1535.06105,0.20273
1536.98952,0.20864
1538.91799,0.22573
1540.84646,0.23593
1542.77493,0.22074
1544.70340,0.20442
1546.63186,0.19632
1548.56033,0.19685
1550.48880,0.19901
1552.41727,0.19938
1554.34574,0.20460
1556.27421,0.21633
1558.20268,0.22716
1560.13115,0.21792
1562.05961,0.20500
1563.98808,0.19898
1565.91655,0.19738
1567.84502,0.20056
1569.77349,0.20204
1571.70196,0.19682
1573.63043,0.19525
1575.55889,0.19910
1577.48736,0.19919
1579.41583,0.19552
1581.34430,0.19412
1583.27277,0.19401
1585.20124,0.19212
1587.12971,0.18914
1589.05818,0.18841
1590.98664,0.18957
1592.91511,0.19104
1594.84358,0.19297
1596.77205,0.19260
1598.70052,0.19055
1600.62899,0.19095
1602.55746,0.19278
1604.48592,0.19269
1606.41439,0.19091
1608.34286,0.18895
1610.27133,0.18718
1612.19980,0.18750
1614.12827,0.19164
1616.05674,0.19791
1617.98521,0.19932
1619.91367,0.19890
1621.84214,0.20321
1623.77061,0.20651
1625.69908,0.20243
1627.62755,0.19694
1629.55602,0.19531
1631.48449,0.19891
1633.41295,0.20826
1635.34142,0.21952
1637.26989,0.21619
1639.19836,0.20784
1641.12683,0.20460
1643.05530,0.20504
1644.98377,0.21109
1646.91223,0.21764
1648.84070,0.21312
1650.76917,0.21255
1652.69764,0.22691
1654.62611,0.23012
1656.55458,0.21553
1658.48305,0.20508
1660.41152,0.20261
1662.33998,0.20584
1664.26845,0.20684
1666.19692,0.20697
1668.12539,0.21261
1670.05386,0.21898
1671.98233,0.21711
1673.91080,0.21301
1675.83926,0.20849
1677.76773,0.20567
1679.69620,0.20691
1681.62467,0.21093
1683.55314,0.21806
1685.48161,0.22052
1687.41008,0.21488
1689.33855,0.20840
1691.26701,0.20331
1693.19548,0.20308
1695.12395,0.20912
1697.05242,0.21321
1698.98089,0.20781
1700.90936,0.20296
1702.83783,0.20559
1704.76629,0.20851
1706.69476,0.20591
1708.62323,0.19969
1710.55170,0.19453
1712.48017,0.19301
1714.40864,0.19766
1716.33711,0.20547
1718.26558,0.20426
1720.19404,0.19682
1722.12251,0.19360
1724.05098,0.19520
1725.97945,0.19724
1727.90792,0.19787
1729.83639,0.19983
1731.76486,0.20435
1733.69332,0.20928
1735.62179,0.20906
1737.55026,0.20689
1739.47873,0.20559
1741.40720,0.20303
1743.33567,0.20037
1745.26414,0.20127
1747.19261,0.20482
1749.12107,0.20550
1751.04954,0.20126
1752.97801,0.19704
1754.90648,0.19569
1756.83495,0.19661
1758.76342,0.19774
1760.69189,0.19775
1762.62035,0.19610
1764.54882,0.19445
1766.47729,0.19536
1768.40576,0.19880
1770.33423,0.20438
1772.26270,0.20883
1774.19117,0.20585
1776.11964,0.20052
1778.04810,0.19924
1779.97657,0.20048
1781.90504,0.19914
1783.83351,0.19581
1785.76198,0.19246
1787.69045,0.19077
1789.61892,0.19241
1791.54738,0.19471
1793.47585,0.19452
1795.40432,0.19474
1797.33279,0.19681
1799.26126,0.19947
1801.18973,0.20033
1803.11820,0.19656
1805.04666,0.19188
1806.97513,0.19253
1808.90360,0.19713
1810.83207,0.19770
1812.76054,0.19320
1814.68901,0.19101
1816.61748,0.19205
1818.54595,0.19227
1820.47441,0.19149
1822.40288,0.19273
1824.33135,0.19666
1826.25982,0.20029
1828.18829,0.20188
1830.11676,0.20124
1832.04523,0.19896
1833.97369,0.19712
1835.90216,0.19554
1837.83063,0.19375
1839.75910,0.19418
1841.68757,0.19911
1843.61604,0.20478
1845.54451,0.20296
1847.47298,0.19605
1849.40144,0.19162
1851.32991,0.19132
1853.25838,0.19230
1855.18685,0.19194
1857.11532,0.19115
1859.04379,0.19240
1860.97226,0.19508
1862.90072,0.19533
1864.82919,0.19350
1866.75766,0.19372
1868.68613,0.19520
1870.61460,0.19434
1872.54307,0.19263
1874.47154,0.19200
1876.40001,0.19331
1878.32847,0.19522
1880.25694,0.19438
1882.18541,0.19207
1884.11388,0.19140
1886.04235,0.19173
1887.97082,0.19370
1889.89929,0.19598
1891.82775,0.19523
1893.75622,0.19487
1895.68469,0.19639
1897.61316,0.19605
1899.54163,0.19356
1901.47010,0.19173
1903.39857,0.19124
1905.32704,0.19246
1907.25550,0.19585
1909.18397,0.19785
1911.11244,0.19641
1913.04091,0.19493
1914.96938,0.19629
1916.89785,0.19908
1918.82632,0.19931
1920.75478,0.19698
1922.68325,0.19404
1924.61172,0.19139
1926.54019,0.18992
1928.46866,0.18994
1930.39713,0.19133
1932.32560,0.19254
1934.25407,0.19354
1936.18253,0.19507
1938.11100,0.19641
1940.03947,0.19772
1941.96794,0.19806
1943.89641,0.19636
1945.82488,0.19387
1947.75335,0.19035
1949.68181,0.18802
1951.61028,0.19079
1953.53875,0.19587
1955.46722,0.19865
1957.39569,0.19865
1959.32416,0.19729
1961.25263,0.19655
1963.18110,0.19687
1965.10956,0.19697
1967.03803,0.19545
1968.96650,0.19262
1970.89497,0.19104
1972.82344,0.19228
1974.75191,0.19392
1976.68038,0.19246
1978.60884,0.19068
1980.53731,0.19220
1982.46578,0.19338
1984.39425,0.19264
1986.32272,0.19298
1988.25119,0.19356
1990.17966,0.19324
1992.10812,0.19337
1994.03659,0.19372
1995.96506,0.19291
1997.89353,0.19148
1999.82200,0.19133
2001.75047,0.19227
2003.67894,0.19267
2005.60741,0.19221
2007.53587,0.19174
2009.46434,0.19220
2011.39281,0.19395
2013.32128,0.19636
2015.24975,0.19745
2017.17822,0.19601
2019.10669,0.19366
2021.03515,0.19258
2022.96362,0.19362
2024.89209,0.19603
2026.82056,0.19679
2028.74903,0.19458
2030.67750,0.19178
2032.60597,0.19024
2034.53444,0.19055
2036.46290,0.19232
2038.39137,0.19451
2040.31984,0.19641
2042.24831,0.19664
2044.17678,0.19527
2046.10525,0.19470
2048.03372,0.19543
2049.96218,0.19611
2051.89065,0.19600
2053.81912,0.19527
2055.74759,0.19508
2057.67606,0.19542
2059.60453,0.19479
2061.53300,0.19386
2063.46147,0.19454
2065.38993,0.19594
2067.31840,0.19605
2069.24687,0.19512
2071.17534,0.19397
2073.10381,0.19344
2075.03228,0.19479
2076.96075,0.19656
2078.88921,0.19561
2080.81768,0.19286
2082.74615,0.19185
2084.67462,0.19334
2086.60309,0.19528
2088.53156,0.19598
2090.46003,0.19547
2092.38850,0.19417
2094.31696,0.19304
2096.24543,0.19308
2098.17390,0.19434
2100.10237,0.19558
2102.03084,0.19497
2103.95931,0.19371
2105.88778,0.19394
2107.81624,0.19471
2109.74471,0.19551
2111.67318,0.19704
2113.60165,0.19847
2115.53012,0.19915
2117.45859,0.20021
2119.38706,0.20158
2121.31553,0.20137
2123.24399,0.19967
2125.17246,0.19949
2127.10093,0.20139
2129.02940,0.20150
2130.95787,0.19908
2132.88634,0.19724
2134.81481,0.19680
2136.74327,0.19650
2138.67174,0.19461
2140.60021,0.19238
2142.52868,0.19285
2144.45715,0.19438
2146.38562,0.19482
2148.31409,0.19605
2150.24255,0.19844
2152.17102,0.19896
2154.09949,0.19667
2156.02796,0.19481
2157.95643,0.19445
2159.88490,0.19399
2161.81337,0.19403
2163.74184,0.19502
2165.67030,0.19648
2167.59877,0.19706
2169.52724,0.19552
2171.45571,0.19434
2173.38418,0.19460
2175.31265,0.19382
2177.24112,0.19336
2179.16958,0.19701
2181.09805,0.20228
2183.02652,0.20347
2184.95499,0.20089
2186.88346,0.19818
2188.81193,0.19707
2190.74040,0.19714
2192.66887,0.19667
2194.59733,0.19597
2196.52580,0.19700
2198.45427,0.19770
2200.38274,0.19429
2202.31121,0.19001
2204.23968,0.19123
2206.16815,0.19684
2208.09661,0.20132
2210.02508,0.20171
2211.95355,0.19860
2213.88202,0.19580
2215.81049,0.19416
2217.73896,0.19223
2219.66743,0.19304
2221.59590,0.19711
2223.52436,0.19986
2225.45283,0.19960
2227.38130,0.19820
2229.30977,0.19735
2231.23824,0.19731
2233.16671,0.19723
2235.09518,0.19663
2237.02364,0.19675
2238.95211,0.19789
2240.88058,0.19848
2242.80905,0.19924
2244.73752,0.20038
2246.66599,0.19951
2248.59446,0.19810
2250.52293,0.19949
2252.45139,0.20156
2254.37986,0.20133
2256.30833,0.19957
2258.23680,0.19720
2260.16527,0.19511
2262.09374,0.19394
2264.02221,0.19337
2265.95067,0.19435
2267.87914,0.19655
2269.80761,0.19761
2271.73608,0.19758
2273.66455,0.19820
2275.59302,0.19940
2277.52149,0.19959
2279.44996,0.19916
2281.37842,0.19965
2283.30689,0.20035
2285.23536,0.19998
2287.16383,0.19778
2289.09230,0.19431
2291.02077,0.19247
2292.94924,0.19166
2294.87770,0.19001
2296.80617,0.19069
2298.73464,0.19423
2300.66311,0.19668
2302.59158,0.19703
2304.52005,0.19686
2306.44852,0.19673
2308.37699,0.19663
2310.30545,0.19716
2312.23392,0.19735
2314.16239,0.19552
2316.09086,0.19545
2318.01933,0.20008
2319.94780,0.20476
2321.87627,0.20640
2323.80473,0.20500
2325.73320,0.20150
2327.66167,0.19833
2329.59014,0.19821
2331.51861,0.20168
2333.44708,0.20144
2335.37555,0.19782
2337.30401,0.19917
2339.23248,0.20539
2341.16095,0.21217
2343.08942,0.21586
2345.01789,0.21372
2346.94636,0.20801
2348.87483,0.20118
2350.80330,0.19481
2352.73176,0.19512
2354.66023,0.20083
2356.58870,0.20065
2358.51717,0.20456
2360.44564,0.21324
2362.37411,0.20894
2364.30258,0.19238
2366.23104,0.17916
2368.15951,0.18089
2370.08798,0.19026
2372.01645,0.19805
2373.94492,0.20062
2375.87339,0.19639
2377.80186,0.19250
2379.73033,0.19430
2381.65879,0.19779
2383.58726,0.19904
2385.51573,0.19930
2387.44420,0.20052
2389.37267,0.20073
2391.30114,0.19979
2393.22961,0.20042
2395.15807,0.20176
2397.08654,0.20128
2399.01501,0.19858
2400.94348,0.19657
2402.87195,0.19771
2404.80042,0.19967
2406.72889,0.20041
2408.65736,0.20075
2410.58582,0.20048
2412.51429,0.19862
2414.44276,0.19677
2416.37123,0.19740
2418.29970,0.19992
2420.22817,0.20151
2422.15664,0.20115
2424.08510,0.19965
2426.01357,0.19823
2427.94204,0.19818
2429.87051,0.19875
2431.79898,0.19915
2433.72745,0.19970
2435.65592,0.19923
2437.58439,0.19845
2439.51285,0.19844
2441.44132,0.19718
2443.36979,0.19569
2445.29826,0.19732
2447.22673,0.20005
2449.15520,0.19978
2451.08367,0.19738
2453.01213,0.19579
2454.94060,0.19594
2456.86907,0.19728
2458.79754,0.19858
2460.72601,0.19923
2462.65448,0.19890
2464.58295,0.19843
2466.51142,0.19956
2468.43988,0.20019
2470.36835,0.19849
2472.29682,0.19787
2474.22529,0.19913
2476.15376,0.19921
2478.08223,0.19815
2480.01070,0.19804
2481.93916,0.19895
2483.86763,0.19997
2485.79610,0.20099
2487.72457,0.20153
2489.65304,0.20226
2491.58151,0.20397
2493.50998,0.20383
2495.43844,0.20090
2497.36691,0.19873
2499.29538,0.19908
2501.22385,0.20050
2503.15232,0.20102
2505.08079,0.20043
2507.00926,0.20106
2508.93773,0.20379
2510.86619,0.20615
2512.79466,0.20621
2514.72313,0.20446
2516.65160,0.20334
2518.58007,0.20394
2520.50854,0.20332
2522.43701,0.20084
2524.36547,0.19937
2526.29394,0.19866
2528.22241,0.19797
2530.15088,0.19810
2532.07935,0.19866
2534.00782,0.19992
2535.93629,0.20108
2537.86476,0.20005
2539.79322,0.19968
2541.72169,0.20203
2543.65016,0.20274
2545.57863,0.20071
2547.50710,0.19922
2549.43557,0.19918
2551.36404,0.20082
2553.29250,0.20414
2555.22097,0.20672
2557.14944,0.20581
2559.07791,0.20219
2561.00638,0.19938
2562.93485,0.19910
2564.86332,0.20049
2566.79179,0.20207
2568.72025,0.20293
2570.64872,0.20378
2572.57719,0.20417
2574.50566,0.20313
2576.43413,0.20261
2578.36260,0.20319
2580.29107,0.20415
2582.21953,0.20456
2584.14800,0.20237
2586.07647,0.19989
2588.00494,0.20082
2589.93341,0.20374
2591.86188,0.20492
2593.79035,0.20439
2595.71882,0.20495
2597.64728,0.20581
2599.57575,0.20435
2601.50422,0.20266
2603.43269,0.20422
2605.36116,0.20635
2607.28963,0.20507
2609.21810,0.20321
2611.14656,0.20544
2613.07503,0.20898
2615.00350,0.20879
2616.93197,0.20762
2618.86044,0.20889
2620.78891,0.21041
2622.71738,0.21000
2624.64585,0.20751
2626.57431,0.20403
2628.50278,0.20317
2630.43125,0.20579
2632.35972,0.20667
2634.28819,0.20522
2636.21666,0.20577
2638.14513,0.20856
2640.07359,0.21065
2642.00206,0.20974
2643.93053,0.20826
2645.85900,0.20850
2647.78747,0.20740
2649.71594,0.20412
2651.64441,0.20260
2653.57288,0.20434
2655.50134,0.20722
2657.42981,0.20956
2659.35828,0.21004
2661.28675,0.20850
2663.21522,0.20591
2665.14369,0.20273
2667.07216,0.20263
2669.00062,0.20748
2670.92909,0.21171
2672.85756,0.21244
2674.78603,0.21149
2676.71450,0.20999
2678.64297,0.20884
2680.57144,0.20871
2682.49990,0.21002
2684.42837,0.21106
2686.35684,0.21010
2688.28531,0.20848
2690.21378,0.20825
2692.14225,0.20956
2694.07072,0.20959
2695.99919,0.20821
2697.92765,0.20827
2699.85612,0.20856
2701.78459,0.20805
2703.71306,0.20776
2705.64153,0.20667
2707.57000,0.20656
2709.49847,0.20872
2711.42693,0.20909
2713.35540,0.20699
2715.28387,0.20534
2717.21234,0.20504
2719.14081,0.20713
2721.06928,0.21206
2722.99775,0.21624
2724.92622,0.21611
2726.85468,0.21408
2728.78315,0.21241
2730.71162,0.20974
2732.64009,0.20824
2734.56856,0.20987
2736.49703,0.21223
2738.42550,0.21315
2740.35396,0.21102
2742.28243,0.20857
2744.21090,0.20980
2746.13937,0.21145
2748.06784,0.21037
2749.99631,0.20886
2751.92478,0.20741
2753.85325,0.20606
2755.78171,0.20925
2757.71018,0.21611
2759.63865,0.21859
2761.56712,0.21531
2763.49559,0.21169
2765.42406,0.21087
2767.35253,0.21183
2769.28099,0.21225
2771.20946,0.21281
2773.13793,0.21430
2775.06640,0.21404
2776.99487,0.21268
2778.92334,0.21255
2780.85181,0.21252
2782.78028,0.21350
2784.70874,0.21592
2786.63721,0.21664
2788.56568,0.21512
2790.49415,0.21406
2792.42262,0.21574
2794.35109,0.21845
2796.27956,0.21877
2798.20802,0.21731
2800.13649,0.21774
2802.06496,0.22064
2803.99343,0.22121
2805.92190,0.21804
2807.85037,0.21567
2809.77884,0.21646
2811.70731,0.21908
2813.63577,0.22076
2815.56424,0.22003
2817.49271,0.21877
2819.42118,0.21900
2821.34965,0.22012
2823.27812,0.22101
2825.20659,0.22109
2827.13505,0.21924
2829.06352,0.21724
2830.99199,0.21765
2832.92046,0.21847
2834.84893,0.21806
2836.77740,0.21818
2838.70587,0.21977
2840.63433,0.22023
2842.56280,0.21731
2844.49127,0.21400
2846.41974,0.21350
2848.34821,0.21518
2850.27668,0.21816
2852.20515,0.22042
2854.13362,0.22038
2856.06208,0.21999
2857.99055,0.22176
2859.91902,0.22440
2861.84749,0.22391
2863.77596,0.22174
2865.70443,0.22203
2867.63290,0.22340
2869.56136,0.22284
2871.48983,0.21936
2873.41830,0.21527
2875.34677,0.21547
2877.27524,0.21912
2879.20371,0.22048
2881.13218,0.21891
2883.06065,0.21827
2884.98911,0.21985
2886.91758,0.22028
2888.84605,0.21840
2890.77452,0.21767
2892.70299,0.21913
2894.63146,0.22215
2896.55993,0.22540
2898.48839,0.22475
2900.41686,0.22021
2902.34533,0.21589
2904.27380,0.21203
2906.20227,0.20953
2908.13074,0.21045
2910.05921,0.21301
2911.98768,0.21535
2913.91614,0.21554
2915.84461,0.21309
2917.77308,0.21176
2919.70155,0.21331
2921.63002,0.21537
2923.55849,0.21508
2925.48696,0.21109
2927.41542,0.20861
2929.34389,0.21211
2931.27236,0.21474
2933.20083,0.21135
2935.12930,0.20590
2937.05777,0.20469
2938.98624,0.20991
2940.91471,0.21524
2942.84317,0.21637
2944.77164,0.21485
2946.70011,0.21216
2948.62858,0.21166
2950.55705,0.21348
2952.48552,0.21437
2954.41399,0.21370
2956.34245,0.20907
2958.27092,0.20382
2960.19939,0.20833
2962.12786,0.21894
2964.05633,0.22309
2965.98480,0.21927
2967.91327,0.21518
2969.84174,0.21606
2971.77020,0.21862
2973.69867,0.21892
2975.62714,0.21713
2977.55561,0.21412
2979.48408,0.21325
2981.41255,0.21642
2983.34102,0.22116
2985.26948,0.22382
2987.19795,0.22135
2989.12642,0.21947
2991.05489,0.22352
2992.98336,0.22626
2994.91183,0.22459
2996.84030,0.22100
2998.76877,0.21752
3000.69723,0.21910
3002.62570,0.22459
3004.55417,0.22755
3006.48264,0.22511
3008.41111,0.21933
3010.33958,0.21283
3012.26805,0.20238
3014.19651,0.18271
3016.12498,0.16361
3018.05345,0.16822
3019.98192,0.19552
3021.91039,0.21827
3023.83886,0.22470
3025.76733,0.22419
3027.69579,0.22637
3029.62426,0.23006
3031.55273,0.22850
3033.48120,0.22227
3035.40967,0.21744
3037.33814,0.21722
3039.26661,0.22211
3041.19508,0.22679
3043.12354,0.22474
3045.05201,0.21899
3046.98048,0.21464
3048.90895,0.21441
3050.83742,0.21821
3052.76589,0.22031
3054.69436,0.21679
3056.62282,0.21202
3058.55129,0.21533
3060.47976,0.22402
3062.40823,0.22515
3064.33670,0.21716
3066.26517,0.20958
3068.19364,0.21087
3070.12211,0.21808
3072.05057,0.22093
3073.97904,0.21657
3075.90751,0.21268
3077.83598,0.21651
3079.76445,0.22229
3081.69292,0.22081
3083.62139,0.21179
3085.54985,0.20649
3087.47832,0.21333
3089.40679,0.22151
3091.33526,0.22268
3093.26373,0.21963
3095.19220,0.21765
3097.12067,0.22105
3099.04914,0.22462
3100.97760,0.22254
3102.90607,0.21606
3104.83454,0.21389
3106.76301,0.22062
3108.69148,0.22605
3110.61995,0.22243
3112.54842,0.21672
3114.47688,0.21848
3116.40535,0.22391
3118.33382,0.22432
3120.26229,0.22139
3122.19076,0.22168
3124.11923,0.22608
3126.04770,0.22830
3127.97617,0.22307
3129.90463,0.21552
3131.83310,0.21723
3133.76157,0.22528
3135.69004,0.22854
3137.61851,0.22866
3139.54698,0.22890
3141.47545,0.22921
3143.40391,0.22884
3145.33238,0.22610
3147.26085,0.22407
3149.18932,0.22587
3151.11779,0.22859
3153.04626,0.22707
3154.97473,0.22162
3156.90320,0.21781
3158.83166,0.21954
3160.76013,0.22485
3162.68860,0.22858
3164.61707,0.23099
3166.54554,0.23406
3168.47401,0.23420
3170.40248,0.23163
3172.33094,0.23194
3174.25941,0.23370
3176.18788,0.23301
3178.11635,0.23103
3180.04482,0.22840
3181.97329,0.22619
3183.90176,0.22717
3185.83022,0.23065
3187.75869,0.23372
3189.68716,0.23572
3191.61563,0.23686
3193.54410,0.23593
3195.47257,0.23222
3197.40104,0.22821
3199.32951,0.22726
3201.25797,0.22798
3203.18644,0.22793
3205.11491,0.22900
3207.04338,0.23215
3208.97185,0.23379
3210.90032,0.23153
3212.82879,0.22759
3214.75725,0.22460
3216.68572,0.22485
3218.61419,0.22736
3220.54266,0.22834
3222.47113,0.22884
3224.39960,0.22938
3226.32807,0.22874
3228.25654,0.22922
3230.18500,0.23036
3232.11347,0.22978
3234.04194,0.22992
3235.97041,0.23244
3237.89888,0.23264
3239.82735,0.22784
3241.75582,0.22266
3243.68428,0.22133
3245.61275,0.22273
3247.54122,0.22499
3249.46969,0.22698
3251.39816,0.22659
3253.32663,0.22323
3255.25510,0.21907
3257.18357,0.21742
3259.11203,0.21930
3261.04050,0.22233
3262.96897,0.22565
3264.89744,0.22967
3266.82591,0.23060
3268.75438,0.22705
3270.68285,0.22476
3272.61131,0.22641
3274.53978,0.22930
3276.46825,0.23002
3278.39672,0.22981
3280.32519,0.23125
3282.25366,0.23048
3284.18213,0.22679
3286.11060,0.22260
3288.03906,0.21873
3289.96753,0.22029
3291.89600,0.22772
3293.82447,0.23277
3295.75294,0.23311
3297.68141,0.23284
3299.60988,0.23306
3301.53834,0.23356
3303.46681,0.23152
3305.39528,0.22342
3307.32375,0.21566
3309.25222,0.21478
3311.18069,0.21565
3313.10916,0.21449
3315.03763,0.21534
3316.96609,0.21840
3318.89456,0.22177
3320.82303,0.22476
3322.75150,0.22391
3324.67997,0.22015
3326.60844,0.21881
3328.53691,0.22114
3330.46537,0.22572
3332.39384,0.22907
3334.32231,0.22867
3336.25078,0.22901
3338.17925,0.23208
3340.10772,0.23349
3342.03619,0.23425
3343.96466,0.23592
3345.89312,0.23505
3347.82159,0.23157
3349.75006,0.23028
3351.67853,0.23389
3353.60700,0.23559
3355.53547,0.23131
3357.46394,0.22968
3359.39240,0.23342
3361.32087,0.23648
3363.24934,0.23671
3365.17781,0.23511
3367.10628,0.23395
3369.03475,0.23334
3370.96322,0.23046
3372.89168,0.22735
3374.82015,0.22716
3376.74862,0.22736
3378.67709,0.22428
3380.60556,0.21903
3382.53403,0.21770
3384.46250,0.22245
3386.39097,0.22806
3388.31943,0.23027
3390.24790,0.23008
3392.17637,0.23024
3394.10484,0.22925
3396.03331,0.22644
3397.96178,0.22672
3399.89025,0.22964
3401.81871,0.23120
3403.74718,0.23336
3405.67565,0.23574
3407.60412,0.23460
3409.53259,0.22996
3411.46106,0.22411
3413.38953,0.21985
3415.31800,0.21786
3417.24646,0.21843
3419.17493,0.22142
3421.10340,0.22294
3423.03187,0.22101
3424.96034,0.21682
3426.88881,0.21375
3428.81728,0.21566
3430.74574,0.21945
3432.67421,0.21959
3434.60268,0.21712
3436.53115,0.21609
3438.45962,0.21651
3440.38809,0.21628
3442.31656,0.21841
3444.24503,0.22408
3446.17349,0.22620
3448.10196,0.22335
3450.03043,0.21962
3451.95890,0.21446
3453.88737,0.20851
3455.81584,0.20325
3457.74431,0.20170
3459.67277,0.20710
3461.60124,0.21344
3463.52971,0.21395
3465.45818,0.21197
3467.38665,0.21223
3469.31512,0.21369
3471.24359,0.21631
3473.17206,0.21971
3475.10052,0.21932
3477.02899,0.21446
3478.95746,0.20765
3480.88593,0.20298
3482.81440,0.20335
3484.74287,0.20483
3486.67134,0.20458
3488.59980,0.20278
3490.52827,0.20101
3492.45674,0.20133
3494.38521,0.20212
3496.31368,0.19974
3498.24215,0.19583
3500.17062,0.19516
3502.09909,0.19638
3504.02755,0.19701
3505.95602,0.19724
3507.88449,0.19655
3509.81296,0.19646
3511.74143,0.19638
3513.66990,0.19252
3515.59837,0.18795
3517.52683,0.18870
3519.45530,0.19336
3521.38377,0.19751
3523.31224,0.19849
3525.24071,0.19452
3527.16918,0.18691
3529.09765,0.17993
3531.02611,0.17791
3532.95458,0.18047
3534.88305,0.18562
3536.81152,0.19000
3538.73999,0.18960
3540.66846,0.18681
3542.59693,0.18337
3544.52540,0.17963
3546.45386,0.18035
3548.38233,0.18374
3550.31080,0.18516
3552.23927,0.18640
3554.16774,0.18724
3556.09621,0.18616
3558.02468,0.18452
3559.95314,0.18295
3561.88161,0.18142
3563.81008,0.18031
3565.73855,0.17989
3567.66702,0.17899
3569.59549,0.17632
3571.52396,0.17200
3573.45243,0.16648
3575.38089,0.16350
3577.30936,0.16503
3579.23783,0.16660
3581.16630,0.16645
3583.09477,0.16675
3585.02324,0.16741
3586.95171,0.16999
3588.88017,0.17467
3590.80864,0.17576
3592.73711,0.17548
3594.66558,0.17718
3596.59405,0.17716
3598.52252,0.17273
3600.45099,0.16695
3602.37946,0.16433
3604.30792,0.16492
3606.23639,0.16567
3608.16486,0.16618
3610.09333,0.16727
3612.02180,0.16810
3613.95027,0.16757
3615.87874,0.16518
3617.80720,0.16207
3619.73567,0.15770
3621.66414,0.15319
3623.59261,0.15344
3625.52108,0.15780
3627.44955,0.16143
3629.37802,0.16334
3631.30649,0.16557
3633.23495,0.16315
3635.16342,0.15673
3637.09189,0.15355
3639.02036,0.15285
3640.94883,0.15047
3642.87730,0.14814
3644.80577,0.15110
3646.73423,0.16186
3648.66270,0.17132
3650.59117,0.16298
3652.51964,0.15154
3654.44811,0.14856
3656.37658,0.14967
3658.30505,0.14868
3660.23352,0.14744
3662.16198,0.14845
3664.09045,0.14868
3666.01892,0.14545
3667.94739,0.14138
3669.87586,0.14065
3671.80433,0.14639
3673.73280,0.15679
3675.66126,0.16168
3677.58973,0.15257
3679.51820,0.14420
3681.44667,0.14019
3683.37514,0.14017
3685.30361,0.14538
3687.23208,0.15303
3689.16055,0.15612
3691.08901,0.14878
3693.01748,0.13924
3694.94595,0.13566
3696.87442,0.13684
3698.80289,0.13863
3700.73136,0.14034
3702.65983,0.14329
3704.58829,0.14556
3706.51676,0.14677
3708.44523,0.14921
3710.37370,0.15232
3712.30217,0.14995
3714.23064,0.14225
3716.15911,0.13812
3718.08757,0.14138
3720.01604,0.14741
3721.94451,0.14980
3723.87298,0.15017
3725.80145,0.14913
3727.72992,0.14627
3729.65839,0.14578
3731.58686,0.14962
3733.51532,0.15691
3735.44379,0.15877
3737.37226,0.15151
3739.30073,0.14762
3741.22920,0.15090
3743.15767,0.15941
3745.08614,0.16380
3747.01460,0.15777
3748.94307,0.15378
3750.87154,0.15559
3752.80001,0.15198
3754.72848,0.14436
3756.65695,0.14243
3758.58542,0.14506
3760.51389,0.14138
3762.44235,0.13304
3764.37082,0.13002
3766.29929,0.13249
3768.22776,0.13549
3770.15623,0.13750
3772.08470,0.13926
3774.01317,0.14184
3775.94163,0.14634
3777.87010,0.15187
3779.79857,0.15120
3781.72704,0.14461
3783.65551,0.14258
3785.58398,0.14378
3787.51245,0.14149
3789.44092,0.13782
3791.36938,0.13643
3793.29785,0.13616
3795.22632,0.13624
3797.15479,0.13930
3799.08326,0.14691
3801.01173,0.15397
3802.94020,0.15080
3804.86866,0.14602
3806.79713,0.14496
3808.72560,0.13948
3810.65407,0.13266
3812.58254,0.13213
3814.51101,0.13550
3816.43948,0.13524
3818.36795,0.13242
3820.29641,0.13087
3822.22488,0.12936
3824.15335,0.12960
3826.08182,0.13187
3828.01029,0.13407
3829.93876,0.13484
3831.86723,0.13406
3833.79569,0.13371
3835.72416,0.13974
3837.65263,0.14950
3839.58110,0.14736
3841.50957,0.13739
3843.43804,0.13147
3845.36651,0.12843
3847.29498,0.12869
3849.22344,0.13577
3851.15191,0.14731
3853.08038,0.15135
3855.00885,0.14005
3856.93732,0.13263
3858.86579,0.13041
3860.79426,0.13002
3862.72272,0.13525
3864.65119,0.14226
3866.57966,0.14040
3868.50813,0.14042
3870.43660,0.14648
3872.36507,0.14391
3874.29354,0.13356
3876.22200,0.12777
3878.15047,0.12952
3880.07894,0.13447
3882.00741,0.13805
3883.93588,0.13707
3885.86435,0.13282
3887.79282,0.12878
3889.72129,0.12750
3891.64975,0.13067
3893.57822,0.13189
3895.50669,0.12834
3897.43516,0.12719
3899.36363,0.13170
3901.29210,0.13598
3903.22057,0.13623
3905.14903,0.13602
3907.07750,0.13493
3909.00597,0.12950
3910.93444,0.11990
3912.86291,0.11488
3914.79138,0.11956
3916.71985,0.12532
3918.64832,0.12443
3920.57678,0.12106
3922.50525,0.11872
3924.43372,0.11749
3926.36219,0.11989
3928.29066,0.12577
3930.21913,0.13013
3932.14760,0.12832
3934.07606,0.12395
3936.00453,0.12359
3937.93300,0.12404
3939.86147,0.12091
3941.78994,0.11713
3943.71841,0.11766
3945.64688,0.12305
3947.57535,0.12829
3949.50381,0.12713
3951.43228,0.12033
3953.36075,0.11497
3955.28922,0.11454
3957.21769,0.11594
3959.14616,0.11577
3961.07463,0.11639
3963.00309,0.11991
3964.93156,0.12168
3966.86003,0.11818
3968.78850,0.11381
3970.71697,0.11191
3972.64544,0.11350
3974.57391,0.11805
3976.50238,0.11960
3978.43084,0.11713
3980.35931,0.11350
3982.28778,0.10878
3984.21625,0.10649
3986.14472,0.10959
3988.07319,0.11416
3990.00166,0.11669
3991.93012,0.11555
3993.85859,0.11036
3995.78706,0.10562
3997.71553,0.10344
3999.64400,0.10270
4001.57247,0.10459
4003.50094,0.10785
4005.42941,0.10809
4007.35787,0.10610
4009.28634,0.10581
4011.21481,0.10775
4013.14328,0.11106
4015.07175,0.11337
4017.00022,0.11366
4018.92869,0.11195
4020.85715,0.10776
4022.78562,0.10481
4024.71409,0.10553
4026.64256,0.10789
4028.57103,0.10877
4030.49950,0.10710
4032.42797,0.10472
4034.35644,0.10366
4036.28490,0.10383
4038.21337,0.10273
4040.14184,0.10186
4042.07031,0.10599
4043.99878,0.11064
4045.92725,0.10838
4047.85572,0.10143
4049.78418,0.09539
4051.71265,0.09427
4053.64112,0.09603
4055.56959,0.09672
4057.49806,0.09839
4059.42653,0.10147
4061.35500,0.10321
4063.28346,0.10166
4065.21193,0.09956
4067.14040,0.10043
4069.06887,0.10111
4070.99734,0.09823
4072.92581,0.09411
4074.85428,0.09396
4076.78275,0.09784
4078.71121,0.10071
4080.63968,0.10214
4082.56815,0.10417
4084.49662,0.10387
4086.42509,0.10045
4088.35356,0.09899
4090.28203,0.09984
4092.21049,0.09904
4094.13896,0.09579
4096.06743,0.09278
4097.99590,0.09121
4099.92437,0.09033
4101.85284,0.09235
4103.78131,0.09599
4105.70978,0.09767
4107.63824,0.09722
4109.56671,0.09316
4111.49518,0.08829
4113.42365,0.08714
4115.35212,0.08831
4117.28059,0.08995
4119.20906,0.08968
4121.13752,0.08804
4123.06599,0.09034
4124.99446,0.09576
4126.92293,0.10008
4128.85140,0.10333
4130.77987,0.10358
4132.70834,0.09670
4134.63681,0.08509
4136.56527,0.07632
4138.49374,0.07513
4140.42221,0.07980
4142.35068,0.08481
4144.27915,0.08581
4146.20762,0.08346
4148.13609,0.08396
4150.06455,0.08860
4151.99302,0.08994
4153.92149,0.08662
4155.84996,0.08564
4157.77843,0.08475
4159.70690,0.07954
4161.63537,0.07655
4163.56384,0.07825
4165.49230,0.08209
4167.42077,0.08585
4169.34924,0.08506
4171.27771,0.08231
4173.20618,0.08385
4175.13465,0.08675
4177.06312,0.08646
4178.99158,0.08704
4180.92005,0.09011
4182.84852,0.08836
4184.77699,0.08113
4186.70546,0.07524
4188.63393,0.07414
4190.56240,0.07690
4192.49087,0.07938
4194.41933,0.08151
4196.34780,0.08362
4198.27627,0.08093
4200.20474,0.07603
4202.13321,0.07478
4204.06168,0.07646
4205.99015,0.07912
4207.91861,0.08097
4209.84708,0.07943
4211.77555,0.07434
4213.70402,0.06920
4215.63249,0.06643
4217.56096,0.06574
4219.48943,0.06528
4221.41789,0.06542
4223.34636,0.06830
4225.27483,0.07163
4227.20330,0.07448
4229.13177,0.07740
4231.06024,0.07688
4232.98871,0.07221
4234.91718,0.06800
4236.84564,0.06687
4238.77411,0.06723
4240.70258,0.06773
4242.63105,0.06799
4244.55952,0.06809
4246.48799,0.06954
4248.41646,0.07138
4250.34492,0.07060
4252.27339,0.06857
4254.20186,0.06836
4256.13033,0.07032
4258.05880,0.07139
4259.98727,0.06704
4261.91574,0.06131
4263.84421,0.06022
4265.77267,0.06042
4267.70114,0.05974
4269.62961,0.06032
4271.55808,0.06031
4273.48655,0.05489
4275.41502,0.04665
4277.34349,0.04619
4279.27195,0.05453
4281.20042,0.06146
4283.12889,0.06452
4285.05736,0.06605
4286.98583,0.06546
4288.91430,0.06480
4290.84277,0.06320
4292.77124,0.05961
4294.69970,0.05858
4296.62817,0.06114
4298.55664,0.06447
4300.48511,0.06784
4302.41358,0.06829
4304.34205,0.06088
4306.27052,0.04989
4308.19898,0.04283
4310.12745,0.04113
4312.05592,0.04574
4313.98439,0.05349
4315.91286,0.05673
4317.84133,0.05639
4319.76980,0.05806
4321.69827,0.05786
4323.62673,0.05221
4325.55520,0.04857
4327.48367,0.05137
4329.41214,0.05385
4331.34061,0.05083
4333.26908,0.04689
4335.19755,0.04582
4337.12601,0.04453
4339.05448,0.04026
4340.98295,0.03463
4342.91142,0.03375
4344.83989,0.03568
4346.76836,0.03205
4348.69683,0.03375
4350.62530,0.04656
4352.55376,0.05146
4354.48223,0.04611
4356.41070,0.04273
4358.33917,0.03885
4360.26764,0.03607
4362.19611,0.04191
4364.12458,0.04949
4366.05304,0.05173
4367.98151,0.05011
4369.90998,0.04693
4371.83845,0.04513
4373.76692,0.04048
4375.69539,0.03214
4377.62386,0.02846
4379.55232,0.02921
4381.48079,0.03081
4383.40926,0.03117
4385.33773,0.02893
4387.26620,0.02937
4389.19467,0.03462
4391.12314,0.03778
4393.05161,0.03510
4394.98007,0.03056
4396.90854,0.02780
4398.83701,0.02890
4400.76548,0.03450
4402.69395,0.04015
4404.62242,0.04196
4406.55089,0.04197
4408.47935,0.04102
4410.40782,0.03768
4412.33629,0.03359
4414.26476,0.03122
4416.19323,0.03318
4418.12170,0.03804
4420.05017,0.03794
4421.97864,0.03463
4423.90710,0.03569
4425.83557,0.03614
4427.76404,0.03362
4429.69251,0.03311
4431.62098,0.03300
4433.54945,0.03241
4435.47792,0.03049
4437.40638,0.02620
4439.33485,0.02131
4441.26332,0.01545
4443.19179,0.01257
4445.12026,0.01491
4447.04873,0.01879
4448.97720,0.02358
4450.90567,0.02598
4452.83413,0.02261
4454.76260,0.01877
4456.69107,0.01901
4458.61954,0.02024
4460.54801,0.01786
4462.47648,0.01281
4464.40495,0.00941
4466.33341,0.01006
4468.26188,0.01601
4470.19035,0.02386
4472.11882,0.02576
4474.04729,0.02252
4475.97576,0.02170
4477.90423,0.02166
4479.83270,0.01880
4481.76116,0.01704
4483.68963,0.01509
4485.61810,0.01124
4487.54657,0.00808
4489.47504,0.00780
4491.40351,0.01345
4493.33198,0.02006
4495.26044,0.02065
4497.18891,0.01559
4499.11738,0.01137
4501.04585,0.01408
4502.97432,0.01786
4504.90279,0.01441
4506.83126,0.00692
4508.75973,0.00256
4510.68819,-0.00070
4512.61666,-0.00114
4514.54513,0.00865
4516.47360,0.01880
4518.40207,0.01566
4520.33054,0.00630
4522.25901,0.00472
4524.18747,0.00927
4526.11594,0.01266
4528.04441,0.01507
4529.97288,0.01738
4531.90135,0.01834
4533.82982,0.01873
4535.75829,0.02056
4537.68676,0.02028
4539.61522,0.01606
4541.54369,0.01185
4543.47216,0.00883
4545.40063,0.00713
4547.32910,0.00460
4549.25757,-0.00066
4551.18604,-0.00340
4553.11450,0.00019
4555.04297,0.00487
4556.97144,0.00516
4558.89991,0.00462
4560.82838,0.00874
4562.75685,0.01414
4564.68532,0.01296
4566.61378,0.00629
4568.54225,0.00390
4570.47072,0.00796
4572.39919,0.01118
4574.32766,0.00947
4576.25613,0.00691
4578.18460,0.00950
4580.11307,0.01446
4582.04153,0.01648
4583.97000,0.01712
4585.89847,0.01369
4587.82694,0.00437
4589.75541,-0.00324
4591.68388,-0.00237
4593.61235,0.00425
4595.54081,0.00353
4597.46928,-0.00930
4599.39775,-0.02184
4601.32622,-0.02209
4603.25469,-0.01127
4605.18316,-0.00362
4607.11163,-0.00747
4609.04010,-0.01447
4610.96856,-0.01475
4612.89703,-0.00737
4614.82550,-0.00178
4616.75397,-0.00450
4618.68244,-0.00721
4620.61091,-0.00176
4622.53938,0.00901
4624.46784,0.01811
4626.39631,0.01989
4628.32478,0.01805
4630.25325,0.01477
4632.18172,0.00710
4634.11019,0.00579
4636.03866,0.01436
4637.96713,0.01601
4639.89559,0.00585
4641.82406,-0.00152
4643.75253,0.00538
4645.68100,0.01795
4647.60947,0.02158
4649.53794,0.01789
4651.46641,0.01599
4653.39487,0.01684
4655.32334,0.01869
4657.25181,0.02118
4659.18028,0.01903
4661.10875,0.01027
4663.03722,0.00301
4664.96569,0.00125
4666.89416,0.00312
4668.82262,0.00589
4670.75109,0.00191
4672.67956,-0.00355
4674.60803,-0.00066
4676.53650,0.00619
4678.46497,0.00944
4680.39344,0.00291
4682.32190,-0.00654
4684.25037,-0.00682
4686.17884,-0.00354
4688.10731,-0.00293
4690.03578,-0.00171
4691.96425,-0.00097
4693.89272,-0.00343
4695.82119,-0.00158
4697.74965,0.00694
4699.67812,0.00604
4701.60659,-0.00601
4703.53506,-0.01182
4705.46353,-0.00809
4707.39200,-0.00038
4709.32047,0.00645
4711.24893,0.00585
4713.17740,0.00066
4715.10587,-0.00181
4717.03434,-0.00067
4718.96281,0.00458
4720.89128,0.01291
4722.81975,0.01936
4724.74821,0.01854
4726.67668,0.00781
4728.60515,-0.00193
4730.53362,-0.00480
4732.46209,-0.00779
4734.39056,-0.00590
4736.31903,0.00673
4738.24750,0.01899
4740.17596,0.02444
4742.10443,0.02912
4744.03290,0.03152
4745.96137,0.02775
4747.88984,0.02424
4749.81831,0.02228
4751.74678,0.01322
4753.67524,0.00014
4755.60371,-0.00295
4757.53218,-0.00035
4759.46065,-0.00391
4761.38912,-0.00685
4763.31759,0.00039
4765.24606,0.00645
4767.17453,0.00189
4769.10299,0.00119
4771.03146,0.00788
4772.95993,0.00935
4774.88840,0.00791
4776.81687,0.00956
4778.74534,0.00956
4780.67381,0.00618
4782.60227,0.00318
4784.53074,0.00104
4786.45921,0.00070
4788.38768,0.00432
4790.31615,0.00754
4792.24462,0.00305
4794.17309,-0.00493
4796.10156,-0.00756
4798.03002,-0.00721
4799.95849,-0.01072
4801.88696,-0.01057
4803.81543,0.00260
4805.74390,0.01009
4807.67237,0.00204
4809.60084,-0.00196
4811.52930,0.00280
4813.45777,0.00761
4815.38624,0.00974
4817.31471,0.00942
4819.24318,0.00922
4821.17165,0.00976
4823.10012,0.00982
4825.02859,0.00812
4826.95705,0.00973
4828.88552,0.01616
4830.81399,0.02112
4832.74246,0.02754
4834.67093,0.02871
4836.59940,0.01418
4838.52787,0.00085
4840.45633,-0.00081
4842.38480,0.00293
4844.31327,0.00740
4846.24174,0.00464
4848.17021,0.00123
4850.09868,0.00720
4852.02715,0.01474
4853.95562,0.01621
4855.88408,0.01482
4857.81255,0.01978
4859.74102,0.02898
4861.66949,0.02512
4863.59796,0.00338
4865.52643,-0.01354
4867.45490,-0.00780
4869.38336,0.00534
4871.31183,0.01114
4873.24030,0.01260
4875.16877,0.01100
4877.09724,0.00903
4879.02571,0.01305
4880.95418,0.02098
4882.88265,0.02294
4884.81111,0.01675
4886.73958,0.01186
4888.66805,0.01483
4890.59652,0.02058
4892.52499,0.02109
4894.45346,0.01792
4896.38193,0.01443
4898.31039,0.00567
4900.23886,-0.00497
4902.16733,-0.00747
4904.09580,-0.00451
4906.02427,-0.00138
4907.95274,-0.00139
4909.88121,-0.00719
4911.80967,-0.01466
4913.73814,-0.01735
4915.66661,-0.01398
4917.59508,-0.00590
4919.52355,-0.00256
4921.45202,-0.00716
4923.38049,-0.01053
4925.30896,-0.01037
4927.23742,-0.00385
4929.16589,0.00962
4931.09436,0.02194
4933.02283,0.02644
4934.95130,0.02499
4936.87977,0.02941
4938.80824,0.03460
4940.73670,0.02458
4942.66517,0.00905
4944.59364,0.00436
4946.52211,0.00594
4948.45058,0.00746
4950.37905,0.01007
4952.30752,0.01375
4954.23599,0.01640
4956.16445,0.01513
4958.09292,0.01331
4960.02139,0.01490
4961.94986,0.01324
4963.87833,0.00439
4965.80680,-0.00138
4967.73527,0.00528
4969.66373,0.01696
4971.59220,0.02002
4973.52067,0.01440
4975.44914,0.01464
4977.37761,0.02202
4979.30608,0.02034
4981.23455,0.00340
4983.16302,-0.01181
4985.09148,-0.00647
4987.01995,0.01100
4988.94842,0.01583
4990.87689,0.00799
4992.80536,0.00654
4994.73383,0.01125
4996.66230,0.01830
4998.59076,0.03117
5000.51923,0.03751
5002.44770,0.02757
5004.37617,0.01278
5006.30464,0.00570
5008.23311,0.00634
5010.16158,0.01000
5012.09005,0.01260
5014.01851,0.01664
5015.94698,0.01958
5017.87545,0.01399
5019.80392,0.00961
5021.73239,0.01154
5023.66086,0.01479
5025.58933,0.02130
5027.51779,0.02603
5029.44626,0.02709
5031.37473,0.02462
5033.30320,0.01349
5035.23167,0.00284
5037.16014,0.00249
5039.08861,0.01253
5041.01708,0.02302
5042.94554,0.01833
5044.87401,0.00744
5046.80248,0.00387
5048.73095,0.00162
5050.65942,-0.00016
5052.58789,0.00223
5054.51636,0.00526
5056.44482,0.00466
5058.37329,0.00264
5060.30176,0.00409
5062.23023,0.01285
5064.15870,0.02154
5066.08717,0.01248
5068.01564,0.00105
5069.94410,0.01108
5071.87257,0.02121
5073.80104,0.00961
5075.72951,-0.00931
5077.65798,-0.01002
5079.58645,0.01055
5081.51492,0.02650
5083.44339,0.02511
5085.37185,0.02596
5087.30032,0.03839
5089.22879,0.04477
5091.15726,0.03205
5093.08573,0.01078
5095.01420,0.00002
5096.94267,-0.00058
5098.87113,0.00268
5100.79960,0.01364
5102.72807,0.02237
5104.65654,0.02288
5106.58501,0.02716
5108.51348,0.03530
5110.44195,0.03777
5112.37042,0.03314
5114.29888,0.02957
5116.22735,0.03213
5118.15582,0.03052
5120.08429,0.01875
5122.01276,0.01011
5123.94123,0.01456
5125.86970,0.02511
5127.79816,0.03287
5129.72663,0.03545
5131.65510,0.03488
5133.58357,0.03386
5135.51204,0.02580
5137.44051,0.01414
5139.36898,0.01508
5141.29745,0.01999
5143.22591,0.01807
5145.15438,0.02125
5147.08285,0.03409
5149.01132,0.04467
5150.93979,0.04373
5152.86826,0.03836
5154.79673,0.03330
5156.72519,0.02599
5158.65366,0.02968
5160.58213,0.04682
5162.51060,0.04991
5164.43907,0.02547
5166.36754,0.00046
5168.29601,-0.00645
5170.22448,-0.00492
5172.15294,0.00168
5174.08141,0.00901
5176.00988,0.01158
5177.93835,0.01895
5179.86682,0.02901
5181.79529,0.02977
5183.72376,0.01970
5185.65222,0.01114
5187.58069,0.02177
5189.50916,0.04406
5191.43763,0.05649
5193.36610,0.05247
5195.29457,0.04165
5197.22304,0.03005
5199.15151,0.01758
5201.07997,0.01748
5203.00844,0.03686
5204.93691,0.05732
5206.86538,0.05751
5208.79385,0.04229
5210.72232,0.03429
5212.65079,0.04232
5214.57925,0.05363
5216.50772,0.05131
5218.43619,0.04084
5220.36466,0.03934
5222.29313,0.05354
5224.22160,0.07626
5226.15007,0.07873
5228.07854,0.05120
5230.00700,0.03028
5231.93547,0.02949
5233.86394,0.03311
5235.79241,0.04466
5237.72088,0.05908
5239.64935,0.06146
5241.57782,0.06776
5243.50628,0.07914
5245.43475,0.07707
5247.36322,0.06630
5249.29169,0.05442
5251.22016,0.04131
5253.14863,0.02899
5255.07710,0.02913
5257.00556,0.04514
5258.93403,0.05338
5260.86250,0.04238
5262.79097,0.04060
5264.71944,0.06752
5266.64791,0.08830
5268.57638,0.08087
5270.50485,0.06200
5272.43331,0.04702
5274.36178,0.03315
5276.29025,0.02304
5278.21872,0.03035
5280.14719,0.04632
5282.07566,0.05435
5284.00413,0.05797
5285.93259,0.05549
5287.86106,0.04865
5289.78953,0.05128
5291.71800,0.05889
5293.64647,0.05863
5295.57494,0.04812
5297.50341,0.03513
5299.43188,0.03530
5301.36034,0.04749
5303.28881,0.05537
5305.21728,0.05598
5307.14575,0.05688
5309.07422,0.05751
5311.00269,0.05603
5312.93116,0.05757
5314.85962,0.06707
5316.78809,0.07652
5318.71656,0.06642
5320.64503,0.03817
5322.57350,0.01681
5324.50197,0.01896
5326.43044,0.04053
5328.35891,0.06297
5330.28737,0.06370
5332.21584,0.04876
5334.14431,0.05044
5336.07278,0.07707
5338.00125,0.10471
5339.92972,0.10670
5341.85819,0.08354
5343.78665,0.05246
5345.71512,0.04525
5347.64359,0.06644
5349.57206,0.07657
5351.50053,0.06750
5353.42900,0.06471
5355.35747,0.07165
5357.28594,0.07170
5359.21440,0.06757
5361.14287,0.06504
5363.07134,0.05557
5364.99981,0.04029
5366.92828,0.03304
5368.85675,0.03994
5370.78522,0.06179
5372.71368,0.08046
5374.64215,0.07251
5376.57062,0.05197
5378.49909,0.04690
5380.42756,0.04973
5382.35603,0.04767
5384.28450,0.04861
5386.21297,0.06290
5388.14143,0.07857
5390.06990,0.08800
5391.99837,0.08895
5393.92684,0.07443
5395.85531,0.06090
5397.78378,0.06298
5399.71225,0.06055
5401.64071,0.03468
5403.56918,0.00679
5405.49765,0.01868
5407.42612,0.05712
5409.35459,0.07428
5411.28306,0.08145
5413.21153,0.09789
5415.13999,0.08607
5417.06846,0.06057
5418.99693,0.06102
5420.92540,0.07313
5422.85387,0.07362
5424.78234,0.06965
5426.71081,0.06807
5428.63928,0.06490
5430.56774,0.06665
5432.49621,0.07045
5434.42468,0.06666
5436.35315,0.06850
5438.28162,0.07737
5440.21009,0.07547
5442.13856,0.06169
5444.06702,0.05223
5445.99549,0.06054
5447.92396,0.07638
5449.85243,0.07628
5451.78090,0.07322
5453.70937,0.07597
5455.63784,0.06078
5457.56631,0.03479
5459.49477,0.03117
5461.42324,0.05274
5463.35171,0.08387
5465.28018,0.10402
5467.20865,0.09893
5469.13712,0.07508
5471.06559,0.05991
5472.99405,0.06653
5474.92252,0.08828
5476.85099,0.10906
5478.77946,0.10824
5480.70793,0.09276
5482.63640,0.08821
5484.56487,0.09570
5486.49334,0.10244
5488.42180,0.10363
5490.35027,0.09100
5492.27874,0.06594
5494.20721,0.04243
5496.13568,0.04107
5498.06415,0.05989
5499.99262,0.06423
5501.92108,0.05525
5503.84955,0.06032
5505.77802,0.06828
5507.70649,0.07178
5509.63496,0.08043
5511.56343,0.08222
5513.49190,0.07724
5515.42037,0.09070
5517.34883,0.10603
5519.27730,0.08876
5521.20577,0.05691
5523.13424,0.03899
5525.06271,0.04504
5526.99118,0.07414
5528.91965,0.09798
5530.84811,0.09534
5532.77658,0.08871
5534.70505,0.08854
5536.63352,0.07829
5538.56199,0.06505
5540.49046,0.07090
5542.41893,0.09470
5544.34740,0.10869
5546.27586,0.09306
5548.20433,0.07313
5550.13280,0.07596
5552.06127,0.08622
5553.98974,0.08049
5555.91821,0.05987
5557.84668,0.05183
5559.77514,0.06787
5561.70361,0.08005
5563.63208,0.07366
5565.56055,0.06953
5567.48902,0.06475
5569.41749,0.04304
5571.34596,0.03122
5573.27443,0.03978
5575.20289,0.05014
5577.13136,0.07346
5579.05983,0.10278
5580.98830,0.10514
5582.91677,0.08162
5584.84524,0.06032
5586.77371,0.06706
5588.70217,0.09135
5590.63064,0.08793
5592.55911,0.06463
5594.48758,0.06674
5596.41605,0.09267
5598.34452,0.11923
5600.27299,0.14040
5602.20145,0.13671
5604.12992,0.09225
5606.05839,0.04267
5607.98686,0.02972
5609.91533,0.03788
5611.84380,0.04640
5613.77227,0.06345
5615.70074,0.08097
5617.62920,0.08983
5619.55767,0.08607
5621.48614,0.06483
5623.41461,0.05653
5625.34308,0.08848
5627.27155,0.12730
5629.20002,0.13326
5631.12848,0.11372
5633.05695,0.09209
5634.98542,0.08886
5636.91389,0.10064
5638.84236,0.10285
5640.77083,0.08945
5642.69930,0.06693
5644.62777,0.04808
5646.55623,0.04448
5648.48470,0.04090
5650.41317,0.04353
5652.34164,0.06210
5654.27011,0.06215
5656.19858,0.05560
5658.12705,0.07615
5660.05551,0.10413
5661.98398,0.11246
5663.91245,0.09161
5665.84092,0.06287
5667.76939,0.06513
5669.69786,0.08568
5671.62633,0.08539
5673.55480,0.06973
5675.48326,0.06466
5677.41173,0.07981
5679.34020,0.09622
5681.26867,0.09099
5683.19714,0.07454
5685.12561,0.07854
5687.05408,0.11096
5688.98254,0.12745
5690.91101,0.10332
5692.83948,0.06801
5694.76795,0.04187
5696.69642,0.02848
5698.62489,0.02840
5700.55336,0.03525
5702.48183,0.03609
5704.41029,0.03378
5706.33876,0.03608
5708.26723,0.03530
5710.19570,0.02180
5712.12417,0.01303
5714.05264,0.03682
5715.98111,0.07011
5717.90957,0.08565
5719.83804,0.09327
5721.76651,0.09162
5723.69498,0.06645
5725.62345,0.04538
5727.55192,0.06308
5729.48039,0.08719
5731.40886,0.08550
5733.33732,0.07038
5735.26579,0.05602
5737.19426,0.04823
5739.12273,0.04343
5741.05120,0.04144
5742.97967,0.04778
5744.90814,0.06501
5746.83660,0.08368
5748.76507,0.08118
5750.69354,0.05480
5752.62201,0.04784
5754.55048,0.06689
5756.47895,0.07376
5758.40742,0.07104
5760.33588,0.06620
5762.26435,0.06112
5764.19282,0.08327
5766.12129,0.12082
5768.04976,0.12159
5769.97823,0.10094
5771.90670,0.09356
5773.83517,0.08383
5775.76363,0.07821
5777.69210,0.09163
5779.62057,0.10497
5781.54904,0.09604
5783.47751,0.07735
5785.40598,0.06801
5787.33445,0.05596
5789.26291,0.04518
5791.19138,0.03761
5793.11985,0.02552
5795.04832,0.02529
5796.97679,0.04174
5798.90526,0.06459
5800.83373,0.08580
5802.76220,0.10723
5804.69066,0.13358
5806.61913,0.14508
5808.54760,0.12496
5810.47607,0.09468
5812.40454,0.08523
5814.33301,0.09301
5816.26148,0.09029
5818.18994,0.07937
5820.11841,0.07514
5822.04688,0.08184
5823.97535,0.10324
5825.90382,0.11242
5827.83229,0.10109
5829.76076,0.09709
5831.68923,0.09730
5833.61769,0.08382
5835.54616,0.07350
5837.47463,0.08725
5839.40310,0.09872
5841.33157,0.08998
5843.26004,0.07704
5845.18851,0.07488
5847.11697,0.08722
5849.04544,0.08737
5850.97391,0.08739
5852.90238,0.11063
5854.83085,0.11166
5856.75932,0.08390
5858.68779,0.07031
5860.61626,0.07779
5862.54472,0.08923
5864.47319,0.09870
5866.40166,0.11633
5868.33013,0.13318
5870.25860,0.12277
5872.18707,0.10052
5874.11554,0.09059
5876.04400,0.07703
5877.97247,0.06037
5879.90094,0.06872
5881.82941,0.09729
5883.75788,0.11923
5885.68635,0.11976
5887.61482,0.11429
5889.54329,0.11966
5891.47175,0.10342
5893.40022,0.05916
5895.32869,0.03970
5897.25716,0.06020
5899.18563,0.09107
5901.11410,0.10908
5903.04257,0.09845
5904.97103,0.07061
5906.89950,0.05483
5908.82797,0.05458
5910.75644,0.06710
5912.68491,0.09893
5914.61338,0.12875
5916.54185,0.12497
5918.47032,0.10154
5920.39878,0.09675
5922.32725,0.11220
5924.25572,0.12494
5926.18419,0.11739
5928.11266,0.09473
5930.04113,0.08691
5931.96960,0.09837
5933.89806,0.10827
5935.82653,0.10185
5937.75500,0.09075
5939.68347,0.08692
5941.61194,0.07279
5943.54041,0.06208
5945.46888,0.07486
5947.39734,0.07264
5949.32581,0.04980
5951.25428,0.05547
5953.18275,0.08245
5955.11122,0.09153
5957.03969,0.07924
5958.96816,0.06891
5960.89663,0.07772
5962.82509,0.07378
5964.75356,0.05320
5966.68203,0.05826
5968.61050,0.07601
5970.53897,0.07447
5972.46744,0.07778
5974.39591,0.08944
5976.32437,0.07787
5978.25284,0.06111
5980.18131,0.06177
5982.10978,0.06437
5984.03825,0.06297
5985.96672,0.06428
5987.89519,0.07990
5989.82366,0.09694
5991.75212,0.08677
5993.68059,0.07251
5995.60906,0.06682
5997.53753,0.04933
5999.46600,0.04027
6001.39447,0.04637
6003.32294,0.04429
6005.25140,0.02830
6007.17987,0.01533
6009.10834,0.03533
6011.03681,0.07513
6012.96528,0.09153
6014.89375,0.09276
6016.82222,0.09673
6018.75069,0.10184
6020.67915,0.10597
6022.60762,0.09164
6024.53609,0.05975
6026.46456,0.03305
6028.39303,0.04170
6030.32150,0.09663
6032.24997,0.13699
6034.17843,0.12533
6036.10690,0.11200
6038.03537,0.11999
6039.96384,0.11519
6041.89231,0.10160
6043.82078,0.09779
6045.74925,0.08782
6047.67772,0.07072
6049.60618,0.07199
6051.53465,0.09107
6053.46312,0.11942
6055.39159,0.14395
6057.32006,0.12601
6059.24853,0.08028
6061.17700,0.04766
6063.10546,0.02663
6065.03393,0.02205
6066.96240,0.04576
6068.89087,0.08768
6070.81934,0.11300
6072.74781,0.10910
6074.67628,0.10325
6076.60475,0.10272
6078.53321,0.10620
6080.46168,0.11340
6082.39015,0.11743
6084.31862,0.12083
6086.24709,0.09551
6088.17556,0.02461
6090.10403,-0.02459
6092.03249,-0.00112
6093.96096,0.03372
6095.88943,0.01067
6097.81790,-0.01881
6099.74637,0.00489
6101.67484,0.04889
6103.60331,0.07479
6105.53177,0.08622
6107.46024,0.09051
6109.38871,0.08370
6111.31718,0.05595
6113.24565,0.02912
6115.17412,0.02717
6117.10259,0.03033
6119.03106,0.05234
6120.95952,0.11227
6122.88799,0.14870
6124.81646,0.13050
6126.74493,0.07983
6128.67340,0.02203
6130.60187,0.00546
6132.53034,0.03903
6134.45880,0.06234
6136.38727,0.06653
6138.31574,0.09578
6140.24421,0.13545
6142.17268,0.13542
6144.10115,0.09979
6146.02962,0.07918
6147.95809,0.10432
6149.88655,0.14804
6151.81502,0.15671
6153.74349,0.12466
6155.67196,0.08760
6157.60043,0.05955
6159.52890,0.05928
6161.45737,0.09659
6163.38583,0.11655
6165.31430,0.08944
6167.24277,0.05472
6169.17124,0.03296
6171.09971,0.04555
6173.02818,0.11639
6174.95665,0.17913
6176.88512,0.16006
6178.81358,0.11868
6180.74205,0.12461
6182.67052,0.13725
6184.59899,0.10805
6186.52746,0.05216
6188.45593,0.04797
6190.38440,0.10218
6192.31286,0.11522
6194.24133,0.07785
6196.16980,0.04245
6198.09827,0.05342
6200.02674,0.12565
6201.95521,0.17410
6203.88368,0.14197
6205.81215,0.10805
6207.74061,0.11836
6209.66908,0.13614
6211.59755,0.13781
6213.52602,0.12357
6215.45449,0.10490
6217.38296,0.08684
6219.31143,0.08241
6221.23989,0.10035
6223.16836,0.09216
6225.09683,0.05896
6227.02530,0.08430
6228.95377,0.11484
6230.88224,0.06977
6232.81071,0.03750
6234.73918,0.07161
6236.66764,0.10836
6238.59611,0.12015
6240.52458,0.11117
6242.45305,0.10303
6244.38152,0.10648
6246.30999,0.10429
6248.23846,0.08905
6250.16692,0.07092
6252.09539,0.06883
6254.02386,0.08799
6255.95233,0.11787
6257.88080,0.13274
6259.80927,0.12972
6261.73774,0.14625
6263.66621,0.19147
6265.59467,0.20826
6267.52314,0.15330
6269.45161,0.10325
6271.38008,0.10792
6273.30855,0.12036
6275.23702,0.12847
6277.16549,0.12967
6279.09395,0.06893
6281.02242,-0.02564
6282.95089,-0.06151
6284.87936,-0.02639
6286.80783,0.03424
6288.73630,0.09735
6290.66477,0.12668
6292.59323,0.12674
6294.52170,0.14096
6296.45017,0.15391
6298.37864,0.15832
6300.30711,0.17616
6302.23558,0.21229
6304.16405,0.24048
6306.09252,0.19934
6308.02098,0.09874
6309.94945,0.06124
6311.87792,0.10753
6313.80639,0.13127
6315.73486,0.12244
6317.66333,0.11525
6319.59180,0.10498
6321.52026,0.10251
6323.44873,0.10300
6325.37720,0.09348
6327.30567,0.08168
6329.23414,0.06748
6331.16261,0.04743
6333.09108,0.05960
6335.01955,0.10662
6336.94801,0.12494
6338.87648,0.11909
6340.80495,0.11711
6342.73342,0.10755
6344.66189,0.10479
6346.59036,0.12119
6348.51883,0.11422
6350.44729,0.07467
6352.37576,0.05868
6354.30423,0.05131
6356.23270,0.01498
6358.16117,0.00068
6360.08964,0.04880
6362.01811,0.09656
6363.94658,0.09792
6365.87504,0.07770
6367.80351,0.05162
6369.73198,0.04577
6371.66045,0.09887
6373.58892,0.16777
6375.51739,0.16660
6377.44586,0.11141
6379.37432,0.06360
6381.30279,0.03378
6383.23126,-0.00234
6385.15973,-0.02297
6387.08820,0.02484
6389.01667,0.10576
6390.94514,0.13684
6392.87361,0.09242
6394.80207,0.04561
6396.73054,0.06953
6398.65901,0.12775
6400.58748,0.14771
6402.51595,0.11798
6404.44442,0.08389
6406.37289,0.05002
6408.30135,-0.00445
6410.22982,-0.06034
6412.15829,-0.08725
6414.08676,-0.08365
6416.01523,-0.05923
6417.94370,-0.01754
6419.87217,0.02597
6421.80064,0.05744
6423.72910,0.06681
6425.65757,0.04800
6427.58604,0.04523
6429.51451,0.09142
6431.44298,0.11789
6433.37145,0.08843
6435.29992,0.06648
6437.22838,0.05951
6439.15685,0.06923
6441.08532,0.10366
6443.01379,0.12549
6444.94226,0.14603
6446.87073,0.16479
6448.79920,0.15401
6450.72766,0.14637
6452.65613,0.13708
6454.58460,0.13133
6456.51307,0.15190
6458.44154,0.13904
6460.37001,0.09575
6462.29848,0.07104
6464.22695,0.04553
6466.15541,0.03278
6468.08388,0.05623
6470.01235,0.08300
6471.94082,0.10868
6473.86929,0.12803
6475.79776,0.12727
6477.72623,0.13456
6479.65469,0.13570
6481.58316,0.11605
6483.51163,0.12572
6485.44010,0.14579
6487.36857,0.12194
6489.29704,0.09285
6491.22551,0.11156
6493.15398,0.14237
6495.08244,0.11959
6497.01091,0.05092
6498.93938,-0.00213
6500.86785,-0.00551
6502.79632,0.04683
6504.72479,0.10666
6506.65326,0.08834
6508.58172,0.00627
6510.51019,-0.03058
6512.43866,0.02666
6514.36713,0.10831
6516.29560,0.12935
6518.22407,0.10972
6520.15254,0.11018
6522.08101,0.08732
6524.00947,0.01453
6525.93794,-0.02043
6527.86641,0.00874
6529.79488,0.05692
6531.72335,0.12598
6533.65182,0.20966
6535.58029,0.25174
6537.50875,0.21442
6539.43722,0.12552
6541.36569,0.07360
6543.29416,0.10536
6545.22263,0.14740
6547.15110,0.13970
6549.07957,0.07835
6551.00804,-0.00277
6552.93650,-0.00875
6554.86497,0.07700
6556.79344,0.14781
6558.72191,0.14960
6560.65038,0.14028
6562.57885,0.13787
6564.50732,0.12835
6566.43578,0.12300
6568.36425,0.09670
6570.29272,0.04128
6572.22119,-0.02213
6574.14966,-0.07639
6576.07813,-0.07008
6578.00660,0.00836
6579.93507,0.05730
6581.86353,0.03054
6583.79200,-0.00488
6585.72047,0.01237
6587.64894,0.06791
6589.57741,0.09117
6591.50588,0.09093
6593.43435,0.12176
6595.36281,0.13538
6597.29128,0.09092
6599.21975,0.03354
6601.14822,0.01061
6603.07669,0.00711
6605.00516,-0.02526
6606.93363,-0.03308
6608.86210,0.03346
6610.79056,0.08916
6612.71903,0.09886
6614.64750,0.10108
6616.57597,0.08634
6618.50444,0.06558
6620.43291,0.06282
6622.36138,0.08695
6624.28984,0.12892
6626.21831,0.14716
6628.14678,0.11883
6630.07525,0.08207
6632.00372,0.09984
6633.93219,0.12593
6635.86066,0.09251
6637.78912,0.07551
6639.71759,0.13789
6641.64606,0.20382
6643.57453,0.19282
6645.50300,0.10723
6647.43147,0.04274
6649.35994,0.06491
6651.28841,0.10500
6653.21687,0.10210
6655.14534,0.08702
6657.07381,0.08273
6659.00228,0.06474
6660.93075,0.01358
6662.85922,-0.04758
6664.78769,-0.06219
6666.71615,-0.05862
6668.64462,-0.09534
6670.57309,-0.12233
6672.50156,-0.07123
6674.43003,0.04472
6676.35850,0.14633
6678.28697,0.17421
6680.21544,0.12046
6682.14390,0.03234
6684.07237,0.00718
6686.00084,0.05598
6687.92931,0.09588
6689.85778,0.07953
6691.78625,0.03714
6693.71472,0.03258
6695.64318,0.08382
6697.57165,0.13727
6699.50012,0.11936
6701.42859,0.06424
6703.35706,0.03036
6705.28553,0.00409
6707.21400,0.00831
6709.14247,0.01910
6711.07093,-0.01007
6712.99940,-0.00881
6714.92787,0.04575
6716.85634,0.07578
6718.78481,0.05232
6720.71328,0.02438
6722.64175,0.03600
6724.57021,0.07118
6726.49868,0.07698
6728.42715,0.04906
6730.35562,0.04065
6732.28409,0.10110
6734.21256,0.17479
6736.14103,0.15876
6738.06950,0.10757
6739.99796,0.09812
6741.92643,0.06611
6743.85490,0.00554
6745.78337,0.00996
6747.71184,0.06250
6749.64031,0.06909
6751.56878,0.04483
6753.49724,0.02352
6755.42571,-0.01730
6757.35418,-0.02552
6759.28265,0.02392
6761.21112,0.05264
6763.13959,0.06073
6765.06806,0.07769
6766.99653,0.06399
6768.92499,0.04269
6770.85346,0.04597
6772.78193,0.02947
6774.71040,-0.02891
6776.63887,-0.06535
6778.56734,-0.02674
6780.49581,0.02292
6782.42427,0.00887
6784.35274,-0.02137
6786.28121,-0.02202
6788.20968,-0.05438
6790.13815,-0.08120
6792.06662,0.00952
6793.99509,0.12968
6795.92355,0.14600
6797.85202,0.10702
6799.78049,0.11696
6801.70896,0.15041
6803.63743,0.13378
6805.56590,0.07788
6807.49437,0.03683
6809.42284,0.02573
6811.35130,0.02009
6813.27977,0.03918
6815.20824,0.08924
6817.13671,0.11512
6819.06518,0.09564
6820.99365,0.03948
6822.92212,-0.00468
6824.85058,0.02073
6826.77905,0.04675
6828.70752,0.03527
6830.63599,0.03265
6832.56446,0.03386
6834.49293,0.00739
6836.42140,-0.04901
6838.34987,-0.08014
6840.27833,-0.02399
6842.20680,0.06545
6844.13527,0.11226
6846.06374,0.12535
6847.99221,0.13309
6849.92068,0.09393
6851.84915,0.00971
6853.77761,-0.02321
6855.70608,0.01693
6857.63455,0.07702
6859.56302,0.13980
6861.49149,0.18657
6863.41996,0.17586
6865.34843,0.14155
6867.27690,0.10637
6869.20536,0.00522
6871.13383,-0.12262
6873.06230,-0.14476
6874.99077,-0.10420
6876.91924,-0.08839
6878.84771,-0.04872
6880.77618,0.01302
6882.70464,0.04822
6884.63311,0.05322
6886.56158,0.03533
6888.49005,0.00153
6890.41852,-0.07192
6892.34699,-0.12322
6894.27546,-0.07173
6896.20393,0.02097
6898.13239,0.06100
6900.06086,0.02163
6901.98933,-0.02845
6903.91780,-0.01168
6905.84627,0.07706
6907.77474,0.16251
6909.70321,0.15949
6911.63167,0.08263
6913.56014,0.03102
6915.48861,0.01561
6917.41708,0.02384
6919.34555,0.10126
6921.27402,0.17076
6923.20249,0.11374
6925.13096,-0.01488
6927.05942,-0.06517
6928.98789,-0.00151
6930.91636,0.08077
6932.84483,0.12005
6934.77330,0.11267
6936.70177,0.06496
6938.63024,-0.01163
6940.55870,-0.07084
6942.48717,-0.07091
6944.41564,-0.06469
6946.34411,-0.09063
6948.27258,-0.10606
6950.20105,-0.09411
6952.12952,-0.09796
6954.05799,-0.10608
6955.98645,-0.06134
6957.91492,0.04763
6959.84339,0.09893
6961.77186,0.02940
6963.70033,-0.01283
6965.62880,0.04464
6967.55727,0.13684
6969.48573,0.20740
6971.41420,0.26624
6973.34267,0.31746
6975.27114,0.27886
6977.19961,0.15619
6979.12808,0.05540
6981.05655,-0.01271
6982.98501,-0.06003
6984.91348,-0.06149
6986.84195,-0.00647
6988.77042,0.09580
6990.69889,0.19540
6992.62736,0.22338
6994.55583,0.16361
6996.48430,0.09694
6998.41276,0.14528
7000.34123,0.27365
7002.26970,0.31776
7004.19817,0.22915
7006.12664,0.11028
7008.05511,0.07289
7009.98358,0.08561
7011.91204,0.08219
7013.84051,0.11444
7015.76898,0.18516
7017.69745,0.16801
7019.62592,0.06152
7021.55439,-0.01439
7023.48286,-0.02669
7025.41133,-0.02264
7027.33979,-0.02260
7029.26826,-0.05582
7031.19673,-0.13481
7033.12520,-0.17200
7035.05367,-0.08612
7036.98214,0.07557
7038.91061,0.16896
7040.83907,0.13811
7042.76754,0.06989
7044.69601,0.05876
7046.62448,0.06168
7048.55295,0.04529
7050.48142,0.01221
7052.40989,-0.06193
7054.33836,-0.11853
7056.26682,-0.03728
7058.19529,0.11747
7060.12376,0.20762
7062.05223,0.25219
7063.98070,0.21936
7065.90917,0.13550
7067.83764,0.08379
7069.76610,0.01280
7071.69457,-0.08237
7073.62304,-0.08448
7075.55151,-0.01060
7077.47998,0.04444
7079.40845,0.06084
7081.33692,0.11580
7083.26539,0.24635
7085.19385,0.34614
7087.12232,0.36952
7089.05079,0.35047
7090.97926,0.31751
7092.90773,0.27302
7094.83620,0.18014
7096.76467,0.04911
7098.69313,-0.00189
7100.62160,0.02410
7102.55007,0.01634
7104.47854,-0.04063
7106.40701,-0.08997
7108.33548,-0.07320
7110.26395,-0.00183
7112.19242,0.07165
7114.12088,0.07574
7116.04935,0.05093
7117.97782,0.13907
7119.90629,0.24313
7121.83476,0.21527
7123.76323,0.15470
7125.69170,0.11641
7127.62016,0.09957
7129.54863,0.10083
7131.47710,0.09736
7133.40557,0.11295
7135.33404,0.15374
7137.26251,0.19588
7139.19098,0.19921
7141.11944,0.12487
7143.04791,0.05238
7144.97638,-0.00060
7146.90485,-0.11836
7148.83332,-0.17592
7150.76179,-0.08182
7152.69026,0.07099
7154.61873,0.11562
7156.54719,0.04228
7158.47566,0.05549
7160.40413,0.13173
7162.33260,0.12191
7164.26107,0.10937
7166.18954,0.16856
7168.11801,0.19256
7170.04647,0.11341
7171.97494,-0.01998
7173.90341,-0.16948
7175.83188,-0.24036
7177.76035,-0.06854
7179.68882,0.14696
7181.61729,0.15112
7183.54576,0.03806
7185.47422,0.03078
7187.40269,0.12305
7189.33116,0.15528
7191.25963,0.05200
7193.18810,-0.01672
7195.11657,-0.00572
7197.04504,-0.08405
7198.97350,-0.12546
7200.90197,0.02023
7202.83044,0.21232
7204.75891,0.28263
7206.68738,0.21524
7208.61585,0.12575
7210.54432,0.07992
7212.47279,0.10970
7214.40125,0.15966
7216.32972,0.15004
7218.25819,0.05547
7220.18666,-0.03197
7222.11513,-0.01808
7224.04360,0.04515
7225.97207,0.09371
7227.90053,0.11558
7229.82900,0.04910
7231.75747,-0.04536
7233.68594,-0.03149
7235.61441,0.01385
7237.54288,-0.01461
7239.47135,-0.08717
7241.39982,-0.11127
7243.32828,-0.01379
7245.25675,0.14621
7247.18522,0.26645
7249.11369,0.32854
7251.04216,0.28883
7252.97063,0.14937
7254.89910,0.04513
7256.82756,-0.01287
7258.75603,-0.09957
7260.68450,-0.16051
7262.61297,-0.09252
7264.54144,0.06754
7266.46991,0.17519
7268.39838,0.13426
7270.32685,0.01746
7272.25531,-0.06677
7274.18378,-0.03790
7276.11225,0.09666
7278.04072,0.24664
7279.96919,0.29002
7281.89766,0.19889
7283.82613,0.12674
7285.75459,0.14711
7287.68306,0.21187
7289.61153,0.17028
7291.54000,-0.01608
7293.46847,-0.15652
7295.39694,-0.13378
7297.32541,-0.02302
7299.25387,0.02871
7301.18234,-0.02053
7303.11081,-0.12549
7305.03928,-0.19211
7306.96775,-0.12250
7308.89622,0.04758
7310.82469,0.06499
7312.75316,-0.03849
7314.68162,-0.05371
7316.61009,-0.04910
7318.53856,-0.12696
7320.46703,-0.17848
7322.39550,-0.14554
7324.32397,-0.07269
7326.25244,-0.01182
7328.18090,0.01319
7330.10937,-0.01517
7332.03784,0.04131
7333.96631,0.06448
7335.89478,-0.07069
7337.82325,-0.21774
7339.75172,-0.21803
7341.68019,-0.02299
7343.60865,0.07709
7345.53712,0.02073
7347.46559,-0.03119
7349.39406,-0.09400
7351.32253,-0.20958
7353.25100,-0.20567
7355.17947,-0.04071
7357.10793,0.16126
7359.03640,0.23975
7360.96487,0.19998
7362.89334,0.19029
7364.82181,0.16279
7366.75028,0.14935
7368.67875,0.23976
7370.60722,0.28835
7372.53568,0.24473
7374.46415,0.16954
7376.39262,0.10883
7378.32109,0.16729
7380.24956,0.26519
7382.17803,0.22633
7384.10650,0.12611
7386.03496,0.17537
7387.96343,0.29774
7389.89190,0.28623
7391.82037,0.15612
7393.74884,0.11066
7395.67731,0.22326
7397.60578,0.31903
7399.53425,0.30499
7401.46271,0.20029
7403.39118,0.04418
7405.31965,-0.03620
7407.24812,0.05275
7409.17659,0.16721
7411.10506,0.15922
7413.03353,0.07856
7414.96199,-0.02740
7416.89046,-0.14824
7418.81893,-0.11067
7420.74740,0.14420
7422.67587,0.27728
7424.60434,0.23910
7426.53281,0.18169
7428.46128,0.13377
7430.38974,0.05625
7432.31821,0.04417
7434.24668,0.12438
7436.17515,0.12788
7438.10362,-0.02211
7440.03209,-0.11188
7441.96056,0.06547
7443.88902,0.27085
7445.81749,0.18168
7447.74596,-0.01112
7449.67443,-0.01039
7451.60290,0.13652
7453.53137,0.18446
7455.45984,0.14983
7457.38831,0.17222
7459.31677,0.18448
7461.24524,0.08483
7463.17371,0.04930
7465.10218,0.10296
7467.03065,0.17087
7468.95912,0.22357
7470.88759,0.14995
7472.81605,0.00237
7474.74452,-0.01023
7476.67299,0.09624
7478.60146,0.24015
7480.52993,0.28430
7482.45840,0.13223
7484.38687,0.02160
7486.31533,0.09773
7488.24380,0.22411
7490.17227,0.13723
7492.10074,-0.09100
7494.02921,-0.09680
7495.95768,0.10010
7497.88615,0.30929
