399.19301,-0.22152
401.12148,0.23286
403.04995,0.35393
404.97842,0.22114
406.90689,0.06295
408.83536,-0.05664
410.76382,-0.10375
412.69229,-0.10486
414.62076,-0.08417
416.54923,-0.05635
418.47770,-0.02816
420.40617,0.05453
422.33464,0.15757
424.26311,0.16243
426.19157,0.04990
428.12004,-0.02883
430.04851,0.02733
431.97698,0.15750
433.90545,0.20936
435.83392,0.16544
437.76239,0.08861
439.69085,0.05710
441.61932,0.10090
443.54779,0.11270
445.47626,0.08977
447.40473,0.12571
449.33320,0.12382
451.26167,0.04996
453.19013,0.00906
455.11860,0.02674
457.04707,0.04555
458.97554,0.03710
460.90401,0.05838
462.83248,0.11591
464.76095,0.13978
466.68942,0.11491
468.61788,0.09040
470.54635,0.08811
472.47482,0.10797
474.40329,0.09702
476.33176,0.06166
478.26023,0.08649
480.18870,0.13988
482.11716,0.17027
484.04563,0.16510
485.97410,0.14097
487.90257,0.10194
489.83104,0.06243
491.75951,0.03974
493.68798,0.02563
495.61645,0.02653
497.54491,0.04465
499.47338,0.05246
501.40185,0.04536
503.33032,0.04833
505.25879,0.06404
507.18726,0.08527
509.11573,0.10401
511.04419,0.10068
512.97266,0.08720
514.90113,0.06981
516.82960,0.04728
518.75807,0.05437
520.68654,0.08649
522.61501,0.10591
524.54348,0.09650
526.47194,0.07651
528.40041,0.07775
530.32888,0.09679
532.25735,0.10768
534.18582,0.09659
536.11429,0.08856
538.04276,0.09778
539.97122,0.09177
541.89969,0.07099
543.82816,0.06757
545.75663,0.09122
547.68510,0.12800
549.61357,0.15860
551.54204,0.21508
553.47051,0.27327
555.39897,0.23252
557.32744,0.14316
559.25591,0.11479
561.18438,0.13173
563.11285,0.15241
565.04132,0.14463
566.96979,0.10683
568.89825,0.08450
570.82672,0.08309
572.75519,0.08849
574.68366,0.10786
576.61213,0.12343
578.54060,0.12443
580.46907,0.12202
582.39754,0.11521
584.32600,0.10372
586.25447,0.08669
588.18294,0.07082
590.11141,0.06594
592.03988,0.07864
593.96835,0.10163
595.89682,0.10554
597.82528,0.09966
599.75375,0.10918
601.68222,0.11592
603.61069,0.10915
605.53916,0.10515
607.46763,0.10162
609.39610,0.09865
611.32456,0.10862
613.25303,0.12133
615.18150,0.11653
617.10997,0.10082
619.03844,0.08719
620.96691,0.07756
622.89538,0.08245
624.82385,0.09561
626.75231,0.10152
628.68078,0.10678
630.60925,0.11325
632.53772,0.11661
634.46619,0.11622
636.39466,0.11234
638.32313,0.11758
640.25159,0.13486
642.18006,0.14839
644.10853,0.15088
646.03700,0.13638
647.96547,0.10970
649.89394,0.09795
651.82241,0.10085
653.75088,0.10714
655.67934,0.11922
657.60781,0.12264
659.53628,0.11607
661.46475,0.11020
663.39322,0.10557
665.32169,0.11336
667.25016,0.13970
669.17862,0.14500
671.10709,0.11499
673.03556,0.09442
674.96403,0.09377
676.89250,0.10055
678.82097,0.09615
680.74944,0.08787
682.67791,0.08889
684.60637,0.09016
686.53484,0.08826
688.46331,0.09365
690.39178,0.10614
692.32025,0.11481
694.24872,0.11536
696.17719,0.11705
698.10565,0.12104
700.03412,0.11926
701.96259,0.11512
703.89106,0.11398
705.81953,0.11219
707.74800,0.10590
709.67647,0.10398
711.60494,0.11581
713.53340,0.12908
715.46187,0.13191
717.39034,0.12924
719.31881,0.12110
721.24728,0.11143
723.17575,0.11121
725.10422,0.11850
727.03268,0.12715
728.96115,0.13489
730.88962,0.13952
732.81809,0.13585
734.74656,0.12593
736.67503,0.11970
738.60350,0.11880
740.53197,0.12303
742.46043,0.13129
744.38890,0.13600
746.31737,0.13475
748.24584,0.13380
750.17431,0.13554
752.10278,0.13663
754.03125,0.13826
755.95971,0.14249
757.88818,0.14128
759.81665,0.13088
761.74512,0.12452
763.67359,0.12489
765.60206,0.12204
767.53053,0.11903
769.45900,0.12306
771.38746,0.13277
773.31593,0.13881
775.24440,0.13723
777.17287,0.13323
779.10134,0.13355
781.02981,0.14211
782.95828,0.14718
784.88674,0.13910
786.81521,0.12761
788.74368,0.12215
790.67215,0.12407
792.60062,0.13231
794.52909,0.14061
796.45756,0.14103
798.38602,0.13716
800.31449,0.13566
802.24296,0.13398
804.17143,0.12879
806.09990,0.12763
808.02837,0.14189
809.95684,0.16123
811.88531,0.16313
813.81377,0.14801
815.74224,0.12983
817.67071,0.11402
819.59918,0.10626
821.52765,0.10606
823.45612,0.10712
825.38459,0.11227
827.31305,0.11765
829.24152,0.11913
831.16999,0.12465
833.09846,0.13620
835.02693,0.14636
836.95540,0.14544
838.88387,0.13890
840.81234,0.13960
842.74080,0.14491
844.66927,0.14926
846.59774,0.14905
848.52621,0.14277
850.45468,0.14117
852.38315,0.15256
854.31162,0.16391
856.24008,0.16250
858.16855,0.15417
860.09702,0.14228
862.02549,0.13007
863.95396,0.12766
865.88243,0.13104
867.81090,0.13022
869.73937,0.12819
871.66783,0.12912
873.59630,0.13041
875.52477,0.13362
877.45324,0.13928
879.38171,0.13683
881.31018,0.12320
883.23865,0.11417
885.16711,0.12214
887.09558,0.13645
889.02405,0.14220
890.95252,0.14258
892.88099,0.14099
894.80946,0.13719
896.73793,0.13603
898.66640,0.13331
900.59486,0.12741
902.52333,0.12867
904.45180,0.13648
906.38027,0.13991
908.30874,0.13662
910.23721,0.13260
912.16568,0.13437
914.09414,0.14037
916.02261,0.13920
917.95108,0.13110
919.87955,0.12921
921.80802,0.13544
923.73649,0.14013
925.66496,0.13995
927.59343,0.13941
929.52189,0.13789
931.45036,0.13557
933.37883,0.13577
935.30730,0.13537
937.23577,0.13519
939.16424,0.14109
941.09271,0.14919
943.02117,0.15115
944.94964,0.14751
946.87811,0.14176
948.80658,0.13697
950.73505,0.13711
952.66352,0.14155
954.59199,0.14598
956.52045,0.14789
958.44892,0.14804
960.37739,0.14547
962.30586,0.13939
964.23433,0.13355
966.16280,0.13067
968.09127,0.13095
970.01974,0.13472
971.94820,0.13721
973.87667,0.13459
975.80514,0.13302
977.73361,0.13466
979.66208,0.13696
981.59055,0.14183
983.51902,0.14972
985.44748,0.15440
987.37595,0.14789
989.30442,0.13785
991.23289,0.14105
993.16136,0.15329
995.08983,0.15491
997.01830,0.14627
998.94677,0.14393
1000.87523,0.14711
1002.80370,0.14568
1004.73217,0.14004
1006.66064,0.13563
1008.58911,0.13652
1010.51758,0.14146
1012.44605,0.14340
1014.37451,0.14151
1016.30298,0.14125
1018.23145,0.14608
1020.15992,0.15597
1022.08839,0.16291
1024.01686,0.16195
1025.94533,0.15440
1027.87380,0.14253
1029.80226,0.13685
1031.73073,0.14015
1033.65920,0.14407
1035.58767,0.14514
1037.51614,0.14484
1039.44461,0.14518
1041.37308,0.14664
1043.30154,0.14937
1045.23001,0.14881
1047.15848,0.14224
1049.08695,0.13831
1051.01542,0.13992
1052.94389,0.14079
1054.87236,0.14556
1056.80083,0.15627
1058.72929,0.15996
1060.65776,0.15572
1062.58623,0.15383
1064.51470,0.15486
1066.44317,0.15368
1068.37164,0.15069
1070.30011,0.15057
1072.22857,0.15296
1074.15704,0.15231
1076.08551,0.14810
1078.01398,0.14781
1079.94245,0.14973
1081.87092,0.14813
1083.79939,0.14983
1085.72786,0.15588
1087.65632,0.15698
1089.58479,0.15134
1091.51326,0.14841
1093.44173,0.15468
1095.37020,0.16163
1097.29867,0.16102
1099.22714,0.15791
1101.15560,0.15742
1103.08407,0.15640
1105.01254,0.15589
1106.94101,0.16011
1108.86948,0.16420
1110.79795,0.16238
1112.72642,0.15644
1114.65489,0.15378
1116.58335,0.15909
1118.51182,0.16529
1120.44029,0.16478
1122.36876,0.15873
1124.29723,0.15426
1126.22570,0.15768
1128.15417,0.16299
1130.08263,0.16126
1132.01110,0.15460
1133.93957,0.14770
1135.86804,0.14470
1137.79651,0.14861
1139.72498,0.15560
1141.65345,0.16115
1143.58191,0.16390
1145.51038,0.16281
1147.43885,0.15900
1149.36732,0.15584
1151.29579,0.15495
1153.22426,0.15409
1155.15273,0.15375
1157.08120,0.15718
1159.00966,0.16152
1160.93813,0.16277
1162.86660,0.16155
1164.79507,0.16007
1166.72354,0.16057
1168.65201,0.16147
1170.58048,0.16075
1172.50894,0.16317
1174.43741,0.17069
1176.36588,0.17513
1178.29435,0.17326
1180.22282,0.17067
1182.15129,0.16745
1184.07976,0.16165
1186.00823,0.15877
1187.93669,0.16178
1189.86516,0.16458
1191.79363,0.16516
1193.72210,0.16780
1195.65057,0.16948
1197.57904,0.16597
1199.50751,0.16197
1201.43597,0.16301
1203.36444,0.16784
1205.29291,0.16920
1207.22138,0.16533
1209.14985,0.16227
1211.07832,0.15974
1213.00679,0.15664
1214.93526,0.15732
1216.86372,0.16051
1218.79219,0.16158
1220.72066,0.15978
1222.64913,0.15801
1224.57760,0.15827
1226.50607,0.16009
1228.43454,0.16499
1230.36300,0.16907
1232.29147,0.16637
1234.21994,0.16113
1236.14841,0.15913
1238.07688,0.15970
1240.00535,0.15961
1241.93382,0.15923
1243.86229,0.15982
1245.79075,0.15927
1247.71922,0.15943
1249.64769,0.16268
1251.57616,0.16495
1253.50463,0.16379
1255.43310,0.16328
1257.36157,0.16568
1259.29003,0.16631
1261.21850,0.16319
1263.14697,0.16116
1265.07544,0.16166
1267.00391,0.16168
1268.93238,0.16111
1270.86085,0.16341
1272.78932,0.16842
1274.71778,0.17119
1276.64625,0.17202
1278.57472,0.17377
1280.50319,0.17418
1282.43166,0.17333
1284.36013,0.17336
1286.28860,0.17125
1288.21706,0.16746
1290.14553,0.16769
1292.07400,0.17080
1294.00247,0.17149
1295.93094,0.16989
1297.85941,0.16870
1299.78788,0.16456
1301.71634,0.15321
1303.64481,0.14129
1305.57328,0.14081
1307.50175,0.15290
1309.43022,0.16546
1311.35869,0.17075
1313.28716,0.17141
1315.21563,0.17164
1317.14409,0.17344
1319.07256,0.17428
1321.00103,0.17290
1322.92950,0.17138
1324.85797,0.16931
1326.78644,0.16861
1328.71491,0.17044
1330.64337,0.16988
1332.57184,0.16775
1334.50031,0.16700
1336.42878,0.16596
1338.35725,0.16692
1340.28572,0.16631
1342.21419,0.16114
1344.14266,0.15796
1346.07112,0.15674
1347.99959,0.15912
1349.92806,0.16582
1351.85653,0.16943
1353.78500,0.16874
1355.71347,0.16851
1357.64194,0.17073
1359.57040,0.17383
1361.49887,0.17582
1363.42734,0.17544
1365.35581,0.17282
1367.28428,0.17162
1369.21275,0.17428
1371.14122,0.17986
1373.06969,0.18594
1374.99815,0.18742
1376.92662,0.18473
1378.85509,0.18304
1380.78356,0.18274
1382.71203,0.18552
1384.64050,0.19175
1386.56897,0.19442
1388.49743,0.18967
1390.42590,0.18640
1392.35437,0.18708
1394.28284,0.18656
1396.21131,0.18568
1398.13978,0.18619
1400.06825,0.18351
1401.99672,0.17952
1403.92518,0.17912
1405.85365,0.18201
1407.78212,0.18555
1409.71059,0.18627
1411.63906,0.18392
1413.56753,0.18457
1415.49600,0.18900
1417.42446,0.19119
1419.35293,0.18831
1421.28140,0.18544
1423.20987,0.18463
1425.13834,0.18448
1427.06681,0.18471
1428.99528,0.18546
1430.92375,0.18635
1432.85221,0.18763
1434.78068,0.19144
1436.70915,0.19342
1438.63762,0.18969
1440.56609,0.18887
1442.49456,0.18958
1444.42303,0.18777
1446.35149,0.18656
1448.27996,0.18724
1450.20843,0.18792
1452.13690,0.18849
1454.06537,0.18951
1455.99384,0.19431
1457.92231,0.19929
1459.85077,0.19510
1461.77924,0.19101
1463.70771,0.18847
1465.63618,0.18570
1467.56465,0.18652
1469.49312,0.19280
1471.42159,0.20156
1473.35006,0.20424
1475.27852,0.19780
1477.20699,0.19029
1479.13546,0.18736
1481.06393,0.18964
1482.99240,0.19192
1484.92087,0.19245
1486.84934,0.19394
1488.77780,0.19382
1490.70627,0.18932
1492.63474,0.18808
1494.56321,0.19205
1496.49168,0.19711
1498.42015,0.19817
1500.34862,0.19480
1502.27709,0.19064
1504.20555,0.19179
1506.13402,0.20480
1508.06249,0.21294
1509.99096,0.20380
1511.91943,0.19527
1513.84790,0.19254
1515.77637,0.19593
1517.70483,0.20083
1519.63330,0.20521
1521.56177,0.20992
1523.49024,0.21046
1525.41871,0.20962
1527.34718,0.20842
1529.27565,0.20514
1531.20412,0.20402
1533.13258,0.20506
1535.06105,0.20316
1536.98952,0.20407
1538.91799,0.21516
1540.84646,0.22691
1542.77493,0.21769
1544.70340,0.20287
1546.63186,0.19459
1548.56033,0.19505
1550.48880,0.20045
1552.41727,0.20525
1554.34574,0.20791
1556.27421,0.21112
1558.20268,0.21584
1560.13115,0.21079
1562.05961,0.20543
1563.98808,0.20407
1565.91655,0.20209
1567.84502,0.20126
1569.77349,0.20304
1571.70196,0.20270
1573.63043,0.20226
1575.55889,0.20380
1577.48736,0.20123
1579.41583,0.19577
1581.34430,0.19230
1583.27277,0.19046
1585.20124,0.19017
1587.12971,0.19068
1589.05818,0.19023
1590.98664,0.18978
1592.91511,0.19127
1594.84358,0.19307
1596.77205,0.19237
1598.70052,0.19118
1600.62899,0.19318
1602.55746,0.19661
1604.48592,0.19680
1606.41439,0.19447
1608.34286,0.19346
1610.27133,0.19482
1612.19980,0.19798
1614.12827,0.20414
1616.05674,0.21122
1617.98521,0.20818
1619.91367,0.20095
1621.84214,0.19934
1623.77061,0.19977
1625.69908,0.19816
1627.62755,0.19799
1629.55602,0.19977
1631.48449,0.20140
1633.41295,0.20441
1635.34142,0.20841
1637.26989,0.20603
1639.19836,0.20166
1641.12683,0.20132
1643.05530,0.20599
1644.98377,0.21586
1646.91223,0.22328
1648.84070,0.21832
1650.76917,0.21519
1652.69764,0.21893
1654.62611,0.21289
1656.55458,0.20295
1658.48305,0.20014
1660.41152,0.20313
1662.33998,0.20620
1664.26845,0.20367
1666.19692,0.20232
1668.12539,0.20801
1670.05386,0.21514
1671.98233,0.21572
1673.91080,0.21327
1675.83926,0.20973
1677.76773,0.20833
1679.69620,0.21024
1681.62467,0.21585
1683.55314,0.22313
1685.48161,0.21689
1687.41008,0.20718
1689.33855,0.20385
1691.26701,0.20187
1693.19548,0.20227
1695.12395,0.20892
1697.05242,0.21781
1698.98089,0.21991
1700.90936,0.21154
1702.83783,0.20387
1704.76629,0.20343
1706.69476,0.20346
1708.62323,0.19994
1710.55170,0.19733
1712.48017,0.19895
1714.40864,0.20489
1716.33711,0.21220
1718.26558,0.20954
1720.19404,0.19978
1722.12251,0.19459
1724.05098,0.19338
1725.97945,0.19270
1727.90792,0.19346
1729.83639,0.19759
1731.76486,0.20438
1733.69332,0.20989
1735.62179,0.20676
1737.55026,0.20233
1739.47873,0.20108
1741.40720,0.20006
1743.33567,0.19900
1745.26414,0.20195
1747.19261,0.20895
1749.12107,0.21123
1751.04954,0.20371
1752.97801,0.19664
1754.90648,0.19580
1756.83495,0.19788
1758.76342,0.19855
1760.69189,0.19805
1762.62035,0.19694
1764.54882,0.19480
1766.47729,0.19430
1768.40576,0.19701
1770.33423,0.20070
1772.26270,0.20265
1774.19117,0.20201
1776.11964,0.19914
1778.04810,0.19600
1779.97657,0.19513
1781.90504,0.19595
1783.83351,0.19521
1785.76198,0.19220
1787.69045,0.19205
1789.61892,0.19687
1791.54738,0.20048
1793.47585,0.19853
1795.40432,0.19742
1797.33279,0.19949
1799.26126,0.20137
1801.18973,0.19954
1803.11820,0.19519
1805.04666,0.19381
1806.97513,0.19707
1808.90360,0.20057
1810.83207,0.20059
1812.76054,0.19879
1814.68901,0.19723
1816.61748,0.19530
1818.54595,0.19285
1820.47441,0.19188
1822.40288,0.19368
1824.33135,0.19623
1826.25982,0.19864
1828.18829,0.20283
1830.11676,0.20472
1832.04523,0.20062
1833.97369,0.19578
1835.90216,0.19271
1837.83063,0.19115
1839.75910,0.19118
1841.68757,0.19428
1843.61604,0.20005
1845.54451,0.20175
1847.47298,0.19847
1849.40144,0.19536
1851.32991,0.19309
1853.25838,0.19178
1855.18685,0.19173
1857.11532,0.19197
1859.04379,0.19290
1860.97226,0.19360
1862.90072,0.19352
1864.82919,0.19626
1866.75766,0.20092
1868.68613,0.20077
1870.61460,0.19674
1872.54307,0.19375
1874.47154,0.19156
1876.40001,0.19041
1878.32847,0.18941
1880.25694,0.18896
1882.18541,0.19061
1884.11388,0.19193
1886.04235,0.19191
1887.97082,0.19256
1889.89929,0.19334
1891.82775,0.19259
1893.75622,0.19187
1895.68469,0.19217
1897.61316,0.19276
1899.54163,0.19459
1901.47010,0.19738
1903.39857,0.19825
1905.32704,0.19738
1907.25550,0.19634
1909.18397,0.19352
1911.11244,0.19083
1913.04091,0.19231
1914.96938,0.19564
1916.89785,0.19714
1918.82632,0.19663
1920.75478,0.19676
1922.68325,0.19717
1924.61172,0.19502
1926.54019,0.19219
1928.46866,0.19132
1930.39713,0.19196
1932.32560,0.19341
1934.25407,0.19463
1936.18253,0.19447
1938.11100,0.19415
1940.03947,0.19461
1941.96794,0.19468
1943.89641,0.19312
1945.82488,0.19019
1947.75335,0.18903
1949.68181,0.19139
1951.61028,0.19336
1953.53875,0.19214
1955.46722,0.19062
1957.39569,0.19118
1959.32416,0.19188
1961.25263,0.19151
1963.18110,0.19157
1965.10956,0.19242
1967.03803,0.19330
1968.96650,0.19348
1970.89497,0.19303
1972.82344,0.19311
1974.75191,0.19318
1976.68038,0.19196
1978.60884,0.19034
1980.53731,0.18954
1982.46578,0.19014
1984.39425,0.19201
1986.32272,0.19336
1988.25119,0.19409
1990.17966,0.19570
1992.10812,0.19750
1994.03659,0.19751
1995.96506,0.19524
1997.89353,0.19381
1999.82200,0.19473
2001.75047,0.19476
2003.67894,0.19327
2005.60741,0.19271
2007.53587,0.19312
2009.46434,0.19322
2011.39281,0.19293
2013.32128,0.19336
2015.24975,0.19613
2017.17822,0.19933
2019.10669,0.19918
2021.03515,0.19736
2022.96362,0.19695
2024.89209,0.19741
2026.82056,0.19616
2028.74903,0.19340
2030.67750,0.19291
2032.60597,0.19486
2034.53444,0.19491
2036.46290,0.19318
2038.39137,0.19323
2040.31984,0.19451
2042.24831,0.19511
2044.17678,0.19568
2046.10525,0.19635
2048.03372,0.19627
2049.96218,0.19677
2051.89065,0.19810
2053.81912,0.19849
2055.74759,0.19831
2057.67606,0.19744
2059.60453,0.19601
2061.53300,0.19593
2063.46147,0.19681
2065.38993,0.19703
2067.31840,0.19653
2069.24687,0.19560
2071.17534,0.19448
2073.10381,0.19402
2075.03228,0.19406
2076.96075,0.19383
2078.88921,0.19415
2080.81768,0.19622
2082.74615,0.19777
2084.67462,0.19567
2086.60309,0.19281
2088.53156,0.19349
2090.46003,0.19580
2092.38850,0.19638
2094.31696,0.19627
2096.24543,0.19675
2098.17390,0.19672
2100.10237,0.19648
2102.03084,0.19747
2103.95931,0.19899
2105.88778,0.19908
2107.81624,0.19727
2109.74471,0.19445
2111.67318,0.19288
2113.60165,0.19390
2115.53012,0.19431
2117.45859,0.19266
2119.38706,0.19292
2121.31553,0.19580
2123.24399,0.19813
2125.17246,0.19905
2127.10093,0.19869
2129.02940,0.19749
2130.95787,0.19668
2132.88634,0.19614
2134.81481,0.19574
2136.74327,0.19592
2138.67174,0.19692
2140.60021,0.19784
2142.52868,0.19722
2144.45715,0.19610
2146.38562,0.19568
2148.31409,0.19594
2150.24255,0.19709
2152.17102,0.19874
2154.09949,0.19982
2156.02796,0.19956
2157.95643,0.19953
2159.88490,0.20079
2161.81337,0.20072
2163.74184,0.19837
2165.67030,0.19599
2167.59877,0.19519
2169.52724,0.19638
2171.45571,0.19729
2173.38418,0.19475
2175.31265,0.19100
2177.24112,0.19053
2179.16958,0.19326
2181.09805,0.19560
2183.02652,0.19575
2184.95499,0.19588
2186.88346,0.19767
2188.81193,0.19876
2190.74040,0.19690
2192.66887,0.19499
2194.59733,0.19556
2196.52580,0.19608
2198.45427,0.19500
2200.38274,0.19375
2202.31121,0.19304
2204.23968,0.19393
2206.16815,0.19731
2208.09661,0.20020
2210.02508,0.19958
2211.95355,0.19831
2213.88202,0.20010
2215.81049,0.20142
2217.73896,0.19828
2219.66743,0.19486
2221.59590,0.19473
2223.52436,0.19529
2225.45283,0.19600
2227.38130,0.19798
2229.30977,0.19952
2231.23824,0.20050
2233.16671,0.20113
2235.09518,0.20099
2237.02364,0.20162
2238.95211,0.20275
2240.88058,0.20270
2242.80905,0.20103
2244.73752,0.19868
2246.66599,0.19716
2248.59446,0.19700
2250.52293,0.19816
2252.45139,0.19992
2254.37986,0.20044
2256.30833,0.19938
2258.23680,0.19905
2260.16527,0.19939
2262.09374,0.19770
2264.02221,0.19485
2265.95067,0.19346
2267.87914,0.19363
2269.80761,0.19514
2271.73608,0.19746
2273.66455,0.19836
2275.59302,0.19764
2277.52149,0.19730
2279.44996,0.19747
2281.37842,0.19751
2283.30689,0.19759
2285.23536,0.19792
2287.16383,0.19815
2289.09230,0.19787
2291.02077,0.19801
2292.94924,0.19855
2294.87770,0.19848
2296.80617,0.19788
2298.73464,0.19714
2300.66311,0.19713
2302.59158,0.19730
2304.52005,0.19754
2306.44852,0.20021
2308.37699,0.20293
2310.30545,0.20172
2312.23392,0.19828
2314.16239,0.19539
2316.09086,0.19586
2318.01933,0.19964
2319.94780,0.19947
2321.87627,0.19483
2323.80473,0.19551
2325.73320,0.20187
2327.66167,0.20633
2329.59014,0.20548
2331.51861,0.20395
2333.44708,0.20421
2335.37555,0.19983
2337.30401,0.19717
2339.23248,0.20514
2341.16095,0.21055
2343.08942,0.20518
2345.01789,0.19950
2346.94636,0.19729
2348.87483,0.19511
2350.80330,0.19461
2352.73176,0.20132
2354.66023,0.21362
2356.58870,0.21972
2358.51717,0.21407
2360.44564,0.20963
2362.37411,0.21710
2364.30258,0.21287
2366.23104,0.19375
2368.15951,0.18369
2370.08798,0.18563
2372.01645,0.19113
2373.94492,0.19555
2375.87339,0.19920
2377.80186,0.20221
2379.73033,0.20367
2381.65879,0.20343
2383.58726,0.20083
2385.51573,0.19769
2387.44420,0.19787
2389.37267,0.20028
2391.30114,0.20074
2393.22961,0.19945
2395.15807,0.19920
2397.08654,0.19975
2399.01501,0.19844
2400.94348,0.19609
2402.87195,0.19540
2404.80042,0.19579
2406.72889,0.19679
2408.65736,0.19941
2410.58582,0.20206
2412.51429,0.20220
2414.44276,0.20038
2416.37123,0.19803
2418.29970,0.19685
2420.22817,0.19806
2422.15664,0.19930
2424.08510,0.19984
2426.01357,0.20074
2427.94204,0.20091
2429.87051,0.20022
2431.79898,0.19955
2433.72745,0.19943
2435.65592,0.20043
2437.58439,0.20237
2439.51285,0.20318
2441.44132,0.20078
2443.36979,0.19706
2445.29826,0.19522
2447.22673,0.19586
2449.15520,0.19716
2451.08367,0.19769
2453.01213,0.19825
2454.94060,0.19820
2456.86907,0.19712
2458.79754,0.19753
2460.72601,0.19925
2462.65448,0.20024
2464.58295,0.20044
2466.51142,0.20067
2468.43988,0.20088
2470.36835,0.20089
2472.29682,0.20181
2474.22529,0.20284
2476.15376,0.20188
2478.08223,0.20030
2480.01070,0.19993
2481.93916,0.19948
2483.86763,0.19812
2485.79610,0.19801
2487.72457,0.19913
2489.65304,0.19859
2491.58151,0.19654
2493.50998,0.19571
2495.43844,0.19705
2497.36691,0.19961
2499.29538,0.20189
2501.22385,0.20297
2503.15232,0.20280
2505.08079,0.20207
2507.00926,0.20290
2508.93773,0.20502
2510.86619,0.20480
2512.79466,0.20262
2514.72313,0.20140
2516.65160,0.20077
2518.58007,0.20020
2520.50854,0.20014
2522.43701,0.20030
2524.36547,0.20060
2526.29394,0.20115
2528.22241,0.20173
2530.15088,0.20158
2532.07935,0.19967
2534.00782,0.19692
2535.93629,0.19566
2537.86476,0.19631
2539.79322,0.19827
2541.72169,0.19997
2543.65016,0.19940
2545.57863,0.19823
2547.50710,0.19945
2549.43557,0.20102
2551.36404,0.19982
2553.29250,0.19911
2555.22097,0.20131
2557.14944,0.20270
2559.07791,0.20188
2561.00638,0.20090
2562.93485,0.20016
2564.86332,0.19909
2566.79179,0.19963
2568.72025,0.20195
2570.64872,0.20174
2572.57719,0.19984
2574.50566,0.20003
2576.43413,0.20094
2578.36260,0.20155
2580.29107,0.20322
2582.21953,0.20615
2584.14800,0.20830
2586.07647,0.20704
2588.00494,0.20425
2589.93341,0.20369
2591.86188,0.20451
2593.79035,0.20524
2595.71882,0.20645
2597.64728,0.20771
2599.57575,0.20795
2601.50422,0.20688
2603.43269,0.20545
2605.36116,0.20419
2607.28963,0.20291
2609.21810,0.20262
2611.14656,0.20380
2613.07503,0.20572
2615.00350,0.20665
2616.93197,0.20456
2618.86044,0.20145
2620.78891,0.20076
2622.71738,0.20272
2624.64585,0.20590
2626.57431,0.20802
2628.50278,0.20843
2630.43125,0.20812
2632.35972,0.20654
2634.28819,0.20454
2636.21666,0.20434
2638.14513,0.20479
2640.07359,0.20473
2642.00206,0.20525
2643.93053,0.20566
2645.85900,0.20584
2647.78747,0.20623
2649.71594,0.20526
2651.64441,0.20435
2653.57288,0.20528
2655.50134,0.20563
2657.42981,0.20426
2659.35828,0.20330
2661.28675,0.20454
2663.21522,0.20732
2665.14369,0.20957
2667.07216,0.21041
2669.00062,0.20985
2670.92909,0.20845
2672.85756,0.20704
2674.78603,0.20681
2676.71450,0.20829
2678.64297,0.20956
2680.57144,0.20973
2682.49990,0.20953
2684.42837,0.20998
2686.35684,0.21192
2688.28531,0.21268
2690.21378,0.21143
2692.14225,0.21163
2694.07072,0.21221
2695.99919,0.21027
2697.92765,0.20786
2699.85612,0.20648
2701.78459,0.20544
2703.71306,0.20602
2705.64153,0.20819
2707.57000,0.20903
2709.49847,0.20777
2711.42693,0.20687
2713.35540,0.20811
2715.28387,0.20987
2717.21234,0.20976
2719.14081,0.20881
2721.06928,0.20896
2722.99775,0.20990
2724.92622,0.21134
2726.85468,0.21266
2728.78315,0.21160
2730.71162,0.20871
2732.64009,0.20856
2734.56856,0.21188
2736.49703,0.21502
2738.42550,0.21667
2740.35396,0.21673
2742.28243,0.21515
2744.21090,0.21303
2746.13937,0.21187
2748.06784,0.21212
2749.99631,0.21318
2751.92478,0.21504
2753.85325,0.21660
2755.78171,0.21569
2757.71018,0.21404
2759.63865,0.21527
2761.56712,0.21786
2763.49559,0.21924
2765.42406,0.21967
2767.35253,0.21817
2769.28099,0.21487
2771.20946,0.21218
2773.13793,0.21136
2775.06640,0.21184
2776.99487,0.21290
2778.92334,0.21488
2780.85181,0.21609
2782.78028,0.21472
2784.70874,0.21360
2786.63721,0.21566
2788.56568,0.21936
2790.49415,0.21969
2792.42262,0.21623
2794.35109,0.21545
2796.27956,0.21692
2798.20802,0.21595
2800.13649,0.21468
2802.06496,0.21432
2803.99343,0.21418
2805.92190,0.21486
2807.85037,0.21581
2809.77884,0.21796
2811.70731,0.22070
2813.63577,0.22103
2815.56424,0.21955
2817.49271,0.21932
2819.42118,0.22076
2821.34965,0.22093
2823.27812,0.21977
2825.20659,0.22104
2827.13505,0.22331
2829.06352,0.22303
2830.99199,0.22160
2832.92046,0.21958
2834.84893,0.21673
2836.77740,0.21621
2838.70587,0.21883
2840.63433,0.22115
2842.56280,0.22088
2844.49127,0.21792
2846.41974,0.21391
2848.34821,0.21260
2850.27668,0.21548
2852.20515,0.21893
2854.13362,0.21895
2856.06208,0.21702
2857.99055,0.21777
2859.91902,0.22102
2861.84749,0.22309
2863.77596,0.22333
2865.70443,0.22348
2867.63290,0.22315
2869.56136,0.22071
2871.48983,0.21855
2873.41830,0.21898
2875.34677,0.22027
2877.27524,0.22246
2879.20371,0.22419
2881.13218,0.22114
2883.06065,0.21584
2884.98911,0.21356
2886.91758,0.21430
2888.84605,0.21612
2890.77452,0.21766
2892.70299,0.21820
2894.63146,0.21619
2896.55993,0.21272
2898.48839,0.21230
2900.41686,0.21515
2902.34533,0.21763
2904.27380,0.21733
2906.20227,0.21558
2908.13074,0.21545
2910.05921,0.21666
2911.98768,0.21688
2913.91614,0.21635
2915.84461,0.21722
2917.77308,0.22005
2919.70155,0.22236
2921.63002,0.22189
2923.55849,0.21720
2925.48696,0.20920
2927.41542,0.20561
2929.34389,0.20915
2931.27236,0.21283
2933.20083,0.21398
2935.12930,0.21130
2937.05777,0.20529
2938.98624,0.20502
2940.91471,0.21015
2942.84317,0.21275
2944.77164,0.21199
2946.70011,0.20683
2948.62858,0.20438
2950.55705,0.21144
2952.48552,0.21662
2954.41399,0.21272
2956.34245,0.20354
2958.27092,0.19752
2960.19939,0.20263
2962.12786,0.21240
2964.05633,0.21639
2965.98480,0.21421
2967.91327,0.21238
2969.84174,0.21659
2971.77020,0.22289
2973.69867,0.22509
2975.62714,0.22100
2977.55561,0.21166
2979.48408,0.20879
2981.41255,0.21681
2983.34102,0.22162
2985.26948,0.21862
2987.19795,0.21589
2989.12642,0.21748
2991.05489,0.22284
2992.98336,0.22879
2994.91183,0.23164
2996.84030,0.22894
2998.76877,0.22259
3000.69723,0.21966
3002.62570,0.22314
3004.55417,0.22742
3006.48264,0.22484
3008.41111,0.21653
3010.33958,0.20760
3012.26805,0.19274
3014.19651,0.16428
3016.12498,0.13748
3018.05345,0.14609
3019.98192,0.18619
3021.91039,0.21575
3023.83886,0.22262
3025.76733,0.22386
3027.69579,0.22780
3029.62426,0.23015
3031.55273,0.22622
3033.48120,0.22082
3035.40967,0.22087
3037.33814,0.22432
3039.26661,0.22590
3041.19508,0.22523
3043.12354,0.22490
3045.05201,0.22516
3046.98048,0.22299
3048.90895,0.21795
3050.83742,0.21523
3052.76589,0.21792
3054.69436,0.21881
3056.62282,0.21339
3058.55129,0.21196
3060.47976,0.21729
3062.40823,0.22035
3064.33670,0.21669
3066.26517,0.21021
3068.19364,0.21057
3070.12211,0.21596
3072.05057,0.21763
3073.97904,0.21536
3075.90751,0.21462
3077.83598,0.22034
3079.76445,0.22573
3081.69292,0.22047
3083.62139,0.20657
3085.54985,0.19866
3087.47832,0.20695
3089.40679,0.21993
3091.33526,0.22372
3093.26373,0.21854
3095.19220,0.21541
3097.12067,0.22255
3099.04914,0.23010
3100.97760,0.22722
3102.90607,0.21654
3104.83454,0.21023
3106.76301,0.21640
3108.69148,0.22598
3110.61995,0.22558
3112.54842,0.21810
3114.47688,0.21721
3116.40535,0.22369
3118.33382,0.22771
3120.26229,0.22663
3122.19076,0.22545
3124.11923,0.22794
3126.04770,0.22904
3127.97617,0.22398
3129.90463,0.21809
3131.83310,0.21823
3133.76157,0.22300
3135.69004,0.22717
3137.61851,0.22715
3139.54698,0.22383
3141.47545,0.22434
3143.40391,0.22960
3145.33238,0.23315
3147.26085,0.23247
3149.18932,0.23064
3151.11779,0.23161
3153.04626,0.23480
3154.97473,0.23796
3156.90320,0.23737
3158.83166,0.23136
3160.76013,0.22603
3162.68860,0.22618
3164.61707,0.23058
3166.54554,0.23570
3168.47401,0.23646
3170.40248,0.23136
3172.33094,0.22682
3174.25941,0.22827
3176.18788,0.23314
3178.11635,0.23605
3180.04482,0.23555
3181.97329,0.23562
3183.90176,0.23829
3185.83022,0.23950
3187.75869,0.23538
3189.68716,0.22910
3191.61563,0.22752
3193.54410,0.23093
3195.47257,0.23289
3197.40104,0.23233
3199.32951,0.23314
3201.25797,0.23345
3203.18644,0.23146
3205.11491,0.22972
3207.04338,0.22839
3208.97185,0.22544
3210.90032,0.22096
3212.82879,0.21838
3214.75725,0.21899
3216.68572,0.22096
3218.61419,0.22479
3220.54266,0.22914
3222.47113,0.23109
3224.39960,0.23136
3226.32807,0.22989
3228.25654,0.22732
3230.18500,0.22642
3232.11347,0.22678
3234.04194,0.22709
3235.97041,0.22936
3237.89888,0.23416
3239.82735,0.23568
3241.75582,0.22979
3243.68428,0.22123
3245.61275,0.21627
3247.54122,0.21552
3249.46969,0.21841
3251.39816,0.22286
3253.32663,0.22439
3255.25510,0.22531
3257.18357,0.22935
3259.11203,0.23334
3261.04050,0.23227
3262.96897,0.22616
3264.89744,0.22337
3266.82591,0.22758
3268.75438,0.23071
3270.68285,0.22906
3272.61131,0.22798
3274.53978,0.22940
3276.46825,0.23043
3278.39672,0.22961
3280.32519,0.22646
3282.25366,0.22223
3284.18213,0.21976
3286.11060,0.22007
3288.03906,0.22247
3289.96753,0.22605
3291.89600,0.22958
3293.82447,0.23013
3295.75294,0.22821
3297.68141,0.22831
3299.60988,0.22915
3301.53834,0.22774
3303.46681,0.22580
3305.39528,0.22555
3307.32375,0.22778
3309.25222,0.23028
3311.18069,0.22992
3313.10916,0.22614
3315.03763,0.22167
3316.96609,0.22037
3318.89456,0.22282
3320.82303,0.22516
3322.75150,0.22440
3324.67997,0.22377
3326.60844,0.22541
3328.53691,0.22526
3330.46537,0.22371
3332.39384,0.22563
3334.32231,0.22802
3336.25078,0.22772
3338.17925,0.22852
3340.10772,0.22986
3342.03619,0.22801
3343.96466,0.22544
3345.89312,0.22777
3347.82159,0.23309
3349.75006,0.23676
3351.67853,0.23900
3353.60700,0.23913
3355.53547,0.23668
3357.46394,0.23349
3359.39240,0.23172
3361.32087,0.23214
3363.24934,0.23197
3365.17781,0.22946
3367.10628,0.22824
3369.03475,0.22935
3370.96322,0.22851
3372.89168,0.22738
3374.82015,0.22944
3376.74862,0.23139
3378.67709,0.23234
3380.60556,0.23418
3382.53403,0.23398
3384.46250,0.22999
3386.39097,0.22772
3388.31943,0.23241
3390.24790,0.23787
3392.17637,0.23427
3394.10484,0.22616
3396.03331,0.22280
3397.96178,0.22440
3399.89025,0.22769
3401.81871,0.22920
3403.74718,0.22894
3405.67565,0.22874
3407.60412,0.22784
3409.53259,0.22520
3411.46106,0.22102
3413.38953,0.21750
3415.31800,0.21666
3417.24646,0.21849
3419.17493,0.22263
3421.10340,0.22576
3423.03187,0.22546
3424.96034,0.22433
3426.88881,0.22308
3428.81728,0.22271
3430.74574,0.22458
3432.67421,0.22544
3434.60268,0.22269
3436.53115,0.21881
3438.45962,0.21825
3440.38809,0.21927
3442.31656,0.21741
3444.24503,0.21526
3446.17349,0.21486
3448.10196,0.21317
3450.03043,0.21129
3451.95890,0.21229
3453.88737,0.21413
3455.81584,0.21418
3457.74431,0.21401
3459.67277,0.21365
3461.60124,0.20957
3463.52971,0.20248
3465.45818,0.19585
3467.38665,0.19149
3469.31512,0.19294
3471.24359,0.20133
3473.17206,0.20854
3475.10052,0.20612
3477.02899,0.20121
3478.95746,0.20393
3480.88593,0.20876
3482.81440,0.21021
3484.74287,0.21031
3486.67134,0.20724
3488.59980,0.20199
3490.52827,0.20039
3492.45674,0.20305
3494.38521,0.20811
3496.31368,0.21159
3498.24215,0.20791
3500.17062,0.20137
3502.09909,0.19916
3504.02755,0.19821
3505.95602,0.19603
3507.88449,0.19642
3509.81296,0.19801
3511.74143,0.19627
3513.66990,0.19325
3515.59837,0.19263
3517.52683,0.19308
3519.45530,0.19317
3521.38377,0.19230
3523.31224,0.19064
3525.24071,0.19013
3527.16918,0.18913
3529.09765,0.18580
3531.02611,0.18176
3532.95458,0.17991
3534.88305,0.18317
3536.81152,0.18939
3538.73999,0.19145
3540.66846,0.18740
3542.59693,0.18168
3544.52540,0.17880
3546.45386,0.18049
3548.38233,0.18161
3550.31080,0.17863
3552.23927,0.17617
3554.16774,0.17607
3556.09621,0.17349
3558.02468,0.16877
3559.95314,0.16753
3561.88161,0.16901
3563.81008,0.16958
3565.73855,0.16992
3567.66702,0.17037
3569.59549,0.17174
3571.52396,0.17416
3573.45243,0.17396
3575.38089,0.16931
3577.30936,0.16627
3579.23783,0.16721
3581.16630,0.16735
3583.09477,0.16747
3585.02324,0.16958
3586.95171,0.17156
3588.88017,0.17105
3590.80864,0.16870
3592.73711,0.16798
3594.66558,0.17058
3596.59405,0.17078
3598.52252,0.16543
3600.45099,0.16068
3602.37946,0.15861
3604.30792,0.15785
3606.23639,0.16090
3608.16486,0.16386
3610.09333,0.15950
3612.02180,0.15588
3613.95027,0.15845
3615.87874,0.16407
3617.80720,0.17108
3619.73567,0.17206
3621.66414,0.16459
3623.59261,0.15902
3625.52108,0.15844
3627.44955,0.16012
3629.37802,0.15863
3631.30649,0.15461
3633.23495,0.15112
3635.16342,0.14727
3637.09189,0.14547
3639.02036,0.14695
3640.94883,0.14876
3642.87730,0.15090
3644.80577,0.15533
3646.73423,0.15808
3648.66270,0.15773
3650.59117,0.15957
3652.51964,0.15708
3654.44811,0.15028
3656.37658,0.14335
3658.30505,0.14163
3660.23352,0.14430
3662.16198,0.14425
3664.09045,0.14076
3666.01892,0.14083
3667.94739,0.14760
3669.87586,0.15591
3671.80433,0.16086
3673.73280,0.16584
3675.66126,0.16377
3677.58973,0.15247
3679.51820,0.14749
3681.44667,0.14841
3683.37514,0.15038
3685.30361,0.15275
3687.23208,0.15746
3689.16055,0.16328
3691.08901,0.16103
3693.01748,0.15192
3694.94595,0.14667
3696.87442,0.14621
3698.80289,0.14481
3700.73136,0.14174
3702.65983,0.14141
3704.58829,0.14524
3706.51676,0.15040
3708.44523,0.15604
3710.37370,0.16102
3712.30217,0.15716
3714.23064,0.14800
3716.15911,0.14449
3718.08757,0.14527
3720.01604,0.14645
3721.94451,0.14744
3723.87298,0.14557
3725.80145,0.14182
3727.72992,0.14327
3729.65839,0.14818
3731.58686,0.15124
3733.51532,0.15082
3735.44379,0.14823
3737.37226,0.14500
3739.30073,0.14243
3741.22920,0.14271
3743.15767,0.14480
3745.08614,0.14378
3747.01460,0.14231
3748.94307,0.14620
3750.87154,0.15180
3752.80001,0.14618
3754.72848,0.13833
3756.65695,0.13922
3758.58542,0.14330
3760.51389,0.14113
3762.44235,0.13793
3764.37082,0.13871
3766.29929,0.14016
3768.22776,0.13866
3770.15623,0.13340
3772.08470,0.12899
3774.01317,0.13016
3775.94163,0.13376
3777.87010,0.13560
3779.79857,0.13392
3781.72704,0.13103
3783.65551,0.13117
3785.58398,0.13345
3787.51245,0.13337
3789.44092,0.13161
3791.36938,0.13307
3793.29785,0.13770
3795.22632,0.14142
3797.15479,0.14306
3799.08326,0.14425
3801.01173,0.14488
3802.94020,0.14367
3804.86866,0.14575
3806.79713,0.14997
3808.72560,0.14633
3810.65407,0.13814
3812.58254,0.13305
3814.51101,0.13156
3816.43948,0.13237
3818.36795,0.13620
3820.29641,0.14156
3822.22488,0.13860
3824.15335,0.13210
3826.08182,0.13191
3828.01029,0.13332
3829.93876,0.13073
3831.86723,0.12827
3833.79569,0.13187
3835.72416,0.13939
3837.65263,0.14847
3839.58110,0.15516
3841.50957,0.15191
3843.43804,0.14457
3845.36651,0.14031
3847.29498,0.13996
3849.22344,0.14229
3851.15191,0.14285
3853.08038,0.13571
3855.00885,0.12880
3856.93732,0.12670
3858.86579,0.12360
3860.79426,0.12328
3862.72272,0.13029
3864.65119,0.14038
3866.57966,0.14355
3868.50813,0.13991
3870.43660,0.13753
3872.36507,0.13827
3874.29354,0.13431
3876.22200,0.12752
3878.15047,0.12642
3880.07894,0.12978
3882.00741,0.13039
3883.93588,0.13181
3885.86435,0.13434
3887.79282,0.13273
3889.72129,0.13149
3891.64975,0.13264
3893.57822,0.13170
3895.50669,0.12970
3897.43516,0.13105
3899.36363,0.13278
3901.29210,0.13108
3903.22057,0.13006
3905.14903,0.12924
3907.07750,0.12880
3909.00597,0.13022
3910.93444,0.12977
3912.86291,0.12822
3914.79138,0.13077
3916.71985,0.13370
3918.64832,0.12937
3920.57678,0.12252
3922.50525,0.11930
3924.43372,0.11738
3926.36219,0.11662
3928.29066,0.12026
3930.21913,0.12729
3932.14760,0.13199
3934.07606,0.13000
3936.00453,0.12520
3937.93300,0.12129
3939.86147,0.12030
3941.78994,0.12100
3943.71841,0.11890
3945.64688,0.11736
3947.57535,0.11838
3949.50381,0.11732
3951.43228,0.11559
3953.36075,0.11710
3955.28922,0.11903
3957.21769,0.12033
3959.14616,0.12140
3961.07463,0.11958
3963.00309,0.11957
3964.93156,0.12150
3966.86003,0.11690
3968.78850,0.11108
3970.71697,0.11300
3972.64544,0.11838
3974.57391,0.11911
3976.50238,0.11551
3978.43084,0.11310
3980.35931,0.11407
3982.28778,0.11891
3984.21625,0.12368
3986.14472,0.12241
3988.07319,0.11606
3990.00166,0.10986
3991.93012,0.10967
3993.85859,0.11558
3995.78706,0.12063
3997.71553,0.12115
3999.64400,0.11863
4001.57247,0.11533
4003.50094,0.11221
4005.42941,0.10860
4007.35787,0.10822
4009.28634,0.11263
4011.21481,0.11468
4013.14328,0.11265
4015.07175,0.11017
4017.00022,0.10791
4018.92869,0.10484
4020.85715,0.10206
4022.78562,0.10331
4024.71409,0.10697
4026.64256,0.10901
4028.57103,0.11002
4030.49950,0.11082
4032.42797,0.11122
4034.35644,0.11056
4036.28490,0.10822
4038.21337,0.10602
4040.14184,0.10412
4042.07031,0.10228
4043.99878,0.10321
4045.92725,0.10545
4047.85572,0.10513
4049.78418,0.10320
4051.71265,0.10383
4053.64112,0.10662
4055.56959,0.10634
4057.49806,0.10258
4059.42653,0.09977
4061.35500,0.10097
4063.28346,0.10477
4065.21193,0.10752
4067.14040,0.10728
4069.06887,0.10284
4070.99734,0.09540
4072.92581,0.09173
4074.85428,0.09568
4076.78275,0.10026
4078.71121,0.10192
4080.63968,0.10537
4082.56815,0.10924
4084.49662,0.10912
4086.42509,0.10602
4088.35356,0.10065
4090.28203,0.09280
4092.21049,0.08549
4094.13896,0.08239
4096.06743,0.08361
4097.99590,0.08415
4099.92437,0.08569
4101.85284,0.09389
4103.78131,0.10023
4105.70978,0.09774
4107.63824,0.09602
4109.56671,0.10083
4111.49518,0.10474
4113.42365,0.10248
4115.35212,0.09889
4117.28059,0.09813
4119.20906,0.09741
4121.13752,0.09445
4123.06599,0.09021
4124.99446,0.08808
4126.92293,0.09112
4128.85140,0.09439
4130.77987,0.09127
4132.70834,0.08515
4134.63681,0.08327
4136.56527,0.08510
4138.49374,0.08675
4140.42221,0.09077
4142.35068,0.09734
4144.27915,0.09943
4146.20762,0.09543
4148.13609,0.09003
4150.06455,0.08488
4151.99302,0.08136
4153.92149,0.08109
4155.84996,0.08306
4157.77843,0.08750
4159.70690,0.09140
4161.63537,0.08984
4163.56384,0.08728
4165.49230,0.08875
4167.42077,0.08786
4169.34924,0.08199
4171.27771,0.08008
4173.20618,0.08338
4175.13465,0.08634
4177.06312,0.08747
4178.99158,0.08588
4180.92005,0.08266
4182.84852,0.07934
4184.77699,0.07610
4186.70546,0.07544
4188.63393,0.08004
4190.56240,0.08632
4192.49087,0.08708
4194.41933,0.08358
4196.34780,0.08067
4198.27627,0.07818
4200.20474,0.07519
4202.13321,0.07273
4204.06168,0.07433
4205.99015,0.07756
4207.91861,0.07619
4209.84708,0.07488
4211.77555,0.07810
4213.70402,0.07823
4215.63249,0.07278
4217.56096,0.06984
4219.48943,0.07110
4221.41789,0.07272
4223.34636,0.07435
4225.27483,0.07582
4227.20330,0.07456
4229.13177,0.07210
4231.06024,0.07391
4232.98871,0.07654
4234.91718,0.07459
4236.84564,0.07245
4238.77411,0.07283
4240.70258,0.07136
4242.63105,0.06696
4244.55952,0.06500
4246.48799,0.06605
4248.41646,0.06580
4250.34492,0.06407
4252.27339,0.06345
4254.20186,0.06673
4256.13033,0.06992
4258.05880,0.06773
4259.98727,0.06472
4261.91574,0.06396
4263.84421,0.06363
4265.77267,0.06419
4267.70114,0.06491
4269.62961,0.06379
4271.55808,0.06167
4273.48655,0.06046
4275.41502,0.06185
4277.34349,0.06408
4279.27195,0.06244
4281.20042,0.05946
4283.12889,0.06066
4285.05736,0.06487
4286.98583,0.06696
4288.91430,0.06458
4290.84277,0.06205
4292.77124,0.06198
4294.69970,0.06383
4296.62817,0.06671
4298.55664,0.06600
4300.48511,0.06110
4302.41358,0.05629
4304.34205,0.05299
4306.27052,0.05251
4308.19898,0.05575
4310.12745,0.05791
4312.05592,0.05603
4313.98439,0.05321
4315.91286,0.05314
4317.84133,0.05600
4319.76980,0.05705
4321.69827,0.05535
4323.62673,0.05197
4325.55520,0.04622
4327.48367,0.04333
4329.41214,0.04603
4331.34061,0.05003
4333.26908,0.05244
4335.19755,0.05316
4337.12601,0.04975
4339.05448,0.04212
4340.98295,0.04105
4342.91142,0.04968
4344.83989,0.05440
4346.76836,0.04941
4348.69683,0.04210
4350.62530,0.03739
4352.55376,0.03515
4354.48223,0.03562
4356.41070,0.03619
4358.33917,0.03468
4360.26764,0.03574
4362.19611,0.04004
4364.12458,0.04330
4366.05304,0.04308
4367.98151,0.04100
4369.90998,0.04083
4371.83845,0.04081
4373.76692,0.03989
4375.69539,0.03881
4377.62386,0.03771
4379.55232,0.03813
4381.48079,0.03631
4383.40926,0.03211
4385.33773,0.02898
4387.26620,0.02721
4389.19467,0.02960
4391.12314,0.03204
4393.05161,0.02828
4394.98007,0.02373
4396.90854,0.02411
4398.83701,0.02656
4400.76548,0.02888
4402.69395,0.03337
4404.62242,0.03755
4406.55089,0.03961
4408.47935,0.04045
4410.40782,0.03452
4412.33629,0.02277
4414.26476,0.01503
4416.19323,0.01483
4418.12170,0.02148
4420.05017,0.03040
4421.97864,0.03059
4423.90710,0.02154
4425.83557,0.01616
4427.76404,0.02019
4429.69251,0.02761
4431.62098,0.03284
4433.54945,0.03606
4435.47792,0.03683
4437.40638,0.03256
4439.33485,0.02671
4441.26332,0.02538
4443.19179,0.02643
4445.12026,0.02635
4447.04873,0.02613
4448.97720,0.02349
4450.90567,0.01896
4452.83413,0.01650
4454.76260,0.01293
4456.69107,0.00656
4458.61954,0.00516
4460.54801,0.01178
4462.47648,0.01802
4464.40495,0.02045
4466.33341,0.02107
4468.26188,0.02041
4470.19035,0.02002
4472.11882,0.01820
4474.04729,0.01456
4475.97576,0.01186
4477.90423,0.00748
4479.83270,0.00318
4481.76116,0.00640
4483.68963,0.01536
4485.61810,0.02248
4487.54657,0.02115
4489.47504,0.01346
4491.40351,0.01006
4493.33198,0.01428
4495.26044,0.02055
4497.18891,0.02025
4499.11738,0.01136
4501.04585,0.00275
4502.97432,0.00072
4504.90279,0.00498
4506.83126,0.01088
4508.75973,0.01665
4510.68819,0.02514
4512.61666,0.03477
4514.54513,0.03852
4516.47360,0.02951
4518.40207,0.01223
4520.33054,-0.00091
4522.25901,-0.00678
4524.18747,-0.00376
4526.11594,0.00791
4528.04441,0.01473
4529.97288,0.00879
4531.90135,-0.00203
4533.82982,-0.00855
4535.75829,-0.00870
4537.68676,-0.00627
4539.61522,-0.00436
4541.54369,-0.00308
4543.47216,-0.00514
4545.40063,-0.00856
4547.32910,-0.00548
4549.25757,0.00222
4551.18604,0.00909
4553.11450,0.01412
4555.04297,0.01455
4556.97144,0.01031
4558.89991,0.00596
4560.82838,0.00387
4562.75685,0.00327
4564.68532,0.00320
4566.61378,0.00211
4568.54225,0.00126
4570.47072,0.00437
4572.39919,0.00893
4574.32766,0.01083
4576.25613,0.01259
4578.18460,0.01411
4580.11307,0.00973
4582.04153,0.00199
4583.97000,-0.00059
4585.89847,0.00397
4587.82694,0.00977
4589.75541,0.01029
4591.68388,0.00617
4593.61235,0.00545
4595.54081,0.01292
4597.46928,0.01874
4599.39775,0.01323
4601.32622,0.00673
4603.25469,0.01068
4605.18316,0.01728
4607.11163,0.01345
4609.04010,0.00426
4610.96856,0.00445
4612.89703,0.01077
4614.82550,0.00912
4616.75397,-0.00158
4618.68244,-0.00874
4620.61091,-0.00026
4622.53938,0.01813
4624.46784,0.02584
4626.39631,0.01321
4628.32478,-0.00017
4630.25325,0.00142
4632.18172,0.00376
4634.11019,-0.00150
4636.03866,-0.00306
4637.96713,0.00042
4639.89559,-0.00176
4641.82406,-0.00874
4643.75253,-0.00889
4645.68100,-0.00322
4647.60947,-0.00081
4649.53794,-0.00411
4651.46641,-0.00988
4653.39487,-0.01066
4655.32334,-0.00101
4657.25181,0.01163
4659.18028,0.01444
4661.10875,0.00844
4663.03722,0.00166
4664.96569,0.00097
4666.89416,0.00677
4668.82262,0.01218
4670.75109,0.01138
4672.67956,0.00616
4674.60803,0.00094
4676.53650,-0.00366
4678.46497,-0.00664
4680.39344,-0.00596
4682.32190,-0.00648
4684.25037,-0.00612
4686.17884,0.00220
4688.10731,0.00876
4690.03578,0.00468
4691.96425,-0.00199
4693.89272,-0.00272
4695.82119,-0.00091
4697.74965,0.00224
4699.67812,0.01001
4701.60659,0.01748
4703.53506,0.01852
4705.46353,0.01356
4707.39200,0.00785
4709.32047,0.00315
4711.24893,-0.00079
4713.17740,0.00019
4715.10587,0.00341
4717.03434,0.00274
4718.96281,0.00070
4720.89128,0.00176
4722.81975,0.00443
4724.74821,0.00405
4726.67668,0.00205
4728.60515,0.00133
4730.53362,-0.00074
4732.46209,-0.00460
4734.39056,-0.00501
4736.31903,-0.00118
4738.24750,0.00194
4740.17596,0.00484
4742.10443,0.00963
4744.03290,0.01159
4745.96137,0.01260
4747.88984,0.01690
4749.81831,0.01601
4751.74678,0.01282
4753.67524,0.01634
4755.60371,0.01530
4757.53218,0.00681
4759.46065,0.00166
4761.38912,0.00283
4763.31759,0.00957
4765.24606,0.01535
4767.17453,0.01559
4769.10299,0.01372
4771.03146,0.01109
4772.95993,0.00855
4774.88840,0.00611
4776.81687,0.00381
4778.74534,0.00342
4780.67381,0.00270
4782.60227,0.00042
4784.53074,-0.00393
4786.45921,-0.00269
4788.38768,0.00300
4790.31615,0.00154
4792.24462,-0.00196
4794.17309,0.00270
4796.10156,0.00598
4798.03002,0.00208
4799.95849,-0.00041
4801.88696,0.00193
4803.81543,0.00727
4805.74390,0.01625
4807.67237,0.02022
4809.60084,0.00759
4811.52930,-0.01405
4813.45777,-0.02305
4815.38624,-0.01499
4817.31471,-0.00199
4819.24318,0.00367
4821.17165,0.00481
4823.10012,0.00904
4825.02859,0.01159
4826.95705,0.00599
4828.88552,0.00164
4830.81399,0.00571
4832.74246,0.01095
4834.67093,0.00835
4836.59940,0.00105
4838.52787,-0.00271
4840.45633,-0.00573
4842.38480,-0.00588
4844.31327,0.00409
4846.24174,0.01208
4848.17021,0.01005
4850.09868,0.01213
4852.02715,0.01850
4853.95562,0.01670
4855.88408,0.01024
4857.81255,0.00867
4859.74102,0.01331
4861.66949,0.01447
4863.59796,0.00946
4865.52643,0.00836
4867.45490,0.01018
4869.38336,0.00996
4871.31183,0.01119
4873.24030,0.01328
4875.16877,0.00618
4877.09724,-0.00729
4879.02571,-0.00940
4880.95418,-0.00422
4882.88265,-0.00069
4884.81111,0.00860
4886.73958,0.01374
4888.66805,0.00575
4890.59652,-0.00610
4892.52499,-0.01566
4894.45346,-0.01647
4896.38193,-0.00595
4898.31039,0.00853
4900.23886,0.01676
4902.16733,0.01542
4904.09580,0.01048
4906.02427,0.00792
4907.95274,0.00824
4909.88121,0.00656
4911.80967,0.00238
4913.73814,-0.00183
4915.66661,-0.00784
4917.59508,-0.01011
4919.52355,-0.00035
4921.45202,0.01874
4923.38049,0.03099
4925.30896,0.02398
4927.23742,0.00704
4929.16589,-0.00203
4931.09436,-0.00005
4933.02283,0.00366
4934.95130,0.00930
4936.87977,0.02029
4938.80824,0.02620
4940.73670,0.01972
4942.66517,0.00617
4944.59364,-0.00352
4946.52211,0.00007
4948.45058,0.00983
4950.37905,0.01049
4952.30752,0.00490
4954.23599,0.00144
4956.16445,-0.00012
4958.09292,0.00093
4960.02139,0.00099
4961.94986,-0.00071
4963.87833,0.00020
4965.80680,-0.00251
4967.73527,-0.00895
4969.66373,-0.00966
4971.59220,-0.00767
4973.52067,-0.00883
4975.44914,-0.00626
4977.37761,0.00123
4979.30608,0.00032
4981.23455,-0.00952
4983.16302,-0.01116
4985.09148,0.00084
4987.01995,0.01232
4988.94842,0.01286
4990.87689,0.01328
4992.80536,0.01937
4994.73383,0.01761
4996.66230,0.00536
4998.59076,-0.00528
5000.51923,-0.01086
5002.44770,-0.00980
5004.37617,0.00464
5006.30464,0.02029
5008.23311,0.02045
5010.16158,0.01870
5012.09005,0.02660
5014.01851,0.03033
5015.94698,0.02743
5017.87545,0.02578
5019.80392,0.02340
5021.73239,0.01545
5023.66086,0.00642
5025.58933,0.01105
5027.51779,0.02262
5029.44626,0.02660
5031.37473,0.03048
5033.30320,0.03637
5035.23167,0.03827
5037.16014,0.03323
5039.08861,0.02638
5041.01708,0.02584
5042.94554,0.02714
5044.87401,0.02548
5046.80248,0.02056
5048.73095,0.01339
5050.65942,0.00920
5052.58789,0.00964
5054.51636,0.01519
5056.44482,0.02580
5058.37329,0.03197
5060.30176,0.02870
5062.23023,0.02219
5064.15870,0.01674
5066.08717,0.01475
5068.01564,0.01270
5069.94410,0.00518
5071.87257,0.00116
5073.80104,0.01080
5075.72951,0.02632
5077.65798,0.03034
5079.58645,0.01929
5081.51492,0.00746
5083.44339,0.00419
5085.37185,0.01176
5087.30032,0.02991
5089.22879,0.05140
5091.15726,0.06809
5093.08573,0.06883
5095.01420,0.05325
5096.94267,0.03779
5098.87113,0.02983
5100.79960,0.02712
5102.72807,0.02606
5104.65654,0.02189
5106.58501,0.02375
5108.51348,0.03075
5110.44195,0.02249
5112.37042,0.00533
5114.29888,0.00024
5116.22735,0.00589
5118.15582,0.01174
5120.08429,0.01629
5122.01276,0.02194
5123.94123,0.02336
5125.86970,0.02025
5127.79816,0.02265
5129.72663,0.03214
5131.65510,0.03577
5133.58357,0.03059
5135.51204,0.03149
5137.44051,0.03648
5139.36898,0.02981
5141.29745,0.01575
5143.22591,0.00749
5145.15438,0.00994
5147.08285,0.01651
5149.01132,0.01252
5150.93979,0.00514
5152.86826,0.01763
5154.79673,0.04406
5156.72519,0.05303
5158.65366,0.04136
5160.58213,0.03850
5162.51060,0.04599
5164.43907,0.04191
5166.36754,0.02660
5168.29601,0.01786
5170.22448,0.02581
5172.15294,0.03841
5174.08141,0.03732
5176.00988,0.02965
5177.93835,0.02766
5179.86682,0.02361
5181.79529,0.01592
5183.72376,0.01577
5185.65222,0.02220
5187.58069,0.02173
5189.50916,0.01645
5191.43763,0.02528
5193.36610,0.04889
5195.29457,0.06505
5197.22304,0.05620
5199.15151,0.03554
5201.07997,0.02995
5203.00844,0.03609
5204.93691,0.04227
5206.86538,0.04234
5208.79385,0.03023
5210.72232,0.02654
5212.65079,0.04311
5214.57925,0.05467
5216.50772,0.04851
5218.43619,0.03873
5220.36466,0.03598
5222.29313,0.04487
5224.22160,0.05461
5226.15007,0.04459
5228.07854,0.03029
5230.00700,0.03531
5231.93547,0.04739
5233.86394,0.05367
5235.79241,0.05317
5237.72088,0.04729
5239.64935,0.04453
5241.57782,0.04476
5243.50628,0.04148
5245.43475,0.04219
5247.36322,0.05012
5249.29169,0.05004
5251.22016,0.04599
5253.14863,0.05737
5255.07710,0.06813
5257.00556,0.06033
5258.93403,0.06058
5260.86250,0.07785
5262.79097,0.08812
5264.71944,0.08638
5266.64791,0.07640
5268.57638,0.06441
5270.50485,0.06244
5272.43331,0.06116
5274.36178,0.04885
5276.29025,0.03597
5278.21872,0.03510
5280.14719,0.04181
5282.07566,0.05143
5284.00413,0.06265
5285.93259,0.06067
5287.86106,0.04756
5289.78953,0.04410
5291.71800,0.04892
5293.64647,0.05022
5295.57494,0.05066
5297.50341,0.05192
5299.43188,0.05115
5301.36034,0.04281
5303.28881,0.02806
5305.21728,0.02571
5307.14575,0.03985
5309.07422,0.04766
5311.00269,0.04038
5312.93116,0.03868
5314.85962,0.05567
5316.78809,0.06571
5318.71656,0.05307
5320.64503,0.04158
5322.57350,0.03880
5324.50197,0.04349
5326.43044,0.05527
5328.35891,0.05552
5330.28737,0.05350
5332.21584,0.06898
5334.14431,0.07928
5336.07278,0.07208
5338.00125,0.06784
5339.92972,0.06915
5341.85819,0.07349
5343.78665,0.08022
5345.71512,0.07150
5347.64359,0.05660
5349.57206,0.05075
5351.50053,0.04676
5353.42900,0.03906
5355.35747,0.02805
5357.28594,0.02093
5359.21440,0.01516
5361.14287,0.01005
5363.07134,0.02216
5364.99981,0.04787
5366.92828,0.05996
5368.85675,0.05263
5370.78522,0.04503
5372.71368,0.05040
5374.64215,0.05882
5376.57062,0.06245
5378.49909,0.06821
5380.42756,0.08146
5382.35603,0.09815
5384.28450,0.09624
5386.21297,0.06779
5388.14143,0.04155
5390.06990,0.03262
5391.99837,0.03710
5393.92684,0.04441
5395.85531,0.04472
5397.78378,0.04837
5399.71225,0.06347
5401.64071,0.07852
5403.56918,0.08029
5405.49765,0.06885
5407.42612,0.06674
5409.35459,0.09113
5411.28306,0.11044
5413.21153,0.09249
5415.13999,0.06721
5417.06846,0.06768
5418.99693,0.08173
5420.92540,0.08521
5422.85387,0.07049
5424.78234,0.05661
5426.71081,0.06701
5428.63928,0.08357
5430.56774,0.07939
5432.49621,0.08029
5434.42468,0.09993
5436.35315,0.10907
5438.28162,0.09928
5440.21009,0.09048
5442.13856,0.08601
5444.06702,0.08267
5445.99549,0.08791
5447.92396,0.09281
5449.85243,0.08919
5451.78090,0.09011
5453.70937,0.09238
5455.63784,0.09120
5457.56631,0.09302
5459.49477,0.08846
5461.42324,0.07303
5463.35171,0.05746
5465.28018,0.05510
5467.20865,0.07635
5469.13712,0.10057
5471.06559,0.09061
5472.99405,0.06431
5474.92252,0.06439
5476.85099,0.08514
5478.77946,0.09363
5480.70793,0.08759
5482.63640,0.08217
5484.56487,0.07946
5486.49334,0.06967
5488.42180,0.05743
5490.35027,0.05659
5492.27874,0.06740
5494.20721,0.07021
5496.13568,0.06819
5498.06415,0.07706
5499.99262,0.08517
5501.92108,0.07913
5503.84955,0.06567
5505.77802,0.06160
5507.70649,0.07874
5509.63496,0.10140
5511.56343,0.09961
5513.49190,0.07394
5515.42037,0.06427
5517.34883,0.08463
5519.27730,0.09644
5521.20577,0.08351
5523.13424,0.06918
5525.06271,0.06184
5526.99118,0.05000
5528.91965,0.03235
5530.84811,0.03038
5532.77658,0.04443
5534.70505,0.04937
5536.63352,0.05229
5538.56199,0.06561
5540.49046,0.07185
5542.41893,0.06824
5544.34740,0.07197
5546.27586,0.07792
5548.20433,0.08412
5550.13280,0.10238
5552.06127,0.11445
5553.98974,0.10028
5555.91821,0.08792
5557.84668,0.09924
5559.77514,0.09927
5561.70361,0.07486
5563.63208,0.05355
5565.56055,0.05077
5567.48902,0.06607
5569.41749,0.08162
5571.34596,0.08515
5573.27443,0.08349
5575.20289,0.08025
5577.13136,0.07582
5579.05983,0.07519
5580.98830,0.08178
5582.91677,0.09001
5584.84524,0.09308
5586.77371,0.09596
5588.70217,0.09993
5590.63064,0.09492
5592.55911,0.07848
5594.48758,0.06003
5596.41605,0.05256
5598.34452,0.04268
5600.27299,0.02825
5602.20145,0.04802
5604.12992,0.08307
5606.05839,0.09053
5607.98686,0.09320
5609.91533,0.11360
5611.84380,0.12990
5613.77227,0.13342
5615.70074,0.14560
5617.62920,0.14922
5619.55767,0.11492
5621.48614,0.08073
5623.41461,0.08008
5625.34308,0.09376
5627.27155,0.10375
5629.20002,0.09778
5631.12848,0.07801
5633.05695,0.06112
5634.98542,0.05802
5636.91389,0.06397
5638.84236,0.06700
5640.77083,0.07198
5642.69930,0.07872
5644.62777,0.07587
5646.55623,0.05562
5648.48470,0.02302
5650.41317,0.01110
5652.34164,0.03788
5654.27011,0.07369
5656.19858,0.09637
5658.12705,0.10458
5660.05551,0.08851
5661.98398,0.05980
5663.91245,0.05063
5665.84092,0.05780
5667.76939,0.05819
5669.69786,0.06050
5671.62633,0.07918
5673.55480,0.09382
5675.48326,0.08975
5677.41173,0.08573
5679.34020,0.10015
5681.26867,0.11836
5683.19714,0.11190
5685.12561,0.08829
5687.05408,0.08126
5688.98254,0.09041
5690.91101,0.10154
5692.83948,0.12026
5694.76795,0.12432
5696.69642,0.09963
5698.62489,0.06893
5700.55336,0.04411
5702.48183,0.03653
5704.41029,0.04378
5706.33876,0.04498
5708.26723,0.03846
5710.19570,0.03463
5712.12417,0.04276
5714.05264,0.05945
5715.98111,0.06405
5717.90957,0.05937
5719.83804,0.06962
5721.76651,0.08340
5723.69498,0.07972
5725.62345,0.07665
5727.55192,0.09166
5729.48039,0.11503
5731.40886,0.12733
5733.33732,0.12017
5735.26579,0.11909
5737.19426,0.13311
5739.12273,0.11842
5741.05120,0.07595
5742.97967,0.05574
5744.90814,0.06783
5746.83660,0.09410
5748.76507,0.13284
5750.69354,0.16258
5752.62201,0.13846
5754.55048,0.08200
5756.47895,0.06116
5758.40742,0.07786
5760.33588,0.09573
5762.26435,0.10928
5764.19282,0.09980
5766.12129,0.07340
5768.04976,0.06758
5769.97823,0.07185
5771.90670,0.08353
5773.83517,0.10028
5775.76363,0.09268
5777.69210,0.07371
5779.62057,0.07151
5781.54904,0.07139
5783.47751,0.06624
5785.40598,0.06196
5787.33445,0.05012
5789.26291,0.03635
5791.19138,0.03563
5793.11985,0.05701
5795.04832,0.08136
5796.97679,0.08066
5798.90526,0.07675
5800.83373,0.09602
5802.76220,0.10926
5804.69066,0.09775
5806.61913,0.10461
5808.54760,0.13108
5810.47607,0.13628
5812.40454,0.12672
5814.33301,0.11408
5816.26148,0.08720
5818.18994,0.06854
5820.11841,0.08007
5822.04688,0.09152
5823.97535,0.08789
5825.90382,0.09632
5827.83229,0.11350
5829.76076,0.09798
5831.68923,0.06334
5833.61769,0.04828
5835.54616,0.04342
5837.47463,0.04877
5839.40310,0.07236
5841.33157,0.09604
5843.26004,0.10185
5845.18851,0.09087
5847.11697,0.07775
5849.04544,0.07598
5850.97391,0.08050
5852.90238,0.07254
5854.83085,0.05747
5856.75932,0.04900
5858.68779,0.04191
5860.61626,0.03660
5862.54472,0.04136
5864.47319,0.04567
5866.40166,0.04423
5868.33013,0.04788
5870.25860,0.05150
5872.18707,0.05484
5874.11554,0.07689
5876.04400,0.09549
5877.97247,0.05657
5879.90094,0.01083
5881.82941,0.03611
5883.75788,0.08299
5885.68635,0.09037
5887.61482,0.06681
5889.54329,0.05388
5891.47175,0.07221
5893.40022,0.09239
5895.32869,0.08767
5897.25716,0.06516
5899.18563,0.05583
5901.11410,0.06823
5903.04257,0.06671
5904.97103,0.05413
5906.89950,0.07290
5908.82797,0.09610
5910.75644,0.08749
5912.68491,0.08346
5914.61338,0.09563
5916.54185,0.10525
5918.47032,0.12103
5920.39878,0.13788
5922.32725,0.12807
5924.25572,0.10704
5926.18419,0.09870
5928.11266,0.08427
5930.04113,0.07223
5931.96960,0.06969
5933.89806,0.06413
5935.82653,0.07639
5937.75500,0.09483
5939.68347,0.09729
5941.61194,0.10161
5943.54041,0.11656
5945.46888,0.13289
5947.39734,0.13134
5949.32581,0.10527
5951.25428,0.09075
5953.18275,0.10971
5955.11122,0.14052
5957.03969,0.15418
5958.96816,0.12694
5960.89663,0.09146
5962.82509,0.09966
5964.75356,0.11701
5966.68203,0.10333
5968.61050,0.08495
5970.53897,0.08343
5972.46744,0.08239
5974.39591,0.07686
5976.32437,0.07441
5978.25284,0.07880
5980.18131,0.08698
5982.10978,0.08873
5984.03825,0.07318
5985.96672,0.03789
5987.89519,0.01708
5989.82366,0.03392
5991.75212,0.05532
5993.68059,0.07116
5995.60906,0.09999
5997.53753,0.11171
5999.46600,0.08140
6001.39447,0.04719
6003.32294,0.04038
6005.25140,0.05922
6007.17987,0.08709
6009.10834,0.08688
6011.03681,0.07378
6012.96528,0.08578
6014.89375,0.08439
6016.82222,0.06693
6018.75069,0.07908
6020.67915,0.08848
6022.60762,0.07433
6024.53609,0.07574
6026.46456,0.09008
6028.39303,0.08197
6030.32150,0.07202
6032.24997,0.09903
6034.17843,0.14127
6036.10690,0.15939
6038.03537,0.12929
6039.96384,0.08144
6041.89231,0.06401
6043.82078,0.08434
6045.74925,0.12304
6047.67772,0.13872
6049.60618,0.12082
6051.53465,0.09989
6053.46312,0.08007
6055.39159,0.07413
6057.32006,0.08319
6059.24853,0.08626
6061.17700,0.09791
6063.10546,0.08995
6065.03393,0.05535
6066.96240,0.04939
6068.89087,0.05593
6070.81934,0.06382
6072.74781,0.08839
6074.67628,0.09668
6076.60475,0.08403
6078.53321,0.09480
6080.46168,0.12515
6082.39015,0.11702
6084.31862,0.06692
6086.24709,0.04192
6088.17556,0.06277
6090.10403,0.09648
6092.03249,0.13879
6093.96096,0.15689
6095.88943,0.11297
6097.81790,0.06163
6099.74637,0.05125
6101.67484,0.06428
6103.60331,0.08349
6105.53177,0.09653
6107.46024,0.08737
6109.38871,0.05875
6111.31718,0.01830
6113.24565,-0.00834
6115.17412,0.01791
6117.10259,0.06275
6119.03106,0.07434
6120.95952,0.08702
6122.88799,0.11870
6124.81646,0.12396
6126.74493,0.09000
6128.67340,0.06046
6130.60187,0.05976
6132.53034,0.07930
6134.45880,0.11259
6136.38727,0.13674
6138.31574,0.12646
6140.24421,0.07538
6142.17268,0.02082
6144.10115,0.02226
6146.02962,0.05768
6147.95809,0.08461
6149.88655,0.11207
6151.81502,0.13153
6153.74349,0.12180
6155.67196,0.10646
6157.60043,0.10655
6159.52890,0.11403
6161.45737,0.11774
6163.38583,0.11237
6165.31430,0.12197
6167.24277,0.15463
6169.17124,0.17039
6171.09971,0.16167
6173.02818,0.16165
6174.95665,0.16231
6176.88512,0.13133
6178.81358,0.08585
6180.74205,0.04580
6182.67052,0.02782
6184.59899,0.05667
6186.52746,0.09431
6188.45593,0.09234
6190.38440,0.06540
6192.31286,0.03023
6194.24133,-0.01414
6196.16980,-0.03510
6198.09827,-0.01634
6200.02674,0.00560
6201.95521,0.01983
6203.88368,0.02016
6205.81215,0.01283
6207.74061,0.02795
6209.66908,0.06177
6211.59755,0.09748
6213.52602,0.10650
6215.45449,0.09148
6217.38296,0.09028
6219.31143,0.09315
6221.23989,0.07367
6223.16836,0.07808
6225.09683,0.13255
6227.02530,0.14704
6228.95377,0.10996
6230.88224,0.10728
6232.81071,0.14569
6234.73918,0.16071
6236.66764,0.13863
6238.59611,0.11129
6240.52458,0.08611
6242.45305,0.06601
6244.38152,0.06399
6246.30999,0.09531
6248.23846,0.15586
6250.16692,0.17465
6252.09539,0.12626
6254.02386,0.10371
6255.95233,0.14415
6257.88080,0.18178
6259.80927,0.18124
6261.73774,0.17356
6263.66621,0.16280
6265.59467,0.13531
6267.52314,0.10590
6269.45161,0.09056
6271.38008,0.09339
6273.30855,0.10269
6275.23702,0.12155
6277.16549,0.16220
6279.09395,0.18211
6281.02242,0.16263
6282.95089,0.12193
6284.87936,0.07881
6286.80783,0.05985
6288.73630,0.03590
6290.66477,-0.01096
6292.59323,-0.00400
6294.52170,0.06543
6296.45017,0.11757
6298.37864,0.14413
6300.30711,0.15628
6302.23558,0.12879
6304.16405,0.10570
6306.09252,0.13375
6308.02098,0.14800
6309.94945,0.09764
6311.87792,0.05269
6313.80639,0.07505
6315.73486,0.13328
6317.66333,0.15702
6319.59180,0.11459
6321.52026,0.06595
6323.44873,0.07003
6325.37720,0.10280
6327.30567,0.13382
6329.23414,0.15689
6331.16261,0.13982
6333.09108,0.06231
6335.01955,-0.00556
6336.94801,0.00757
6338.87648,0.06346
6340.80495,0.09867
6342.73342,0.10984
6344.66189,0.10879
6346.59036,0.11428
6348.51883,0.12277
6350.44729,0.11671
6352.37576,0.11241
6354.30423,0.08949
6356.23270,0.05056
6358.16117,0.04511
6360.08964,0.09016
6362.01811,0.15847
6363.94658,0.18658
6365.87504,0.15750
6367.80351,0.11294
6369.73198,0.05629
6371.66045,0.03887
6373.58892,0.09515
6375.51739,0.12150
6377.44586,0.08332
6379.37432,0.02588
6381.30279,-0.00885
6383.23126,0.02322
6385.15973,0.07455
6387.08820,0.07226
6389.01667,0.04498
6390.94514,0.03872
6392.87361,0.05635
6394.80207,0.07175
6396.73054,0.07289
6398.65901,0.06643
6400.58748,0.06599
6402.51595,0.07906
6404.44442,0.09879
6406.37289,0.12169
6408.30135,0.12669
6410.22982,0.09207
6412.15829,0.05992
6414.08676,0.05431
6416.01523,0.05862
6417.94370,0.07343
6419.87217,0.04109
6421.80064,-0.02669
6423.72910,-0.02676
6425.65757,0.03002
6427.58604,0.06756
6429.51451,0.07671
6431.44298,0.06230
6433.37145,0.01405
6435.29992,-0.04073
6437.22838,-0.04106
6439.15685,0.02531
6441.08532,0.08207
6443.01379,0.07153
6444.94226,0.02498
6446.87073,0.00252
6448.79920,0.01903
6450.72766,0.04927
6452.65613,0.04818
6454.58460,0.02673
6456.51307,0.02130
6458.44154,0.04003
6460.37001,0.05763
6462.29848,0.06967
6464.22695,0.11305
6466.15541,0.18174
6468.08388,0.23871
6470.01235,0.25187
6471.94082,0.19829
6473.86929,0.14967
6475.79776,0.17767
6477.72623,0.20864
6479.65469,0.16987
6481.58316,0.09929
6483.51163,0.05507
6485.44010,0.03754
6487.36857,0.00160
6489.29704,-0.01620
6491.22551,0.01919
6493.15398,0.04525
6495.08244,0.04373
6497.01091,0.03719
6498.93938,0.06192
6500.86785,0.10852
6502.79632,0.08681
6504.72479,0.00968
6506.65326,-0.04414
6508.58172,-0.04979
6510.51019,-0.05024
6512.43866,-0.07054
6514.36713,-0.04516
6516.29560,0.03085
6518.22407,0.05655
6520.15254,0.02969
6522.08101,0.04172
6524.00947,0.08276
6525.93794,0.09995
6527.86641,0.14383
6529.79488,0.18770
6531.72335,0.12307
6533.65182,0.00139
6535.58029,-0.05214
6537.50875,-0.04277
6539.43722,-0.03456
6541.36569,-0.01629
6543.29416,0.03189
6545.22263,0.07030
6547.15110,0.08802
6549.07957,0.09670
6551.00804,0.09610
6552.93650,0.09228
6554.86497,0.08730
6556.79344,0.08158
6558.72191,0.06500
6560.65038,0.05442
6562.57885,0.08712
6564.50732,0.11301
6566.43578,0.07838
6568.36425,0.04351
6570.29272,0.03565
6572.22119,0.04277
6574.14966,0.06504
6576.07813,0.05207
6578.00660,-0.02433
6579.93507,-0.07875
6581.86353,-0.06228
6583.79200,-0.03959
6585.72047,-0.03014
6587.64894,-0.00831
6589.57741,0.01946
6591.50588,0.04517
6593.43435,0.05873
6595.36281,0.04747
6597.29128,0.02872
6599.21975,0.02095
6601.14822,0.01043
6603.07669,0.00564
6605.00516,0.01288
6606.93363,-0.00772
6608.86210,-0.04467
6610.79056,-0.06056
6612.71903,-0.07406
6614.64750,-0.05771
6616.57597,0.03257
6618.50444,0.10818
6620.43291,0.10761
6622.36138,0.08566
6624.28984,0.06904
6626.21831,0.05900
6628.14678,0.06028
6630.07525,0.05117
6632.00372,0.02392
6633.93219,0.02317
6635.86066,0.09192
6637.78912,0.15524
6639.71759,0.12609
6641.64606,0.05499
6643.57453,-0.00044
6645.50300,0.00840
6647.43147,0.10113
6649.35994,0.17357
6651.28841,0.15445
6653.21687,0.10906
6655.14534,0.10973
6657.07381,0.12061
6659.00228,0.09933
6660.93075,0.06457
6662.85922,0.02441
6664.78769,0.01630
6666.71615,0.08886
6668.64462,0.18330
6670.57309,0.17234
6672.50156,0.10590
6674.43003,0.12412
6676.35850,0.16166
6678.28697,0.12926
6680.21544,0.07558
6682.14390,0.03395
6684.07237,-0.00323
6686.00084,-0.02556
6687.92931,-0.02608
6689.85778,-0.00985
6691.78625,-0.03372
6693.71472,-0.06925
6695.64318,-0.03469
6697.57165,0.03392
6699.50012,0.07839
6701.42859,0.11673
6703.35706,0.14953
6705.28553,0.12003
6707.21400,0.01810
6709.14247,-0.04036
6711.07093,-0.01057
6712.99940,0.05317
6714.92787,0.08372
6716.85634,0.04951
6718.78481,0.03885
6720.71328,0.08861
6722.64175,0.10559
6724.57021,0.05493
6726.49868,-0.00460
6728.42715,0.01956
6730.35562,0.11968
6732.28409,0.15237
6734.21256,0.08290
6736.14103,0.01185
6738.06950,0.01054
6739.99796,0.03951
6741.92643,0.05894
6743.85490,0.10545
6745.78337,0.14822
6747.71184,0.12296
6749.64031,0.07469
6751.56878,0.04366
6753.49724,0.00873
6755.42571,-0.00380
6757.35418,0.01003
6759.28265,0.02424
6761.21112,0.04255
6763.13959,0.09141
6765.06806,0.14592
6766.99653,0.13903
6768.92499,0.08369
6770.85346,0.03639
6772.78193,0.03874
6774.71040,0.09829
6776.63887,0.12967
6778.56734,0.07089
6780.49581,-0.00143
6782.42427,-0.00696
6784.35274,0.05598
6786.28121,0.12399
6788.20968,0.13994
6790.13815,0.10029
6792.06662,0.02665
6793.99509,-0.01467
6795.92355,-0.00114
6797.85202,0.02802
6799.78049,0.06486
6801.70896,0.08565
6803.63743,0.07974
6805.56590,0.07175
6807.49437,0.04234
6809.42284,-0.02286
6811.35130,-0.06548
6813.27977,-0.00882
6815.20824,0.09036
6817.13671,0.13003
6819.06518,0.10920
6820.99365,0.09520
6822.92212,0.11403
6824.85058,0.12321
6826.77905,0.11001
6828.70752,0.09754
6830.63599,0.08635
6832.56446,0.07766
6834.49293,0.09942
6836.42140,0.13367
6838.34987,0.11075
6840.27833,0.04547
6842.20680,0.00446
6844.13527,0.04070
6846.06374,0.12834
6847.99221,0.14525
6849.92068,0.07487
6851.84915,0.04747
6853.77761,0.08385
6855.70608,0.14101
6857.63455,0.13747
6859.56302,0.07717
6861.49149,0.05363
6863.41996,0.02505
6865.34843,-0.06332
6867.27690,-0.07987
6869.20536,0.00157
6871.13383,0.07045
6873.06230,0.11108
6874.99077,0.11847
6876.91924,0.08838
6878.84771,0.04754
6880.77618,0.02413
6882.70464,0.05586
6884.63311,0.13456
6886.56158,0.17799
6888.49005,0.12742
6890.41852,0.03996
6892.34699,-0.00175
6894.27546,-0.01807
6896.20393,-0.04441
6898.13239,-0.05335
6900.06086,-0.04811
6901.98933,-0.04408
6903.91780,-0.01416
6905.84627,0.03551
6907.77474,0.07028
6909.70321,0.10390
6911.63167,0.14035
6913.56014,0.13663
6915.48861,0.08817
6917.41708,0.06001
6919.34555,0.04778
6921.27402,-0.00430
6923.20249,-0.04331
6925.13096,-0.01143
6927.05942,0.06242
6928.98789,0.12086
6930.91636,0.09701
6932.84483,0.00874
6934.77330,0.00237
6936.70177,0.08713
6938.63024,0.15214
6940.55870,0.12249
6942.48717,0.04056
6944.41564,-0.01843
6946.34411,-0.06434
6948.27258,-0.08914
6950.20105,-0.04232
6952.12952,0.02268
6954.05799,0.02482
6955.98645,-0.00552
6957.91492,-0.03703
6959.84339,-0.06087
6961.77186,0.00173
6963.70033,0.10597
6965.62880,0.11325
6967.55727,0.01155
6969.48573,-0.08144
6971.41420,-0.08666
6973.34267,-0.09267
6975.27114,-0.12602
6977.19961,-0.02982
6979.12808,0.15564
6981.05655,0.22967
6982.98501,0.16940
6984.91348,0.12297
6986.84195,0.11568
6988.77042,0.06485
6990.69889,-0.00481
6992.62736,-0.04555
6994.55583,-0.07139
6996.48430,-0.05375
6998.41276,0.00919
7000.34123,0.02620
7002.26970,0.02749
7004.19817,0.06256
7006.12664,0.10895
7008.05511,0.16950
7009.98358,0.19035
7011.91204,0.11720
7013.84051,0.02684
7015.76898,0.02972
7017.69745,0.07149
7019.62592,0.09791
7021.55439,0.09751
7023.48286,0.03844
7025.41133,-0.01847
7027.33979,-0.01289
7029.26826,0.01116
7031.19673,0.01113
7033.12520,-0.03948
7035.05367,-0.09293
7036.98214,-0.04706
7038.91061,0.07226
7040.83907,0.17693
7042.76754,0.15040
7044.69601,0.04525
7046.62448,0.02143
7048.55295,0.02831
7050.48142,0.01298
7052.40989,-0.02585
7054.33836,-0.04510
7056.26682,0.00909
7058.19529,0.05353
7060.12376,0.02990
7062.05223,-0.03567
7063.98070,-0.07718
7065.90917,-0.00382
7067.83764,0.12572
7069.76610,0.17545
7071.69457,0.09107
7073.62304,0.01199
7075.55151,0.04067
7077.47998,0.14115
7079.40845,0.24999
7081.33692,0.25464
7083.26539,0.11340
7085.19385,-0.03280
7087.12232,-0.11101
7089.05079,-0.11524
7090.97926,-0.05056
7092.90773,0.06021
7094.83620,0.15207
7096.76467,0.16498
7098.69313,0.07096
7100.62160,-0.03923
7102.55007,-0.04117
7104.47854,0.03698
7106.40701,0.08282
7108.33548,0.12722
7110.26395,0.19970
7112.19242,0.17847
7114.12088,0.06741
7116.04935,-0.01061
7117.97782,-0.06416
7119.90629,-0.05368
7121.83476,0.09043
7123.76323,0.21259
7125.69170,0.16824
7127.62016,0.01436
7129.54863,-0.04840
7131.47710,0.04842
7133.40557,0.17503
7135.33404,0.19203
7137.26251,0.10278
7139.19098,0.07931
7141.11944,0.19962
7143.04791,0.32815
7144.97638,0.35705
7146.90485,0.24147
7148.83332,0.13623
7150.76179,0.18189
7152.69026,0.25623
7154.61873,0.20665
7156.54719,0.14725
7158.47566,0.18221
7160.40413,0.24101
7162.33260,0.22286
7164.26107,0.08866
7166.18954,-0.11835
7168.11801,-0.26830
7170.04647,-0.23920
7171.97494,-0.06186
7173.90341,0.09520
7175.83188,0.16093
7177.76035,0.14062
7179.68882,0.13142
7181.61729,0.16115
7183.54576,0.11894
7185.47422,0.04213
7187.40269,0.06001
7189.33116,0.15558
7191.25963,0.19330
7193.18810,0.11618
7195.11657,0.03874
7197.04504,0.03442
7198.97350,0.12823
7200.90197,0.25026
7202.83044,0.34267
7204.75891,0.39745
7206.68738,0.35743
7208.61585,0.23491
7210.54432,0.10997
7212.47279,0.04637
7214.40125,-0.00372
7216.32972,-0.08256
7218.25819,-0.04528
7220.18666,0.09105
7222.11513,0.13593
7224.04360,0.11650
7225.97207,0.11356
7227.90053,0.07321
7229.82900,-0.03214
7231.75747,-0.04208
7233.68594,0.06026
7235.61441,0.15093
7237.54288,0.17729
7239.47135,0.11398
7241.39982,0.03330
7243.32828,-0.00502
7245.25675,0.02351
7247.18522,0.09124
7249.11369,0.14657
7251.04216,0.19156
7252.97063,0.20856
7254.89910,0.13413
7256.82756,0.01400
7258.75603,-0.13706
7260.68450,-0.29076
7262.61297,-0.30084
7264.54144,-0.13484
7266.46991,-0.03201
7268.39838,-0.07699
7270.32685,-0.14429
7272.25531,-0.22302
7274.18378,-0.26886
7276.11225,-0.20133
7278.04072,-0.06322
7279.96919,0.16036
7281.89766,0.26426
7283.82613,0.17684
7285.75459,0.10763
7287.68306,0.04484
7289.61153,-0.05847
7291.54000,-0.12110
7293.46847,-0.11213
7295.39694,-0.08984
7297.32541,-0.06310
7299.25387,-0.04997
7301.18234,-0.06642
7303.11081,-0.00532
7305.03928,0.19304
7306.96775,0.35521
7308.89622,0.28632
7310.82469,0.08851
7312.75316,-0.02610
7314.68162,-0.00276
7316.61009,0.14243
7318.53856,0.23971
7320.46703,0.23334
7322.39550,0.21603
7324.32397,0.17987
7326.25244,0.07530
7328.18090,-0.01955
7330.10937,-0.02279
7332.03784,-0.00972
7333.96631,-0.00302
7335.89478,0.03358
7337.82325,0.14516
7339.75172,0.30644
7341.68019,0.27167
7343.60865,0.14454
7345.53712,0.09897
7347.46559,0.03012
7349.39406,-0.10219
7351.32253,-0.08587
7353.25100,0.05533
7355.17947,0.05559
7357.10793,-0.10789
7359.03640,-0.15640
7360.96487,-0.05885
7362.89334,-0.05372
7364.82181,-0.01807
7366.75028,0.13280
7368.67875,0.18550
7370.60722,0.15005
7372.53568,0.18739
7374.46415,0.27376
7376.39262,0.34135
7378.32109,0.30789
7380.24956,0.16165
7382.17803,0.04364
7384.10650,0.00855
7386.03496,-0.05991
7387.96343,-0.07440
7389.89190,0.09103
7391.82037,0.27564
7393.74884,0.32416
7395.67731,0.26248
7397.60578,0.21316
7399.53425,0.24034
7401.46271,0.27515
7403.39118,0.21562
7405.31965,0.07052
7407.24812,-0.00833
7409.17659,-0.01608
7411.10506,-0.02569
7413.03353,0.01319
7414.96199,0.11332
7416.89046,0.17915
7418.81893,0.17759
7420.74740,0.13541
7422.67587,0.01218
7424.60434,-0.08049
7426.53281,-0.04936
7428.46128,0.02123
7430.38974,0.06439
7432.31821,0.12734
7434.24668,0.18296
7436.17515,0.14008
7438.10362,-0.01270
7440.03209,-0.20696
7441.96056,-0.27962
7443.88902,-0.16462
7445.81749,-0.01863
7447.74596,0.08116
7449.67443,0.22194
7451.60290,0.36768
7453.53137,0.35755
7455.45984,0.30499
7457.38831,0.27551
7459.31677,0.12844
7461.24524,-0.08529
7463.17371,-0.16125
7465.10218,-0.16530
7467.03065,-0.08881
7468.95912,0.04507
7470.88759,0.05242
7472.81605,-0.01238
7474.74452,0.02243
7476.67299,0.05679
7478.60146,0.01186
7480.52993,-0.06560
7482.45840,-0.05693
7484.38687,0.11822
7486.31533,0.25729
7488.24380,0.16880
7490.17227,0.04533
7492.10074,0.11717
7494.02921,0.25740
7495.95768,0.25155
7497.88615,0.02654
