399.19301,0.06133
401.12148,-0.03246
403.04995,-0.14168
404.97842,-0.06817
406.90689,0.04690
408.83536,0.09188
410.76382,0.05345
412.69229,0.02315
414.62076,0.03626
416.54923,0.04469
418.47770,-0.01048
420.40617,-0.02011
422.33464,0.08378
424.26311,0.15523
426.19157,0.15977
428.12004,0.16167
430.04851,0.15654
431.97698,0.10674
433.90545,0.03916
435.83392,-0.02435
437.76239,-0.07262
439.69085,-0.06331
441.61932,-0.00034
443.54779,0.04100
445.47626,0.09979
447.40473,0.18816
449.33320,0.14711
451.26167,0.01174
453.19013,-0.03762
455.11860,0.00226
457.04707,0.06017
458.97554,0.10659
460.90401,0.12400
462.83248,0.12339
464.76095,0.13082
466.68942,0.16162
468.61788,0.20342
470.54635,0.23874
472.47482,0.27259
474.40329,0.26056
476.33176,0.17990
478.26023,0.13623
480.18870,0.12004
482.11716,0.10497
484.04563,0.13099
485.97410,0.15964
487.90257,0.10295
489.83104,0.03260
491.75951,0.03299
493.68798,0.04872
495.61645,0.03935
497.54491,0.04467
499.47338,0.07073
501.40185,0.06299
503.33032,0.04192
505.25879,0.06233
507.18726,0.07302
509.11573,0.06216
511.04419,0.06899
512.97266,0.07278
514.90113,0.05871
516.82960,0.04927
518.75807,0.06853
520.68654,0.11017
522.61501,0.14483
524.54348,0.14340
526.47194,0.11407
528.40041,0.09868
530.32888,0.10916
532.25735,0.12866
534.18582,0.15795
536.11429,0.18805
538.04276,0.18939
539.97122,0.16332
541.89969,0.12568
543.82816,0.10948
545.75663,0.12298
547.68510,0.13158
549.61357,0.15971
551.54204,0.31321
553.47051,0.46879
555.39897,0.36465
557.32744,0.14406
559.25591,0.07172
561.18438,0.08499
563.11285,0.09631
565.04132,0.11418
566.96979,0.12624
568.89825,0.11360
570.82672,0.09626
572.75519,0.09643
574.68366,0.10508
576.61213,0.09369
578.54060,0.07499
580.46907,0.08236
582.39754,0.09633
584.32600,0.10150
586.25447,0.10712
588.18294,0.11504
590.11141,0.12472
592.03988,0.13144
593.96835,0.13316
595.89682,0.12888
597.82528,0.13107
599.75375,0.15806
601.68222,0.18738
603.61069,0.18029
605.53916,0.15371
607.46763,0.13920
609.39610,0.14014
611.32456,0.14706
613.25303,0.14028
615.18150,0.12115
617.10997,0.10582
619.03844,0.09716
620.96691,0.09414
622.89538,0.09212
624.82385,0.09438
626.75231,0.10188
628.68078,0.09700
630.60925,0.08202
632.53772,0.08335
634.46619,0.09685
636.39466,0.09798
638.32313,0.09066
640.25159,0.08198
642.18006,0.07558
644.10853,0.08648
646.03700,0.10249
647.96547,0.10435
649.89394,0.10431
651.82241,0.10786
653.75088,0.10171
655.67934,0.08689
657.60781,0.08584
659.53628,0.11092
661.46475,0.13657
663.39322,0.13640
665.32169,0.12475
667.25016,0.12302
669.17862,0.12720
671.10709,0.13074
673.03556,0.13753
674.96403,0.13879
676.89250,0.13079
678.82097,0.12106
680.74944,0.11620
682.67791,0.12179
684.60637,0.12718
686.53484,0.11691
688.46331,0.10668
690.39178,0.10806
692.32025,0.10965
694.24872,0.11277
696.17719,0.11906
698.10565,0.11514
700.03412,0.10330
701.96259,0.10020
703.89106,0.10258
705.81953,0.10259
707.74800,0.10562
709.67647,0.10981
711.60494,0.11327
713.53340,0.11588
715.46187,0.11113
717.39034,0.10797
719.31881,0.11560
721.24728,0.12556
723.17575,0.12904
725.10422,0.12227
727.03268,0.11484
728.96115,0.12059
730.88962,0.13213
732.81809,0.12901
734.74656,0.11489
736.67503,0.11294
738.60350,0.12098
740.53197,0.12789
742.46043,0.13230
744.38890,0.13148
746.31737,0.12865
748.24584,0.12637
750.17431,0.12419
752.10278,0.12169
754.03125,0.11582
755.95971,0.10958
757.88818,0.10489
759.81665,0.10350
761.74512,0.10929
763.67359,0.11548
765.60206,0.11712
767.53053,0.11614
769.45900,0.11586
771.38746,0.12130
773.31593,0.12750
775.24440,0.12800
777.17287,0.12631
779.10134,0.12894
781.02981,0.13350
782.95828,0.12966
784.88674,0.11941
786.81521,0.11410
788.74368,0.11687
790.67215,0.12221
792.60062,0.12476
794.52909,0.12417
796.45756,0.12671
798.38602,0.13421
800.31449,0.13710
802.24296,0.13343
804.17143,0.12821
806.09990,0.12498
808.02837,0.13101
809.95684,0.14170
811.88531,0.14045
813.81377,0.12710
815.74224,0.11885
817.67071,0.11888
819.59918,0.12021
821.52765,0.11893
823.45612,0.11024
825.38459,0.10412
827.31305,0.11128
829.24152,0.12052
831.16999,0.12237
833.09846,0.11811
835.02693,0.11123
836.95540,0.10892
838.88387,0.11443
840.81234,0.11921
842.74080,0.11695
844.66927,0.11605
846.59774,0.12273
848.52621,0.13054
850.45468,0.13522
852.38315,0.13752
854.31162,0.14138
856.24008,0.14897
858.16855,0.15258
860.09702,0.14801
862.02549,0.14110
863.95396,0.13309
865.88243,0.12343
867.81090,0.11912
869.73937,0.12410
871.66783,0.13303
873.59630,0.13929
875.52477,0.14173
877.45324,0.14122
879.38171,0.13727
881.31018,0.13215
883.23865,0.12897
885.16711,0.12537
887.09558,0.11824
889.02405,0.11487
890.95252,0.12060
892.88099,0.12496
894.80946,0.12189
896.73793,0.11903
898.66640,0.11888
900.59486,0.11835
902.52333,0.12034
904.45180,0.12584
906.38027,0.12875
908.30874,0.12717
910.23721,0.12911
912.16568,0.13848
914.09414,0.14690
916.02261,0.15032
917.95108,0.14928
919.87955,0.14270
921.80802,0.13451
923.73649,0.12762
925.66496,0.12439
927.59343,0.12792
929.52189,0.13345
931.45036,0.13798
933.37883,0.13801
935.30730,0.12896
937.23577,0.12294
939.16424,0.12776
941.09271,0.13234
943.02117,0.13071
944.94964,0.12953
946.87811,0.13360
948.80658,0.13894
950.73505,0.14256
952.66352,0.14431
954.59199,0.14275
956.52045,0.13810
958.44892,0.13281
960.37739,0.12965
962.30586,0.13109
964.23433,0.13608
966.16280,0.13807
968.09127,0.13673
970.01974,0.13901
971.94820,0.14465
973.87667,0.14621
975.80514,0.14158
977.73361,0.13709
979.66208,0.13695
981.59055,0.14011
983.51902,0.14615
985.44748,0.15491
987.37595,0.16022
989.30442,0.15589
991.23289,0.14998
993.16136,0.15219
995.08983,0.15648
997.01830,0.15848
998.94677,0.16094
1000.87523,0.15986
1002.80370,0.15379
1004.73217,0.14734
1006.66064,0.14470
1008.58911,0.14742
1010.51758,0.15100
1012.44605,0.15260
1014.37451,0.15170
1016.30298,0.14771
1018.23145,0.14459
1020.15992,0.14299
1022.08839,0.14060
1024.01686,0.13980
1025.94533,0.13948
1027.87380,0.13901
1029.80226,0.14192
1031.73073,0.14229
1033.65920,0.13791
1035.58767,0.13680
1037.51614,0.13696
1039.44461,0.13512
1041.37308,0.13738
1043.30154,0.13932
1045.23001,0.13194
1047.15848,0.12501
1049.08695,0.13206
1051.01542,0.14903
1052.94389,0.16168
1054.87236,0.16421
1056.80083,0.16310
1058.72929,0.16580
1060.65776,0.17208
1062.58623,0.17338
1064.51470,0.16463
1066.44317,0.15265
1068.37164,0.14663
1070.30011,0.14563
1072.22857,0.14511
1074.15704,0.14879
1076.08551,0.15710
1078.01398,0.15917
1079.94245,0.15109
1081.87092,0.14437
1083.79939,0.14632
1085.72786,0.15058
1087.65632,0.15095
1089.58479,0.14941
1091.51326,0.14826
1093.44173,0.14893
1095.37020,0.15229
1097.29867,0.15551
1099.22714,0.15637
1101.15560,0.15458
1103.08407,0.15603
1105.01254,0.16445
1106.94101,0.17160
1108.86948,0.17207
1110.79795,0.16577
1112.72642,0.15753
1114.65489,0.15463
1116.58335,0.15688
1118.51182,0.16295
1120.44029,0.16963
1122.36876,0.16842
1124.29723,0.15807
1126.22570,0.15017
1128.15417,0.15078
1130.08263,0.15090
1132.01110,0.15008
1133.93957,0.15365
1135.86804,0.15634
1137.79651,0.15791
1139.72498,0.16151
1141.65345,0.16184
1143.58191,0.15842
1145.51038,0.15820
1147.43885,0.16065
1149.36732,0.16061
1151.29579,0.15966
1153.22426,0.15955
1155.15273,0.15726
1157.08120,0.15305
1159.00966,0.15409
1160.93813,0.16013
1162.86660,0.16093
1164.79507,0.15691
1166.72354,0.15660
1168.65201,0.15951
1170.58048,0.15966
1172.50894,0.15768
1174.43741,0.15743
1176.36588,0.15775
1178.29435,0.15830
1180.22282,0.16032
1182.15129,0.16136
1184.07976,0.16108
1186.00823,0.16057
1187.93669,0.15878
1189.86516,0.15911
1191.79363,0.16373
1193.72210,0.16837
1195.65057,0.17156
1197.57904,0.17365
1199.50751,0.17379
1201.43597,0.17253
1203.36444,0.17001
1205.29291,0.16574
1207.22138,0.16211
1209.14985,0.16179
1211.07832,0.16373
1213.00679,0.16596
1214.93526,0.16843
1216.86372,0.17009
1218.79219,0.16852
1220.72066,0.16492
1222.64913,0.16198
1224.57760,0.16156
1226.50607,0.16412
1228.43454,0.16634
1230.36300,0.16793
1232.29147,0.17030
1234.21994,0.16932
1236.14841,0.16512
1238.07688,0.16341
1240.00535,0.16374
1241.93382,0.16233
1243.86229,0.16079
1245.79075,0.16081
1247.71922,0.16095
1249.64769,0.16294
1251.57616,0.16668
1253.50463,0.16785
1255.43310,0.16659
1257.36157,0.16477
1259.29003,0.16204
1261.21850,0.15944
1263.14697,0.15985
1265.07544,0.16329
1267.00391,0.16515
1268.93238,0.16556
1270.86085,0.16843
1272.78932,0.17115
1274.71778,0.17108
1276.64625,0.17090
1278.57472,0.17039
1280.50319,0.16733
1282.43166,0.16638
1284.36013,0.17119
1286.28860,0.17478
1288.21706,0.17291
1290.14553,0.17157
1292.07400,0.17208
1294.00247,0.16925
1295.93094,0.16417
1297.85941,0.16091
1299.78788,0.15660
1301.71634,0.14679
1303.64481,0.13755
1305.57328,0.14168
1307.50175,0.15645
1309.43022,0.16645
1311.35869,0.17012
1313.28716,0.17298
1315.21563,0.17385
1317.14409,0.17340
1319.07256,0.17307
1321.00103,0.17241
1322.92950,0.17186
1324.85797,0.16944
1326.78644,0.16611
1328.71491,0.16533
1330.64337,0.16433
1332.57184,0.16282
1334.50031,0.16278
1336.42878,0.16203
1338.35725,0.16135
1340.28572,0.15998
1342.21419,0.15867
1344.14266,0.16218
1346.07112,0.16743
1347.99959,0.17029
1349.92806,0.17062
1351.85653,0.16899
1353.78500,0.16727
1355.71347,0.16830
1357.64194,0.17160
1359.57040,0.17250
1361.49887,0.17168
1363.42734,0.17229
1365.35581,0.17288
1367.28428,0.17407
1369.21275,0.17475
1371.14122,0.17424
1373.06969,0.17732
1374.99815,0.18339
1376.92662,0.18567
1378.85509,0.18390
1380.78356,0.18152
1382.71203,0.18077
1384.64050,0.18235
1386.56897,0.18519
1388.49743,0.18466
1390.42590,0.18217
1392.35437,0.18346
1394.28284,0.18763
1396.21131,0.18979
1398.13978,0.18669
1400.06825,0.17893
1401.99672,0.17307
1403.92518,0.17457
1405.85365,0.17993
1407.78212,0.18234
1409.71059,0.18249
1411.63906,0.18145
1413.56753,0.18150
1415.49600,0.18673
1417.42446,0.19516
1419.35293,0.19573
1421.28140,0.18698
1423.20987,0.18077
1425.13834,0.17782
1427.06681,0.17615
1428.99528,0.17765
1430.92375,0.18312
1432.85221,0.18922
1434.78068,0.19309
1436.70915,0.19210
1438.63762,0.18775
1440.56609,0.18574
1442.49456,0.18664
1444.42303,0.18840
1446.35149,0.18879
1448.27996,0.18701
1450.20843,0.18544
1452.13690,0.18714
1454.06537,0.19209
1455.99384,0.20296
1457.92231,0.21480
1459.85077,0.20798
1461.77924,0.19812
1463.70771,0.19563
1465.63618,0.19581
1467.56465,0.19298
1469.49312,0.19185
1471.42159,0.19684
1473.35006,0.20616
1475.27852,0.20609
1477.20699,0.19706
1479.13546,0.19055
1481.06393,0.18840
1482.99240,0.18579
1484.92087,0.18533
1486.84934,0.19119
1488.77780,0.19634
1490.70627,0.19242
1492.63474,0.18900
1494.56321,0.19094
1496.49168,0.19333
1498.42015,0.19232
1500.34862,0.19451
1502.27709,0.20168
1504.20555,0.20903
1506.13402,0.21247
1508.06249,0.20733
1509.99096,0.20204
1511.91943,0.20021
1513.84790,0.20145
1515.77637,0.20527
1517.70483,0.20953
1519.63330,0.21299
1521.56177,0.21189
1523.49024,0.20511
1525.41871,0.20143
1527.34718,0.20021
1529.27565,0.19880
1531.20412,0.19855
1533.13258,0.20070
1535.06105,0.20389
1536.98952,0.20824
1538.91799,0.21457
1540.84646,0.21497
1542.77493,0.20611
1544.70340,0.19499
1546.63186,0.18960
1548.56033,0.19259
1550.48880,0.19787
1552.41727,0.20179
1554.34574,0.20458
1556.27421,0.20562
1558.20268,0.20563
1560.13115,0.20181
1562.05961,0.19873
1563.98808,0.19923
1565.91655,0.19996
1567.84502,0.19905
1569.77349,0.19827
1571.70196,0.19966
1573.63043,0.20368
1575.55889,0.20640
1577.48736,0.20235
1579.41583,0.19932
1581.34430,0.19899
1583.27277,0.19616
1585.20124,0.19200
1587.12971,0.19058
1589.05818,0.18981
1590.98664,0.18880
1592.91511,0.19018
1594.84358,0.19232
1596.77205,0.19191
1598.70052,0.18955
1600.62899,0.18832
1602.55746,0.18857
1604.48592,0.18752
1606.41439,0.18699
1608.34286,0.18913
1610.27133,0.19014
1612.19980,0.18969
1614.12827,0.19079
1616.05674,0.19332
1617.98521,0.19737
1619.91367,0.20358
1621.84214,0.20867
1623.77061,0.20661
1625.69908,0.20182
1627.62755,0.20104
1629.55602,0.20030
1631.48449,0.19917
1633.41295,0.20309
1635.34142,0.21264
1637.26989,0.21123
1639.19836,0.20225
1641.12683,0.20108
1643.05530,0.20928
1644.98377,0.22090
1646.91223,0.22388
1648.84070,0.21704
1650.76917,0.21921
1652.69764,0.23190
1654.62611,0.22591
1656.55458,0.21058
1658.48305,0.20509
1660.41152,0.20953
1662.33998,0.21652
1664.26845,0.21447
1666.19692,0.21099
1668.12539,0.21365
1670.05386,0.21514
1671.98233,0.21133
1673.91080,0.20955
1675.83926,0.20814
1677.76773,0.20638
1679.69620,0.20896
1681.62467,0.21677
1683.55314,0.22417
1685.48161,0.21631
1687.41008,0.20582
1689.33855,0.20199
1691.26701,0.20104
1693.19548,0.20393
1695.12395,0.21038
1697.05242,0.21234
1698.98089,0.20794
1700.90936,0.20095
1702.83783,0.19746
1704.76629,0.19897
1706.69476,0.20042
1708.62323,0.19789
1710.55170,0.19443
1712.48017,0.19502
1714.40864,0.20193
1716.33711,0.21117
1718.26558,0.20992
1720.19404,0.20300
1722.12251,0.20013
1724.05098,0.19767
1725.97945,0.19416
1727.90792,0.19413
1729.83639,0.19913
1731.76486,0.20536
1733.69332,0.20734
1735.62179,0.20371
1737.55026,0.20267
1739.47873,0.20455
1741.40720,0.20480
1743.33567,0.20296
1745.26414,0.20206
1747.19261,0.20232
1749.12107,0.20104
1751.04954,0.19803
1752.97801,0.19570
1754.90648,0.19493
1756.83495,0.19621
1758.76342,0.19781
1760.69189,0.19807
1762.62035,0.19573
1764.54882,0.19287
1766.47729,0.19371
1768.40576,0.19790
1770.33423,0.20444
1772.26270,0.20907
1774.19117,0.20468
1776.11964,0.19824
1778.04810,0.19535
1779.97657,0.19569
1781.90504,0.19808
1783.83351,0.20106
1785.76198,0.20111
1787.69045,0.19874
1789.61892,0.20020
1791.54738,0.20644
1793.47585,0.20948
1795.40432,0.20747
1797.33279,0.20503
1799.26126,0.20165
1801.18973,0.19585
1803.11820,0.19132
1805.04666,0.19247
1806.97513,0.19768
1808.90360,0.20144
1810.83207,0.19933
1812.76054,0.19420
1814.68901,0.18969
1816.61748,0.18542
1818.54595,0.18634
1820.47441,0.18971
1822.40288,0.18899
1824.33135,0.19193
1826.25982,0.19956
1828.18829,0.20149
1830.11676,0.19669
1832.04523,0.19269
1833.97369,0.19357
1835.90216,0.19550
1837.83063,0.19493
1839.75910,0.19382
1841.68757,0.19534
1843.61604,0.19769
1845.54451,0.19669
1847.47298,0.19404
1849.40144,0.19254
1851.32991,0.19276
1853.25838,0.19436
1855.18685,0.19461
1857.11532,0.19219
1859.04379,0.19070
1860.97226,0.19231
1862.90072,0.19454
1864.82919,0.19624
1866.75766,0.19939
1868.68613,0.20158
1870.61460,0.19879
1872.54307,0.19584
1874.47154,0.19407
1876.40001,0.19147
1878.32847,0.18998
1880.25694,0.19034
1882.18541,0.19095
1884.11388,0.19154
1886.04235,0.19168
1887.97082,0.19313
1889.89929,0.19679
1891.82775,0.19807
1893.75622,0.19632
1895.68469,0.19443
1897.61316,0.19328
1899.54163,0.19291
1901.47010,0.19299
1903.39857,0.19383
1905.32704,0.19624
1907.25550,0.19857
1909.18397,0.19827
1911.11244,0.19579
1913.04091,0.19381
1914.96938,0.19462
1916.89785,0.19758
1918.82632,0.19879
1920.75478,0.19815
1922.68325,0.19754
1924.61172,0.19594
1926.54019,0.19451
1928.46866,0.19404
1930.39713,0.19272
1932.32560,0.19124
1934.25407,0.19296
1936.18253,0.19725
1938.11100,0.19972
1940.03947,0.19987
1941.96794,0.19981
1943.89641,0.19944
1945.82488,0.19755
1947.75335,0.19530
1949.68181,0.19429
1951.61028,0.19292
1953.53875,0.19014
1955.46722,0.18874
1957.39569,0.19078
1959.32416,0.19417
1961.25263,0.19688
1963.18110,0.19894
1965.10956,0.19952
1967.03803,0.19834
1968.96650,0.19695
1970.89497,0.19662
1972.82344,0.19693
1974.75191,0.19633
1976.68038,0.19595
1978.60884,0.19789
1980.53731,0.19943
1982.46578,0.19736
1984.39425,0.19448
1986.32272,0.19364
1988.25119,0.19325
1990.17966,0.19337
1992.10812,0.19511
1994.03659,0.19605
1995.96506,0.19416
1997.89353,0.19117
1999.82200,0.19095
2001.75047,0.19330
2003.67894,0.19447
2005.60741,0.19398
2007.53587,0.19372
2009.46434,0.19458
2011.39281,0.19509
2013.32128,0.19472
2015.24975,0.19558
2017.17822,0.19640
2019.10669,0.19433
2021.03515,0.19303
2022.96362,0.19467
2024.89209,0.19455
2026.82056,0.19242
2028.74903,0.19167
2030.67750,0.19146
2032.60597,0.19203
2034.53444,0.19427
2036.46290,0.19626
2038.39137,0.19714
2040.31984,0.19637
2042.24831,0.19423
2044.17678,0.19351
2046.10525,0.19410
2048.03372,0.19409
2049.96218,0.19415
2051.89065,0.19448
2053.81912,0.19565
2055.74759,0.19823
2057.67606,0.19900
2059.60453,0.19608
2061.53300,0.19418
2063.46147,0.19703
2065.38993,0.19956
2067.31840,0.19773
2069.24687,0.19597
2071.17534,0.19759
2073.10381,0.19933
2075.03228,0.19697
2076.96075,0.19369
2078.88921,0.19472
2080.81768,0.19719
2082.74615,0.19701
2084.67462,0.19548
2086.60309,0.19479
2088.53156,0.19549
2090.46003,0.19634
2092.38850,0.19615
2094.31696,0.19571
2096.24543,0.19581
2098.17390,0.19666
2100.10237,0.19832
2102.03084,0.19964
2103.95931,0.19930
2105.88778,0.19835
2107.81624,0.19913
2109.74471,0.20115
2111.67318,0.20185
2113.60165,0.20026
2115.53012,0.19808
2117.45859,0.19723
2119.38706,0.19800
2121.31553,0.19957
2123.24399,0.19933
2125.17246,0.19659
2127.10093,0.19467
2129.02940,0.19492
2130.95787,0.19493
2132.88634,0.19462
2134.81481,0.19675
2136.74327,0.20009
2138.67174,0.20172
2140.60021,0.20216
2142.52868,0.20201
2144.45715,0.20112
2146.38562,0.19996
2148.31409,0.19793
2150.24255,0.19446
2152.17102,0.19134
2154.09949,0.19113
2156.02796,0.19385
2157.95643,0.19678
2159.88490,0.19925
2161.81337,0.20221
2163.74184,0.20320
2165.67030,0.20058
2167.59877,0.19797
2169.52724,0.19772
2171.45571,0.19807
2173.38418,0.19754
2175.31265,0.19674
2177.24112,0.19822
2179.16958,0.20167
2181.09805,0.20271
2183.02652,0.20078
2184.95499,0.19918
2186.88346,0.19961
2188.81193,0.20001
2190.74040,0.19808
2192.66887,0.19656
2194.59733,0.19705
2196.52580,0.19705
2198.45427,0.19543
2200.38274,0.19361
2202.31121,0.19390
2204.23968,0.19622
2206.16815,0.19821
2208.09661,0.19863
2210.02508,0.19849
2211.95355,0.19837
2213.88202,0.19710
2215.81049,0.19494
2217.73896,0.19409
2219.66743,0.19501
2221.59590,0.19554
2223.52436,0.19509
2225.45283,0.19483
2227.38130,0.19505
2229.30977,0.19629
2231.23824,0.19794
2233.16671,0.19830
2235.09518,0.19761
2237.02364,0.19774
2238.95211,0.19883
2240.88058,0.19875
2242.80905,0.19758
2244.73752,0.19723
2246.66599,0.19755
2248.59446,0.19800
2250.52293,0.19864
2252.45139,0.19898
2254.37986,0.19913
2256.30833,0.19983
2258.23680,0.20064
2260.16527,0.19989
2262.09374,0.19770
2264.02221,0.19597
2265.95067,0.19481
2267.87914,0.19379
2269.80761,0.19450
2271.73608,0.19780
2273.66455,0.20121
2275.59302,0.20170
2277.52149,0.19885
2279.44996,0.19631
2281.37842,0.19701
2283.30689,0.19865
2285.23536,0.19841
2287.16383,0.19552
2289.09230,0.19162
2291.02077,0.18944
2292.94924,0.18932
2294.87770,0.19113
2296.80617,0.19508
2298.73464,0.19805
2300.66311,0.19820
2302.59158,0.19950
2304.52005,0.20244
2306.44852,0.20377
2308.37699,0.20300
2310.30545,0.20152
2312.23392,0.20177
2314.16239,0.20201
2316.09086,0.19911
2318.01933,0.19530
2319.94780,0.19363
2321.87627,0.19508
2323.80473,0.19907
2325.73320,0.20131
2327.66167,0.19873
2329.59014,0.19399
2331.51861,0.18904
2333.44708,0.18867
2335.37555,0.19500
2337.30401,0.19695
2339.23248,0.18675
2341.16095,0.17181
2343.08942,0.16626
2345.01789,0.17405
2346.94636,0.18656
2348.87483,0.19797
2350.80330,0.20606
2352.73176,0.20868
2354.66023,0.20313
2356.58870,0.18451
2358.51717,0.16451
2360.44564,0.16215
2362.37411,0.16743
2364.30258,0.17089
2366.23104,0.17734
2368.15951,0.18644
2370.08798,0.19017
2372.01645,0.19062
2373.94492,0.19370
2375.87339,0.19664
2377.80186,0.19941
2379.73033,0.20363
2381.65879,0.20544
2383.58726,0.20264
2385.51573,0.19898
2387.44420,0.19791
2389.37267,0.19857
2391.30114,0.19919
2393.22961,0.19841
2395.15807,0.19640
2397.08654,0.19543
2399.01501,0.19557
2400.94348,0.19538
2402.87195,0.19539
2404.80042,0.19602
2406.72889,0.19613
2408.65736,0.19607
2410.58582,0.19695
2412.51429,0.19792
2414.44276,0.19703
2416.37123,0.19368
2418.29970,0.19169
2420.22817,0.19409
2422.15664,0.19778
2424.08510,0.19973
2426.01357,0.19955
2427.94204,0.19914
2429.87051,0.20028
2431.79898,0.20064
2433.72745,0.19914
2435.65592,0.19806
2437.58439,0.19762
2439.51285,0.19744
2441.44132,0.19825
2443.36979,0.19892
2445.29826,0.19807
2447.22673,0.19776
2449.15520,0.19806
2451.08367,0.19539
2453.01213,0.19304
2454.94060,0.19686
2456.86907,0.20225
2458.79754,0.20278
2460.72601,0.20072
2462.65448,0.19990
2464.58295,0.19959
2466.51142,0.19826
2468.43988,0.19637
2470.36835,0.19579
2472.29682,0.19782
2474.22529,0.20069
2476.15376,0.20100
2478.08223,0.19939
2480.01070,0.19964
2481.93916,0.20158
2483.86763,0.20219
2485.79610,0.20031
2487.72457,0.19822
2489.65304,0.19836
2491.58151,0.19916
2493.50998,0.19963
2495.43844,0.20092
2497.36691,0.20242
2499.29538,0.20255
2501.22385,0.20103
2503.15232,0.19945
2505.08079,0.20025
2507.00926,0.20328
2508.93773,0.20515
2510.86619,0.20510
2512.79466,0.20458
2514.72313,0.20334
2516.65160,0.20162
2518.58007,0.20125
2520.50854,0.20173
2522.43701,0.20164
2524.36547,0.20192
2526.29394,0.20161
2528.22241,0.20091
2530.15088,0.20186
2532.07935,0.20286
2534.00782,0.20337
2535.93629,0.20393
2537.86476,0.20366
2539.79322,0.20248
2541.72169,0.20128
2543.65016,0.20158
2545.57863,0.20381
2547.50710,0.20517
2549.43557,0.20318
2551.36404,0.20105
2553.29250,0.20168
2555.22097,0.20202
2557.14944,0.20054
2559.07791,0.19933
2561.00638,0.19951
2562.93485,0.20182
2564.86332,0.20542
2566.79179,0.20704
2568.72025,0.20544
2570.64872,0.20363
2572.57719,0.20467
2574.50566,0.20638
2576.43413,0.20487
2578.36260,0.20118
2580.29107,0.19940
2582.21953,0.20084
2584.14800,0.20247
2586.07647,0.20247
2588.00494,0.20426
2589.93341,0.20790
2591.86188,0.20814
2593.79035,0.20597
2595.71882,0.20612
2597.64728,0.20711
2599.57575,0.20658
2601.50422,0.20528
2603.43269,0.20272
2605.36116,0.19966
2607.28963,0.19864
2609.21810,0.19952
2611.14656,0.20080
2613.07503,0.20143
2615.00350,0.20216
2616.93197,0.20324
2618.86044,0.20267
2620.78891,0.20246
2622.71738,0.20627
2624.64585,0.21127
2626.57431,0.21182
2628.50278,0.20926
2630.43125,0.20894
2632.35972,0.20986
2634.28819,0.20918
2636.21666,0.20795
2638.14513,0.20691
2640.07359,0.20653
2642.00206,0.20769
2643.93053,0.20952
2645.85900,0.21038
2647.78747,0.21023
2649.71594,0.20952
2651.64441,0.20781
2653.57288,0.20602
2655.50134,0.20600
2657.42981,0.20710
2659.35828,0.20694
2661.28675,0.20596
2663.21522,0.20625
2665.14369,0.20679
2667.07216,0.20658
2669.00062,0.20806
2670.92909,0.21129
2672.85756,0.21187
2674.78603,0.20871
2676.71450,0.20507
2678.64297,0.20351
2680.57144,0.20390
2682.49990,0.20413
2684.42837,0.20376
2686.35684,0.20389
2688.28531,0.20473
2690.21378,0.20613
2692.14225,0.20731
2694.07072,0.20736
2695.99919,0.20760
2697.92765,0.20961
2699.85612,0.21179
2701.78459,0.21262
2703.71306,0.21141
2705.64153,0.20850
2707.57000,0.20784
2709.49847,0.21044
2711.42693,0.21218
2713.35540,0.21195
2715.28387,0.21043
2717.21234,0.20751
2719.14081,0.20652
2721.06928,0.20976
2722.99775,0.21357
2724.92622,0.21378
2726.85468,0.21136
2728.78315,0.20916
2730.71162,0.20692
2732.64009,0.20612
2734.56856,0.20932
2736.49703,0.21313
2738.42550,0.21319
2740.35396,0.21110
2742.28243,0.21065
2744.21090,0.21281
2746.13937,0.21603
2748.06784,0.21710
2749.99631,0.21415
2751.92478,0.21030
2753.85325,0.20909
2755.78171,0.21024
2757.71018,0.21133
2759.63865,0.21194
2761.56712,0.21442
2763.49559,0.21797
2765.42406,0.21810
2767.35253,0.21498
2769.28099,0.21318
2771.20946,0.21445
2773.13793,0.21834
2775.06640,0.22340
2776.99487,0.22583
2778.92334,0.22336
2780.85181,0.21896
2782.78028,0.21767
2784.70874,0.21920
2786.63721,0.21998
2788.56568,0.21922
2790.49415,0.21616
2792.42262,0.21091
2794.35109,0.20897
2796.27956,0.21319
2798.20802,0.21714
2800.13649,0.21720
2802.06496,0.21763
2803.99343,0.21973
2805.92190,0.22003
2807.85037,0.21722
2809.77884,0.21432
2811.70731,0.21498
2813.63577,0.21791
2815.56424,0.21785
2817.49271,0.21578
2819.42118,0.21651
2821.34965,0.21855
2823.27812,0.21919
2825.20659,0.21907
2827.13505,0.21940
2829.06352,0.22151
2830.99199,0.22468
2832.92046,0.22550
2834.84893,0.22382
2836.77740,0.22215
2838.70587,0.22124
2840.63433,0.22082
2842.56280,0.21906
2844.49127,0.21729
2846.41974,0.21831
2848.34821,0.22067
2850.27668,0.22357
2852.20515,0.22441
2854.13362,0.22045
2856.06208,0.21730
2857.99055,0.21897
2859.91902,0.22190
2861.84749,0.22439
2863.77596,0.22445
2865.70443,0.22114
2867.63290,0.21990
2869.56136,0.22078
2871.48983,0.21911
2873.41830,0.21683
2875.34677,0.21723
2877.27524,0.21903
2879.20371,0.22136
2881.13218,0.22331
2883.06065,0.22213
2884.98911,0.22030
2886.91758,0.22192
2888.84605,0.22386
2890.77452,0.22264
2892.70299,0.22004
2894.63146,0.21702
2896.55993,0.21431
2898.48839,0.21393
2900.41686,0.21420
2902.34533,0.21314
2904.27380,0.21211
2906.20227,0.21367
2908.13074,0.21850
2910.05921,0.22186
2911.98768,0.22051
2913.91614,0.21700
2915.84461,0.21235
2917.77308,0.20876
2919.70155,0.21020
2921.63002,0.21485
2923.55849,0.21732
2925.48696,0.21356
2927.41542,0.20959
2929.34389,0.21347
2931.27236,0.21908
2933.20083,0.21912
2935.12930,0.21378
2937.05777,0.20841
2938.98624,0.21141
2940.91471,0.21917
2942.84317,0.22060
2944.77164,0.21397
2946.70011,0.20518
2948.62858,0.20334
2950.55705,0.21002
2952.48552,0.21574
2954.41399,0.21410
2956.34245,0.20489
2958.27092,0.19803
2960.19939,0.20532
2962.12786,0.21726
2964.05633,0.21975
2965.98480,0.21536
2967.91327,0.21077
2969.84174,0.21144
2971.77020,0.21768
2973.69867,0.22236
2975.62714,0.21964
2977.55561,0.21136
2979.48408,0.20791
2981.41255,0.21310
2983.34102,0.21858
2985.26948,0.21826
2987.19795,0.21134
2989.12642,0.20526
2991.05489,0.20987
2992.98336,0.21980
2994.91183,0.22503
2996.84030,0.22506
2998.76877,0.22460
3000.69723,0.22469
3002.62570,0.22051
3004.55417,0.21434
3006.48264,0.21182
3008.41111,0.21101
3010.33958,0.20583
3012.26805,0.18791
3014.19651,0.15573
3016.12498,0.13044
3018.05345,0.14290
3019.98192,0.18493
3021.91039,0.21655
3023.83886,0.22496
3025.76733,0.22264
3027.69579,0.21986
3029.62426,0.22246
3031.55273,0.22891
3033.48120,0.23090
3035.40967,0.22705
3037.33814,0.22291
3039.26661,0.22196
3041.19508,0.22435
3043.12354,0.22698
3045.05201,0.22683
3046.98048,0.22490
3048.90895,0.22537
3050.83742,0.22781
3052.76589,0.22789
3054.69436,0.22260
3056.62282,0.21402
3058.55129,0.21360
3060.47976,0.22194
3062.40823,0.22553
3064.33670,0.21954
3066.26517,0.21162
3068.19364,0.21391
3070.12211,0.22352
3072.05057,0.22470
3073.97904,0.21531
3075.90751,0.20626
3077.83598,0.20720
3079.76445,0.21528
3081.69292,0.21771
3083.62139,0.21022
3085.54985,0.20554
3087.47832,0.21401
3089.40679,0.22474
3091.33526,0.22636
3093.26373,0.21850
3095.19220,0.21000
3097.12067,0.21319
3099.04914,0.22171
3100.97760,0.22069
3102.90607,0.20965
3104.83454,0.20538
3106.76301,0.21603
3108.69148,0.22647
3110.61995,0.22395
3112.54842,0.21414
3114.47688,0.21060
3116.40535,0.21493
3118.33382,0.21885
3120.26229,0.21586
3122.19076,0.21026
3124.11923,0.21407
3126.04770,0.22253
3127.97617,0.22285
3129.90463,0.21612
3131.83310,0.21328
3133.76157,0.21901
3135.69004,0.22491
3137.61851,0.22375
3139.54698,0.22034
3141.47545,0.22079
3143.40391,0.22332
3145.33238,0.22594
3147.26085,0.22646
3149.18932,0.22500
3151.11779,0.22648
3153.04626,0.22987
3154.97473,0.23050
3156.90320,0.22950
3158.83166,0.23004
3160.76013,0.23267
3162.68860,0.23657
3164.61707,0.23722
3166.54554,0.23328
3168.47401,0.23008
3170.40248,0.23004
3172.33094,0.23211
3174.25941,0.23331
3176.18788,0.23124
3178.11635,0.22927
3180.04482,0.23231
3181.97329,0.23731
3183.90176,0.23817
3185.83022,0.23615
3187.75869,0.23338
3189.68716,0.22929
3191.61563,0.22826
3193.54410,0.23212
3195.47257,0.23467
3197.40104,0.23434
3199.32951,0.23311
3201.25797,0.23001
3203.18644,0.22678
3205.11491,0.22635
3207.04338,0.22666
3208.97185,0.22559
3210.90032,0.22477
3212.82879,0.22768
3214.75725,0.23343
3216.68572,0.23335
3218.61419,0.22877
3220.54266,0.22589
3222.47113,0.22250
3224.39960,0.22117
3226.32807,0.22349
3228.25654,0.22432
3230.18500,0.22406
3232.11347,0.22616
3234.04194,0.22714
3235.97041,0.22598
3237.89888,0.22896
3239.82735,0.23284
3241.75582,0.23103
3243.68428,0.22770
3245.61275,0.22884
3247.54122,0.23265
3249.46969,0.23366
3251.39816,0.23138
3253.32663,0.22823
3255.25510,0.22468
3257.18357,0.22226
3259.11203,0.22220
3261.04050,0.22320
3262.96897,0.22512
3264.89744,0.22646
3266.82591,0.22403
3268.75438,0.22186
3270.68285,0.22471
3272.61131,0.22612
3274.53978,0.22265
3276.46825,0.22156
3278.39672,0.22478
3280.32519,0.22592
3282.25366,0.22297
3284.18213,0.22271
3286.11060,0.22662
3288.03906,0.22622
3289.96753,0.22008
3291.89600,0.21486
3293.82447,0.21504
3295.75294,0.22198
3297.68141,0.22943
3299.60988,0.22981
3301.53834,0.22832
3303.46681,0.22998
3305.39528,0.22890
3307.32375,0.22507
3309.25222,0.22547
3311.18069,0.22705
3313.10916,0.22620
3315.03763,0.22829
3316.96609,0.23105
3318.89456,0.22937
3320.82303,0.22802
3322.75150,0.22975
3324.67997,0.23158
3326.60844,0.23093
3328.53691,0.22654
3330.46537,0.22145
3332.39384,0.22116
3334.32231,0.22671
3336.25078,0.23236
3338.17925,0.23311
3340.10772,0.23167
3342.03619,0.23218
3343.96466,0.23410
3345.89312,0.23491
3347.82159,0.23422
3349.75006,0.23237
3351.67853,0.22874
3353.60700,0.22614
3355.53547,0.22728
3357.46394,0.23037
3359.39240,0.23400
3361.32087,0.23620
3363.24934,0.23465
3365.17781,0.23238
3367.10628,0.23264
3369.03475,0.23409
3370.96322,0.23593
3372.89168,0.23854
3374.82015,0.24035
3376.74862,0.23926
3378.67709,0.23639
3380.60556,0.23322
3382.53403,0.22985
3384.46250,0.22867
3386.39097,0.22933
3388.31943,0.22775
3390.24790,0.22403
3392.17637,0.22173
3394.10484,0.22295
3396.03331,0.22501
3397.96178,0.22583
3399.89025,0.22961
3401.81871,0.23571
3403.74718,0.23652
3405.67565,0.23277
3407.60412,0.23011
3409.53259,0.22795
3411.46106,0.22639
3413.38953,0.22926
3415.31800,0.23566
3417.24646,0.23866
3419.17493,0.23490
3421.10340,0.22964
3423.03187,0.22594
3424.96034,0.22091
3426.88881,0.21636
3428.81728,0.21773
3430.74574,0.22211
3432.67421,0.22116
3434.60268,0.21799
3436.53115,0.21930
3438.45962,0.22014
3440.38809,0.21566
3442.31656,0.21086
3444.24503,0.21178
3446.17349,0.21712
3448.10196,0.22123
3450.03043,0.22063
3451.95890,0.21605
3453.88737,0.21090
3455.81584,0.20800
3457.74431,0.20762
3459.67277,0.20841
3461.60124,0.20667
3463.52971,0.20171
3465.45818,0.19831
3467.38665,0.19973
3469.31512,0.20635
3471.24359,0.21238
3473.17206,0.21226
3475.10052,0.21159
3477.02899,0.21313
3478.95746,0.21230
3480.88593,0.21054
3482.81440,0.20989
3484.74287,0.20729
3486.67134,0.20402
3488.59980,0.20462
3490.52827,0.20768
3492.45674,0.20961
3494.38521,0.20889
3496.31368,0.20459
3498.24215,0.20028
3500.17062,0.20074
3502.09909,0.20534
3504.02755,0.20836
3505.95602,0.20501
3507.88449,0.19816
3509.81296,0.19318
3511.74143,0.19341
3513.66990,0.19629
3515.59837,0.19530
3517.52683,0.18945
3519.45530,0.18427
3521.38377,0.18324
3523.31224,0.18519
3525.24071,0.18903
3527.16918,0.19171
3529.09765,0.19012
3531.02611,0.18631
3532.95458,0.18087
3534.88305,0.17747
3536.81152,0.18149
3538.73999,0.18656
3540.66846,0.18699
3542.59693,0.18680
3544.52540,0.18822
3546.45386,0.18893
3548.38233,0.18562
3550.31080,0.17987
3552.23927,0.17731
3554.16774,0.17873
3556.09621,0.17893
3558.02468,0.17743
3559.95314,0.17887
3561.88161,0.18374
3563.81008,0.18801
3565.73855,0.19015
3567.66702,0.18888
3569.59549,0.18393
3571.52396,0.17956
3573.45243,0.17684
3575.38089,0.17427
3577.30936,0.17282
3579.23783,0.17223
3581.16630,0.16985
3583.09477,0.16813
3585.02324,0.17245
3586.95171,0.17989
3588.88017,0.17883
3590.80864,0.17465
3592.73711,0.17382
3594.66558,0.17089
3596.59405,0.16669
3598.52252,0.16620
3600.45099,0.16673
3602.37946,0.16634
3604.30792,0.16728
3606.23639,0.16993
3608.16486,0.16972
3610.09333,0.16519
3612.02180,0.16228
3613.95027,0.15999
3615.87874,0.15788
3617.80720,0.15923
3619.73567,0.15795
3621.66414,0.15148
3623.59261,0.14967
3625.52108,0.15566
3627.44955,0.16424
3629.37802,0.16471
3631.30649,0.15962
3633.23495,0.15640
3635.16342,0.15262
3637.09189,0.15070
3639.02036,0.15223
3640.94883,0.15216
3642.87730,0.14779
3644.80577,0.14380
3646.73423,0.14576
3648.66270,0.15725
3650.59117,0.16362
3652.51964,0.15697
3654.44811,0.15349
3656.37658,0.15390
3658.30505,0.14927
3660.23352,0.14272
3662.16198,0.14075
3664.09045,0.14273
3666.01892,0.14427
3667.94739,0.14463
3669.87586,0.14717
3671.80433,0.15079
3673.73280,0.15137
3675.66126,0.14751
3677.58973,0.14231
3679.51820,0.14024
3681.44667,0.14121
3683.37514,0.14216
3685.30361,0.14166
3687.23208,0.14319
3689.16055,0.14686
3691.08901,0.14718
3693.01748,0.14543
3694.94595,0.14464
3696.87442,0.14551
3698.80289,0.14822
3700.73136,0.14998
3702.65983,0.14560
3704.58829,0.13930
3706.51676,0.13936
3708.44523,0.14702
3710.37370,0.15571
3712.30217,0.15237
3714.23064,0.14373
3716.15911,0.14067
3718.08757,0.14070
3720.01604,0.14168
3721.94451,0.14451
3723.87298,0.14784
3725.80145,0.14644
3727.72992,0.14088
3729.65839,0.13811
3731.58686,0.13996
3733.51532,0.14408
3735.44379,0.14746
3737.37226,0.14935
3739.30073,0.14810
3741.22920,0.14342
3743.15767,0.13914
3745.08614,0.14157
3747.01460,0.15086
3748.94307,0.16376
3750.87154,0.17177
3752.80001,0.16326
3754.72848,0.15431
3756.65695,0.15123
3758.58542,0.15097
3760.51389,0.14771
3762.44235,0.13904
3764.37082,0.13324
3766.29929,0.13710
3768.22776,0.14473
3770.15623,0.14819
3772.08470,0.14450
3774.01317,0.13665
3775.94163,0.13251
3777.87010,0.13575
3779.79857,0.14027
3781.72704,0.14101
3783.65551,0.13919
3785.58398,0.13464
3787.51245,0.13037
3789.44092,0.12995
3791.36938,0.13272
3793.29785,0.13509
3795.22632,0.13333
3797.15479,0.13071
3799.08326,0.13500
3801.01173,0.13962
3802.94020,0.12972
3804.86866,0.11997
3806.79713,0.12302
3808.72560,0.12733
3810.65407,0.12546
3812.58254,0.12539
3814.51101,0.12767
3816.43948,0.12965
3818.36795,0.13543
3820.29641,0.14507
3822.22488,0.14716
3824.15335,0.14114
3826.08182,0.13635
3828.01029,0.13437
3829.93876,0.13637
3831.86723,0.14141
3833.79569,0.14316
3835.72416,0.14223
3837.65263,0.14714
3839.58110,0.15184
3841.50957,0.14916
3843.43804,0.14450
3845.36651,0.13723
3847.29498,0.12864
3849.22344,0.12623
3851.15191,0.13607
3853.08038,0.15197
3855.00885,0.14888
3856.93732,0.13761
3858.86579,0.13052
3860.79426,0.12949
3862.72272,0.13374
3864.65119,0.13773
3866.57966,0.14124
3868.50813,0.14362
3870.43660,0.13865
3872.36507,0.13250
3874.29354,0.13221
3876.22200,0.13547
3878.15047,0.13958
3880.07894,0.13843
3882.00741,0.13261
3883.93588,0.13125
3885.86435,0.13011
3887.79282,0.12611
3889.72129,0.12424
3891.64975,0.12512
3893.57822,0.12601
3895.50669,0.12594
3897.43516,0.12735
3899.36363,0.13115
3901.29210,0.13288
3903.22057,0.13196
3905.14903,0.13144
3907.07750,0.12941
3909.00597,0.12425
3910.93444,0.11714
3912.86291,0.11311
3914.79138,0.11522
3916.71985,0.12051
3918.64832,0.12260
3920.57678,0.11919
3922.50525,0.11660
3924.43372,0.11841
3926.36219,0.12022
3928.29066,0.12116
3930.21913,0.12221
3932.14760,0.11938
3934.07606,0.11499
3936.00453,0.11582
3937.93300,0.11842
3939.86147,0.11806
3941.78994,0.11754
3943.71841,0.12030
3945.64688,0.12378
3947.57535,0.12349
3949.50381,0.11998
3951.43228,0.11841
3953.36075,0.11949
3955.28922,0.12042
3957.21769,0.11922
3959.14616,0.11534
3961.07463,0.11189
3963.00309,0.11271
3964.93156,0.11645
3966.86003,0.11737
3968.78850,0.11307
3970.71697,0.10956
3972.64544,0.11133
3974.57391,0.11485
3976.50238,0.11733
3978.43084,0.11842
3980.35931,0.11769
3982.28778,0.11521
3984.21625,0.11251
3986.14472,0.11141
3988.07319,0.11007
3990.00166,0.10901
3991.93012,0.11117
3993.85859,0.11258
3995.78706,0.11039
3997.71553,0.10929
3999.64400,0.11277
4001.57247,0.11679
4003.50094,0.11600
4005.42941,0.11399
4007.35787,0.11440
4009.28634,0.11272
4011.21481,0.10841
4013.14328,0.10807
4015.07175,0.11187
4017.00022,0.11449
4018.92869,0.11562
4020.85715,0.11591
4022.78562,0.11388
4024.71409,0.10987
4026.64256,0.10664
4028.57103,0.10668
4030.49950,0.10922
4032.42797,0.11115
4034.35644,0.10997
4036.28490,0.10704
4038.21337,0.10492
4040.14184,0.10416
4042.07031,0.10441
4043.99878,0.10460
4045.92725,0.10580
4047.85572,0.10768
4049.78418,0.10688
4051.71265,0.10418
4053.64112,0.10295
4055.56959,0.10443
4057.49806,0.10532
4059.42653,0.10348
4061.35500,0.10257
4063.28346,0.10138
4065.21193,0.09693
4067.14040,0.09331
4069.06887,0.09233
4070.99734,0.09396
4072.92581,0.09940
4074.85428,0.10208
4076.78275,0.09852
4078.71121,0.09762
4080.63968,0.09966
4082.56815,0.09873
4084.49662,0.10143
4086.42509,0.10880
4088.35356,0.10800
4090.28203,0.10077
4092.21049,0.10137
4094.13896,0.10702
4096.06743,0.10854
4097.99590,0.10608
4099.92437,0.10161
4101.85284,0.09930
4103.78131,0.10012
4105.70978,0.09835
4107.63824,0.09312
4109.56671,0.08954
4111.49518,0.09191
4113.42365,0.09829
4115.35212,0.10121
4117.28059,0.09916
4119.20906,0.09641
4121.13752,0.09381
4123.06599,0.09051
4124.99446,0.08830
4126.92293,0.09066
4128.85140,0.09495
4130.77987,0.09491
4132.70834,0.09250
4134.63681,0.09118
4136.56527,0.08831
4138.49374,0.08319
4140.42221,0.08148
4142.35068,0.08618
4144.27915,0.09188
4146.20762,0.09267
4148.13609,0.09108
4150.06455,0.09260
4151.99302,0.09380
4153.92149,0.09130
4155.84996,0.09023
4157.77843,0.09160
4159.70690,0.09109
4161.63537,0.08880
4163.56384,0.08800
4165.49230,0.08714
4167.42077,0.08075
4169.34924,0.07189
4171.27771,0.06928
4173.20618,0.07154
4175.13465,0.07347
4177.06312,0.07727
4178.99158,0.08205
4180.92005,0.08219
4182.84852,0.08056
4184.77699,0.08353
4186.70546,0.08861
4188.63393,0.08800
4190.56240,0.08297
4192.49087,0.08072
4194.41933,0.07870
4196.34780,0.07573
4198.27627,0.07628
4200.20474,0.07614
4202.13321,0.07194
4204.06168,0.07000
4205.99015,0.07124
4207.91861,0.06999
4209.84708,0.06726
4211.77555,0.06747
4213.70402,0.06991
4215.63249,0.07268
4217.56096,0.07650
4219.48943,0.08040
4221.41789,0.08158
4223.34636,0.07951
4225.27483,0.07747
4227.20330,0.07844
4229.13177,0.08008
4231.06024,0.08172
4232.98871,0.08283
4234.91718,0.08009
4236.84564,0.07459
4238.77411,0.07078
4240.70258,0.07274
4242.63105,0.07792
4244.55952,0.07882
4246.48799,0.07502
4248.41646,0.07093
4250.34492,0.06836
4252.27339,0.06982
4254.20186,0.07337
4256.13033,0.07222
4258.05880,0.06818
4259.98727,0.06487
4261.91574,0.06323
4263.84421,0.06608
4265.77267,0.07212
4267.70114,0.07508
4269.62961,0.07416
4271.55808,0.07311
4273.48655,0.06982
4275.41502,0.06655
4277.34349,0.06792
4279.27195,0.07035
4281.20042,0.07065
4283.12889,0.06750
4285.05736,0.06059
4286.98583,0.05375
4288.91430,0.05179
4290.84277,0.05391
4292.77124,0.05547
4294.69970,0.05451
4296.62817,0.05263
4298.55664,0.05279
4300.48511,0.05524
4302.41358,0.05678
4304.34205,0.05617
4306.27052,0.05636
4308.19898,0.05923
4310.12745,0.06160
4312.05592,0.05763
4313.98439,0.05066
4315.91286,0.05053
4317.84133,0.05443
4319.76980,0.05729
4321.69827,0.06169
4323.62673,0.06405
4325.55520,0.05943
4327.48367,0.05065
4329.41214,0.04204
4331.34061,0.03716
4333.26908,0.03995
4335.19755,0.04858
4337.12601,0.05417
4339.05448,0.05373
4340.98295,0.05233
4342.91142,0.05231
4344.83989,0.05252
4346.76836,0.05169
4348.69683,0.05077
4350.62530,0.04993
4352.55376,0.04692
4354.48223,0.04229
4356.41070,0.03928
4358.33917,0.03896
4360.26764,0.03562
4362.19611,0.02818
4364.12458,0.02622
4366.05304,0.03083
4367.98151,0.03646
4369.90998,0.04121
4371.83845,0.04107
4373.76692,0.03833
4375.69539,0.03832
4377.62386,0.03859
4379.55232,0.03603
4381.48079,0.02788
4383.40926,0.01997
4385.33773,0.02140
4387.26620,0.02703
4389.19467,0.03010
4391.12314,0.02780
4393.05161,0.02242
4394.98007,0.02273
4396.90854,0.02920
4398.83701,0.03546
4400.76548,0.03931
4402.69395,0.03967
4404.62242,0.03594
4406.55089,0.03162
4408.47935,0.02856
4410.40782,0.02705
4412.33629,0.02755
4414.26476,0.02732
4416.19323,0.02862
4418.12170,0.03206
4420.05017,0.03171
4421.97864,0.03292
4423.90710,0.03958
4425.83557,0.04150
4427.76404,0.03600
4429.69251,0.02987
4431.62098,0.02535
4433.54945,0.02063
4435.47792,0.01706
4437.40638,0.01890
4439.33485,0.02419
4441.26332,0.02610
4443.19179,0.02613
4445.12026,0.02532
4447.04873,0.01906
4448.97720,0.01420
4450.90567,0.01405
4452.83413,0.01475
4454.76260,0.02208
4456.69107,0.03318
4458.61954,0.03699
4460.54801,0.03289
4462.47648,0.02892
4464.40495,0.02975
4466.33341,0.03008
4468.26188,0.02729
4470.19035,0.02578
4472.11882,0.02456
4474.04729,0.01859
4475.97576,0.00888
4477.90423,0.00180
4479.83270,0.00051
4481.76116,0.00316
4483.68963,0.00794
4485.61810,0.01420
4487.54657,0.02031
4489.47504,0.02290
4491.40351,0.02058
4493.33198,0.01652
4495.26044,0.01265
4497.18891,0.01125
4499.11738,0.01449
4501.04585,0.01617
4502.97432,0.01373
4504.90279,0.01327
4506.83126,0.01491
4508.75973,0.01568
4510.68819,0.01449
4512.61666,0.01184
4514.54513,0.01380
4516.47360,0.01879
4518.40207,0.01649
4520.33054,0.00618
4522.25901,-0.00273
4524.18747,-0.00138
4526.11594,0.00564
4528.04441,0.00785
4529.97288,0.00943
4531.90135,0.01348
4533.82982,0.01467
4535.75829,0.01922
4537.68676,0.02895
4539.61522,0.02941
4541.54369,0.01615
4543.47216,0.00256
4545.40063,0.00023
4547.32910,0.00464
4549.25757,0.00273
4551.18604,-0.00293
4553.11450,0.00222
4555.04297,0.01483
4556.97144,0.02130
4558.89991,0.01735
4560.82838,0.00924
4562.75685,0.00981
4564.68532,0.01678
4566.61378,0.01676
4568.54225,0.01106
4570.47072,0.00607
4572.39919,0.00170
4574.32766,-0.00173
4576.25613,-0.00406
4578.18460,-0.00538
4580.11307,-0.00322
4582.04153,0.00241
4583.97000,0.00752
4585.89847,0.00729
4587.82694,0.00521
4589.75541,0.00777
4591.68388,0.00973
4593.61235,0.00575
4595.54081,0.00079
4597.46928,0.00084
4599.39775,0.00263
4601.32622,0.00069
4603.25469,-0.00260
4605.18316,-0.00342
4607.11163,0.00080
4609.04010,0.01117
4610.96856,0.01895
4612.89703,0.01262
4614.82550,0.00136
4616.75397,0.00346
4618.68244,0.01498
4620.61091,0.01767
4622.53938,0.00840
4624.46784,-0.00094
4626.39631,-0.00213
4628.32478,0.00342
4630.25325,0.00755
4632.18172,0.00682
4634.11019,0.00595
4636.03866,0.00255
4637.96713,-0.00003
4639.89559,0.00424
4641.82406,0.00621
4643.75253,-0.00084
4645.68100,-0.00922
4647.60947,-0.00850
4649.53794,-0.00048
4651.46641,0.00244
4653.39487,0.00118
4655.32334,0.00038
4657.25181,-0.00150
4659.18028,0.00181
4661.10875,0.00933
4663.03722,0.01267
4664.96569,0.01247
4666.89416,0.01210
4668.82262,0.01082
4670.75109,0.01099
4672.67956,0.01208
4674.60803,0.00830
4676.53650,-0.00020
4678.46497,-0.00566
4680.39344,-0.00210
4682.32190,0.00451
4684.25037,0.00778
4686.17884,0.01094
4688.10731,0.01197
4690.03578,0.01183
4691.96425,0.01724
4693.89272,0.01998
4695.82119,0.01308
4697.74965,0.00269
4699.67812,-0.00446
4701.60659,-0.00555
4703.53506,-0.00092
4705.46353,0.00610
4707.39200,0.00806
4709.32047,0.00135
4711.24893,-0.00925
4713.17740,-0.01021
4715.10587,0.00280
4717.03434,0.01096
4718.96281,0.00359
4720.89128,-0.00657
4722.81975,-0.00753
4724.74821,-0.00477
4726.67668,-0.00401
4728.60515,0.00064
4730.53362,0.00936
4732.46209,0.01306
4734.39056,0.01021
4736.31903,0.00938
4738.24750,0.01074
4740.17596,0.01169
4742.10443,0.01573
4744.03290,0.02011
4745.96137,0.02118
4747.88984,0.02040
4749.81831,0.01907
4751.74678,0.01813
4753.67524,0.01465
4755.60371,0.00642
4757.53218,0.00123
4759.46065,0.00292
4761.38912,0.01088
4763.31759,0.02154
4765.24606,0.02110
4767.17453,0.01171
4769.10299,0.00905
4771.03146,0.01267
4772.95993,0.01484
4774.88840,0.01854
4776.81687,0.02621
4778.74534,0.02910
4780.67381,0.02416
4782.60227,0.01557
4784.53074,0.00867
4786.45921,0.01073
4788.38768,0.01506
4790.31615,0.01217
4792.24462,0.00968
4794.17309,0.01184
4796.10156,0.01517
4798.03002,0.01857
4799.95849,0.02083
4801.88696,0.02213
4803.81543,0.01919
4805.74390,0.00990
4807.67237,0.00000
4809.60084,-0.00299
4811.52930,0.00233
4813.45777,0.00726
4815.38624,0.00589
4817.31471,0.00475
4819.24318,0.00791
4821.17165,0.00888
4823.10012,0.00656
4825.02859,0.00329
4826.95705,-0.00035
4828.88552,0.00237
4830.81399,0.01151
4832.74246,0.01873
4834.67093,0.01776
4836.59940,0.00513
4838.52787,-0.01169
4840.45633,-0.01471
4842.38480,-0.00459
4844.31327,0.00276
4846.24174,0.00531
4848.17021,0.00327
4850.09868,0.00207
4852.02715,0.00805
4853.95562,0.01041
4855.88408,0.00881
4857.81255,0.00963
4859.74102,0.00784
4861.66949,0.00357
4863.59796,0.00241
4865.52643,0.00567
4867.45490,0.01158
4869.38336,0.01747
4871.31183,0.02258
4873.24030,0.02366
4875.16877,0.01532
4877.09724,0.00516
4879.02571,0.00502
4880.95418,0.00797
4882.88265,0.00448
4884.81111,0.00175
4886.73958,0.00174
4888.66805,-0.00601
4890.59652,-0.01361
4892.52499,-0.00361
4894.45346,0.00942
4896.38193,0.00724
4898.31039,-0.00038
4900.23886,0.00025
4902.16733,0.00699
4904.09580,0.00915
4906.02427,0.00273
4907.95274,-0.00739
4909.88121,-0.01365
4911.80967,-0.01478
4913.73814,-0.01184
4915.66661,-0.00697
4917.59508,-0.00674
4919.52355,-0.00536
4921.45202,0.00028
4923.38049,-0.00039
4925.30896,-0.00262
4927.23742,0.00509
4929.16589,0.01415
4931.09436,0.01194
4933.02283,0.00489
4934.95130,0.00491
4936.87977,0.00937
4938.80824,0.00748
4940.73670,0.00119
4942.66517,0.00196
4944.59364,0.00434
4946.52211,0.00352
4948.45058,0.00954
4950.37905,0.01789
4952.30752,0.01999
4954.23599,0.01767
4956.16445,0.01093
4958.09292,0.00360
4960.02139,0.00046
4961.94986,-0.00043
4963.87833,0.00188
4965.80680,0.00707
4967.73527,0.00872
4969.66373,0.00468
4971.59220,-0.00092
4973.52067,-0.00138
4975.44914,0.00451
4977.37761,0.01180
4979.30608,0.01914
4981.23455,0.02022
4983.16302,0.01190
4985.09148,0.01043
4987.01995,0.02016
4988.94842,0.02512
4990.87689,0.02404
4992.80536,0.01984
4994.73383,0.01313
4996.66230,0.01223
4998.59076,0.01355
5000.51923,0.01172
5002.44770,0.00779
5004.37617,0.00569
5006.30464,0.01242
5008.23311,0.02447
5010.16158,0.02980
5012.09005,0.02353
5014.01851,0.01664
5015.94698,0.01589
5017.87545,0.01590
5019.80392,0.01745
5021.73239,0.02372
5023.66086,0.03094
5025.58933,0.03261
5027.51779,0.02626
5029.44626,0.01650
5031.37473,0.01053
5033.30320,0.01140
5035.23167,0.01720
5037.16014,0.02498
5039.08861,0.02988
5041.01708,0.02742
5042.94554,0.02061
5044.87401,0.01766
5046.80248,0.02079
5048.73095,0.01992
5050.65942,0.00940
5052.58789,0.00169
5054.51636,0.00311
5056.44482,0.00182
5058.37329,-0.00582
5060.30176,-0.00956
5062.23023,-0.00392
5064.15870,0.01421
5066.08717,0.03526
5068.01564,0.03403
5069.94410,0.01986
5071.87257,0.01653
5073.80104,0.01662
5075.72951,0.01573
5077.65798,0.02282
5079.58645,0.03100
5081.51492,0.02584
5083.44339,0.01399
5085.37185,0.01090
5087.30032,0.02010
5089.22879,0.03867
5091.15726,0.05685
5093.08573,0.05755
5095.01420,0.03918
5096.94267,0.02133
5098.87113,0.01721
5100.79960,0.02168
5102.72807,0.02332
5104.65654,0.02286
5106.58501,0.02614
5108.51348,0.03004
5110.44195,0.03703
5112.37042,0.04737
5114.29888,0.05354
5116.22735,0.04805
5118.15582,0.03230
5120.08429,0.01913
5122.01276,0.01333
5123.94123,0.01597
5125.86970,0.02478
5127.79816,0.03030
5129.72663,0.03283
5131.65510,0.03443
5133.58357,0.02610
5135.51204,0.01446
5137.44051,0.01789
5139.36898,0.03147
5141.29745,0.04341
5143.22591,0.04729
5145.15438,0.03999
5147.08285,0.03218
5149.01132,0.03506
5150.93979,0.04529
5152.86826,0.04904
5154.79673,0.03971
5156.72519,0.03086
5158.65366,0.03349
5160.58213,0.03534
5162.51060,0.02681
5164.43907,0.01450
5166.36754,0.01570
5168.29601,0.03029
5170.22448,0.03264
5172.15294,0.02324
5174.08141,0.02398
5176.00988,0.03482
5177.93835,0.03830
5179.86682,0.02546
5181.79529,0.02221
5183.72376,0.04984
5185.65222,0.07832
5187.58069,0.07480
5189.50916,0.05433
5191.43763,0.03464
5193.36610,0.02007
5195.29457,0.02748
5197.22304,0.05770
5199.15151,0.07806
5201.07997,0.06873
5203.00844,0.04172
5204.93691,0.01997
5206.86538,0.01483
5208.79385,0.02264
5210.72232,0.04253
5212.65079,0.06412
5214.57925,0.07899
5216.50772,0.08199
5218.43619,0.05377
5220.36466,0.01442
5222.29313,0.00868
5224.22160,0.02771
5226.15007,0.04187
5228.07854,0.04776
5230.00700,0.05708
5231.93547,0.06569
5233.86394,0.06026
5235.79241,0.04746
5237.72088,0.04196
5239.64935,0.04633
5241.57782,0.06190
5243.50628,0.08749
5245.43475,0.10077
5247.36322,0.08525
5249.29169,0.06380
5251.22016,0.06368
5253.14863,0.07185
5255.07710,0.06400
5257.00556,0.05142
5258.93403,0.05478
5260.86250,0.07035
5262.79097,0.08803
5264.71944,0.09300
5266.64791,0.08033
5268.57638,0.06280
5270.50485,0.04771
5272.43331,0.03984
5274.36178,0.04115
5276.29025,0.04296
5278.21872,0.03527
5280.14719,0.02189
5282.07566,0.01914
5284.00413,0.03107
5285.93259,0.03581
5287.86106,0.02975
5289.78953,0.03430
5291.71800,0.04714
5293.64647,0.05768
5295.57494,0.06205
5297.50341,0.05322
5299.43188,0.04402
5301.36034,0.04779
5303.28881,0.05391
5305.21728,0.05350
5307.14575,0.04907
5309.07422,0.04751
5311.00269,0.05106
5312.93116,0.05399
5314.85962,0.05332
5316.78809,0.05431
5318.71656,0.05712
5320.64503,0.05254
5322.57350,0.04982
5324.50197,0.05945
5326.43044,0.06595
5328.35891,0.05959
5330.28737,0.05464
5332.21584,0.06169
5334.14431,0.07778
5336.07278,0.09602
5338.00125,0.09618
5339.92972,0.06718
5341.85819,0.04203
5343.78665,0.03645
5345.71512,0.02955
5347.64359,0.02061
5349.57206,0.03445
5351.50053,0.06137
5353.42900,0.06594
5355.35747,0.04230
5357.28594,0.02220
5359.21440,0.02142
5361.14287,0.03018
5363.07134,0.03610
5364.99981,0.04311
5366.92828,0.06205
5368.85675,0.08465
5370.78522,0.09112
5372.71368,0.08174
5374.64215,0.08170
5376.57062,0.09617
5378.49909,0.09441
5380.42756,0.07189
5382.35603,0.04360
5384.28450,0.02590
5386.21297,0.03495
5388.14143,0.05932
5390.06990,0.07834
5391.99837,0.09669
5393.92684,0.11722
5395.85531,0.11550
5397.78378,0.08241
5399.71225,0.04109
5401.64071,0.02615
5403.56918,0.05082
5405.49765,0.08138
5407.42612,0.09096
5409.35459,0.09101
5411.28306,0.08901
5413.21153,0.08573
5415.13999,0.08926
5417.06846,0.09342
5418.99693,0.08952
5420.92540,0.07666
5422.85387,0.06040
5424.78234,0.06305
5426.71081,0.08748
5428.63928,0.09030
5430.56774,0.07186
5432.49621,0.07687
5434.42468,0.09802
5436.35315,0.10595
5438.28162,0.08802
5440.21009,0.06348
5442.13856,0.06541
5444.06702,0.08047
5445.99549,0.07791
5447.92396,0.06913
5449.85243,0.07582
5451.78090,0.08370
5453.70937,0.07939
5455.63784,0.08203
5457.56631,0.10207
5459.49477,0.10648
5461.42324,0.08436
5463.35171,0.06271
5465.28018,0.05525
5467.20865,0.06107
5469.13712,0.06491
5471.06559,0.05973
5472.99405,0.06856
5474.92252,0.09644
5476.85099,0.11573
5478.77946,0.11958
5480.70793,0.11606
5482.63640,0.09569
5484.56487,0.05918
5486.49334,0.03682
5488.42180,0.05294
5490.35027,0.07399
5492.27874,0.05472
5494.20721,0.02369
5496.13568,0.03048
5498.06415,0.06738
5499.99262,0.09588
5501.92108,0.09197
5503.84955,0.07403
5505.77802,0.07314
5507.70649,0.08585
5509.63496,0.08391
5511.56343,0.07521
5513.49190,0.07705
5515.42037,0.07034
5517.34883,0.05257
5519.27730,0.04872
5521.20577,0.05788
5523.13424,0.06994
5525.06271,0.09156
5526.99118,0.11417
5528.91965,0.10456
5530.84811,0.07087
5532.77658,0.05471
5534.70505,0.05959
5536.63352,0.06867
5538.56199,0.07172
5540.49046,0.07033
5542.41893,0.06657
5544.34740,0.06174
5546.27586,0.05796
5548.20433,0.05772
5550.13280,0.06627
5552.06127,0.06767
5553.98974,0.05402
5555.91821,0.04424
5557.84668,0.04650
5559.77514,0.06033
5561.70361,0.08266
5563.63208,0.09454
5565.56055,0.08563
5567.48902,0.06909
5569.41749,0.05865
5571.34596,0.06433
5573.27443,0.08042
5575.20289,0.09185
5577.13136,0.10113
5579.05983,0.10688
5580.98830,0.10584
5582.91677,0.09567
5584.84524,0.06681
5586.77371,0.03847
5588.70217,0.04416
5590.63064,0.07341
5592.55911,0.09188
5594.48758,0.09636
5596.41605,0.10379
5598.34452,0.11324
5600.27299,0.10657
5602.20145,0.08425
5604.12992,0.06340
5606.05839,0.04551
5607.98686,0.02770
5609.91533,0.02783
5611.84380,0.05481
5613.77227,0.08229
5615.70074,0.09877
5617.62920,0.11726
5619.55767,0.12259
5621.48614,0.10656
5623.41461,0.09842
5625.34308,0.10817
5627.27155,0.11919
5629.20002,0.11124
5631.12848,0.08612
5633.05695,0.07232
5634.98542,0.08468
5636.91389,0.11111
5638.84236,0.12820
5640.77083,0.12946
5642.69930,0.12298
5644.62777,0.11505
5646.55623,0.11650
5648.48470,0.11453
5650.41317,0.08358
5652.34164,0.04671
5654.27011,0.04317
5656.19858,0.05716
5658.12705,0.06266
5660.05551,0.07345
5661.98398,0.09041
5663.91245,0.09795
5665.84092,0.09643
5667.76939,0.08407
5669.69786,0.06878
5671.62633,0.07073
5673.55480,0.09185
5675.48326,0.10563
5677.41173,0.08770
5679.34020,0.06246
5681.26867,0.06626
5683.19714,0.10251
5685.12561,0.13984
5687.05408,0.14391
5688.98254,0.12630
5690.91101,0.10797
5692.83948,0.09315
5694.76795,0.09113
5696.69642,0.09174
5698.62489,0.08150
5700.55336,0.08014
5702.48183,0.11026
5704.41029,0.14881
5706.33876,0.15719
5708.26723,0.13234
5710.19570,0.09103
5712.12417,0.05664
5714.05264,0.04916
5715.98111,0.06440
5717.90957,0.08221
5719.83804,0.08663
5721.76651,0.08563
5723.69498,0.08380
5725.62345,0.07976
5727.55192,0.09421
5729.48039,0.10939
5731.40886,0.08731
5733.33732,0.05317
5735.26579,0.05044
5737.19426,0.08593
5739.12273,0.11792
5741.05120,0.11944
5742.97967,0.11026
5744.90814,0.09498
5746.83660,0.07591
5748.76507,0.06761
5750.69354,0.06102
5752.62201,0.05728
5754.55048,0.07010
5756.47895,0.08376
5758.40742,0.08523
5760.33588,0.08876
5762.26435,0.10690
5764.19282,0.11135
5766.12129,0.08776
5768.04976,0.07456
5769.97823,0.08367
5771.90670,0.10768
5773.83517,0.12798
5775.76363,0.11869
5777.69210,0.09773
5779.62057,0.08539
5781.54904,0.07672
5783.47751,0.08008
5785.40598,0.10748
5787.33445,0.13353
5789.26291,0.12603
5791.19138,0.10122
5793.11985,0.09652
5795.04832,0.11279
5796.97679,0.11093
5798.90526,0.08756
5800.83373,0.06657
5802.76220,0.05512
5804.69066,0.06432
5806.61913,0.07434
5808.54760,0.06704
5810.47607,0.06051
5812.40454,0.04941
5814.33301,0.02972
5816.26148,0.02171
5818.18994,0.03646
5820.11841,0.06747
5822.04688,0.08811
5823.97535,0.08798
5825.90382,0.09231
5827.83229,0.10719
5829.76076,0.10814
5831.68923,0.09393
5833.61769,0.07690
5835.54616,0.05772
5837.47463,0.05297
5839.40310,0.06726
5841.33157,0.08132
5843.26004,0.08583
5845.18851,0.09092
5847.11697,0.10941
5849.04544,0.12443
5850.97391,0.12411
5852.90238,0.11714
5854.83085,0.09197
5856.75932,0.05674
5858.68779,0.03920
5860.61626,0.04739
5862.54472,0.06113
5864.47319,0.04965
5866.40166,0.03309
5868.33013,0.05028
5870.25860,0.07879
5872.18707,0.08316
5874.11554,0.08540
5876.04400,0.12301
5877.97247,0.16030
5879.90094,0.14622
5881.82941,0.11209
5883.75788,0.09759
5885.68635,0.09438
5887.61482,0.09311
5889.54329,0.09858
5891.47175,0.10845
5893.40022,0.10864
5895.32869,0.10109
5897.25716,0.11348
5899.18563,0.14225
5901.11410,0.13999
5903.04257,0.09253
5904.97103,0.04295
5906.89950,0.03084
5908.82797,0.05368
5910.75644,0.08363
5912.68491,0.11320
5914.61338,0.13627
5916.54185,0.13964
5918.47032,0.13352
5920.39878,0.13219
5922.32725,0.13464
5924.25572,0.12768
5926.18419,0.10257
5928.11266,0.07523
5930.04113,0.06645
5931.96960,0.08208
5933.89806,0.11439
5935.82653,0.12667
5937.75500,0.09775
5939.68347,0.07237
5941.61194,0.08743
5943.54041,0.10818
5945.46888,0.10594
5947.39734,0.10681
5949.32581,0.11211
5951.25428,0.09176
5953.18275,0.05346
5955.11122,0.03155
5957.03969,0.03435
5958.96816,0.04915
5960.89663,0.06989
5962.82509,0.08151
5964.75356,0.08237
5966.68203,0.10180
5968.61050,0.13158
5970.53897,0.13154
5972.46744,0.11363
5974.39591,0.10523
5976.32437,0.07925
5978.25284,0.02628
5980.18131,0.00746
5982.10978,0.05754
5984.03825,0.11806
5985.96672,0.13434
5987.89519,0.12474
5989.82366,0.10444
5991.75212,0.08869
5993.68059,0.10026
5995.60906,0.12284
5997.53753,0.14264
5999.46600,0.14407
6001.39447,0.11878
6003.32294,0.10502
6005.25140,0.11383
6007.17987,0.10297
6009.10834,0.07674
6011.03681,0.08190
6012.96528,0.10411
6014.89375,0.11568
6016.82222,0.12919
6018.75069,0.12235
6020.67915,0.07780
6022.60762,0.05709
6024.53609,0.09150
6026.46456,0.10700
6028.39303,0.05834
6030.32150,0.01792
6032.24997,0.02871
6034.17843,0.04749
6036.10690,0.04514
6038.03537,0.05395
6039.96384,0.09274
6041.89231,0.11161
6043.82078,0.08301
6045.74925,0.05653
6047.67772,0.05526
6049.60618,0.04997
6051.53465,0.04361
6053.46312,0.05045
6055.39159,0.08589
6057.32006,0.15806
6059.24853,0.18691
6061.17700,0.13113
6063.10546,0.06951
6065.03393,0.03689
6066.96240,0.01411
6068.89087,0.02661
6070.81934,0.06118
6072.74781,0.06076
6074.67628,0.02678
6076.60475,0.01204
6078.53321,0.04904
6080.46168,0.10210
6082.39015,0.13661
6084.31862,0.15782
6086.24709,0.13795
6088.17556,0.09264
6090.10403,0.06880
6092.03249,0.02411
6093.96096,-0.02553
6095.88943,-0.00761
6097.81790,0.03085
6099.74637,0.04674
6101.67484,0.07330
6103.60331,0.09231
6105.53177,0.06705
6107.46024,0.03673
6109.38871,0.05233
6111.31718,0.09554
6113.24565,0.13487
6115.17412,0.14124
6117.10259,0.09837
6119.03106,0.06032
6120.95952,0.06480
6122.88799,0.06816
6124.81646,0.05816
6126.74493,0.07102
6128.67340,0.10107
6130.60187,0.08774
6132.53034,0.05405
6134.45880,0.05201
6136.38727,0.05709
6138.31574,0.07199
6140.24421,0.11373
6142.17268,0.13342
6144.10115,0.10912
6146.02962,0.08079
6147.95809,0.07604
6149.88655,0.08710
6151.81502,0.08067
6153.74349,0.05054
6155.67196,0.02185
6157.60043,-0.00200
6159.52890,-0.01396
6161.45737,0.01095
6163.38583,0.06461
6165.31430,0.08956
6167.24277,0.07502
6169.17124,0.06253
6171.09971,0.05730
6173.02818,0.05658
6174.95665,0.05868
6176.88512,0.05776
6178.81358,0.06832
6180.74205,0.08652
6182.67052,0.09128
6184.59899,0.09644
6186.52746,0.11908
6188.45593,0.10274
6190.38440,0.02997
6192.31286,0.00960
6194.24133,0.05584
6196.16980,0.07231
6198.09827,0.05309
6200.02674,0.04814
6201.95521,0.04561
6203.88368,0.04104
6205.81215,0.06571
6207.74061,0.09727
6209.66908,0.09165
6211.59755,0.07222
6213.52602,0.07163
6215.45449,0.07612
6217.38296,0.08477
6219.31143,0.08978
6221.23989,0.07137
6223.16836,0.05848
6225.09683,0.07910
6227.02530,0.08600
6228.95377,0.05530
6230.88224,0.05105
6232.81071,0.10676
6234.73918,0.13346
6236.66764,0.09874
6238.59611,0.06824
6240.52458,0.08564
6242.45305,0.13679
6244.38152,0.15235
6246.30999,0.12575
6248.23846,0.09947
6250.16692,0.07740
6252.09539,0.07201
6254.02386,0.08958
6255.95233,0.11066
6257.88080,0.09149
6259.80927,0.04045
6261.73774,0.02351
6263.66621,0.05330
6265.59467,0.08339
6267.52314,0.08553
6269.45161,0.10091
6271.38008,0.14144
6273.30855,0.16748
6275.23702,0.16759
6277.16549,0.14947
6279.09395,0.12049
6281.02242,0.09786
6282.95089,0.06640
6284.87936,0.02877
6286.80783,0.01936
6288.73630,0.02469
6290.66477,0.05494
6292.59323,0.13610
6294.52170,0.20620
6296.45017,0.20122
6298.37864,0.14243
6300.30711,0.08452
6302.23558,0.05662
6304.16405,0.05108
6306.09252,0.05938
6308.02098,0.08026
6309.94945,0.08447
6311.87792,0.06936
6313.80639,0.08189
6315.73486,0.12295
6317.66333,0.13560
6319.59180,0.09700
6321.52026,0.06396
6323.44873,0.08324
6325.37720,0.10373
6327.30567,0.06757
6329.23414,0.01988
6331.16261,0.04217
6333.09108,0.09977
6335.01955,0.11922
6336.94801,0.11877
6338.87648,0.11899
6340.80495,0.11451
6342.73342,0.13007
6344.66189,0.15620
6346.59036,0.16672
6348.51883,0.15567
6350.44729,0.11416
6352.37576,0.07095
6354.30423,0.04401
6356.23270,0.01698
6358.16117,0.00886
6360.08964,0.02032
6362.01811,-0.00161
6363.94658,-0.03452
6365.87504,-0.01523
6367.80351,0.02409
6369.73198,0.07601
6371.66045,0.15363
6373.58892,0.17209
6375.51739,0.11649
6377.44586,0.08499
6379.37432,0.10552
6381.30279,0.13091
6383.23126,0.11714
6385.15973,0.06963
6387.08820,0.04367
6389.01667,0.04886
6390.94514,0.03339
6392.87361,-0.00603
6394.80207,0.01010
6396.73054,0.06026
6398.65901,0.08341
6400.58748,0.09502
6402.51595,0.09663
6404.44442,0.08283
6406.37289,0.09540
6408.30135,0.14127
6410.22982,0.16421
6412.15829,0.13661
6414.08676,0.09006
6416.01523,0.06078
6417.94370,0.04295
6419.87217,0.02085
6421.80064,0.02663
6423.72910,0.07756
6425.65757,0.10536
6427.58604,0.05964
6429.51451,0.01246
6431.44298,0.03443
6433.37145,0.09887
6435.29992,0.15968
6437.22838,0.18403
6439.15685,0.15279
6441.08532,0.10815
6443.01379,0.08380
6444.94226,0.08624
6446.87073,0.10068
6448.79920,0.09053
6450.72766,0.06000
6452.65613,0.05104
6454.58460,0.06599
6456.51307,0.08315
6458.44154,0.07463
6460.37001,0.02519
6462.29848,-0.00304
6464.22695,0.03580
6466.15541,0.08204
6468.08388,0.11460
6470.01235,0.11371
6471.94082,0.04012
6473.86929,-0.02391
6475.79776,-0.01717
6477.72623,0.01847
6479.65469,0.05826
6481.58316,0.11719
6483.51163,0.15315
6485.44010,0.14313
6487.36857,0.10934
6489.29704,0.05454
6491.22551,0.00852
6493.15398,0.01578
6495.08244,0.05657
6497.01091,0.08197
6498.93938,0.08195
6500.86785,0.05118
6502.79632,0.01758
6504.72479,0.05034
6506.65326,0.10384
6508.58172,0.08004
6510.51019,0.01167
6512.43866,0.00306
6514.36713,0.04123
6516.29560,0.06870
6518.22407,0.10817
6520.15254,0.15273
6522.08101,0.15184
6524.00947,0.09939
6525.93794,0.04303
6527.86641,0.02545
6529.79488,0.02193
6531.72335,-0.01643
6533.65182,-0.06977
6535.58029,-0.06635
6537.50875,0.00987
6539.43722,0.07713
6541.36569,0.07688
6543.29416,0.07638
6545.22263,0.11994
6547.15110,0.15182
6549.07957,0.14695
6551.00804,0.12277
6552.93650,0.10036
6554.86497,0.10404
6556.79344,0.10793
6558.72191,0.07549
6560.65038,0.05734
6562.57885,0.05370
6564.50732,0.01498
6566.43578,0.01125
6568.36425,0.08636
6570.29272,0.16807
6572.22119,0.20902
6574.14966,0.20177
6576.07813,0.15193
6578.00660,0.09626
6579.93507,0.08061
6581.86353,0.07631
6583.79200,0.03880
6585.72047,-0.01299
6587.64894,-0.04988
6589.57741,-0.03985
6591.50588,-0.00288
6593.43435,0.02113
6595.36281,0.03431
6597.29128,0.00175
6599.21975,-0.04851
6601.14822,-0.00665
6603.07669,0.06133
6605.00516,0.02993
6606.93363,-0.03621
6608.86210,-0.04314
6610.79056,0.00036
6612.71903,0.07359
6614.64750,0.13161
6616.57597,0.07584
6618.50444,-0.04226
6620.43291,-0.05754
6622.36138,0.02311
6624.28984,0.07800
6626.21831,0.06297
6628.14678,0.04066
6630.07525,0.05756
6632.00372,0.07386
6633.93219,0.07474
6635.86066,0.08597
6637.78912,0.09082
6639.71759,0.05852
6641.64606,0.00122
6643.57453,-0.02872
6645.50300,0.02393
6647.43147,0.11143
6649.35994,0.11063
6651.28841,0.04839
6653.21687,0.05066
6655.14534,0.12996
6657.07381,0.17671
6659.00228,0.14541
6660.93075,0.09952
6662.85922,0.07421
6664.78769,0.06424
6666.71615,0.03830
6668.64462,0.01749
6670.57309,0.06429
6672.50156,0.13569
6674.43003,0.12379
6676.35850,0.01458
6678.28697,-0.07664
6680.21544,-0.06652
6682.14390,-0.03200
6684.07237,-0.05175
6686.00084,-0.09734
6687.92931,-0.10031
6689.85778,-0.07223
6691.78625,-0.05022
6693.71472,0.00411
6695.64318,0.09591
6697.57165,0.16182
6699.50012,0.14999
6701.42859,0.10766
6703.35706,0.07997
6705.28553,0.02366
6707.21400,0.00224
6709.14247,0.09820
6711.07093,0.17592
6712.99940,0.16985
6714.92787,0.12692
6716.85634,0.04908
6718.78481,-0.02124
6720.71328,-0.04985
6722.64175,-0.07460
6724.57021,-0.04895
6726.49868,0.04470
6728.42715,0.10346
6730.35562,0.08008
6732.28409,0.05365
6734.21256,0.06028
6736.14103,0.03268
6738.06950,-0.02173
6739.99796,-0.02545
6741.92643,0.05169
6743.85490,0.12406
6745.78337,0.10275
6747.71184,0.03913
6749.64031,0.01734
6751.56878,0.03424
6753.49724,0.05447
6755.42571,0.05922
6757.35418,0.10810
6759.28265,0.23664
6761.21112,0.28844
6763.13959,0.20323
6765.06806,0.14053
6766.99653,0.13427
6768.92499,0.12786
6770.85346,0.13877
6772.78193,0.18155
6774.71040,0.19192
6776.63887,0.13899
6778.56734,0.08126
6780.49581,0.02022
6782.42427,-0.03541
6784.35274,-0.02003
6786.28121,0.06650
6788.20968,0.15836
6790.13815,0.17802
6792.06662,0.10096
6793.99509,0.03002
6795.92355,0.02276
6797.85202,0.05021
6799.78049,0.09753
6801.70896,0.13359
6803.63743,0.14203
6805.56590,0.13547
6807.49437,0.09293
6809.42284,0.06835
6811.35130,0.10582
6813.27977,0.11100
6815.20824,0.03743
6817.13671,-0.03289
6819.06518,-0.05148
6820.99365,-0.01921
6822.92212,0.08277
6824.85058,0.17089
6826.77905,0.15093
6828.70752,0.05543
6830.63599,0.00057
6832.56446,0.03366
6834.49293,0.07910
6836.42140,0.10230
6838.34987,0.11688
6840.27833,0.10798
6842.20680,0.06606
6844.13527,0.01633
6846.06374,-0.01384
6847.99221,-0.02332
6849.92068,-0.00750
6851.84915,0.01685
6853.77761,-0.00540
6855.70608,-0.05809
6857.63455,-0.05420
6859.56302,0.01078
6861.49149,0.07864
6863.41996,0.06922
6865.34843,-0.01340
6867.27690,-0.05597
6869.20536,-0.01159
6871.13383,0.05091
6873.06230,0.07293
6874.99077,0.05815
6876.91924,0.04060
6878.84771,-0.00092
6880.77618,-0.03482
6882.70464,0.04610
6884.63311,0.18155
6886.56158,0.23977
6888.49005,0.19052
6890.41852,0.10621
6892.34699,0.05356
6894.27546,0.04844
6896.20393,0.09210
6898.13239,0.09540
6900.06086,0.03933
6901.98933,0.04408
6903.91780,0.11427
6905.84627,0.20143
6907.77474,0.25546
6909.70321,0.25082
6911.63167,0.22174
6913.56014,0.13474
6915.48861,-0.05864
6917.41708,-0.24628
6919.34555,-0.24197
6921.27402,-0.10544
6923.20249,-0.02001
6925.13096,0.04347
6927.05942,0.13706
6928.98789,0.24168
6930.91636,0.30062
6932.84483,0.25920
6934.77330,0.18659
6936.70177,0.14867
6938.63024,0.11399
6940.55870,0.07385
6942.48717,0.08242
6944.41564,0.10645
6946.34411,0.06215
6948.27258,0.01837
6950.20105,0.07629
6952.12952,0.16817
6954.05799,0.17438
6955.98645,0.07284
6957.91492,0.01062
6959.84339,0.02557
6961.77186,0.04232
6963.70033,0.04592
6965.62880,0.03144
6967.55727,0.01895
6969.48573,0.07110
6971.41420,0.13896
6973.34267,0.10839
6975.27114,0.05790
6977.19961,0.09404
6979.12808,0.10259
6981.05655,0.02000
6982.98501,-0.01021
6984.91348,0.07320
6986.84195,0.12986
6988.77042,0.15330
6990.69889,0.13315
6992.62736,0.03929
6994.55583,0.01185
6996.48430,0.11099
6998.41276,0.21599
7000.34123,0.23239
7002.26970,0.15926
7004.19817,0.08614
7006.12664,0.05655
7008.05511,-0.01593
7009.98358,-0.08313
7011.91204,-0.05152
7013.84051,-0.01527
7015.76898,-0.03382
7017.69745,0.01941
7019.62592,0.17145
7021.55439,0.24840
7023.48286,0.15329
7025.41133,0.02848
7027.33979,-0.01182
7029.26826,0.02162
7031.19673,0.06493
7033.12520,0.05377
7035.05367,0.02440
7036.98214,0.03508
7038.91061,0.03405
7040.83907,-0.02284
7042.76754,-0.03849
7044.69601,0.04969
7046.62448,0.08951
7048.55295,0.01790
7050.48142,-0.00761
7052.40989,0.10730
7054.33836,0.24504
7056.26682,0.30149
7058.19529,0.26014
7060.12376,0.16759
7062.05223,0.08558
7063.98070,0.02426
7065.90917,0.02864
7067.83764,0.04059
7069.76610,0.03569
7071.69457,0.11052
7073.62304,0.14623
7075.55151,0.05174
7077.47998,-0.04590
7079.40845,-0.04297
7081.33692,0.02680
7083.26539,0.02265
7085.19385,0.00414
7087.12232,0.09805
7089.05079,0.19821
7090.97926,0.18787
7092.90773,0.15381
7094.83620,0.14262
7096.76467,0.17135
7098.69313,0.21715
7100.62160,0.21141
7102.55007,0.18238
7104.47854,0.12410
7106.40701,0.07637
7108.33548,0.09663
7110.26395,0.09492
7112.19242,0.10399
7114.12088,0.15092
7116.04935,0.10162
7117.97782,-0.06602
7119.90629,-0.19399
7121.83476,-0.23746
7123.76323,-0.22124
7125.69170,-0.14663
7127.62016,-0.03402
7129.54863,0.10052
7131.47710,0.19745
7133.40557,0.18199
7135.33404,0.12971
7137.26251,0.11238
7139.19098,0.05988
7141.11944,-0.03412
7143.04791,-0.08146
7144.97638,-0.08757
7146.90485,-0.06111
7148.83332,-0.01469
7150.76179,-0.00362
7152.69026,0.02670
7154.61873,0.12274
7156.54719,0.19743
7158.47566,0.22527
7160.40413,0.22283
7162.33260,0.20765
7164.26107,0.20872
7166.18954,0.18350
7168.11801,0.14677
7170.04647,0.22181
7171.97494,0.32625
7173.90341,0.30711
7175.83188,0.19976
7177.76035,0.08665
7179.68882,0.06421
7181.61729,0.12435
7183.54576,0.07339
7185.47422,-0.11712
7187.40269,-0.24118
7189.33116,-0.21701
7191.25963,-0.07275
7193.18810,0.04234
7195.11657,0.08206
7197.04504,0.13390
7198.97350,0.17073
7200.90197,0.14751
7202.83044,0.13564
7204.75891,0.23235
7206.68738,0.30521
7208.61585,0.26854
7210.54432,0.26285
7212.47279,0.26338
7214.40125,0.13736
7216.32972,-0.08122
7218.25819,-0.16531
7220.18666,-0.06549
7222.11513,0.01067
7224.04360,0.03396
7225.97207,0.10161
7227.90053,0.16368
7229.82900,0.14044
7231.75747,0.19031
7233.68594,0.33744
7235.61441,0.35268
7237.54288,0.19938
7239.47135,0.07970
7241.39982,0.04975
7243.32828,-0.01429
7245.25675,-0.06294
7247.18522,-0.01571
7249.11369,0.07591
7251.04216,0.12198
7252.97063,0.08528
7254.89910,0.03997
7256.82756,0.03696
7258.75603,0.08121
7260.68450,0.19407
7262.61297,0.33453
7264.54144,0.35344
7266.46991,0.24951
7268.39838,0.13054
7270.32685,0.02492
7272.25531,0.04628
7274.18378,0.18628
7276.11225,0.25039
7278.04072,0.19210
7279.96919,-0.01219
7281.89766,-0.17335
7283.82613,-0.13457
7285.75459,-0.03217
7287.68306,0.01847
7289.61153,0.06395
7291.54000,0.09505
7293.46847,0.01771
7295.39694,-0.06766
7297.32541,-0.04151
7299.25387,-0.02495
7301.18234,-0.09410
7303.11081,-0.10246
7305.03928,0.02165
7306.96775,0.11338
7308.89622,0.10291
7310.82469,0.08625
7312.75316,0.08265
7314.68162,0.12075
7316.61009,0.20967
7318.53856,0.18738
7320.46703,0.06545
7322.39550,0.04921
7324.32397,0.15612
7326.25244,0.24310
7328.18090,0.22772
7330.10937,0.08690
7332.03784,-0.05256
7333.96631,-0.15545
7335.89478,-0.16026
7337.82325,-0.03507
7339.75172,0.06900
7341.68019,0.00700
7343.60865,-0.00416
7345.53712,0.13817
7347.46559,0.25484
7349.39406,0.15999
7351.32253,0.06823
7353.25100,0.14518
7355.17947,0.25141
7357.10793,0.29896
7359.03640,0.35027
7360.96487,0.39960
7362.89334,0.39904
7364.82181,0.40288
7366.75028,0.35503
7368.67875,0.17642
7370.60722,-0.01363
7372.53568,-0.11598
7374.46415,-0.09299
7376.39262,0.09546
7378.32109,0.20825
7380.24956,0.14968
7382.17803,-0.00018
7384.10650,-0.09512
7386.03496,-0.03473
7387.96343,0.10125
7389.89190,0.11275
7391.82037,0.01529
7393.74884,-0.05760
7395.67731,-0.09322
7397.60578,-0.05784
7399.53425,0.02887
7401.46271,0.03806
7403.39118,0.00734
7405.31965,0.01775
7407.24812,0.00117
7409.17659,-0.05657
7411.10506,-0.03476
7413.03353,0.04976
7414.96199,0.03880
7416.89046,-0.02758
7418.81893,0.05652
7420.74740,0.13390
7422.67587,0.04165
7424.60434,0.04246
7426.53281,0.12300
7428.46128,0.12992
7430.38974,0.12347
7432.31821,0.15305
7434.24668,0.12952
7436.17515,0.06153
7438.10362,0.05406
7440.03209,0.09064
7441.96056,0.06015
7443.88902,0.02648
7445.81749,0.04768
7447.74596,0.08143
7449.67443,0.12204
7451.60290,0.11949
7453.53137,0.01856
7455.45984,-0.04397
7457.38831,-0.02024
7459.31677,-0.01605
7461.24524,-0.09689
7463.17371,-0.15888
7465.10218,-0.07988
7467.03065,0.08869
7468.95912,0.15343
7470.88759,0.07883
7472.81605,0.00204
7474.74452,-0.00287
7476.67299,0.04646
7478.60146,0.18853
7480.52993,0.31550
7482.45840,0.26828
7484.38687,0.11889
7486.31533,0.02194
7488.24380,0.08557
7490.17227,0.15433
7492.10074,0.03311
7494.02921,-0.10236
7495.95768,-0.13945
7497.88615,-0.07469
