399.19301,-0.05305
401.12148,0.13273
403.04995,0.28245
404.97842,0.24490
406.90689,0.15689
408.83536,0.13601
410.76382,0.09784
412.69229,0.07672
414.62076,0.17959
416.54923,0.29828
418.47770,0.28263
420.40617,0.13920
422.33464,0.06759
424.26311,0.04939
426.19157,0.02954
428.12004,0.03995
430.04851,0.07912
431.97698,0.08600
433.90545,0.08556
435.83392,0.11184
437.76239,0.14810
439.69085,0.19665
441.61932,0.17700
443.54779,0.08800
445.47626,0.07633
447.40473,0.07389
449.33320,0.01769
451.26167,-0.02264
453.19013,-0.03420
455.11860,-0.03263
457.04707,0.01211
458.97554,0.09606
460.90401,0.12366
462.83248,0.08912
464.76095,0.05134
466.68942,0.03314
468.61788,0.03373
470.54635,0.04693
472.47482,0.07432
474.40329,0.12834
476.33176,0.13878
478.26023,0.12407
480.18870,0.11852
482.11716,0.09256
484.04563,0.06552
485.97410,0.06904
487.90257,0.06565
489.83104,0.04652
491.75951,0.03873
493.68798,0.06320
495.61645,0.11008
497.54491,0.14990
499.47338,0.15753
501.40185,0.12851
503.33032,0.10173
505.25879,0.10415
507.18726,0.09953
509.11573,0.06133
511.04419,0.03017
512.97266,0.04918
514.90113,0.09939
516.82960,0.11343
518.75807,0.07832
520.68654,0.07504
522.61501,0.12209
524.54348,0.15543
526.47194,0.15010
528.40041,0.13050
530.32888,0.10819
532.25735,0.11279
534.18582,0.14295
536.11429,0.13930
538.04276,0.11623
539.97122,0.12752
541.89969,0.13054
543.82816,0.09008
545.75663,0.05827
547.68510,0.06268
549.61357,0.07250
551.54204,0.07230
553.47051,0.07088
555.39897,0.07641
557.32744,0.11284
559.25591,0.17243
561.18438,0.19741
563.11285,0.16492
565.04132,0.11065
566.96979,0.08135
568.89825,0.08723
570.82672,0.09473
572.75519,0.08748
574.68366,0.08320
576.61213,0.09072
578.54060,0.09601
580.46907,0.09150
582.39754,0.08573
584.32600,0.08786
586.25447,0.09209
588.18294,0.08906
590.11141,0.09234
592.03988,0.11248
593.96835,0.11880
595.89682,0.10172
597.82528,0.08349
599.75375,0.06594
601.68222,0.06103
603.61069,0.08071
605.53916,0.09442
607.46763,0.08710
609.39610,0.08418
611.32456,0.09333
613.25303,0.09936
615.18150,0.09769
617.10997,0.09504
619.03844,0.10254
620.96691,0.11779
622.89538,0.12281
624.82385,0.11881
626.75231,0.11911
628.68078,0.12529
630.60925,0.13653
632.53772,0.14344
634.46619,0.14093
636.39466,0.13985
638.32313,0.13240
640.25159,0.11980
642.18006,0.12684
644.10853,0.14552
646.03700,0.14114
647.96547,0.11060
649.89394,0.08349
651.82241,0.08623
653.75088,0.11660
655.67934,0.13813
657.60781,0.13039
659.53628,0.11104
661.46475,0.10188
663.39322,0.10716
665.32169,0.12262
667.25016,0.14462
669.17862,0.14100
671.10709,0.12329
673.03556,0.11772
674.96403,0.11880
676.89250,0.13567
678.82097,0.14943
680.74944,0.13897
682.67791,0.13098
684.60637,0.13530
686.53484,0.12798
688.46331,0.11770
690.39178,0.12075
692.32025,0.11945
694.24872,0.10942
696.17719,0.11006
698.10565,0.12155
700.03412,0.11969
701.96259,0.10695
703.89106,0.10905
705.81953,0.12548
707.74800,0.13095
709.67647,0.11474
711.60494,0.09992
713.53340,0.10174
715.46187,0.10820
717.39034,0.11327
719.31881,0.12050
721.24728,0.12832
723.17575,0.12827
725.10422,0.12448
727.03268,0.12543
728.96115,0.12341
730.88962,0.11709
732.81809,0.11283
734.74656,0.10990
736.67503,0.11228
738.60350,0.12542
740.53197,0.13900
742.46043,0.13939
744.38890,0.13257
746.31737,0.13164
748.24584,0.13414
750.17431,0.13226
752.10278,0.12710
754.03125,0.11786
755.95971,0.10718
757.88818,0.10474
759.81665,0.10995
761.74512,0.11718
763.67359,0.12363
765.60206,0.12707
767.53053,0.12509
769.45900,0.12140
771.38746,0.12495
773.31593,0.13363
775.24440,0.13923
777.17287,0.13880
779.10134,0.13186
781.02981,0.12337
782.95828,0.12053
784.88674,0.12524
786.81521,0.13228
788.74368,0.13348
790.67215,0.13213
792.60062,0.13414
794.52909,0.13530
796.45756,0.13033
798.38602,0.12236
800.31449,0.11998
802.24296,0.12166
804.17143,0.12201
806.09990,0.12005
808.02837,0.11462
809.95684,0.11350
811.88531,0.12203
813.81377,0.13187
815.74224,0.13591
817.67071,0.13570
819.59918,0.13203
821.52765,0.12610
823.45612,0.12369
825.38459,0.12320
827.31305,0.12266
829.24152,0.12923
831.16999,0.13682
833.09846,0.13512
835.02693,0.13125
836.95540,0.12905
838.88387,0.12498
840.81234,0.12298
842.74080,0.12730
844.66927,0.13388
846.59774,0.13944
848.52621,0.14726
850.45468,0.15173
852.38315,0.14666
854.31162,0.13855
856.24008,0.13268
858.16855,0.12697
860.09702,0.12023
862.02549,0.11605
863.95396,0.11823
865.88243,0.12735
867.81090,0.14062
869.73937,0.15260
871.66783,0.15271
873.59630,0.13965
875.52477,0.12898
877.45324,0.12766
879.38171,0.12947
881.31018,0.12806
883.23865,0.12228
885.16711,0.11879
887.09558,0.12142
889.02405,0.12380
890.95252,0.12326
892.88099,0.12604
894.80946,0.13167
896.73793,0.13352
898.66640,0.12965
900.59486,0.12541
902.52333,0.12671
904.45180,0.12984
906.38027,0.12854
908.30874,0.12393
910.23721,0.12365
912.16568,0.13135
914.09414,0.14113
916.02261,0.14549
917.95108,0.14320
919.87955,0.14148
921.80802,0.14407
923.73649,0.14535
925.66496,0.14341
927.59343,0.14201
929.52189,0.13932
931.45036,0.13393
933.37883,0.13336
935.30730,0.13963
937.23577,0.14309
939.16424,0.13983
941.09271,0.13809
943.02117,0.14224
944.94964,0.14688
946.87811,0.14631
948.80658,0.14170
950.73505,0.13952
952.66352,0.14114
954.59199,0.14242
956.52045,0.13894
958.44892,0.13475
960.37739,0.13752
962.30586,0.14034
964.23433,0.13839
966.16280,0.13697
968.09127,0.13596
970.01974,0.13538
971.94820,0.13646
973.87667,0.14002
975.80514,0.14478
977.73361,0.14552
979.66208,0.14196
981.59055,0.13759
983.51902,0.13583
985.44748,0.13880
987.37595,0.14137
989.30442,0.13745
991.23289,0.13354
993.16136,0.13723
995.08983,0.14013
997.01830,0.13428
998.94677,0.12836
1000.87523,0.13150
1002.80370,0.13962
1004.73217,0.14498
1006.66064,0.14419
1008.58911,0.14059
1010.51758,0.14062
1012.44605,0.14523
1014.37451,0.15194
1016.30298,0.15829
1018.23145,0.16207
1020.15992,0.16127
1022.08839,0.15874
1024.01686,0.15810
1025.94533,0.15310
1027.87380,0.14286
1029.80226,0.13804
1031.73073,0.13989
1033.65920,0.14059
1035.58767,0.13910
1037.51614,0.14128
1039.44461,0.14836
1041.37308,0.15196
1043.30154,0.15035
1045.23001,0.14982
1047.15848,0.15110
1049.08695,0.15291
1051.01542,0.15346
1052.94389,0.15244
1054.87236,0.15135
1056.80083,0.15168
1058.72929,0.15560
1060.65776,0.16047
1062.58623,0.16258
1064.51470,0.16056
1066.44317,0.15434
1068.37164,0.14847
1070.30011,0.14655
1072.22857,0.14941
1074.15704,0.15832
1076.08551,0.16548
1078.01398,0.16166
1079.94245,0.15335
1081.87092,0.15216
1083.79939,0.15717
1085.72786,0.15815
1087.65632,0.15279
1089.58479,0.14566
1091.51326,0.14340
1093.44173,0.15094
1095.37020,0.16235
1097.29867,0.16920
1099.22714,0.16755
1101.15560,0.16175
1103.08407,0.15916
1105.01254,0.15888
1106.94101,0.15872
1108.86948,0.16120
1110.79795,0.16749
1112.72642,0.17127
1114.65489,0.16942
1116.58335,0.16687
1118.51182,0.16517
1120.44029,0.16077
1122.36876,0.15233
1124.29723,0.14685
1126.22570,0.14922
1128.15417,0.15419
1130.08263,0.15671
1132.01110,0.15755
1133.93957,0.15872
1135.86804,0.15886
1137.79651,0.15724
1139.72498,0.15544
1141.65345,0.15424
1143.58191,0.15471
1145.51038,0.15687
1147.43885,0.15851
1149.36732,0.15760
1151.29579,0.15422
1153.22426,0.15290
1155.15273,0.15591
1157.08120,0.15706
1159.00966,0.15600
1160.93813,0.15952
1162.86660,0.16316
1164.79507,0.16093
1166.72354,0.15881
1168.65201,0.16048
1170.58048,0.16330
1172.50894,0.16701
1174.43741,0.16794
1176.36588,0.16234
1178.29435,0.15728
1180.22282,0.15950
1182.15129,0.16487
1184.07976,0.16792
1186.00823,0.16843
1187.93669,0.16672
1189.86516,0.16267
1191.79363,0.15729
1193.72210,0.15389
1195.65057,0.15681
1197.57904,0.16323
1199.50751,0.16503
1201.43597,0.16162
1203.36444,0.16004
1205.29291,0.16234
1207.22138,0.16401
1209.14985,0.16371
1211.07832,0.16331
1213.00679,0.16320
1214.93526,0.16294
1216.86372,0.16234
1218.79219,0.16248
1220.72066,0.16304
1222.64913,0.16256
1224.57760,0.16375
1226.50607,0.16784
1228.43454,0.17055
1230.36300,0.16994
1232.29147,0.16749
1234.21994,0.16258
1236.14841,0.15764
1238.07688,0.15900
1240.00535,0.16444
1241.93382,0.16619
1243.86229,0.16204
1245.79075,0.15708
1247.71922,0.15838
1249.64769,0.16406
1251.57616,0.16588
1253.50463,0.16274
1255.43310,0.16072
1257.36157,0.16196
1259.29003,0.16290
1261.21850,0.16283
1263.14697,0.16443
1265.07544,0.16691
1267.00391,0.16760
1268.93238,0.16851
1270.86085,0.17225
1272.78932,0.17700
1274.71778,0.18020
1276.64625,0.17968
1278.57472,0.17539
1280.50319,0.17198
1282.43166,0.17275
1284.36013,0.17376
1286.28860,0.17170
1288.21706,0.17045
1290.14553,0.17203
1292.07400,0.17300
1294.00247,0.17163
1295.93094,0.16986
1297.85941,0.17073
1299.78788,0.17291
1301.71634,0.17118
1303.64481,0.16601
1305.57328,0.16261
1307.50175,0.16334
1309.43022,0.16803
1311.35869,0.17305
1313.28716,0.17533
1315.21563,0.17570
1317.14409,0.17506
1319.07256,0.17463
1321.00103,0.17481
1322.92950,0.17562
1324.85797,0.17673
1326.78644,0.17486
1328.71491,0.17016
1330.64337,0.16759
1332.57184,0.16782
1334.50031,0.16732
1336.42878,0.16836
1338.35725,0.17421
1340.28572,0.17861
1342.21419,0.17782
1344.14266,0.17589
1346.07112,0.17320
1347.99959,0.17041
1349.92806,0.16988
1351.85653,0.17238
1353.78500,0.17832
1355.71347,0.18252
1357.64194,0.18029
1359.57040,0.17830
1361.49887,0.18103
1363.42734,0.18200
1365.35581,0.17908
1367.28428,0.17743
1369.21275,0.17774
1371.14122,0.17897
1373.06969,0.18147
1374.99815,0.18351
1376.92662,0.18305
1378.85509,0.18068
1380.78356,0.17796
1382.71203,0.17819
1384.64050,0.18222
1386.56897,0.18688
1388.49743,0.18889
1390.42590,0.18889
1392.35437,0.18789
1394.28284,0.18530
1396.21131,0.18542
1398.13978,0.18841
1400.06825,0.18717
1401.99672,0.18337
1403.92518,0.18209
1405.85365,0.18393
1407.78212,0.18550
1409.71059,0.18504
1411.63906,0.18276
1413.56753,0.18046
1415.49600,0.18362
1417.42446,0.19306
1419.35293,0.19683
1421.28140,0.19042
1423.20987,0.18539
1425.13834,0.18407
1427.06681,0.18389
1428.99528,0.18262
1430.92375,0.18136
1432.85221,0.18349
1434.78068,0.18689
1436.70915,0.18578
1438.63762,0.18114
1440.56609,0.17854
1442.49456,0.17786
1444.42303,0.18151
1446.35149,0.18991
1448.27996,0.19549
1450.20843,0.19333
1452.13690,0.18927
1454.06537,0.19164
1455.99384,0.20406
1457.92231,0.20946
1459.85077,0.19727
1461.77924,0.18943
1463.70771,0.18968
1465.63618,0.19018
1467.56465,0.18673
1469.49312,0.18755
1471.42159,0.19443
1473.35006,0.19842
1475.27852,0.19728
1477.20699,0.19617
1479.13546,0.19400
1481.06393,0.19093
1482.99240,0.18832
1484.92087,0.19088
1486.84934,0.19985
1488.77780,0.20551
1490.70627,0.20050
1492.63474,0.19576
1494.56321,0.19661
1496.49168,0.19961
1498.42015,0.19995
1500.34862,0.19713
1502.27709,0.19618
1504.20555,0.20290
1506.13402,0.22005
1508.06249,0.22512
1509.99096,0.21071
1511.91943,0.19851
1513.84790,0.19471
1515.77637,0.19975
1517.70483,0.20684
1519.63330,0.21345
1521.56177,0.22051
1523.49024,0.21667
1525.41871,0.20700
1527.34718,0.20029
1529.27565,0.19818
1531.20412,0.20052
1533.13258,0.20319
1535.06105,0.20123
1536.98952,0.20076
1538.91799,0.20985
1540.84646,0.22524
1542.77493,0.22429
1544.70340,0.21369
1546.63186,0.20194
1548.56033,0.19430
1550.48880,0.19482
1552.41727,0.20143
1554.34574,0.20669
1556.27421,0.20867
1558.20268,0.20976
1560.13115,0.20060
1562.05961,0.19258
1563.98808,0.19227
1565.91655,0.19521
1567.84502,0.19982
1569.77349,0.20463
1571.70196,0.20541
1573.63043,0.20662
1575.55889,0.20758
1577.48736,0.20062
1579.41583,0.19340
1581.34430,0.19091
1583.27277,0.18957
1585.20124,0.18634
1587.12971,0.18437
1589.05818,0.18612
1590.98664,0.18778
1592.91511,0.18752
1594.84358,0.18531
1596.77205,0.18222
1598.70052,0.18279
1600.62899,0.18599
1602.55746,0.18656
1604.48592,0.18674
1606.41439,0.19162
1608.34286,0.19725
1610.27133,0.19640
1612.19980,0.19195
1614.12827,0.19142
1616.05674,0.19720
1617.98521,0.20218
1619.91367,0.20157
1621.84214,0.20059
1623.77061,0.20077
1625.69908,0.20210
1627.62755,0.20373
1629.55602,0.20325
1631.48449,0.20289
1633.41295,0.20725
1635.34142,0.21516
1637.26989,0.21241
1639.19836,0.20329
1641.12683,0.19974
1643.05530,0.20384
1644.98377,0.21512
1646.91223,0.22652
1648.84070,0.22434
1650.76917,0.22148
1652.69764,0.22709
1654.62611,0.21952
1656.55458,0.20452
1658.48305,0.19905
1660.41152,0.20169
1662.33998,0.20535
1664.26845,0.20196
1666.19692,0.19770
1668.12539,0.20083
1670.05386,0.20593
1671.98233,0.20292
1673.91080,0.20097
1675.83926,0.20376
1677.76773,0.20547
1679.69620,0.20755
1681.62467,0.21284
1683.55314,0.21769
1685.48161,0.21348
1687.41008,0.20613
1689.33855,0.19990
1691.26701,0.19638
1693.19548,0.19865
1695.12395,0.20693
1697.05242,0.21663
1698.98089,0.21728
1700.90936,0.20905
1702.83783,0.20689
1704.76629,0.20873
1706.69476,0.20507
1708.62323,0.19888
1710.55170,0.19666
1712.48017,0.19921
1714.40864,0.20658
1716.33711,0.21490
1718.26558,0.20954
1720.19404,0.19756
1722.12251,0.19294
1724.05098,0.19284
1725.97945,0.19317
1727.90792,0.19536
1729.83639,0.19963
1731.76486,0.20448
1733.69332,0.20849
1735.62179,0.20514
1737.55026,0.20012
1739.47873,0.19814
1741.40720,0.19863
1743.33567,0.20115
1745.26414,0.20359
1747.19261,0.20487
1749.12107,0.20471
1751.04954,0.20088
1752.97801,0.19670
1754.90648,0.19688
1756.83495,0.19975
1758.76342,0.20126
1760.69189,0.20176
1762.62035,0.20055
1764.54882,0.19699
1766.47729,0.19601
1768.40576,0.19939
1770.33423,0.20503
1772.26270,0.20974
1774.19117,0.20787
1776.11964,0.20209
1778.04810,0.19904
1779.97657,0.19985
1781.90504,0.19982
1783.83351,0.19754
1785.76198,0.19557
1787.69045,0.19632
1789.61892,0.20203
1791.54738,0.20919
1793.47585,0.20808
1795.40432,0.20301
1797.33279,0.20134
1799.26126,0.19980
1801.18973,0.19510
1803.11820,0.19086
1805.04666,0.19058
1806.97513,0.19260
1808.90360,0.19403
1810.83207,0.19498
1812.76054,0.19507
1814.68901,0.19319
1816.61748,0.19218
1818.54595,0.19348
1820.47441,0.19524
1822.40288,0.19661
1824.33135,0.19666
1826.25982,0.19804
1828.18829,0.20402
1830.11676,0.20668
1832.04523,0.20118
1833.97369,0.19758
1835.90216,0.19865
1837.83063,0.19896
1839.75910,0.19661
1841.68757,0.19484
1843.61604,0.19558
1845.54451,0.19764
1847.47298,0.19832
1849.40144,0.19672
1851.32991,0.19408
1853.25838,0.19180
1855.18685,0.19059
1857.11532,0.19049
1859.04379,0.19099
1860.97226,0.19234
1862.90072,0.19369
1864.82919,0.19489
1866.75766,0.19696
1868.68613,0.19758
1870.61460,0.19521
1872.54307,0.19282
1874.47154,0.19198
1876.40001,0.19242
1878.32847,0.19293
1880.25694,0.19299
1882.18541,0.19336
1884.11388,0.19459
1886.04235,0.19620
1887.97082,0.19784
1889.89929,0.19803
1891.82775,0.19505
1893.75622,0.19165
1895.68469,0.19127
1897.61316,0.19210
1899.54163,0.19096
1901.47010,0.18973
1903.39857,0.19097
1905.32704,0.19387
1907.25550,0.19600
1909.18397,0.19556
1911.11244,0.19294
1913.04091,0.19054
1914.96938,0.19042
1916.89785,0.19171
1918.82632,0.19254
1920.75478,0.19451
1922.68325,0.19739
1924.61172,0.19651
1926.54019,0.19230
1928.46866,0.19035
1930.39713,0.19244
1932.32560,0.19527
1934.25407,0.19553
1936.18253,0.19388
1938.11100,0.19389
1940.03947,0.19650
1941.96794,0.19806
1943.89641,0.19673
1945.82488,0.19492
1947.75335,0.19341
1949.68181,0.19315
1951.61028,0.19456
1953.53875,0.19454
1955.46722,0.19245
1957.39569,0.19154
1959.32416,0.19226
1961.25263,0.19309
1963.18110,0.19466
1965.10956,0.19740
1967.03803,0.19833
1968.96650,0.19480
1970.89497,0.19064
1972.82344,0.18924
1974.75191,0.18907
1976.68038,0.18938
1978.60884,0.19040
1980.53731,0.19144
1982.46578,0.19157
1984.39425,0.19114
1986.32272,0.19174
1988.25119,0.19348
1990.17966,0.19531
1992.10812,0.19534
1994.03659,0.19376
1995.96506,0.19444
1997.89353,0.19631
1999.82200,0.19548
2001.75047,0.19368
2003.67894,0.19319
2005.60741,0.19301
2007.53587,0.19263
2009.46434,0.19221
2011.39281,0.19131
2013.32128,0.18950
2015.24975,0.18936
2017.17822,0.19332
2019.10669,0.19713
2021.03515,0.19704
2022.96362,0.19582
2024.89209,0.19521
2026.82056,0.19384
2028.74903,0.19268
2030.67750,0.19316
2032.60597,0.19486
2034.53444,0.19662
2036.46290,0.19605
2038.39137,0.19238
2040.31984,0.18877
2042.24831,0.18807
2044.17678,0.18919
2046.10525,0.19075
2048.03372,0.19283
2049.96218,0.19403
2051.89065,0.19317
2053.81912,0.19219
2055.74759,0.19288
2057.67606,0.19356
2059.60453,0.19373
2061.53300,0.19514
2063.46147,0.19647
2065.38993,0.19497
2067.31840,0.19227
2069.24687,0.19196
2071.17534,0.19374
2073.10381,0.19669
2075.03228,0.20011
2076.96075,0.20116
2078.88921,0.20041
2080.81768,0.20068
2082.74615,0.20097
2084.67462,0.19980
2086.60309,0.19790
2088.53156,0.19576
2090.46003,0.19387
2092.38850,0.19200
2094.31696,0.19040
2096.24543,0.19130
2098.17390,0.19363
2100.10237,0.19539
2102.03084,0.19724
2103.95931,0.19874
2105.88778,0.19958
2107.81624,0.19950
2109.74471,0.19804
2111.67318,0.19651
2113.60165,0.19603
2115.53012,0.19627
2117.45859,0.19782
2119.38706,0.20102
2121.31553,0.20105
2123.24399,0.19587
2125.17246,0.19179
2127.10093,0.19191
2129.02940,0.19340
2130.95787,0.19397
2132.88634,0.19326
2134.81481,0.19199
2136.74327,0.19171
2138.67174,0.19307
2140.60021,0.19543
2142.52868,0.19831
2144.45715,0.20056
2146.38562,0.20051
2148.31409,0.19897
2150.24255,0.19879
2152.17102,0.19982
2154.09949,0.19968
2156.02796,0.19807
2157.95643,0.19657
2159.88490,0.19653
2161.81337,0.19662
2163.74184,0.19589
2165.67030,0.19635
2167.59877,0.19810
2169.52724,0.19780
2171.45571,0.19457
2173.38418,0.19233
2175.31265,0.19380
2177.24112,0.19733
2179.16958,0.19986
2181.09805,0.19969
2183.02652,0.19766
2184.95499,0.19630
2186.88346,0.19641
2188.81193,0.19694
2190.74040,0.19746
2192.66887,0.19728
2194.59733,0.19617
2196.52580,0.19484
2198.45427,0.19397
2200.38274,0.19409
2202.31121,0.19431
2204.23968,0.19323
2206.16815,0.19226
2208.09661,0.19328
2210.02508,0.19383
2211.95355,0.19325
2213.88202,0.19496
2215.81049,0.19851
2217.73896,0.20061
2219.66743,0.20023
2221.59590,0.19943
2223.52436,0.20014
2225.45283,0.20098
2227.38130,0.20135
2229.30977,0.20147
2231.23824,0.20043
2233.16671,0.19892
2235.09518,0.19778
2237.02364,0.19674
2238.95211,0.19531
2240.88058,0.19392
2242.80905,0.19429
2244.73752,0.19581
2246.66599,0.19662
2248.59446,0.19638
2250.52293,0.19597
2252.45139,0.19622
2254.37986,0.19643
2256.30833,0.19616
2258.23680,0.19592
2260.16527,0.19655
2262.09374,0.19766
2264.02221,0.19637
2265.95067,0.19234
2267.87914,0.18986
2269.80761,0.19150
2271.73608,0.19525
2273.66455,0.19836
2275.59302,0.19940
2277.52149,0.19910
2279.44996,0.19880
2281.37842,0.19800
2283.30689,0.19684
2285.23536,0.19721
2287.16383,0.19900
2289.09230,0.19886
2291.02077,0.19597
2292.94924,0.19340
2294.87770,0.19297
2296.80617,0.19556
2298.73464,0.19862
2300.66311,0.19707
2302.59158,0.19383
2304.52005,0.19477
2306.44852,0.19750
2308.37699,0.19724
2310.30545,0.19547
2312.23392,0.19558
2314.16239,0.19702
2316.09086,0.19802
2318.01933,0.19730
2319.94780,0.19552
2321.87627,0.19625
2323.80473,0.19903
2325.73320,0.19970
2327.66167,0.19808
2329.59014,0.19878
2331.51861,0.20527
2333.44708,0.20893
2335.37555,0.20269
2337.30401,0.19190
2339.23248,0.18448
2341.16095,0.18606
2343.08942,0.19168
2345.01789,0.19692
2346.94636,0.20197
2348.87483,0.20235
2350.80330,0.19900
2352.73176,0.19874
2354.66023,0.20383
2356.58870,0.20228
2358.51717,0.19444
2360.44564,0.20071
2362.37411,0.22084
2364.30258,0.22962
2366.23104,0.21563
2368.15951,0.20179
2370.08798,0.19999
2372.01645,0.19805
2373.94492,0.19391
2375.87339,0.19063
2377.80186,0.18894
2379.73033,0.19122
2381.65879,0.19607
2383.58726,0.20060
2385.51573,0.20362
2387.44420,0.20371
2389.37267,0.20194
2391.30114,0.20051
2393.22961,0.19922
2395.15807,0.19816
2397.08654,0.19824
2399.01501,0.19890
2400.94348,0.19973
2402.87195,0.20147
2404.80042,0.20249
2406.72889,0.20000
2408.65736,0.19552
2410.58582,0.19334
2412.51429,0.19437
2414.44276,0.19712
2416.37123,0.20041
2418.29970,0.20229
2420.22817,0.20208
2422.15664,0.20112
2424.08510,0.20033
2426.01357,0.19991
2427.94204,0.19988
2429.87051,0.19954
2431.79898,0.19845
2433.72745,0.19782
2435.65592,0.19853
2437.58439,0.19941
2439.51285,0.19877
2441.44132,0.19783
2443.36979,0.19817
2445.29826,0.19795
2447.22673,0.19668
2449.15520,0.19759
2451.08367,0.20007
2453.01213,0.19962
2454.94060,0.19824
2456.86907,0.19835
2458.79754,0.19818
2460.72601,0.19910
2462.65448,0.19988
2464.58295,0.19829
2466.51142,0.19873
2468.43988,0.20154
2470.36835,0.20053
2472.29682,0.19672
2474.22529,0.19621
2476.15376,0.19878
2478.08223,0.20013
2480.01070,0.19984
2481.93916,0.19984
2483.86763,0.19926
2485.79610,0.19736
2487.72457,0.19510
2489.65304,0.19434
2491.58151,0.19616
2493.50998,0.19767
2495.43844,0.19811
2497.36691,0.20009
2499.29538,0.20238
2501.22385,0.20270
2503.15232,0.20214
2505.08079,0.20088
2507.00926,0.19775
2508.93773,0.19484
2510.86619,0.19534
2512.79466,0.19886
2514.72313,0.20172
2516.65160,0.20187
2518.58007,0.20115
2520.50854,0.20088
2522.43701,0.20053
2524.36547,0.20062
2526.29394,0.20157
2528.22241,0.20251
2530.15088,0.20278
2532.07935,0.20249
2534.00782,0.20286
2535.93629,0.20396
2537.86476,0.20378
2539.79322,0.20283
2541.72169,0.20245
2543.65016,0.20183
2545.57863,0.20133
2547.50710,0.20193
2549.43557,0.20251
2551.36404,0.20273
2553.29250,0.20361
2555.22097,0.20495
2557.14944,0.20569
2559.07791,0.20449
2561.00638,0.20189
2562.93485,0.20145
2564.86332,0.20402
2566.79179,0.20525
2568.72025,0.20347
2570.64872,0.20142
2572.57719,0.20029
2574.50566,0.20054
2576.43413,0.20255
2578.36260,0.20477
2580.29107,0.20553
2582.21953,0.20452
2584.14800,0.20189
2586.07647,0.19958
2588.00494,0.20052
2589.93341,0.20276
2591.86188,0.20364
2593.79035,0.20461
2595.71882,0.20539
2597.64728,0.20474
2599.57575,0.20411
2601.50422,0.20404
2603.43269,0.20175
2605.36116,0.19795
2607.28963,0.19718
2609.21810,0.19944
2611.14656,0.20253
2613.07503,0.20505
2615.00350,0.20597
2616.93197,0.20572
2618.86044,0.20549
2620.78891,0.20556
2622.71738,0.20480
2624.64585,0.20377
2626.57431,0.20341
2628.50278,0.20367
2630.43125,0.20423
2632.35972,0.20384
2634.28819,0.20326
2636.21666,0.20403
2638.14513,0.20564
2640.07359,0.20790
2642.00206,0.20951
2643.93053,0.20821
2645.85900,0.20557
2647.78747,0.20461
2649.71594,0.20465
2651.64441,0.20384
2653.57288,0.20247
2655.50134,0.20167
2657.42981,0.20279
2659.35828,0.20513
2661.28675,0.20553
2663.21522,0.20483
2665.14369,0.20566
2667.07216,0.20764
2669.00062,0.20972
2670.92909,0.21032
2672.85756,0.20968
2674.78603,0.21012
2676.71450,0.21138
2678.64297,0.21092
2680.57144,0.20887
2682.49990,0.20756
2684.42837,0.20704
2686.35684,0.20707
2688.28531,0.20813
2690.21378,0.20856
2692.14225,0.20675
2694.07072,0.20407
2695.99919,0.20431
2697.92765,0.20817
2699.85612,0.21030
2701.78459,0.20807
2703.71306,0.20642
2705.64153,0.20830
2707.57000,0.21029
2709.49847,0.20961
2711.42693,0.20810
2713.35540,0.20745
2715.28387,0.20651
2717.21234,0.20632
2719.14081,0.20823
2721.06928,0.20995
2722.99775,0.20986
2724.92622,0.20866
2726.85468,0.20837
2728.78315,0.21023
2730.71162,0.21248
2732.64009,0.21335
2734.56856,0.21209
2736.49703,0.20860
2738.42550,0.20590
2740.35396,0.20750
2742.28243,0.21158
2744.21090,0.21316
2746.13937,0.21158
2748.06784,0.21004
2749.99631,0.20878
2751.92478,0.20768
2753.85325,0.20885
2755.78171,0.21101
2757.71018,0.21303
2759.63865,0.21587
2761.56712,0.21588
2763.49559,0.21250
2765.42406,0.21099
2767.35253,0.21082
2769.28099,0.21022
2771.20946,0.21209
2773.13793,0.21512
2775.06640,0.21656
2776.99487,0.21807
2778.92334,0.21856
2780.85181,0.21751
2782.78028,0.21833
2784.70874,0.21934
2786.63721,0.21852
2788.56568,0.21841
2790.49415,0.21789
2792.42262,0.21502
2794.35109,0.21284
2796.27956,0.21309
2798.20802,0.21340
2800.13649,0.21411
2802.06496,0.21745
2803.99343,0.22145
2805.92190,0.22205
2807.85037,0.21850
2809.77884,0.21578
2811.70731,0.21863
2813.63577,0.22254
2815.56424,0.22209
2817.49271,0.22127
2819.42118,0.22172
2821.34965,0.21820
2823.27812,0.21316
2825.20659,0.21290
2827.13505,0.21482
2829.06352,0.21586
2830.99199,0.21753
2832.92046,0.22033
2834.84893,0.22292
2836.77740,0.22417
2838.70587,0.22537
2840.63433,0.22603
2842.56280,0.22460
2844.49127,0.22168
2846.41974,0.21942
2848.34821,0.22191
2850.27668,0.22487
2852.20515,0.22099
2854.13362,0.21487
2856.06208,0.21284
2857.99055,0.21423
2859.91902,0.21720
2861.84749,0.22076
2863.77596,0.22166
2865.70443,0.21954
2867.63290,0.21931
2869.56136,0.22116
2871.48983,0.22081
2873.41830,0.21889
2875.34677,0.21934
2877.27524,0.22233
2879.20371,0.22455
2881.13218,0.22379
2883.06065,0.22057
2884.98911,0.21722
2886.91758,0.21590
2888.84605,0.21601
2890.77452,0.21666
2892.70299,0.21866
2894.63146,0.22021
2896.55993,0.21947
2898.48839,0.21798
2900.41686,0.21719
2902.34533,0.21798
2904.27380,0.21952
2906.20227,0.21908
2908.13074,0.21633
2910.05921,0.21420
2911.98768,0.21367
2913.91614,0.21169
2915.84461,0.20976
2917.77308,0.21251
2919.70155,0.21601
2921.63002,0.21596
2923.55849,0.21569
2925.48696,0.21627
2927.41542,0.21502
2929.34389,0.21437
2931.27236,0.21701
2933.20083,0.21746
2935.12930,0.21378
2937.05777,0.21279
2938.98624,0.21560
2940.91471,0.21783
2942.84317,0.21841
2944.77164,0.21772
2946.70011,0.21786
2948.62858,0.21955
2950.55705,0.21964
2952.48552,0.21966
2954.41399,0.22112
2956.34245,0.21872
2958.27092,0.21334
2960.19939,0.21252
2962.12786,0.21611
2964.05633,0.21833
2965.98480,0.21751
2967.91327,0.21643
2969.84174,0.21821
2971.77020,0.22274
2973.69867,0.22713
2975.62714,0.22770
2977.55561,0.22326
2979.48408,0.21908
2981.41255,0.21877
2983.34102,0.21860
2985.26948,0.21778
2987.19795,0.21905
2989.12642,0.22110
2991.05489,0.22227
2992.98336,0.22337
2994.91183,0.22447
2996.84030,0.22516
2998.76877,0.22700
3000.69723,0.22929
3002.62570,0.22838
3004.55417,0.22524
3006.48264,0.22373
3008.41111,0.22459
3010.33958,0.22560
3012.26805,0.22330
3014.19651,0.21698
3016.12498,0.21147
3018.05345,0.21289
3019.98192,0.21919
3021.91039,0.22391
3023.83886,0.22712
3025.76733,0.22865
3027.69579,0.22683
3029.62426,0.22468
3031.55273,0.22423
3033.48120,0.22621
3035.40967,0.22908
3037.33814,0.22830
3039.26661,0.22496
3041.19508,0.22316
3043.12354,0.22309
3045.05201,0.22383
3046.98048,0.22565
3048.90895,0.22820
3050.83742,0.23082
3052.76589,0.23323
3054.69436,0.23377
3056.62282,0.23237
3058.55129,0.23170
3060.47976,0.22996
3062.40823,0.22382
3064.33670,0.21786
3066.26517,0.21755
3068.19364,0.22038
3070.12211,0.22238
3072.05057,0.22486
3073.97904,0.22758
3075.90751,0.22641
3077.83598,0.22322
3079.76445,0.22084
3081.69292,0.21671
3083.62139,0.21315
3085.54985,0.21494
3087.47832,0.21955
3089.40679,0.22229
3091.33526,0.22355
3093.26373,0.22537
3095.19220,0.22760
3097.12067,0.22932
3099.04914,0.23025
3100.97760,0.22963
3102.90607,0.22674
3104.83454,0.22459
3106.76301,0.22466
3108.69148,0.22425
3110.61995,0.22421
3112.54842,0.22817
3114.47688,0.23427
3116.40535,0.23703
3118.33382,0.23685
3120.26229,0.23566
3122.19076,0.23202
3124.11923,0.22906
3126.04770,0.23036
3127.97617,0.23341
3129.90463,0.23378
3131.83310,0.22929
3133.76157,0.22426
3135.69004,0.22377
3137.61851,0.22460
3139.54698,0.22462
3141.47545,0.22763
3143.40391,0.23142
3145.33238,0.23049
3147.26085,0.22805
3149.18932,0.22910
3151.11779,0.23108
3153.04626,0.23102
3154.97473,0.23010
3156.90320,0.22873
3158.83166,0.22993
3160.76013,0.23516
3162.68860,0.23784
3164.61707,0.23617
3166.54554,0.23312
3168.47401,0.22950
3170.40248,0.22982
3172.33094,0.23478
3174.25941,0.23507
3176.18788,0.22740
3178.11635,0.22224
3180.04482,0.22615
3181.97329,0.23216
3183.90176,0.23443
3185.83022,0.23382
3187.75869,0.23116
3189.68716,0.22870
3191.61563,0.23074
3193.54410,0.23657
3195.47257,0.23955
3197.40104,0.23597
3199.32951,0.23058
3201.25797,0.22825
3203.18644,0.22683
3205.11491,0.22490
3207.04338,0.22508
3208.97185,0.22737
3210.90032,0.23012
3212.82879,0.23384
3214.75725,0.23646
3216.68572,0.23219
3218.61419,0.22360
3220.54266,0.22180
3222.47113,0.22609
3224.39960,0.22759
3226.32807,0.22869
3228.25654,0.23211
3230.18500,0.23285
3232.11347,0.23070
3234.04194,0.23047
3235.97041,0.23272
3237.89888,0.23200
3239.82735,0.22563
3241.75582,0.21973
3243.68428,0.22069
3245.61275,0.22551
3247.54122,0.22865
3249.46969,0.22966
3251.39816,0.22927
3253.32663,0.22752
3255.25510,0.22578
3257.18357,0.22737
3259.11203,0.23074
3261.04050,0.23056
3262.96897,0.22798
3264.89744,0.22635
3266.82591,0.22688
3268.75438,0.22842
3270.68285,0.22825
3272.61131,0.22936
3274.53978,0.23313
3276.46825,0.23535
3278.39672,0.23329
3280.32519,0.22638
3282.25366,0.22062
3284.18213,0.22078
3286.11060,0.22286
3288.03906,0.22441
3289.96753,0.22479
3291.89600,0.22278
3293.82447,0.21985
3295.75294,0.22013
3297.68141,0.22548
3299.60988,0.23008
3301.53834,0.22894
3303.46681,0.22608
3305.39528,0.22493
3307.32375,0.22344
3309.25222,0.22184
3311.18069,0.22101
3313.10916,0.22138
3315.03763,0.22439
3316.96609,0.22684
3318.89456,0.22721
3320.82303,0.22722
3322.75150,0.22664
3324.67997,0.22672
3326.60844,0.22952
3328.53691,0.23389
3330.46537,0.23541
3332.39384,0.23349
3334.32231,0.23073
3336.25078,0.22969
3338.17925,0.23292
3340.10772,0.23497
3342.03619,0.23146
3343.96466,0.22773
3345.89312,0.22643
3347.82159,0.22690
3349.75006,0.22965
3351.67853,0.23373
3353.60700,0.23637
3355.53547,0.23494
3357.46394,0.23269
3359.39240,0.23291
3361.32087,0.23258
3363.24934,0.23190
3365.17781,0.23176
3367.10628,0.23101
3369.03475,0.23171
3370.96322,0.23326
3372.89168,0.23370
3374.82015,0.23363
3376.74862,0.23235
3378.67709,0.23063
3380.60556,0.23005
3382.53403,0.22970
3384.46250,0.23049
3386.39097,0.23247
3388.31943,0.23179
3390.24790,0.22896
3392.17637,0.22949
3394.10484,0.23343
3396.03331,0.23478
3397.96178,0.23246
3399.89025,0.23111
3401.81871,0.23131
3403.74718,0.23054
3405.67565,0.22932
3407.60412,0.22715
3409.53259,0.22343
3411.46106,0.22053
3413.38953,0.21986
3415.31800,0.22180
3417.24646,0.22428
3419.17493,0.22263
3421.10340,0.21700
3423.03187,0.21372
3424.96034,0.21527
3426.88881,0.21984
3428.81728,0.22550
3430.74574,0.22672
3432.67421,0.22194
3434.60268,0.21831
3436.53115,0.21815
3438.45962,0.21584
3440.38809,0.21011
3442.31656,0.20877
3444.24503,0.21501
3446.17349,0.21911
3448.10196,0.21450
3450.03043,0.20928
3451.95890,0.20964
3453.88737,0.21121
3455.81584,0.20974
3457.74431,0.20728
3459.67277,0.20668
3461.60124,0.20663
3463.52971,0.20505
3465.45818,0.20303
3467.38665,0.20498
3469.31512,0.21181
3471.24359,0.21610
3473.17206,0.21493
3475.10052,0.21389
3477.02899,0.21376
3478.95746,0.21061
3480.88593,0.20476
3482.81440,0.19998
3484.74287,0.19975
3486.67134,0.20417
3488.59980,0.20674
3490.52827,0.20358
3492.45674,0.19918
3494.38521,0.19598
3496.31368,0.19407
3498.24215,0.19279
3500.17062,0.19334
3502.09909,0.19770
3504.02755,0.19960
3505.95602,0.19644
3507.88449,0.19473
3509.81296,0.19625
3511.74143,0.19829
3513.66990,0.19892
3515.59837,0.19662
3517.52683,0.19108
3519.45530,0.18696
3521.38377,0.18667
3523.31224,0.18762
3525.24071,0.18973
3527.16918,0.19030
3529.09765,0.18530
3531.02611,0.18023
3532.95458,0.18189
3534.88305,0.18774
3536.81152,0.19064
3538.73999,0.18851
3540.66846,0.18532
3542.59693,0.18481
3544.52540,0.18690
3546.45386,0.18720
3548.38233,0.18507
3550.31080,0.18310
3552.23927,0.18133
3554.16774,0.18101
3556.09621,0.18121
3558.02468,0.17958
3559.95314,0.17557
3561.88161,0.17175
3563.81008,0.17543
3565.73855,0.18578
3567.66702,0.18864
3569.59549,0.18236
3571.52396,0.17634
3573.45243,0.17002
3575.38089,0.16413
3577.30936,0.16292
3579.23783,0.16699
3581.16630,0.17243
3583.09477,0.17436
3585.02324,0.17299
3586.95171,0.17042
3588.88017,0.16514
3590.80864,0.15992
3592.73711,0.15888
3594.66558,0.16263
3596.59405,0.16823
3598.52252,0.17280
3600.45099,0.17446
3602.37946,0.17160
3604.30792,0.16804
3606.23639,0.16814
3608.16486,0.17162
3610.09333,0.17511
3612.02180,0.17593
3613.95027,0.17269
3615.87874,0.17048
3617.80720,0.17324
3619.73567,0.17164
3621.66414,0.16242
3623.59261,0.15618
3625.52108,0.15651
3627.44955,0.16237
3629.37802,0.16482
3631.30649,0.15854
3633.23495,0.15413
3635.16342,0.15254
3637.09189,0.15132
3639.02036,0.15007
3640.94883,0.14907
3642.87730,0.15047
3644.80577,0.15665
3646.73423,0.16426
3648.66270,0.16332
3650.59117,0.15596
3652.51964,0.15441
3654.44811,0.15403
3656.37658,0.15175
3658.30505,0.14880
3660.23352,0.14725
3662.16198,0.14656
3664.09045,0.14477
3666.01892,0.14324
3667.94739,0.14629
3669.87586,0.15268
3671.80433,0.15402
3673.73280,0.15342
3675.66126,0.15432
3677.58973,0.15192
3679.51820,0.14560
3681.44667,0.13887
3683.37514,0.13707
3685.30361,0.14194
3687.23208,0.15146
3689.16055,0.15861
3691.08901,0.15294
3693.01748,0.14634
3694.94595,0.14625
3696.87442,0.14686
3698.80289,0.14603
3700.73136,0.14578
3702.65983,0.14466
3704.58829,0.14159
3706.51676,0.14075
3708.44523,0.14578
3710.37370,0.15195
3712.30217,0.15031
3714.23064,0.14882
3716.15911,0.15066
3718.08757,0.15067
3720.01604,0.14896
3721.94451,0.14795
3723.87298,0.14754
3725.80145,0.14703
3727.72992,0.14638
3729.65839,0.14860
3731.58686,0.15621
3733.51532,0.16572
3735.44379,0.16686
3737.37226,0.15671
3739.30073,0.14971
3741.22920,0.15134
3743.15767,0.15573
3745.08614,0.15496
3747.01460,0.15062
3748.94307,0.15052
3750.87154,0.15279
3752.80001,0.14728
3754.72848,0.14110
3756.65695,0.14214
3758.58542,0.14703
3760.51389,0.14629
3762.44235,0.14295
3764.37082,0.14278
3766.29929,0.14035
3768.22776,0.13553
3770.15623,0.13389
3772.08470,0.13254
3774.01317,0.13046
3775.94163,0.13222
3777.87010,0.14061
3779.79857,0.14878
3781.72704,0.14906
3783.65551,0.14748
3785.58398,0.14348
3787.51245,0.13423
3789.44092,0.12575
3791.36938,0.12377
3793.29785,0.13041
3795.22632,0.14029
3797.15479,0.14424
3799.08326,0.14365
3801.01173,0.14370
3802.94020,0.14148
3804.86866,0.13834
3806.79713,0.13538
3808.72560,0.13125
3810.65407,0.12959
3812.58254,0.13226
3814.51101,0.13844
3816.43948,0.14543
3818.36795,0.14907
3820.29641,0.14887
3822.22488,0.14381
3824.15335,0.13959
3826.08182,0.13774
3828.01029,0.13439
3829.93876,0.13093
3831.86723,0.13308
3833.79569,0.13974
3835.72416,0.14497
3837.65263,0.14966
3839.58110,0.15052
3841.50957,0.14301
3843.43804,0.13453
3845.36651,0.13261
3847.29498,0.13685
3849.22344,0.14087
3851.15191,0.14402
3853.08038,0.15480
3855.00885,0.15786
3856.93732,0.14632
3858.86579,0.13757
3860.79426,0.13525
3862.72272,0.13747
3864.65119,0.13704
3866.57966,0.13173
3868.50813,0.13006
3870.43660,0.13363
3872.36507,0.13451
3874.29354,0.13213
3876.22200,0.13049
3878.15047,0.13137
3880.07894,0.13402
3882.00741,0.13694
3883.93588,0.13919
3885.86435,0.13662
3887.79282,0.13138
3889.72129,0.13023
3891.64975,0.13176
3893.57822,0.13148
3895.50669,0.12991
3897.43516,0.13130
3899.36363,0.13842
3901.29210,0.14586
3903.22057,0.14442
3905.14903,0.13578
3907.07750,0.12909
3909.00597,0.12637
3910.93444,0.12438
3912.86291,0.12394
3914.79138,0.12765
3916.71985,0.13155
3918.64832,0.13019
3920.57678,0.12433
3922.50525,0.11987
3924.43372,0.12062
3926.36219,0.12325
3928.29066,0.12580
3930.21913,0.12950
3932.14760,0.13213
3934.07606,0.13099
3936.00453,0.12840
3937.93300,0.12580
3939.86147,0.12390
3941.78994,0.12313
3943.71841,0.12218
3945.64688,0.12543
3947.57535,0.13165
3949.50381,0.12945
3951.43228,0.12192
3953.36075,0.12084
3955.28922,0.12322
3957.21769,0.12196
3959.14616,0.11737
3961.07463,0.11507
3963.00309,0.11679
3964.93156,0.11755
3966.86003,0.11757
3968.78850,0.11688
3970.71697,0.11207
3972.64544,0.11035
3974.57391,0.11581
3976.50238,0.11748
3978.43084,0.11135
3980.35931,0.10810
3982.28778,0.11108
3984.21625,0.11287
3986.14472,0.11281
3988.07319,0.11307
3990.00166,0.11220
3991.93012,0.11036
3993.85859,0.10921
3995.78706,0.10988
3997.71553,0.11018
3999.64400,0.10861
4001.57247,0.10880
4003.50094,0.11094
4005.42941,0.11182
4007.35787,0.11360
4009.28634,0.11726
4011.21481,0.11834
4013.14328,0.11623
4015.07175,0.11258
4017.00022,0.10827
4018.92869,0.10665
4020.85715,0.10718
4022.78562,0.10546
4024.71409,0.10258
4026.64256,0.10351
4028.57103,0.10788
4030.49950,0.11029
4032.42797,0.11020
4034.35644,0.10972
4036.28490,0.10763
4038.21337,0.10611
4040.14184,0.10669
4042.07031,0.10448
4043.99878,0.10067
4045.92725,0.10162
4047.85572,0.10410
4049.78418,0.10202
4051.71265,0.09707
4053.64112,0.09313
4055.56959,0.09224
4057.49806,0.09425
4059.42653,0.09801
4061.35500,0.10264
4063.28346,0.10452
4065.21193,0.10270
4067.14040,0.10253
4069.06887,0.10505
4070.99734,0.10598
4072.92581,0.10572
4074.85428,0.10589
4076.78275,0.10175
4078.71121,0.09453
4080.63968,0.09463
4082.56815,0.10055
4084.49662,0.10260
4086.42509,0.10107
4088.35356,0.09826
4090.28203,0.09467
4092.21049,0.09630
4094.13896,0.10210
4096.06743,0.10329
4097.99590,0.10136
4099.92437,0.10293
4101.85284,0.10639
4103.78131,0.10472
4105.70978,0.09828
4107.63824,0.09452
4109.56671,0.09396
4111.49518,0.09258
4113.42365,0.08965
4115.35212,0.08731
4117.28059,0.08598
4119.20906,0.08406
4121.13752,0.08261
4123.06599,0.08211
4124.99446,0.08446
4126.92293,0.09226
4128.85140,0.09891
4130.77987,0.09835
4132.70834,0.09564
4134.63681,0.09279
4136.56527,0.08673
4138.49374,0.08386
4140.42221,0.08991
4142.35068,0.09531
4144.27915,0.09091
4146.20762,0.08233
4148.13609,0.07885
4150.06455,0.08180
4151.99302,0.08531
4153.92149,0.08504
4155.84996,0.08359
4157.77843,0.08161
4159.70690,0.07826
4161.63537,0.07664
4163.56384,0.07629
4165.49230,0.07568
4167.42077,0.07955
4169.34924,0.08731
4171.27771,0.08837
4173.20618,0.08069
4175.13465,0.07598
4177.06312,0.08022
4178.99158,0.08293
4180.92005,0.07729
4182.84852,0.07338
4184.77699,0.07571
4186.70546,0.07676
4188.63393,0.07746
4190.56240,0.08171
4192.49087,0.08377
4194.41933,0.08333
4196.34780,0.08492
4198.27627,0.08550
4200.20474,0.08354
4202.13321,0.08183
4204.06168,0.07803
4205.99015,0.07420
4207.91861,0.07760
4209.84708,0.08215
4211.77555,0.07904
4213.70402,0.07201
4215.63249,0.06666
4217.56096,0.06418
4219.48943,0.06433
4221.41789,0.06441
4223.34636,0.06193
4225.27483,0.06057
4227.20330,0.06369
4229.13177,0.07136
4231.06024,0.07871
4232.98871,0.07879
4234.91718,0.07470
4236.84564,0.07298
4238.77411,0.07381
4240.70258,0.07224
4242.63105,0.06942
4244.55952,0.07333
4246.48799,0.07868
4248.41646,0.07446
4250.34492,0.06682
4252.27339,0.06502
4254.20186,0.06612
4256.13033,0.06633
4258.05880,0.06462
4259.98727,0.06036
4261.91574,0.05655
4263.84421,0.05693
4265.77267,0.06153
4267.70114,0.06738
4269.62961,0.06997
4271.55808,0.06763
4273.48655,0.06433
4275.41502,0.06498
4277.34349,0.06921
4279.27195,0.06799
4281.20042,0.05795
4283.12889,0.05219
4285.05736,0.05463
4286.98583,0.05382
4288.91430,0.05057
4290.84277,0.05212
4292.77124,0.05762
4294.69970,0.06560
4296.62817,0.06994
4298.55664,0.06465
4300.48511,0.05735
4302.41358,0.05604
4304.34205,0.05614
4306.27052,0.05128
4308.19898,0.04611
4310.12745,0.04797
4312.05592,0.05393
4313.98439,0.05625
4315.91286,0.05411
4317.84133,0.05137
4319.76980,0.05057
4321.69827,0.05170
4323.62673,0.05174
4325.55520,0.04965
4327.48367,0.04546
4329.41214,0.03900
4331.34061,0.03346
4333.26908,0.03361
4335.19755,0.04176
4337.12601,0.05073
4339.05448,0.05225
4340.98295,0.04903
4342.91142,0.04522
4344.83989,0.04143
4346.76836,0.03784
4348.69683,0.03448
4350.62530,0.03605
4352.55376,0.04689
4354.48223,0.05795
4356.41070,0.05711
4358.33917,0.04528
4360.26764,0.03394
4362.19611,0.03139
4364.12458,0.03397
4366.05304,0.03773
4367.98151,0.03988
4369.90998,0.03609
4371.83845,0.03302
4373.76692,0.03581
4375.69539,0.03843
4377.62386,0.04017
4379.55232,0.04447
4381.48079,0.04812
4383.40926,0.04872
4385.33773,0.05000
4387.26620,0.05059
4389.19467,0.04035
4391.12314,0.02312
4393.05161,0.01968
4394.98007,0.03000
4396.90854,0.03524
4398.83701,0.03190
4400.76548,0.02880
4402.69395,0.02941
4404.62242,0.02932
4406.55089,0.02743
4408.47935,0.02673
4410.40782,0.02349
4412.33629,0.01864
4414.26476,0.02362
4416.19323,0.03542
4418.12170,0.03895
4420.05017,0.03327
4421.97864,0.02783
4423.90710,0.02574
4425.83557,0.02382
4427.76404,0.02371
4429.69251,0.02771
4431.62098,0.03189
4433.54945,0.03173
4435.47792,0.02595
4437.40638,0.01856
4439.33485,0.01395
4441.26332,0.01442
4443.19179,0.01904
4445.12026,0.02389
4447.04873,0.02840
4448.97720,0.03273
4450.90567,0.03160
4452.83413,0.02262
4454.76260,0.01571
4456.69107,0.01618
4458.61954,0.01602
4460.54801,0.01439
4462.47648,0.01782
4464.40495,0.01932
4466.33341,0.01286
4468.26188,0.00861
4470.19035,0.01277
4472.11882,0.01963
4474.04729,0.02198
4475.97576,0.02083
4477.90423,0.02097
4479.83270,0.02386
4481.76116,0.02897
4483.68963,0.03112
4485.61810,0.02993
4487.54657,0.02732
4489.47504,0.02243
4491.40351,0.02039
4493.33198,0.02318
4495.26044,0.02537
4497.18891,0.02340
4499.11738,0.01789
4501.04585,0.01180
4502.97432,0.01039
4504.90279,0.01576
4506.83126,0.02267
4508.75973,0.02480
4510.68819,0.02245
4512.61666,0.02391
4514.54513,0.02902
4516.47360,0.02670
4518.40207,0.01735
4520.33054,0.01124
4522.25901,0.00966
4524.18747,0.00671
4526.11594,0.00342
4528.04441,0.00148
4529.97288,-0.00075
4531.90135,0.00195
4533.82982,0.00932
4535.75829,0.01205
4537.68676,0.01259
4539.61522,0.01569
4541.54369,0.01671
4543.47216,0.01698
4545.40063,0.01905
4547.32910,0.01938
4549.25757,0.01696
4551.18604,0.01547
4553.11450,0.01981
4555.04297,0.02661
4556.97144,0.02583
4558.89991,0.02024
4560.82838,0.02000
4562.75685,0.02245
4564.68532,0.02229
4566.61378,0.01993
4568.54225,0.01534
4570.47072,0.00915
4572.39919,0.00022
4574.32766,-0.00852
4576.25613,-0.00659
4578.18460,0.00439
4580.11307,0.01399
4582.04153,0.02124
4583.97000,0.01895
4585.89847,0.00306
4587.82694,-0.00872
4589.75541,-0.00667
4591.68388,-0.00162
4593.61235,-0.00259
4595.54081,-0.00529
4597.46928,-0.00681
4599.39775,-0.00883
4601.32622,-0.00922
4603.25469,-0.00966
4605.18316,-0.01175
4607.11163,-0.01197
4609.04010,-0.00865
4610.96856,-0.00174
4612.89703,0.00861
4614.82550,0.01704
4616.75397,0.01537
4618.68244,0.00940
4620.61091,0.01038
4622.53938,0.01405
4624.46784,0.01238
4626.39631,0.00710
4628.32478,0.00479
4630.25325,0.00639
4632.18172,0.00776
4634.11019,0.00836
4636.03866,0.00815
4637.96713,0.00939
4639.89559,0.01085
4641.82406,0.00773
4643.75253,0.00670
4645.68100,0.00994
4647.60947,0.00896
4649.53794,0.00227
4651.46641,-0.00138
4653.39487,0.00574
4655.32334,0.01837
4657.25181,0.02372
4659.18028,0.01434
4661.10875,-0.00287
4663.03722,-0.00997
4664.96569,-0.00260
4666.89416,0.00226
4668.82262,-0.00125
4670.75109,0.00018
4672.67956,0.00627
4674.60803,0.00740
4676.53650,0.00375
4678.46497,0.00123
4680.39344,0.00440
4682.32190,0.00974
4684.25037,0.01101
4686.17884,0.00965
4688.10731,0.00969
4690.03578,0.01208
4691.96425,0.01646
4693.89272,0.02110
4695.82119,0.01996
4697.74965,0.00765
4699.67812,-0.00372
4701.60659,0.00317
4703.53506,0.01622
4705.46353,0.01329
4707.39200,0.00091
4709.32047,-0.00448
4711.24893,-0.00379
4713.17740,-0.00022
4715.10587,0.00692
4717.03434,0.01126
4718.96281,0.00957
4720.89128,0.00544
4722.81975,0.00142
4724.74821,0.00079
4726.67668,0.00539
4728.60515,0.00637
4730.53362,0.00080
4732.46209,-0.00505
4734.39056,-0.00890
4736.31903,-0.00376
4738.24750,0.01181
4740.17596,0.02202
4742.10443,0.01455
4744.03290,-0.00037
4745.96137,-0.00297
4747.88984,0.00523
4749.81831,0.01067
4751.74678,0.01194
4753.67524,0.01302
4755.60371,0.01351
4757.53218,0.01014
4759.46065,0.00092
4761.38912,-0.00724
4763.31759,-0.00633
4765.24606,-0.00070
4767.17453,0.00567
4769.10299,0.00719
4771.03146,-0.00124
4772.95993,-0.00744
4774.88840,-0.00848
4776.81687,-0.00707
4778.74534,0.00799
4780.67381,0.02817
4782.60227,0.03101
4784.53074,0.02126
4786.45921,0.01577
4788.38768,0.01395
4790.31615,0.01171
4792.24462,0.01540
4794.17309,0.02362
4796.10156,0.02363
4798.03002,0.01249
4799.95849,0.00286
4801.88696,0.00306
4803.81543,0.00752
4805.74390,0.01017
4807.67237,0.01113
4809.60084,0.01072
4811.52930,0.00844
4813.45777,0.00918
4815.38624,0.01408
4817.31471,0.01216
4819.24318,0.00358
4821.17165,-0.00041
4823.10012,0.00160
4825.02859,0.00378
4826.95705,0.00338
4828.88552,0.00462
4830.81399,0.00628
4832.74246,0.00094
4834.67093,-0.00633
4836.59940,-0.00652
4838.52787,-0.00577
4840.45633,-0.00456
4842.38480,0.00702
4844.31327,0.01463
4846.24174,0.00646
4848.17021,0.00121
4850.09868,0.00225
4852.02715,0.00032
4853.95562,0.00300
4855.88408,0.01366
4857.81255,0.02139
4859.74102,0.02022
4861.66949,0.01537
4863.59796,0.01268
4865.52643,0.01104
4867.45490,0.00451
4869.38336,-0.00036
4871.31183,0.00748
4873.24030,0.01619
4875.16877,0.01784
4877.09724,0.01776
4879.02571,0.01083
4880.95418,0.00076
4882.88265,-0.00049
4884.81111,0.00792
4886.73958,0.01594
4888.66805,0.00904
4890.59652,-0.00720
4892.52499,-0.01249
4894.45346,-0.01094
4896.38193,-0.01595
4898.31039,-0.01684
4900.23886,-0.00311
4902.16733,0.01080
4904.09580,0.01095
4906.02427,0.00312
4907.95274,-0.00257
4909.88121,-0.00133
4911.80967,0.00624
4913.73814,0.01527
4915.66661,0.01506
4917.59508,-0.00029
4919.52355,-0.01400
4921.45202,-0.01274
4923.38049,-0.01368
4925.30896,-0.01651
4927.23742,0.00093
4929.16589,0.02972
4931.09436,0.04362
4933.02283,0.03434
4934.95130,0.01348
4936.87977,-0.00271
4938.80824,-0.00705
4940.73670,-0.00265
4942.66517,0.00432
4944.59364,0.00513
4946.52211,-0.00187
4948.45058,-0.00154
4950.37905,0.00703
4952.30752,0.00565
4954.23599,-0.00296
4956.16445,-0.00593
4958.09292,-0.00532
4960.02139,-0.00353
4961.94986,-0.00243
4963.87833,-0.00694
4965.80680,-0.00920
4967.73527,0.00070
4969.66373,0.01062
4971.59220,0.00933
4973.52067,0.00146
4975.44914,-0.00517
4977.37761,-0.00127
4979.30608,0.00869
4981.23455,0.01076
4983.16302,0.00512
4985.09148,-0.00037
4987.01995,0.00118
4988.94842,0.00853
4990.87689,0.01102
4992.80536,0.00931
4994.73383,0.01619
4996.66230,0.03351
4998.59076,0.04719
5000.51923,0.04544
5002.44770,0.02934
5004.37617,0.00905
5006.30464,-0.00135
5008.23311,0.00301
5010.16158,0.01200
5012.09005,0.01617
5014.01851,0.01347
5015.94698,0.00314
5017.87545,-0.00856
5019.80392,-0.01343
5021.73239,-0.01330
5023.66086,-0.01301
5025.58933,-0.01336
5027.51779,-0.00910
5029.44626,0.00706
5031.37473,0.02766
5033.30320,0.03139
5035.23167,0.01530
5037.16014,0.00305
5039.08861,0.00756
5041.01708,0.01720
5042.94554,0.02046
5044.87401,0.01944
5046.80248,0.01896
5048.73095,0.01762
5050.65942,0.01137
5052.58789,-0.00191
5054.51636,-0.00875
5056.44482,0.00734
5058.37329,0.02913
5060.30176,0.03353
5062.23023,0.03229
5064.15870,0.03394
5066.08717,0.02367
5068.01564,0.00880
5069.94410,0.00735
5071.87257,0.01413
5073.80104,0.01682
5075.72951,0.00924
5077.65798,-0.00039
5079.58645,-0.00474
5081.51492,-0.00412
5083.44339,0.00141
5085.37185,0.01098
5087.30032,0.02419
5089.22879,0.03251
5091.15726,0.03587
5093.08573,0.03818
5095.01420,0.03252
5096.94267,0.01995
5098.87113,0.01225
5100.79960,0.02220
5102.72807,0.03621
5104.65654,0.02930
5106.58501,0.00966
5108.51348,0.00104
5110.44195,0.00797
5112.37042,0.01417
5114.29888,0.00250
5116.22735,-0.01530
5118.15582,-0.01279
5120.08429,0.00583
5122.01276,0.01463
5123.94123,0.00699
5125.86970,-0.00007
5127.79816,0.00154
5129.72663,0.00394
5131.65510,0.00640
5133.58357,0.01224
5135.51204,0.01540
5137.44051,0.00938
5139.36898,0.00384
5141.29745,0.00093
5143.22591,-0.00112
5145.15438,0.01151
5147.08285,0.02790
5149.01132,0.03122
5150.93979,0.02885
5152.86826,0.02367
5154.79673,0.02300
5156.72519,0.03573
5158.65366,0.04901
5160.58213,0.04961
5162.51060,0.03995
5164.43907,0.04008
5166.36754,0.05549
5168.29601,0.05717
5170.22448,0.04446
5172.15294,0.04221
5174.08141,0.04314
5176.00988,0.03007
5177.93835,0.01061
5179.86682,0.00594
5181.79529,0.01656
5183.72376,0.02491
5185.65222,0.02570
5187.58069,0.02268
5189.50916,0.02266
5191.43763,0.03780
5193.36610,0.06289
5195.29457,0.07172
5197.22304,0.05340
5199.15151,0.02566
5201.07997,0.01765
5203.00844,0.03541
5204.93691,0.05386
5206.86538,0.05484
5208.79385,0.04980
5210.72232,0.05207
5212.65079,0.06009
5214.57925,0.06149
5216.50772,0.04603
5218.43619,0.01987
5220.36466,0.01145
5222.29313,0.03189
5224.22160,0.04517
5226.15007,0.03709
5228.07854,0.03752
5230.00700,0.04846
5231.93547,0.05755
5233.86394,0.05587
5235.79241,0.03875
5237.72088,0.02347
5239.64935,0.01961
5241.57782,0.02152
5243.50628,0.02844
5245.43475,0.03662
5247.36322,0.04182
5249.29169,0.03707
5251.22016,0.01704
5253.14863,-0.00049
5255.07710,0.00566
5257.00556,0.03183
5258.93403,0.05194
5260.86250,0.05096
5262.79097,0.04016
5264.71944,0.03747
5266.64791,0.04570
5268.57638,0.05192
5270.50485,0.04941
5272.43331,0.04322
5274.36178,0.03648
5276.29025,0.03833
5278.21872,0.05190
5280.14719,0.05792
5282.07566,0.04174
5284.00413,0.01756
5285.93259,0.01192
5287.86106,0.02787
5289.78953,0.04769
5291.71800,0.05801
5293.64647,0.06349
5295.57494,0.06566
5297.50341,0.05571
5299.43188,0.04789
5301.36034,0.06203
5303.28881,0.08229
5305.21728,0.07839
5307.14575,0.05203
5309.07422,0.03407
5311.00269,0.04040
5312.93116,0.05691
5314.85962,0.06146
5316.78809,0.05319
5318.71656,0.04807
5320.64503,0.04240
5322.57350,0.03380
5324.50197,0.03408
5326.43044,0.03890
5328.35891,0.04222
5330.28737,0.04666
5332.21584,0.04343
5334.14431,0.03673
5336.07278,0.04803
5338.00125,0.06991
5339.92972,0.06932
5341.85819,0.04847
5343.78665,0.02546
5345.71512,0.01026
5347.64359,0.01385
5349.57206,0.02977
5351.50053,0.03871
5353.42900,0.03902
5355.35747,0.04909
5357.28594,0.05954
5359.21440,0.05806
5361.14287,0.05369
5363.07134,0.05040
5364.99981,0.05430
5366.92828,0.06920
5368.85675,0.08712
5370.78522,0.09845
5372.71368,0.08872
5374.64215,0.06624
5376.57062,0.05819
5378.49909,0.05740
5380.42756,0.05583
5382.35603,0.06577
5384.28450,0.08633
5386.21297,0.09663
5388.14143,0.07487
5390.06990,0.04126
5391.99837,0.03781
5393.92684,0.06572
5395.85531,0.07825
5397.78378,0.06660
5399.71225,0.05444
5401.64071,0.04869
5403.56918,0.05172
5405.49765,0.06205
5407.42612,0.06663
5409.35459,0.06081
5411.28306,0.06217
5413.21153,0.06884
5415.13999,0.05424
5417.06846,0.03905
5418.99693,0.05021
5420.92540,0.07071
5422.85387,0.07696
5424.78234,0.06832
5426.71081,0.05385
5428.63928,0.05110
5430.56774,0.05794
5432.49621,0.05088
5434.42468,0.04119
5436.35315,0.04679
5438.28162,0.05844
5440.21009,0.07918
5442.13856,0.11079
5444.06702,0.12983
5445.99549,0.13393
5447.92396,0.13306
5449.85243,0.10973
5451.78090,0.07476
5453.70937,0.06616
5455.63784,0.07993
5457.56631,0.07897
5459.49477,0.05916
5461.42324,0.05395
5463.35171,0.06274
5465.28018,0.06356
5467.20865,0.06982
5469.13712,0.08522
5471.06559,0.08085
5472.99405,0.05845
5474.92252,0.04169
5476.85099,0.04492
5478.77946,0.05715
5480.70793,0.05910
5482.63640,0.05897
5484.56487,0.06689
5486.49334,0.07328
5488.42180,0.07630
5490.35027,0.07759
5492.27874,0.07114
5494.20721,0.06024
5496.13568,0.05430
5498.06415,0.05660
5499.99262,0.06804
5501.92108,0.08448
5503.84955,0.09641
5505.77802,0.09490
5507.70649,0.08507
5509.63496,0.08518
5511.56343,0.10322
5513.49190,0.12239
5515.42037,0.11825
5517.34883,0.09787
5519.27730,0.07476
5521.20577,0.05874
5523.13424,0.08115
5525.06271,0.13039
5526.99118,0.14038
5528.91965,0.10710
5530.84811,0.08553
5532.77658,0.08236
5534.70505,0.07226
5536.63352,0.06177
5538.56199,0.06909
5540.49046,0.09293
5542.41893,0.11009
5544.34740,0.10587
5546.27586,0.09537
5548.20433,0.08495
5550.13280,0.06870
5552.06127,0.06005
5553.98974,0.06300
5555.91821,0.06025
5557.84668,0.05912
5559.77514,0.07750
5561.70361,0.10246
5563.63208,0.11176
5565.56055,0.10023
5567.48902,0.07867
5569.41749,0.06411
5571.34596,0.06462
5573.27443,0.07561
5575.20289,0.08488
5577.13136,0.08756
5579.05983,0.09381
5580.98830,0.10633
5582.91677,0.11228
5584.84524,0.10383
5586.77371,0.08575
5588.70217,0.07435
5590.63064,0.08202
5592.55911,0.09100
5594.48758,0.07862
5596.41605,0.05683
5598.34452,0.05529
5600.27299,0.06599
5602.20145,0.05270
5604.12992,0.03736
5606.05839,0.05951
5607.98686,0.08499
5609.91533,0.09074
5611.84380,0.09811
5613.77227,0.08999
5615.70074,0.05925
5617.62920,0.04149
5619.55767,0.04927
5621.48614,0.06865
5623.41461,0.08101
5625.34308,0.07495
5627.27155,0.06892
5629.20002,0.07817
5631.12848,0.07291
5633.05695,0.04890
5634.98542,0.05012
5636.91389,0.07401
5638.84236,0.08129
5640.77083,0.07717
5642.69930,0.07752
5644.62777,0.08096
5646.55623,0.09048
5648.48470,0.11224
5650.41317,0.13316
5652.34164,0.13548
5654.27011,0.13053
5656.19858,0.12997
5658.12705,0.12693
5660.05551,0.12015
5661.98398,0.11296
5663.91245,0.09867
5665.84092,0.07670
5667.76939,0.06561
5669.69786,0.06689
5671.62633,0.06070
5673.55480,0.04874
5675.48326,0.04106
5677.41173,0.03540
5679.34020,0.05249
5681.26867,0.09145
5683.19714,0.09585
5685.12561,0.07329
5687.05408,0.07831
5688.98254,0.09530
5690.91101,0.08742
5692.83948,0.07384
5694.76795,0.09422
5696.69642,0.13228
5698.62489,0.13690
5700.55336,0.11996
5702.48183,0.11269
5704.41029,0.10203
5706.33876,0.08747
5708.26723,0.08381
5710.19570,0.07856
5712.12417,0.08270
5714.05264,0.12282
5715.98111,0.15355
5717.90957,0.13624
5719.83804,0.10366
5721.76651,0.08422
5723.69498,0.08719
5725.62345,0.11284
5727.55192,0.13010
5729.48039,0.10993
5731.40886,0.06827
5733.33732,0.04567
5735.26579,0.07260
5737.19426,0.11194
5739.12273,0.10791
5741.05120,0.09339
5742.97967,0.10907
5744.90814,0.12381
5746.83660,0.10752
5748.76507,0.09085
5750.69354,0.10726
5752.62201,0.12212
5754.55048,0.09443
5756.47895,0.05530
5758.40742,0.04061
5760.33588,0.03263
5762.26435,0.03715
5764.19282,0.07570
5766.12129,0.09644
5768.04976,0.07711
5769.97823,0.05902
5771.90670,0.04806
5773.83517,0.04922
5775.76363,0.07623
5777.69210,0.10322
5779.62057,0.10442
5781.54904,0.09325
5783.47751,0.09228
5785.40598,0.10321
5787.33445,0.12075
5789.26291,0.13626
5791.19138,0.12551
5793.11985,0.10190
5795.04832,0.09774
5796.97679,0.08211
5798.90526,0.04354
5800.83373,0.02718
5802.76220,0.03682
5804.69066,0.05417
5806.61913,0.09721
5808.54760,0.15517
5810.47607,0.17572
5812.40454,0.16441
5814.33301,0.14931
5816.26148,0.11896
5818.18994,0.10004
5820.11841,0.11808
5822.04688,0.14134
5823.97535,0.14324
5825.90382,0.11847
5827.83229,0.08561
5829.76076,0.06931
5831.68923,0.06808
5833.61769,0.06891
5835.54616,0.07115
5837.47463,0.08786
5839.40310,0.11351
5841.33157,0.12638
5843.26004,0.12454
5845.18851,0.11818
5847.11697,0.10913
5849.04544,0.09178
5850.97391,0.07733
5852.90238,0.07719
5854.83085,0.08387
5856.75932,0.10079
5858.68779,0.11464
5860.61626,0.10213
5862.54472,0.08156
5864.47319,0.07226
5866.40166,0.06820
5868.33013,0.06736
5870.25860,0.07741
5872.18707,0.09599
5874.11554,0.10725
5876.04400,0.11144
5877.97247,0.11495
5879.90094,0.09422
5881.82941,0.05190
5883.75788,0.03065
5885.68635,0.03623
5887.61482,0.04766
5889.54329,0.05197
5891.47175,0.04868
5893.40022,0.05337
5895.32869,0.07819
5897.25716,0.09825
5899.18563,0.07803
5901.11410,0.04804
5903.04257,0.05597
5904.97103,0.08187
5906.89950,0.08178
5908.82797,0.05687
5910.75644,0.05027
5912.68491,0.08011
5914.61338,0.11989
5916.54185,0.13819
5918.47032,0.14465
5920.39878,0.15749
5922.32725,0.16403
5924.25572,0.15343
5926.18419,0.11920
5928.11266,0.07018
5930.04113,0.03728
5931.96960,0.03431
5933.89806,0.04486
5935.82653,0.06071
5937.75500,0.08693
5939.68347,0.11574
5941.61194,0.13956
5943.54041,0.14664
5945.46888,0.15117
5947.39734,0.16469
5949.32581,0.13968
5951.25428,0.06491
5953.18275,0.00151
5955.11122,-0.00940
5957.03969,0.02967
5958.96816,0.08617
5960.89663,0.11940
5962.82509,0.12561
5964.75356,0.11685
5966.68203,0.09395
5968.61050,0.07752
5970.53897,0.08698
5972.46744,0.10191
5974.39591,0.10972
5976.32437,0.12437
5978.25284,0.12112
5980.18131,0.08028
5982.10978,0.06103
5984.03825,0.08771
5985.96672,0.09812
5987.89519,0.09109
5989.82366,0.09078
5991.75212,0.06712
5993.68059,0.04676
5995.60906,0.06346
5997.53753,0.07026
5999.46600,0.06397
6001.39447,0.08258
6003.32294,0.10552
6005.25140,0.10313
6007.17987,0.09570
6009.10834,0.09861
6011.03681,0.09594
6012.96528,0.08330
6014.89375,0.07493
6016.82222,0.07467
6018.75069,0.08541
6020.67915,0.10634
6022.60762,0.11897
6024.53609,0.11620
6026.46456,0.11045
6028.39303,0.11197
6030.32150,0.11830
6032.24997,0.12874
6034.17843,0.14087
6036.10690,0.14385
6038.03537,0.13143
6039.96384,0.10836
6041.89231,0.08633
6043.82078,0.07063
6045.74925,0.07140
6047.67772,0.09788
6049.60618,0.11130
6051.53465,0.08530
6053.46312,0.07334
6055.39159,0.10330
6057.32006,0.13415
6059.24853,0.11811
6061.17700,0.07357
6063.10546,0.06616
6065.03393,0.08231
6066.96240,0.09173
6068.89087,0.11751
6070.81934,0.14476
6072.74781,0.13313
6074.67628,0.08006
6076.60475,0.01535
6078.53321,-0.01177
6080.46168,0.03557
6082.39015,0.10992
6084.31862,0.15033
6086.24709,0.15349
6088.17556,0.13303
6090.10403,0.11566
6092.03249,0.10692
6093.96096,0.07912
6095.88943,0.05062
6097.81790,0.06436
6099.74637,0.08887
6101.67484,0.07178
6103.60331,0.04535
6105.53177,0.05622
6107.46024,0.07813
6109.38871,0.08793
6111.31718,0.10700
6113.24565,0.13202
6115.17412,0.15698
6117.10259,0.17694
6119.03106,0.16638
6120.95952,0.13495
6122.88799,0.12325
6124.81646,0.12583
6126.74493,0.10473
6128.67340,0.07172
6130.60187,0.08145
6132.53034,0.11892
6134.45880,0.10888
6136.38727,0.05690
6138.31574,0.02779
6140.24421,0.02996
6142.17268,0.04377
6144.10115,0.05106
6146.02962,0.04086
6147.95809,0.02072
6149.88655,0.00028
6151.81502,0.01072
6153.74349,0.06239
6155.67196,0.09139
6157.60043,0.08210
6159.52890,0.09693
6161.45737,0.13744
6163.38583,0.15029
6165.31430,0.13897
6167.24277,0.13471
6169.17124,0.12924
6171.09971,0.11327
6173.02818,0.09336
6174.95665,0.07922
6176.88512,0.08756
6178.81358,0.10850
6180.74205,0.10384
6182.67052,0.07707
6184.59899,0.09527
6186.52746,0.14847
6188.45593,0.14907
6190.38440,0.11821
6192.31286,0.10820
6194.24133,0.10603
6196.16980,0.09962
6198.09827,0.09263
6200.02674,0.09009
6201.95521,0.08108
6203.88368,0.06795
6205.81215,0.06377
6207.74061,0.05624
6209.66908,0.06043
6211.59755,0.10149
6213.52602,0.12887
6215.45449,0.11471
6217.38296,0.09156
6219.31143,0.08078
6221.23989,0.07932
6223.16836,0.08639
6225.09683,0.10633
6227.02530,0.13366
6228.95377,0.14818
6230.88224,0.13375
6232.81071,0.12235
6234.73918,0.13607
6236.66764,0.13901
6238.59611,0.11591
6240.52458,0.08542
6242.45305,0.07170
6244.38152,0.08838
6246.30999,0.13432
6248.23846,0.16460
6250.16692,0.13743
6252.09539,0.09128
6254.02386,0.06404
6255.95233,0.05172
6257.88080,0.06553
6259.80927,0.08108
6261.73774,0.06816
6263.66621,0.07383
6265.59467,0.08413
6267.52314,0.03770
6269.45161,0.01459
6271.38008,0.04655
6273.30855,0.06608
6275.23702,0.05389
6277.16549,0.02876
6279.09395,0.01616
6281.02242,0.03423
6282.95089,0.04278
6284.87936,0.03321
6286.80783,0.04935
6288.73630,0.07778
6290.66477,0.08887
6292.59323,0.10980
6294.52170,0.13918
6296.45017,0.11871
6298.37864,0.07075
6300.30711,0.04616
6302.23558,0.05561
6304.16405,0.10701
6306.09252,0.14905
6308.02098,0.14499
6309.94945,0.12824
6311.87792,0.10085
6313.80639,0.06073
6315.73486,0.06298
6317.66333,0.10950
6319.59180,0.13203
6321.52026,0.12145
6323.44873,0.12213
6325.37720,0.14033
6327.30567,0.13656
6329.23414,0.12156
6331.16261,0.13133
6333.09108,0.12305
6335.01955,0.09358
6336.94801,0.08864
6338.87648,0.10510
6340.80495,0.13015
6342.73342,0.13108
6344.66189,0.07664
6346.59036,0.02154
6348.51883,0.00860
6350.44729,-0.02254
6352.37576,-0.07410
6354.30423,-0.08919
6356.23270,-0.06532
6358.16117,-0.01638
6360.08964,0.02670
6362.01811,0.04444
6363.94658,0.04725
6365.87504,0.02364
6367.80351,0.00357
6369.73198,0.05006
6371.66045,0.13220
6373.58892,0.16808
6375.51739,0.13921
6377.44586,0.08546
6379.37432,0.03595
6381.30279,0.01360
6383.23126,0.03366
6385.15973,0.08558
6387.08820,0.15120
6389.01667,0.20518
6390.94514,0.21305
6392.87361,0.17652
6394.80207,0.12311
6396.73054,0.07431
6398.65901,0.05675
6400.58748,0.07887
6402.51595,0.11879
6404.44442,0.18157
6406.37289,0.25809
6408.30135,0.27569
6410.22982,0.21026
6412.15829,0.10628
6414.08676,0.03123
6416.01523,0.02026
6417.94370,0.04616
6419.87217,0.08535
6421.80064,0.10019
6423.72910,0.06528
6425.65757,0.03444
6427.58604,0.06751
6429.51451,0.14378
6431.44298,0.16695
6433.37145,0.11665
6435.29992,0.08407
6437.22838,0.09484
6439.15685,0.10935
6441.08532,0.10846
6443.01379,0.11585
6444.94226,0.14686
6446.87073,0.17063
6448.79920,0.15957
6450.72766,0.11836
6452.65613,0.08154
6454.58460,0.08026
6456.51307,0.08761
6458.44154,0.07090
6460.37001,0.08051
6462.29848,0.14123
6464.22695,0.14935
6466.15541,0.07554
6468.08388,0.08034
6470.01235,0.18188
6471.94082,0.19220
6473.86929,0.11177
6475.79776,0.05752
6477.72623,0.06274
6479.65469,0.10326
6481.58316,0.14284
6483.51163,0.15877
6485.44010,0.15514
6487.36857,0.15645
6489.29704,0.15145
6491.22551,0.11402
6493.15398,0.07863
6495.08244,0.06803
6497.01091,0.07173
6498.93938,0.07142
6500.86785,0.02754
6502.79632,-0.02892
6504.72479,-0.04795
6506.65326,-0.04514
6508.58172,-0.01926
6510.51019,0.03856
6512.43866,0.06073
6514.36713,0.02067
6516.29560,0.00427
6518.22407,0.01611
6520.15254,0.03291
6522.08101,0.08087
6524.00947,0.12412
6525.93794,0.13316
6527.86641,0.14829
6529.79488,0.16175
6531.72335,0.13867
6533.65182,0.09736
6535.58029,0.07247
6537.50875,0.04370
6539.43722,-0.01081
6541.36569,-0.04906
6543.29416,-0.03814
6545.22263,0.00671
6547.15110,0.04435
6549.07957,0.04965
6551.00804,0.03810
6552.93650,0.05399
6554.86497,0.09335
6556.79344,0.11008
6558.72191,0.10886
6560.65038,0.09646
6562.57885,0.08746
6564.50732,0.11280
6566.43578,0.13224
6568.36425,0.12073
6570.29272,0.06938
6572.22119,-0.02700
6574.14966,-0.09195
6576.07813,-0.06425
6578.00660,0.01150
6579.93507,0.04549
6581.86353,0.04749
6583.79200,0.06551
6585.72047,0.06822
6587.64894,0.04061
6589.57741,0.00708
6591.50588,-0.03029
6593.43435,-0.05842
6595.36281,-0.04640
6597.29128,-0.00716
6599.21975,0.01324
6601.14822,-0.00096
6603.07669,-0.00382
6605.00516,0.01204
6606.93363,0.05343
6608.86210,0.12793
6610.79056,0.15765
6612.71903,0.12952
6614.64750,0.15409
6616.57597,0.23129
6618.50444,0.23177
6620.43291,0.14265
6622.36138,0.05906
6624.28984,0.05452
6626.21831,0.11452
6628.14678,0.15680
6630.07525,0.12206
6632.00372,0.05979
6633.93219,0.03492
6635.86066,0.05827
6637.78912,0.07670
6639.71759,0.03774
6641.64606,0.02488
6643.57453,0.08233
6645.50300,0.12788
6647.43147,0.14173
6649.35994,0.15305
6651.28841,0.16275
6653.21687,0.16256
6655.14534,0.14123
6657.07381,0.09623
6659.00228,0.05237
6660.93075,0.05975
6662.85922,0.11827
6664.78769,0.13446
6666.71615,0.04241
6668.64462,-0.07533
6670.57309,-0.09389
6672.50156,-0.02232
6674.43003,0.05575
6676.35850,0.11623
6678.28697,0.14681
6680.21544,0.12803
6682.14390,0.08130
6684.07237,0.03364
6686.00084,0.02141
6687.92931,0.07846
6689.85778,0.13756
6691.78625,0.12560
6693.71472,0.10664
6695.64318,0.11115
6697.57165,0.08328
6699.50012,0.00391
6701.42859,-0.05550
6703.35706,-0.06834
6705.28553,-0.08135
6707.21400,-0.06121
6709.14247,-0.00740
6711.07093,0.00817
6712.99940,0.00834
6714.92787,0.02089
6716.85634,0.04334
6718.78481,0.10367
6720.71328,0.15724
6722.64175,0.13802
6724.57021,0.07875
6726.49868,-0.00084
6728.42715,-0.05112
6730.35562,-0.02210
6732.28409,0.02833
6734.21256,0.05647
6736.14103,0.08485
6738.06950,0.11214
6739.99796,0.11228
6741.92643,0.09974
6743.85490,0.10863
6745.78337,0.14415
6747.71184,0.15511
6749.64031,0.09310
6751.56878,0.03674
6753.49724,0.05585
6755.42571,0.07497
6757.35418,0.02234
6759.28265,-0.02493
6761.21112,0.00075
6763.13959,0.03361
6765.06806,0.03735
6766.99653,-0.00176
6768.92499,-0.06889
6770.85346,-0.07560
6772.78193,0.01007
6774.71040,0.11125
6776.63887,0.14987
6778.56734,0.13804
6780.49581,0.11646
6782.42427,0.07222
6784.35274,0.01203
6786.28121,0.01289
6788.20968,0.11003
6790.13815,0.20953
6792.06662,0.19283
6793.99509,0.10396
6795.92355,0.08828
6797.85202,0.16388
6799.78049,0.18497
6801.70896,0.12929
6803.63743,0.10888
6805.56590,0.09435
6807.49437,0.08535
6809.42284,0.08879
6811.35130,0.03334
6813.27977,-0.00873
6815.20824,0.04991
6817.13671,0.11199
6819.06518,0.10844
6820.99365,0.07372
6822.92212,-0.00484
6824.85058,-0.09863
6826.77905,-0.08766
6828.70752,0.00540
6830.63599,0.03160
6832.56446,0.03366
6834.49293,0.10210
6836.42140,0.14314
6838.34987,0.09775
6840.27833,0.04627
6842.20680,0.03720
6844.13527,0.07060
6846.06374,0.10971
6847.99221,0.09600
6849.92068,0.03849
6851.84915,-0.00874
6853.77761,-0.03213
6855.70608,0.02451
6857.63455,0.13729
6859.56302,0.15169
6861.49149,0.05937
6863.41996,0.04152
6865.34843,0.11720
6867.27690,0.12672
6869.20536,0.09339
6871.13383,0.14418
6873.06230,0.20082
6874.99077,0.11135
6876.91924,-0.02489
6878.84771,-0.08433
6880.77618,-0.02642
6882.70464,0.10121
6884.63311,0.11735
6886.56158,-0.01569
6888.49005,-0.09218
6890.41852,-0.03719
6892.34699,0.01533
6894.27546,0.02756
6896.20393,0.04561
6898.13239,0.04500
6900.06086,0.03735
6901.98933,0.09160
6903.91780,0.18985
6905.84627,0.22478
6907.77474,0.17269
6909.70321,0.13598
6911.63167,0.13373
6913.56014,0.13269
6915.48861,0.18022
6917.41708,0.22006
6919.34555,0.14331
6921.27402,0.03246
6923.20249,0.02818
6925.13096,0.12453
6927.05942,0.16927
6928.98789,0.13906
6930.91636,0.18021
6932.84483,0.22207
6934.77330,0.16398
6936.70177,0.14940
6938.63024,0.18556
6940.55870,0.13628
6942.48717,0.07006
6944.41564,0.05489
6946.34411,0.04273
6948.27258,0.04035
6950.20105,0.06136
6952.12952,0.11914
6954.05799,0.16495
6955.98645,0.13050
6957.91492,0.06607
6959.84339,0.06787
6961.77186,0.11984
6963.70033,0.16107
6965.62880,0.18798
6967.55727,0.14280
6969.48573,0.07484
6971.41420,0.14553
6973.34267,0.23374
6975.27114,0.14178
6977.19961,0.02172
6979.12808,0.00824
6981.05655,0.01785
6982.98501,0.00152
6984.91348,-0.02311
6986.84195,-0.04391
6988.77042,-0.05470
6990.69889,-0.03540
6992.62736,-0.01943
6994.55583,-0.04891
6996.48430,-0.05314
6998.41276,0.01387
7000.34123,0.05800
7002.26970,0.07753
7004.19817,0.14032
7006.12664,0.20806
7008.05511,0.16570
7009.98358,0.03115
7011.91204,-0.03848
7013.84051,-0.02237
7015.76898,-0.01185
7017.69745,0.04411
7019.62592,0.11908
7021.55439,0.12931
7023.48286,0.09579
7025.41133,0.02996
7027.33979,0.03516
7029.26826,0.16773
7031.19673,0.22365
7033.12520,0.16576
7035.05367,0.13873
7036.98214,0.15829
7038.91061,0.16249
7040.83907,0.16973
7042.76754,0.17227
7044.69601,0.10238
7046.62448,0.02502
7048.55295,0.01255
7050.48142,0.02130
7052.40989,0.03539
7054.33836,0.04750
7056.26682,0.09440
7058.19529,0.19215
7060.12376,0.19127
7062.05223,0.09994
7063.98070,0.02226
7065.90917,-0.02184
7067.83764,-0.02028
7069.76610,0.03123
7071.69457,0.09508
7073.62304,0.08845
7075.55151,0.00476
7077.47998,-0.00035
7079.40845,0.15197
7081.33692,0.28977
7083.26539,0.25733
7085.19385,0.16453
7087.12232,0.08364
7089.05079,0.06310
7090.97926,0.09847
7092.90773,0.08435
7094.83620,0.01176
7096.76467,0.00521
7098.69313,0.06957
7100.62160,0.06792
7102.55007,-0.01603
7104.47854,-0.10315
7106.40701,-0.11801
7108.33548,-0.04310
7110.26395,0.05628
7112.19242,0.10301
7114.12088,0.08972
7116.04935,0.09407
7117.97782,0.18072
7119.90629,0.25835
7121.83476,0.21903
7123.76323,0.12515
7125.69170,0.07616
7127.62016,0.10963
7129.54863,0.13393
7131.47710,0.07859
7133.40557,0.00647
7135.33404,-0.02689
7137.26251,0.01369
7139.19098,0.10554
7141.11944,0.11630
7143.04791,0.05260
7144.97638,0.02508
7146.90485,0.00721
7148.83332,-0.02531
7150.76179,-0.02181
7152.69026,0.01592
7154.61873,0.09201
7156.54719,0.16160
7158.47566,0.14545
7160.40413,0.06194
7162.33260,-0.03598
7164.26107,-0.10898
7166.18954,-0.11295
7168.11801,-0.02204
7170.04647,0.09075
7171.97494,0.17185
7173.90341,0.17282
7175.83188,-0.05198
7177.76035,-0.28840
7179.68882,-0.18497
7181.61729,0.08667
7183.54576,0.16689
7185.47422,-0.02944
7187.40269,-0.23781
7189.33116,-0.21833
7191.25963,-0.02022
7193.18810,0.09933
7195.11657,0.14786
7197.04504,0.13794
7198.97350,0.05287
7200.90197,0.05185
7202.83044,0.11601
7204.75891,0.07026
7206.68738,0.00899
7208.61585,0.05496
7210.54432,0.09262
7212.47279,0.05251
7214.40125,-0.05410
7216.32972,-0.15991
7218.25819,-0.14884
7220.18666,-0.06529
7222.11513,-0.02132
7224.04360,0.00398
7225.97207,0.06157
7227.90053,0.13901
7229.82900,0.15751
7231.75747,0.09375
7233.68594,0.02869
7235.61441,-0.01250
7237.54288,-0.01069
7239.47135,0.05490
7241.39982,0.05105
7243.32828,-0.08344
7245.25675,-0.12281
7247.18522,-0.04798
7249.11369,-0.02814
7251.04216,-0.11835
7252.97063,-0.14519
7254.89910,0.05161
7256.82756,0.21766
7258.75603,0.19995
7260.68450,0.10500
7262.61297,0.14404
7264.54144,0.25605
7266.46991,0.29892
7268.39838,0.19644
7270.32685,-0.03397
7272.25531,-0.15008
7274.18378,-0.03694
7276.11225,0.05093
7278.04072,0.05718
7279.96919,0.04842
7281.89766,0.09575
7283.82613,0.15910
7285.75459,0.13703
7287.68306,0.11057
7289.61153,0.19490
7291.54000,0.27053
7293.46847,0.18872
7295.39694,0.02986
7297.32541,-0.03876
7299.25387,-0.05767
7301.18234,-0.11614
7303.11081,-0.11996
7305.03928,-0.04391
7306.96775,-0.00255
7308.89622,-0.01820
7310.82469,-0.00997
7312.75316,0.00857
7314.68162,-0.06518
7316.61009,-0.16100
7318.53856,-0.06026
7320.46703,0.09632
7322.39550,0.12093
7324.32397,0.05893
7326.25244,0.03187
7328.18090,0.07599
7330.10937,0.04818
7332.03784,-0.12377
7333.96631,-0.16847
7335.89478,-0.03440
7337.82325,0.07586
7339.75172,0.08436
7341.68019,0.09182
7343.60865,0.14510
7345.53712,0.24747
7347.46559,0.32714
7349.39406,0.25858
7351.32253,0.12768
7353.25100,0.09104
7355.17947,0.14238
7357.10793,0.23397
7359.03640,0.28466
7360.96487,0.26695
7362.89334,0.30627
7364.82181,0.31783
7366.75028,0.22328
7368.67875,0.10942
7370.60722,0.03848
7372.53568,0.02764
7374.46415,0.04750
7376.39262,0.03092
7378.32109,0.01595
7380.24956,0.06658
7382.17803,0.11701
7384.10650,0.10149
7386.03496,0.02364
7387.96343,-0.08228
7389.89190,-0.09236
7391.82037,-0.09751
7393.74884,-0.18726
7395.67731,-0.18616
7397.60578,-0.07593
7399.53425,0.00527
7401.46271,0.08383
7403.39118,0.14103
7405.31965,0.07093
7407.24812,-0.02039
7409.17659,-0.05601
7411.10506,-0.03246
7413.03353,0.07470
7414.96199,0.15601
7416.89046,0.08980
7418.81893,-0.03791
7420.74740,-0.00648
7422.67587,0.06445
7424.60434,0.06802
7426.53281,0.02662
7428.46128,-0.10622
7430.38974,-0.26876
7432.31821,-0.27351
7434.24668,-0.14594
7436.17515,-0.04068
7438.10362,-0.10931
7440.03209,-0.13702
7441.96056,0.06133
7443.88902,0.19931
7445.81749,0.17199
7447.74596,0.13284
7449.67443,0.17700
7451.60290,0.32348
7453.53137,0.35821
7455.45984,0.25611
7457.38831,0.18895
7459.31677,0.14649
7461.24524,0.00968
7463.17371,-0.11592
7465.10218,-0.08294
7467.03065,0.00627
7468.95912,0.08690
7470.88759,0.14129
7472.81605,0.00465
7474.74452,-0.14635
7476.67299,-0.06072
7478.60146,0.03904
7480.52993,-0.06789
7482.45840,-0.13716
7484.38687,-0.04837
7486.31533,0.01248
7488.24380,-0.01355
7490.17227,-0.00165
7492.10074,0.04125
7494.02921,0.07058
7495.95768,0.15758
7497.88615,0.30151
