399.19301,-0.07188
401.12148,0.32893
403.04995,0.19985
404.97842,0.01429
406.90689,0.01109
408.83536,0.10370
410.76382,0.11383
412.69229,0.06964
414.62076,0.07691
416.54923,0.06531
418.47770,-0.07225
420.40617,-0.15627
422.33464,-0.05461
424.26311,0.08026
426.19157,0.11950
428.12004,0.06597
430.04851,0.05926
431.97698,0.13300
433.90545,0.16506
435.83392,0.14244
437.76239,0.11355
439.69085,0.09130
441.61932,0.08661
443.54779,0.12351
445.47626,0.13188
447.40473,0.05507
449.33320,-0.01486
451.26167,-0.00056
453.19013,0.04272
455.11860,0.07232
457.04707,0.11402
458.97554,0.09708
460.90401,0.04418
462.83248,0.10676
464.76095,0.18213
466.68942,0.12275
468.61788,0.06652
470.54635,0.09433
472.47482,0.08759
474.40329,0.07254
476.33176,0.17601
478.26023,0.20243
480.18870,0.13500
482.11716,0.10381
484.04563,0.14353
485.97410,0.13789
487.90257,0.08414
489.83104,0.07832
491.75951,0.12399
493.68798,0.15067
495.61645,0.12446
497.54491,0.09589
499.47338,0.10631
501.40185,0.14329
503.33032,0.15708
505.25879,0.10608
507.18726,0.06365
509.11573,0.07513
511.04419,0.06056
512.97266,0.02305
514.90113,0.02399
516.82960,0.05584
518.75807,0.07612
520.68654,0.07870
522.61501,0.07948
524.54348,0.07571
526.47194,0.06708
528.40041,0.06247
530.32888,0.05819
532.25735,0.06943
534.18582,0.09771
536.11429,0.10460
538.04276,0.09017
539.97122,0.07303
541.89969,0.05055
543.82816,0.06178
545.75663,0.10717
547.68510,0.12552
549.61357,0.11030
551.54204,0.05522
553.47051,-0.02728
555.39897,-0.03649
557.32744,0.04730
559.25591,0.11482
561.18438,0.12589
563.11285,0.12028
565.04132,0.10614
566.96979,0.09154
568.89825,0.10383
570.82672,0.11660
572.75519,0.09565
574.68366,0.07115
576.61213,0.08462
578.54060,0.10942
580.46907,0.10827
582.39754,0.09709
584.32600,0.09984
586.25447,0.10541
588.18294,0.10292
590.11141,0.11005
592.03988,0.11715
593.96835,0.09249
595.89682,0.06784
597.82528,0.08040
599.75375,0.10319
601.68222,0.10011
603.61069,0.08152
605.53916,0.06935
607.46763,0.06852
609.39610,0.08988
611.32456,0.12303
613.25303,0.12720
615.18150,0.09946
617.10997,0.07913
619.03844,0.07801
620.96691,0.08252
622.89538,0.09049
624.82385,0.09945
626.75231,0.10098
628.68078,0.09580
630.60925,0.09112
632.53772,0.09352
634.46619,0.10373
636.39466,0.11132
638.32313,0.10967
640.25159,0.09786
642.18006,0.08983
644.10853,0.10116
646.03700,0.11818
647.96547,0.12004
649.89394,0.10604
651.82241,0.10169
653.75088,0.11411
655.67934,0.12332
657.60781,0.12855
659.53628,0.12576
661.46475,0.11208
663.39322,0.11349
665.32169,0.13823
667.25016,0.16324
669.17862,0.15525
671.10709,0.14576
673.03556,0.14821
674.96403,0.13510
676.89250,0.11764
678.82097,0.12317
680.74944,0.13120
682.67791,0.12532
684.60637,0.12250
686.53484,0.12389
688.46331,0.12708
690.39178,0.13815
692.32025,0.14892
694.24872,0.15129
696.17719,0.14455
698.10565,0.13004
700.03412,0.11953
701.96259,0.11933
703.89106,0.12093
705.81953,0.11992
707.74800,0.12330
709.67647,0.14361
711.60494,0.16932
713.53340,0.16728
715.46187,0.14209
717.39034,0.12264
719.31881,0.12041
721.24728,0.13348
723.17575,0.13801
725.10422,0.12658
727.03268,0.12285
728.96115,0.12739
730.88962,0.13005
732.81809,0.12979
734.74656,0.12312
736.67503,0.11970
738.60350,0.12888
740.53197,0.14100
742.46043,0.14195
744.38890,0.13433
746.31737,0.12620
748.24584,0.11591
750.17431,0.11200
752.10278,0.12063
754.03125,0.12752
755.95971,0.12016
757.88818,0.10981
759.81665,0.11146
761.74512,0.11470
763.67359,0.11147
765.60206,0.11528
767.53053,0.12899
769.45900,0.13388
771.38746,0.13027
773.31593,0.13305
775.24440,0.13351
777.17287,0.13244
779.10134,0.14162
781.02981,0.14380
782.95828,0.13342
784.88674,0.13468
786.81521,0.14685
788.74368,0.14755
790.67215,0.14111
792.60062,0.14540
794.52909,0.14815
796.45756,0.13502
798.38602,0.12779
800.31449,0.13286
802.24296,0.13555
804.17143,0.13509
806.09990,0.13202
808.02837,0.12527
809.95684,0.12015
811.88531,0.12185
813.81377,0.12638
815.74224,0.12929
817.67071,0.13304
819.59918,0.13613
821.52765,0.13480
823.45612,0.13489
825.38459,0.13770
827.31305,0.13561
829.24152,0.13357
831.16999,0.13298
833.09846,0.12990
835.02693,0.12984
836.95540,0.13287
838.88387,0.13316
840.81234,0.13270
842.74080,0.13696
844.66927,0.14079
846.59774,0.13636
848.52621,0.12681
850.45468,0.12168
852.38315,0.12596
854.31162,0.13615
856.24008,0.14406
858.16855,0.14458
860.09702,0.14720
862.02549,0.15664
863.95396,0.15792
865.88243,0.15172
867.81090,0.15508
869.73937,0.15943
871.66783,0.15385
873.59630,0.14969
875.52477,0.14620
877.45324,0.13886
879.38171,0.13368
881.31018,0.13113
883.23865,0.12757
885.16711,0.12600
887.09558,0.13268
889.02405,0.14006
890.95252,0.13981
892.88099,0.13466
894.80946,0.12705
896.73793,0.12118
898.66640,0.12260
900.59486,0.12980
902.52333,0.13621
904.45180,0.13491
906.38027,0.12593
908.30874,0.12480
910.23721,0.13630
912.16568,0.14402
914.09414,0.13998
916.02261,0.13168
917.95108,0.13084
919.87955,0.13343
921.80802,0.13182
923.73649,0.13595
925.66496,0.14460
927.59343,0.14403
929.52189,0.13630
931.45036,0.13094
933.37883,0.13240
935.30730,0.14035
937.23577,0.14531
939.16424,0.14294
941.09271,0.13958
943.02117,0.13708
944.94964,0.13595
946.87811,0.13748
948.80658,0.14197
950.73505,0.14810
952.66352,0.15205
954.59199,0.15418
956.52045,0.15299
958.44892,0.14475
960.37739,0.13589
962.30586,0.13559
964.23433,0.14229
966.16280,0.15179
968.09127,0.16221
970.01974,0.16308
971.94820,0.15379
973.87667,0.14944
975.80514,0.14998
977.73361,0.14825
979.66208,0.14548
981.59055,0.14113
983.51902,0.13555
985.44748,0.13520
987.37595,0.14315
989.30442,0.15212
991.23289,0.15640
993.16136,0.15932
995.08983,0.15902
997.01830,0.15489
998.94677,0.15284
1000.87523,0.14960
1002.80370,0.14455
1004.73217,0.14587
1006.66064,0.15459
1008.58911,0.16245
1010.51758,0.16129
1012.44605,0.15249
1014.37451,0.14472
1016.30298,0.14323
1018.23145,0.14735
1020.15992,0.15313
1022.08839,0.15122
1024.01686,0.13747
1025.94533,0.12095
1027.87380,0.11353
1029.80226,0.12156
1031.73073,0.13828
1033.65920,0.15229
1035.58767,0.15556
1037.51614,0.14752
1039.44461,0.13919
1041.37308,0.13775
1043.30154,0.13926
1045.23001,0.14014
1047.15848,0.14441
1049.08695,0.15121
1051.01542,0.15403
1052.94389,0.15179
1054.87236,0.15022
1056.80083,0.15358
1058.72929,0.15421
1060.65776,0.15127
1062.58623,0.15135
1064.51470,0.14883
1066.44317,0.14435
1068.37164,0.14768
1070.30011,0.15384
1072.22857,0.15370
1074.15704,0.15311
1076.08551,0.15743
1078.01398,0.15706
1079.94245,0.14764
1081.87092,0.14393
1083.79939,0.15161
1085.72786,0.15672
1087.65632,0.15465
1089.58479,0.15452
1091.51326,0.15966
1093.44173,0.16494
1095.37020,0.16611
1097.29867,0.16345
1099.22714,0.15850
1101.15560,0.15446
1103.08407,0.15647
1105.01254,0.16377
1106.94101,0.16932
1108.86948,0.17083
1110.79795,0.17168
1112.72642,0.17244
1114.65489,0.17078
1116.58335,0.16509
1118.51182,0.15582
1120.44029,0.14946
1122.36876,0.15159
1124.29723,0.15618
1126.22570,0.15399
1128.15417,0.14706
1130.08263,0.14566
1132.01110,0.14886
1133.93957,0.14872
1135.86804,0.14877
1137.79651,0.15189
1139.72498,0.15243
1141.65345,0.15262
1143.58191,0.15642
1145.51038,0.15946
1147.43885,0.16335
1149.36732,0.16843
1151.29579,0.16656
1153.22426,0.16293
1155.15273,0.16554
1157.08120,0.16860
1159.00966,0.16642
1160.93813,0.16206
1162.86660,0.16198
1164.79507,0.16527
1166.72354,0.16713
1168.65201,0.16800
1170.58048,0.16657
1172.50894,0.16210
1174.43741,0.16100
1176.36588,0.16358
1178.29435,0.16249
1180.22282,0.15945
1182.15129,0.15961
1184.07976,0.16050
1186.00823,0.16064
1187.93669,0.16139
1189.86516,0.16104
1191.79363,0.15851
1193.72210,0.15733
1195.65057,0.15990
1197.57904,0.16271
1199.50751,0.16222
1201.43597,0.16172
1203.36444,0.16353
1205.29291,0.16359
1207.22138,0.16099
1209.14985,0.15962
1211.07832,0.16109
1213.00679,0.16497
1214.93526,0.16861
1216.86372,0.16876
1218.79219,0.16769
1220.72066,0.16674
1222.64913,0.16500
1224.57760,0.16534
1226.50607,0.16500
1228.43454,0.16136
1230.36300,0.16140
1232.29147,0.16501
1234.21994,0.16459
1236.14841,0.16120
1238.07688,0.16031
1240.00535,0.16202
1241.93382,0.16376
1243.86229,0.16364
1245.79075,0.16166
1247.71922,0.16113
1249.64769,0.16457
1251.57616,0.16679
1253.50463,0.16294
1255.43310,0.15913
1257.36157,0.15930
1259.29003,0.16054
1261.21850,0.16347
1263.14697,0.16757
1265.07544,0.16718
1267.00391,0.16048
1268.93238,0.15574
1270.86085,0.15929
1272.78932,0.16423
1274.71778,0.16490
1276.64625,0.16555
1278.57472,0.16668
1280.50319,0.16464
1282.43166,0.16361
1284.36013,0.16657
1286.28860,0.16602
1288.21706,0.16189
1290.14553,0.16285
1292.07400,0.16614
1294.00247,0.16594
1295.93094,0.16414
1297.85941,0.16136
1299.78788,0.15566
1301.71634,0.14500
1303.64481,0.13259
1305.57328,0.13373
1307.50175,0.15240
1309.43022,0.16733
1311.35869,0.16865
1313.28716,0.16825
1315.21563,0.17122
1317.14409,0.17290
1319.07256,0.17149
1321.00103,0.16941
1322.92950,0.16839
1324.85797,0.16665
1326.78644,0.16477
1328.71491,0.16492
1330.64337,0.16446
1332.57184,0.16468
1334.50031,0.16736
1336.42878,0.16921
1338.35725,0.17072
1340.28572,0.16689
1342.21419,0.15835
1344.14266,0.15633
1346.07112,0.15980
1347.99959,0.16280
1349.92806,0.16257
1351.85653,0.16109
1353.78500,0.16227
1355.71347,0.16478
1357.64194,0.16735
1359.57040,0.17065
1361.49887,0.17420
1363.42734,0.17684
1365.35581,0.17845
1367.28428,0.17899
1369.21275,0.17758
1371.14122,0.17734
1373.06969,0.18060
1374.99815,0.18226
1376.92662,0.18057
1378.85509,0.18066
1380.78356,0.18278
1382.71203,0.18377
1384.64050,0.18236
1386.56897,0.18010
1388.49743,0.17913
1390.42590,0.17832
1392.35437,0.17816
1394.28284,0.18236
1396.21131,0.18822
1398.13978,0.18813
1400.06825,0.18358
1401.99672,0.18061
1403.92518,0.18037
1405.85365,0.18069
1407.78212,0.18093
1409.71059,0.18198
1411.63906,0.18297
1413.56753,0.18195
1415.49600,0.18123
1417.42446,0.18474
1419.35293,0.18686
1421.28140,0.18413
1423.20987,0.18390
1425.13834,0.18550
1427.06681,0.18722
1428.99528,0.18756
1430.92375,0.18449
1432.85221,0.18506
1434.78068,0.19138
1436.70915,0.19417
1438.63762,0.19027
1440.56609,0.18701
1442.49456,0.18556
1444.42303,0.18461
1446.35149,0.18443
1448.27996,0.18613
1450.20843,0.18808
1452.13690,0.19073
1454.06537,0.19624
1455.99384,0.20411
1457.92231,0.20391
1459.85077,0.19552
1461.77924,0.19296
1463.70771,0.19444
1465.63618,0.19327
1467.56465,0.18838
1469.49312,0.18605
1471.42159,0.19142
1473.35006,0.20098
1475.27852,0.20167
1477.20699,0.19857
1479.13546,0.19653
1481.06393,0.19152
1482.99240,0.18507
1484.92087,0.18406
1486.84934,0.18803
1488.77780,0.19165
1490.70627,0.19099
1492.63474,0.18975
1494.56321,0.19221
1496.49168,0.19623
1498.42015,0.19676
1500.34862,0.19605
1502.27709,0.19703
1504.20555,0.20118
1506.13402,0.21250
1508.06249,0.21730
1509.99096,0.20738
1511.91943,0.20068
1513.84790,0.20093
1515.77637,0.20661
1517.70483,0.21414
1519.63330,0.22061
1521.56177,0.22209
1523.49024,0.21361
1525.41871,0.20571
1527.34718,0.20392
1529.27565,0.20430
1531.20412,0.20576
1533.13258,0.20923
1535.06105,0.21038
1536.98952,0.21116
1538.91799,0.22121
1540.84646,0.23767
1542.77493,0.23093
1544.70340,0.21322
1546.63186,0.20163
1548.56033,0.19804
1550.48880,0.19686
1552.41727,0.19716
1554.34574,0.20283
1556.27421,0.21330
1558.20268,0.22282
1560.13115,0.21279
1562.05961,0.20185
1563.98808,0.19907
1565.91655,0.20123
1567.84502,0.20763
1569.77349,0.21077
1571.70196,0.20666
1573.63043,0.20563
1575.55889,0.20670
1577.48736,0.19977
1579.41583,0.19323
1581.34430,0.19294
1583.27277,0.19264
1585.20124,0.19077
1587.12971,0.19041
1589.05818,0.19019
1590.98664,0.19046
1592.91511,0.19376
1594.84358,0.19644
1596.77205,0.19455
1598.70052,0.19284
1600.62899,0.19529
1602.55746,0.19650
1604.48592,0.19238
1606.41439,0.18948
1608.34286,0.19161
1610.27133,0.19360
1612.19980,0.19385
1614.12827,0.19720
1616.05674,0.20423
1617.98521,0.20454
1619.91367,0.20169
1621.84214,0.20377
1623.77061,0.20494
1625.69908,0.20387
1627.62755,0.20504
1629.55602,0.20377
1631.48449,0.20085
1633.41295,0.20330
1635.34142,0.21115
1637.26989,0.20953
1639.19836,0.20067
1641.12683,0.19659
1643.05530,0.20005
1644.98377,0.21058
1646.91223,0.22117
1648.84070,0.22038
1650.76917,0.21916
1652.69764,0.22386
1654.62611,0.22149
1656.55458,0.21193
1658.48305,0.20594
1660.41152,0.20731
1662.33998,0.21023
1664.26845,0.20509
1666.19692,0.20244
1668.12539,0.21035
1670.05386,0.21849
1671.98233,0.21396
1673.91080,0.20567
1675.83926,0.20056
1677.76773,0.20132
1679.69620,0.20669
1681.62467,0.21433
1683.55314,0.21874
1685.48161,0.21355
1687.41008,0.20835
1689.33855,0.20433
1691.26701,0.20082
1693.19548,0.20269
1695.12395,0.21207
1697.05242,0.22190
1698.98089,0.22250
1700.90936,0.21533
1702.83783,0.20924
1704.76629,0.20569
1706.69476,0.20071
1708.62323,0.19600
1710.55170,0.19448
1712.48017,0.19693
1714.40864,0.20478
1716.33711,0.21460
1718.26558,0.20928
1720.19404,0.19576
1722.12251,0.19084
1724.05098,0.19316
1725.97945,0.19628
1727.90792,0.19833
1729.83639,0.20104
1731.76486,0.20297
1733.69332,0.20147
1735.62179,0.19751
1737.55026,0.19461
1739.47873,0.19363
1741.40720,0.19616
1743.33567,0.19980
1745.26414,0.20143
1747.19261,0.20260
1749.12107,0.20368
1751.04954,0.20005
1752.97801,0.19388
1754.90648,0.19109
1756.83495,0.19192
1758.76342,0.19435
1760.69189,0.19720
1762.62035,0.19724
1764.54882,0.19401
1766.47729,0.19442
1768.40576,0.20061
1770.33423,0.20762
1772.26270,0.20987
1774.19117,0.20581
1776.11964,0.20090
1778.04810,0.19785
1779.97657,0.19659
1781.90504,0.19745
1783.83351,0.19947
1785.76198,0.19745
1787.69045,0.19206
1789.61892,0.19162
1791.54738,0.19770
1793.47585,0.20163
1795.40432,0.20020
1797.33279,0.19816
1799.26126,0.19592
1801.18973,0.19351
1803.11820,0.19304
1805.04666,0.19374
1806.97513,0.19483
1808.90360,0.19761
1810.83207,0.20006
1812.76054,0.19820
1814.68901,0.19389
1816.61748,0.19207
1818.54595,0.19558
1820.47441,0.19882
1822.40288,0.19729
1824.33135,0.19677
1826.25982,0.19858
1828.18829,0.19946
1830.11676,0.20023
1832.04523,0.19865
1833.97369,0.19480
1835.90216,0.19246
1837.83063,0.19402
1839.75910,0.19719
1841.68757,0.19835
1843.61604,0.19786
1845.54451,0.19761
1847.47298,0.19676
1849.40144,0.19478
1851.32991,0.19252
1853.25838,0.19030
1855.18685,0.18821
1857.11532,0.18807
1859.04379,0.18997
1860.97226,0.18993
1862.90072,0.18825
1864.82919,0.18949
1866.75766,0.19425
1868.68613,0.19794
1870.61460,0.19654
1872.54307,0.19299
1874.47154,0.19082
1876.40001,0.19162
1878.32847,0.19366
1880.25694,0.19413
1882.18541,0.19321
1884.11388,0.19232
1886.04235,0.19225
1887.97082,0.19343
1889.89929,0.19495
1891.82775,0.19413
1893.75622,0.19239
1895.68469,0.19260
1897.61316,0.19304
1899.54163,0.19304
1901.47010,0.19347
1903.39857,0.19314
1905.32704,0.19249
1907.25550,0.19274
1909.18397,0.19270
1911.11244,0.19113
1913.04091,0.19018
1914.96938,0.19148
1916.89785,0.19267
1918.82632,0.19300
1920.75478,0.19495
1922.68325,0.19733
1924.61172,0.19785
1926.54019,0.19689
1928.46866,0.19488
1930.39713,0.19326
1932.32560,0.19338
1934.25407,0.19351
1936.18253,0.19287
1938.11100,0.19294
1940.03947,0.19384
1941.96794,0.19429
1943.89641,0.19480
1945.82488,0.19561
1947.75335,0.19540
1949.68181,0.19494
1951.61028,0.19460
1953.53875,0.19398
1955.46722,0.19446
1957.39569,0.19510
1959.32416,0.19402
1961.25263,0.19366
1963.18110,0.19607
1965.10956,0.19907
1967.03803,0.19903
1968.96650,0.19570
1970.89497,0.19360
1972.82344,0.19340
1974.75191,0.19260
1976.68038,0.19309
1978.60884,0.19552
1980.53731,0.19625
1982.46578,0.19406
1984.39425,0.19169
1986.32272,0.19063
1988.25119,0.18867
1990.17966,0.18650
1992.10812,0.18830
1994.03659,0.19235
1995.96506,0.19478
1997.89353,0.19535
1999.82200,0.19477
2001.75047,0.19539
2003.67894,0.19748
2005.60741,0.19756
2007.53587,0.19546
2009.46434,0.19400
2011.39281,0.19404
2013.32128,0.19571
2015.24975,0.19860
2017.17822,0.20021
2019.10669,0.19903
2021.03515,0.19633
2022.96362,0.19377
2024.89209,0.19337
2026.82056,0.19492
2028.74903,0.19531
2030.67750,0.19501
2032.60597,0.19562
2034.53444,0.19478
2036.46290,0.19300
2038.39137,0.19244
2040.31984,0.19213
2042.24831,0.19248
2044.17678,0.19491
2046.10525,0.19845
2048.03372,0.20023
2049.96218,0.19928
2051.89065,0.19726
2053.81912,0.19458
2055.74759,0.19177
2057.67606,0.19143
2059.60453,0.19347
2061.53300,0.19470
2063.46147,0.19509
2065.38993,0.19715
2067.31840,0.19969
2069.24687,0.19969
2071.17534,0.19857
2073.10381,0.19863
2075.03228,0.19829
2076.96075,0.19662
2078.88921,0.19508
2080.81768,0.19425
2082.74615,0.19398
2084.67462,0.19497
2086.60309,0.19723
2088.53156,0.19817
2090.46003,0.19638
2092.38850,0.19489
2094.31696,0.19662
2096.24543,0.19838
2098.17390,0.19616
2100.10237,0.19335
2102.03084,0.19339
2103.95931,0.19467
2105.88778,0.19582
2107.81624,0.19660
2109.74471,0.19622
2111.67318,0.19489
2113.60165,0.19576
2115.53012,0.19923
2117.45859,0.20060
2119.38706,0.19859
2121.31553,0.19643
2123.24399,0.19533
2125.17246,0.19434
2127.10093,0.19396
2129.02940,0.19461
2130.95787,0.19515
2132.88634,0.19563
2134.81481,0.19720
2136.74327,0.19873
2138.67174,0.19859
2140.60021,0.19812
2142.52868,0.19816
2144.45715,0.19855
2146.38562,0.19908
2148.31409,0.19869
2150.24255,0.19768
2152.17102,0.19669
2154.09949,0.19578
2156.02796,0.19469
2157.95643,0.19387
2159.88490,0.19451
2161.81337,0.19587
2163.74184,0.19698
2165.67030,0.19761
2167.59877,0.19723
2169.52724,0.19621
2171.45571,0.19574
2173.38418,0.19599
2175.31265,0.19684
2177.24112,0.19848
2179.16958,0.19980
2181.09805,0.19953
2183.02652,0.19827
2184.95499,0.19776
2186.88346,0.19797
2188.81193,0.19744
2190.74040,0.19620
2192.66887,0.19516
2194.59733,0.19532
2196.52580,0.19629
2198.45427,0.19626
2200.38274,0.19619
2202.31121,0.19728
2204.23968,0.19845
2206.16815,0.19932
2208.09661,0.19870
2210.02508,0.19656
2211.95355,0.19587
2213.88202,0.19730
2215.81049,0.19896
2217.73896,0.19999
2219.66743,0.20093
2221.59590,0.20124
2223.52436,0.19979
2225.45283,0.19944
2227.38130,0.20169
2229.30977,0.20235
2231.23824,0.20031
2233.16671,0.19885
2235.09518,0.19912
2237.02364,0.20015
2238.95211,0.20141
2240.88058,0.20265
2242.80905,0.20292
2244.73752,0.20251
2246.66599,0.20246
2248.59446,0.20180
2250.52293,0.20037
2252.45139,0.19930
2254.37986,0.19751
2256.30833,0.19369
2258.23680,0.19089
2260.16527,0.19263
2262.09374,0.19617
2264.02221,0.19722
2265.95067,0.19601
2267.87914,0.19448
2269.80761,0.19467
2271.73608,0.19713
2273.66455,0.19911
2275.59302,0.19945
2277.52149,0.20043
2279.44996,0.20175
2281.37842,0.20148
2283.30689,0.20097
2285.23536,0.20051
2287.16383,0.19897
2289.09230,0.19746
2291.02077,0.19644
2292.94924,0.19672
2294.87770,0.19807
2296.80617,0.19758
2298.73464,0.19597
2300.66311,0.19505
2302.59158,0.19448
2304.52005,0.19524
2306.44852,0.19712
2308.37699,0.19791
2310.30545,0.19804
2312.23392,0.19921
2314.16239,0.20182
2316.09086,0.20505
2318.01933,0.20371
2319.94780,0.19852
2321.87627,0.19857
2323.80473,0.20013
2325.73320,0.19684
2327.66167,0.19675
2329.59014,0.20391
2331.51861,0.20660
2333.44708,0.19764
2335.37555,0.18706
2337.30401,0.17996
2339.23248,0.17504
2341.16095,0.17674
2343.08942,0.18421
2345.01789,0.18813
2346.94636,0.18907
2348.87483,0.19095
2350.80330,0.19167
2352.73176,0.18873
2354.66023,0.18125
2356.58870,0.17641
2358.51717,0.18674
2360.44564,0.19879
2362.37411,0.19405
2364.30258,0.18477
2366.23104,0.18041
2368.15951,0.17609
2370.08798,0.17301
2372.01645,0.17589
2373.94492,0.18400
2375.87339,0.19061
2377.80186,0.19308
2379.73033,0.19530
2381.65879,0.19824
2383.58726,0.20021
2385.51573,0.20068
2387.44420,0.19952
2389.37267,0.19749
2391.30114,0.19635
2393.22961,0.19703
2395.15807,0.19793
2397.08654,0.19814
2399.01501,0.19919
2400.94348,0.20025
2402.87195,0.20047
2404.80042,0.20157
2406.72889,0.20175
2408.65736,0.19932
2410.58582,0.19841
2412.51429,0.20011
2414.44276,0.20073
2416.37123,0.19999
2418.29970,0.19924
2420.22817,0.19871
2422.15664,0.19946
2424.08510,0.20056
2426.01357,0.19884
2427.94204,0.19642
2429.87051,0.19756
2431.79898,0.20052
2433.72745,0.20099
2435.65592,0.19819
2437.58439,0.19502
2439.51285,0.19338
2441.44132,0.19431
2443.36979,0.19796
2445.29826,0.20115
2447.22673,0.20238
2449.15520,0.20319
2451.08367,0.20180
2453.01213,0.19727
2454.94060,0.19417
2456.86907,0.19479
2458.79754,0.19786
2460.72601,0.20101
2462.65448,0.20099
2464.58295,0.19919
2466.51142,0.19897
2468.43988,0.19965
2470.36835,0.20013
2472.29682,0.20027
2474.22529,0.20037
2476.15376,0.20113
2478.08223,0.20084
2480.01070,0.19885
2481.93916,0.19736
2483.86763,0.19710
2485.79610,0.19824
2487.72457,0.20043
2489.65304,0.20146
2491.58151,0.20025
2493.50998,0.19935
2495.43844,0.20070
2497.36691,0.20272
2499.29538,0.20393
2501.22385,0.20388
2503.15232,0.20384
2505.08079,0.20446
2507.00926,0.20293
2508.93773,0.20032
2510.86619,0.20034
2512.79466,0.20202
2514.72313,0.20359
2516.65160,0.20514
2518.58007,0.20635
2520.50854,0.20592
2522.43701,0.20435
2524.36547,0.20401
2526.29394,0.20352
2528.22241,0.20091
2530.15088,0.19918
2532.07935,0.19984
2534.00782,0.20061
2535.93629,0.20161
2537.86476,0.20309
2539.79322,0.20283
2541.72169,0.20128
2543.65016,0.20098
2545.57863,0.20107
2547.50710,0.19956
2549.43557,0.19876
2551.36404,0.20169
2553.29250,0.20611
2555.22097,0.20730
2557.14944,0.20570
2559.07791,0.20520
2561.00638,0.20515
2562.93485,0.20369
2564.86332,0.20230
2566.79179,0.20351
2568.72025,0.20661
2570.64872,0.20849
2572.57719,0.20761
2574.50566,0.20517
2576.43413,0.20434
2578.36260,0.20463
2580.29107,0.20357
2582.21953,0.20212
2584.14800,0.20112
2586.07647,0.20093
2588.00494,0.20303
2589.93341,0.20658
2591.86188,0.20866
2593.79035,0.20869
2595.71882,0.20722
2597.64728,0.20526
2599.57575,0.20495
2601.50422,0.20523
2603.43269,0.20498
2605.36116,0.20568
2607.28963,0.20579
2609.21810,0.20300
2611.14656,0.20039
2613.07503,0.20170
2615.00350,0.20367
2616.93197,0.20303
2618.86044,0.20286
2620.78891,0.20325
2622.71738,0.20147
2624.64585,0.19943
2626.57431,0.19818
2628.50278,0.19736
2630.43125,0.19967
2632.35972,0.20420
2634.28819,0.20547
2636.21666,0.20362
2638.14513,0.20369
2640.07359,0.20574
2642.00206,0.20615
2643.93053,0.20546
2645.85900,0.20568
2647.78747,0.20569
2649.71594,0.20520
2651.64441,0.20512
2653.57288,0.20534
2655.50134,0.20641
2657.42981,0.20884
2659.35828,0.21152
2661.28675,0.21316
2663.21522,0.21285
2665.14369,0.20967
2667.07216,0.20561
2669.00062,0.20469
2670.92909,0.20598
2672.85756,0.20564
2674.78603,0.20515
2676.71450,0.20758
2678.64297,0.21001
2680.57144,0.21027
2682.49990,0.21025
2684.42837,0.20879
2686.35684,0.20596
2688.28531,0.20539
2690.21378,0.20654
2692.14225,0.20606
2694.07072,0.20498
2695.99919,0.20607
2697.92765,0.20814
2699.85612,0.21051
2701.78459,0.21369
2703.71306,0.21396
2705.64153,0.21052
2707.57000,0.20889
2709.49847,0.20893
2711.42693,0.20714
2713.35540,0.20625
2715.28387,0.20714
2717.21234,0.20805
2719.14081,0.21034
2721.06928,0.21179
2722.99775,0.21004
2724.92622,0.20904
2726.85468,0.21143
2728.78315,0.21427
2730.71162,0.21471
2732.64009,0.21469
2734.56856,0.21541
2736.49703,0.21501
2738.42550,0.21364
2740.35396,0.21172
2742.28243,0.20951
2744.21090,0.20893
2746.13937,0.20973
2748.06784,0.20961
2749.99631,0.21060
2751.92478,0.21384
2753.85325,0.21419
2755.78171,0.21267
2757.71018,0.21415
2759.63865,0.21669
2761.56712,0.21765
2763.49559,0.21716
2765.42406,0.21586
2767.35253,0.21406
2769.28099,0.21289
2771.20946,0.21355
2773.13793,0.21428
2775.06640,0.21449
2776.99487,0.21529
2778.92334,0.21543
2780.85181,0.21582
2782.78028,0.21832
2784.70874,0.21942
2786.63721,0.21709
2788.56568,0.21448
2790.49415,0.21328
2792.42262,0.21295
2794.35109,0.21328
2796.27956,0.21368
2798.20802,0.21254
2800.13649,0.20995
2802.06496,0.20928
2803.99343,0.21183
2805.92190,0.21563
2807.85037,0.21883
2809.77884,0.21887
2811.70731,0.21618
2813.63577,0.21515
2815.56424,0.21658
2817.49271,0.21866
2819.42118,0.22060
2821.34965,0.22118
2823.27812,0.22036
2825.20659,0.21867
2827.13505,0.21590
2829.06352,0.21453
2830.99199,0.21598
2832.92046,0.21811
2834.84893,0.21974
2836.77740,0.21858
2838.70587,0.21397
2840.63433,0.21044
2842.56280,0.21120
2844.49127,0.21598
2846.41974,0.22264
2848.34821,0.22662
2850.27668,0.22454
2852.20515,0.22025
2854.13362,0.21851
2856.06208,0.21780
2857.99055,0.21742
2859.91902,0.21997
2861.84749,0.22332
2863.77596,0.22250
2865.70443,0.21844
2867.63290,0.21439
2869.56136,0.21199
2871.48983,0.21243
2873.41830,0.21537
2875.34677,0.21853
2877.27524,0.21840
2879.20371,0.21669
2881.13218,0.21838
2883.06065,0.22088
2884.98911,0.21942
2886.91758,0.21663
2888.84605,0.21680
2890.77452,0.21948
2892.70299,0.22196
2894.63146,0.22209
2896.55993,0.22172
2898.48839,0.22255
2900.41686,0.22213
2902.34533,0.22009
2904.27380,0.21593
2906.20227,0.21143
2908.13074,0.21291
2910.05921,0.21774
2911.98768,0.21974
2913.91614,0.21749
2915.84461,0.21094
2917.77308,0.20538
2919.70155,0.20554
2921.63002,0.20940
2923.55849,0.21117
2925.48696,0.20562
2927.41542,0.20003
2929.34389,0.20529
2931.27236,0.21491
2933.20083,0.21702
2935.12930,0.21069
2937.05777,0.20344
2938.98624,0.20665
2940.91471,0.21844
2942.84317,0.22513
2944.77164,0.22102
2946.70011,0.21011
2948.62858,0.20574
2950.55705,0.21255
2952.48552,0.21753
2954.41399,0.21304
2956.34245,0.20182
2958.27092,0.19588
2960.19939,0.20359
2962.12786,0.21567
2964.05633,0.22200
2965.98480,0.21870
2967.91327,0.21095
2969.84174,0.21184
2971.77020,0.21931
2973.69867,0.22330
2975.62714,0.22068
2977.55561,0.21328
2979.48408,0.21163
2981.41255,0.21801
2983.34102,0.22330
2985.26948,0.22393
2987.19795,0.21896
2989.12642,0.21472
2991.05489,0.21973
2992.98336,0.22721
2994.91183,0.22825
2996.84030,0.22479
2998.76877,0.22176
3000.69723,0.22253
3002.62570,0.22517
3004.55417,0.22434
3006.48264,0.22074
3008.41111,0.21626
3010.33958,0.20609
3012.26805,0.18360
3014.19651,0.14876
3016.12498,0.12114
3018.05345,0.13343
3019.98192,0.17953
3021.91039,0.21553
3023.83886,0.22651
3025.76733,0.22525
3027.69579,0.22203
3029.62426,0.22369
3031.55273,0.22751
3033.48120,0.22676
3035.40967,0.22300
3037.33814,0.22035
3039.26661,0.21917
3041.19508,0.21858
3043.12354,0.21820
3045.05201,0.21663
3046.98048,0.21469
3048.90895,0.21708
3050.83742,0.22215
3052.76589,0.22253
3054.69436,0.21660
3056.62282,0.20898
3058.55129,0.20960
3060.47976,0.21947
3062.40823,0.22586
3064.33670,0.22159
3066.26517,0.21284
3068.19364,0.21269
3070.12211,0.21943
3072.05057,0.22179
3073.97904,0.21615
3075.90751,0.20592
3077.83598,0.20543
3079.76445,0.21523
3081.69292,0.21737
3083.62139,0.20732
3085.54985,0.20063
3087.47832,0.20889
3089.40679,0.21902
3091.33526,0.21868
3093.26373,0.20999
3095.19220,0.20234
3097.12067,0.20730
3099.04914,0.21788
3100.97760,0.22002
3102.90607,0.21451
3104.83454,0.21376
3106.76301,0.22041
3108.69148,0.22268
3110.61995,0.21787
3112.54842,0.21416
3114.47688,0.21744
3116.40535,0.22434
3118.33382,0.22620
3120.26229,0.21884
3122.19076,0.20982
3124.11923,0.21270
3126.04770,0.22408
3127.97617,0.22862
3129.90463,0.22482
3131.83310,0.22463
3133.76157,0.23003
3135.69004,0.23122
3137.61851,0.22537
3139.54698,0.21768
3141.47545,0.21584
3143.40391,0.22172
3145.33238,0.22764
3147.26085,0.22708
3149.18932,0.22428
3151.11779,0.22604
3153.04626,0.22829
3154.97473,0.22730
3156.90320,0.22726
3158.83166,0.23007
3160.76013,0.23330
3162.68860,0.23498
3164.61707,0.23561
3166.54554,0.23405
3168.47401,0.22998
3170.40248,0.22854
3172.33094,0.23143
3174.25941,0.23308
3176.18788,0.23103
3178.11635,0.23153
3180.04482,0.23588
3181.97329,0.23631
3183.90176,0.23390
3185.83022,0.23326
3187.75869,0.23230
3189.68716,0.23194
3191.61563,0.23342
3193.54410,0.23499
3195.47257,0.23519
3197.40104,0.23176
3199.32951,0.22604
3201.25797,0.22303
3203.18644,0.22466
3205.11491,0.22856
3207.04338,0.23094
3208.97185,0.23101
3210.90032,0.22982
3212.82879,0.22713
3214.75725,0.22553
3216.68572,0.22774
3218.61419,0.22859
3220.54266,0.22448
3222.47113,0.22230
3224.39960,0.22451
3226.32807,0.22505
3228.25654,0.22440
3230.18500,0.22603
3232.11347,0.22673
3234.04194,0.22650
3235.97041,0.22802
3237.89888,0.22819
3239.82735,0.22803
3241.75582,0.22914
3243.68428,0.22829
3245.61275,0.22542
3247.54122,0.22116
3249.46969,0.21837
3251.39816,0.22087
3253.32663,0.22616
3255.25510,0.22781
3257.18357,0.22601
3259.11203,0.22424
3261.04050,0.21940
3262.96897,0.21576
3264.89744,0.22066
3266.82591,0.22870
3268.75438,0.23275
3270.68285,0.23210
3272.61131,0.22901
3274.53978,0.22669
3276.46825,0.22638
3278.39672,0.22653
3280.32519,0.22699
3282.25366,0.22748
3284.18213,0.22910
3286.11060,0.23030
3288.03906,0.22816
3289.96753,0.22852
3291.89600,0.23078
3293.82447,0.22834
3295.75294,0.22538
3297.68141,0.22668
3299.60988,0.22893
3301.53834,0.22864
3303.46681,0.22606
3305.39528,0.22615
3307.32375,0.23142
3309.25222,0.23148
3311.18069,0.22300
3313.10916,0.21907
3315.03763,0.22348
3316.96609,0.22737
3318.89456,0.22757
3320.82303,0.22664
3322.75150,0.22513
3324.67997,0.22672
3326.60844,0.23186
3328.53691,0.23506
3330.46537,0.23628
3332.39384,0.23698
3334.32231,0.23468
3336.25078,0.23111
3338.17925,0.23116
3340.10772,0.23215
3342.03619,0.22943
3343.96466,0.22388
3345.89312,0.22103
3347.82159,0.22515
3349.75006,0.23157
3351.67853,0.23432
3353.60700,0.23405
3355.53547,0.23328
3357.46394,0.23005
3359.39240,0.22385
3361.32087,0.22171
3363.24934,0.22463
3365.17781,0.22585
3367.10628,0.22635
3369.03475,0.22970
3370.96322,0.23383
3372.89168,0.23600
3374.82015,0.23446
3376.74862,0.23081
3378.67709,0.22910
3380.60556,0.22849
3382.53403,0.22641
3384.46250,0.22442
3386.39097,0.22253
3388.31943,0.22088
3390.24790,0.22203
3392.17637,0.22410
3394.10484,0.22521
3396.03331,0.22587
3397.96178,0.22592
3399.89025,0.22729
3401.81871,0.22931
3403.74718,0.22807
3405.67565,0.22510
3407.60412,0.22316
3409.53259,0.21958
3411.46106,0.21565
3413.38953,0.21617
3415.31800,0.21852
3417.24646,0.21917
3419.17493,0.21867
3421.10340,0.21574
3423.03187,0.21206
3424.96034,0.21209
3426.88881,0.21461
3428.81728,0.21554
3430.74574,0.21437
3432.67421,0.21492
3434.60268,0.21801
3436.53115,0.22163
3438.45962,0.22496
3440.38809,0.22548
3442.31656,0.22334
3444.24503,0.22027
3446.17349,0.21561
3448.10196,0.21179
3450.03043,0.21101
3451.95890,0.21168
3453.88737,0.21182
3455.81584,0.20888
3457.74431,0.20513
3459.67277,0.20549
3461.60124,0.20737
3463.52971,0.20879
3465.45818,0.21121
3467.38665,0.21234
3469.31512,0.21249
3471.24359,0.21395
3473.17206,0.21355
3475.10052,0.20879
3477.02899,0.20237
3478.95746,0.19813
3480.88593,0.19929
3482.81440,0.20213
3484.74287,0.20152
3486.67134,0.20150
3488.59980,0.20434
3490.52827,0.20627
3492.45674,0.20494
3494.38521,0.20101
3496.31368,0.19722
3498.24215,0.19688
3500.17062,0.20019
3502.09909,0.20425
3504.02755,0.20671
3505.95602,0.20750
3507.88449,0.20662
3509.81296,0.20134
3511.74143,0.19177
3513.66990,0.18455
3515.59837,0.18445
3517.52683,0.18828
3519.45530,0.18911
3521.38377,0.18624
3523.31224,0.18461
3525.24071,0.18881
3527.16918,0.19537
3529.09765,0.19482
3531.02611,0.18769
3532.95458,0.18184
3534.88305,0.18015
3536.81152,0.18208
3538.73999,0.18638
3540.66846,0.19038
3542.59693,0.19045
3544.52540,0.18810
3546.45386,0.18733
3548.38233,0.18583
3550.31080,0.18404
3552.23927,0.18412
3554.16774,0.18264
3556.09621,0.17943
3558.02468,0.17675
3559.95314,0.17445
3561.88161,0.17416
3563.81008,0.17890
3565.73855,0.18802
3567.66702,0.19196
3569.59549,0.18666
3571.52396,0.18025
3573.45243,0.17328
3575.38089,0.16811
3577.30936,0.16870
3579.23783,0.17072
3581.16630,0.17070
3583.09477,0.16841
3585.02324,0.16406
3586.95171,0.16158
3588.88017,0.16263
3590.80864,0.16393
3592.73711,0.16545
3594.66558,0.16676
3596.59405,0.16649
3598.52252,0.16459
3600.45099,0.16181
3602.37946,0.15894
3604.30792,0.15643
3606.23639,0.15769
3608.16486,0.16419
3610.09333,0.16950
3612.02180,0.16995
3613.95027,0.16674
3615.87874,0.16706
3617.80720,0.17341
3619.73567,0.17307
3621.66414,0.16404
3623.59261,0.15898
3625.52108,0.15936
3627.44955,0.16184
3629.37802,0.16342
3631.30649,0.16188
3633.23495,0.15811
3635.16342,0.15275
3637.09189,0.14754
3639.02036,0.14558
3640.94883,0.14684
3642.87730,0.14789
3644.80577,0.14944
3646.73423,0.15329
3648.66270,0.15638
3650.59117,0.15645
3652.51964,0.15542
3654.44811,0.15368
3656.37658,0.15088
3658.30505,0.14737
3660.23352,0.14441
3662.16198,0.14131
3664.09045,0.13849
3666.01892,0.13942
3667.94739,0.14616
3669.87586,0.15322
3671.80433,0.15176
3673.73280,0.14920
3675.66126,0.14901
3677.58973,0.14531
3679.51820,0.14132
3681.44667,0.14165
3683.37514,0.14372
3685.30361,0.14163
3687.23208,0.13588
3689.16055,0.13603
3691.08901,0.14407
3693.01748,0.14755
3694.94595,0.14565
3696.87442,0.14322
3698.80289,0.14219
3700.73136,0.14200
3702.65983,0.14344
3704.58829,0.14457
3706.51676,0.14470
3708.44523,0.14877
3710.37370,0.15768
3712.30217,0.16096
3714.23064,0.15642
3716.15911,0.15226
3718.08757,0.15038
3720.01604,0.14875
3721.94451,0.14342
3723.87298,0.13695
3725.80145,0.13674
3727.72992,0.14140
3729.65839,0.14431
3731.58686,0.14450
3733.51532,0.14674
3735.44379,0.15060
3737.37226,0.14640
3739.30073,0.14002
3741.22920,0.13871
3743.15767,0.14052
3745.08614,0.14292
3747.01460,0.14631
3748.94307,0.14966
3750.87154,0.15264
3752.80001,0.15147
3754.72848,0.14598
3756.65695,0.14291
3758.58542,0.14440
3760.51389,0.14430
3762.44235,0.14149
3764.37082,0.14141
3766.29929,0.14259
3768.22776,0.14043
3770.15623,0.13629
3772.08470,0.13248
3774.01317,0.12902
3775.94163,0.12628
3777.87010,0.12607
3779.79857,0.12879
3781.72704,0.13086
3783.65551,0.13235
3785.58398,0.13488
3787.51245,0.13506
3789.44092,0.13259
3791.36938,0.13233
3793.29785,0.13564
3795.22632,0.13903
3797.15479,0.13923
3799.08326,0.13864
3801.01173,0.14297
3802.94020,0.15070
3804.86866,0.15378
3806.79713,0.15018
3808.72560,0.14273
3810.65407,0.13885
3812.58254,0.13904
3814.51101,0.14064
3816.43948,0.14191
3818.36795,0.14306
3820.29641,0.14180
3822.22488,0.13695
3824.15335,0.13644
3826.08182,0.14034
3828.01029,0.14101
3829.93876,0.13574
3831.86723,0.13238
3833.79569,0.13591
3835.72416,0.14042
3837.65263,0.14204
3839.58110,0.14233
3841.50957,0.14063
3843.43804,0.13688
3845.36651,0.13220
3847.29498,0.13111
3849.22344,0.13803
3851.15191,0.14856
3853.08038,0.14790
3855.00885,0.13703
3856.93732,0.13449
3858.86579,0.13339
3860.79426,0.13237
3862.72272,0.13390
3864.65119,0.13456
3866.57966,0.13222
3868.50813,0.12940
3870.43660,0.12825
3872.36507,0.13248
3874.29354,0.13694
3876.22200,0.13587
3878.15047,0.13665
3880.07894,0.14089
3882.00741,0.13813
3883.93588,0.13245
3885.86435,0.12954
3887.79282,0.12707
3889.72129,0.12596
3891.64975,0.12605
3893.57822,0.12438
3895.50669,0.12193
3897.43516,0.12333
3899.36363,0.12814
3901.29210,0.12756
3903.22057,0.12326
3905.14903,0.12345
3907.07750,0.12443
3909.00597,0.12254
3910.93444,0.11877
3912.86291,0.11844
3914.79138,0.12296
3916.71985,0.12445
3918.64832,0.12117
3920.57678,0.12055
3922.50525,0.12393
3924.43372,0.12426
3926.36219,0.11888
3928.29066,0.11796
3930.21913,0.12455
3932.14760,0.13032
3934.07606,0.12984
3936.00453,0.12552
3937.93300,0.12126
3939.86147,0.11860
3941.78994,0.11499
3943.71841,0.11089
3945.64688,0.10994
3947.57535,0.11198
3949.50381,0.11688
3951.43228,0.11889
3953.36075,0.11596
3955.28922,0.11715
3957.21769,0.12219
3959.14616,0.12240
3961.07463,0.11942
3963.00309,0.11861
3964.93156,0.11763
3966.86003,0.11516
3968.78850,0.11447
3970.71697,0.11468
3972.64544,0.11528
3974.57391,0.11667
3976.50238,0.11525
3978.43084,0.11273
3980.35931,0.11215
3982.28778,0.11026
3984.21625,0.10550
3986.14472,0.10171
3988.07319,0.10048
3990.00166,0.09925
3991.93012,0.09974
3993.85859,0.10304
3995.78706,0.10661
3997.71553,0.11152
3999.64400,0.11588
4001.57247,0.11390
4003.50094,0.10921
4005.42941,0.11134
4007.35787,0.11763
4009.28634,0.11851
4011.21481,0.11391
4013.14328,0.10893
4015.07175,0.10636
4017.00022,0.10616
4018.92869,0.10571
4020.85715,0.10429
4022.78562,0.10317
4024.71409,0.10160
4026.64256,0.10077
4028.57103,0.10249
4030.49950,0.10274
4032.42797,0.10035
4034.35644,0.10176
4036.28490,0.10665
4038.21337,0.10727
4040.14184,0.10304
4042.07031,0.10003
4043.99878,0.10082
4045.92725,0.10196
4047.85572,0.10174
4049.78418,0.10375
4051.71265,0.10806
4053.64112,0.10902
4055.56959,0.10575
4057.49806,0.10288
4059.42653,0.10189
4061.35500,0.10205
4063.28346,0.10274
4065.21193,0.10458
4067.14040,0.10670
4069.06887,0.10574
4070.99734,0.10290
4072.92581,0.10135
4074.85428,0.10243
4076.78275,0.10404
4078.71121,0.10272
4080.63968,0.10041
4082.56815,0.10004
4084.49662,0.09871
4086.42509,0.09424
4088.35356,0.09114
4090.28203,0.09223
4092.21049,0.09554
4094.13896,0.09745
4096.06743,0.09516
4097.99590,0.09235
4099.92437,0.09582
4101.85284,0.10374
4103.78131,0.10734
4105.70978,0.10540
4107.63824,0.10228
4109.56671,0.10017
4111.49518,0.09975
4113.42365,0.09966
4115.35212,0.09856
4117.28059,0.09666
4119.20906,0.09542
4121.13752,0.09479
4123.06599,0.09403
4124.99446,0.09557
4126.92293,0.09803
4128.85140,0.09640
4130.77987,0.09470
4132.70834,0.09717
4134.63681,0.09767
4136.56527,0.09595
4138.49374,0.09679
4140.42221,0.09620
4142.35068,0.09166
4144.27915,0.08870
4146.20762,0.08910
4148.13609,0.08711
4150.06455,0.08357
4151.99302,0.08520
4153.92149,0.08919
4155.84996,0.08975
4157.77843,0.08726
4159.70690,0.08498
4161.63537,0.08553
4163.56384,0.08570
4165.49230,0.08304
4167.42077,0.08225
4169.34924,0.08451
4171.27771,0.08371
4173.20618,0.07925
4175.13465,0.08009
4177.06312,0.08663
4178.99158,0.08728
4180.92005,0.08199
4182.84852,0.07985
4184.77699,0.08000
4186.70546,0.08136
4188.63393,0.08593
4190.56240,0.08832
4192.49087,0.08569
4194.41933,0.08158
4196.34780,0.07879
4198.27627,0.07957
4200.20474,0.08102
4202.13321,0.07799
4204.06168,0.07449
4205.99015,0.07689
4207.91861,0.08011
4209.84708,0.07409
4211.77555,0.06405
4213.70402,0.06500
4215.63249,0.07607
4217.56096,0.08453
4219.48943,0.08592
4221.41789,0.08317
4223.34636,0.07942
4225.27483,0.07728
4227.20330,0.07579
4229.13177,0.07293
4231.06024,0.07075
4232.98871,0.06959
4234.91718,0.07037
4236.84564,0.07469
4238.77411,0.08044
4240.70258,0.08347
4242.63105,0.07885
4244.55952,0.07084
4246.48799,0.06644
4248.41646,0.06572
4250.34492,0.06840
4252.27339,0.07200
4254.20186,0.07239
4256.13033,0.06923
4258.05880,0.06515
4259.98727,0.06339
4261.91574,0.06558
4263.84421,0.06871
4265.77267,0.06862
4267.70114,0.06529
4269.62961,0.06270
4271.55808,0.06358
4273.48655,0.06484
4275.41502,0.06498
4277.34349,0.06570
4279.27195,0.06587
4281.20042,0.06414
4283.12889,0.06329
4285.05736,0.06521
4286.98583,0.06671
4288.91430,0.06634
4290.84277,0.06535
4292.77124,0.06371
4294.69970,0.06188
4296.62817,0.06124
4298.55664,0.06255
4300.48511,0.06390
4302.41358,0.06060
4304.34205,0.05530
4306.27052,0.05124
4308.19898,0.04483
4310.12745,0.04346
4312.05592,0.05075
4313.98439,0.05443
4315.91286,0.05127
4317.84133,0.04955
4319.76980,0.05272
4321.69827,0.05540
4323.62673,0.05489
4325.55520,0.05268
4327.48367,0.04651
4329.41214,0.03806
4331.34061,0.03644
4333.26908,0.04487
4335.19755,0.05429
4337.12601,0.05465
4339.05448,0.04813
4340.98295,0.04390
4342.91142,0.04415
4344.83989,0.04616
4346.76836,0.04738
4348.69683,0.04815
4350.62530,0.05050
4352.55376,0.05047
4354.48223,0.04693
4356.41070,0.04684
4358.33917,0.05094
4360.26764,0.05116
4362.19611,0.04586
4364.12458,0.04195
4366.05304,0.04261
4367.98151,0.04628
4369.90998,0.04936
4371.83845,0.04785
4373.76692,0.04160
4375.69539,0.03586
4377.62386,0.03513
4379.55232,0.03553
4381.48079,0.03429
4383.40926,0.03266
4385.33773,0.03145
4387.26620,0.03295
4389.19467,0.03485
4391.12314,0.03238
4393.05161,0.02814
4394.98007,0.02750
4396.90854,0.02629
4398.83701,0.02056
4400.76548,0.01908
4402.69395,0.02588
4404.62242,0.03241
4406.55089,0.03155
4408.47935,0.02670
4410.40782,0.02438
4412.33629,0.02631
4414.26476,0.03447
4416.19323,0.04260
4418.12170,0.03980
4420.05017,0.03046
4421.97864,0.02383
4423.90710,0.02161
4425.83557,0.02238
4427.76404,0.02389
4429.69251,0.02440
4431.62098,0.02236
4433.54945,0.02033
4435.47792,0.02332
4437.40638,0.02779
4439.33485,0.02844
4441.26332,0.02757
4443.19179,0.02758
4445.12026,0.02954
4447.04873,0.03426
4448.97720,0.03496
4450.90567,0.02737
4452.83413,0.02009
4454.76260,0.02005
4456.69107,0.02439
4458.61954,0.02596
4460.54801,0.02175
4462.47648,0.01608
4464.40495,0.01574
4466.33341,0.02053
4468.26188,0.01939
4470.19035,0.01253
4472.11882,0.01508
4474.04729,0.02447
4475.97576,0.02338
4477.90423,0.01524
4479.83270,0.01386
4481.76116,0.01649
4483.68963,0.01806
4485.61810,0.01995
4487.54657,0.02311
4489.47504,0.02963
4491.40351,0.03482
4493.33198,0.02949
4495.26044,0.02107
4497.18891,0.01693
4499.11738,0.01281
4501.04585,0.01139
4502.97432,0.01261
4504.90279,0.01595
4506.83126,0.02143
4508.75973,0.01861
4510.68819,0.00852
4512.61666,0.00279
4514.54513,0.00143
4516.47360,-0.00044
4518.40207,0.00102
4520.33054,0.00454
4522.25901,0.00303
4524.18747,0.00099
4526.11594,0.00349
4528.04441,0.00712
4529.97288,0.00905
4531.90135,0.01246
4533.82982,0.01262
4535.75829,0.00057
4537.68676,-0.00938
4539.61522,-0.00230
4541.54369,0.00674
4543.47216,0.00466
4545.40063,0.00211
4547.32910,0.00299
4549.25757,-0.00078
4551.18604,-0.00676
4553.11450,-0.00609
4555.04297,0.00379
4556.97144,0.01368
4558.89991,0.01426
4560.82838,0.00709
4562.75685,-0.00204
4564.68532,-0.00464
4566.61378,0.00014
4568.54225,0.00240
4570.47072,0.00305
4572.39919,0.00833
4574.32766,0.01067
4576.25613,0.00583
4578.18460,0.00517
4580.11307,0.01050
4582.04153,0.01145
4583.97000,0.00987
4585.89847,0.00830
4587.82694,0.00021
4589.75541,-0.00693
4591.68388,-0.00238
4593.61235,0.00433
4595.54081,0.00754
4597.46928,0.01205
4599.39775,0.01115
4601.32622,0.00042
4603.25469,-0.00762
4605.18316,-0.00018
4607.11163,0.01380
4609.04010,0.01526
4610.96856,0.00540
4612.89703,-0.00497
4614.82550,-0.00826
4616.75397,-0.00403
4618.68244,-0.00124
4620.61091,0.00049
4622.53938,0.00218
4624.46784,-0.00105
4626.39631,-0.00265
4628.32478,0.00271
4630.25325,0.00666
4632.18172,0.00134
4634.11019,-0.00543
4636.03866,-0.00163
4637.96713,0.00547
4639.89559,0.00526
4641.82406,0.00528
4643.75253,0.01342
4645.68100,0.01713
4647.60947,0.00752
4649.53794,-0.00035
4651.46641,0.00498
4653.39487,0.01037
4655.32334,0.00489
4657.25181,0.00177
4659.18028,0.00568
4661.10875,0.00688
4663.03722,0.00416
4664.96569,-0.00023
4666.89416,0.00076
4668.82262,0.00831
4670.75109,0.01386
4672.67956,0.01032
4674.60803,-0.00142
4676.53650,-0.00999
4678.46497,-0.00854
4680.39344,-0.00067
4682.32190,0.00876
4684.25037,0.01481
4686.17884,0.01707
4688.10731,0.01894
4690.03578,0.01772
4691.96425,0.01292
4693.89272,0.01005
4695.82119,0.00690
4697.74965,-0.00212
4699.67812,-0.00934
4701.60659,-0.00683
4703.53506,-0.00019
4705.46353,0.00726
4707.39200,0.01346
4709.32047,0.01436
4711.24893,0.01321
4713.17740,0.01003
4715.10587,0.00628
4717.03434,0.00663
4718.96281,0.00347
4720.89128,-0.00346
4722.81975,-0.00079
4724.74821,0.00877
4726.67668,0.02163
4728.60515,0.03114
4730.53362,0.02799
4732.46209,0.01868
4734.39056,0.01337
4736.31903,0.01312
4738.24750,0.01760
4740.17596,0.02276
4742.10443,0.02113
4744.03290,0.01147
4745.96137,-0.00079
4747.88984,-0.00967
4749.81831,-0.01025
4751.74678,-0.00518
4753.67524,-0.00191
4755.60371,0.00169
4757.53218,0.00673
4759.46065,0.00813
4761.38912,0.00884
4763.31759,0.00721
4765.24606,0.00261
4767.17453,0.00575
4769.10299,0.01385
4771.03146,0.01651
4772.95993,0.01289
4774.88840,0.00640
4776.81687,-0.00020
4778.74534,-0.00151
4780.67381,0.00207
4782.60227,0.00253
4784.53074,0.00091
4786.45921,-0.00226
4788.38768,-0.00295
4790.31615,0.00617
4792.24462,0.01198
4794.17309,0.00667
4796.10156,0.00336
4798.03002,0.00223
4799.95849,-0.00429
4801.88696,-0.00595
4803.81543,0.00372
4805.74390,0.01373
4807.67237,0.01416
4809.60084,0.00623
4811.52930,-0.00042
4813.45777,-0.00110
4815.38624,-0.00214
4817.31471,-0.00686
4819.24318,-0.00714
4821.17165,0.00256
4823.10012,0.01655
4825.02859,0.02314
4826.95705,0.01850
4828.88552,0.01255
4830.81399,0.01251
4832.74246,0.01423
4834.67093,0.00998
4836.59940,0.00179
4838.52787,0.00086
4840.45633,0.00801
4842.38480,0.01477
4844.31327,0.01860
4846.24174,0.01750
4848.17021,0.01520
4850.09868,0.01784
4852.02715,0.01759
4853.95562,0.01176
4855.88408,0.01015
4857.81255,0.00940
4859.74102,0.00017
4861.66949,-0.01324
4863.59796,-0.01432
4865.52643,-0.00317
4867.45490,0.00294
4869.38336,0.00441
4871.31183,0.00396
4873.24030,-0.00348
4875.16877,-0.00650
4877.09724,-0.00256
4879.02571,-0.00477
4880.95418,-0.00747
4882.88265,-0.00208
4884.81111,0.00467
4886.73958,0.00800
4888.66805,0.00999
4890.59652,0.01571
4892.52499,0.02355
4894.45346,0.02405
4896.38193,0.01350
4898.31039,-0.00273
4900.23886,-0.01002
4902.16733,-0.00235
4904.09580,0.00745
4906.02427,0.01043
4907.95274,0.01101
4909.88121,0.01276
4911.80967,0.01247
4913.73814,0.01172
4915.66661,0.01243
4917.59508,0.00806
4919.52355,0.00022
4921.45202,0.00011
4923.38049,0.01027
4925.30896,0.02339
4927.23742,0.02939
4929.16589,0.02375
4931.09436,0.01831
4933.02283,0.02387
4934.95130,0.02459
4936.87977,0.00484
4938.80824,-0.01774
4940.73670,-0.02042
4942.66517,-0.00976
4944.59364,0.00070
4946.52211,0.00627
4948.45058,0.00698
4950.37905,0.00652
4952.30752,0.00393
4954.23599,-0.00187
4956.16445,-0.00439
4958.09292,0.00076
4960.02139,0.00803
4961.94986,0.01419
4963.87833,0.02103
4965.80680,0.02313
4967.73527,0.01285
4969.66373,-0.00219
4971.59220,-0.00289
4973.52067,0.00776
4975.44914,0.01371
4977.37761,0.01420
4979.30608,0.01594
4981.23455,0.02728
4983.16302,0.03783
4985.09148,0.03214
4987.01995,0.02170
4988.94842,0.01543
4990.87689,0.01057
4992.80536,0.01014
4994.73383,0.01468
4996.66230,0.01737
4998.59076,0.01335
5000.51923,0.01685
5002.44770,0.03245
5004.37617,0.03181
5006.30464,0.01249
5008.23311,0.00363
5010.16158,0.01192
5012.09005,0.02083
5014.01851,0.01843
5015.94698,0.00995
5017.87545,0.00148
5019.80392,-0.00689
5021.73239,-0.00968
5023.66086,0.00043
5025.58933,0.02385
5027.51779,0.04275
5029.44626,0.03930
5031.37473,0.03065
5033.30320,0.03112
5035.23167,0.02301
5037.16014,0.00328
5039.08861,-0.00943
5041.01708,-0.00626
5042.94554,0.00665
5044.87401,0.01753
5046.80248,0.01753
5048.73095,0.01624
5050.65942,0.02440
5052.58789,0.02826
5054.51636,0.02253
5056.44482,0.02052
5058.37329,0.02771
5060.30176,0.03090
5062.23023,0.01741
5064.15870,0.00862
5066.08717,0.02112
5068.01564,0.03316
5069.94410,0.03084
5071.87257,0.02284
5073.80104,0.01190
5075.72951,-0.00593
5077.65798,-0.01901
5079.58645,-0.00668
5081.51492,0.02202
5083.44339,0.04179
5085.37185,0.04990
5087.30032,0.04489
5089.22879,0.02408
5091.15726,0.00568
5093.08573,0.00884
5095.01420,0.02644
5096.94267,0.03115
5098.87113,0.01554
5100.79960,0.00611
5102.72807,0.01631
5104.65654,0.02413
5106.58501,0.01817
5108.51348,0.01611
5110.44195,0.02006
5112.37042,0.01708
5114.29888,0.01336
5116.22735,0.02301
5118.15582,0.03967
5120.08429,0.04372
5122.01276,0.02977
5123.94123,0.00656
5125.86970,-0.00659
5127.79816,0.00559
5129.72663,0.02548
5131.65510,0.03495
5133.58357,0.03743
5135.51204,0.03070
5137.44051,0.02268
5139.36898,0.02673
5141.29745,0.02888
5143.22591,0.02300
5145.15438,0.02147
5147.08285,0.02441
5149.01132,0.02766
5150.93979,0.02898
5152.86826,0.03056
5154.79673,0.04266
5156.72519,0.05802
5158.65366,0.05619
5160.58213,0.04038
5162.51060,0.02591
5164.43907,0.02288
5166.36754,0.03081
5168.29601,0.04595
5170.22448,0.05837
5172.15294,0.04804
5174.08141,0.03491
5176.00988,0.05186
5177.93835,0.07444
5179.86682,0.06681
5181.79529,0.03805
5183.72376,0.01644
5185.65222,0.01545
5187.58069,0.02733
5189.50916,0.03998
5191.43763,0.04588
5193.36610,0.03549
5195.29457,0.01923
5197.22304,0.02130
5199.15151,0.03672
5201.07997,0.04190
5203.00844,0.04227
5204.93691,0.05478
5206.86538,0.06446
5208.79385,0.05730
5210.72232,0.04265
5212.65079,0.02242
5214.57925,0.02202
5216.50772,0.05244
5218.43619,0.06802
5220.36466,0.04589
5222.29313,0.02112
5224.22160,0.01365
5226.15007,0.01590
5228.07854,0.02721
5230.00700,0.03507
5231.93547,0.02217
5233.86394,0.00613
5235.79241,0.00759
5237.72088,0.02224
5239.64935,0.03208
5241.57782,0.02923
5243.50628,0.02530
5245.43475,0.02690
5247.36322,0.03565
5249.29169,0.04782
5251.22016,0.05043
5253.14863,0.04564
5255.07710,0.04432
5257.00556,0.04954
5258.93403,0.05233
5260.86250,0.04135
5262.79097,0.02827
5264.71944,0.03016
5266.64791,0.03645
5268.57638,0.04358
5270.50485,0.05682
5272.43331,0.06628
5274.36178,0.06156
5276.29025,0.04508
5278.21872,0.03022
5280.14719,0.02770
5282.07566,0.03479
5284.00413,0.04660
5285.93259,0.05770
5287.86106,0.05567
5289.78953,0.04179
5291.71800,0.03191
5293.64647,0.04151
5295.57494,0.05867
5297.50341,0.05336
5299.43188,0.04083
5301.36034,0.04554
5303.28881,0.04959
5305.21728,0.04694
5307.14575,0.04990
5309.07422,0.05897
5311.00269,0.06037
5312.93116,0.04748
5314.85962,0.04132
5316.78809,0.05576
5318.71656,0.06593
5320.64503,0.06234
5322.57350,0.05830
5324.50197,0.05189
5326.43044,0.04560
5328.35891,0.04603
5330.28737,0.05102
5332.21584,0.05886
5334.14431,0.06893
5336.07278,0.08252
5338.00125,0.08752
5339.92972,0.07680
5341.85819,0.07107
5343.78665,0.07456
5345.71512,0.07374
5347.64359,0.06455
5349.57206,0.06016
5351.50053,0.07374
5353.42900,0.08636
5355.35747,0.07362
5357.28594,0.05665
5359.21440,0.05690
5361.14287,0.07009
5363.07134,0.07640
5364.99981,0.06365
5366.92828,0.05396
5368.85675,0.06922
5370.78522,0.07835
5372.71368,0.05682
5374.64215,0.04432
5376.57062,0.05689
5378.49909,0.06380
5380.42756,0.07280
5382.35603,0.08864
5384.28450,0.09666
5386.21297,0.09846
5388.14143,0.09860
5390.06990,0.09627
5391.99837,0.09289
5393.92684,0.07155
5395.85531,0.03745
5397.78378,0.03518
5399.71225,0.05736
5401.64071,0.06390
5403.56918,0.06031
5405.49765,0.07134
5407.42612,0.07552
5409.35459,0.05694
5411.28306,0.06013
5413.21153,0.09342
5415.13999,0.09365
5417.06846,0.06267
5418.99693,0.04847
5420.92540,0.05771
5422.85387,0.07533
5424.78234,0.08582
5426.71081,0.06667
5428.63928,0.04063
5430.56774,0.04729
5432.49621,0.06083
5434.42468,0.05490
5436.35315,0.04159
5438.28162,0.04344
5440.21009,0.05307
5442.13856,0.04969
5444.06702,0.04292
5445.99549,0.05491
5447.92396,0.07807
5449.85243,0.08265
5451.78090,0.05985
5453.70937,0.03567
5455.63784,0.04332
5457.56631,0.07163
5459.49477,0.08079
5461.42324,0.07390
5463.35171,0.06524
5465.28018,0.05605
5467.20865,0.05325
5469.13712,0.06481
5471.06559,0.06850
5472.99405,0.04966
5474.92252,0.04023
5476.85099,0.04565
5478.77946,0.03909
5480.70793,0.03317
5482.63640,0.03662
5484.56487,0.04021
5486.49334,0.04188
5488.42180,0.04423
5490.35027,0.06225
5492.27874,0.09245
5494.20721,0.10172
5496.13568,0.08702
5498.06415,0.06055
5499.99262,0.03883
5501.92108,0.03963
5503.84955,0.04344
5505.77802,0.03727
5507.70649,0.03986
5509.63496,0.06236
5511.56343,0.08828
5513.49190,0.09123
5515.42037,0.08376
5517.34883,0.09492
5519.27730,0.11236
5521.20577,0.11122
5523.13424,0.09010
5525.06271,0.07395
5526.99118,0.08154
5528.91965,0.09836
5530.84811,0.09708
5532.77658,0.07870
5534.70505,0.06454
5536.63352,0.06292
5538.56199,0.07538
5540.49046,0.08945
5542.41893,0.09117
5544.34740,0.09068
5546.27586,0.10198
5548.20433,0.11414
5550.13280,0.10279
5552.06127,0.08212
5553.98974,0.08534
5555.91821,0.09626
5557.84668,0.07957
5559.77514,0.05457
5561.70361,0.05406
5563.63208,0.07103
5565.56055,0.08430
5567.48902,0.07970
5569.41749,0.07374
5571.34596,0.09602
5573.27443,0.12469
5575.20289,0.10974
5577.13136,0.06342
5579.05983,0.03436
5580.98830,0.03425
5582.91677,0.04698
5584.84524,0.05304
5586.77371,0.04823
5588.70217,0.04881
5590.63064,0.06044
5592.55911,0.06791
5594.48758,0.05443
5596.41605,0.02973
5598.34452,0.02536
5600.27299,0.04839
5602.20145,0.07615
5604.12992,0.08829
5606.05839,0.08621
5607.98686,0.09151
5609.91533,0.10139
5611.84380,0.08999
5613.77227,0.07889
5615.70074,0.08708
5617.62920,0.08428
5619.55767,0.06501
5621.48614,0.05872
5623.41461,0.08144
5625.34308,0.10842
5627.27155,0.10889
5629.20002,0.09196
5631.12848,0.08302
5633.05695,0.08432
5634.98542,0.08456
5636.91389,0.08130
5638.84236,0.06882
5640.77083,0.05898
5642.69930,0.06996
5644.62777,0.07733
5646.55623,0.07312
5648.48470,0.08688
5650.41317,0.10112
5652.34164,0.08898
5654.27011,0.07972
5656.19858,0.08690
5658.12705,0.09414
5660.05551,0.10264
5661.98398,0.10902
5663.91245,0.09761
5665.84092,0.07181
5667.76939,0.05470
5669.69786,0.06351
5671.62633,0.08713
5673.55480,0.10318
5675.48326,0.11179
5677.41173,0.11002
5679.34020,0.08787
5681.26867,0.06751
5683.19714,0.07288
5685.12561,0.08811
5687.05408,0.09634
5688.98254,0.09519
5690.91101,0.07437
5692.83948,0.05733
5694.76795,0.07229
5696.69642,0.09990
5698.62489,0.11877
5700.55336,0.11499
5702.48183,0.09549
5704.41029,0.08553
5706.33876,0.07761
5708.26723,0.06687
5710.19570,0.08207
5712.12417,0.12256
5714.05264,0.14449
5715.98111,0.12131
5717.90957,0.06322
5719.83804,0.03265
5721.76651,0.07146
5723.69498,0.12015
5725.62345,0.12945
5727.55192,0.11081
5729.48039,0.07903
5731.40886,0.06220
5733.33732,0.08280
5735.26579,0.10550
5737.19426,0.09667
5739.12273,0.09397
5741.05120,0.11014
5742.97967,0.10934
5744.90814,0.07418
5746.83660,0.03020
5748.76507,0.03277
5750.69354,0.07933
5752.62201,0.11378
5754.55048,0.12566
5756.47895,0.12716
5758.40742,0.11921
5760.33588,0.09747
5762.26435,0.06754
5764.19282,0.04589
5766.12129,0.03317
5768.04976,0.04187
5769.97823,0.09638
5771.90670,0.15445
5773.83517,0.13897
5775.76363,0.08254
5777.69210,0.06817
5779.62057,0.09595
5781.54904,0.12338
5783.47751,0.13001
5785.40598,0.12870
5787.33445,0.13869
5789.26291,0.13913
5791.19138,0.11959
5793.11985,0.11208
5795.04832,0.11378
5796.97679,0.09482
5798.90526,0.07822
5800.83373,0.08481
5802.76220,0.08820
5804.69066,0.08263
5806.61913,0.07984
5808.54760,0.07186
5810.47607,0.07231
5812.40454,0.10111
5814.33301,0.13381
5816.26148,0.14606
5818.18994,0.13766
5820.11841,0.11383
5822.04688,0.09593
5823.97535,0.08913
5825.90382,0.07141
5827.83229,0.05376
5829.76076,0.06033
5831.68923,0.07885
5833.61769,0.09185
5835.54616,0.09045
5837.47463,0.07919
5839.40310,0.07882
5841.33157,0.09267
5843.26004,0.09738
5845.18851,0.07633
5847.11697,0.05639
5849.04544,0.07588
5850.97391,0.12149
5852.90238,0.13990
5854.83085,0.10679
5856.75932,0.06450
5858.68779,0.06208
5860.61626,0.08233
5862.54472,0.09764
5864.47319,0.10450
5866.40166,0.09646
5868.33013,0.08083
5870.25860,0.07703
5872.18707,0.08261
5874.11554,0.09027
5876.04400,0.09716
5877.97247,0.09693
5879.90094,0.09821
5881.82941,0.11254
5883.75788,0.13622
5885.68635,0.15072
5887.61482,0.14067
5889.54329,0.11593
5891.47175,0.09157
5893.40022,0.07926
5895.32869,0.07336
5897.25716,0.05316
5899.18563,0.03895
5901.11410,0.05052
5903.04257,0.05308
5904.97103,0.04263
5906.89950,0.05810
5908.82797,0.08565
5910.75644,0.08506
5912.68491,0.07281
5914.61338,0.07283
5916.54185,0.06192
5918.47032,0.03003
5920.39878,0.01890
5922.32725,0.04459
5924.25572,0.06126
5926.18419,0.05520
5928.11266,0.05938
5930.04113,0.06551
5931.96960,0.06915
5933.89806,0.11049
5935.82653,0.16562
5937.75500,0.15762
5939.68347,0.09970
5941.61194,0.05680
5943.54041,0.04200
5945.46888,0.04719
5947.39734,0.08133
5949.32581,0.11877
5951.25428,0.11756
5953.18275,0.09324
5955.11122,0.06944
5957.03969,0.05778
5958.96816,0.09615
5960.89663,0.15444
5962.82509,0.15421
5964.75356,0.11074
5966.68203,0.07219
5968.61050,0.04934
5970.53897,0.03463
5972.46744,0.04140
5974.39591,0.08023
5976.32437,0.11910
5978.25284,0.13277
5980.18131,0.13197
5982.10978,0.12910
5984.03825,0.12391
5985.96672,0.11963
5987.89519,0.10453
5989.82366,0.08138
5991.75212,0.08752
5993.68059,0.10815
5995.60906,0.10077
5997.53753,0.08492
5999.46600,0.10349
6001.39447,0.14502
6003.32294,0.14577
6005.25140,0.09229
6007.17987,0.06133
6009.10834,0.06519
6011.03681,0.06489
6012.96528,0.08835
6014.89375,0.13807
6016.82222,0.17375
6018.75069,0.17362
6020.67915,0.12987
6022.60762,0.08559
6024.53609,0.06822
6026.46456,0.05235
6028.39303,0.05650
6030.32150,0.11230
6032.24997,0.16878
6034.17843,0.15484
6036.10690,0.08829
6038.03537,0.05480
6039.96384,0.08117
6041.89231,0.11308
6043.82078,0.09966
6045.74925,0.06059
6047.67772,0.03862
6049.60618,0.04511
6051.53465,0.06848
6053.46312,0.09769
6055.39159,0.12736
6057.32006,0.13405
6059.24853,0.10663
6061.17700,0.09120
6063.10546,0.12143
6065.03393,0.13814
6066.96240,0.09330
6068.89087,0.04155
6070.81934,0.04435
6072.74781,0.08332
6074.67628,0.10612
6076.60475,0.10195
6078.53321,0.09375
6080.46168,0.09070
6082.39015,0.09607
6084.31862,0.09668
6086.24709,0.07396
6088.17556,0.04871
6090.10403,0.05190
6092.03249,0.07587
6093.96096,0.08760
6095.88943,0.08126
6097.81790,0.07632
6099.74637,0.07824
6101.67484,0.07242
6103.60331,0.05312
6105.53177,0.04231
6107.46024,0.04954
6109.38871,0.06455
6111.31718,0.09292
6113.24565,0.11620
6115.17412,0.10649
6117.10259,0.09471
6119.03106,0.10244
6120.95952,0.10219
6122.88799,0.07985
6124.81646,0.05792
6126.74493,0.06333
6128.67340,0.06176
6130.60187,0.05284
6132.53034,0.08456
6134.45880,0.12001
6136.38727,0.13024
6138.31574,0.12147
6140.24421,0.09454
6142.17268,0.09463
6144.10115,0.12407
6146.02962,0.11615
6147.95809,0.07833
6149.88655,0.05344
6151.81502,0.05455
6153.74349,0.08113
6155.67196,0.10717
6157.60043,0.11674
6159.52890,0.13953
6161.45737,0.17745
6163.38583,0.18077
6165.31430,0.14901
6167.24277,0.12009
6169.17124,0.08947
6171.09971,0.05488
6173.02818,0.04768
6174.95665,0.06325
6176.88512,0.06314
6178.81358,0.07273
6180.74205,0.11066
6182.67052,0.10299
6184.59899,0.04587
6186.52746,0.02296
6188.45593,0.04560
6190.38440,0.05509
6192.31286,0.04480
6194.24133,0.04358
6196.16980,0.05206
6198.09827,0.06972
6200.02674,0.10398
6201.95521,0.12670
6203.88368,0.11143
6205.81215,0.09654
6207.74061,0.12794
6209.66908,0.15791
6211.59755,0.12942
6213.52602,0.10051
6215.45449,0.09774
6217.38296,0.08983
6219.31143,0.08952
6221.23989,0.10063
6223.16836,0.07646
6225.09683,0.01441
6227.02530,-0.01514
6228.95377,-0.00645
6230.88224,0.01106
6232.81071,0.03419
6234.73918,0.04795
6236.66764,0.06859
6238.59611,0.08546
6240.52458,0.06698
6242.45305,0.05141
6244.38152,0.04660
6246.30999,0.03082
6248.23846,0.03562
6250.16692,0.05813
6252.09539,0.05813
6254.02386,0.04086
6255.95233,0.03810
6257.88080,0.05063
6259.80927,0.05932
6261.73774,0.06589
6263.66621,0.08479
6265.59467,0.12283
6267.52314,0.14713
6269.45161,0.13976
6271.38008,0.12317
6273.30855,0.10303
6275.23702,0.09216
6277.16549,0.09489
6279.09395,0.11220
6281.02242,0.16101
6282.95089,0.21066
6284.87936,0.20931
6286.80783,0.16604
6288.73630,0.12139
6290.66477,0.08368
6292.59323,0.06053
6294.52170,0.07242
6296.45017,0.09903
6298.37864,0.11148
6300.30711,0.12245
6302.23558,0.14735
6304.16405,0.14778
6306.09252,0.09907
6308.02098,0.04140
6309.94945,0.00284
6311.87792,-0.01537
6313.80639,0.00947
6315.73486,0.06495
6317.66333,0.09901
6319.59180,0.08900
6321.52026,0.05400
6323.44873,0.03945
6325.37720,0.04861
6327.30567,0.06533
6329.23414,0.09598
6331.16261,0.10852
6333.09108,0.08374
6335.01955,0.04452
6336.94801,0.01675
6338.87648,0.01120
6340.80495,0.01410
6342.73342,0.03076
6344.66189,0.06659
6346.59036,0.10521
6348.51883,0.11713
6350.44729,0.07228
6352.37576,0.03493
6354.30423,0.06134
6356.23270,0.08315
6358.16117,0.07590
6360.08964,0.07239
6362.01811,0.07054
6363.94658,0.07515
6365.87504,0.10144
6367.80351,0.10878
6369.73198,0.06048
6371.66045,0.01662
6373.58892,0.02355
6375.51739,0.03813
6377.44586,0.04465
6379.37432,0.05624
6381.30279,0.08422
6383.23126,0.13317
6385.15973,0.16606
6387.08820,0.16220
6389.01667,0.12692
6390.94514,0.07265
6392.87361,0.03250
6394.80207,0.04542
6396.73054,0.08973
6398.65901,0.11271
6400.58748,0.10987
6402.51595,0.09309
6404.44442,0.07297
6406.37289,0.06734
6408.30135,0.07709
6410.22982,0.09594
6412.15829,0.09799
6414.08676,0.09265
6416.01523,0.12742
6417.94370,0.15395
6419.87217,0.09921
6421.80064,0.02652
6423.72910,0.00381
6425.65757,0.04771
6427.58604,0.12020
6429.51451,0.13751
6431.44298,0.09793
6433.37145,0.06947
6435.29992,0.05451
6437.22838,0.04871
6439.15685,0.06536
6441.08532,0.06086
6443.01379,0.02924
6444.94226,0.02067
6446.87073,0.00518
6448.79920,-0.03515
6450.72766,-0.04581
6452.65613,-0.02099
6454.58460,0.01764
6456.51307,0.07673
6458.44154,0.12087
6460.37001,0.11596
6462.29848,0.10295
6464.22695,0.11130
6466.15541,0.09775
6468.08388,0.04403
6470.01235,0.00160
6471.94082,0.01402
6473.86929,0.06825
6475.79776,0.08147
6477.72623,0.02495
6479.65469,0.00431
6481.58316,0.05181
6483.51163,0.10591
6485.44010,0.12646
6487.36857,0.13248
6489.29704,0.14343
6491.22551,0.10643
6493.15398,-0.00163
6495.08244,-0.07396
6497.01091,-0.04813
6498.93938,0.02388
6500.86785,0.09885
6502.79632,0.13417
6504.72479,0.10640
6506.65326,0.07602
6508.58172,0.07724
6510.51019,0.07979
6512.43866,0.06255
6514.36713,0.05402
6516.29560,0.07692
6518.22407,0.10230
6520.15254,0.11107
6522.08101,0.12549
6524.00947,0.15696
6525.93794,0.15059
6527.86641,0.10140
6529.79488,0.10597
6531.72335,0.17193
6533.65182,0.22497
6535.58029,0.22940
6537.50875,0.17080
6539.43722,0.06719
6541.36569,-0.00071
6543.29416,0.03466
6545.22263,0.12237
6547.15110,0.14741
6549.07957,0.10499
6551.00804,0.08253
6552.93650,0.11185
6554.86497,0.12956
6556.79344,0.10558
6558.72191,0.08405
6560.65038,0.06980
6562.57885,0.02243
6564.50732,-0.00254
6566.43578,0.06231
6568.36425,0.13860
6570.29272,0.15183
6572.22119,0.11706
6574.14966,0.07697
6576.07813,0.05011
6578.00660,0.01482
6579.93507,0.00098
6581.86353,0.04377
6583.79200,0.09084
6585.72047,0.10668
6587.64894,0.06604
6589.57741,-0.02331
6591.50588,-0.07287
6593.43435,-0.05349
6595.36281,-0.01007
6597.29128,0.04121
6599.21975,0.11546
6601.14822,0.20299
6603.07669,0.25115
6605.00516,0.23008
6606.93363,0.18410
6608.86210,0.17884
6610.79056,0.19728
6612.71903,0.17861
6614.64750,0.14217
6616.57597,0.13122
6618.50444,0.12205
6620.43291,0.10816
6622.36138,0.09588
6624.28984,0.06611
6626.21831,0.03458
6628.14678,0.03657
6630.07525,0.08575
6632.00372,0.10922
6633.93219,0.04984
6635.86066,0.01181
6637.78912,0.05188
6639.71759,0.06848
6641.64606,0.08594
6643.57453,0.17281
6645.50300,0.25449
6647.43147,0.21822
6649.35994,0.14320
6651.28841,0.17257
6653.21687,0.25247
6655.14534,0.24543
6657.07381,0.13877
6659.00228,0.05042
6660.93075,0.02925
6662.85922,0.02266
6664.78769,0.00389
6666.71615,-0.00385
6668.64462,0.03618
6670.57309,0.10565
6672.50156,0.12865
6674.43003,0.06520
6676.35850,0.00089
6678.28697,0.00639
6680.21544,0.03788
6682.14390,0.04207
6684.07237,0.00265
6686.00084,-0.03177
6687.92931,-0.00443
6689.85778,0.03585
6691.78625,0.04730
6693.71472,0.08632
6695.64318,0.15959
6697.57165,0.17024
6699.50012,0.09235
6701.42859,0.02625
6703.35706,0.02892
6705.28553,0.06166
6707.21400,0.07285
6709.14247,0.06750
6711.07093,0.07606
6712.99940,0.07898
6714.92787,0.05921
6716.85634,0.06217
6718.78481,0.07867
6720.71328,0.06227
6722.64175,0.05344
6724.57021,0.04910
6726.49868,0.00179
6728.42715,-0.04882
6730.35562,-0.02236
6732.28409,0.08080
6734.21256,0.17202
6736.14103,0.20380
6738.06950,0.18729
6739.99796,0.13127
6741.92643,0.07988
6743.85490,0.05922
6745.78337,0.04722
6747.71184,0.08134
6749.64031,0.17472
6751.56878,0.21665
6753.49724,0.11422
6755.42571,-0.00702
6757.35418,-0.00353
6759.28265,0.03471
6761.21112,0.04501
6763.13959,0.09081
6765.06806,0.08299
6766.99653,-0.01892
6768.92499,-0.05727
6770.85346,-0.00695
6772.78193,0.01668
6774.71040,-0.00986
6776.63887,-0.03821
6778.56734,-0.02067
6780.49581,0.03934
6782.42427,0.11175
6784.35274,0.14566
6786.28121,0.09356
6788.20968,0.02716
6790.13815,0.04958
6792.06662,0.11024
6793.99509,0.12132
6795.92355,0.09961
6797.85202,0.06366
6799.78049,0.01664
6801.70896,-0.02752
6803.63743,-0.01357
6805.56590,0.06587
6807.49437,0.12642
6809.42284,0.13083
6811.35130,0.09054
6813.27977,0.04450
6815.20824,0.01717
6817.13671,0.00283
6819.06518,0.00056
6820.99365,0.00729
6822.92212,0.03595
6824.85058,0.07739
6826.77905,0.07349
6828.70752,0.02460
6830.63599,0.00983
6832.56446,0.00399
6834.49293,-0.04886
6836.42140,-0.07304
6838.34987,-0.03839
6840.27833,-0.00303
6842.20680,0.01365
6844.13527,0.02059
6846.06374,0.05213
6847.99221,0.11117
6849.92068,0.13549
6851.84915,0.11243
6853.77761,0.08708
6855.70608,0.02959
6857.63455,-0.07733
6859.56302,-0.15312
6861.49149,-0.12406
6863.41996,-0.03694
6865.34843,0.00619
6867.27690,0.03682
6869.20536,0.10659
6871.13383,0.15615
6873.06230,0.11208
6874.99077,0.05788
6876.91924,0.06808
6878.84771,0.08234
6880.77618,0.09638
6882.70464,0.09773
6884.63311,0.03817
6886.56158,-0.00384
6888.49005,0.04066
6890.41852,0.09588
6892.34699,0.09880
6894.27546,0.08959
6896.20393,0.09438
6898.13239,0.07482
6900.06086,0.00948
6901.98933,-0.03136
6903.91780,0.01008
6905.84627,0.06509
6907.77474,0.10876
6909.70321,0.19157
6911.63167,0.19485
6913.56014,0.08274
6915.48861,0.02080
6917.41708,-0.02925
6919.34555,-0.07205
6921.27402,0.03584
6923.20249,0.14128
6925.13096,0.13442
6927.05942,0.08797
6928.98789,0.02830
6930.91636,-0.03492
6932.84483,-0.03727
6934.77330,0.01550
6936.70177,0.08589
6938.63024,0.18047
6940.55870,0.17407
6942.48717,0.06018
6944.41564,0.03511
6946.34411,0.05351
6948.27258,0.05069
6950.20105,0.09591
6952.12952,0.12966
6954.05799,0.09108
6955.98645,0.06973
6957.91492,0.04105
6959.84339,-0.05861
6961.77186,-0.11128
6963.70033,-0.06514
6965.62880,-0.06878
6967.55727,-0.18856
6969.48573,-0.26020
6971.41420,-0.15756
6973.34267,0.01063
6975.27114,0.09307
6977.19961,0.08834
6979.12808,0.07270
6981.05655,0.06209
6982.98501,0.07720
6984.91348,0.10920
6986.84195,0.14376
6988.77042,0.16907
6990.69889,0.10222
6992.62736,-0.01111
6994.55583,-0.05127
6996.48430,-0.06024
6998.41276,-0.09574
7000.34123,-0.06329
7002.26970,0.00604
7004.19817,0.01281
7006.12664,0.04904
7008.05511,0.15461
7009.98358,0.17130
7011.91204,0.11847
7013.84051,0.12424
7015.76898,0.13800
7017.69745,0.09364
7019.62592,0.04173
7021.55439,-0.00310
7023.48286,-0.07970
7025.41133,-0.18021
7027.33979,-0.23924
7029.26826,-0.16777
7031.19673,0.00891
7033.12520,0.17987
7035.05367,0.27846
7036.98214,0.26605
7038.91061,0.17502
7040.83907,0.06901
7042.76754,0.04826
7044.69601,0.12854
7046.62448,0.17301
7048.55295,0.13182
7050.48142,0.09960
7052.40989,0.13741
7054.33836,0.14473
7056.26682,0.06809
7058.19529,0.00147
7060.12376,-0.05669
7062.05223,-0.09215
7063.98070,-0.02815
7065.90917,0.06415
7067.83764,0.11918
7069.76610,0.17358
7071.69457,0.22003
7073.62304,0.21372
7075.55151,0.16882
7077.47998,0.11341
7079.40845,0.07419
7081.33692,0.06849
7083.26539,0.06419
7085.19385,0.05504
7087.12232,0.07551
7089.05079,0.08559
7090.97926,0.04837
7092.90773,-0.00221
7094.83620,-0.05470
7096.76467,-0.10473
7098.69313,-0.09392
7100.62160,0.00384
7102.55007,0.05384
7104.47854,0.02056
7106.40701,0.03988
7108.33548,0.11977
7110.26395,0.13200
7112.19242,0.03920
7114.12088,-0.06717
7116.04935,-0.06051
7117.97782,0.13346
7119.90629,0.30776
7121.83476,0.28846
7123.76323,0.27103
7125.69170,0.32662
7127.62016,0.30613
7129.54863,0.19409
7131.47710,0.09297
7133.40557,0.03506
7135.33404,0.02795
7137.26251,0.05073
7139.19098,0.02930
7141.11944,0.03560
7143.04791,0.17297
7144.97638,0.28832
7146.90485,0.19920
7148.83332,0.05239
7150.76179,0.01435
7152.69026,0.04318
7154.61873,0.04714
7156.54719,0.02819
7158.47566,0.04998
7160.40413,0.12648
7162.33260,0.17579
7164.26107,0.19926
7166.18954,0.26205
7168.11801,0.29333
7170.04647,0.23824
7171.97494,0.11422
7173.90341,-0.04176
7175.83188,-0.09438
7177.76035,0.00613
7179.68882,0.11217
7181.61729,0.15552
7183.54576,0.10913
7185.47422,-0.00986
7187.40269,-0.10711
7189.33116,-0.13620
7191.25963,-0.09454
7193.18810,-0.02940
7195.11657,0.00161
7197.04504,-0.02491
7198.97350,-0.02963
7200.90197,0.06065
7202.83044,0.12045
7204.75891,-0.00567
7206.68738,-0.12960
7208.61585,-0.10390
7210.54432,-0.02301
7212.47279,0.04246
7214.40125,0.04658
7216.32972,0.00103
7218.25819,-0.02572
7220.18666,0.01830
7222.11513,0.08501
7224.04360,0.12196
7225.97207,0.14482
7227.90053,0.19357
7229.82900,0.26829
7231.75747,0.28427
7233.68594,0.22811
7235.61441,0.20136
7237.54288,0.18955
7239.47135,0.14355
7241.39982,0.05003
7243.32828,-0.08826
7245.25675,-0.14733
7247.18522,-0.11894
7249.11369,-0.09493
7251.04216,-0.05210
7252.97063,0.11300
7254.89910,0.27174
7256.82756,0.25054
7258.75603,0.08047
7260.68450,-0.14916
7262.61297,-0.26448
7264.54144,-0.18862
7266.46991,-0.02683
7268.39838,0.04157
7270.32685,-0.03576
7272.25531,-0.10581
7274.18378,-0.01539
7276.11225,0.07574
7278.04072,0.12528
7279.96919,0.18746
7281.89766,0.16033
7283.82613,0.04219
7285.75459,-0.02709
7287.68306,0.01331
7289.61153,0.08212
7291.54000,0.09329
7293.46847,0.13709
7295.39694,0.17756
7297.32541,0.09870
7299.25387,-0.00835
7301.18234,-0.05043
7303.11081,-0.02035
7305.03928,-0.00260
7306.96775,-0.01490
7308.89622,0.05732
7310.82469,0.10733
7312.75316,0.06309
7314.68162,0.04790
7316.61009,0.07436
7318.53856,0.03845
7320.46703,-0.05058
7322.39550,-0.04015
7324.32397,0.10436
7326.25244,0.18048
7328.18090,0.13187
7330.10937,0.08934
7332.03784,0.14329
7333.96631,0.24642
7335.89478,0.26854
7337.82325,0.19390
7339.75172,0.15340
7341.68019,0.13575
7343.60865,0.02624
7345.53712,-0.04105
7347.46559,0.00223
7349.39406,0.03590
7351.32253,0.02690
7353.25100,0.02573
7355.17947,0.01294
7357.10793,-0.07922
7359.03640,-0.17370
7360.96487,-0.13161
7362.89334,0.00472
7364.82181,0.10348
7366.75028,0.07949
7368.67875,0.01403
7370.60722,-0.01321
7372.53568,-0.05725
7374.46415,-0.16238
7376.39262,-0.14360
7378.32109,0.03325
7380.24956,0.15426
7382.17803,0.16590
7384.10650,0.14695
7386.03496,0.11863
7387.96343,0.06444
7389.89190,0.00293
7391.82037,-0.06355
7393.74884,-0.09064
7395.67731,-0.01337
7397.60578,0.05632
7399.53425,0.01047
7401.46271,-0.04254
7403.39118,-0.00938
7405.31965,0.07117
7407.24812,0.10365
7409.17659,0.05423
7411.10506,0.00754
7413.03353,0.02566
7414.96199,0.07090
7416.89046,0.13941
7418.81893,0.18454
7420.74740,0.14814
7422.67587,0.10325
7424.60434,0.04142
7426.53281,-0.06246
7428.46128,-0.12743
7430.38974,-0.00567
7432.31821,0.17711
7434.24668,0.24847
7436.17515,0.26477
7438.10362,0.23480
7440.03209,0.13140
7441.96056,0.06862
7443.88902,0.09684
7445.81749,0.09388
7447.74596,0.07715
7449.67443,0.12863
7451.60290,0.20024
7453.53137,0.21258
7455.45984,0.19957
7457.38831,0.24368
7459.31677,0.27627
7461.24524,0.16955
7463.17371,0.08559
7465.10218,0.13517
7467.03065,0.24044
7468.95912,0.31834
7470.88759,0.27048
7472.81605,0.05410
7474.74452,-0.08859
7476.67299,-0.10311
7478.60146,-0.10180
7480.52993,0.05837
7482.45840,0.35411
7484.38687,0.35003
7486.31533,0.04560
7488.24380,-0.17305
7490.17227,-0.17440
7492.10074,-0.10642
7494.02921,-0.02452
7495.95768,0.00928
7497.88615,-0.07776
