399.19301,0.17701
401.12148,0.18690
403.04995,0.11700
404.97842,0.02955
406.90689,0.01747
408.83536,0.00924
410.76382,-0.02199
412.69229,0.04170
414.62076,0.15391
416.54923,0.27554
418.47770,0.41295
420.40617,0.38602
422.33464,0.29359
424.26311,0.24802
426.19157,0.19992
428.12004,0.15282
430.04851,0.09221
431.97698,0.01570
433.90545,0.01681
435.83392,0.06468
437.76239,0.06538
439.69085,0.06273
441.61932,0.07638
443.54779,0.06257
445.47626,0.07376
447.40473,0.10234
449.33320,0.09595
451.26167,0.09259
453.19013,0.09199
455.11860,0.06766
457.04707,0.03880
458.97554,0.02785
460.90401,0.06875
462.83248,0.13489
464.76095,0.12591
466.68942,0.05247
468.61788,0.00678
470.54635,0.01081
472.47482,0.07030
474.40329,0.09674
476.33176,-0.00144
478.26023,-0.05765
480.18870,-0.02542
482.11716,0.07954
484.04563,0.16907
485.97410,0.14498
487.90257,0.09026
489.83104,0.08497
491.75951,0.09348
493.68798,0.07325
495.61645,0.03728
497.54491,0.04329
499.47338,0.08034
501.40185,0.07707
503.33032,0.03671
505.25879,0.02900
507.18726,0.03414
509.11573,0.01012
511.04419,0.01081
512.97266,0.05310
514.90113,0.08603
516.82960,0.09264
518.75807,0.09262
520.68654,0.08499
522.61501,0.07120
524.54348,0.07299
526.47194,0.09953
528.40041,0.12578
530.32888,0.12461
532.25735,0.11572
534.18582,0.11962
536.11429,0.10375
538.04276,0.07998
539.97122,0.08849
541.89969,0.08869
543.82816,0.06088
545.75663,0.05078
547.68510,0.06783
549.61357,0.06712
551.54204,-0.02609
553.47051,-0.13831
555.39897,-0.08369
557.32744,0.06931
559.25591,0.13015
561.18438,0.12720
563.11285,0.12680
565.04132,0.12311
566.96979,0.11462
568.89825,0.10864
570.82672,0.10834
572.75519,0.10253
574.68366,0.08882
576.61213,0.07770
578.54060,0.06571
580.46907,0.04775
582.39754,0.04177
584.32600,0.04912
586.25447,0.06490
588.18294,0.09586
590.11141,0.11539
592.03988,0.11891
593.96835,0.13209
595.89682,0.14066
597.82528,0.12936
599.75375,0.10916
601.68222,0.09276
603.61069,0.08543
605.53916,0.08908
607.46763,0.09534
609.39610,0.09452
611.32456,0.08699
613.25303,0.07941
615.18150,0.09235
617.10997,0.12379
619.03844,0.13411
620.96691,0.12252
622.89538,0.12403
624.82385,0.13653
626.75231,0.13771
628.68078,0.13254
630.60925,0.13822
632.53772,0.14339
634.46619,0.12452
636.39466,0.09473
638.32313,0.07928
640.25159,0.07795
642.18006,0.07697
644.10853,0.06889
646.03700,0.06895
647.96547,0.09250
649.89394,0.11774
651.82241,0.12378
653.75088,0.12203
655.67934,0.12338
657.60781,0.12564
659.53628,0.12323
661.46475,0.12295
663.39322,0.13448
665.32169,0.14675
667.25016,0.14746
669.17862,0.14401
671.10709,0.13625
673.03556,0.11544
674.96403,0.09706
676.89250,0.09119
678.82097,0.08518
680.74944,0.08489
682.67791,0.09746
684.60637,0.11231
686.53484,0.12604
688.46331,0.13333
690.39178,0.13789
692.32025,0.14556
694.24872,0.14576
696.17719,0.14207
698.10565,0.14318
700.03412,0.13891
701.96259,0.12471
703.89106,0.11450
705.81953,0.11626
707.74800,0.11969
709.67647,0.11647
711.60494,0.11137
713.53340,0.11003
715.46187,0.11240
717.39034,0.11939
719.31881,0.12847
721.24728,0.12616
723.17575,0.11525
725.10422,0.11453
727.03268,0.11631
728.96115,0.11386
730.88962,0.12579
732.81809,0.14382
734.74656,0.14219
736.67503,0.12845
738.60350,0.11687
740.53197,0.11049
742.46043,0.11330
744.38890,0.12254
746.31737,0.12823
748.24584,0.12297
750.17431,0.11636
752.10278,0.11844
754.03125,0.11883
755.95971,0.11624
757.88818,0.12115
759.81665,0.13175
761.74512,0.13879
763.67359,0.13733
765.60206,0.13117
767.53053,0.12491
769.45900,0.12268
771.38746,0.12708
773.31593,0.12996
775.24440,0.12585
777.17287,0.12168
779.10134,0.12404
781.02981,0.13148
782.95828,0.13371
784.88674,0.12947
786.81521,0.13008
788.74368,0.12989
790.67215,0.12031
792.60062,0.11374
794.52909,0.11783
796.45756,0.12609
798.38602,0.13009
800.31449,0.12497
802.24296,0.11725
804.17143,0.10914
806.09990,0.10228
808.02837,0.10724
809.95684,0.11781
811.88531,0.12635
813.81377,0.13196
815.74224,0.12777
817.67071,0.12172
819.59918,0.12156
821.52765,0.11691
823.45612,0.11232
825.38459,0.11923
827.31305,0.12724
829.24152,0.12700
831.16999,0.12244
833.09846,0.12466
835.02693,0.14053
836.95540,0.15392
838.88387,0.15250
840.81234,0.14444
842.74080,0.13416
844.66927,0.12336
846.59774,0.12107
848.52621,0.12790
850.45468,0.13347
852.38315,0.13589
854.31162,0.14070
856.24008,0.14557
858.16855,0.14319
860.09702,0.13419
862.02549,0.12686
863.95396,0.12661
865.88243,0.13270
867.81090,0.13534
869.73937,0.12772
871.66783,0.12577
873.59630,0.14001
875.52477,0.14855
877.45324,0.13697
879.38171,0.12569
881.31018,0.12746
883.23865,0.12962
885.16711,0.12758
887.09558,0.12142
889.02405,0.11203
890.95252,0.11019
892.88099,0.11450
894.80946,0.11661
896.73793,0.12089
898.66640,0.13110
900.59486,0.14060
902.52333,0.14409
904.45180,0.14142
906.38027,0.13509
908.30874,0.13339
910.23721,0.14261
912.16568,0.15364
914.09414,0.15008
916.02261,0.13678
917.95108,0.13287
919.87955,0.13762
921.80802,0.13890
923.73649,0.13579
925.66496,0.13077
927.59343,0.12757
929.52189,0.13266
931.45036,0.13953
933.37883,0.14339
935.30730,0.15085
937.23577,0.15507
939.16424,0.14936
941.09271,0.14314
943.02117,0.14079
944.94964,0.14067
946.87811,0.14100
948.80658,0.13853
950.73505,0.13949
952.66352,0.14457
954.59199,0.14071
956.52045,0.12866
958.44892,0.12104
960.37739,0.12204
962.30586,0.12756
964.23433,0.13270
966.16280,0.13720
968.09127,0.14185
970.01974,0.14452
971.94820,0.14619
973.87667,0.15058
975.80514,0.15504
977.73361,0.15525
979.66208,0.15076
981.59055,0.14554
983.51902,0.14293
985.44748,0.13969
987.37595,0.13717
989.30442,0.13651
991.23289,0.13176
993.16136,0.12513
995.08983,0.12448
997.01830,0.12998
998.94677,0.13820
1000.87523,0.14401
1002.80370,0.14155
1004.73217,0.13903
1006.66064,0.14608
1008.58911,0.15463
1010.51758,0.15678
1012.44605,0.15235
1014.37451,0.14482
1016.30298,0.14120
1018.23145,0.14088
1020.15992,0.14022
1022.08839,0.14022
1024.01686,0.13744
1025.94533,0.13596
1027.87380,0.14196
1029.80226,0.14412
1031.73073,0.14180
1033.65920,0.14660
1035.58767,0.15436
1037.51614,0.15714
1039.44461,0.15449
1041.37308,0.15128
1043.30154,0.15423
1045.23001,0.15951
1047.15848,0.15939
1049.08695,0.16011
1051.01542,0.16657
1052.94389,0.17005
1054.87236,0.16440
1056.80083,0.15148
1058.72929,0.14204
1060.65776,0.14447
1062.58623,0.15088
1064.51470,0.15672
1066.44317,0.16073
1068.37164,0.15844
1070.30011,0.15814
1072.22857,0.16094
1074.15704,0.15563
1076.08551,0.15053
1078.01398,0.15963
1079.94245,0.17228
1081.87092,0.17217
1083.79939,0.16259
1085.72786,0.15126
1087.65632,0.14538
1089.58479,0.14926
1091.51326,0.15384
1093.44173,0.15336
1095.37020,0.14934
1097.29867,0.14824
1099.22714,0.15493
1101.15560,0.15790
1103.08407,0.15018
1105.01254,0.14312
1106.94101,0.14539
1108.86948,0.15336
1110.79795,0.15725
1112.72642,0.15463
1114.65489,0.15808
1116.58335,0.16734
1118.51182,0.16438
1120.44029,0.15081
1122.36876,0.14459
1124.29723,0.15067
1126.22570,0.15882
1128.15417,0.16019
1130.08263,0.15368
1132.01110,0.14452
1133.93957,0.14068
1135.86804,0.14333
1137.79651,0.14834
1139.72498,0.15252
1141.65345,0.15655
1143.58191,0.16077
1145.51038,0.16188
1147.43885,0.16206
1149.36732,0.16361
1151.29579,0.16232
1153.22426,0.15947
1155.15273,0.15825
1157.08120,0.15542
1159.00966,0.15112
1160.93813,0.15007
1162.86660,0.15288
1164.79507,0.15628
1166.72354,0.15639
1168.65201,0.15341
1170.58048,0.15296
1172.50894,0.15589
1174.43741,0.15750
1176.36588,0.15740
1178.29435,0.15752
1180.22282,0.15844
1182.15129,0.15972
1184.07976,0.16262
1186.00823,0.16884
1187.93669,0.17290
1189.86516,0.17226
1191.79363,0.17153
1193.72210,0.16906
1195.65057,0.16256
1197.57904,0.15696
1199.50751,0.15450
1201.43597,0.15429
1203.36444,0.15693
1205.29291,0.15929
1207.22138,0.15960
1209.14985,0.16131
1211.07832,0.16343
1213.00679,0.16276
1214.93526,0.16200
1216.86372,0.16416
1218.79219,0.16679
1220.72066,0.16796
1222.64913,0.16811
1224.57760,0.16710
1226.50607,0.16469
1228.43454,0.16145
1230.36300,0.15945
1232.29147,0.15833
1234.21994,0.15644
1236.14841,0.15614
1238.07688,0.15922
1240.00535,0.16273
1241.93382,0.16323
1243.86229,0.16093
1245.79075,0.15794
1247.71922,0.15656
1249.64769,0.15858
1251.57616,0.16235
1253.50463,0.16386
1255.43310,0.16133
1257.36157,0.15694
1259.29003,0.15446
1261.21850,0.15398
1263.14697,0.15414
1265.07544,0.15535
1267.00391,0.15425
1268.93238,0.15280
1270.86085,0.15778
1272.78932,0.16250
1274.71778,0.16098
1276.64625,0.16078
1278.57472,0.16492
1280.50319,0.16822
1282.43166,0.16955
1284.36013,0.17026
1286.28860,0.16776
1288.21706,0.16457
1290.14553,0.16527
1292.07400,0.16458
1294.00247,0.16098
1295.93094,0.15969
1297.85941,0.15856
1299.78788,0.15067
1301.71634,0.13333
1303.64481,0.11535
1305.57328,0.11563
1307.50175,0.13747
1309.43022,0.15837
1311.35869,0.16606
1313.28716,0.16945
1315.21563,0.17223
1317.14409,0.17355
1319.07256,0.17488
1321.00103,0.17497
1322.92950,0.17290
1324.85797,0.16692
1326.78644,0.15974
1328.71491,0.15951
1330.64337,0.16238
1332.57184,0.16272
1334.50031,0.16129
1336.42878,0.15636
1338.35725,0.15312
1340.28572,0.15223
1342.21419,0.15262
1344.14266,0.16015
1346.07112,0.16606
1347.99959,0.16451
1349.92806,0.16121
1351.85653,0.15779
1353.78500,0.15712
1355.71347,0.16033
1357.64194,0.16426
1359.57040,0.16950
1361.49887,0.17434
1363.42734,0.17216
1365.35581,0.16747
1367.28428,0.16702
1369.21275,0.16928
1371.14122,0.17315
1373.06969,0.17739
1374.99815,0.17916
1376.92662,0.17888
1378.85509,0.17888
1380.78356,0.18031
1382.71203,0.18260
1384.64050,0.18568
1386.56897,0.18904
1388.49743,0.18703
1390.42590,0.18384
1392.35437,0.18601
1394.28284,0.18774
1396.21131,0.18674
1398.13978,0.18610
1400.06825,0.18353
1401.99672,0.18077
1403.92518,0.17970
1405.85365,0.17940
1407.78212,0.18065
1409.71059,0.18233
1411.63906,0.18189
1413.56753,0.18231
1415.49600,0.18588
1417.42446,0.18882
1419.35293,0.18688
1421.28140,0.18356
1423.20987,0.18390
1425.13834,0.18519
1427.06681,0.18376
1428.99528,0.18221
1430.92375,0.18273
1432.85221,0.18245
1434.78068,0.18162
1436.70915,0.18121
1438.63762,0.18144
1440.56609,0.18421
1442.49456,0.18618
1444.42303,0.18461
1446.35149,0.18317
1448.27996,0.18350
1450.20843,0.18319
1452.13690,0.18475
1454.06537,0.19222
1455.99384,0.20482
1457.92231,0.20967
1459.85077,0.20007
1461.77924,0.19254
1463.70771,0.19123
1465.63618,0.19165
1467.56465,0.19192
1469.49312,0.19786
1471.42159,0.20799
1473.35006,0.20822
1475.27852,0.19707
1477.20699,0.18918
1479.13546,0.18719
1481.06393,0.18709
1482.99240,0.18584
1484.92087,0.18747
1486.84934,0.19521
1488.77780,0.20256
1490.70627,0.20115
1492.63474,0.19858
1494.56321,0.20209
1496.49168,0.20787
1498.42015,0.20583
1500.34862,0.20028
1502.27709,0.20062
1504.20555,0.20768
1506.13402,0.21681
1508.06249,0.20777
1509.99096,0.19315
1511.91943,0.18723
1513.84790,0.18738
1515.77637,0.19344
1517.70483,0.20360
1519.63330,0.21213
1521.56177,0.21593
1523.49024,0.21252
1525.41871,0.20864
1527.34718,0.20613
1529.27565,0.20347
1531.20412,0.20338
1533.13258,0.20533
1535.06105,0.20651
1536.98952,0.21311
1538.91799,0.23128
1540.84646,0.24077
1542.77493,0.22435
1544.70340,0.20977
1546.63186,0.20038
1548.56033,0.19734
1550.48880,0.19908
1552.41727,0.20116
1554.34574,0.20406
1556.27421,0.21084
1558.20268,0.21840
1560.13115,0.20931
1562.05961,0.20135
1563.98808,0.19985
1565.91655,0.19957
1567.84502,0.20289
1569.77349,0.20796
1571.70196,0.20657
1573.63043,0.20468
1575.55889,0.20600
1577.48736,0.20256
1579.41583,0.19474
1581.34430,0.18786
1583.27277,0.18345
1585.20124,0.18311
1587.12971,0.18576
1589.05818,0.19043
1590.98664,0.19534
1592.91511,0.19741
1594.84358,0.19619
1596.77205,0.19329
1598.70052,0.19288
1600.62899,0.19616
1602.55746,0.19774
1604.48592,0.19503
1606.41439,0.19166
1608.34286,0.18925
1610.27133,0.18661
1612.19980,0.18560
1614.12827,0.19017
1616.05674,0.19898
1617.98521,0.20020
1619.91367,0.19704
1621.84214,0.19927
1623.77061,0.20416
1625.69908,0.20699
1627.62755,0.20729
1629.55602,0.20512
1631.48449,0.20530
1633.41295,0.21107
1635.34142,0.21773
1637.26989,0.21378
1639.19836,0.20725
1641.12683,0.20523
1643.05530,0.20781
1644.98377,0.21525
1646.91223,0.22026
1648.84070,0.21461
1650.76917,0.21326
1652.69764,0.22562
1654.62611,0.22705
1656.55458,0.20998
1658.48305,0.19782
1660.41152,0.19586
1662.33998,0.20138
1664.26845,0.20474
1666.19692,0.20497
1668.12539,0.20885
1670.05386,0.21547
1671.98233,0.21761
1673.91080,0.21628
1675.83926,0.21031
1677.76773,0.20506
1679.69620,0.20701
1681.62467,0.21522
1683.55314,0.22388
1685.48161,0.21743
1687.41008,0.20700
1689.33855,0.20259
1691.26701,0.20074
1693.19548,0.20360
1695.12395,0.21526
1697.05242,0.22626
1698.98089,0.22504
1700.90936,0.21614
1702.83783,0.20922
1704.76629,0.20713
1706.69476,0.20405
1708.62323,0.19923
1710.55170,0.19756
1712.48017,0.19914
1714.40864,0.20379
1716.33711,0.20975
1718.26558,0.20477
1720.19404,0.19598
1722.12251,0.19323
1724.05098,0.19232
1725.97945,0.19192
1727.90792,0.19444
1729.83639,0.20030
1731.76486,0.20856
1733.69332,0.21386
1735.62179,0.20756
1737.55026,0.20245
1739.47873,0.20437
1741.40720,0.20669
1743.33567,0.20628
1745.26414,0.20562
1747.19261,0.20500
1749.12107,0.20388
1751.04954,0.19953
1752.97801,0.19469
1754.90648,0.19383
1756.83495,0.19428
1758.76342,0.19489
1760.69189,0.19796
1762.62035,0.19935
1764.54882,0.19652
1766.47729,0.19482
1768.40576,0.19720
1770.33423,0.20284
1772.26270,0.20532
1774.19117,0.20144
1776.11964,0.19930
1778.04810,0.19993
1779.97657,0.20042
1781.90504,0.19901
1783.83351,0.19540
1785.76198,0.19236
1787.69045,0.19326
1789.61892,0.19800
1791.54738,0.20301
1793.47585,0.20226
1795.40432,0.19900
1797.33279,0.19880
1799.26126,0.20041
1801.18973,0.20024
1803.11820,0.19729
1805.04666,0.19538
1806.97513,0.19690
1808.90360,0.19944
1810.83207,0.19951
1812.76054,0.19666
1814.68901,0.19354
1816.61748,0.19092
1818.54595,0.18740
1820.47441,0.18629
1822.40288,0.19132
1824.33135,0.19667
1826.25982,0.19711
1828.18829,0.19741
1830.11676,0.19731
1832.04523,0.19451
1833.97369,0.19337
1835.90216,0.19452
1837.83063,0.19467
1839.75910,0.19437
1841.68757,0.19840
1843.61604,0.20535
1845.54451,0.20591
1847.47298,0.20090
1849.40144,0.19577
1851.32991,0.19218
1853.25838,0.19187
1855.18685,0.19243
1857.11532,0.19139
1859.04379,0.19190
1860.97226,0.19468
1862.90072,0.19641
1864.82919,0.19859
1866.75766,0.20386
1868.68613,0.20638
1870.61460,0.20161
1872.54307,0.19686
1874.47154,0.19539
1876.40001,0.19564
1878.32847,0.19554
1880.25694,0.19433
1882.18541,0.19345
1884.11388,0.19393
1886.04235,0.19493
1887.97082,0.19550
1889.89929,0.19532
1891.82775,0.19469
1893.75622,0.19421
1895.68469,0.19365
1897.61316,0.19224
1899.54163,0.19077
1901.47010,0.19022
1903.39857,0.18927
1905.32704,0.18882
1907.25550,0.19171
1909.18397,0.19557
1911.11244,0.19710
1913.04091,0.19736
1914.96938,0.19698
1916.89785,0.19518
1918.82632,0.19343
1920.75478,0.19412
1922.68325,0.19508
1924.61172,0.19387
1926.54019,0.19312
1928.46866,0.19364
1930.39713,0.19282
1932.32560,0.19083
1934.25407,0.19099
1936.18253,0.19391
1938.11100,0.19662
1940.03947,0.19834
1941.96794,0.19939
1943.89641,0.19864
1945.82488,0.19756
1947.75335,0.19762
1949.68181,0.19725
1951.61028,0.19551
1953.53875,0.19422
1955.46722,0.19488
1957.39569,0.19493
1959.32416,0.19226
1961.25263,0.19017
1963.18110,0.19131
1965.10956,0.19287
1967.03803,0.19315
1968.96650,0.19311
1970.89497,0.19327
1972.82344,0.19421
1974.75191,0.19557
1976.68038,0.19646
1978.60884,0.19631
1980.53731,0.19535
1982.46578,0.19408
1984.39425,0.19246
1986.32272,0.19196
1988.25119,0.19327
1990.17966,0.19430
1992.10812,0.19263
1994.03659,0.18917
1995.96506,0.18768
1997.89353,0.18912
1999.82200,0.19154
2001.75047,0.19353
2003.67894,0.19471
2005.60741,0.19472
2007.53587,0.19429
2009.46434,0.19464
2011.39281,0.19597
2013.32128,0.19752
2015.24975,0.19845
2017.17822,0.19804
2019.10669,0.19589
2021.03515,0.19361
2022.96362,0.19276
2024.89209,0.19274
2026.82056,0.19262
2028.74903,0.19243
2030.67750,0.19242
2032.60597,0.19253
2034.53444,0.19307
2036.46290,0.19389
2038.39137,0.19389
2040.31984,0.19297
2042.24831,0.19297
2044.17678,0.19456
2046.10525,0.19561
2048.03372,0.19565
2049.96218,0.19584
2051.89065,0.19619
2053.81912,0.19700
2055.74759,0.19762
2057.67606,0.19673
2059.60453,0.19562
2061.53300,0.19617
2063.46147,0.19700
2065.38993,0.19651
2067.31840,0.19588
2069.24687,0.19536
2071.17534,0.19459
2073.10381,0.19417
2075.03228,0.19419
2076.96075,0.19534
2078.88921,0.19665
2080.81768,0.19642
2082.74615,0.19611
2084.67462,0.19714
2086.60309,0.19861
2088.53156,0.19863
2090.46003,0.19661
2092.38850,0.19436
2094.31696,0.19373
2096.24543,0.19400
2098.17390,0.19380
2100.10237,0.19409
2102.03084,0.19549
2103.95931,0.19696
2105.88778,0.19775
2107.81624,0.19734
2109.74471,0.19730
2111.67318,0.19884
2113.60165,0.19923
2115.53012,0.19714
2117.45859,0.19483
2119.38706,0.19471
2121.31553,0.19671
2123.24399,0.19871
2125.17246,0.19965
2127.10093,0.19923
2129.02940,0.19757
2130.95787,0.19655
2132.88634,0.19697
2134.81481,0.19678
2136.74327,0.19616
2138.67174,0.19742
2140.60021,0.19878
2142.52868,0.19698
2144.45715,0.19499
2146.38562,0.19645
2148.31409,0.19765
2150.24255,0.19645
2152.17102,0.19605
2154.09949,0.19762
2156.02796,0.19934
2157.95643,0.19918
2159.88490,0.19800
2161.81337,0.19710
2163.74184,0.19575
2165.67030,0.19504
2167.59877,0.19668
2169.52724,0.19894
2171.45571,0.19874
2173.38418,0.19675
2175.31265,0.19550
2177.24112,0.19496
2179.16958,0.19510
2181.09805,0.19595
2183.02652,0.19671
2184.95499,0.19867
2186.88346,0.20152
2188.81193,0.20175
2190.74040,0.19881
2192.66887,0.19637
2194.59733,0.19612
2196.52580,0.19581
2198.45427,0.19465
2200.38274,0.19499
2202.31121,0.19709
2204.23968,0.19807
2206.16815,0.19717
2208.09661,0.19592
2210.02508,0.19493
2211.95355,0.19448
2213.88202,0.19579
2215.81049,0.19824
2217.73896,0.19909
2219.66743,0.19783
2221.59590,0.19678
2223.52436,0.19797
2225.45283,0.19968
2227.38130,0.19924
2229.30977,0.19767
2231.23824,0.19691
2233.16671,0.19737
2235.09518,0.19725
2237.02364,0.19617
2238.95211,0.19592
2240.88058,0.19584
2242.80905,0.19578
2244.73752,0.19712
2246.66599,0.20029
2248.59446,0.20319
2250.52293,0.20310
2252.45139,0.20180
2254.37986,0.20107
2256.30833,0.19983
2258.23680,0.19901
2260.16527,0.19918
2262.09374,0.19906
2264.02221,0.19931
2265.95067,0.19995
2267.87914,0.19836
2269.80761,0.19519
2271.73608,0.19435
2273.66455,0.19529
2275.59302,0.19526
2277.52149,0.19638
2279.44996,0.19895
2281.37842,0.19992
2283.30689,0.20050
2285.23536,0.20150
2287.16383,0.20089
2289.09230,0.20029
2291.02077,0.20183
2292.94924,0.20121
2294.87770,0.19699
2296.80617,0.19658
2298.73464,0.20007
2300.66311,0.19844
2302.59158,0.19240
2304.52005,0.18990
2306.44852,0.19105
2308.37699,0.19053
2310.30545,0.18893
2312.23392,0.19104
2314.16239,0.19396
2316.09086,0.19380
2318.01933,0.19388
2319.94780,0.19308
2321.87627,0.18845
2323.80473,0.18842
2325.73320,0.19802
2327.66167,0.20522
2329.59014,0.20125
2331.51861,0.19414
2333.44708,0.19071
2335.37555,0.18949
2337.30401,0.19183
2339.23248,0.19722
2341.16095,0.19955
2343.08942,0.19569
2345.01789,0.19030
2346.94636,0.18985
2348.87483,0.19174
2350.80330,0.19524
2352.73176,0.20695
2354.66023,0.22253
2356.58870,0.22359
2358.51717,0.21270
2360.44564,0.20725
2362.37411,0.21851
2364.30258,0.22996
2366.23104,0.21585
2368.15951,0.19177
2370.08798,0.18488
2372.01645,0.19244
2373.94492,0.19927
2375.87339,0.19928
2377.80186,0.19612
2379.73033,0.19448
2381.65879,0.19483
2383.58726,0.19541
2385.51573,0.19537
2387.44420,0.19562
2389.37267,0.19704
2391.30114,0.19927
2393.22961,0.20197
2395.15807,0.20324
2397.08654,0.20186
2399.01501,0.20069
2400.94348,0.20031
2402.87195,0.19954
2404.80042,0.19903
2406.72889,0.19853
2408.65736,0.19771
2410.58582,0.19746
2412.51429,0.19838
2414.44276,0.19957
2416.37123,0.19935
2418.29970,0.19758
2420.22817,0.19681
2422.15664,0.19898
2424.08510,0.20220
2426.01357,0.20337
2427.94204,0.20239
2429.87051,0.20211
2431.79898,0.20303
2433.72745,0.20330
2435.65592,0.20295
2437.58439,0.20240
2439.51285,0.20108
2441.44132,0.19988
2443.36979,0.20044
2445.29826,0.20084
2447.22673,0.19934
2449.15520,0.19825
2451.08367,0.19913
2453.01213,0.20102
2454.94060,0.20163
2456.86907,0.20033
2458.79754,0.19958
2460.72601,0.20042
2462.65448,0.20187
2464.58295,0.20236
2466.51142,0.20158
2468.43988,0.20089
2470.36835,0.19921
2472.29682,0.19716
2474.22529,0.19731
2476.15376,0.19706
2478.08223,0.19520
2480.01070,0.19522
2481.93916,0.19803
2483.86763,0.20161
2485.79610,0.20371
2487.72457,0.20302
2489.65304,0.20142
2491.58151,0.20120
2493.50998,0.20156
2495.43844,0.20173
2497.36691,0.20213
2499.29538,0.20289
2501.22385,0.20321
2503.15232,0.20184
2505.08079,0.19924
2507.00926,0.19733
2508.93773,0.19804
2510.86619,0.20059
2512.79466,0.20166
2514.72313,0.20070
2516.65160,0.19907
2518.58007,0.19831
2520.50854,0.19934
2522.43701,0.20077
2524.36547,0.20089
2526.29394,0.19928
2528.22241,0.19891
2530.15088,0.20109
2532.07935,0.20212
2534.00782,0.20100
2535.93629,0.19951
2537.86476,0.19901
2539.79322,0.19964
2541.72169,0.20006
2543.65016,0.20124
2545.57863,0.20352
2547.50710,0.20371
2549.43557,0.20172
2551.36404,0.20070
2553.29250,0.20132
2555.22097,0.20276
2557.14944,0.20368
2559.07791,0.20313
2561.00638,0.20239
2562.93485,0.20265
2564.86332,0.20267
2566.79179,0.20200
2568.72025,0.20287
2570.64872,0.20509
2572.57719,0.20560
2574.50566,0.20403
2576.43413,0.20360
2578.36260,0.20469
2580.29107,0.20442
2582.21953,0.20221
2584.14800,0.20004
2586.07647,0.20061
2588.00494,0.20393
2589.93341,0.20656
2591.86188,0.20680
2593.79035,0.20629
2595.71882,0.20539
2597.64728,0.20348
2599.57575,0.20198
2601.50422,0.20153
2603.43269,0.20192
2605.36116,0.20216
2607.28963,0.20123
2609.21810,0.20024
2611.14656,0.19912
2613.07503,0.19794
2615.00350,0.19943
2616.93197,0.20222
2618.86044,0.20279
2620.78891,0.20290
2622.71738,0.20428
2624.64585,0.20575
2626.57431,0.20600
2628.50278,0.20537
2630.43125,0.20542
2632.35972,0.20487
2634.28819,0.20324
2636.21666,0.20224
2638.14513,0.20271
2640.07359,0.20476
2642.00206,0.20671
2643.93053,0.20795
2645.85900,0.20841
2647.78747,0.20633
2649.71594,0.20352
2651.64441,0.20366
2653.57288,0.20610
2655.50134,0.20814
2657.42981,0.20819
2659.35828,0.20645
2661.28675,0.20400
2663.21522,0.20270
2665.14369,0.20456
2667.07216,0.20641
2669.00062,0.20581
2670.92909,0.20552
2672.85756,0.20565
2674.78603,0.20482
2676.71450,0.20344
2678.64297,0.20292
2680.57144,0.20389
2682.49990,0.20488
2684.42837,0.20604
2686.35684,0.20790
2688.28531,0.20967
2690.21378,0.21037
2692.14225,0.20846
2694.07072,0.20598
2695.99919,0.20624
2697.92765,0.20793
2699.85612,0.20886
2701.78459,0.20833
2703.71306,0.20648
2705.64153,0.20621
2707.57000,0.20903
2709.49847,0.21042
2711.42693,0.20883
2713.35540,0.20804
2715.28387,0.20829
2717.21234,0.20821
2719.14081,0.20926
2721.06928,0.21195
2722.99775,0.21257
2724.92622,0.21136
2726.85468,0.21298
2728.78315,0.21521
2730.71162,0.21499
2732.64009,0.21414
2734.56856,0.21336
2736.49703,0.21308
2738.42550,0.21318
2740.35396,0.21215
2742.28243,0.21154
2744.21090,0.21305
2746.13937,0.21351
2748.06784,0.21179
2749.99631,0.21077
2751.92478,0.21064
2753.85325,0.21109
2755.78171,0.21308
2757.71018,0.21482
2759.63865,0.21523
2761.56712,0.21551
2763.49559,0.21567
2765.42406,0.21581
2767.35253,0.21596
2769.28099,0.21670
2771.20946,0.21803
2773.13793,0.21748
2775.06640,0.21660
2776.99487,0.21740
2778.92334,0.21688
2780.85181,0.21522
2782.78028,0.21501
2784.70874,0.21455
2786.63721,0.21193
2788.56568,0.21052
2790.49415,0.21356
2792.42262,0.21811
2794.35109,0.22012
2796.27956,0.21984
2798.20802,0.21960
2800.13649,0.21907
2802.06496,0.21747
2803.99343,0.21713
2805.92190,0.21805
2807.85037,0.21879
2809.77884,0.21975
2811.70731,0.21913
2813.63577,0.21639
2815.56424,0.21522
2817.49271,0.21600
2819.42118,0.21582
2821.34965,0.21411
2823.27812,0.21230
2825.20659,0.21252
2827.13505,0.21513
2829.06352,0.21854
2830.99199,0.22059
2832.92046,0.21953
2834.84893,0.21702
2836.77740,0.21706
2838.70587,0.22019
2840.63433,0.22225
2842.56280,0.22159
2844.49127,0.21952
2846.41974,0.21749
2848.34821,0.21656
2850.27668,0.21531
2852.20515,0.21449
2854.13362,0.21615
2856.06208,0.21845
2857.99055,0.21958
2859.91902,0.22139
2861.84749,0.22405
2863.77596,0.22401
2865.70443,0.22151
2867.63290,0.22028
2869.56136,0.22054
2871.48983,0.21909
2873.41830,0.21657
2875.34677,0.21709
2877.27524,0.21973
2879.20371,0.22089
2881.13218,0.22003
2883.06065,0.21691
2884.98911,0.21274
2886.91758,0.21247
2888.84605,0.21679
2890.77452,0.21962
2892.70299,0.21672
2894.63146,0.21058
2896.55993,0.20811
2898.48839,0.21230
2900.41686,0.21716
2902.34533,0.21696
2904.27380,0.21309
2906.20227,0.20996
2908.13074,0.21154
2910.05921,0.21417
2911.98768,0.21273
2913.91614,0.20942
2915.84461,0.20684
2917.77308,0.20790
2919.70155,0.21200
2921.63002,0.21517
2923.55849,0.21404
2925.48696,0.20528
2927.41542,0.19744
2929.34389,0.20135
2931.27236,0.21041
2933.20083,0.21252
2935.12930,0.20494
2937.05777,0.19794
2938.98624,0.20506
2940.91471,0.21935
2942.84317,0.22426
2944.77164,0.21761
2946.70011,0.20601
2948.62858,0.20288
2950.55705,0.21192
2952.48552,0.21937
2954.41399,0.21738
2956.34245,0.20502
2958.27092,0.19477
2960.19939,0.20219
2962.12786,0.21525
2964.05633,0.21910
2965.98480,0.21474
2967.91327,0.20915
2969.84174,0.21225
2971.77020,0.21905
2973.69867,0.22043
2975.62714,0.21669
2977.55561,0.20960
2979.48408,0.20972
2981.41255,0.21919
2983.34102,0.22429
2985.26948,0.21949
2987.19795,0.20842
2989.12642,0.20127
2991.05489,0.20740
2992.98336,0.21975
2994.91183,0.22659
2996.84030,0.22628
2998.76877,0.22438
3000.69723,0.22575
3002.62570,0.22600
3004.55417,0.22069
3006.48264,0.21436
3008.41111,0.20980
3010.33958,0.20132
3012.26805,0.17751
3014.19651,0.13532
3016.12498,0.10090
3018.05345,0.11498
3019.98192,0.16922
3021.91039,0.21097
3023.83886,0.22298
3025.76733,0.22187
3027.69579,0.22009
3029.62426,0.22331
3031.55273,0.22793
3033.48120,0.22903
3035.40967,0.22689
3037.33814,0.22347
3039.26661,0.22344
3041.19508,0.22709
3043.12354,0.22883
3045.05201,0.22608
3046.98048,0.22107
3048.90895,0.21949
3050.83742,0.22289
3052.76589,0.22560
3054.69436,0.21969
3056.62282,0.20686
3058.55129,0.20486
3060.47976,0.21483
3062.40823,0.21985
3064.33670,0.21492
3066.26517,0.20593
3068.19364,0.20642
3070.12211,0.21720
3072.05057,0.22316
3073.97904,0.21729
3075.90751,0.20600
3077.83598,0.20567
3079.76445,0.21740
3081.69292,0.22264
3083.62139,0.21124
3085.54985,0.19661
3087.47832,0.19967
3089.40679,0.21530
3091.33526,0.22144
3093.26373,0.21051
3095.19220,0.20092
3097.12067,0.20804
3099.04914,0.21797
3100.97760,0.21616
3102.90607,0.20515
3104.83454,0.20174
3106.76301,0.21254
3108.69148,0.22102
3110.61995,0.21474
3112.54842,0.20269
3114.47688,0.20635
3116.40535,0.22330
3118.33382,0.23015
3120.26229,0.22046
3122.19076,0.20792
3124.11923,0.20783
3126.04770,0.21793
3127.97617,0.22431
3129.90463,0.22121
3131.83310,0.21800
3133.76157,0.22136
3135.69004,0.22604
3137.61851,0.22679
3139.54698,0.22379
3141.47545,0.22372
3143.40391,0.22783
3145.33238,0.23048
3147.26085,0.22825
3149.18932,0.22475
3151.11779,0.22640
3153.04626,0.22770
3154.97473,0.22431
3156.90320,0.22627
3158.83166,0.23558
3160.76013,0.23869
3162.68860,0.23304
3164.61707,0.22840
3166.54554,0.22729
3168.47401,0.22812
3170.40248,0.23028
3172.33094,0.23074
3174.25941,0.22566
3176.18788,0.21916
3178.11635,0.21967
3180.04482,0.22628
3181.97329,0.23129
3183.90176,0.23232
3185.83022,0.23286
3187.75869,0.23323
3189.68716,0.23211
3191.61563,0.23178
3193.54410,0.23215
3195.47257,0.23164
3197.40104,0.23184
3199.32951,0.23278
3201.25797,0.23319
3203.18644,0.23243
3205.11491,0.22952
3207.04338,0.22517
3208.97185,0.22349
3210.90032,0.22706
3212.82879,0.23258
3214.75725,0.23645
3216.68572,0.23652
3218.61419,0.23457
3220.54266,0.23462
3222.47113,0.23358
3224.39960,0.22843
3226.32807,0.22359
3228.25654,0.22213
3230.18500,0.22084
3232.11347,0.21873
3234.04194,0.21923
3235.97041,0.22360
3237.89888,0.22798
3239.82735,0.22845
3241.75582,0.22782
3243.68428,0.22750
3245.61275,0.22411
3247.54122,0.22056
3249.46969,0.22149
3251.39816,0.22317
3253.32663,0.22459
3255.25510,0.22946
3257.18357,0.23411
3259.11203,0.23432
3261.04050,0.23204
3262.96897,0.22971
3264.89744,0.22748
3266.82591,0.22614
3268.75438,0.22627
3270.68285,0.22623
3272.61131,0.22561
3274.53978,0.22527
3276.46825,0.22675
3278.39672,0.22962
3280.32519,0.23055
3282.25366,0.22856
3284.18213,0.22676
3286.11060,0.22821
3288.03906,0.22940
3289.96753,0.22564
3291.89600,0.22038
3293.82447,0.21883
3295.75294,0.22120
3297.68141,0.22523
3299.60988,0.22699
3301.53834,0.22348
3303.46681,0.21771
3305.39528,0.21561
3307.32375,0.21973
3309.25222,0.22670
3311.18069,0.22981
3313.10916,0.22843
3315.03763,0.22848
3316.96609,0.22985
3318.89456,0.22859
3320.82303,0.22519
3322.75150,0.22314
3324.67997,0.22699
3326.60844,0.23376
3328.53691,0.23507
3330.46537,0.23147
3332.39384,0.22713
3334.32231,0.22374
3336.25078,0.22507
3338.17925,0.23030
3340.10772,0.23315
3342.03619,0.23239
3343.96466,0.23177
3345.89312,0.23405
3347.82159,0.23716
3349.75006,0.23743
3351.67853,0.23558
3353.60700,0.23338
3355.53547,0.23259
3357.46394,0.23594
3359.39240,0.24045
3361.32087,0.24042
3363.24934,0.23786
3365.17781,0.23531
3367.10628,0.23024
3369.03475,0.22454
3370.96322,0.22364
3372.89168,0.22877
3374.82015,0.23296
3376.74862,0.22989
3378.67709,0.22474
3380.60556,0.22411
3382.53403,0.22741
3384.46250,0.22974
3386.39097,0.22787
3388.31943,0.22582
3390.24790,0.22844
3392.17637,0.23437
3394.10484,0.23767
3396.03331,0.23515
3397.96178,0.22950
3399.89025,0.22398
3401.81871,0.22043
3403.74718,0.21985
3405.67565,0.22025
3407.60412,0.21987
3409.53259,0.21881
3411.46106,0.21705
3413.38953,0.21711
3415.31800,0.21903
3417.24646,0.22001
3419.17493,0.22148
3421.10340,0.22547
3423.03187,0.22822
3424.96034,0.22604
3426.88881,0.22359
3428.81728,0.22428
3430.74574,0.22620
3432.67421,0.22831
3434.60268,0.22827
3436.53115,0.22353
3438.45962,0.21582
3440.38809,0.21243
3442.31656,0.21518
3444.24503,0.21793
3446.17349,0.22000
3448.10196,0.22182
3450.03043,0.21946
3451.95890,0.21315
3453.88737,0.20923
3455.81584,0.21184
3457.74431,0.21749
3459.67277,0.22110
3461.60124,0.22178
3463.52971,0.22101
3465.45818,0.21854
3467.38665,0.21472
3469.31512,0.21132
3471.24359,0.20830
3473.17206,0.20617
3475.10052,0.20564
3477.02899,0.20468
3478.95746,0.20293
3480.88593,0.20199
3482.81440,0.20267
3484.74287,0.20463
3486.67134,0.20370
3488.59980,0.20099
3490.52827,0.20335
3492.45674,0.20654
3494.38521,0.20466
3496.31368,0.20109
3498.24215,0.19929
3500.17062,0.20104
3502.09909,0.20472
3504.02755,0.20411
3505.95602,0.20130
3507.88449,0.20157
3509.81296,0.20068
3511.74143,0.19714
3513.66990,0.19595
3515.59837,0.19536
3517.52683,0.19189
3519.45530,0.18928
3521.38377,0.19022
3523.31224,0.19055
3525.24071,0.18960
3527.16918,0.19095
3529.09765,0.19382
3531.02611,0.19610
3532.95458,0.19571
3534.88305,0.19239
3536.81152,0.18924
3538.73999,0.18717
3540.66846,0.18538
3542.59693,0.18440
3544.52540,0.18465
3546.45386,0.18394
3548.38233,0.18052
3550.31080,0.17831
3552.23927,0.17818
3554.16774,0.17773
3556.09621,0.17765
3558.02468,0.17803
3559.95314,0.17928
3561.88161,0.18107
3563.81008,0.18194
3565.73855,0.18220
3567.66702,0.18130
3569.59549,0.17935
3571.52396,0.17612
3573.45243,0.17280
3575.38089,0.17277
3577.30936,0.17413
3579.23783,0.17176
3581.16630,0.16677
3583.09477,0.16690
3585.02324,0.17392
3586.95171,0.17666
3588.88017,0.16721
3590.80864,0.15972
3592.73711,0.16129
3594.66558,0.16575
3596.59405,0.16681
3598.52252,0.16544
3600.45099,0.16198
3602.37946,0.15944
3604.30792,0.16150
3606.23639,0.16427
3608.16486,0.16156
3610.09333,0.15436
3612.02180,0.15254
3613.95027,0.15696
3615.87874,0.15938
3617.80720,0.15981
3619.73567,0.15891
3621.66414,0.15466
3623.59261,0.15152
3625.52108,0.15257
3627.44955,0.15745
3629.37802,0.16154
3631.30649,0.15949
3633.23495,0.15525
3635.16342,0.15170
3637.09189,0.14923
3639.02036,0.14808
3640.94883,0.14917
3642.87730,0.15124
3644.80577,0.15454
3646.73423,0.16397
3648.66270,0.17776
3650.59117,0.17325
3652.51964,0.15898
3654.44811,0.15185
3656.37658,0.14800
3658.30505,0.14370
3660.23352,0.14105
3662.16198,0.14016
3664.09045,0.14211
3666.01892,0.14755
3667.94739,0.15363
3669.87586,0.15776
3671.80433,0.15995
3673.73280,0.16209
3675.66126,0.16103
3677.58973,0.15584
3679.51820,0.15049
3681.44667,0.14631
3683.37514,0.14601
3685.30361,0.14921
3687.23208,0.15565
3689.16055,0.15944
3691.08901,0.14927
3693.01748,0.14000
3694.94595,0.14173
3696.87442,0.14732
3698.80289,0.15001
3700.73136,0.14992
3702.65983,0.14685
3704.58829,0.14437
3706.51676,0.14665
3708.44523,0.15143
3710.37370,0.15421
3712.30217,0.14942
3714.23064,0.14197
3716.15911,0.13914
3718.08757,0.14053
3720.01604,0.14243
3721.94451,0.14010
3723.87298,0.13548
3725.80145,0.13163
3727.72992,0.12786
3729.65839,0.13104
3731.58686,0.14554
3733.51532,0.16252
3735.44379,0.16716
3737.37226,0.15875
3739.30073,0.15082
3741.22920,0.14729
3743.15767,0.14542
3745.08614,0.14525
3747.01460,0.14504
3748.94307,0.14254
3750.87154,0.14063
3752.80001,0.14313
3754.72848,0.14597
3756.65695,0.14822
3758.58542,0.14979
3760.51389,0.14687
3762.44235,0.14285
3764.37082,0.14297
3766.29929,0.14545
3768.22776,0.14492
3770.15623,0.14126
3772.08470,0.13949
3774.01317,0.13884
3775.94163,0.13756
3777.87010,0.13643
3779.79857,0.13533
3781.72704,0.13779
3783.65551,0.14177
3785.58398,0.13863
3787.51245,0.13189
3789.44092,0.12993
3791.36938,0.13189
3793.29785,0.13499
3795.22632,0.13606
3797.15479,0.13471
3799.08326,0.13606
3801.01173,0.14140
3802.94020,0.14401
3804.86866,0.14231
3806.79713,0.13954
3808.72560,0.13439
3810.65407,0.12947
3812.58254,0.12843
3814.51101,0.13119
3816.43948,0.13442
3818.36795,0.13703
3820.29641,0.14139
3822.22488,0.14444
3824.15335,0.14319
3826.08182,0.13818
3828.01029,0.13149
3829.93876,0.12854
3831.86723,0.12915
3833.79569,0.13061
3835.72416,0.13374
3837.65263,0.13840
3839.58110,0.14038
3841.50957,0.13915
3843.43804,0.13598
3845.36651,0.13383
3847.29498,0.13615
3849.22344,0.14063
3851.15191,0.14098
3853.08038,0.13029
3855.00885,0.11964
3856.93732,0.11982
3858.86579,0.12380
3860.79426,0.13059
3862.72272,0.14014
3864.65119,0.14478
3866.57966,0.14013
3868.50813,0.13491
3870.43660,0.13271
3872.36507,0.13494
3874.29354,0.13663
3876.22200,0.13244
3878.15047,0.13001
3880.07894,0.13266
3882.00741,0.13447
3883.93588,0.13459
3885.86435,0.12922
3887.79282,0.11841
3889.72129,0.11393
3891.64975,0.11686
3893.57822,0.12022
3895.50669,0.12271
3897.43516,0.12741
3899.36363,0.13635
3901.29210,0.14270
3903.22057,0.13859
3905.14903,0.12916
3907.07750,0.12139
3909.00597,0.11891
3910.93444,0.12142
3912.86291,0.12466
3914.79138,0.12666
3916.71985,0.12623
3918.64832,0.12202
3920.57678,0.11946
3922.50525,0.12306
3924.43372,0.12629
3926.36219,0.12347
3928.29066,0.12231
3930.21913,0.12345
3932.14760,0.11879
3934.07606,0.11449
3936.00453,0.11785
3937.93300,0.12079
3939.86147,0.11792
3941.78994,0.11510
3943.71841,0.11748
3945.64688,0.12238
3947.57535,0.12544
3949.50381,0.12435
3951.43228,0.11979
3953.36075,0.11380
3955.28922,0.10930
3957.21769,0.10989
3959.14616,0.11528
3961.07463,0.12078
3963.00309,0.12281
3964.93156,0.12230
3966.86003,0.12212
3968.78850,0.12218
3970.71697,0.12139
3972.64544,0.12026
3974.57391,0.11732
3976.50238,0.11127
3978.43084,0.10723
3980.35931,0.10896
3982.28778,0.11268
3984.21625,0.11649
3986.14472,0.11763
3988.07319,0.11033
3990.00166,0.10124
3991.93012,0.10029
3993.85859,0.10433
3995.78706,0.10805
3997.71553,0.10984
3999.64400,0.10938
4001.57247,0.11038
4003.50094,0.11305
4005.42941,0.11269
4007.35787,0.11159
4009.28634,0.11230
4011.21481,0.11126
4013.14328,0.10990
4015.07175,0.11096
4017.00022,0.11262
4018.92869,0.11439
4020.85715,0.11365
4022.78562,0.10950
4024.71409,0.10744
4026.64256,0.10982
4028.57103,0.11414
4030.49950,0.11551
4032.42797,0.11203
4034.35644,0.10753
4036.28490,0.10469
4038.21337,0.10200
4040.14184,0.09724
4042.07031,0.09411
4043.99878,0.09660
4045.92725,0.10089
4047.85572,0.10298
4049.78418,0.10500
4051.71265,0.10743
4053.64112,0.10607
4055.56959,0.10255
4057.49806,0.10113
4059.42653,0.09843
4061.35500,0.09464
4063.28346,0.09814
4065.21193,0.10500
4067.14040,0.10497
4069.06887,0.10184
4070.99734,0.10045
4072.92581,0.09890
4074.85428,0.09877
4076.78275,0.10309
4078.71121,0.10851
4080.63968,0.10997
4082.56815,0.10810
4084.49662,0.10516
4086.42509,0.10263
4088.35356,0.10045
4090.28203,0.09696
4092.21049,0.09287
4094.13896,0.09046
4096.06743,0.09086
4097.99590,0.09352
4099.92437,0.09603
4101.85284,0.09603
4103.78131,0.09450
4105.70978,0.09408
4107.63824,0.09383
4109.56671,0.09346
4111.49518,0.09783
4113.42365,0.10436
4115.35212,0.10501
4117.28059,0.10040
4119.20906,0.09375
4121.13752,0.08862
4123.06599,0.09047
4124.99446,0.09653
4126.92293,0.09548
4128.85140,0.08577
4130.77987,0.08040
4132.70834,0.08421
4134.63681,0.08892
4136.56527,0.08954
4138.49374,0.08930
4140.42221,0.09172
4142.35068,0.09524
4144.27915,0.09519
4146.20762,0.09111
4148.13609,0.08881
4150.06455,0.09111
4151.99302,0.09519
4153.92149,0.09616
4155.84996,0.09132
4157.77843,0.08514
4159.70690,0.08254
4161.63537,0.08154
4163.56384,0.07896
4165.49230,0.07658
4167.42077,0.07797
4169.34924,0.08189
4171.27771,0.08387
4173.20618,0.08404
4175.13465,0.08242
4177.06312,0.07697
4178.99158,0.07272
4180.92005,0.07372
4182.84852,0.07635
4184.77699,0.07760
4186.70546,0.07590
4188.63393,0.07338
4190.56240,0.07477
4192.49087,0.07782
4194.41933,0.07971
4196.34780,0.08134
4198.27627,0.08180
4200.20474,0.08187
4202.13321,0.08158
4204.06168,0.08027
4205.99015,0.08059
4207.91861,0.08179
4209.84708,0.08065
4211.77555,0.07786
4213.70402,0.07760
4215.63249,0.07952
4217.56096,0.07789
4219.48943,0.07521
4221.41789,0.07815
4223.34636,0.08334
4225.27483,0.08401
4227.20330,0.08193
4229.13177,0.08228
4231.06024,0.08163
4232.98871,0.07484
4234.91718,0.06792
4236.84564,0.06684
4238.77411,0.06844
4240.70258,0.06954
4242.63105,0.07142
4244.55952,0.07531
4246.48799,0.07737
4248.41646,0.07662
4250.34492,0.07807
4252.27339,0.07906
4254.20186,0.07515
4256.13033,0.07112
4258.05880,0.07079
4259.98727,0.07039
4261.91574,0.06552
4263.84421,0.06019
4265.77267,0.06084
4267.70114,0.06354
4269.62961,0.06057
4271.55808,0.05481
4273.48655,0.05663
4275.41502,0.06669
4277.34349,0.07287
4279.27195,0.07008
4281.20042,0.06477
4283.12889,0.05937
4285.05736,0.05247
4286.98583,0.05048
4288.91430,0.06127
4290.84277,0.07479
4292.77124,0.07574
4294.69970,0.06811
4296.62817,0.05907
4298.55664,0.05145
4300.48511,0.04942
4302.41358,0.04989
4304.34205,0.04982
4306.27052,0.05055
4308.19898,0.05233
4310.12745,0.05381
4312.05592,0.05085
4313.98439,0.04304
4315.91286,0.03941
4317.84133,0.04618
4319.76980,0.05603
4321.69827,0.05890
4323.62673,0.05574
4325.55520,0.05342
4327.48367,0.05274
4329.41214,0.05020
4331.34061,0.04483
4333.26908,0.04117
4335.19755,0.04166
4337.12601,0.04122
4339.05448,0.03943
4340.98295,0.03959
4342.91142,0.04345
4344.83989,0.04911
4346.76836,0.05004
4348.69683,0.04615
4350.62530,0.04303
4352.55376,0.04295
4354.48223,0.04442
4356.41070,0.04703
4358.33917,0.04779
4360.26764,0.04488
4362.19611,0.04398
4364.12458,0.04425
4366.05304,0.03923
4367.98151,0.03225
4369.90998,0.03015
4371.83845,0.03165
4373.76692,0.03259
4375.69539,0.03153
4377.62386,0.03111
4379.55232,0.03173
4381.48079,0.03008
4383.40926,0.02952
4385.33773,0.03065
4387.26620,0.02892
4389.19467,0.02628
4391.12314,0.02836
4393.05161,0.03411
4394.98007,0.03679
4396.90854,0.03506
4398.83701,0.03227
4400.76548,0.02990
4402.69395,0.02780
4404.62242,0.02853
4406.55089,0.02981
4408.47935,0.02690
4410.40782,0.02654
4412.33629,0.02976
4414.26476,0.02994
4416.19323,0.02894
4418.12170,0.02726
4420.05017,0.02324
4421.97864,0.01959
4423.90710,0.01821
4425.83557,0.02190
4427.76404,0.03204
4429.69251,0.03813
4431.62098,0.03308
4433.54945,0.02780
4435.47792,0.02936
4437.40638,0.03330
4439.33485,0.03419
4441.26332,0.02786
4443.19179,0.02165
4445.12026,0.02314
4447.04873,0.02338
4448.97720,0.01882
4450.90567,0.01736
4452.83413,0.01675
4454.76260,0.01290
4456.69107,0.01372
4458.61954,0.02097
4460.54801,0.02746
4462.47648,0.02978
4464.40495,0.02617
4466.33341,0.01950
4468.26188,0.01761
4470.19035,0.02078
4472.11882,0.02227
4474.04729,0.01890
4475.97576,0.01364
4477.90423,0.01450
4479.83270,0.02155
4481.76116,0.02378
4483.68963,0.01917
4485.61810,0.01424
4487.54657,0.00917
4489.47504,0.00360
4491.40351,0.00388
4493.33198,0.01125
4495.26044,0.01950
4497.18891,0.02509
4499.11738,0.02515
4501.04585,0.02216
4502.97432,0.02135
4504.90279,0.01930
4506.83126,0.01834
4508.75973,0.02498
4510.68819,0.03134
4512.61666,0.03048
4514.54513,0.02346
4516.47360,0.01481
4518.40207,0.01281
4520.33054,0.01412
4522.25901,0.01167
4524.18747,0.00827
4526.11594,0.00499
4528.04441,0.00334
4529.97288,0.00761
4531.90135,0.01451
4533.82982,0.01843
4535.75829,0.01953
4537.68676,0.01922
4539.61522,0.01813
4541.54369,0.01520
4543.47216,0.01117
4545.40063,0.00777
4547.32910,0.00258
4549.25757,-0.00126
4551.18604,-0.00052
4553.11450,0.00240
4555.04297,0.00759
4556.97144,0.00827
4558.89991,0.00057
4560.82838,-0.00251
4562.75685,0.00448
4564.68532,0.01362
4566.61378,0.01793
4568.54225,0.01451
4570.47072,0.00953
4572.39919,0.00672
4574.32766,0.00273
4576.25613,0.00372
4578.18460,0.01064
4580.11307,0.01162
4582.04153,0.00529
4583.97000,0.00104
4585.89847,0.00035
4587.82694,-0.00168
4589.75541,-0.00437
4591.68388,-0.00369
4593.61235,0.00260
4595.54081,0.01286
4597.46928,0.02033
4599.39775,0.02035
4601.32622,0.01525
4603.25469,0.00904
4605.18316,0.00499
4607.11163,0.00177
4609.04010,-0.00183
4610.96856,-0.00260
4612.89703,-0.00214
4614.82550,0.00020
4616.75397,0.00598
4618.68244,0.00887
4620.61091,0.00990
4622.53938,0.01298
4624.46784,0.01193
4626.39631,0.00495
4628.32478,0.00314
4630.25325,0.00777
4632.18172,0.00833
4634.11019,0.00565
4636.03866,0.00485
4637.96713,0.00423
4639.89559,0.00332
4641.82406,0.00552
4643.75253,0.01056
4645.68100,0.00953
4647.60947,0.00234
4649.53794,0.00097
4651.46641,0.00570
4653.39487,0.00977
4655.32334,0.01359
4657.25181,0.01447
4659.18028,0.00678
4661.10875,-0.00251
4663.03722,-0.00212
4664.96569,0.00452
4666.89416,0.00986
4668.82262,0.01535
4670.75109,0.02127
4672.67956,0.01983
4674.60803,0.00718
4676.53650,-0.00384
4678.46497,-0.00004
4680.39344,0.01001
4682.32190,0.01142
4684.25037,0.00376
4686.17884,-0.00194
4688.10731,0.00160
4690.03578,0.00987
4691.96425,0.01716
4693.89272,0.02179
4695.82119,0.01991
4697.74965,0.01009
4699.67812,0.00164
4701.60659,0.00189
4703.53506,0.00231
4705.46353,-0.00449
4707.39200,-0.01090
4709.32047,-0.00712
4711.24893,0.00367
4713.17740,0.01238
4715.10587,0.01708
4717.03434,0.01646
4718.96281,0.01145
4720.89128,0.00922
4722.81975,0.01095
4724.74821,0.01154
4726.67668,0.01012
4728.60515,0.00769
4730.53362,0.00621
4732.46209,0.00701
4734.39056,0.00829
4736.31903,0.01055
4738.24750,0.00904
4740.17596,-0.00273
4742.10443,-0.01179
4744.03290,-0.00880
4745.96137,-0.00391
4747.88984,-0.00021
4749.81831,0.00467
4751.74678,0.00386
4753.67524,-0.00513
4755.60371,-0.00886
4757.53218,-0.00710
4759.46065,-0.01202
4761.38912,-0.01408
4763.31759,-0.00516
4765.24606,0.00440
4767.17453,0.01290
4769.10299,0.02142
4771.03146,0.02392
4772.95993,0.01851
4774.88840,0.01016
4776.81687,0.00422
4778.74534,-0.00074
4780.67381,-0.00611
4782.60227,-0.00812
4784.53074,-0.00721
4786.45921,-0.00413
4788.38768,0.00162
4790.31615,0.01083
4792.24462,0.01884
4794.17309,0.01511
4796.10156,0.00805
4798.03002,0.00788
4799.95849,0.00927
4801.88696,0.01264
4803.81543,0.01558
4805.74390,0.01242
4807.67237,0.00694
4809.60084,0.00385
4811.52930,0.00159
4813.45777,-0.00192
4815.38624,-0.00082
4817.31471,0.00797
4819.24318,0.01469
4821.17165,0.01155
4823.10012,0.00439
4825.02859,0.00071
4826.95705,-0.00085
4828.88552,-0.00340
4830.81399,-0.00358
4832.74246,0.00445
4834.67093,0.01347
4836.59940,0.01309
4838.52787,0.01064
4840.45633,0.01127
4842.38480,0.00930
4844.31327,0.00644
4846.24174,0.00407
4848.17021,0.00079
4850.09868,0.00217
4852.02715,0.00567
4853.95562,0.00585
4855.88408,0.00382
4857.81255,-0.00182
4859.74102,-0.00464
4861.66949,0.00217
4863.59796,0.00824
4865.52643,0.00503
4867.45490,-0.00337
4869.38336,-0.01044
4871.31183,-0.01346
4873.24030,-0.01056
4875.16877,-0.00283
4877.09724,-0.00197
4879.02571,-0.00686
4880.95418,-0.00287
4882.88265,0.00859
4884.81111,0.02020
4886.73958,0.02707
4888.66805,0.02281
4890.59652,0.01589
4892.52499,0.01570
4894.45346,0.01638
4896.38193,0.01613
4898.31039,0.01826
4900.23886,0.02202
4902.16733,0.02531
4904.09580,0.02448
4906.02427,0.02328
4907.95274,0.02468
4909.88121,0.01964
4911.80967,0.00929
4913.73814,0.00686
4915.66661,0.01139
4917.59508,0.01177
4919.52355,0.00852
4921.45202,0.00765
4923.38049,0.01160
4925.30896,0.01559
4927.23742,0.01277
4929.16589,0.00618
4931.09436,-0.00172
4933.02283,-0.00818
4934.95130,-0.01413
4936.87977,-0.01954
4938.80824,-0.01462
4940.73670,-0.00110
4942.66517,0.01110
4944.59364,0.01431
4946.52211,0.01079
4948.45058,0.01130
4950.37905,0.01817
4952.30752,0.02495
4954.23599,0.01710
4956.16445,-0.00554
4958.09292,-0.01720
4960.02139,-0.01011
4961.94986,-0.00483
4963.87833,-0.01145
4965.80680,-0.01916
4967.73527,-0.01203
4969.66373,0.00589
4971.59220,0.01074
4973.52067,0.00037
4975.44914,-0.00566
4977.37761,-0.00258
4979.30608,0.00354
4981.23455,0.00549
4983.16302,0.00747
4985.09148,0.01748
4987.01995,0.02149
4988.94842,0.01122
4990.87689,0.00163
4992.80536,0.00187
4994.73383,0.00681
4996.66230,0.00842
4998.59076,0.00216
5000.51923,-0.00616
5002.44770,-0.00940
5004.37617,-0.01214
5006.30464,-0.01404
5008.23311,-0.00912
5010.16158,-0.00290
5012.09005,0.00163
5014.01851,0.00519
5015.94698,0.00142
5017.87545,-0.00313
5019.80392,0.00075
5021.73239,0.00197
5023.66086,-0.00312
5025.58933,-0.00352
5027.51779,0.00197
5029.44626,0.00915
5031.37473,0.01474
5033.30320,0.01316
5035.23167,0.00706
5037.16014,0.01059
5039.08861,0.02416
5041.01708,0.03128
5042.94554,0.03188
5044.87401,0.02806
5046.80248,0.01293
5048.73095,-0.00501
5050.65942,-0.01163
5052.58789,-0.00150
5054.51636,0.01669
5056.44482,0.02863
5058.37329,0.03268
5060.30176,0.03026
5062.23023,0.01549
5064.15870,-0.00120
5066.08717,0.00025
5068.01564,0.01038
5069.94410,0.01229
5071.87257,0.00453
5073.80104,-0.00672
5075.72951,-0.00768
5077.65798,0.00405
5079.58645,0.01614
5081.51492,0.01969
5083.44339,0.01892
5085.37185,0.01722
5087.30032,0.01133
5089.22879,0.00383
5091.15726,0.00005
5093.08573,0.00336
5095.01420,0.00812
5096.94267,0.01074
5098.87113,0.01985
5100.79960,0.03123
5102.72807,0.03044
5104.65654,0.02269
5106.58501,0.02639
5108.51348,0.03646
5110.44195,0.03389
5112.37042,0.02719
5114.29888,0.02681
5116.22735,0.02480
5118.15582,0.02440
5120.08429,0.02598
5122.01276,0.02387
5123.94123,0.02271
5125.86970,0.02584
5127.79816,0.03485
5129.72663,0.03795
5131.65510,0.02480
5133.58357,0.01634
5135.51204,0.02198
5137.44051,0.03113
5139.36898,0.04451
5141.29745,0.04869
5143.22591,0.03257
5145.15438,0.01835
5147.08285,0.01998
5149.01132,0.02381
5150.93979,0.01700
5152.86826,0.00971
5154.79673,0.01623
5156.72519,0.02659
5158.65366,0.02646
5160.58213,0.01842
5162.51060,0.01496
5164.43907,0.02917
5166.36754,0.04640
5168.29601,0.04101
5170.22448,0.02615
5172.15294,0.02395
5174.08141,0.02219
5176.00988,0.01261
5177.93835,0.00999
5179.86682,0.01695
5181.79529,0.02091
5183.72376,0.02334
5185.65222,0.02840
5187.58069,0.03114
5189.50916,0.03682
5191.43763,0.04757
5193.36610,0.04998
5195.29457,0.03784
5197.22304,0.02080
5199.15151,0.01135
5201.07997,0.01098
5203.00844,0.01820
5204.93691,0.03764
5206.86538,0.05719
5208.79385,0.06007
5210.72232,0.06000
5212.65079,0.06855
5214.57925,0.07501
5216.50772,0.06376
5218.43619,0.04267
5220.36466,0.02932
5222.29313,0.02296
5224.22160,0.01822
5226.15007,0.01611
5228.07854,0.02016
5230.00700,0.02488
5231.93547,0.01726
5233.86394,-0.00101
5235.79241,-0.00263
5237.72088,0.01865
5239.64935,0.04071
5241.57782,0.05691
5243.50628,0.06485
5245.43475,0.06135
5247.36322,0.05025
5249.29169,0.03462
5251.22016,0.02252
5253.14863,0.02180
5255.07710,0.03208
5257.00556,0.04081
5258.93403,0.04496
5260.86250,0.04852
5262.79097,0.05018
5264.71944,0.05227
5266.64791,0.05650
5268.57638,0.05913
5270.50485,0.05070
5272.43331,0.03833
5274.36178,0.03362
5276.29025,0.01729
5278.21872,-0.00901
5280.14719,-0.00529
5282.07566,0.02156
5284.00413,0.03779
5285.93259,0.05176
5287.86106,0.06831
5289.78953,0.07357
5291.71800,0.07124
5293.64647,0.06478
5295.57494,0.04878
5297.50341,0.03716
5299.43188,0.04493
5301.36034,0.06115
5303.28881,0.07236
5305.21728,0.07693
5307.14575,0.07246
5309.07422,0.05668
5311.00269,0.04408
5312.93116,0.04618
5314.85962,0.05031
5316.78809,0.05040
5318.71656,0.05415
5320.64503,0.05511
5322.57350,0.05049
5324.50197,0.05273
5326.43044,0.05834
5328.35891,0.05236
5330.28737,0.04350
5332.21584,0.04579
5334.14431,0.05472
5336.07278,0.05937
5338.00125,0.06423
5339.92972,0.07364
5341.85819,0.07270
5343.78665,0.05873
5345.71512,0.04700
5347.64359,0.04367
5349.57206,0.04380
5351.50053,0.05369
5353.42900,0.07651
5355.35747,0.08061
5357.28594,0.05925
5359.21440,0.04959
5361.14287,0.05469
5363.07134,0.04847
5364.99981,0.03329
5366.92828,0.03162
5368.85675,0.04750
5370.78522,0.06096
5372.71368,0.06334
5374.64215,0.07114
5376.57062,0.08308
5378.49909,0.07983
5380.42756,0.06252
5382.35603,0.04459
5384.28450,0.03737
5386.21297,0.04279
5388.14143,0.05556
5390.06990,0.07172
5391.99837,0.08791
5393.92684,0.08695
5395.85531,0.06522
5397.78378,0.05304
5399.71225,0.06344
5401.64071,0.07971
5403.56918,0.07920
5405.49765,0.06652
5407.42612,0.05703
5409.35459,0.05020
5411.28306,0.05429
5413.21153,0.06260
5415.13999,0.04810
5417.06846,0.02553
5418.99693,0.01773
5420.92540,0.02580
5422.85387,0.03958
5424.78234,0.04502
5426.71081,0.04685
5428.63928,0.05958
5430.56774,0.06508
5432.49621,0.04927
5434.42468,0.04336
5436.35315,0.06674
5438.28162,0.09077
5440.21009,0.09299
5442.13856,0.06935
5444.06702,0.04047
5445.99549,0.02881
5447.92396,0.02915
5449.85243,0.04209
5451.78090,0.05940
5453.70937,0.06237
5455.63784,0.06884
5457.56631,0.08824
5459.49477,0.09685
5461.42324,0.09782
5463.35171,0.10150
5465.28018,0.09519
5467.20865,0.07675
5469.13712,0.06186
5471.06559,0.06045
5472.99405,0.06958
5474.92252,0.08575
5476.85099,0.10173
5478.77946,0.09997
5480.70793,0.07615
5482.63640,0.05198
5484.56487,0.04443
5486.49334,0.04688
5488.42180,0.06154
5490.35027,0.09543
5492.27874,0.11619
5494.20721,0.09597
5496.13568,0.07044
5498.06415,0.06549
5499.99262,0.06878
5501.92108,0.06666
5503.84955,0.06727
5505.77802,0.07249
5507.70649,0.06305
5509.63496,0.04882
5511.56343,0.05233
5513.49190,0.06413
5515.42037,0.07523
5517.34883,0.08515
5519.27730,0.08473
5521.20577,0.07086
5523.13424,0.05815
5525.06271,0.06593
5526.99118,0.08251
5528.91965,0.08259
5530.84811,0.07255
5532.77658,0.06952
5534.70505,0.07457
5536.63352,0.08560
5538.56199,0.09296
5540.49046,0.08112
5542.41893,0.05666
5544.34740,0.04083
5546.27586,0.03375
5548.20433,0.02906
5550.13280,0.03080
5552.06127,0.04376
5553.98974,0.06432
5555.91821,0.07972
5557.84668,0.09182
5559.77514,0.10517
5561.70361,0.10563
5563.63208,0.09542
5565.56055,0.08732
5567.48902,0.08287
5569.41749,0.08670
5571.34596,0.09363
5573.27443,0.09467
5575.20289,0.08954
5577.13136,0.08115
5579.05983,0.07895
5580.98830,0.08373
5582.91677,0.07672
5584.84524,0.05824
5586.77371,0.05957
5588.70217,0.08588
5590.63064,0.10705
5592.55911,0.11177
5594.48758,0.10746
5596.41605,0.09695
5598.34452,0.07953
5600.27299,0.06677
5602.20145,0.07224
5604.12992,0.08502
5606.05839,0.09746
5607.98686,0.10942
5609.91533,0.11092
5611.84380,0.10912
5613.77227,0.11418
5615.70074,0.10836
5617.62920,0.07973
5619.55767,0.05149
5621.48614,0.05487
5623.41461,0.06998
5625.34308,0.06190
5627.27155,0.05487
5629.20002,0.07195
5631.12848,0.08778
5633.05695,0.08272
5634.98542,0.06630
5636.91389,0.06306
5638.84236,0.07461
5640.77083,0.08467
5642.69930,0.09292
5644.62777,0.11015
5646.55623,0.13218
5648.48470,0.12533
5650.41317,0.08041
5652.34164,0.05511
5654.27011,0.07853
5656.19858,0.09644
5658.12705,0.08886
5660.05551,0.09451
5661.98398,0.10547
5663.91245,0.08670
5665.84092,0.06090
5667.76939,0.06528
5669.69786,0.08101
5671.62633,0.07232
5673.55480,0.05021
5675.48326,0.04326
5677.41173,0.06067
5679.34020,0.09326
5681.26867,0.12227
5683.19714,0.13319
5685.12561,0.12987
5687.05408,0.12247
5688.98254,0.10802
5690.91101,0.09590
5692.83948,0.09260
5694.76795,0.08101
5696.69642,0.07807
5698.62489,0.09612
5700.55336,0.08858
5702.48183,0.06016
5704.41029,0.06459
5706.33876,0.08456
5708.26723,0.07125
5710.19570,0.04261
5712.12417,0.04787
5714.05264,0.07486
5715.98111,0.08835
5717.90957,0.09696
5719.83804,0.10294
5721.76651,0.08756
5723.69498,0.05352
5725.62345,0.02738
5727.55192,0.01938
5729.48039,0.02021
5731.40886,0.03071
5733.33732,0.05888
5735.26579,0.09880
5737.19426,0.12216
5739.12273,0.11365
5741.05120,0.09348
5742.97967,0.08958
5744.90814,0.09476
5746.83660,0.09253
5748.76507,0.10512
5750.69354,0.13496
5752.62201,0.13847
5754.55048,0.11034
5756.47895,0.08171
5758.40742,0.07023
5760.33588,0.08155
5762.26435,0.10004
5764.19282,0.09799
5766.12129,0.07274
5768.04976,0.04407
5769.97823,0.03502
5771.90670,0.04595
5773.83517,0.05912
5775.76363,0.05976
5777.69210,0.04626
5779.62057,0.05250
5781.54904,0.08975
5783.47751,0.11883
5785.40598,0.12069
5787.33445,0.10114
5789.26291,0.08560
5791.19138,0.10040
5793.11985,0.11673
5795.04832,0.11054
5796.97679,0.09362
5798.90526,0.07360
5800.83373,0.06546
5802.76220,0.07405
5804.69066,0.09050
5806.61913,0.10800
5808.54760,0.11733
5810.47607,0.10647
5812.40454,0.07865
5814.33301,0.07237
5816.26148,0.09535
5818.18994,0.11532
5820.11841,0.12044
5822.04688,0.10062
5823.97535,0.06528
5825.90382,0.05447
5827.83229,0.06745
5829.76076,0.08634
5831.68923,0.10635
5833.61769,0.11022
5835.54616,0.09423
5837.47463,0.07228
5839.40310,0.06280
5841.33157,0.07617
5843.26004,0.08377
5845.18851,0.06466
5847.11697,0.05443
5849.04544,0.07899
5850.97391,0.09892
5852.90238,0.09602
5854.83085,0.08042
5856.75932,0.07279
5858.68779,0.10686
5860.61626,0.13875
5862.54472,0.11981
5864.47319,0.09469
5866.40166,0.10464
5868.33013,0.11433
5870.25860,0.09677
5872.18707,0.08918
5874.11554,0.11154
5876.04400,0.13012
5877.97247,0.11091
5879.90094,0.07096
5881.82941,0.04301
5883.75788,0.04540
5885.68635,0.07863
5887.61482,0.09971
5889.54329,0.08276
5891.47175,0.07682
5893.40022,0.11026
5895.32869,0.11971
5897.25716,0.07178
5899.18563,0.03477
5901.11410,0.03516
5903.04257,0.02672
5904.97103,0.00789
5906.89950,0.00547
5908.82797,0.02395
5910.75644,0.05640
5912.68491,0.08608
5914.61338,0.11646
5916.54185,0.13574
5918.47032,0.10816
5920.39878,0.07481
5922.32725,0.09523
5924.25572,0.13436
5926.18419,0.13100
5928.11266,0.10569
5930.04113,0.10325
5931.96960,0.10346
5933.89806,0.08173
5935.82653,0.06109
5937.75500,0.05252
5939.68347,0.02676
5941.61194,-0.00251
5943.54041,0.01235
5945.46888,0.05959
5947.39734,0.09382
5949.32581,0.10422
5951.25428,0.09718
5953.18275,0.06747
5955.11122,0.05091
5957.03969,0.07548
5958.96816,0.09543
5960.89663,0.08626
5962.82509,0.06678
5964.75356,0.03488
5966.68203,0.01426
5968.61050,0.04246
5970.53897,0.09747
5972.46744,0.12736
5974.39591,0.10657
5976.32437,0.07613
5978.25284,0.06895
5980.18131,0.05095
5982.10978,0.02249
5984.03825,0.03083
5985.96672,0.06344
5987.89519,0.07474
5989.82366,0.07248
5991.75212,0.07048
5993.68059,0.07451
5995.60906,0.09095
5997.53753,0.10679
5999.46600,0.11245
6001.39447,0.10943
6003.32294,0.10505
6005.25140,0.08110
6007.17987,0.05011
6009.10834,0.05799
6011.03681,0.07247
6012.96528,0.07317
6014.89375,0.07120
6016.82222,0.04296
6018.75069,0.00620
6020.67915,-0.00477
6022.60762,-0.00169
6024.53609,0.00970
6026.46456,0.03201
6028.39303,0.07273
6030.32150,0.11916
6032.24997,0.13745
6034.17843,0.13328
6036.10690,0.12816
6038.03537,0.11634
6039.96384,0.10147
6041.89231,0.10701
6043.82078,0.11764
6045.74925,0.09052
6047.67772,0.04953
6049.60618,0.04554
6051.53465,0.05586
6053.46312,0.05190
6055.39159,0.04887
6057.32006,0.05866
6059.24853,0.07348
6061.17700,0.07516
6063.10546,0.06443
6065.03393,0.05165
6066.96240,0.05626
6068.89087,0.10054
6070.81934,0.15283
6072.74781,0.16866
6074.67628,0.14591
6076.60475,0.10712
6078.53321,0.07218
6080.46168,0.04743
6082.39015,0.05064
6084.31862,0.09060
6086.24709,0.11258
6088.17556,0.07821
6090.10403,0.05360
6092.03249,0.07264
6093.96096,0.09674
6095.88943,0.10589
6097.81790,0.09425
6099.74637,0.07983
6101.67484,0.08415
6103.60331,0.08756
6105.53177,0.08528
6107.46024,0.07349
6109.38871,0.04109
6111.31718,0.02455
6113.24565,0.04731
6115.17412,0.08149
6117.10259,0.08885
6119.03106,0.05776
6120.95952,0.04671
6122.88799,0.08372
6124.81646,0.11264
6126.74493,0.11036
6128.67340,0.11377
6130.60187,0.13898
6132.53034,0.14261
6134.45880,0.08491
6136.38727,0.01450
6138.31574,-0.00586
6140.24421,0.00759
6142.17268,0.03311
6144.10115,0.06770
6146.02962,0.08945
6147.95809,0.11109
6149.88655,0.13964
6151.81502,0.12579
6153.74349,0.07488
6155.67196,0.04488
6157.60043,0.05169
6159.52890,0.07381
6161.45737,0.07714
6163.38583,0.08077
6165.31430,0.08662
6167.24277,0.06393
6169.17124,0.05627
6171.09971,0.09186
6173.02818,0.10813
6174.95665,0.07223
6176.88512,0.04015
6178.81358,0.05162
6180.74205,0.07741
6182.67052,0.08078
6184.59899,0.07174
6186.52746,0.07532
6188.45593,0.07665
6190.38440,0.06055
6192.31286,0.05488
6194.24133,0.05540
6196.16980,0.03729
6198.09827,0.03413
6200.02674,0.07432
6201.95521,0.13466
6203.88368,0.15332
6205.81215,0.09734
6207.74061,0.03247
6209.66908,0.00888
6211.59755,0.04067
6213.52602,0.08338
6215.45449,0.07248
6217.38296,0.03957
6219.31143,0.04183
6221.23989,0.07427
6223.16836,0.11518
6225.09683,0.13210
6227.02530,0.10510
6228.95377,0.07568
6230.88224,0.08639
6232.81071,0.12678
6234.73918,0.15725
6236.66764,0.16184
6238.59611,0.16317
6240.52458,0.17200
6242.45305,0.17098
6244.38152,0.16212
6246.30999,0.15184
6248.23846,0.12572
6250.16692,0.09112
6252.09539,0.07579
6254.02386,0.09187
6255.95233,0.12257
6257.88080,0.13242
6259.80927,0.10177
6261.73774,0.05270
6263.66621,0.03877
6265.59467,0.07441
6267.52314,0.11372
6269.45161,0.12446
6271.38008,0.10887
6273.30855,0.07727
6275.23702,0.06283
6277.16549,0.09448
6279.09395,0.12723
6281.02242,0.11543
6282.95089,0.06787
6284.87936,0.03688
6286.80783,0.05172
6288.73630,0.07227
6290.66477,0.06399
6292.59323,0.04450
6294.52170,0.04744
6296.45017,0.06997
6298.37864,0.09154
6300.30711,0.09506
6302.23558,0.09264
6304.16405,0.11353
6306.09252,0.13067
6308.02098,0.13402
6309.94945,0.15182
6311.87792,0.16912
6313.80639,0.15343
6315.73486,0.11173
6317.66333,0.06457
6319.59180,0.04452
6321.52026,0.07641
6323.44873,0.10827
6325.37720,0.07787
6327.30567,0.04483
6329.23414,0.08566
6331.16261,0.10681
6333.09108,0.06183
6335.01955,0.04929
6336.94801,0.06981
6338.87648,0.09057
6340.80495,0.10277
6342.73342,0.08404
6344.66189,0.04289
6346.59036,0.01372
6348.51883,0.01807
6350.44729,0.03477
6352.37576,0.03873
6354.30423,0.05203
6356.23270,0.09459
6358.16117,0.12851
6360.08964,0.12605
6362.01811,0.12330
6363.94658,0.10769
6365.87504,0.04424
6367.80351,0.03789
6369.73198,0.12778
6371.66045,0.16160
6373.58892,0.07358
6375.51739,-0.02317
6377.44586,-0.02351
6379.37432,0.03943
6381.30279,0.06609
6383.23126,0.04955
6385.15973,0.06401
6387.08820,0.09672
6389.01667,0.10017
6390.94514,0.06586
6392.87361,0.03753
6394.80207,0.07531
6396.73054,0.10450
6398.65901,0.06205
6400.58748,-0.00699
6402.51595,-0.04606
6404.44442,-0.02414
6406.37289,0.03232
6408.30135,0.05599
6410.22982,0.05341
6412.15829,0.05186
6414.08676,0.02470
6416.01523,-0.02497
6417.94370,-0.06041
6419.87217,-0.04108
6421.80064,0.03427
6423.72910,0.10736
6425.65757,0.10915
6427.58604,0.05505
6429.51451,0.05701
6431.44298,0.14140
6433.37145,0.17574
6435.29992,0.13152
6437.22838,0.09539
6439.15685,0.07888
6441.08532,0.05351
6443.01379,0.04431
6444.94226,0.07258
6446.87073,0.09983
6448.79920,0.09961
6450.72766,0.10006
6452.65613,0.11876
6454.58460,0.13088
6456.51307,0.12521
6458.44154,0.11529
6460.37001,0.09328
6462.29848,0.05964
6464.22695,0.05867
6466.15541,0.08585
6468.08388,0.10306
6470.01235,0.11122
6471.94082,0.11618
6473.86929,0.10118
6475.79776,0.04706
6477.72623,-0.01619
6479.65469,-0.02527
6481.58316,0.03431
6483.51163,0.09921
6485.44010,0.11737
6487.36857,0.09845
6489.29704,0.07146
6491.22551,0.05920
6493.15398,0.04344
6495.08244,0.02838
6497.01091,0.04105
6498.93938,0.05167
6500.86785,0.05464
6502.79632,0.08150
6504.72479,0.11377
6506.65326,0.11307
6508.58172,0.07462
6510.51019,0.04215
6512.43866,0.03776
6514.36713,0.03514
6516.29560,0.04009
6518.22407,0.05187
6520.15254,0.04933
6522.08101,0.05680
6524.00947,0.09508
6525.93794,0.12363
6527.86641,0.10226
6529.79488,0.06673
6531.72335,0.06809
6533.65182,0.10383
6535.58029,0.15742
6537.50875,0.17026
6539.43722,0.10158
6541.36569,0.06742
6543.29416,0.13661
6545.22263,0.20860
6547.15110,0.22475
6549.07957,0.21594
6551.00804,0.18775
6552.93650,0.14391
6554.86497,0.11002
6556.79344,0.07072
6558.72191,0.04487
6560.65038,0.04974
6562.57885,0.03368
6564.50732,0.01457
6566.43578,0.04065
6568.36425,0.09194
6570.29272,0.14216
6572.22119,0.16175
6574.14966,0.11541
6576.07813,0.04501
6578.00660,0.03091
6579.93507,0.07899
6581.86353,0.11309
6583.79200,0.05914
6585.72047,-0.01979
6587.64894,-0.03419
6589.57741,-0.00038
6591.50588,0.04101
6593.43435,0.08379
6595.36281,0.12407
6597.29128,0.12340
6599.21975,0.10528
6601.14822,0.14202
6603.07669,0.19486
6605.00516,0.19074
6606.93363,0.13575
6608.86210,0.05549
6610.79056,-0.02156
6612.71903,-0.05262
6614.64750,-0.01418
6616.57597,0.07468
6618.50444,0.11464
6620.43291,0.05552
6622.36138,0.01521
6624.28984,0.07157
6626.21831,0.14497
6628.14678,0.16298
6630.07525,0.11837
6632.00372,0.05080
6633.93219,0.03779
6635.86066,0.09898
6637.78912,0.14819
6639.71759,0.15797
6641.64606,0.16988
6643.57453,0.17565
6645.50300,0.15693
6647.43147,0.15471
6649.35994,0.15574
6651.28841,0.08057
6653.21687,-0.00560
6655.14534,0.04164
6657.07381,0.18179
6659.00228,0.22726
6660.93075,0.16525
6662.85922,0.08646
6664.78769,0.03957
6666.71615,0.07303
6668.64462,0.15860
6670.57309,0.18581
6672.50156,0.11300
6674.43003,0.00423
6676.35850,-0.05088
6678.28697,-0.01452
6680.21544,0.06920
6682.14390,0.12429
6684.07237,0.13178
6686.00084,0.10856
6687.92931,0.04852
6689.85778,-0.01421
6691.78625,-0.00458
6693.71472,0.06202
6695.64318,0.11887
6697.57165,0.12532
6699.50012,0.10349
6701.42859,0.08157
6703.35706,0.06560
6705.28553,0.09254
6707.21400,0.13332
6709.14247,0.10026
6711.07093,0.04405
6712.99940,0.01868
6714.92787,0.02656
6716.85634,0.07128
6718.78481,0.08079
6720.71328,0.01581
6722.64175,-0.01819
6724.57021,0.03976
6726.49868,0.08888
6728.42715,0.06836
6730.35562,0.02189
6732.28409,-0.02502
6734.21256,-0.03489
6736.14103,0.05593
6738.06950,0.15075
6739.99796,0.11933
6741.92643,0.05483
6743.85490,0.06256
6745.78337,0.05073
6747.71184,0.02068
6749.64031,0.05924
6751.56878,0.11751
6753.49724,0.10745
6755.42571,0.05138
6757.35418,0.02073
6759.28265,0.02614
6761.21112,0.02220
6763.13959,0.01876
6765.06806,0.02283
6766.99653,-0.01245
6768.92499,-0.02594
6770.85346,0.04635
6772.78193,0.14159
6774.71040,0.17281
6776.63887,0.09563
6778.56734,0.02988
6780.49581,0.04701
6782.42427,0.06611
6784.35274,0.07271
6786.28121,0.07932
6788.20968,0.06539
6790.13815,0.04198
6792.06662,0.04035
6793.99509,0.08404
6795.92355,0.13378
6797.85202,0.13302
6799.78049,0.08739
6801.70896,0.03707
6803.63743,0.01486
6805.56590,0.00753
6807.49437,-0.01286
6809.42284,-0.04943
6811.35130,-0.06703
6813.27977,-0.00649
6815.20824,0.12843
6817.13671,0.22372
6819.06518,0.17673
6820.99365,0.03936
6822.92212,-0.04947
6824.85058,-0.00225
6826.77905,0.06055
6828.70752,0.06801
6830.63599,0.08110
6832.56446,0.08552
6834.49293,0.03971
6836.42140,0.02340
6838.34987,0.05551
6840.27833,0.05215
6842.20680,0.02944
6844.13527,0.02231
6846.06374,-0.01327
6847.99221,-0.06945
6849.92068,-0.03089
6851.84915,0.03063
6853.77761,0.01676
6855.70608,0.02570
6857.63455,0.05977
6859.56302,0.03957
6861.49149,-0.00151
6863.41996,-0.01896
6865.34843,-0.00486
6867.27690,0.03005
6869.20536,0.06709
6871.13383,0.09388
6873.06230,0.06169
6874.99077,-0.01207
6876.91924,-0.03641
6878.84771,-0.02615
6880.77618,-0.02272
6882.70464,0.00674
6884.63311,0.06182
6886.56158,0.09279
6888.49005,0.05038
6890.41852,-0.00173
6892.34699,0.00212
6894.27546,0.04029
6896.20393,0.13000
6898.13239,0.23862
6900.06086,0.22292
6901.98933,0.08401
6903.91780,-0.03504
6905.84627,-0.03812
6907.77474,-0.02613
6909.70321,-0.06104
6911.63167,-0.06219
6913.56014,-0.03664
6915.48861,-0.01411
6917.41708,0.01239
6919.34555,0.00909
6921.27402,0.02188
6923.20249,0.06366
6925.13096,0.07027
6927.05942,0.05141
6928.98789,0.07164
6930.91636,0.13377
6932.84483,0.13336
6934.77330,0.05090
6936.70177,-0.01614
6938.63024,-0.01526
6940.55870,0.03976
6942.48717,0.08068
6944.41564,0.09960
6946.34411,0.12654
6948.27258,0.11323
6950.20105,0.07644
6952.12952,0.09386
6954.05799,0.11590
6955.98645,0.08358
6957.91492,0.09157
6959.84339,0.16380
6961.77186,0.16173
6963.70033,0.10727
6965.62880,0.10649
6967.55727,0.08626
6969.48573,0.01380
6971.41420,-0.02949
6973.34267,-0.05575
6975.27114,-0.08892
6977.19961,-0.10874
6979.12808,-0.11716
6981.05655,-0.05874
6982.98501,0.07579
6984.91348,0.14075
6986.84195,0.11264
6988.77042,0.11685
6990.69889,0.15734
6992.62736,0.18447
6994.55583,0.19600
6996.48430,0.18256
6998.41276,0.13967
7000.34123,0.08224
7002.26970,0.05487
7004.19817,0.05387
7006.12664,0.01339
7008.05511,-0.04524
7009.98358,-0.07066
7011.91204,-0.07467
7013.84051,-0.06385
7015.76898,-0.03566
7017.69745,0.01282
7019.62592,0.09144
7021.55439,0.18210
7023.48286,0.21838
7025.41133,0.18275
7027.33979,0.15013
7029.26826,0.16467
7031.19673,0.19300
7033.12520,0.16803
7035.05367,0.02883
7036.98214,-0.11039
7038.91061,-0.13686
7040.83907,-0.10514
7042.76754,-0.02005
7044.69601,0.07688
7046.62448,0.10701
7048.55295,0.12776
7050.48142,0.17096
7052.40989,0.21681
7054.33836,0.21039
7056.26682,0.10609
7058.19529,0.04218
7060.12376,0.15109
7062.05223,0.28985
7063.98070,0.29720
7065.90917,0.16338
7067.83764,-0.00898
7069.76610,-0.10695
7071.69457,-0.10668
7073.62304,-0.08665
7075.55151,-0.02518
7077.47998,0.08958
7079.40845,0.13789
7081.33692,0.00123
7083.26539,-0.14726
7085.19385,-0.15980
7087.12232,-0.10492
7089.05079,0.01689
7090.97926,0.18416
7092.90773,0.24382
7094.83620,0.15374
7096.76467,0.05708
7098.69313,0.04688
7100.62160,0.04630
7102.55007,-0.02021
7104.47854,-0.05015
7106.40701,0.03931
7108.33548,0.11115
7110.26395,0.10275
7112.19242,0.03735
7114.12088,-0.06734
7116.04935,-0.09056
7117.97782,0.00276
7119.90629,0.07796
7121.83476,0.11312
7123.76323,0.11731
7125.69170,0.06562
7127.62016,-0.01896
7129.54863,-0.05776
7131.47710,-0.01513
7133.40557,0.04831
7135.33404,0.06061
7137.26251,0.01555
7139.19098,-0.00973
7141.11944,0.09465
7143.04791,0.22337
7144.97638,0.22084
7146.90485,0.20615
7148.83332,0.21320
7150.76179,0.17804
7152.69026,0.16988
7154.61873,0.20233
7156.54719,0.24110
7158.47566,0.22894
7160.40413,0.11900
7162.33260,-0.01546
7164.26107,-0.12315
7166.18954,-0.14843
7168.11801,-0.02492
7170.04647,0.12535
7171.97494,0.14043
7173.90341,0.03099
7175.83188,-0.05557
7177.76035,-0.02896
7179.68882,0.00432
7181.61729,-0.01827
7183.54576,-0.03312
7185.47422,-0.01687
7187.40269,-0.05307
7189.33116,-0.11935
7191.25963,-0.09614
7193.18810,-0.03901
7195.11657,-0.03433
7197.04504,-0.02874
7198.97350,-0.04549
7200.90197,-0.08011
7202.83044,-0.03056
7204.75891,0.14391
7206.68738,0.23318
7208.61585,0.12398
7210.54432,-0.00831
7212.47279,-0.01765
7214.40125,0.04790
7216.32972,0.09202
7218.25819,0.12683
7220.18666,0.11249
7222.11513,-0.00066
7224.04360,-0.06383
7225.97207,0.01515
7227.90053,0.07286
7229.82900,0.04045
7231.75747,0.08970
7233.68594,0.26107
7235.61441,0.35601
7237.54288,0.29019
7239.47135,0.13874
7241.39982,0.00818
7243.32828,0.03230
7245.25675,0.17883
7247.18522,0.26589
7249.11369,0.29528
7251.04216,0.29309
7252.97063,0.19700
7254.89910,0.02871
7256.82756,-0.08851
7258.75603,-0.11617
7260.68450,0.04402
7262.61297,0.32677
7264.54144,0.39202
7266.46991,0.27794
7268.39838,0.23105
7270.32685,0.20488
7272.25531,0.13510
7274.18378,0.05418
7276.11225,-0.06527
7278.04072,-0.18781
7279.96919,-0.17706
7281.89766,-0.07078
7283.82613,-0.03609
7285.75459,0.01742
7287.68306,0.12316
7289.61153,0.11564
7291.54000,-0.03498
7293.46847,-0.08465
7295.39694,-0.02945
7297.32541,-0.06538
7299.25387,-0.11495
7301.18234,-0.06015
7303.11081,0.04253
7305.03928,0.08871
7306.96775,0.01160
7308.89622,-0.13229
7310.82469,-0.15160
7312.75316,-0.09565
7314.68162,-0.07958
7316.61009,-0.08555
7318.53856,-0.07965
7320.46703,-0.07885
7322.39550,-0.05665
7324.32397,-0.01171
7326.25244,-0.00415
7328.18090,-0.01894
7330.10937,0.06901
7332.03784,0.24379
7333.96631,0.30218
7335.89478,0.18280
7337.82325,0.03072
7339.75172,0.02874
7341.68019,0.12542
7343.60865,0.10713
7345.53712,0.03919
7347.46559,0.05643
7349.39406,0.13390
7351.32253,0.15078
7353.25100,0.07183
7355.17947,-0.05087
7357.10793,-0.18809
7359.03640,-0.37113
7360.96487,-0.48091
7362.89334,-0.26025
7364.82181,0.07896
7366.75028,0.09886
7368.67875,-0.09909
7370.60722,-0.19023
7372.53568,-0.18480
7374.46415,-0.11111
7376.39262,0.02803
7378.32109,0.05059
7380.24956,-0.09759
7382.17803,-0.31935
7384.10650,-0.34589
7386.03496,-0.19373
7387.96343,-0.15317
7389.89190,-0.13202
7391.82037,0.03922
7393.74884,0.22697
7395.67731,0.28304
7397.60578,0.23305
7399.53425,0.17995
7401.46271,0.21581
7403.39118,0.30839
7405.31965,0.29208
7407.24812,0.18541
7409.17659,0.12440
7411.10506,0.08239
7413.03353,0.05553
7414.96199,0.10575
7416.89046,0.16018
7418.81893,0.13966
7420.74740,0.16624
7422.67587,0.18582
7424.60434,0.12883
7426.53281,0.10803
7428.46128,0.15372
7430.38974,0.14360
7432.31821,0.08363
7434.24668,0.09022
7436.17515,0.09339
7438.10362,-0.01943
7440.03209,-0.15199
7441.96056,-0.10273
7443.88902,0.07889
7445.81749,0.20018
7447.74596,0.24862
7449.67443,0.30993
7451.60290,0.33628
7453.53137,0.22807
7455.45984,0.13307
7457.38831,0.16231
7459.31677,0.31202
7461.24524,0.40199
7463.17371,0.23468
7465.10218,-0.00341
7467.03065,-0.05259
7468.95912,0.03514
7470.88759,0.17155
7472.81605,0.31068
7474.74452,0.38686
7476.67299,0.39426
7478.60146,0.28329
7480.52993,0.10249
7482.45840,-0.06236
7484.38687,-0.19541
7486.31533,-0.15246
7488.24380,0.10290
7490.17227,0.27284
7492.10074,0.15375
7494.02921,-0.01441
7495.95768,-0.02513
7497.88615,0.01660
