399.19301,0.60937
401.12148,-0.73090
403.04995,-0.68149
404.97842,-0.21891
406.90689,0.09028
408.83536,0.13555
410.76382,-0.00108
412.69229,-0.12395
414.62076,-0.18205
416.54923,-0.21365
418.47770,-0.13964
420.40617,-0.01260
422.33464,-0.00797
424.26311,-0.02617
426.19157,0.03310
428.12004,0.11692
430.04851,0.11684
431.97698,0.01158
433.90545,-0.07660
435.83392,-0.08475
437.76239,-0.03276
439.69085,0.05460
441.61932,0.08097
443.54779,-0.00885
445.47626,-0.04567
447.40473,-0.02378
449.33320,-0.05722
451.26167,-0.07671
453.19013,-0.02741
455.11860,0.02476
457.04707,0.02593
458.97554,-0.01453
460.90401,-0.03592
462.83248,-0.01817
464.76095,0.02884
466.68942,0.07795
468.61788,0.06618
470.54635,0.00497
472.47482,-0.01179
474.40329,0.05354
476.33176,0.08941
478.26023,0.08656
480.18870,0.06391
482.11716,0.01843
484.04563,-0.01235
485.97410,-0.00176
487.90257,0.01968
489.83104,0.02482
491.75951,0.03292
493.68798,0.04860
495.61645,0.05028
497.54491,0.05711
499.47338,0.08274
501.40185,0.09749
503.33032,0.08902
505.25879,0.07125
507.18726,0.04804
509.11573,0.04417
511.04419,0.05761
512.97266,0.07340
514.90113,0.09761
516.82960,0.09877
518.75807,0.07495
520.68654,0.07355
522.61501,0.07672
524.54348,0.04905
526.47194,0.02344
528.40041,0.04279
530.32888,0.07752
532.25735,0.08396
534.18582,0.07192
536.11429,0.07598
538.04276,0.09522
539.97122,0.10364
541.89969,0.08535
543.82816,0.07260
545.75663,0.08795
547.68510,0.09337
549.61357,0.09133
551.54204,0.11160
553.47051,0.12808
555.39897,0.10821
557.32744,0.06550
559.25591,0.03466
561.18438,0.02984
563.11285,0.04137
565.04132,0.05637
566.96979,0.07026
568.89825,0.08073
570.82672,0.08714
572.75519,0.08121
574.68366,0.05477
576.61213,0.02751
578.54060,0.02300
580.46907,0.03057
582.39754,0.02591
584.32600,0.01226
586.25447,0.01044
588.18294,0.02532
590.11141,0.04864
592.03988,0.06860
593.96835,0.07938
595.89682,0.08232
597.82528,0.07589
599.75375,0.07177
601.68222,0.07836
603.61069,0.08290
605.53916,0.08258
607.46763,0.07745
609.39610,0.05961
611.32456,0.04282
613.25303,0.03758
615.18150,0.03847
617.10997,0.05241
619.03844,0.06669
620.96691,0.06427
622.89538,0.06461
624.82385,0.07706
626.75231,0.09144
628.68078,0.10323
630.60925,0.11088
632.53772,0.11723
634.46619,0.11864
636.39466,0.10726
638.32313,0.09492
640.25159,0.09339
642.18006,0.09500
644.10853,0.09220
646.03700,0.08607
647.96547,0.08234
649.89394,0.08854
651.82241,0.09856
653.75088,0.10186
655.67934,0.10109
657.60781,0.09473
659.53628,0.08282
661.46475,0.08054
663.39322,0.08922
665.32169,0.09691
667.25016,0.10072
669.17862,0.10229
671.10709,0.10089
673.03556,0.09737
674.96403,0.09663
676.89250,0.09849
678.82097,0.08920
680.74944,0.06744
682.67791,0.05853
684.60637,0.07966
686.53484,0.10818
688.46331,0.11157
690.39178,0.09795
692.32025,0.08953
694.24872,0.08586
696.17719,0.08728
698.10565,0.09779
700.03412,0.10141
701.96259,0.09004
703.89106,0.08324
705.81953,0.09176
707.74800,0.09682
709.67647,0.08944
711.60494,0.08734
713.53340,0.09564
715.46187,0.09973
717.39034,0.09570
719.31881,0.09469
721.24728,0.10012
723.17575,0.10637
725.10422,0.11123
727.03268,0.10886
728.96115,0.10012
730.88962,0.09790
732.81809,0.10221
734.74656,0.10463
736.67503,0.10476
738.60350,0.10108
740.53197,0.09783
742.46043,0.10092
744.38890,0.10471
746.31737,0.10674
748.24584,0.10617
750.17431,0.09876
752.10278,0.09238
754.03125,0.09752
755.95971,0.10308
757.88818,0.09805
759.81665,0.09110
761.74512,0.08758
763.67359,0.08815
765.60206,0.09615
767.53053,0.10537
769.45900,0.10540
771.38746,0.10025
773.31593,0.10070
775.24440,0.10664
777.17287,0.10803
779.10134,0.10302
781.02981,0.10082
782.95828,0.09735
784.88674,0.08690
786.81521,0.08242
788.74368,0.09092
790.67215,0.10491
792.60062,0.11844
794.52909,0.12404
796.45756,0.11605
798.38602,0.10324
800.31449,0.09936
802.24296,0.10523
804.17143,0.11185
806.09990,0.11592
808.02837,0.11482
809.95684,0.10499
811.88531,0.09479
813.81377,0.09522
815.74224,0.10306
817.67071,0.10817
819.59918,0.10279
821.52765,0.09008
823.45612,0.08706
825.38459,0.09853
827.31305,0.10895
829.24152,0.11116
831.16999,0.11114
833.09846,0.11155
835.02693,0.11422
836.95540,0.12178
838.88387,0.12913
840.81234,0.12711
842.74080,0.11433
844.66927,0.10045
846.59774,0.09601
848.52621,0.10233
850.45468,0.10991
852.38315,0.10854
854.31162,0.10266
856.24008,0.10307
858.16855,0.11311
860.09702,0.12552
862.02549,0.12638
863.95396,0.11422
865.88243,0.10298
867.81090,0.10463
869.73937,0.11795
871.66783,0.12681
873.59630,0.12303
875.52477,0.11904
877.45324,0.12182
879.38171,0.12306
881.31018,0.12137
883.23865,0.12088
885.16711,0.11867
887.09558,0.11544
889.02405,0.11117
890.95252,0.10445
892.88099,0.10294
894.80946,0.10970
896.73793,0.11806
898.66640,0.12092
900.59486,0.11783
902.52333,0.11650
904.45180,0.11895
906.38027,0.12035
908.30874,0.12396
910.23721,0.12803
912.16568,0.12185
914.09414,0.11082
916.02261,0.10737
917.95108,0.11040
919.87955,0.11514
921.80802,0.11902
923.73649,0.11785
925.66496,0.11182
927.59343,0.10828
929.52189,0.11160
931.45036,0.11711
933.37883,0.12054
935.30730,0.12125
937.23577,0.11834
939.16424,0.11523
941.09271,0.11581
943.02117,0.11691
944.94964,0.11532
946.87811,0.11358
948.80658,0.11480
950.73505,0.11771
952.66352,0.12001
954.59199,0.12294
956.52045,0.12551
958.44892,0.12114
960.37739,0.11365
962.30586,0.11350
964.23433,0.11830
966.16280,0.12026
968.09127,0.11797
970.01974,0.11448
971.94820,0.11180
973.87667,0.11183
975.80514,0.11657
977.73361,0.12215
979.66208,0.12366
981.59055,0.12003
983.51902,0.11513
985.44748,0.11699
987.37595,0.12462
989.30442,0.12722
991.23289,0.12559
993.16136,0.12596
995.08983,0.12279
997.01830,0.11845
998.94677,0.12060
1000.87523,0.12400
1002.80370,0.12599
1004.73217,0.12760
1006.66064,0.12661
1008.58911,0.12644
1010.51758,0.12875
1012.44605,0.12783
1014.37451,0.12542
1016.30298,0.12587
1018.23145,0.12533
1020.15992,0.12720
1022.08839,0.13662
1024.01686,0.14158
1025.94533,0.13731
1027.87380,0.13475
1029.80226,0.13170
1031.73073,0.12365
1033.65920,0.12140
1035.58767,0.12596
1037.51614,0.12636
1039.44461,0.12538
1041.37308,0.12917
1043.30154,0.13118
1045.23001,0.13079
1047.15848,0.13362
1049.08695,0.13490
1051.01542,0.13026
1052.94389,0.12479
1054.87236,0.12690
1056.80083,0.13639
1058.72929,0.14046
1060.65776,0.13663
1062.58623,0.13352
1064.51470,0.13096
1066.44317,0.12804
1068.37164,0.12916
1070.30011,0.13685
1072.22857,0.14305
1074.15704,0.14014
1076.08551,0.13501
1078.01398,0.13344
1079.94245,0.13844
1081.87092,0.14870
1083.79939,0.15214
1085.72786,0.14544
1087.65632,0.13900
1089.58479,0.13653
1091.51326,0.13429
1093.44173,0.13250
1095.37020,0.13107
1097.29867,0.12992
1099.22714,0.13088
1101.15560,0.13131
1103.08407,0.13210
1105.01254,0.13797
1106.94101,0.14363
1108.86948,0.14216
1110.79795,0.13742
1112.72642,0.13515
1114.65489,0.13320
1116.58335,0.13103
1118.51182,0.13250
1120.44029,0.13126
1122.36876,0.12310
1124.29723,0.12023
1126.22570,0.12671
1128.15417,0.13145
1130.08263,0.13120
1132.01110,0.12924
1133.93957,0.12604
1135.86804,0.12592
1137.79651,0.13163
1139.72498,0.13682
1141.65345,0.13683
1143.58191,0.13642
1145.51038,0.13800
1147.43885,0.13844
1149.36732,0.13916
1151.29579,0.14059
1153.22426,0.14200
1155.15273,0.14315
1157.08120,0.14128
1159.00966,0.13922
1160.93813,0.13949
1162.86660,0.13985
1164.79507,0.14172
1166.72354,0.14497
1168.65201,0.14484
1170.58048,0.14096
1172.50894,0.13900
1174.43741,0.14029
1176.36588,0.14062
1178.29435,0.13938
1180.22282,0.13682
1182.15129,0.13487
1184.07976,0.13773
1186.00823,0.14267
1187.93669,0.14482
1189.86516,0.14252
1191.79363,0.13786
1193.72210,0.13714
1195.65057,0.14155
1197.57904,0.14689
1199.50751,0.14853
1201.43597,0.14452
1203.36444,0.14000
1205.29291,0.13989
1207.22138,0.14370
1209.14985,0.14806
1211.07832,0.14832
1213.00679,0.14565
1214.93526,0.14585
1216.86372,0.14758
1218.79219,0.14745
1220.72066,0.14840
1222.64913,0.15182
1224.57760,0.15352
1226.50607,0.15197
1228.43454,0.14999
1230.36300,0.14862
1232.29147,0.14751
1234.21994,0.14610
1236.14841,0.14446
1238.07688,0.14472
1240.00535,0.14759
1241.93382,0.15159
1243.86229,0.15467
1245.79075,0.15440
1247.71922,0.15202
1249.64769,0.15035
1251.57616,0.14818
1253.50463,0.14608
1255.43310,0.14828
1257.36157,0.15323
1259.29003,0.15491
1261.21850,0.15292
1263.14697,0.15125
1265.07544,0.15052
1267.00391,0.15016
1268.93238,0.15193
1270.86085,0.15503
1272.78932,0.15538
1274.71778,0.15354
1276.64625,0.15455
1278.57472,0.15765
1280.50319,0.15785
1282.43166,0.15627
1284.36013,0.15653
1286.28860,0.15704
1288.21706,0.15693
1290.14553,0.15830
1292.07400,0.15919
1294.00247,0.15705
1295.93094,0.15485
1297.85941,0.15499
1299.78788,0.15499
1301.71634,0.15373
1303.64481,0.15319
1305.57328,0.15451
1307.50175,0.15637
1309.43022,0.15679
1311.35869,0.15580
1313.28716,0.15531
1315.21563,0.15705
1317.14409,0.15951
1319.07256,0.16014
1321.00103,0.15964
1322.92950,0.15932
1324.85797,0.15883
1326.78644,0.15800
1328.71491,0.15718
1330.64337,0.15638
1332.57184,0.15533
1334.50031,0.15523
1336.42878,0.15960
1338.35725,0.16710
1340.28572,0.16566
1342.21419,0.15045
1344.14266,0.13923
1346.07112,0.14462
1347.99959,0.15413
1349.92806,0.15721
1351.85653,0.15800
1353.78500,0.15691
1355.71347,0.15613
1357.64194,0.15844
1359.57040,0.16115
1361.49887,0.16262
1363.42734,0.16111
1365.35581,0.15714
1367.28428,0.15433
1369.21275,0.15406
1371.14122,0.15669
1373.06969,0.16242
1374.99815,0.16791
1376.92662,0.16846
1378.85509,0.16534
1380.78356,0.16206
1382.71203,0.16115
1384.64050,0.16476
1386.56897,0.17009
1388.49743,0.16933
1390.42590,0.16609
1392.35437,0.16692
1394.28284,0.17061
1396.21131,0.17395
1398.13978,0.17301
1400.06825,0.16729
1401.99672,0.16348
1403.92518,0.16459
1405.85365,0.16694
1407.78212,0.16809
1409.71059,0.16835
1411.63906,0.16733
1413.56753,0.16653
1415.49600,0.16793
1417.42446,0.17263
1419.35293,0.17642
1421.28140,0.17167
1423.20987,0.16416
1425.13834,0.16012
1427.06681,0.16131
1428.99528,0.16721
1430.92375,0.17250
1432.85221,0.17369
1434.78068,0.17553
1436.70915,0.17572
1438.63762,0.17063
1440.56609,0.16831
1442.49456,0.16964
1444.42303,0.17212
1446.35149,0.17557
1448.27996,0.17800
1450.20843,0.17784
1452.13690,0.17765
1454.06537,0.18023
1455.99384,0.18755
1457.92231,0.19239
1459.85077,0.18643
1461.77924,0.18218
1463.70771,0.18184
1465.63618,0.17863
1467.56465,0.17478
1469.49312,0.17747
1471.42159,0.18520
1473.35006,0.19093
1475.27852,0.18901
1477.20699,0.18395
1479.13546,0.18075
1481.06393,0.17948
1482.99240,0.17794
1484.92087,0.17892
1486.84934,0.18583
1488.77780,0.19467
1490.70627,0.19440
1492.63474,0.18839
1494.56321,0.18619
1496.49168,0.18775
1498.42015,0.18844
1500.34862,0.18813
1502.27709,0.19104
1504.20555,0.19912
1506.13402,0.20846
1508.06249,0.20220
1509.99096,0.19127
1511.91943,0.18607
1513.84790,0.18519
1515.77637,0.18827
1517.70483,0.19401
1519.63330,0.20184
1521.56177,0.20811
1523.49024,0.20436
1525.41871,0.19643
1527.34718,0.18778
1529.27565,0.18172
1531.20412,0.18341
1533.13258,0.18962
1535.06105,0.19150
1536.98952,0.19372
1538.91799,0.20550
1540.84646,0.22107
1542.77493,0.21597
1544.70340,0.20042
1546.63186,0.19021
1548.56033,0.18834
1550.48880,0.18781
1552.41727,0.18706
1554.34574,0.19066
1556.27421,0.20019
1558.20268,0.21426
1560.13115,0.20818
1562.05961,0.19494
1563.98808,0.18890
1565.91655,0.18703
1567.84502,0.19170
1569.77349,0.19578
1571.70196,0.19202
1573.63043,0.19186
1575.55889,0.19477
1577.48736,0.19016
1579.41583,0.18391
1581.34430,0.18095
1583.27277,0.17922
1585.20124,0.17758
1587.12971,0.17559
1589.05818,0.17432
1590.98664,0.17542
1592.91511,0.17861
1594.84358,0.18126
1596.77205,0.18038
1598.70052,0.17861
1600.62899,0.18005
1602.55746,0.18213
1604.48592,0.18211
1606.41439,0.18234
1608.34286,0.18315
1610.27133,0.18305
1612.19980,0.18322
1614.12827,0.18591
1616.05674,0.19141
1617.98521,0.19191
1619.91367,0.18848
1621.84214,0.18891
1623.77061,0.18984
1625.69908,0.18859
1627.62755,0.18986
1629.55602,0.19199
1631.48449,0.19267
1633.41295,0.19553
1635.34142,0.20178
1637.26989,0.20089
1639.19836,0.19458
1641.12683,0.19188
1643.05530,0.19456
1644.98377,0.20170
1646.91223,0.20743
1648.84070,0.20590
1650.76917,0.20642
1652.69764,0.21179
1654.62611,0.20580
1656.55458,0.19389
1658.48305,0.18651
1660.41152,0.18407
1662.33998,0.18724
1664.26845,0.19184
1666.19692,0.19582
1668.12539,0.20260
1670.05386,0.20640
1671.98233,0.20303
1673.91080,0.19999
1675.83926,0.19685
1677.76773,0.19585
1679.69620,0.20049
1681.62467,0.21080
1683.55314,0.22206
1685.48161,0.21726
1687.41008,0.20655
1689.33855,0.19966
1691.26701,0.19394
1693.19548,0.19461
1695.12395,0.20592
1697.05242,0.21892
1698.98089,0.22259
1700.90936,0.21562
1702.83783,0.20742
1704.76629,0.20525
1706.69476,0.20260
1708.62323,0.19615
1710.55170,0.19112
1712.48017,0.19137
1714.40864,0.19624
1716.33711,0.20217
1718.26558,0.20145
1720.19404,0.19483
1722.12251,0.19032
1724.05098,0.18728
1725.97945,0.18422
1727.90792,0.18431
1729.83639,0.18912
1731.76486,0.19576
1733.69332,0.19808
1735.62179,0.19154
1737.55026,0.18685
1739.47873,0.18796
1741.40720,0.19139
1743.33567,0.19311
1745.26414,0.19488
1747.19261,0.19881
1749.12107,0.20007
1751.04954,0.19429
1752.97801,0.18911
1754.90648,0.18907
1756.83495,0.19047
1758.76342,0.19058
1760.69189,0.19174
1762.62035,0.19172
1764.54882,0.18887
1766.47729,0.18852
1768.40576,0.19237
1770.33423,0.19920
1772.26270,0.20325
1774.19117,0.19733
1776.11964,0.19066
1778.04810,0.19055
1779.97657,0.19390
1781.90504,0.19280
1783.83351,0.18715
1785.76198,0.18275
1787.69045,0.18310
1789.61892,0.18870
1791.54738,0.19548
1793.47585,0.19542
1795.40432,0.19026
1797.33279,0.18665
1799.26126,0.18652
1801.18973,0.18787
1803.11820,0.18783
1805.04666,0.18733
1806.97513,0.18719
1808.90360,0.18748
1810.83207,0.18792
1812.76054,0.18777
1814.68901,0.18796
1816.61748,0.18474
1818.54595,0.17708
1820.47441,0.17556
1822.40288,0.18179
1824.33135,0.18552
1826.25982,0.18614
1828.18829,0.19053
1830.11676,0.19451
1832.04523,0.19142
1833.97369,0.18739
1835.90216,0.18735
1837.83063,0.18977
1839.75910,0.19267
1841.68757,0.19545
1843.61604,0.19616
1845.54451,0.19334
1847.47298,0.18971
1849.40144,0.18694
1851.32991,0.18582
1853.25838,0.18594
1855.18685,0.18485
1857.11532,0.18296
1859.04379,0.18278
1860.97226,0.18427
1862.90072,0.18614
1864.82919,0.18840
1866.75766,0.19107
1868.68613,0.19171
1870.61460,0.18841
1872.54307,0.18435
1874.47154,0.18241
1876.40001,0.18324
1878.32847,0.18490
1880.25694,0.18491
1882.18541,0.18394
1884.11388,0.18347
1886.04235,0.18432
1887.97082,0.18704
1889.89929,0.18922
1891.82775,0.18940
1893.75622,0.18903
1895.68469,0.18836
1897.61316,0.18755
1899.54163,0.18661
1901.47010,0.18508
1903.39857,0.18350
1905.32704,0.18416
1907.25550,0.18791
1909.18397,0.19095
1911.11244,0.18972
1913.04091,0.18695
1914.96938,0.18651
1916.89785,0.18799
1918.82632,0.18819
1920.75478,0.18678
1922.68325,0.18644
1924.61172,0.18706
1926.54019,0.18725
1928.46866,0.18714
1930.39713,0.18717
1932.32560,0.18730
1934.25407,0.18695
1936.18253,0.18617
1938.11100,0.18646
1940.03947,0.18888
1941.96794,0.19108
1943.89641,0.19047
1945.82488,0.18807
1947.75335,0.18561
1949.68181,0.18443
1951.61028,0.18491
1953.53875,0.18603
1955.46722,0.18693
1957.39569,0.18724
1959.32416,0.18661
1961.25263,0.18578
1963.18110,0.18663
1965.10956,0.18937
1967.03803,0.19099
1968.96650,0.18897
1970.89497,0.18630
1972.82344,0.18705
1974.75191,0.19124
1976.68038,0.19464
1978.60884,0.19240
1980.53731,0.18649
1982.46578,0.18375
1984.39425,0.18518
1986.32272,0.18749
1988.25119,0.18985
1990.17966,0.19163
1992.10812,0.19090
1994.03659,0.18832
1995.96506,0.18728
1997.89353,0.18829
1999.82200,0.18883
2001.75047,0.18800
2003.67894,0.18701
2005.60741,0.18707
2007.53587,0.18756
2009.46434,0.18716
2011.39281,0.18724
2013.32128,0.18899
2015.24975,0.19088
2017.17822,0.19139
2019.10669,0.19091
2021.03515,0.19083
2022.96362,0.19122
2024.89209,0.19099
2026.82056,0.18955
2028.74903,0.18779
2030.67750,0.18725
2032.60597,0.18764
2034.53444,0.18841
2036.46290,0.18977
2038.39137,0.19072
2040.31984,0.19048
2042.24831,0.18882
2044.17678,0.18701
2046.10525,0.18802
2048.03372,0.19130
2049.96218,0.19334
2051.89065,0.19240
2053.81912,0.18979
2055.74759,0.18832
2057.67606,0.18901
2059.60453,0.18979
2061.53300,0.18852
2063.46147,0.18674
2065.38993,0.18654
2067.31840,0.18694
2069.24687,0.18727
2071.17534,0.18778
2073.10381,0.18809
2075.03228,0.18798
2076.96075,0.18736
2078.88921,0.18719
2080.81768,0.18883
2082.74615,0.19063
2084.67462,0.19054
2086.60309,0.18993
2088.53156,0.19040
2090.46003,0.19093
2092.38850,0.19028
2094.31696,0.18993
2096.24543,0.19128
2098.17390,0.19239
2100.10237,0.19194
2102.03084,0.19146
2103.95931,0.19165
2105.88778,0.19178
2107.81624,0.19277
2109.74471,0.19519
2111.67318,0.19625
2113.60165,0.19521
2115.53012,0.19392
2117.45859,0.19163
2119.38706,0.18931
2121.31553,0.18932
2123.24399,0.19001
2125.17246,0.19022
2127.10093,0.19052
2129.02940,0.19068
2130.95787,0.19019
2132.88634,0.18820
2134.81481,0.18559
2136.74327,0.18562
2138.67174,0.18864
2140.60021,0.19120
2142.52868,0.19223
2144.45715,0.19265
2146.38562,0.19209
2148.31409,0.19092
2150.24255,0.19091
2152.17102,0.19191
2154.09949,0.19191
2156.02796,0.19080
2157.95643,0.19026
2159.88490,0.19157
2161.81337,0.19400
2163.74184,0.19558
2165.67030,0.19602
2167.59877,0.19593
2169.52724,0.19563
2171.45571,0.19511
2173.38418,0.19375
2175.31265,0.19145
2177.24112,0.18973
2179.16958,0.18927
2181.09805,0.18939
2183.02652,0.19081
2184.95499,0.19252
2186.88346,0.19188
2188.81193,0.19026
2190.74040,0.19075
2192.66887,0.19331
2194.59733,0.19493
2196.52580,0.19380
2198.45427,0.19228
2200.38274,0.19171
2202.31121,0.19088
2204.23968,0.19076
2206.16815,0.19118
2208.09661,0.19066
2210.02508,0.19027
2211.95355,0.19079
2213.88202,0.19103
2215.81049,0.19016
2217.73896,0.18894
2219.66743,0.18847
2221.59590,0.18930
2223.52436,0.19036
2225.45283,0.19012
2227.38130,0.18918
2229.30977,0.18939
2231.23824,0.19087
2233.16671,0.19244
2235.09518,0.19392
2237.02364,0.19489
2238.95211,0.19447
2240.88058,0.19378
2242.80905,0.19458
2244.73752,0.19549
2246.66599,0.19435
2248.59446,0.19248
2250.52293,0.19147
2252.45139,0.19086
2254.37986,0.19057
2256.30833,0.19135
2258.23680,0.19233
2260.16527,0.19278
2262.09374,0.19303
2264.02221,0.19252
2265.95067,0.19192
2267.87914,0.19241
2269.80761,0.19333
2271.73608,0.19333
2273.66455,0.19205
2275.59302,0.19130
2277.52149,0.19299
2279.44996,0.19538
2281.37842,0.19553
2283.30689,0.19393
2285.23536,0.19233
2287.16383,0.19155
2289.09230,0.19204
2291.02077,0.19174
2292.94924,0.18977
2294.87770,0.19172
2296.80617,0.19785
2298.73464,0.20077
2300.66311,0.20016
2302.59158,0.19971
2304.52005,0.20040
2306.44852,0.20203
2308.37699,0.20290
2310.30545,0.20156
2312.23392,0.20073
2314.16239,0.20602
2316.09086,0.21410
2318.01933,0.21658
2319.94780,0.21631
2321.87627,0.21991
2323.80473,0.22515
2325.73320,0.22854
2327.66167,0.23051
2329.59014,0.23423
2331.51861,0.24014
2333.44708,0.24359
2335.37555,0.24795
2337.30401,0.25419
2339.23248,0.25426
2341.16095,0.24787
2343.08942,0.23728
2345.01789,0.22674
2346.94636,0.22489
2348.87483,0.23025
2350.80330,0.23904
2352.73176,0.24963
2354.66023,0.25777
2356.58870,0.26085
2358.51717,0.25850
2360.44564,0.25150
2362.37411,0.24802
2364.30258,0.25210
2366.23104,0.25652
2368.15951,0.25519
2370.08798,0.24823
2372.01645,0.23474
2373.94492,0.22033
2375.87339,0.21334
2377.80186,0.21073
2379.73033,0.20675
2381.65879,0.20182
2383.58726,0.19840
2385.51573,0.19615
2387.44420,0.19373
2389.37267,0.19192
2391.30114,0.19152
2393.22961,0.19230
2395.15807,0.19329
2397.08654,0.19397
2399.01501,0.19447
2400.94348,0.19412
2402.87195,0.19346
2404.80042,0.19286
2406.72889,0.19245
2408.65736,0.19401
2410.58582,0.19618
2412.51429,0.19574
2414.44276,0.19477
2416.37123,0.19525
2418.29970,0.19518
2420.22817,0.19481
2422.15664,0.19497
2424.08510,0.19436
2426.01357,0.19249
2427.94204,0.19046
2429.87051,0.19024
2431.79898,0.19227
2433.72745,0.19392
2435.65592,0.19271
2437.58439,0.19069
2439.51285,0.19093
2441.44132,0.19256
2443.36979,0.19379
2445.29826,0.19451
2447.22673,0.19457
2449.15520,0.19459
2451.08367,0.19580
2453.01213,0.19623
2454.94060,0.19419
2456.86907,0.19251
2458.79754,0.19352
2460.72601,0.19561
2462.65448,0.19632
2464.58295,0.19584
2466.51142,0.19575
2468.43988,0.19603
2470.36835,0.19594
2472.29682,0.19559
2474.22529,0.19551
2476.15376,0.19626
2478.08223,0.19750
2480.01070,0.19804
2481.93916,0.19743
2483.86763,0.19597
2485.79610,0.19439
2487.72457,0.19358
2489.65304,0.19288
2491.58151,0.19264
2493.50998,0.19470
2495.43844,0.19703
2497.36691,0.19695
2499.29538,0.19578
2501.22385,0.19467
2503.15232,0.19325
2505.08079,0.19208
2507.00926,0.19225
2508.93773,0.19297
2510.86619,0.19326
2512.79466,0.19450
2514.72313,0.19691
2516.65160,0.19832
2518.58007,0.19743
2520.50854,0.19490
2522.43701,0.19398
2524.36547,0.19569
2526.29394,0.19658
2528.22241,0.19685
2530.15088,0.19853
2532.07935,0.19882
2534.00782,0.19658
2535.93629,0.19533
2537.86476,0.19670
2539.79322,0.19760
2541.72169,0.19567
2543.65016,0.19361
2545.57863,0.19419
2547.50710,0.19641
2549.43557,0.19769
2551.36404,0.19724
2553.29250,0.19631
2555.22097,0.19573
2557.14944,0.19575
2559.07791,0.19570
2561.00638,0.19500
2562.93485,0.19502
2564.86332,0.19571
2566.79179,0.19547
2568.72025,0.19422
2570.64872,0.19346
2572.57719,0.19422
2574.50566,0.19552
2576.43413,0.19653
2578.36260,0.19683
2580.29107,0.19659
2582.21953,0.19708
2584.14800,0.19785
2586.07647,0.19768
2588.00494,0.19699
2589.93341,0.19668
2591.86188,0.19742
2593.79035,0.19937
2595.71882,0.20184
2597.64728,0.20288
2599.57575,0.20101
2601.50422,0.19838
2603.43269,0.19671
2605.36116,0.19503
2607.28963,0.19418
2609.21810,0.19556
2611.14656,0.19897
2613.07503,0.20173
2615.00350,0.20144
2616.93197,0.19958
2618.86044,0.19653
2620.78891,0.19413
2622.71738,0.19610
2624.64585,0.19933
2626.57431,0.20009
2628.50278,0.19948
2630.43125,0.19904
2632.35972,0.19853
2634.28819,0.19766
2636.21666,0.19861
2638.14513,0.20090
2640.07359,0.20176
2642.00206,0.20124
2643.93053,0.19986
2645.85900,0.19864
2647.78747,0.19856
2649.71594,0.19966
2651.64441,0.20195
2653.57288,0.20309
2655.50134,0.20111
2657.42981,0.19882
2659.35828,0.19949
2661.28675,0.20193
2663.21522,0.20340
2665.14369,0.20321
2667.07216,0.20233
2669.00062,0.20167
2670.92909,0.20125
2672.85756,0.20141
2674.78603,0.20176
2676.71450,0.20141
2678.64297,0.20133
2680.57144,0.20205
2682.49990,0.20226
2684.42837,0.20094
2686.35684,0.20002
2688.28531,0.20141
2690.21378,0.20355
2692.14225,0.20516
2694.07072,0.20634
2695.99919,0.20662
2697.92765,0.20628
2699.85612,0.20557
2701.78459,0.20370
2703.71306,0.20219
2705.64153,0.20301
2707.57000,0.20478
2709.49847,0.20524
2711.42693,0.20398
2713.35540,0.20229
2715.28387,0.20153
2717.21234,0.20247
2719.14081,0.20432
2721.06928,0.20506
2722.99775,0.20446
2724.92622,0.20422
2726.85468,0.20468
2728.78315,0.20431
2730.71162,0.20325
2732.64009,0.20299
2734.56856,0.20360
2736.49703,0.20412
2738.42550,0.20394
2740.35396,0.20447
2742.28243,0.20655
2744.21090,0.20811
2746.13937,0.20775
2748.06784,0.20629
2749.99631,0.20620
2751.92478,0.20821
2753.85325,0.20905
2755.78171,0.20792
2757.71018,0.20828
2759.63865,0.21026
2761.56712,0.21010
2763.49559,0.20940
2765.42406,0.21243
2767.35253,0.21565
2769.28099,0.21431
2771.20946,0.21006
2773.13793,0.20706
2775.06640,0.20645
2776.99487,0.20579
2778.92334,0.20561
2780.85181,0.20881
2782.78028,0.21317
2784.70874,0.21461
2786.63721,0.21421
2788.56568,0.21470
2790.49415,0.21494
2792.42262,0.21350
2794.35109,0.21231
2796.27956,0.21199
2798.20802,0.21022
2800.13649,0.20767
2802.06496,0.20835
2803.99343,0.21156
2805.92190,0.21193
2807.85037,0.21027
2809.77884,0.21173
2811.70731,0.21422
2813.63577,0.21324
2815.56424,0.21079
2817.49271,0.21052
2819.42118,0.21141
2821.34965,0.21063
2823.27812,0.20970
2825.20659,0.21122
2827.13505,0.21315
2829.06352,0.21480
2830.99199,0.21770
2832.92046,0.21898
2834.84893,0.21707
2836.77740,0.21487
2838.70587,0.21364
2840.63433,0.21231
2842.56280,0.21136
2844.49127,0.21264
2846.41974,0.21472
2848.34821,0.21456
2850.27668,0.21213
2852.20515,0.21045
2854.13362,0.21147
2856.06208,0.21268
2857.99055,0.21237
2859.91902,0.21191
2861.84749,0.21095
2863.77596,0.20839
2865.70443,0.20727
2867.63290,0.21051
2869.56136,0.21488
2871.48983,0.21677
2873.41830,0.21726
2875.34677,0.21815
2877.27524,0.21822
2879.20371,0.21612
2881.13218,0.21395
2883.06065,0.21328
2884.98911,0.21323
2886.91758,0.21338
2888.84605,0.21392
2890.77452,0.21465
2892.70299,0.21536
2894.63146,0.21601
2896.55993,0.21591
2898.48839,0.21435
2900.41686,0.21174
2902.34533,0.20990
2904.27380,0.21059
2906.20227,0.21268
2908.13074,0.21347
2910.05921,0.21262
2911.98768,0.21149
2913.91614,0.21089
2915.84461,0.21093
2917.77308,0.21112
2919.70155,0.21125
2921.63002,0.21216
2923.55849,0.21243
2925.48696,0.21125
2927.41542,0.21311
2929.34389,0.21677
2931.27236,0.21641
2933.20083,0.21336
2935.12930,0.21050
2937.05777,0.20961
2938.98624,0.21107
2940.91471,0.21269
2942.84317,0.21346
2944.77164,0.21218
2946.70011,0.21043
2948.62858,0.21134
2950.55705,0.21321
2952.48552,0.21421
2954.41399,0.21539
2956.34245,0.21610
2958.27092,0.21524
2960.19939,0.21520
2962.12786,0.21753
2964.05633,0.22053
2965.98480,0.22367
2967.91327,0.22603
2969.84174,0.22463
2971.77020,0.21998
2973.69867,0.21545
2975.62714,0.21291
2977.55561,0.21372
2979.48408,0.21759
2981.41255,0.22073
2983.34102,0.21998
2985.26948,0.21800
2987.19795,0.21921
2989.12642,0.22284
2991.05489,0.22423
2992.98336,0.22173
2994.91183,0.22009
2996.84030,0.22219
2998.76877,0.22523
3000.69723,0.22698
3002.62570,0.22697
3004.55417,0.22478
3006.48264,0.22154
3008.41111,0.22073
3010.33958,0.22199
3012.26805,0.22105
3014.19651,0.21805
3016.12498,0.21602
3018.05345,0.21565
3019.98192,0.21712
3021.91039,0.22054
3023.83886,0.22258
3025.76733,0.22047
3027.69579,0.21693
3029.62426,0.21593
3031.55273,0.21775
3033.48120,0.21921
3035.40967,0.21986
3037.33814,0.22180
3039.26661,0.22304
3041.19508,0.22174
3043.12354,0.22068
3045.05201,0.22056
3046.98048,0.22016
3048.90895,0.21977
3050.83742,0.21830
3052.76589,0.21660
3054.69436,0.21806
3056.62282,0.22222
3058.55129,0.22493
3060.47976,0.22408
3062.40823,0.22118
3064.33670,0.21793
3066.26517,0.21604
3068.19364,0.21740
3070.12211,0.22014
3072.05057,0.22125
3073.97904,0.22124
3075.90751,0.22166
3077.83598,0.22183
3079.76445,0.22183
3081.69292,0.22257
3083.62139,0.22148
3085.54985,0.21787
3087.47832,0.21556
3089.40679,0.21538
3091.33526,0.21603
3093.26373,0.21802
3095.19220,0.22055
3097.12067,0.22114
3099.04914,0.21961
3100.97760,0.21750
3102.90607,0.21632
3104.83454,0.21785
3106.76301,0.21990
3108.69148,0.21834
3110.61995,0.21517
3112.54842,0.21512
3114.47688,0.21793
3116.40535,0.21969
3118.33382,0.21939
3120.26229,0.22027
3122.19076,0.22334
3124.11923,0.22727
3126.04770,0.23051
3127.97617,0.23028
3129.90463,0.22695
3131.83310,0.22332
3133.76157,0.22075
3135.69004,0.21924
3137.61851,0.22095
3139.54698,0.22676
3141.47545,0.22871
3143.40391,0.22476
3145.33238,0.22249
3147.26085,0.22263
3149.18932,0.22306
3151.11779,0.22423
3153.04626,0.22403
3154.97473,0.22001
3156.90320,0.21490
3158.83166,0.21441
3160.76013,0.21941
3162.68860,0.22491
3164.61707,0.22824
3166.54554,0.23018
3168.47401,0.23121
3170.40248,0.23122
3172.33094,0.23019
3174.25941,0.22967
3176.18788,0.22899
3178.11635,0.22748
3180.04482,0.22730
3181.97329,0.22707
3183.90176,0.22552
3185.83022,0.22550
3187.75869,0.22774
3189.68716,0.22937
3191.61563,0.22846
3193.54410,0.22630
3195.47257,0.22398
3197.40104,0.22100
3199.32951,0.22048
3201.25797,0.22378
3203.18644,0.22545
3205.11491,0.22378
3207.04338,0.22286
3208.97185,0.22403
3210.90032,0.22443
3212.82879,0.22258
3214.75725,0.22055
3216.68572,0.22032
3218.61419,0.22105
3220.54266,0.22100
3222.47113,0.22052
3224.39960,0.21930
3226.32807,0.21684
3228.25654,0.21561
3230.18500,0.21678
3232.11347,0.21840
3234.04194,0.21840
3235.97041,0.21733
3237.89888,0.21845
3239.82735,0.22113
3241.75582,0.22270
3243.68428,0.22301
3245.61275,0.22082
3247.54122,0.21792
3249.46969,0.21794
3251.39816,0.21886
3253.32663,0.21774
3255.25510,0.21646
3257.18357,0.21762
3259.11203,0.21938
3261.04050,0.22004
3262.96897,0.22030
3264.89744,0.21886
3266.82591,0.21554
3268.75438,0.21429
3270.68285,0.21720
3272.61131,0.22160
3274.53978,0.22352
3276.46825,0.22195
3278.39672,0.22022
3280.32519,0.21895
3282.25366,0.21559
3284.18213,0.21222
3286.11060,0.21205
3288.03906,0.21303
3289.96753,0.21206
3291.89600,0.21243
3293.82447,0.21644
3295.75294,0.21931
3297.68141,0.21824
3299.60988,0.21491
3301.53834,0.21378
3303.46681,0.21733
3305.39528,0.21957
3307.32375,0.21701
3309.25222,0.21574
3311.18069,0.21779
3313.10916,0.21899
3315.03763,0.21959
3316.96609,0.22081
3318.89456,0.22005
3320.82303,0.21762
3322.75150,0.21679
3324.67997,0.21864
3326.60844,0.22149
3328.53691,0.22229
3330.46537,0.22059
3332.39384,0.21955
3334.32231,0.22154
3336.25078,0.22342
3338.17925,0.22050
3340.10772,0.21651
3342.03619,0.21695
3343.96466,0.21923
3345.89312,0.22120
3347.82159,0.22416
3349.75006,0.22458
3351.67853,0.22171
3353.60700,0.22242
3355.53547,0.22475
3357.46394,0.22212
3359.39240,0.22069
3361.32087,0.22540
3363.24934,0.22800
3365.17781,0.22433
3367.10628,0.22251
3369.03475,0.22695
3370.96322,0.23179
3372.89168,0.23175
3374.82015,0.22762
3376.74862,0.22351
3378.67709,0.22103
3380.60556,0.21773
3382.53403,0.21555
3384.46250,0.21727
3386.39097,0.21962
3388.31943,0.22155
3390.24790,0.22416
3392.17637,0.22646
3394.10484,0.22819
3396.03331,0.22740
3397.96178,0.22379
3399.89025,0.22212
3401.81871,0.22214
3403.74718,0.22056
3405.67565,0.21826
3407.60412,0.21646
3409.53259,0.21452
3411.46106,0.21124
3413.38953,0.20959
3415.31800,0.21167
3417.24646,0.21374
3419.17493,0.21421
3421.10340,0.21258
3423.03187,0.21043
3424.96034,0.21166
3426.88881,0.21514
3428.81728,0.21731
3430.74574,0.21558
3432.67421,0.21211
3434.60268,0.21087
3436.53115,0.21194
3438.45962,0.21538
3440.38809,0.21775
3442.31656,0.21572
3444.24503,0.21394
3446.17349,0.21282
3448.10196,0.20943
3450.03043,0.20634
3451.95890,0.20484
3453.88737,0.20505
3455.81584,0.20629
3457.74431,0.20523
3459.67277,0.20070
3461.60124,0.19613
3463.52971,0.19513
3465.45818,0.19746
3467.38665,0.20064
3469.31512,0.20190
3471.24359,0.20094
3473.17206,0.20042
3475.10052,0.20193
3477.02899,0.20323
3478.95746,0.20154
3480.88593,0.19837
3482.81440,0.19710
3484.74287,0.19811
3486.67134,0.19988
3488.59980,0.20041
3490.52827,0.19822
3492.45674,0.19674
3494.38521,0.19782
3496.31368,0.19678
3498.24215,0.19389
3500.17062,0.19264
3502.09909,0.19208
3504.02755,0.19050
3505.95602,0.18954
3507.88449,0.19124
3509.81296,0.19071
3511.74143,0.18584
3513.66990,0.18279
3515.59837,0.18283
3517.52683,0.18248
3519.45530,0.18042
3521.38377,0.17989
3523.31224,0.18220
3525.24071,0.18416
3527.16918,0.18385
3529.09765,0.18129
3531.02611,0.17960
3532.95458,0.17986
3534.88305,0.17852
3536.81152,0.17560
3538.73999,0.17426
3540.66846,0.17416
3542.59693,0.17482
3544.52540,0.17547
3546.45386,0.17360
3548.38233,0.17246
3550.31080,0.17375
3552.23927,0.17510
3554.16774,0.17619
3556.09621,0.17405
3558.02468,0.16841
3559.95314,0.16588
3561.88161,0.16831
3563.81008,0.17141
3565.73855,0.17362
3567.66702,0.17206
3569.59549,0.16594
3571.52396,0.16138
3573.45243,0.16042
3575.38089,0.16038
3577.30936,0.15902
3579.23783,0.15877
3581.16630,0.15995
3583.09477,0.16027
3585.02324,0.16184
3586.95171,0.16529
3588.88017,0.16492
3590.80864,0.16293
3592.73711,0.16448
3594.66558,0.16672
3596.59405,0.16473
3598.52252,0.16021
3600.45099,0.15662
3602.37946,0.15509
3604.30792,0.15688
3606.23639,0.16237
3608.16486,0.16549
3610.09333,0.16107
3612.02180,0.15771
3613.95027,0.15996
3615.87874,0.16228
3617.80720,0.16215
3619.73567,0.15907
3621.66414,0.15417
3623.59261,0.15049
3625.52108,0.14972
3627.44955,0.15662
3629.37802,0.16598
3631.30649,0.16049
3633.23495,0.15125
3635.16342,0.14597
3637.09189,0.14262
3639.02036,0.14048
3640.94883,0.14097
3642.87730,0.14457
3644.80577,0.15114
3646.73423,0.15766
3648.66270,0.15872
3650.59117,0.15329
3652.51964,0.14724
3654.44811,0.14404
3656.37658,0.14189
3658.30505,0.13893
3660.23352,0.13742
3662.16198,0.13747
3664.09045,0.13812
3666.01892,0.13991
3667.94739,0.14392
3669.87586,0.14676
3671.80433,0.14449
3673.73280,0.14451
3675.66126,0.14699
3677.58973,0.14504
3679.51820,0.14356
3681.44667,0.14331
3683.37514,0.14149
3685.30361,0.14006
3687.23208,0.14234
3689.16055,0.14786
3691.08901,0.14763
3693.01748,0.14285
3694.94595,0.14059
3696.87442,0.13941
3698.80289,0.13811
3700.73136,0.13823
3702.65983,0.13991
3704.58829,0.14171
3706.51676,0.14326
3708.44523,0.14714
3710.37370,0.15408
3712.30217,0.15190
3714.23064,0.13907
3716.15911,0.13044
3718.08757,0.13070
3720.01604,0.13678
3721.94451,0.14076
3723.87298,0.13996
3725.80145,0.13858
3727.72992,0.13785
3729.65839,0.13889
3731.58686,0.14572
3733.51532,0.15751
3735.44379,0.15832
3737.37226,0.14520
3739.30073,0.13786
3741.22920,0.13787
3743.15767,0.14185
3745.08614,0.15003
3747.01460,0.15378
3748.94307,0.15129
3750.87154,0.14764
3752.80001,0.14436
3754.72848,0.14002
3756.65695,0.13635
3758.58542,0.13327
3760.51389,0.12945
3762.44235,0.12837
3764.37082,0.12995
3766.29929,0.12934
3768.22776,0.12849
3770.15623,0.13114
3772.08470,0.13133
3774.01317,0.12788
3775.94163,0.12576
3777.87010,0.12725
3779.79857,0.13078
3781.72704,0.13251
3783.65551,0.13203
3785.58398,0.13014
3787.51245,0.12802
3789.44092,0.12712
3791.36938,0.12741
3793.29785,0.12799
3795.22632,0.12714
3797.15479,0.12568
3799.08326,0.12767
3801.01173,0.13218
3802.94020,0.13294
3804.86866,0.13055
3806.79713,0.12674
3808.72560,0.12171
3810.65407,0.11926
3812.58254,0.12073
3814.51101,0.12575
3816.43948,0.13201
3818.36795,0.13698
3820.29641,0.14013
3822.22488,0.13675
3824.15335,0.13150
3826.08182,0.12852
3828.01029,0.12449
3829.93876,0.12052
3831.86723,0.11944
3833.79569,0.12097
3835.72416,0.12648
3837.65263,0.13629
3839.58110,0.13952
3841.50957,0.13207
3843.43804,0.12504
3845.36651,0.12183
3847.29498,0.11981
3849.22344,0.12130
3851.15191,0.12811
3853.08038,0.13664
3855.00885,0.13865
3856.93732,0.13578
3858.86579,0.13188
3860.79426,0.12940
3862.72272,0.12930
3864.65119,0.12743
3866.57966,0.12536
3868.50813,0.12682
3870.43660,0.12766
3872.36507,0.12603
3874.29354,0.12278
3876.22200,0.11696
3878.15047,0.11373
3880.07894,0.11581
3882.00741,0.11883
3883.93588,0.12153
3885.86435,0.12323
3887.79282,0.12084
3889.72129,0.11791
3891.64975,0.11571
3893.57822,0.11320
3895.50669,0.11352
3897.43516,0.11964
3899.36363,0.12790
3901.29210,0.12872
3903.22057,0.12300
3905.14903,0.11708
3907.07750,0.11052
3909.00597,0.10549
3910.93444,0.10549
3912.86291,0.10759
3914.79138,0.10863
3916.71985,0.11143
3918.64832,0.11558
3920.57678,0.11728
3922.50525,0.11630
3924.43372,0.11349
3926.36219,0.11211
3928.29066,0.11313
3930.21913,0.11491
3932.14760,0.11657
3934.07606,0.11480
3936.00453,0.11067
3937.93300,0.10824
3939.86147,0.10795
3941.78994,0.10792
3943.71841,0.10677
3945.64688,0.10639
3947.57535,0.10889
3949.50381,0.11175
3951.43228,0.10941
3953.36075,0.10312
3955.28922,0.09841
3957.21769,0.09671
3959.14616,0.09713
3961.07463,0.09915
3963.00309,0.10251
3964.93156,0.10589
3966.86003,0.10682
3968.78850,0.10550
3970.71697,0.10356
3972.64544,0.10076
3974.57391,0.09768
3976.50238,0.09693
3978.43084,0.09911
3980.35931,0.10151
3982.28778,0.10260
3984.21625,0.10294
3986.14472,0.10141
3988.07319,0.09870
3990.00166,0.09878
3991.93012,0.10123
3993.85859,0.10190
3995.78706,0.10153
3997.71553,0.10158
3999.64400,0.10039
4001.57247,0.09898
4003.50094,0.09846
4005.42941,0.09873
4007.35787,0.10039
4009.28634,0.10156
4011.21481,0.10033
4013.14328,0.09792
4015.07175,0.09497
4017.00022,0.09188
4018.92869,0.09271
4020.85715,0.09607
4022.78562,0.09520
4024.71409,0.09289
4026.64256,0.09433
4028.57103,0.09572
4030.49950,0.09427
4032.42797,0.09397
4034.35644,0.09515
4036.28490,0.09473
4038.21337,0.09390
4040.14184,0.09317
4042.07031,0.09173
4043.99878,0.09300
4045.92725,0.09765
4047.85572,0.09903
4049.78418,0.09529
4051.71265,0.09003
4053.64112,0.08433
4055.56959,0.08113
4057.49806,0.08528
4059.42653,0.09419
4061.35500,0.09853
4063.28346,0.09505
4065.21193,0.08936
4067.14040,0.08730
4069.06887,0.08834
4070.99734,0.08846
4072.92581,0.08822
4074.85428,0.08872
4076.78275,0.08783
4078.71121,0.08499
4080.63968,0.08266
4082.56815,0.08315
4084.49662,0.08479
4086.42509,0.08485
4088.35356,0.08345
4090.28203,0.08177
4092.21049,0.08226
4094.13896,0.08467
4096.06743,0.08364
4097.99590,0.07884
4099.92437,0.07555
4101.85284,0.07634
4103.78131,0.08007
4105.70978,0.08217
4107.63824,0.07966
4109.56671,0.07533
4111.49518,0.07313
4113.42365,0.07361
4115.35212,0.07538
4117.28059,0.07785
4119.20906,0.07893
4121.13752,0.07787
4123.06599,0.07855
4124.99446,0.08098
4126.92293,0.08106
4128.85140,0.07780
4130.77987,0.07311
4132.70834,0.07106
4134.63681,0.07299
4136.56527,0.07603
4138.49374,0.07935
4140.42221,0.08060
4142.35068,0.07699
4144.27915,0.07318
4146.20762,0.07402
4148.13609,0.07664
4150.06455,0.07572
4151.99302,0.07284
4153.92149,0.07230
4155.84996,0.07227
4157.77843,0.07116
4159.70690,0.06906
4161.63537,0.06666
4163.56384,0.06701
4165.49230,0.06983
4167.42077,0.07111
4169.34924,0.06834
4171.27771,0.06633
4173.20618,0.07007
4175.13465,0.07312
4177.06312,0.06876
4178.99158,0.06372
4180.92005,0.06578
4182.84852,0.06991
4184.77699,0.06980
4186.70546,0.06660
4188.63393,0.06399
4190.56240,0.06359
4192.49087,0.06395
4194.41933,0.06417
4196.34780,0.06587
4198.27627,0.06876
4200.20474,0.06787
4202.13321,0.06287
4204.06168,0.05844
4205.99015,0.05568
4207.91861,0.05500
4209.84708,0.05678
4211.77555,0.05977
4213.70402,0.06102
4215.63249,0.05868
4217.56096,0.05636
4219.48943,0.05757
4221.41789,0.06167
4223.34636,0.06478
4225.27483,0.06225
4227.20330,0.05650
4229.13177,0.05354
4231.06024,0.05475
4232.98871,0.05861
4234.91718,0.05905
4236.84564,0.05300
4238.77411,0.04833
4240.70258,0.04940
4242.63105,0.05228
4244.55952,0.05286
4246.48799,0.05035
4248.41646,0.04926
4250.34492,0.05187
4252.27339,0.05369
4254.20186,0.05282
4256.13033,0.05180
4258.05880,0.05135
4259.98727,0.05073
4261.91574,0.04909
4263.84421,0.04704
4265.77267,0.04755
4267.70114,0.05002
4269.62961,0.05003
4271.55808,0.04617
4273.48655,0.04229
4275.41502,0.04358
4277.34349,0.04890
4279.27195,0.05057
4281.20042,0.04596
4283.12889,0.04221
4285.05736,0.04333
4286.98583,0.04361
4288.91430,0.04223
4290.84277,0.04466
4292.77124,0.04805
4294.69970,0.04600
4296.62817,0.03826
4298.55664,0.03116
4300.48511,0.03135
4302.41358,0.03600
4304.34205,0.04048
4306.27052,0.04313
4308.19898,0.03975
4310.12745,0.03132
4312.05592,0.02726
4313.98439,0.03188
4315.91286,0.03917
4317.84133,0.04332
4319.76980,0.04349
4321.69827,0.04262
4323.62673,0.04427
4325.55520,0.04629
4327.48367,0.04418
4329.41214,0.03954
4331.34061,0.03533
4333.26908,0.03196
4335.19755,0.03220
4337.12601,0.03300
4339.05448,0.03104
4340.98295,0.03196
4342.91142,0.03334
4344.83989,0.03140
4346.76836,0.03038
4348.69683,0.02928
4350.62530,0.02723
4352.55376,0.02782
4354.48223,0.02869
4356.41070,0.02569
4358.33917,0.02355
4360.26764,0.02821
4362.19611,0.03315
4364.12458,0.03042
4366.05304,0.02644
4367.98151,0.02577
4369.90998,0.02505
4371.83845,0.02601
4373.76692,0.02821
4375.69539,0.02626
4377.62386,0.02048
4379.55232,0.01734
4381.48079,0.02064
4383.40926,0.02629
4385.33773,0.02830
4387.26620,0.02791
4389.19467,0.02795
4391.12314,0.02865
4393.05161,0.03131
4394.98007,0.03257
4396.90854,0.02720
4398.83701,0.01733
4400.76548,0.01155
4402.69395,0.01440
4404.62242,0.01961
4406.55089,0.02143
4408.47935,0.01999
4410.40782,0.01693
4412.33629,0.01393
4414.26476,0.01324
4416.19323,0.01542
4418.12170,0.01585
4420.05017,0.01332
4421.97864,0.01315
4423.90710,0.01438
4425.83557,0.01183
4427.76404,0.00934
4429.69251,0.01220
4431.62098,0.01893
4433.54945,0.02394
4435.47792,0.02133
4437.40638,0.01567
4439.33485,0.01577
4441.26332,0.01820
4443.19179,0.01522
4445.12026,0.00659
4447.04873,-0.00014
4448.97720,0.00281
4450.90567,0.00966
4452.83413,0.01004
4454.76260,0.00708
4456.69107,0.00863
4458.61954,0.01325
4460.54801,0.01544
4462.47648,0.01461
4464.40495,0.01018
4466.33341,0.00523
4468.26188,0.00567
4470.19035,0.00897
4472.11882,0.01119
4474.04729,0.01368
4475.97576,0.01869
4477.90423,0.02245
4479.83270,0.01735
4481.76116,0.00588
4483.68963,-0.00195
4485.61810,-0.00352
4487.54657,-0.00343
4489.47504,-0.00396
4491.40351,-0.00322
4493.33198,-0.00079
4495.26044,-0.00144
4497.18891,-0.00322
4499.11738,0.00076
4501.04585,0.00456
4502.97432,0.00192
4504.90279,0.00009
4506.83126,0.00467
4508.75973,0.00982
4510.68819,0.01055
4512.61666,0.00842
4514.54513,0.00303
4516.47360,-0.00306
4518.40207,-0.00473
4520.33054,-0.00381
4522.25901,-0.00157
4524.18747,0.00338
4526.11594,0.00871
4528.04441,0.01137
4529.97288,0.00910
4531.90135,0.00251
4533.82982,0.00057
4535.75829,0.00629
4537.68676,0.00839
4539.61522,0.00360
4541.54369,0.00076
4543.47216,0.00303
4545.40063,0.00539
4547.32910,0.00535
4549.25757,0.00517
4551.18604,0.00729
4553.11450,0.01284
4555.04297,0.01360
4556.97144,0.00317
4558.89991,-0.00615
4560.82838,-0.00379
4562.75685,0.00349
4564.68532,0.00635
4566.61378,0.00455
4568.54225,0.00364
4570.47072,0.00502
4572.39919,0.00490
4574.32766,0.00343
4576.25613,0.00267
4578.18460,0.00645
4580.11307,0.01571
4582.04153,0.01818
4583.97000,0.00972
4585.89847,0.00159
4587.82694,0.00037
4589.75541,0.00139
4591.68388,-0.00101
4593.61235,-0.00198
4595.54081,0.00237
4597.46928,0.00691
4599.39775,0.00682
4601.32622,0.00374
4603.25469,0.00450
4605.18316,0.00965
4607.11163,0.01187
4609.04010,0.01123
4610.96856,0.01212
4612.89703,0.01275
4614.82550,0.01260
4616.75397,0.01180
4618.68244,0.00987
4620.61091,0.00978
4622.53938,0.00727
4624.46784,-0.00040
4626.39631,-0.00470
4628.32478,-0.00350
4630.25325,-0.00231
4632.18172,-0.00230
4634.11019,-0.00194
4636.03866,-0.00085
4637.96713,0.00205
4639.89559,0.00619
4641.82406,0.00556
4643.75253,-0.00102
4645.68100,-0.00589
4647.60947,-0.00560
4649.53794,-0.00099
4651.46641,0.00719
4653.39487,0.01305
4655.32334,0.01142
4657.25181,0.00541
4659.18028,0.00372
4661.10875,0.00894
4663.03722,0.01193
4664.96569,0.00795
4666.89416,0.00357
4668.82262,0.00282
4670.75109,0.00106
4672.67956,-0.00093
4674.60803,0.00278
4676.53650,0.00642
4678.46497,0.00348
4680.39344,-0.00041
4682.32190,-0.00018
4684.25037,0.00225
4686.17884,0.00390
4688.10731,0.00252
4690.03578,-0.00080
4691.96425,0.00007
4693.89272,0.00192
4695.82119,-0.00285
4697.74965,-0.00727
4699.67812,-0.00596
4701.60659,-0.00514
4703.53506,-0.00859
4705.46353,-0.01073
4707.39200,-0.00437
4709.32047,0.00559
4711.24893,0.00928
4713.17740,0.00706
4715.10587,0.00353
4717.03434,0.00233
4718.96281,0.00712
4720.89128,0.01291
4722.81975,0.01354
4724.74821,0.01381
4726.67668,0.01275
4728.60515,0.00507
4730.53362,0.00028
4732.46209,0.00646
4734.39056,0.01209
4736.31903,0.00807
4738.24750,0.00745
4740.17596,0.01644
4742.10443,0.02214
4744.03290,0.01904
4745.96137,0.01048
4747.88984,0.00382
4749.81831,0.00715
4751.74678,0.01583
4753.67524,0.01926
4755.60371,0.01564
4757.53218,0.00892
4759.46065,0.00138
4761.38912,-0.00362
4763.31759,-0.00182
4765.24606,0.00172
4767.17453,-0.00223
4769.10299,-0.01010
4771.03146,-0.01139
4772.95993,-0.00279
4774.88840,0.00811
4776.81687,0.00897
4778.74534,0.00251
4780.67381,0.00079
4782.60227,0.00444
4784.53074,0.00562
4786.45921,-0.00089
4788.38768,-0.00714
4790.31615,-0.00173
4792.24462,0.00844
4794.17309,0.01251
4796.10156,0.01257
4798.03002,0.01385
4799.95849,0.01339
4801.88696,0.00742
4803.81543,0.00360
4805.74390,0.00640
4807.67237,0.00506
4809.60084,-0.00137
4811.52930,-0.00101
4813.45777,0.00701
4815.38624,0.00891
4817.31471,-0.00386
4819.24318,-0.01871
4821.17165,-0.01967
4823.10012,-0.00465
4825.02859,0.01591
4826.95705,0.02631
4828.88552,0.02096
4830.81399,0.00880
4832.74246,0.00207
4834.67093,0.00545
4836.59940,0.00783
4838.52787,0.00003
4840.45633,-0.00749
4842.38480,-0.00565
4844.31327,0.00089
4846.24174,0.00608
4848.17021,0.00915
4850.09868,0.00951
4852.02715,0.00761
4853.95562,0.00945
4855.88408,0.01436
4857.81255,0.01401
4859.74102,0.00570
4861.66949,-0.00279
4863.59796,-0.00457
4865.52643,-0.00402
4867.45490,-0.00218
4869.38336,0.00347
4871.31183,0.00554
4873.24030,0.00294
4875.16877,0.00461
4877.09724,0.00837
4879.02571,0.01057
4880.95418,0.01452
4882.88265,0.01599
4884.81111,0.00625
4886.73958,-0.00984
4888.66805,-0.01259
4890.59652,-0.00201
4892.52499,-0.00321
4894.45346,-0.01468
4896.38193,-0.01273
4898.31039,-0.00249
4900.23886,-0.00759
4902.16733,-0.02390
4904.09580,-0.02942
4906.02427,-0.01766
4907.95274,-0.00112
4909.88121,0.01072
4911.80967,0.01381
4913.73814,0.00916
4915.66661,0.00632
4917.59508,0.00704
4919.52355,0.00224
4921.45202,-0.00539
4923.38049,-0.00681
4925.30896,-0.00091
4927.23742,0.00607
4929.16589,0.00865
4931.09436,0.00704
4933.02283,0.00373
4934.95130,0.00120
4936.87977,0.00047
4938.80824,0.00017
4940.73670,-0.00226
4942.66517,-0.00197
4944.59364,0.00399
4946.52211,0.00761
4948.45058,0.00654
4950.37905,0.00866
4952.30752,0.01229
4954.23599,0.01177
4956.16445,0.00795
4958.09292,0.00035
4960.02139,-0.00621
4961.94986,-0.00947
4963.87833,-0.01439
4965.80680,-0.01503
4967.73527,-0.00962
4969.66373,-0.00263
4971.59220,0.00715
4973.52067,0.01316
4975.44914,0.01472
4977.37761,0.01782
4979.30608,0.01226
4981.23455,0.00094
4983.16302,0.00330
4985.09148,0.01735
4987.01995,0.02436
4988.94842,0.01587
4990.87689,0.00470
4992.80536,0.00030
4994.73383,-0.00439
4996.66230,-0.01198
4998.59076,-0.01504
5000.51923,-0.00913
5002.44770,-0.00131
5004.37617,0.00049
5006.30464,-0.00101
5008.23311,0.00287
5010.16158,0.01468
5012.09005,0.02068
5014.01851,0.01157
5015.94698,0.00334
5017.87545,0.00886
5019.80392,0.01750
5021.73239,0.02033
5023.66086,0.01923
5025.58933,0.01336
5027.51779,0.00191
5029.44626,-0.00909
5031.37473,-0.01454
5033.30320,-0.01344
5035.23167,-0.00507
5037.16014,0.00616
5039.08861,0.01125
5041.01708,0.00943
5042.94554,0.00939
5044.87401,0.01430
5046.80248,0.01399
5048.73095,0.00773
5050.65942,0.00854
5052.58789,0.01070
5054.51636,0.00440
5056.44482,-0.00142
5058.37329,-0.00513
5060.30176,-0.00962
5062.23023,-0.00554
5064.15870,0.00720
5066.08717,0.01298
5068.01564,0.00747
5069.94410,0.00697
5071.87257,0.01447
5073.80104,0.01388
5075.72951,0.00805
5077.65798,0.01060
5079.58645,0.01196
5081.51492,0.00284
5083.44339,-0.00346
5085.37185,0.00031
5087.30032,0.00630
5089.22879,0.01249
5091.15726,0.02326
5093.08573,0.03100
5095.01420,0.02767
5096.94267,0.02144
5098.87113,0.01873
5100.79960,0.01605
5102.72807,0.01296
5104.65654,0.01238
5106.58501,0.01657
5108.51348,0.02193
5110.44195,0.01753
5112.37042,0.00433
5114.29888,-0.00239
5116.22735,0.00228
5118.15582,0.01039
5120.08429,0.00803
5122.01276,-0.00486
5123.94123,-0.00702
5125.86970,0.00449
5127.79816,0.01121
5129.72663,0.01219
5131.65510,0.01778
5133.58357,0.02373
5135.51204,0.02003
5137.44051,0.00844
5139.36898,0.00095
5141.29745,0.00103
5143.22591,0.00181
5145.15438,-0.00187
5147.08285,-0.00840
5149.01132,-0.00930
5150.93979,-0.00468
5152.86826,0.00181
5154.79673,0.01064
5156.72519,0.01732
5158.65366,0.02129
5160.58213,0.02766
5162.51060,0.03488
5164.43907,0.03491
5166.36754,0.03103
5168.29601,0.03136
5170.22448,0.03231
5172.15294,0.02984
5174.08141,0.02192
5176.00988,0.01445
5177.93835,0.01942
5179.86682,0.03011
5181.79529,0.03369
5183.72376,0.03471
5185.65222,0.03505
5187.58069,0.03161
5189.50916,0.02811
5191.43763,0.01978
5193.36610,0.00858
5195.29457,0.00618
5197.22304,0.00716
5199.15151,0.00426
5201.07997,0.00482
5203.00844,0.01180
5204.93691,0.01539
5206.86538,0.01117
5208.79385,0.00872
5210.72232,0.00937
5212.65079,0.00583
5214.57925,0.00062
5216.50772,0.00330
5218.43619,0.00871
5220.36466,0.00325
5222.29313,-0.00426
5224.22160,0.00545
5226.15007,0.02747
5228.07854,0.03457
5230.00700,0.02900
5231.93547,0.03079
5233.86394,0.03289
5235.79241,0.02561
5237.72088,0.02192
5239.64935,0.02758
5241.57782,0.03117
5243.50628,0.03325
5245.43475,0.04466
5247.36322,0.05210
5249.29169,0.04081
5251.22016,0.02782
5253.14863,0.02510
5255.07710,0.03075
5257.00556,0.04308
5258.93403,0.04728
5260.86250,0.03006
5262.79097,0.00670
5264.71944,0.01020
5266.64791,0.03982
5268.57638,0.05640
5270.50485,0.04379
5272.43331,0.02802
5274.36178,0.02854
5276.29025,0.03552
5278.21872,0.03884
5280.14719,0.03734
5282.07566,0.03112
5284.00413,0.02912
5285.93259,0.03555
5287.86106,0.03703
5289.78953,0.02968
5291.71800,0.02558
5293.64647,0.03460
5295.57494,0.04702
5297.50341,0.04490
5299.43188,0.03541
5301.36034,0.04137
5303.28881,0.05763
5305.21728,0.06296
5307.14575,0.05390
5309.07422,0.03520
5311.00269,0.01585
5312.93116,0.00592
5314.85962,0.00220
5316.78809,0.00119
5318.71656,0.00944
5320.64503,0.02229
5322.57350,0.02765
5324.50197,0.02656
5326.43044,0.02724
5328.35891,0.03067
5330.28737,0.03041
5332.21584,0.02549
5334.14431,0.02370
5336.07278,0.03304
5338.00125,0.04879
5339.92972,0.05369
5341.85819,0.05129
5343.78665,0.05030
5345.71512,0.04508
5347.64359,0.03780
5349.57206,0.02438
5351.50053,0.00444
5353.42900,0.00501
5355.35747,0.03206
5357.28594,0.05044
5359.21440,0.04840
5361.14287,0.04246
5363.07134,0.04456
5364.99981,0.04613
5366.92828,0.04378
5368.85675,0.04534
5370.78522,0.04700
5372.71368,0.04636
5374.64215,0.05181
5376.57062,0.05452
5378.49909,0.04439
5380.42756,0.03875
5382.35603,0.04490
5384.28450,0.05283
5386.21297,0.05044
5388.14143,0.04503
5390.06990,0.04819
5391.99837,0.05309
5393.92684,0.05562
5395.85531,0.05717
5397.78378,0.05732
5399.71225,0.05971
5401.64071,0.05916
5403.56918,0.04816
5405.49765,0.04366
5407.42612,0.06022
5409.35459,0.07224
5411.28306,0.05993
5413.21153,0.04838
5415.13999,0.04887
5417.06846,0.04642
5418.99693,0.04307
5420.92540,0.04788
5422.85387,0.06705
5424.78234,0.08619
5426.71081,0.08708
5428.63928,0.07842
5430.56774,0.07140
5432.49621,0.06462
5434.42468,0.05566
5436.35315,0.05033
5438.28162,0.04897
5440.21009,0.04194
5442.13856,0.03778
5444.06702,0.04536
5445.99549,0.04957
5447.92396,0.04874
5449.85243,0.06117
5451.78090,0.07027
5453.70937,0.05780
5455.63784,0.04655
5457.56631,0.05118
5459.49477,0.05393
5461.42324,0.05057
5463.35171,0.05049
5465.28018,0.04832
5467.20865,0.04462
5469.13712,0.05126
5471.06559,0.06034
5472.99405,0.05906
5474.92252,0.05014
5476.85099,0.04278
5478.77946,0.04028
5480.70793,0.03528
5482.63640,0.02995
5484.56487,0.04081
5486.49334,0.06436
5488.42180,0.07603
5490.35027,0.06509
5492.27874,0.04249
5494.20721,0.02896
5496.13568,0.02970
5498.06415,0.03780
5499.99262,0.04860
5501.92108,0.05724
5503.84955,0.07097
5505.77802,0.08892
5507.70649,0.09037
5509.63496,0.07952
5511.56343,0.07735
5513.49190,0.07507
5515.42037,0.05853
5517.34883,0.04381
5519.27730,0.04504
5521.20577,0.04660
5523.13424,0.03970
5525.06271,0.03043
5526.99118,0.01881
5528.91965,0.01849
5530.84811,0.04447
5532.77658,0.07087
5534.70505,0.07252
5536.63352,0.05965
5538.56199,0.04835
5540.49046,0.05078
5542.41893,0.06643
5544.34740,0.07495
5546.27586,0.07197
5548.20433,0.07064
5550.13280,0.07030
5552.06127,0.06569
5553.98974,0.06271
5555.91821,0.06408
5557.84668,0.07074
5559.77514,0.07784
5561.70361,0.07017
5563.63208,0.05543
5565.56055,0.05739
5567.48902,0.07441
5569.41749,0.08750
5571.34596,0.09232
5573.27443,0.08495
5575.20289,0.06341
5577.13136,0.05177
5579.05983,0.06198
5580.98830,0.08265
5582.91677,0.09667
5584.84524,0.09610
5586.77371,0.09579
5588.70217,0.10066
5590.63064,0.09094
5592.55911,0.06801
5594.48758,0.05907
5596.41605,0.06697
5598.34452,0.07256
5600.27299,0.08266
5602.20145,0.10009
5604.12992,0.09700
5606.05839,0.07412
5607.98686,0.05966
5609.91533,0.06100
5611.84380,0.06602
5613.77227,0.06151
5615.70074,0.05217
5617.62920,0.06090
5619.55767,0.08005
5621.48614,0.07572
5623.41461,0.05638
5625.34308,0.04981
5627.27155,0.05840
5629.20002,0.06548
5631.12848,0.05159
5633.05695,0.02575
5634.98542,0.01607
5636.91389,0.02573
5638.84236,0.03459
5640.77083,0.04039
5642.69930,0.05501
5644.62777,0.07125
5646.55623,0.07416
5648.48470,0.07405
5650.41317,0.07935
5652.34164,0.07754
5654.27011,0.07170
5656.19858,0.06729
5658.12705,0.06041
5660.05551,0.05367
5661.98398,0.04969
5663.91245,0.05648
5665.84092,0.07523
5667.76939,0.08243
5669.69786,0.06601
5671.62633,0.05527
5673.55480,0.06974
5675.48326,0.08200
5677.41173,0.07837
5679.34020,0.07899
5681.26867,0.08711
5683.19714,0.09302
5685.12561,0.09562
5687.05408,0.09554
5688.98254,0.09421
5690.91101,0.09627
5692.83948,0.08915
5694.76795,0.06641
5696.69642,0.06027
5698.62489,0.07647
5700.55336,0.08370
5702.48183,0.08470
5704.41029,0.09216
5706.33876,0.09559
5708.26723,0.08674
5710.19570,0.07524
5712.12417,0.07380
5714.05264,0.08461
5715.98111,0.09379
5717.90957,0.08720
5719.83804,0.07573
5721.76651,0.07284
5723.69498,0.07346
5725.62345,0.07437
5727.55192,0.08209
5729.48039,0.08938
5731.40886,0.07489
5733.33732,0.04288
5735.26579,0.01964
5737.19426,0.01418
5739.12273,0.01384
5741.05120,0.01854
5742.97967,0.03720
5744.90814,0.06127
5746.83660,0.07196
5748.76507,0.06677
5750.69354,0.06292
5752.62201,0.07544
5754.55048,0.09438
5756.47895,0.09774
5758.40742,0.08390
5760.33588,0.07178
5762.26435,0.07892
5764.19282,0.09467
5766.12129,0.08653
5768.04976,0.05265
5769.97823,0.03735
5771.90670,0.06817
5773.83517,0.09943
5775.76363,0.08874
5777.69210,0.06538
5779.62057,0.06122
5781.54904,0.05879
5783.47751,0.04657
5785.40598,0.05038
5787.33445,0.06990
5789.26291,0.06814
5791.19138,0.05058
5793.11985,0.03703
5795.04832,0.01876
5796.97679,0.01054
5798.90526,0.03183
5800.83373,0.05414
5802.76220,0.05374
5804.69066,0.05350
5806.61913,0.05758
5808.54760,0.04568
5810.47607,0.03598
5812.40454,0.04656
5814.33301,0.06672
5816.26148,0.08447
5818.18994,0.07693
5820.11841,0.03840
5822.04688,0.01564
5823.97535,0.02981
5825.90382,0.05071
5827.83229,0.05451
5829.76076,0.03566
5831.68923,0.01357
5833.61769,0.00918
5835.54616,0.02231
5837.47463,0.04327
5839.40310,0.05072
5841.33157,0.03347
5843.26004,0.02732
5845.18851,0.04901
5847.11697,0.05749
5849.04544,0.04327
5850.97391,0.04093
5852.90238,0.05650
5854.83085,0.08086
5856.75932,0.09978
5858.68779,0.09272
5860.61626,0.06855
5862.54472,0.04504
5864.47319,0.03689
5866.40166,0.05843
5868.33013,0.07750
5870.25860,0.07782
5872.18707,0.08955
5874.11554,0.10596
5876.04400,0.10007
5877.97247,0.07651
5879.90094,0.06548
5881.82941,0.07263
5883.75788,0.07309
5885.68635,0.06955
5887.61482,0.07210
5889.54329,0.07231
5891.47175,0.06455
5893.40022,0.05550
5895.32869,0.05092
5897.25716,0.04243
5899.18563,0.03610
5901.11410,0.03522
5903.04257,0.02515
5904.97103,0.02615
5906.89950,0.05435
5908.82797,0.08181
5910.75644,0.09628
5912.68491,0.10016
5914.61338,0.07586
5916.54185,0.04944
5918.47032,0.05910
5920.39878,0.06826
5922.32725,0.05662
5924.25572,0.04501
5926.18419,0.02861
5928.11266,0.03480
5930.04113,0.07924
5931.96960,0.09877
5933.89806,0.07387
5935.82653,0.06024
5937.75500,0.07206
5939.68347,0.07964
5941.61194,0.07222
5943.54041,0.06273
5945.46888,0.06635
5947.39734,0.08127
5949.32581,0.09394
5951.25428,0.09448
5953.18275,0.08540
5955.11122,0.07535
5957.03969,0.08221
5958.96816,0.10304
5960.89663,0.10517
5962.82509,0.09278
5964.75356,0.09097
5966.68203,0.09835
5968.61050,0.09462
5970.53897,0.08024
5972.46744,0.07882
5974.39591,0.08770
5976.32437,0.08881
5978.25284,0.08048
5980.18131,0.07459
5982.10978,0.07164
5984.03825,0.07076
5985.96672,0.08669
5987.89519,0.10453
5989.82366,0.10390
5991.75212,0.09099
5993.68059,0.07467
5995.60906,0.07424
5997.53753,0.07923
5999.46600,0.05666
6001.39447,0.02966
6003.32294,0.03550
6005.25140,0.05792
6007.17987,0.06576
6009.10834,0.06482
6011.03681,0.06179
6012.96528,0.05099
6014.89375,0.04774
6016.82222,0.05892
6018.75069,0.07130
6020.67915,0.09074
6022.60762,0.11167
6024.53609,0.11137
6026.46456,0.09988
6028.39303,0.09474
6030.32150,0.08145
6032.24997,0.06066
6034.17843,0.06390
6036.10690,0.08568
6038.03537,0.08930
6039.96384,0.06710
6041.89231,0.04020
6043.82078,0.03624
6045.74925,0.05411
6047.67772,0.06414
6049.60618,0.06068
6051.53465,0.06469
6053.46312,0.07693
6055.39159,0.07061
6057.32006,0.04232
6059.24853,0.04881
6061.17700,0.09662
6063.10546,0.11755
6065.03393,0.11013
6066.96240,0.12339
6068.89087,0.14049
6070.81934,0.11988
6072.74781,0.08351
6074.67628,0.06047
6076.60475,0.04797
6078.53321,0.05319
6080.46168,0.06117
6082.39015,0.05997
6084.31862,0.07379
6086.24709,0.09531
6088.17556,0.10307
6090.10403,0.11443
6092.03249,0.11404
6093.96096,0.07376
6095.88943,0.03957
6097.81790,0.05832
6099.74637,0.11197
6101.67484,0.14299
6103.60331,0.12134
6105.53177,0.08361
6107.46024,0.06494
6109.38871,0.04897
6111.31718,0.02470
6113.24565,0.01566
6115.17412,0.02976
6117.10259,0.06521
6119.03106,0.09445
6120.95952,0.08073
6122.88799,0.04365
6124.81646,0.01537
6126.74493,0.02693
6128.67340,0.06890
6130.60187,0.07964
6132.53034,0.06228
6134.45880,0.06180
6136.38727,0.07726
6138.31574,0.08767
6140.24421,0.08379
6142.17268,0.07595
6144.10115,0.06867
6146.02962,0.05462
6147.95809,0.04772
6149.88655,0.04716
6151.81502,0.03733
6153.74349,0.03263
6155.67196,0.05669
6157.60043,0.08686
6159.52890,0.09341
6161.45737,0.09675
6163.38583,0.09840
6165.31430,0.08175
6167.24277,0.07134
6169.17124,0.08679
6171.09971,0.09785
6173.02818,0.07117
6174.95665,0.04935
6176.88512,0.05798
6178.81358,0.06237
6180.74205,0.06174
6182.67052,0.06664
6184.59899,0.05187
6186.52746,0.02042
6188.45593,0.02596
6190.38440,0.07358
6192.31286,0.10297
6194.24133,0.08995
6196.16980,0.07319
6198.09827,0.08341
6200.02674,0.09125
6201.95521,0.07762
6203.88368,0.05402
6205.81215,0.03513
6207.74061,0.04571
6209.66908,0.06845
6211.59755,0.05646
6213.52602,0.04026
6215.45449,0.04367
6217.38296,0.04782
6219.31143,0.06711
6221.23989,0.09117
6223.16836,0.07024
6225.09683,0.02613
6227.02530,0.01913
6228.95377,0.04299
6230.88224,0.07149
6232.81071,0.07922
6234.73918,0.06492
6236.66764,0.05832
6238.59611,0.06014
6240.52458,0.06233
6242.45305,0.07668
6244.38152,0.09437
6246.30999,0.08507
6248.23846,0.06228
6250.16692,0.05675
6252.09539,0.05173
6254.02386,0.03581
6255.95233,0.03671
6257.88080,0.05215
6259.80927,0.05649
6261.73774,0.04696
6263.66621,0.02015
6265.59467,-0.01187
6267.52314,-0.00747
6269.45161,0.03585
6271.38008,0.06810
6273.30855,0.05226
6275.23702,0.02957
6277.16549,0.05707
6279.09395,0.08992
6281.02242,0.08254
6282.95089,0.06410
6284.87936,0.06524
6286.80783,0.07548
6288.73630,0.07066
6290.66477,0.04348
6292.59323,0.01357
6294.52170,0.00522
6296.45017,0.02219
6298.37864,0.04336
6300.30711,0.05570
6302.23558,0.05529
6304.16405,0.02398
6306.09252,-0.02402
6308.02098,-0.02956
6309.94945,0.02142
6311.87792,0.08127
6313.80639,0.11695
6315.73486,0.10677
6317.66333,0.04768
6319.59180,-0.00027
6321.52026,0.00723
6323.44873,0.04178
6325.37720,0.08204
6327.30567,0.12059
6329.23414,0.12541
6331.16261,0.09745
6333.09108,0.07836
6335.01955,0.09398
6336.94801,0.12006
6338.87648,0.10589
6340.80495,0.06813
6342.73342,0.06494
6344.66189,0.07278
6346.59036,0.03990
6348.51883,0.00287
6350.44729,0.00773
6352.37576,0.01323
6354.30423,0.00383
6356.23270,0.02825
6358.16117,0.07111
6360.08964,0.09442
6362.01811,0.11735
6363.94658,0.12702
6365.87504,0.10435
6367.80351,0.08804
6369.73198,0.09172
6371.66045,0.09281
6373.58892,0.07476
6375.51739,0.04241
6377.44586,0.02886
6379.37432,0.04947
6381.30279,0.06892
6383.23126,0.05453
6385.15973,0.01156
6387.08820,-0.03148
6389.01667,-0.01681
6390.94514,0.06370
6392.87361,0.10725
6394.80207,0.06287
6396.73054,0.02183
6398.65901,0.01754
6400.58748,0.01442
6402.51595,0.00753
6404.44442,0.01638
6406.37289,0.03770
6408.30135,0.06283
6410.22982,0.10162
6412.15829,0.12098
6414.08676,0.08943
6416.01523,0.05111
6417.94370,0.03269
6419.87217,0.02115
6421.80064,0.00978
6423.72910,0.01845
6425.65757,0.04268
6427.58604,0.06063
6429.51451,0.08163
6431.44298,0.08409
6433.37145,0.06074
6435.29992,0.03376
6437.22838,0.01394
6439.15685,0.00589
6441.08532,0.00170
6443.01379,0.03233
6444.94226,0.07844
6446.87073,0.06504
6448.79920,0.00320
6450.72766,-0.03163
6452.65613,-0.01154
6454.58460,0.00641
6456.51307,-0.00156
6458.44154,0.00578
6460.37001,0.03797
6462.29848,0.05070
6464.22695,0.04577
6466.15541,0.05191
6468.08388,0.05701
6470.01235,0.04679
6471.94082,0.02204
6473.86929,0.01628
6475.79776,0.04208
6477.72623,0.07513
6479.65469,0.10251
6481.58316,0.08525
6483.51163,0.01245
6485.44010,-0.05479
6487.36857,-0.06686
6489.29704,-0.00158
6491.22551,0.08367
6493.15398,0.09376
6495.08244,0.06622
6497.01091,0.05704
6498.93938,0.04836
6500.86785,0.03397
6502.79632,0.02472
6504.72479,0.03087
6506.65326,0.05066
6508.58172,0.09283
6510.51019,0.13757
6512.43866,0.12364
6514.36713,0.06498
6516.29560,0.03528
6518.22407,0.04405
6520.15254,0.04142
6522.08101,0.01662
6524.00947,-0.01025
6525.93794,-0.00875
6527.86641,0.02829
6529.79488,0.05463
6531.72335,0.04484
6533.65182,0.02209
6535.58029,0.02630
6537.50875,0.05054
6539.43722,0.03529
6541.36569,-0.01548
6543.29416,-0.03195
6545.22263,0.00037
6547.15110,0.02493
6549.07957,0.03271
6551.00804,0.07555
6552.93650,0.12527
6554.86497,0.10530
6556.79344,0.04285
6558.72191,0.00934
6560.65038,0.02066
6562.57885,0.02834
6564.50732,0.02837
6566.43578,0.06676
6568.36425,0.09190
6570.29272,0.06363
6572.22119,0.04659
6574.14966,0.05284
6576.07813,0.04017
6578.00660,0.00655
6579.93507,-0.02732
6581.86353,-0.01890
6583.79200,0.04111
6585.72047,0.07155
6587.64894,0.03295
6589.57741,-0.00828
6591.50588,0.01652
6593.43435,0.06973
6595.36281,0.07692
6597.29128,0.05339
6599.21975,0.03311
6601.14822,0.03179
6603.07669,0.05231
6605.00516,0.06251
6606.93363,0.04294
6608.86210,0.01770
6610.79056,0.00987
6612.71903,0.02673
6614.64750,0.06144
6616.57597,0.07526
6618.50444,0.04269
6620.43291,-0.00853
6622.36138,-0.02408
6624.28984,0.00399
6626.21831,0.02734
6628.14678,0.03011
6630.07525,0.02765
6632.00372,0.05745
6633.93219,0.10703
6635.86066,0.12228
6637.78912,0.12238
6639.71759,0.10016
6641.64606,0.03535
6643.57453,-0.00245
6645.50300,0.00292
6647.43147,0.01268
6649.35994,0.02944
6651.28841,0.03551
6653.21687,0.00290
6655.14534,-0.05528
6657.07381,-0.07139
6659.00228,-0.01517
6660.93075,0.04311
6662.85922,0.06631
6664.78769,0.07335
6666.71615,0.06492
6668.64462,0.05282
6670.57309,0.09532
6672.50156,0.15556
6674.43003,0.12000
6676.35850,0.05744
6678.28697,0.04595
6680.21544,0.04378
6682.14390,0.06084
6684.07237,0.10789
6686.00084,0.13661
6687.92931,0.12555
6689.85778,0.09634
6691.78625,0.08225
6693.71472,0.06661
6695.64318,0.02579
6697.57165,-0.03652
6699.50012,-0.06955
6701.42859,-0.01939
6703.35706,0.04053
6705.28553,0.03682
6707.21400,0.00625
6709.14247,-0.03082
6711.07093,-0.04468
6712.99940,-0.01066
6714.92787,0.03032
6716.85634,0.03957
6718.78481,0.03917
6720.71328,0.06057
6722.64175,0.09609
6724.57021,0.11349
6726.49868,0.09907
6728.42715,0.08560
6730.35562,0.07668
6732.28409,0.01302
6734.21256,-0.06036
6736.14103,-0.05481
6738.06950,-0.02873
6739.99796,-0.00158
6741.92643,0.07491
6743.85490,0.12672
6745.78337,0.10650
6747.71184,0.06851
6749.64031,0.05853
6751.56878,0.06677
6753.49724,0.04912
6755.42571,0.00175
6757.35418,-0.03045
6759.28265,-0.04919
6761.21112,-0.06466
6763.13959,-0.03570
6765.06806,0.02941
6766.99653,0.05542
6768.92499,0.01909
6770.85346,-0.00640
6772.78193,0.00862
6774.71040,0.03080
6776.63887,0.04473
6778.56734,0.04168
6780.49581,0.02170
6782.42427,-0.00723
6784.35274,-0.03410
6786.28121,-0.06633
6788.20968,-0.08221
6790.13815,-0.05309
6792.06662,-0.03756
6793.99509,-0.04639
6795.92355,-0.02627
6797.85202,0.02104
6799.78049,0.08023
6801.70896,0.10563
6803.63743,0.06950
6805.56590,0.03172
6807.49437,0.01730
6809.42284,-0.00695
6811.35130,0.00426
6813.27977,0.08796
6815.20824,0.10505
6817.13671,0.04015
6819.06518,0.04326
6820.99365,0.07185
6822.92212,0.03211
6824.85058,0.02153
6826.77905,0.07083
6828.70752,0.08041
6830.63599,0.04535
6832.56446,0.04299
6834.49293,0.08461
6836.42140,0.10181
6838.34987,0.07414
6840.27833,0.04508
6842.20680,0.01545
6844.13527,0.02017
6846.06374,0.05740
6847.99221,0.05619
6849.92068,0.02541
6851.84915,0.00873
6853.77761,-0.01328
6855.70608,-0.03733
6857.63455,-0.05524
6859.56302,-0.08772
6861.49149,-0.10000
6863.41996,-0.04878
6865.34843,0.02040
6867.27690,0.07132
6869.20536,0.09534
6871.13383,0.08276
6873.06230,0.06522
6874.99077,0.09328
6876.91924,0.13559
6878.84771,0.13036
6880.77618,0.07387
6882.70464,0.01453
6884.63311,-0.02216
6886.56158,-0.02208
6888.49005,0.00412
6890.41852,0.04324
6892.34699,0.09903
6894.27546,0.14250
6896.20393,0.13761
6898.13239,0.07133
6900.06086,0.00435
6901.98933,-0.03520
6903.91780,-0.08869
6905.84627,-0.12024
6907.77474,-0.08147
6909.70321,-0.01034
6911.63167,0.06295
6913.56014,0.10595
6915.48861,0.11404
6917.41708,0.12882
6919.34555,0.11717
6921.27402,0.08403
6923.20249,0.10370
6925.13096,0.12318
6927.05942,0.11226
6928.98789,0.12043
6930.91636,0.11284
6932.84483,0.03196
6934.77330,-0.02595
6936.70177,0.01366
6938.63024,0.12442
6940.55870,0.18760
6942.48717,0.10601
6944.41564,0.01517
6946.34411,0.01781
6948.27258,0.05916
6950.20105,0.10339
6952.12952,0.15696
6954.05799,0.16517
6955.98645,0.07856
6957.91492,-0.04579
6959.84339,-0.09170
6961.77186,-0.03095
6963.70033,0.04223
6965.62880,0.08398
6967.55727,0.09579
6969.48573,0.05389
6971.41420,-0.00024
6973.34267,0.03957
6975.27114,0.11638
6977.19961,0.09683
6979.12808,0.08448
6981.05655,0.13601
6982.98501,0.13268
6984.91348,0.06468
6986.84195,0.00415
6988.77042,-0.04869
6990.69889,-0.04492
6992.62736,0.00013
6994.55583,0.00879
6996.48430,-0.02999
6998.41276,-0.04786
7000.34123,0.02919
7002.26970,0.10990
7004.19817,0.09203
7006.12664,0.03933
7008.05511,0.02574
7009.98358,-0.00668
7011.91204,-0.09545
7013.84051,-0.16004
7015.76898,-0.13113
7017.69745,-0.04068
7019.62592,0.05204
7021.55439,0.10085
7023.48286,0.12178
7025.41133,0.11327
7027.33979,0.06638
7029.26826,0.01975
7031.19673,-0.00795
7033.12520,0.00016
7035.05367,0.03629
7036.98214,0.03519
7038.91061,0.02238
7040.83907,0.04170
7042.76754,0.05334
7044.69601,0.01078
7046.62448,-0.03325
7048.55295,-0.06664
7050.48142,-0.08934
7052.40989,-0.05397
7054.33836,0.02480
7056.26682,0.09721
7058.19529,0.14669
7060.12376,0.17489
7062.05223,0.15623
7063.98070,0.10511
7065.90917,0.09898
7067.83764,0.09063
7069.76610,0.01696
7071.69457,-0.05908
7073.62304,-0.07211
7075.55151,-0.04840
7077.47998,-0.04221
7079.40845,-0.05783
7081.33692,-0.03877
7083.26539,-0.00620
7085.19385,-0.02171
7087.12232,-0.03434
7089.05079,0.00248
7090.97926,0.03816
7092.90773,0.05181
7094.83620,0.05530
7096.76467,0.06877
7098.69313,0.11780
7100.62160,0.13042
7102.55007,0.09076
7104.47854,0.06198
7106.40701,0.05595
7108.33548,0.02014
7110.26395,-0.01877
7112.19242,-0.04095
7114.12088,-0.09758
7116.04935,-0.13779
7117.97782,-0.04969
7119.90629,0.03025
7121.83476,0.02872
7123.76323,0.06034
7125.69170,0.09585
7127.62016,0.06625
7129.54863,0.00565
7131.47710,-0.03268
7133.40557,-0.05042
7135.33404,-0.02478
7137.26251,0.07544
7139.19098,0.13874
7141.11944,0.04417
7143.04791,-0.08661
7144.97638,-0.07739
7146.90485,0.03790
7148.83332,0.08652
7150.76179,0.09302
7152.69026,0.16160
7154.61873,0.19118
7156.54719,0.13152
7158.47566,0.12222
7160.40413,0.14761
7162.33260,0.17687
7164.26107,0.22395
7166.18954,0.20336
7168.11801,0.10807
7170.04647,0.04370
7171.97494,0.01495
7173.90341,-0.04775
7175.83188,-0.09037
7177.76035,0.00195
7179.68882,0.14134
7181.61729,0.16858
7183.54576,0.12428
7185.47422,0.14282
7187.40269,0.18876
7189.33116,0.18670
7191.25963,0.11652
7193.18810,0.09017
7195.11657,0.12029
7197.04504,0.09956
7198.97350,0.06198
7200.90197,0.05062
7202.83044,0.03364
7204.75891,-0.00074
7206.68738,-0.02439
7208.61585,-0.03044
7210.54432,-0.02093
7212.47279,0.00159
7214.40125,0.01810
7216.32972,0.02849
7218.25819,0.01346
7220.18666,-0.00994
7222.11513,0.04568
7224.04360,0.14104
7225.97207,0.16172
7227.90053,0.13548
7229.82900,0.14653
7231.75747,0.17980
7233.68594,0.20223
7235.61441,0.15869
7237.54288,0.04886
7239.47135,0.00068
7241.39982,0.04586
7243.32828,0.06420
7245.25675,0.04426
7247.18522,0.03727
7249.11369,0.00575
7251.04216,-0.02667
7252.97063,-0.01165
7254.89910,0.03551
7256.82756,0.08202
7258.75603,0.12759
7260.68450,0.19750
7262.61297,0.19906
7264.54144,0.05829
7266.46991,-0.02936
7268.39838,0.01631
7270.32685,0.07203
7272.25531,0.00153
7274.18378,-0.07645
7276.11225,-0.03548
7278.04072,-0.01800
7279.96919,-0.09970
7281.89766,-0.12772
7283.82613,-0.05771
7285.75459,0.00584
7287.68306,-0.00399
7289.61153,-0.09218
7291.54000,-0.15924
7293.46847,-0.13396
7295.39694,-0.04711
7297.32541,0.03979
7299.25387,0.02585
7301.18234,-0.09856
7303.11081,-0.18945
7305.03928,-0.15108
7306.96775,-0.04621
7308.89622,0.05756
7310.82469,0.11698
7312.75316,0.15726
7314.68162,0.17521
7316.61009,0.15522
7318.53856,0.11988
7320.46703,0.07740
7322.39550,0.10838
7324.32397,0.19888
7326.25244,0.18026
7328.18090,0.03269
7330.10937,-0.08408
7332.03784,-0.07979
7333.96631,-0.03948
7335.89478,0.01168
7337.82325,0.07592
7339.75172,0.11217
7341.68019,0.12509
7343.60865,0.20173
7345.53712,0.25081
7347.46559,0.13984
7349.39406,-0.02234
7351.32253,-0.01992
7353.25100,0.10877
7355.17947,0.17187
7357.10793,0.13089
7359.03640,0.09943
7360.96487,0.13629
7362.89334,0.14119
7364.82181,0.08185
7366.75028,0.04285
7368.67875,0.06832
7370.60722,0.11449
7372.53568,0.11218
7374.46415,-0.02314
7376.39262,-0.25097
7378.32109,-0.31043
7380.24956,-0.22140
7382.17803,-0.14408
7384.10650,-0.10536
7386.03496,-0.02233
7387.96343,0.01674
7389.89190,-0.00309
7391.82037,0.00507
7393.74884,-0.01051
7395.67731,-0.01533
7397.60578,0.07801
7399.53425,0.16727
7401.46271,0.14244
7403.39118,0.00461
7405.31965,-0.08755
7407.24812,-0.06510
7409.17659,-0.01717
7411.10506,0.04067
7413.03353,0.04676
7414.96199,-0.02653
7416.89046,-0.00560
7418.81893,0.23414
7420.74740,0.33301
7422.67587,0.21174
7424.60434,0.08894
7426.53281,-0.00321
7428.46128,-0.05409
7430.38974,-0.07515
7432.31821,-0.04955
7434.24668,0.05524
7436.17515,0.15196
7438.10362,0.10699
7440.03209,-0.02522
7441.96056,-0.09817
7443.88902,-0.12522
7445.81749,-0.12612
7447.74596,-0.08838
7449.67443,-0.05512
7451.60290,-0.04217
7453.53137,-0.00748
7455.45984,0.05943
7457.38831,0.16208
7459.31677,0.22228
7461.24524,0.05681
7463.17371,-0.16741
7465.10218,-0.15841
7467.03065,0.05018
7468.95912,0.21504
7470.88759,0.26239
7472.81605,0.20203
7474.74452,0.04659
7476.67299,-0.10437
7478.60146,-0.10107
7480.52993,0.00682
7482.45840,0.01660
7484.38687,-0.07309
7486.31533,-0.12996
7488.24380,-0.09397
7490.17227,-0.01850
7492.10074,0.07041
7494.02921,0.19778
7495.95768,0.28000
7497.88615,0.25477
