399.19301,0.85504
401.12148,0.50674
403.04995,0.06239
404.97842,0.00352
406.90689,0.07339
408.83536,0.10085
410.76382,0.01186
412.69229,-0.12139
414.62076,-0.16084
416.54923,-0.11785
418.47770,0.00029
420.40617,0.08713
422.33464,0.05860
424.26311,0.02196
426.19157,0.02973
428.12004,0.06905
430.04851,0.08269
431.97698,0.03471
433.90545,-0.01578
435.83392,0.00129
437.76239,0.05545
439.69085,0.07301
441.61932,0.02712
443.54779,-0.01991
445.47626,0.00877
447.40473,0.03497
449.33320,0.01766
451.26167,0.03600
453.19013,0.08975
455.11860,0.11241
457.04707,0.06367
458.97554,-0.00168
460.90401,0.04185
462.83248,0.11669
464.76095,0.07952
466.68942,0.03576
468.61788,0.08215
470.54635,0.13635
472.47482,0.16523
474.40329,0.17520
476.33176,0.12822
478.26023,0.10915
480.18870,0.14431
482.11716,0.16778
484.04563,0.15846
485.97410,0.12921
487.90257,0.09203
489.83104,0.08054
491.75951,0.09721
493.68798,0.11893
495.61645,0.11975
497.54491,0.09272
499.47338,0.05921
501.40185,0.03661
503.33032,0.02024
505.25879,0.00613
507.18726,0.01199
509.11573,0.03189
511.04419,0.02891
512.97266,0.02165
514.90113,0.03045
516.82960,0.02201
518.75807,-0.00604
520.68654,-0.02671
522.61501,-0.02634
524.54348,-0.00584
526.47194,0.01462
528.40041,0.03326
530.32888,0.05651
532.25735,0.06986
534.18582,0.07285
536.11429,0.07187
538.04276,0.05316
539.97122,0.03166
541.89969,0.03524
543.82816,0.05539
545.75663,0.05943
547.68510,0.05754
549.61357,0.07418
551.54204,0.09422
553.47051,0.10743
555.39897,0.09716
557.32744,0.05890
559.25591,0.04147
561.18438,0.06237
563.11285,0.08331
565.04132,0.08723
566.96979,0.08762
568.89825,0.09848
570.82672,0.12112
572.75519,0.14254
574.68366,0.13747
576.61213,0.09812
578.54060,0.06295
580.46907,0.05637
582.39754,0.06825
584.32600,0.08432
586.25447,0.10310
588.18294,0.12042
590.11141,0.11043
592.03988,0.07607
593.96835,0.06789
595.89682,0.08156
597.82528,0.08033
599.75375,0.07117
601.68222,0.05658
603.61069,0.03732
605.53916,0.03290
607.46763,0.03953
609.39610,0.03727
611.32456,0.02875
613.25303,0.03030
615.18150,0.04677
617.10997,0.06730
619.03844,0.07181
620.96691,0.06309
622.89538,0.05249
624.82385,0.04177
626.75231,0.04069
628.68078,0.05691
630.60925,0.08786
632.53772,0.11406
634.46619,0.10477
636.39466,0.06843
638.32313,0.04641
640.25159,0.04710
642.18006,0.05242
644.10853,0.06181
646.03700,0.07591
647.96547,0.08571
649.89394,0.08143
651.82241,0.06770
653.75088,0.06093
655.67934,0.06085
657.60781,0.06300
659.53628,0.07478
661.46475,0.09072
663.39322,0.10028
665.32169,0.09475
667.25016,0.06476
669.17862,0.05229
671.10709,0.07673
673.03556,0.08483
674.96403,0.07916
676.89250,0.08321
678.82097,0.09968
680.74944,0.10866
682.67791,0.10588
684.60637,0.11003
686.53484,0.12660
688.46331,0.13769
690.39178,0.13016
692.32025,0.11574
694.24872,0.10804
696.17719,0.09918
698.10565,0.08625
700.03412,0.08081
701.96259,0.07949
703.89106,0.07476
705.81953,0.07454
707.74800,0.07695
709.67647,0.07728
711.60494,0.08742
713.53340,0.10544
715.46187,0.11839
717.39034,0.12264
719.31881,0.11785
721.24728,0.10855
723.17575,0.10252
725.10422,0.09931
727.03268,0.09337
728.96115,0.08548
730.88962,0.07854
732.81809,0.07612
734.74656,0.08127
736.67503,0.08491
738.60350,0.08052
740.53197,0.07833
742.46043,0.08742
744.38890,0.09663
746.31737,0.09341
748.24584,0.09516
750.17431,0.10782
752.10278,0.11093
754.03125,0.10724
755.95971,0.10497
757.88818,0.10448
759.81665,0.10954
761.74512,0.11375
763.67359,0.10958
765.60206,0.10017
767.53053,0.09103
769.45900,0.08518
771.38746,0.08526
773.31593,0.08727
775.24440,0.09208
777.17287,0.10504
779.10134,0.11352
781.02981,0.10947
782.95828,0.10544
784.88674,0.10872
786.81521,0.11660
788.74368,0.12207
790.67215,0.11967
792.60062,0.11761
794.52909,0.11699
796.45756,0.10744
798.38602,0.09578
800.31449,0.09664
802.24296,0.10557
804.17143,0.10564
806.09990,0.09981
808.02837,0.10514
809.95684,0.11767
811.88531,0.12329
813.81377,0.12008
815.74224,0.10816
817.67071,0.09671
819.59918,0.09813
821.52765,0.10736
823.45612,0.11027
825.38459,0.10229
827.31305,0.09872
829.24152,0.10490
831.16999,0.10743
833.09846,0.10704
835.02693,0.11098
836.95540,0.11258
838.88387,0.10855
840.81234,0.10754
842.74080,0.11072
844.66927,0.10792
846.59774,0.10165
848.52621,0.10865
850.45468,0.12148
852.38315,0.11789
854.31162,0.10279
856.24008,0.09789
858.16855,0.10805
860.09702,0.11749
862.02549,0.11690
863.95396,0.11663
865.88243,0.12382
867.81090,0.12631
869.73937,0.11764
871.66783,0.10915
873.59630,0.10502
875.52477,0.09910
877.45324,0.09751
879.38171,0.10747
881.31018,0.11696
883.23865,0.11922
885.16711,0.11685
887.09558,0.10874
889.02405,0.10251
890.95252,0.10527
892.88099,0.11186
894.80946,0.11598
896.73793,0.11700
898.66640,0.11764
900.59486,0.11414
902.52333,0.10379
904.45180,0.10113
906.38027,0.11104
908.30874,0.11643
910.23721,0.11411
912.16568,0.11613
914.09414,0.12047
916.02261,0.12089
917.95108,0.12067
919.87955,0.12006
921.80802,0.12016
923.73649,0.12267
925.66496,0.12242
927.59343,0.11866
929.52189,0.11640
931.45036,0.11636
933.37883,0.11877
935.30730,0.12540
937.23577,0.13292
939.16424,0.13286
941.09271,0.12284
943.02117,0.11589
944.94964,0.12005
946.87811,0.12438
948.80658,0.12100
950.73505,0.11594
952.66352,0.11295
954.59199,0.11077
956.52045,0.11216
958.44892,0.11729
960.37739,0.12339
962.30586,0.12571
964.23433,0.12000
966.16280,0.11475
968.09127,0.11741
970.01974,0.12184
971.94820,0.12122
973.87667,0.11530
975.80514,0.11066
977.73361,0.11471
979.66208,0.12501
981.59055,0.13362
983.51902,0.13601
985.44748,0.13225
987.37595,0.12624
989.30442,0.12100
991.23289,0.11720
993.16136,0.11772
995.08983,0.12153
997.01830,0.12329
998.94677,0.12570
1000.87523,0.13072
1002.80370,0.13225
1004.73217,0.12949
1006.66064,0.12945
1008.58911,0.13552
1010.51758,0.14139
1012.44605,0.14013
1014.37451,0.13316
1016.30298,0.12658
1018.23145,0.12593
1020.15992,0.13352
1022.08839,0.14109
1024.01686,0.13834
1025.94533,0.12748
1027.87380,0.11175
1029.80226,0.10241
1031.73073,0.11008
1033.65920,0.12150
1035.58767,0.12971
1037.51614,0.13792
1039.44461,0.14109
1041.37308,0.13843
1043.30154,0.13415
1045.23001,0.13199
1047.15848,0.13252
1049.08695,0.13413
1051.01542,0.13420
1052.94389,0.13156
1054.87236,0.13233
1056.80083,0.13832
1058.72929,0.14225
1060.65776,0.14138
1062.58623,0.14021
1064.51470,0.13897
1066.44317,0.13662
1068.37164,0.13758
1070.30011,0.14109
1072.22857,0.14177
1074.15704,0.14269
1076.08551,0.14784
1078.01398,0.14805
1079.94245,0.14159
1081.87092,0.14011
1083.79939,0.14477
1085.72786,0.15039
1087.65632,0.15309
1089.58479,0.14973
1091.51326,0.14335
1093.44173,0.14038
1095.37020,0.14059
1097.29867,0.13788
1099.22714,0.13485
1101.15560,0.13703
1103.08407,0.13610
1105.01254,0.12896
1106.94101,0.12879
1108.86948,0.13978
1110.79795,0.15174
1112.72642,0.15410
1114.65489,0.14903
1116.58335,0.14926
1118.51182,0.15387
1120.44029,0.15254
1122.36876,0.14757
1124.29723,0.14550
1126.22570,0.14298
1128.15417,0.13570
1130.08263,0.12785
1132.01110,0.12358
1133.93957,0.12610
1135.86804,0.13517
1137.79651,0.14124
1139.72498,0.14004
1141.65345,0.13787
1143.58191,0.13793
1145.51038,0.13681
1147.43885,0.13568
1149.36732,0.13679
1151.29579,0.13714
1153.22426,0.13810
1155.15273,0.14170
1157.08120,0.14771
1159.00966,0.15370
1160.93813,0.15397
1162.86660,0.15017
1164.79507,0.14704
1166.72354,0.14234
1168.65201,0.13765
1170.58048,0.13922
1172.50894,0.14239
1174.43741,0.14152
1176.36588,0.14091
1178.29435,0.14129
1180.22282,0.14078
1182.15129,0.14342
1184.07976,0.15379
1186.00823,0.16257
1187.93669,0.15567
1189.86516,0.14300
1191.79363,0.14065
1193.72210,0.14427
1195.65057,0.14519
1197.57904,0.14398
1199.50751,0.14525
1201.43597,0.14680
1203.36444,0.14441
1205.29291,0.14456
1207.22138,0.14811
1209.14985,0.14554
1211.07832,0.14013
1213.00679,0.13998
1214.93526,0.14331
1216.86372,0.14719
1218.79219,0.14864
1220.72066,0.14612
1222.64913,0.14364
1224.57760,0.14391
1226.50607,0.14650
1228.43454,0.15117
1230.36300,0.15464
1232.29147,0.15305
1234.21994,0.14874
1236.14841,0.14727
1238.07688,0.15039
1240.00535,0.15378
1241.93382,0.15405
1243.86229,0.15198
1245.79075,0.14877
1247.71922,0.14736
1249.64769,0.14953
1251.57616,0.15098
1253.50463,0.14911
1255.43310,0.14699
1257.36157,0.14516
1259.29003,0.14314
1261.21850,0.14243
1263.14697,0.14539
1265.07544,0.15092
1267.00391,0.15061
1268.93238,0.14708
1270.86085,0.15087
1272.78932,0.15743
1274.71778,0.15861
1276.64625,0.15549
1278.57472,0.15241
1280.50319,0.15222
1282.43166,0.15422
1284.36013,0.15603
1286.28860,0.15497
1288.21706,0.15227
1290.14553,0.15260
1292.07400,0.15404
1294.00247,0.15346
1295.93094,0.15252
1297.85941,0.15182
1299.78788,0.15152
1301.71634,0.15068
1303.64481,0.14714
1305.57328,0.14523
1307.50175,0.15029
1309.43022,0.15692
1311.35869,0.16001
1313.28716,0.16121
1315.21563,0.16052
1317.14409,0.15831
1319.07256,0.15648
1321.00103,0.15389
1322.92950,0.15134
1324.85797,0.15079
1326.78644,0.14903
1328.71491,0.14686
1330.64337,0.14901
1332.57184,0.15504
1334.50031,0.16079
1336.42878,0.16302
1338.35725,0.16468
1340.28572,0.16506
1342.21419,0.15381
1344.14266,0.13693
1346.07112,0.13532
1347.99959,0.14875
1349.92806,0.15736
1351.85653,0.15809
1353.78500,0.15744
1355.71347,0.15745
1357.64194,0.15955
1359.57040,0.16297
1361.49887,0.16564
1363.42734,0.16496
1365.35581,0.16186
1367.28428,0.16023
1369.21275,0.16051
1371.14122,0.16149
1373.06969,0.16520
1374.99815,0.16983
1376.92662,0.16905
1378.85509,0.16515
1380.78356,0.16176
1382.71203,0.16077
1384.64050,0.16390
1386.56897,0.16886
1388.49743,0.17165
1390.42590,0.17229
1392.35437,0.17182
1394.28284,0.17009
1396.21131,0.16887
1398.13978,0.16924
1400.06825,0.16843
1401.99672,0.16611
1403.92518,0.16421
1405.85365,0.16377
1407.78212,0.16532
1409.71059,0.16693
1411.63906,0.16643
1413.56753,0.16473
1415.49600,0.16520
1417.42446,0.16925
1419.35293,0.17054
1421.28140,0.16842
1423.20987,0.17013
1425.13834,0.17014
1427.06681,0.16636
1428.99528,0.16448
1430.92375,0.16228
1432.85221,0.16054
1434.78068,0.16528
1436.70915,0.17325
1438.63762,0.17509
1440.56609,0.17297
1442.49456,0.17192
1444.42303,0.17305
1446.35149,0.17516
1448.27996,0.17702
1450.20843,0.17824
1452.13690,0.17978
1454.06537,0.18420
1455.99384,0.19571
1457.92231,0.20376
1459.85077,0.19356
1461.77924,0.18460
1463.70771,0.18323
1465.63618,0.18299
1467.56465,0.17914
1469.49312,0.17966
1471.42159,0.18887
1473.35006,0.19596
1475.27852,0.19160
1477.20699,0.18720
1479.13546,0.18563
1481.06393,0.18336
1482.99240,0.18020
1484.92087,0.17998
1486.84934,0.18447
1488.77780,0.19144
1490.70627,0.19266
1492.63474,0.18862
1494.56321,0.18738
1496.49168,0.18727
1498.42015,0.18287
1500.34862,0.17680
1502.27709,0.17456
1504.20555,0.18434
1506.13402,0.20912
1508.06249,0.20949
1509.99096,0.19110
1511.91943,0.18561
1513.84790,0.18907
1515.77637,0.19391
1517.70483,0.19314
1519.63330,0.19302
1521.56177,0.19832
1523.49024,0.19813
1525.41871,0.19425
1527.34718,0.18995
1529.27565,0.18621
1531.20412,0.18847
1533.13258,0.19426
1535.06105,0.19450
1536.98952,0.19542
1538.91799,0.20540
1540.84646,0.21764
1542.77493,0.21503
1544.70340,0.20221
1546.63186,0.18974
1548.56033,0.18560
1550.48880,0.18616
1552.41727,0.18797
1554.34574,0.19448
1556.27421,0.20597
1558.20268,0.21170
1560.13115,0.19518
1562.05961,0.18799
1563.98808,0.18815
1565.91655,0.18787
1567.84502,0.19150
1569.77349,0.19539
1571.70196,0.19080
1573.63043,0.18856
1575.55889,0.19259
1577.48736,0.19292
1579.41583,0.18935
1581.34430,0.18631
1583.27277,0.18260
1585.20124,0.17953
1587.12971,0.17808
1589.05818,0.17753
1590.98664,0.17799
1592.91511,0.17961
1594.84358,0.18043
1596.77205,0.17823
1598.70052,0.17559
1600.62899,0.17564
1602.55746,0.17828
1604.48592,0.18160
1606.41439,0.18282
1608.34286,0.18029
1610.27133,0.17642
1612.19980,0.17650
1614.12827,0.18207
1616.05674,0.18957
1617.98521,0.19027
1619.91367,0.18598
1621.84214,0.18327
1623.77061,0.18433
1625.69908,0.18948
1627.62755,0.19404
1629.55602,0.19337
1631.48449,0.19262
1633.41295,0.20025
1635.34142,0.21299
1637.26989,0.20812
1639.19836,0.19483
1641.12683,0.19029
1643.05530,0.19391
1644.98377,0.20116
1646.91223,0.20842
1648.84070,0.21128
1650.76917,0.21611
1652.69764,0.22438
1654.62611,0.21264
1656.55458,0.19578
1658.48305,0.18723
1660.41152,0.18538
1662.33998,0.18939
1664.26845,0.19467
1666.19692,0.19838
1668.12539,0.20349
1670.05386,0.20702
1671.98233,0.20775
1673.91080,0.21116
1675.83926,0.21026
1677.76773,0.20431
1679.69620,0.20212
1681.62467,0.20498
1683.55314,0.21092
1685.48161,0.21070
1687.41008,0.20423
1689.33855,0.19694
1691.26701,0.19111
1693.19548,0.19381
1695.12395,0.20615
1697.05242,0.21453
1698.98089,0.21224
1700.90936,0.20811
1702.83783,0.20743
1704.76629,0.20836
1706.69476,0.20332
1708.62323,0.19407
1710.55170,0.18809
1712.48017,0.18792
1714.40864,0.19564
1716.33711,0.20815
1718.26558,0.20704
1720.19404,0.19443
1722.12251,0.18646
1724.05098,0.18396
1725.97945,0.18394
1727.90792,0.18509
1729.83639,0.18938
1731.76486,0.19814
1733.69332,0.20417
1735.62179,0.19796
1737.55026,0.19225
1739.47873,0.19322
1741.40720,0.19581
1743.33567,0.19402
1745.26414,0.19245
1747.19261,0.19684
1749.12107,0.20165
1751.04954,0.19786
1752.97801,0.19043
1754.90648,0.18720
1756.83495,0.18758
1758.76342,0.18915
1760.69189,0.19110
1762.62035,0.18939
1764.54882,0.18504
1766.47729,0.18608
1768.40576,0.19341
1770.33423,0.20225
1772.26270,0.20581
1774.19117,0.19956
1776.11964,0.19264
1778.04810,0.19037
1779.97657,0.19076
1781.90504,0.18982
1783.83351,0.18834
1785.76198,0.18887
1787.69045,0.19117
1789.61892,0.19626
1791.54738,0.20280
1793.47585,0.20234
1795.40432,0.19623
1797.33279,0.19227
1799.26126,0.18999
1801.18973,0.18818
1803.11820,0.18833
1805.04666,0.18857
1806.97513,0.18742
1808.90360,0.18662
1810.83207,0.18687
1812.76054,0.18597
1814.68901,0.18256
1816.61748,0.17883
1818.54595,0.18074
1820.47441,0.18706
1822.40288,0.19035
1824.33135,0.19172
1826.25982,0.19441
1828.18829,0.19684
1830.11676,0.19420
1832.04523,0.18770
1833.97369,0.18713
1835.90216,0.19184
1837.83063,0.19332
1839.75910,0.19009
1841.68757,0.18859
1843.61604,0.19018
1845.54451,0.19003
1847.47298,0.18733
1849.40144,0.18432
1851.32991,0.18265
1853.25838,0.18261
1855.18685,0.18410
1857.11532,0.18694
1859.04379,0.18828
1860.97226,0.18660
1862.90072,0.18508
1864.82919,0.18747
1866.75766,0.19304
1868.68613,0.19595
1870.61460,0.19305
1872.54307,0.18942
1874.47154,0.18847
1876.40001,0.18822
1878.32847,0.18579
1880.25694,0.18345
1882.18541,0.18375
1884.11388,0.18589
1886.04235,0.18793
1887.97082,0.18856
1889.89929,0.18897
1891.82775,0.19016
1893.75622,0.19047
1895.68469,0.18775
1897.61316,0.18248
1899.54163,0.17952
1901.47010,0.18184
1903.39857,0.18569
1905.32704,0.18741
1907.25550,0.18814
1909.18397,0.18812
1911.11244,0.18656
1913.04091,0.18533
1914.96938,0.18562
1916.89785,0.18666
1918.82632,0.18838
1920.75478,0.19019
1922.68325,0.18985
1924.61172,0.18751
1926.54019,0.18634
1928.46866,0.18630
1930.39713,0.18565
1932.32560,0.18561
1934.25407,0.18607
1936.18253,0.18503
1938.11100,0.18403
1940.03947,0.18542
1941.96794,0.18787
1943.89641,0.18913
1945.82488,0.18932
1947.75335,0.18834
1949.68181,0.18781
1951.61028,0.18885
1953.53875,0.18851
1955.46722,0.18677
1957.39569,0.18517
1959.32416,0.18491
1961.25263,0.18677
1963.18110,0.18821
1965.10956,0.18898
1967.03803,0.19007
1968.96650,0.18998
1970.89497,0.18885
1972.82344,0.18730
1974.75191,0.18546
1976.68038,0.18444
1978.60884,0.18422
1980.53731,0.18449
1982.46578,0.18587
1984.39425,0.18762
1986.32272,0.18838
1988.25119,0.18867
1990.17966,0.18924
1992.10812,0.18937
1994.03659,0.18849
1995.96506,0.18666
1997.89353,0.18577
1999.82200,0.18754
2001.75047,0.18979
2003.67894,0.19052
2005.60741,0.19005
2007.53587,0.18938
2009.46434,0.18871
2011.39281,0.18801
2013.32128,0.18870
2015.24975,0.19028
2017.17822,0.18964
2019.10669,0.18672
2021.03515,0.18561
2022.96362,0.18710
2024.89209,0.18766
2026.82056,0.18588
2028.74903,0.18478
2030.67750,0.18652
2032.60597,0.18915
2034.53444,0.18970
2036.46290,0.18711
2038.39137,0.18396
2040.31984,0.18398
2042.24831,0.18627
2044.17678,0.18812
2046.10525,0.18873
2048.03372,0.18811
2049.96218,0.18801
2051.89065,0.18971
2053.81912,0.19035
2055.74759,0.18839
2057.67606,0.18736
2059.60453,0.18870
2061.53300,0.18854
2063.46147,0.18635
2065.38993,0.18670
2067.31840,0.18952
2069.24687,0.18993
2071.17534,0.18813
2073.10381,0.18854
2075.03228,0.19006
2076.96075,0.18924
2078.88921,0.18840
2080.81768,0.18954
2082.74615,0.19128
2084.67462,0.19255
2086.60309,0.19165
2088.53156,0.18917
2090.46003,0.18762
2092.38850,0.18777
2094.31696,0.19015
2096.24543,0.19258
2098.17390,0.19228
2100.10237,0.19065
2102.03084,0.18929
2103.95931,0.18851
2105.88778,0.18832
2107.81624,0.18869
2109.74471,0.19015
2111.67318,0.19153
2113.60165,0.19238
2115.53012,0.19427
2117.45859,0.19566
2119.38706,0.19424
2121.31553,0.19230
2123.24399,0.19299
2125.17246,0.19472
2127.10093,0.19391
2129.02940,0.19180
2130.95787,0.19196
2132.88634,0.19382
2134.81481,0.19441
2136.74327,0.19321
2138.67174,0.19175
2140.60021,0.19058
2142.52868,0.19010
2144.45715,0.19023
2146.38562,0.19025
2148.31409,0.19118
2150.24255,0.19204
2152.17102,0.19154
2154.09949,0.19272
2156.02796,0.19510
2157.95643,0.19443
2159.88490,0.19181
2161.81337,0.19085
2163.74184,0.19091
2165.67030,0.19060
2167.59877,0.19053
2169.52724,0.19013
2171.45571,0.18897
2173.38418,0.18877
2175.31265,0.19057
2177.24112,0.19267
2179.16958,0.19255
2181.09805,0.19065
2183.02652,0.18999
2184.95499,0.19084
2186.88346,0.19136
2188.81193,0.19093
2190.74040,0.18957
2192.66887,0.19006
2194.59733,0.19309
2196.52580,0.19367
2198.45427,0.19080
2200.38274,0.18838
2202.31121,0.18791
2204.23968,0.18854
2206.16815,0.18949
2208.09661,0.19051
2210.02508,0.19140
2211.95355,0.19222
2213.88202,0.19315
2215.81049,0.19373
2217.73896,0.19253
2219.66743,0.19066
2221.59590,0.19198
2223.52436,0.19449
2225.45283,0.19353
2227.38130,0.19151
2229.30977,0.19154
2231.23824,0.19261
2233.16671,0.19415
2235.09518,0.19543
2237.02364,0.19483
2238.95211,0.19306
2240.88058,0.19180
2242.80905,0.19142
2244.73752,0.19148
2246.66599,0.19146
2248.59446,0.19183
2250.52293,0.19344
2252.45139,0.19519
2254.37986,0.19584
2256.30833,0.19664
2258.23680,0.19672
2260.16527,0.19439
2262.09374,0.19176
2264.02221,0.19094
2265.95067,0.19193
2267.87914,0.19252
2269.80761,0.19165
2271.73608,0.19175
2273.66455,0.19355
2275.59302,0.19468
2277.52149,0.19422
2279.44996,0.19337
2281.37842,0.19285
2283.30689,0.19267
2285.23536,0.19212
2287.16383,0.19118
2289.09230,0.18939
2291.02077,0.18621
2292.94924,0.18448
2294.87770,0.18663
2296.80617,0.19228
2298.73464,0.19769
2300.66311,0.19887
2302.59158,0.19905
2304.52005,0.20348
2306.44852,0.20891
2308.37699,0.20946
2310.30545,0.20959
2312.23392,0.21475
2314.16239,0.21959
2316.09086,0.22094
2318.01933,0.22104
2319.94780,0.21982
2321.87627,0.21991
2323.80473,0.22470
2325.73320,0.23214
2327.66167,0.24150
2329.59014,0.24990
2331.51861,0.24977
2333.44708,0.24155
2335.37555,0.23656
2337.30401,0.23897
2339.23248,0.24123
2341.16095,0.24046
2343.08942,0.23561
2345.01789,0.22420
2346.94636,0.21704
2348.87483,0.22285
2350.80330,0.23803
2352.73176,0.25574
2354.66023,0.26812
2356.58870,0.27074
2358.51717,0.26782
2360.44564,0.25984
2362.37411,0.24800
2364.30258,0.24849
2366.23104,0.26099
2368.15951,0.26162
2370.08798,0.24344
2372.01645,0.22598
2373.94492,0.21925
2375.87339,0.21628
2377.80186,0.21039
2379.73033,0.20238
2381.65879,0.19572
2383.58726,0.19217
2385.51573,0.19182
2387.44420,0.19300
2389.37267,0.19411
2391.30114,0.19485
2393.22961,0.19610
2395.15807,0.19809
2397.08654,0.19853
2399.01501,0.19576
2400.94348,0.19087
2402.87195,0.18770
2404.80042,0.18895
2406.72889,0.19230
2408.65736,0.19445
2410.58582,0.19510
2412.51429,0.19546
2414.44276,0.19572
2416.37123,0.19564
2418.29970,0.19574
2420.22817,0.19578
2422.15664,0.19431
2424.08510,0.19192
2426.01357,0.19111
2427.94204,0.19181
2429.87051,0.19209
2431.79898,0.19219
2433.72745,0.19412
2435.65592,0.19728
2437.58439,0.19925
2439.51285,0.19897
2441.44132,0.19650
2443.36979,0.19422
2445.29826,0.19392
2447.22673,0.19320
2449.15520,0.19012
2451.08367,0.18641
2453.01213,0.18525
2454.94060,0.18740
2456.86907,0.19092
2458.79754,0.19376
2460.72601,0.19518
2462.65448,0.19651
2464.58295,0.19846
2466.51142,0.19927
2468.43988,0.19752
2470.36835,0.19521
2472.29682,0.19558
2474.22529,0.19795
2476.15376,0.20046
2478.08223,0.20134
2480.01070,0.19869
2481.93916,0.19506
2483.86763,0.19397
2485.79610,0.19507
2487.72457,0.19684
2489.65304,0.19748
2491.58151,0.19603
2493.50998,0.19405
2495.43844,0.19310
2497.36691,0.19373
2499.29538,0.19608
2501.22385,0.19853
2503.15232,0.19911
2505.08079,0.19835
2507.00926,0.19766
2508.93773,0.19630
2510.86619,0.19361
2512.79466,0.19165
2514.72313,0.19158
2516.65160,0.19252
2518.58007,0.19459
2520.50854,0.19766
2522.43701,0.19997
2524.36547,0.20008
2526.29394,0.19860
2528.22241,0.19787
2530.15088,0.19810
2532.07935,0.19728
2534.00782,0.19572
2535.93629,0.19526
2537.86476,0.19616
2539.79322,0.19628
2541.72169,0.19412
2543.65016,0.19319
2545.57863,0.19513
2547.50710,0.19576
2549.43557,0.19460
2551.36404,0.19408
2553.29250,0.19400
2555.22097,0.19419
2557.14944,0.19480
2559.07791,0.19606
2561.00638,0.19791
2562.93485,0.19930
2564.86332,0.19903
2566.79179,0.19715
2568.72025,0.19587
2570.64872,0.19651
2572.57719,0.19731
2574.50566,0.19658
2576.43413,0.19622
2578.36260,0.19826
2580.29107,0.20135
2582.21953,0.20285
2584.14800,0.20175
2586.07647,0.20003
2588.00494,0.20013
2589.93341,0.20121
2591.86188,0.20128
2593.79035,0.20150
2595.71882,0.20225
2597.64728,0.20203
2599.57575,0.20123
2601.50422,0.20106
2603.43269,0.20201
2605.36116,0.20198
2607.28963,0.20098
2609.21810,0.20214
2611.14656,0.20321
2613.07503,0.20087
2615.00350,0.19853
2616.93197,0.19952
2618.86044,0.20146
2620.78891,0.20197
2622.71738,0.20141
2624.64585,0.20050
2626.57431,0.19937
2628.50278,0.19959
2630.43125,0.20262
2632.35972,0.20538
2634.28819,0.20555
2636.21666,0.20484
2638.14513,0.20501
2640.07359,0.20584
2642.00206,0.20528
2643.93053,0.20357
2645.85900,0.20355
2647.78747,0.20463
2649.71594,0.20411
2651.64441,0.20287
2653.57288,0.20229
2655.50134,0.20240
2657.42981,0.20291
2659.35828,0.20201
2661.28675,0.20155
2663.21522,0.20394
2665.14369,0.20463
2667.07216,0.20134
2669.00062,0.19887
2670.92909,0.19855
2672.85756,0.19784
2674.78603,0.19785
2676.71450,0.19912
2678.64297,0.19955
2680.57144,0.20094
2682.49990,0.20454
2684.42837,0.20690
2686.35684,0.20771
2688.28531,0.20824
2690.21378,0.20679
2692.14225,0.20466
2694.07072,0.20476
2695.99919,0.20671
2697.92765,0.20817
2699.85612,0.20811
2701.78459,0.20834
2703.71306,0.20751
2705.64153,0.20394
2707.57000,0.20245
2709.49847,0.20414
2711.42693,0.20417
2713.35540,0.20243
2715.28387,0.20244
2717.21234,0.20404
2719.14081,0.20429
2721.06928,0.20278
2722.99775,0.20184
2724.92622,0.20300
2726.85468,0.20515
2728.78315,0.20699
2730.71162,0.20744
2732.64009,0.20666
2734.56856,0.20693
2736.49703,0.20726
2738.42550,0.20690
2740.35396,0.20701
2742.28243,0.20610
2744.21090,0.20491
2746.13937,0.20485
2748.06784,0.20504
2749.99631,0.20531
2751.92478,0.20587
2753.85325,0.20549
2755.78171,0.20292
2757.71018,0.20102
2759.63865,0.20344
2761.56712,0.20814
2763.49559,0.21075
2765.42406,0.21197
2767.35253,0.21517
2769.28099,0.21903
2771.20946,0.21988
2773.13793,0.21745
2775.06640,0.21468
2776.99487,0.21377
2778.92334,0.21489
2780.85181,0.21650
2782.78028,0.21605
2784.70874,0.21309
2786.63721,0.21013
2788.56568,0.21038
2790.49415,0.21354
2792.42262,0.21514
2794.35109,0.21494
2796.27956,0.21623
2798.20802,0.21679
2800.13649,0.21487
2802.06496,0.21357
2803.99343,0.21333
2805.92190,0.21264
2807.85037,0.21216
2809.77884,0.21251
2811.70731,0.21354
2813.63577,0.21448
2815.56424,0.21357
2817.49271,0.21209
2819.42118,0.21266
2821.34965,0.21398
2823.27812,0.21509
2825.20659,0.21628
2827.13505,0.21594
2829.06352,0.21471
2830.99199,0.21514
2832.92046,0.21691
2834.84893,0.21887
2836.77740,0.22048
2838.70587,0.22043
2840.63433,0.21762
2842.56280,0.21332
2844.49127,0.21072
2846.41974,0.21057
2848.34821,0.21061
2850.27668,0.20934
2852.20515,0.20770
2854.13362,0.20874
2856.06208,0.21252
2857.99055,0.21362
2859.91902,0.21035
2861.84749,0.20671
2863.77596,0.20528
2865.70443,0.20664
2867.63290,0.20904
2869.56136,0.20995
2871.48983,0.20882
2873.41830,0.20870
2875.34677,0.21315
2877.27524,0.21867
2879.20371,0.22052
2881.13218,0.21989
2883.06065,0.21854
2884.98911,0.21690
2886.91758,0.21654
2888.84605,0.21664
2890.77452,0.21514
2892.70299,0.21317
2894.63146,0.21112
2896.55993,0.20969
2898.48839,0.21032
2900.41686,0.21246
2902.34533,0.21545
2904.27380,0.21692
2906.20227,0.21512
2908.13074,0.21210
2910.05921,0.20971
2911.98768,0.20839
2913.91614,0.20767
2915.84461,0.20815
2917.77308,0.21152
2919.70155,0.21399
2921.63002,0.21178
2923.55849,0.20981
2925.48696,0.21236
2927.41542,0.21453
2929.34389,0.21182
2931.27236,0.20876
2933.20083,0.20995
2935.12930,0.21091
2937.05777,0.20944
2938.98624,0.20956
2940.91471,0.20972
2942.84317,0.20825
2944.77164,0.20665
2946.70011,0.20402
2948.62858,0.20429
2950.55705,0.20915
2952.48552,0.21140
2954.41399,0.20984
2956.34245,0.20762
2958.27092,0.20586
2960.19939,0.20774
2962.12786,0.21294
2964.05633,0.21557
2965.98480,0.21379
2967.91327,0.21397
2969.84174,0.21691
2971.77020,0.21736
2973.69867,0.21834
2975.62714,0.22043
2977.55561,0.21888
2979.48408,0.21674
2981.41255,0.21871
2983.34102,0.22293
2985.26948,0.22406
2987.19795,0.22091
2989.12642,0.21914
2991.05489,0.22265
2992.98336,0.22662
2994.91183,0.22514
2996.84030,0.22151
2998.76877,0.22066
3000.69723,0.22016
3002.62570,0.21911
3004.55417,0.21922
3006.48264,0.21864
3008.41111,0.21790
3010.33958,0.21816
3012.26805,0.21502
3014.19651,0.20432
3016.12498,0.19353
3018.05345,0.19675
3019.98192,0.21062
3021.91039,0.22023
3023.83886,0.22215
3025.76733,0.21948
3027.69579,0.21699
3029.62426,0.22015
3031.55273,0.22554
3033.48120,0.22697
3035.40967,0.22571
3037.33814,0.22433
3039.26661,0.22326
3041.19508,0.22193
3043.12354,0.22118
3045.05201,0.22147
3046.98048,0.22133
3048.90895,0.22291
3050.83742,0.22519
3052.76589,0.22430
3054.69436,0.22069
3056.62282,0.21563
3058.55129,0.21407
3060.47976,0.21826
3062.40823,0.22180
3064.33670,0.22075
3066.26517,0.21670
3068.19364,0.21426
3070.12211,0.21712
3072.05057,0.22063
3073.97904,0.21830
3075.90751,0.21367
3077.83598,0.21198
3079.76445,0.21133
3081.69292,0.21134
3083.62139,0.21146
3085.54985,0.21081
3087.47832,0.21506
3089.40679,0.22285
3091.33526,0.22606
3093.26373,0.22563
3095.19220,0.22575
3097.12067,0.22588
3099.04914,0.22450
3100.97760,0.22080
3102.90607,0.21494
3104.83454,0.21242
3106.76301,0.21850
3108.69148,0.22775
3110.61995,0.22980
3112.54842,0.22417
3114.47688,0.22096
3116.40535,0.22467
3118.33382,0.22885
3120.26229,0.22594
3122.19076,0.21758
3124.11923,0.21272
3126.04770,0.21388
3127.97617,0.21790
3129.90463,0.22254
3131.83310,0.22563
3133.76157,0.22682
3135.69004,0.22740
3137.61851,0.22652
3139.54698,0.22185
3141.47545,0.21727
3143.40391,0.22086
3145.33238,0.22804
3147.26085,0.22767
3149.18932,0.22413
3151.11779,0.22608
3153.04626,0.22902
3154.97473,0.22708
3156.90320,0.22314
3158.83166,0.22241
3160.76013,0.22372
3162.68860,0.22204
3164.61707,0.21837
3166.54554,0.21769
3168.47401,0.22003
3170.40248,0.22293
3172.33094,0.22364
3174.25941,0.21878
3176.18788,0.21375
3178.11635,0.21595
3180.04482,0.22086
3181.97329,0.22328
3183.90176,0.22546
3185.83022,0.23048
3187.75869,0.23610
3189.68716,0.23347
3191.61563,0.22149
3193.54410,0.21282
3195.47257,0.21474
3197.40104,0.22009
3199.32951,0.22188
3201.25797,0.22143
3203.18644,0.22084
3205.11491,0.21909
3207.04338,0.21643
3208.97185,0.21545
3210.90032,0.21885
3212.82879,0.22623
3214.75725,0.23078
3216.68572,0.22779
3218.61419,0.22239
3220.54266,0.21965
3222.47113,0.21978
3224.39960,0.22092
3226.32807,0.22099
3228.25654,0.22185
3230.18500,0.22463
3232.11347,0.22566
3234.04194,0.22353
3235.97041,0.22123
3237.89888,0.22052
3239.82735,0.21990
3241.75582,0.21857
3243.68428,0.21951
3245.61275,0.22457
3247.54122,0.22841
3249.46969,0.22756
3251.39816,0.22591
3253.32663,0.22397
3255.25510,0.22100
3257.18357,0.22040
3259.11203,0.22081
3261.04050,0.21912
3262.96897,0.21678
3264.89744,0.21398
3266.82591,0.21444
3268.75438,0.22098
3270.68285,0.22439
3272.61131,0.22113
3274.53978,0.21810
3276.46825,0.21835
3278.39672,0.22194
3280.32519,0.22388
3282.25366,0.21857
3284.18213,0.21225
3286.11060,0.21213
3288.03906,0.21621
3289.96753,0.22059
3291.89600,0.22030
3293.82447,0.21636
3295.75294,0.21797
3297.68141,0.22489
3299.60988,0.22769
3301.53834,0.22395
3303.46681,0.21923
3305.39528,0.21817
3307.32375,0.21970
3309.25222,0.21852
3311.18069,0.21452
3313.10916,0.21315
3315.03763,0.21547
3316.96609,0.21980
3318.89456,0.22627
3320.82303,0.23090
3322.75150,0.22739
3324.67997,0.22121
3326.60844,0.22079
3328.53691,0.22412
3330.46537,0.22676
3332.39384,0.22624
3334.32231,0.22437
3336.25078,0.22480
3338.17925,0.22562
3340.10772,0.22371
3342.03619,0.21941
3343.96466,0.21609
3345.89312,0.21668
3347.82159,0.21971
3349.75006,0.22310
3351.67853,0.22357
3353.60700,0.21867
3355.53547,0.21500
3357.46394,0.21787
3359.39240,0.22322
3361.32087,0.22676
3363.24934,0.22786
3365.17781,0.22900
3367.10628,0.23190
3369.03475,0.23274
3370.96322,0.22960
3372.89168,0.22813
3374.82015,0.22991
3376.74862,0.22883
3378.67709,0.22298
3380.60556,0.21761
3382.53403,0.21639
3384.46250,0.21734
3386.39097,0.21787
3388.31943,0.21668
3390.24790,0.21469
3392.17637,0.21494
3394.10484,0.21746
3396.03331,0.22117
3397.96178,0.22439
3399.89025,0.22383
3401.81871,0.22248
3403.74718,0.22410
3405.67565,0.22544
3407.60412,0.22375
3409.53259,0.21816
3411.46106,0.21063
3413.38953,0.20866
3415.31800,0.21409
3417.24646,0.21988
3419.17493,0.22258
3421.10340,0.22166
3423.03187,0.21681
3424.96034,0.21297
3426.88881,0.21374
3428.81728,0.21438
3430.74574,0.20854
3432.67421,0.20158
3434.60268,0.20222
3436.53115,0.20666
3438.45962,0.20863
3440.38809,0.20827
3442.31656,0.20875
3444.24503,0.21140
3446.17349,0.21272
3448.10196,0.21382
3450.03043,0.21782
3451.95890,0.21847
3453.88737,0.21327
3455.81584,0.20784
3457.74431,0.20551
3459.67277,0.20695
3461.60124,0.20830
3463.52971,0.20562
3465.45818,0.20229
3467.38665,0.20123
3469.31512,0.20305
3471.24359,0.20595
3473.17206,0.20436
3475.10052,0.19943
3477.02899,0.19549
3478.95746,0.19243
3480.88593,0.19298
3482.81440,0.19799
3484.74287,0.20122
3486.67134,0.19901
3488.59980,0.19470
3490.52827,0.19271
3492.45674,0.19097
3494.38521,0.18840
3496.31368,0.18938
3498.24215,0.19189
3500.17062,0.19089
3502.09909,0.18897
3504.02755,0.18659
3505.95602,0.18093
3507.88449,0.17784
3509.81296,0.18263
3511.74143,0.18937
3513.66990,0.19054
3515.59837,0.18691
3517.52683,0.18413
3519.45530,0.18322
3521.38377,0.18043
3523.31224,0.17785
3525.24071,0.18058
3527.16918,0.18549
3529.09765,0.18542
3531.02611,0.18291
3532.95458,0.18372
3534.88305,0.18402
3536.81152,0.18035
3538.73999,0.17654
3540.66846,0.17514
3542.59693,0.17589
3544.52540,0.17780
3546.45386,0.17831
3548.38233,0.17790
3550.31080,0.17729
3552.23927,0.17573
3554.16774,0.17466
3556.09621,0.17249
3558.02468,0.17077
3559.95314,0.17298
3561.88161,0.17553
3563.81008,0.17794
3565.73855,0.18291
3567.66702,0.18283
3569.59549,0.17401
3571.52396,0.16786
3573.45243,0.16598
3575.38089,0.16346
3577.30936,0.16224
3579.23783,0.16293
3581.16630,0.16201
3583.09477,0.16376
3585.02324,0.17317
3586.95171,0.18121
3588.88017,0.17268
3590.80864,0.16361
3592.73711,0.16773
3594.66558,0.17533
3596.59405,0.17584
3598.52252,0.17269
3600.45099,0.16819
3602.37946,0.16149
3604.30792,0.15658
3606.23639,0.15690
3608.16486,0.16116
3610.09333,0.16492
3612.02180,0.16598
3613.95027,0.16502
3615.87874,0.16459
3617.80720,0.16558
3619.73567,0.16351
3621.66414,0.15741
3623.59261,0.15351
3625.52108,0.15651
3627.44955,0.16746
3629.37802,0.17470
3631.30649,0.16888
3633.23495,0.15998
3635.16342,0.15119
3637.09189,0.14541
3639.02036,0.14289
3640.94883,0.14311
3642.87730,0.14593
3644.80577,0.15152
3646.73423,0.16035
3648.66270,0.16525
3650.59117,0.15693
3652.51964,0.14822
3654.44811,0.14635
3656.37658,0.14960
3658.30505,0.15073
3660.23352,0.14556
3662.16198,0.13742
3664.09045,0.13281
3666.01892,0.13460
3667.94739,0.13895
3669.87586,0.13994
3671.80433,0.13625
3673.73280,0.13332
3675.66126,0.13179
3677.58973,0.13150
3679.51820,0.13253
3681.44667,0.13262
3683.37514,0.13282
3685.30361,0.13616
3687.23208,0.14225
3689.16055,0.14757
3691.08901,0.14625
3693.01748,0.14172
3694.94595,0.13836
3696.87442,0.13508
3698.80289,0.13264
3700.73136,0.13169
3702.65983,0.13008
3704.58829,0.12918
3706.51676,0.13121
3708.44523,0.13518
3710.37370,0.13886
3712.30217,0.13704
3714.23064,0.13296
3716.15911,0.13426
3718.08757,0.13946
3720.01604,0.14244
3721.94451,0.14256
3723.87298,0.14442
3725.80145,0.14449
3727.72992,0.14011
3729.65839,0.13606
3731.58686,0.13562
3733.51532,0.14128
3735.44379,0.14448
3737.37226,0.13859
3739.30073,0.13652
3741.22920,0.14007
3743.15767,0.14279
3745.08614,0.13960
3747.01460,0.13878
3748.94307,0.14483
3750.87154,0.14888
3752.80001,0.14245
3754.72848,0.13477
3756.65695,0.13173
3758.58542,0.13309
3760.51389,0.13472
3762.44235,0.13478
3764.37082,0.13399
3766.29929,0.13185
3768.22776,0.13089
3770.15623,0.13192
3772.08470,0.13052
3774.01317,0.12656
3775.94163,0.12510
3777.87010,0.12906
3779.79857,0.13278
3781.72704,0.13052
3783.65551,0.12491
3785.58398,0.11893
3787.51245,0.11699
3789.44092,0.11917
3791.36938,0.12253
3793.29785,0.12617
3795.22632,0.13131
3797.15479,0.13778
3799.08326,0.14307
3801.01173,0.14820
3802.94020,0.14666
3804.86866,0.13908
3806.79713,0.13615
3808.72560,0.13471
3810.65407,0.12866
3812.58254,0.12350
3814.51101,0.12235
3816.43948,0.12540
3818.36795,0.13210
3820.29641,0.13783
3822.22488,0.13841
3824.15335,0.13700
3826.08182,0.13313
3828.01029,0.12480
3829.93876,0.11761
3831.86723,0.11506
3833.79569,0.11927
3835.72416,0.12910
3837.65263,0.13610
3839.58110,0.13615
3841.50957,0.13370
3843.43804,0.12921
3845.36651,0.12298
3847.29498,0.11846
3849.22344,0.11863
3851.15191,0.12679
3853.08038,0.13749
3855.00885,0.12623
3856.93732,0.11430
3858.86579,0.11348
3860.79426,0.11672
3862.72272,0.11825
3864.65119,0.11623
3866.57966,0.11722
3868.50813,0.12505
3870.43660,0.13287
3872.36507,0.13191
3874.29354,0.12813
3876.22200,0.12650
3878.15047,0.12530
3880.07894,0.11964
3882.00741,0.10973
3883.93588,0.10644
3885.86435,0.11024
3887.79282,0.11275
3889.72129,0.11582
3891.64975,0.12135
3893.57822,0.12225
3895.50669,0.12153
3897.43516,0.12190
3899.36363,0.11985
3901.29210,0.12176
3903.22057,0.13106
3905.14903,0.13215
3907.07750,0.12342
3909.00597,0.11756
3910.93444,0.11517
3912.86291,0.11301
3914.79138,0.11407
3916.71985,0.11766
3918.64832,0.11814
3920.57678,0.11672
3922.50525,0.11609
3924.43372,0.11450
3926.36219,0.11024
3928.29066,0.10624
3930.21913,0.10662
3932.14760,0.10813
3934.07606,0.10747
3936.00453,0.10924
3937.93300,0.11073
3939.86147,0.10781
3941.78994,0.10482
3943.71841,0.10422
3945.64688,0.10504
3947.57535,0.10936
3949.50381,0.11461
3951.43228,0.11484
3953.36075,0.11102
3955.28922,0.10669
3957.21769,0.10615
3959.14616,0.10973
3961.07463,0.11243
3963.00309,0.11094
3964.93156,0.10658
3966.86003,0.10417
3968.78850,0.10337
3970.71697,0.10162
3972.64544,0.09995
3974.57391,0.09895
3976.50238,0.09980
3978.43084,0.10349
3980.35931,0.10698
3982.28778,0.10647
3984.21625,0.10399
3986.14472,0.10104
3988.07319,0.09717
3990.00166,0.09761
3991.93012,0.10290
3993.85859,0.10367
3995.78706,0.09667
3997.71553,0.08984
3999.64400,0.08831
4001.57247,0.09194
4003.50094,0.09938
4005.42941,0.10454
4007.35787,0.10287
4009.28634,0.09820
4011.21481,0.09561
4013.14328,0.09541
4015.07175,0.09692
4017.00022,0.09968
4018.92869,0.10180
4020.85715,0.10107
4022.78562,0.09587
4024.71409,0.08939
4026.64256,0.08929
4028.57103,0.09414
4030.49950,0.09513
4032.42797,0.09352
4034.35644,0.09591
4036.28490,0.09917
4038.21337,0.09715
4040.14184,0.09551
4042.07031,0.09836
4043.99878,0.09903
4045.92725,0.09713
4047.85572,0.09465
4049.78418,0.08965
4051.71265,0.08480
4053.64112,0.08463
4055.56959,0.09021
4057.49806,0.09749
4059.42653,0.10111
4061.35500,0.09795
4063.28346,0.08990
4065.21193,0.08457
4067.14040,0.08441
4069.06887,0.08414
4070.99734,0.08170
4072.92581,0.07889
4074.85428,0.07877
4076.78275,0.08260
4078.71121,0.08499
4080.63968,0.08288
4082.56815,0.07983
4084.49662,0.07885
4086.42509,0.08095
4088.35356,0.08489
4090.28203,0.08678
4092.21049,0.08426
4094.13896,0.08106
4096.06743,0.08134
4097.99590,0.08214
4099.92437,0.08020
4101.85284,0.07895
4103.78131,0.07896
4105.70978,0.07764
4107.63824,0.07773
4109.56671,0.07937
4111.49518,0.08023
4113.42365,0.08093
4115.35212,0.07989
4117.28059,0.07683
4119.20906,0.07711
4121.13752,0.08343
4123.06599,0.09018
4124.99446,0.09178
4126.92293,0.08869
4128.85140,0.08397
4130.77987,0.08098
4132.70834,0.07915
4134.63681,0.07440
4136.56527,0.06968
4138.49374,0.07234
4140.42221,0.07995
4142.35068,0.08518
4144.27915,0.08692
4146.20762,0.08524
4148.13609,0.08162
4150.06455,0.08001
4151.99302,0.07833
4153.92149,0.07496
4155.84996,0.07534
4157.77843,0.07789
4159.70690,0.07674
4161.63537,0.07637
4163.56384,0.07828
4165.49230,0.07700
4167.42077,0.07480
4169.34924,0.07455
4171.27771,0.07229
4173.20618,0.06657
4175.13465,0.06129
4177.06312,0.05832
4178.99158,0.05642
4180.92005,0.05781
4182.84852,0.06432
4184.77699,0.07079
4186.70546,0.07184
4188.63393,0.06623
4190.56240,0.05751
4192.49087,0.05266
4194.41933,0.05265
4196.34780,0.05237
4198.27627,0.05089
4200.20474,0.05314
4202.13321,0.05850
4204.06168,0.06004
4205.99015,0.05855
4207.91861,0.06165
4209.84708,0.06804
4211.77555,0.06801
4213.70402,0.06366
4215.63249,0.06310
4217.56096,0.06507
4219.48943,0.06628
4221.41789,0.06368
4223.34636,0.05707
4225.27483,0.05087
4227.20330,0.04721
4229.13177,0.04824
4231.06024,0.05623
4232.98871,0.06611
4234.91718,0.06798
4236.84564,0.05961
4238.77411,0.05055
4240.70258,0.04786
4242.63105,0.04963
4244.55952,0.05383
4246.48799,0.05731
4248.41646,0.05664
4250.34492,0.05437
4252.27339,0.05334
4254.20186,0.05271
4256.13033,0.05163
4258.05880,0.05062
4259.98727,0.04996
4261.91574,0.05077
4263.84421,0.05322
4265.77267,0.05384
4267.70114,0.05097
4269.62961,0.04898
4271.55808,0.04921
4273.48655,0.04580
4275.41502,0.03848
4277.34349,0.03548
4279.27195,0.04125
4281.20042,0.04920
4283.12889,0.05295
4285.05736,0.05624
4286.98583,0.05694
4288.91430,0.05108
4290.84277,0.04574
4292.77124,0.04195
4294.69970,0.03758
4296.62817,0.03516
4298.55664,0.03209
4300.48511,0.02954
4302.41358,0.03164
4304.34205,0.03315
4306.27052,0.03440
4308.19898,0.04064
4310.12745,0.04339
4312.05592,0.03840
4313.98439,0.03340
4315.91286,0.03064
4317.84133,0.02982
4319.76980,0.03274
4321.69827,0.03688
4323.62673,0.03988
4325.55520,0.04272
4327.48367,0.04295
4329.41214,0.03904
4331.34061,0.03394
4333.26908,0.03006
4335.19755,0.02794
4337.12601,0.02784
4339.05448,0.02919
4340.98295,0.03036
4342.91142,0.03326
4344.83989,0.03647
4346.76836,0.03330
4348.69683,0.02629
4350.62530,0.02485
4352.55376,0.03036
4354.48223,0.03508
4356.41070,0.03353
4358.33917,0.02755
4360.26764,0.02474
4362.19611,0.03103
4364.12458,0.03964
4366.05304,0.03843
4367.98151,0.02958
4369.90998,0.02316
4371.83845,0.02046
4373.76692,0.01794
4375.69539,0.01413
4377.62386,0.01416
4379.55232,0.01888
4381.48079,0.01992
4383.40926,0.01764
4385.33773,0.01734
4387.26620,0.01672
4389.19467,0.01325
4391.12314,0.00936
4393.05161,0.00852
4394.98007,0.01381
4396.90854,0.01949
4398.83701,0.01907
4400.76548,0.01848
4402.69395,0.01899
4404.62242,0.01840
4406.55089,0.01883
4408.47935,0.01731
4410.40782,0.01102
4412.33629,0.00358
4414.26476,0.00034
4416.19323,0.00079
4418.12170,0.00173
4420.05017,0.00468
4421.97864,0.00696
4423.90710,0.00606
4425.83557,0.00948
4427.76404,0.01569
4429.69251,0.01746
4431.62098,0.02008
4433.54945,0.02274
4435.47792,0.01532
4437.40638,0.00419
4439.33485,0.00438
4441.26332,0.01236
4443.19179,0.01488
4445.12026,0.01084
4447.04873,0.00593
4448.97720,0.00127
4450.90567,0.00016
4452.83413,0.00422
4454.76260,0.00440
4456.69107,-0.00002
4458.61954,0.00231
4460.54801,0.01037
4462.47648,0.01022
4464.40495,0.00233
4466.33341,-0.00002
4468.26188,0.00423
4470.19035,0.00685
4472.11882,0.00722
4474.04729,0.01141
4475.97576,0.01759
4477.90423,0.01547
4479.83270,0.00646
4481.76116,0.00148
4483.68963,-0.00033
4485.61810,-0.00161
4487.54657,0.00102
4489.47504,0.00244
4491.40351,0.00095
4493.33198,0.00369
4495.26044,0.00727
4497.18891,0.00358
4499.11738,0.00091
4501.04585,0.00996
4502.97432,0.01864
4504.90279,0.01613
4506.83126,0.01173
4508.75973,0.01054
4510.68819,0.00906
4512.61666,0.00508
4514.54513,-0.00149
4516.47360,-0.00484
4518.40207,-0.00067
4520.33054,0.00584
4522.25901,0.00603
4524.18747,-0.00052
4526.11594,-0.00520
4528.04441,-0.00267
4529.97288,0.00441
4531.90135,0.00948
4533.82982,0.00796
4535.75829,0.00062
4537.68676,-0.00764
4539.61522,-0.01031
4541.54369,-0.00383
4543.47216,0.00660
4545.40063,0.01061
4547.32910,0.00508
4549.25757,-0.00380
4551.18604,-0.01035
4553.11450,-0.01259
4555.04297,-0.00756
4556.97144,0.00441
4558.89991,0.01032
4560.82838,0.00356
4562.75685,-0.00201
4564.68532,-0.00049
4566.61378,0.00142
4568.54225,0.00377
4570.47072,0.00498
4572.39919,0.00530
4574.32766,0.00793
4576.25613,0.00858
4578.18460,0.00769
4580.11307,0.01004
4582.04153,0.01129
4583.97000,0.00421
4585.89847,-0.00595
4587.82694,-0.00807
4589.75541,-0.00317
4591.68388,0.00277
4593.61235,0.00967
4595.54081,0.01559
4597.46928,0.01446
4599.39775,0.00798
4601.32622,0.00473
4603.25469,0.00356
4605.18316,0.00012
4607.11163,0.00349
4609.04010,0.01438
4610.96856,0.01804
4612.89703,0.01420
4614.82550,0.01085
4616.75397,0.00728
4618.68244,0.00397
4620.61091,0.00614
4622.53938,0.01126
4624.46784,0.01120
4626.39631,0.00860
4628.32478,0.00658
4630.25325,0.00273
4632.18172,0.00038
4634.11019,0.00083
4636.03866,0.00172
4637.96713,0.00561
4639.89559,0.01407
4641.82406,0.01714
4643.75253,0.00786
4645.68100,-0.00212
4647.60947,-0.00122
4649.53794,0.00580
4651.46641,0.00647
4653.39487,-0.00129
4655.32334,-0.00623
4657.25181,-0.00301
4659.18028,0.00120
4661.10875,0.00239
4663.03722,0.00131
4664.96569,-0.00087
4666.89416,0.00134
4668.82262,0.00752
4670.75109,0.00914
4672.67956,0.00356
4674.60803,-0.00230
4676.53650,0.00097
4678.46497,0.00982
4680.39344,0.01076
4682.32190,0.00044
4684.25037,-0.00971
4686.17884,-0.00493
4688.10731,0.00533
4690.03578,0.00228
4691.96425,-0.00168
4693.89272,0.00463
4695.82119,0.01051
4697.74965,0.01278
4699.67812,0.01575
4701.60659,0.01673
4703.53506,0.00888
4705.46353,-0.00123
4707.39200,-0.00157
4709.32047,0.00349
4711.24893,0.00660
4713.17740,0.00774
4715.10587,0.00563
4717.03434,-0.00045
4718.96281,-0.00595
4720.89128,-0.00917
4722.81975,-0.01024
4724.74821,-0.00669
4726.67668,-0.00038
4728.60515,0.00597
4730.53362,0.01117
4732.46209,0.01343
4734.39056,0.01316
4736.31903,0.01157
4738.24750,0.01192
4740.17596,0.01765
4742.10443,0.02116
4744.03290,0.01445
4745.96137,0.00515
4747.88984,0.00322
4749.81831,0.00500
4751.74678,0.00372
4753.67524,-0.00263
4755.60371,-0.00700
4757.53218,-0.00687
4759.46065,-0.00324
4761.38912,-0.00131
4763.31759,-0.00330
4765.24606,0.00102
4767.17453,0.01384
4769.10299,0.01953
4771.03146,0.01307
4772.95993,0.00552
4774.88840,0.00119
4776.81687,-0.00441
4778.74534,-0.00710
4780.67381,-0.00519
4782.60227,-0.00756
4784.53074,-0.00820
4786.45921,-0.00264
4788.38768,-0.00418
4790.31615,-0.00745
4792.24462,-0.00131
4794.17309,0.00410
4796.10156,0.00284
4798.03002,-0.00053
4799.95849,-0.00041
4801.88696,0.00360
4803.81543,0.00403
4805.74390,-0.00291
4807.67237,-0.00632
4809.60084,-0.00238
4811.52930,-0.00326
4813.45777,-0.00578
4815.38624,-0.00172
4817.31471,-0.00059
4819.24318,-0.00288
4821.17165,0.00184
4823.10012,0.01035
4825.02859,0.01560
4826.95705,0.01430
4828.88552,0.00887
4830.81399,0.00702
4832.74246,0.00531
4834.67093,0.00022
4836.59940,-0.00301
4838.52787,-0.00481
4840.45633,-0.00415
4842.38480,0.00367
4844.31327,0.00948
4846.24174,0.00753
4848.17021,0.00819
4850.09868,0.00994
4852.02715,0.00915
4853.95562,0.01117
4855.88408,0.01507
4857.81255,0.02217
4859.74102,0.03244
4861.66949,0.03423
4863.59796,0.02260
4865.52643,0.00810
4867.45490,0.00337
4869.38336,0.00766
4871.31183,0.00482
4873.24030,-0.00356
4875.16877,0.00083
4877.09724,0.00843
4879.02571,0.00925
4880.95418,0.01569
4882.88265,0.02423
4884.81111,0.02312
4886.73958,0.01563
4888.66805,0.00703
4890.59652,-0.00137
4892.52499,-0.00389
4894.45346,0.00853
4896.38193,0.02443
4898.31039,0.02141
4900.23886,0.00939
4902.16733,0.00876
4904.09580,0.01414
4906.02427,0.01411
4907.95274,0.01289
4909.88121,0.01599
4911.80967,0.01533
4913.73814,0.00768
4915.66661,-0.00138
4917.59508,-0.00806
4919.52355,-0.00411
4921.45202,0.00492
4923.38049,0.00257
4925.30896,-0.00707
4927.23742,-0.01357
4929.16589,-0.00940
4931.09436,0.00570
4933.02283,0.01413
4934.95130,0.01218
4936.87977,0.01207
4938.80824,0.01573
4940.73670,0.02305
4942.66517,0.02956
4944.59364,0.02450
4946.52211,0.01438
4948.45058,0.01302
4950.37905,0.01255
4952.30752,0.00301
4954.23599,-0.00597
4956.16445,-0.00937
4958.09292,-0.00950
4960.02139,-0.00328
4961.94986,0.00185
4963.87833,0.00284
4965.80680,0.00594
4967.73527,0.00407
4969.66373,-0.00824
4971.59220,-0.02288
4973.52067,-0.02165
4975.44914,0.00011
4977.37761,0.01820
4979.30608,0.01651
4981.23455,0.00919
4983.16302,0.01013
4985.09148,0.01391
4987.01995,0.01570
4988.94842,0.01536
4990.87689,0.01356
4992.80536,0.01408
4994.73383,0.01583
4996.66230,0.02067
4998.59076,0.02546
5000.51923,0.02125
5002.44770,0.01726
5004.37617,0.01462
5006.30464,0.00243
5008.23311,-0.01037
5010.16158,-0.01231
5012.09005,-0.00753
5014.01851,-0.00416
5015.94698,0.00067
5017.87545,0.01250
5019.80392,0.02395
5021.73239,0.02437
5023.66086,0.01405
5025.58933,0.00701
5027.51779,0.01071
5029.44626,0.01450
5031.37473,0.01611
5033.30320,0.02338
5035.23167,0.02834
5037.16014,0.01855
5039.08861,0.00438
5041.01708,0.00180
5042.94554,0.01123
5044.87401,0.02047
5046.80248,0.01603
5048.73095,0.00517
5050.65942,0.00252
5052.58789,0.01099
5054.51636,0.02604
5056.44482,0.03596
5058.37329,0.03018
5060.30176,0.01161
5062.23023,0.00432
5064.15870,0.01860
5066.08717,0.02853
5068.01564,0.02115
5069.94410,0.01297
5071.87257,0.01049
5073.80104,0.00346
5075.72951,-0.00416
5077.65798,0.00176
5079.58645,0.01401
5081.51492,0.02084
5083.44339,0.02576
5085.37185,0.03231
5087.30032,0.03665
5089.22879,0.03663
5091.15726,0.03335
5093.08573,0.02498
5095.01420,0.01275
5096.94267,0.00562
5098.87113,0.00599
5100.79960,-0.00105
5102.72807,-0.01788
5104.65654,-0.02562
5106.58501,-0.01676
5108.51348,0.00346
5110.44195,0.01851
5112.37042,0.01446
5114.29888,0.00870
5116.22735,0.01656
5118.15582,0.02388
5120.08429,0.01963
5122.01276,0.01372
5123.94123,0.01347
5125.86970,0.01282
5127.79816,0.01477
5129.72663,0.02703
5131.65510,0.03802
5133.58357,0.03931
5135.51204,0.04295
5137.44051,0.04918
5139.36898,0.04564
5141.29745,0.03161
5143.22591,0.01086
5145.15438,-0.00701
5147.08285,-0.00807
5149.01132,0.00206
5150.93979,0.00700
5152.86826,0.00573
5154.79673,0.00697
5156.72519,0.00901
5158.65366,0.00921
5160.58213,0.01559
5162.51060,0.02588
5164.43907,0.03092
5166.36754,0.02628
5168.29601,0.01554
5170.22448,0.01546
5172.15294,0.02890
5174.08141,0.03888
5176.00988,0.03712
5177.93835,0.02564
5179.86682,0.01264
5181.79529,0.01353
5183.72376,0.02767
5185.65222,0.02990
5187.58069,0.01950
5189.50916,0.02071
5191.43763,0.03169
5193.36610,0.03464
5195.29457,0.02814
5197.22304,0.02653
5199.15151,0.02883
5201.07997,0.02038
5203.00844,0.01125
5204.93691,0.01519
5206.86538,0.01860
5208.79385,0.01453
5210.72232,0.01747
5212.65079,0.02901
5214.57925,0.04588
5216.50772,0.05919
5218.43619,0.05691
5220.36466,0.04976
5222.29313,0.04747
5224.22160,0.04048
5226.15007,0.02802
5228.07854,0.02129
5230.00700,0.01867
5231.93547,0.01785
5233.86394,0.03034
5235.79241,0.04931
5237.72088,0.05464
5239.64935,0.04744
5241.57782,0.04143
5243.50628,0.04302
5245.43475,0.04853
5247.36322,0.04368
5249.29169,0.02538
5251.22016,0.02080
5253.14863,0.03287
5255.07710,0.03979
5257.00556,0.03755
5258.93403,0.03126
5260.86250,0.03166
5262.79097,0.04105
5264.71944,0.04374
5266.64791,0.03370
5268.57638,0.02315
5270.50485,0.02422
5272.43331,0.03012
5274.36178,0.03308
5276.29025,0.04115
5278.21872,0.05004
5280.14719,0.04260
5282.07566,0.02821
5284.00413,0.02541
5285.93259,0.02594
5287.86106,0.01942
5289.78953,0.00926
5291.71800,0.00251
5293.64647,0.00812
5295.57494,0.02490
5297.50341,0.03522
5299.43188,0.03258
5301.36034,0.03589
5303.28881,0.05150
5305.21728,0.06037
5307.14575,0.04629
5309.07422,0.01604
5311.00269,-0.00331
5312.93116,0.00041
5314.85962,0.01226
5316.78809,0.02059
5318.71656,0.03005
5320.64503,0.03626
5322.57350,0.03677
5324.50197,0.04036
5326.43044,0.04377
5328.35891,0.04134
5330.28737,0.03420
5332.21584,0.01956
5334.14431,0.01299
5336.07278,0.02766
5338.00125,0.04136
5339.92972,0.04266
5341.85819,0.04572
5343.78665,0.04471
5345.71512,0.03973
5347.64359,0.04967
5349.57206,0.05723
5351.50053,0.04626
5353.42900,0.03931
5355.35747,0.04593
5357.28594,0.04888
5359.21440,0.03974
5361.14287,0.03004
5363.07134,0.04581
5364.99981,0.06889
5366.92828,0.06434
5368.85675,0.05182
5370.78522,0.04306
5372.71368,0.02477
5374.64215,0.01458
5376.57062,0.03598
5378.49909,0.06122
5380.42756,0.05752
5382.35603,0.03722
5384.28450,0.03654
5386.21297,0.05726
5388.14143,0.05615
5390.06990,0.03984
5391.99837,0.03880
5393.92684,0.03925
5395.85531,0.02859
5397.78378,0.02980
5399.71225,0.03738
5401.64071,0.03353
5403.56918,0.02771
5405.49765,0.03354
5407.42612,0.04023
5409.35459,0.03690
5411.28306,0.03773
5413.21153,0.04511
5415.13999,0.05064
5417.06846,0.05594
5418.99693,0.04993
5420.92540,0.03572
5422.85387,0.03709
5424.78234,0.04996
5426.71081,0.04526
5428.63928,0.01749
5430.56774,0.00422
5432.49621,0.01906
5434.42468,0.03621
5436.35315,0.04950
5438.28162,0.05879
5440.21009,0.05010
5442.13856,0.03505
5444.06702,0.03766
5445.99549,0.05316
5447.92396,0.06923
5449.85243,0.08785
5451.78090,0.10735
5453.70937,0.11933
5455.63784,0.11979
5457.56631,0.11111
5459.49477,0.10162
5461.42324,0.08642
5463.35171,0.07235
5465.28018,0.08147
5467.20865,0.09418
5469.13712,0.08464
5471.06559,0.06769
5472.99405,0.05741
5474.92252,0.05536
5476.85099,0.05631
5478.77946,0.04808
5480.70793,0.03776
5482.63640,0.03946
5484.56487,0.04749
5486.49334,0.04577
5488.42180,0.04231
5490.35027,0.05352
5492.27874,0.06371
5494.20721,0.05498
5496.13568,0.03446
5498.06415,0.00966
5499.99262,0.00048
5501.92108,0.02514
5503.84955,0.05526
5505.77802,0.05649
5507.70649,0.03524
5509.63496,0.02333
5511.56343,0.03855
5513.49190,0.06476
5515.42037,0.07532
5517.34883,0.07453
5519.27730,0.07848
5521.20577,0.08184
5523.13424,0.06960
5525.06271,0.03751
5526.99118,0.01020
5528.91965,0.01888
5530.84811,0.04435
5532.77658,0.05735
5534.70505,0.06822
5536.63352,0.07718
5538.56199,0.07670
5540.49046,0.07738
5542.41893,0.09220
5544.34740,0.11105
5546.27586,0.11086
5548.20433,0.09689
5550.13280,0.08908
5552.06127,0.09106
5553.98974,0.09437
5555.91821,0.08831
5557.84668,0.06921
5559.77514,0.04850
5561.70361,0.04616
5563.63208,0.06626
5565.56055,0.08658
5567.48902,0.08625
5569.41749,0.07514
5571.34596,0.06997
5573.27443,0.07488
5575.20289,0.08071
5577.13136,0.06253
5579.05983,0.02782
5580.98830,0.00948
5582.91677,0.00805
5584.84524,0.02336
5586.77371,0.07018
5588.70217,0.10349
5590.63064,0.07499
5592.55911,0.03560
5594.48758,0.03071
5596.41605,0.04260
5598.34452,0.05834
5600.27299,0.06676
5602.20145,0.05058
5604.12992,0.02190
5606.05839,0.00777
5607.98686,0.02446
5609.91533,0.06539
5611.84380,0.08913
5613.77227,0.07606
5615.70074,0.05809
5617.62920,0.04886
5619.55767,0.04248
5621.48614,0.04293
5623.41461,0.05733
5625.34308,0.07769
5627.27155,0.07734
5629.20002,0.06021
5631.12848,0.04806
5633.05695,0.03188
5634.98542,0.01228
5636.91389,0.00804
5638.84236,0.01513
5640.77083,0.02215
5642.69930,0.03311
5644.62777,0.04967
5646.55623,0.06449
5648.48470,0.06951
5650.41317,0.05478
5652.34164,0.02932
5654.27011,0.02209
5656.19858,0.03890
5658.12705,0.05557
5660.05551,0.06010
5661.98398,0.06809
5663.91245,0.07456
5665.84092,0.07217
5667.76939,0.07269
5669.69786,0.06712
5671.62633,0.05698
5673.55480,0.05122
5675.48326,0.04804
5677.41173,0.06493
5679.34020,0.09181
5681.26867,0.09437
5683.19714,0.08639
5685.12561,0.08815
5687.05408,0.09161
5688.98254,0.10135
5690.91101,0.12353
5692.83948,0.14558
5694.76795,0.15013
5696.69642,0.13056
5698.62489,0.10329
5700.55336,0.08967
5702.48183,0.09537
5704.41029,0.11232
5706.33876,0.11805
5708.26723,0.09630
5710.19570,0.07746
5712.12417,0.09004
5714.05264,0.09879
5715.98111,0.08763
5717.90957,0.09187
5719.83804,0.10431
5721.76651,0.08990
5723.69498,0.06078
5725.62345,0.05177
5727.55192,0.06565
5729.48039,0.07826
5731.40886,0.08556
5733.33732,0.09469
5735.26579,0.09692
5737.19426,0.08611
5739.12273,0.07397
5741.05120,0.07894
5742.97967,0.09108
5744.90814,0.09531
5746.83660,0.09249
5748.76507,0.07785
5750.69354,0.06791
5752.62201,0.08332
5754.55048,0.09692
5756.47895,0.08566
5758.40742,0.06987
5760.33588,0.05316
5762.26435,0.03663
5764.19282,0.05436
5766.12129,0.07961
5768.04976,0.07074
5769.97823,0.06886
5771.90670,0.09504
5773.83517,0.10758
5775.76363,0.09174
5777.69210,0.06658
5779.62057,0.04130
5781.54904,0.02686
5783.47751,0.02775
5785.40598,0.02864
5787.33445,0.03830
5789.26291,0.06202
5791.19138,0.06700
5793.11985,0.06760
5795.04832,0.08574
5796.97679,0.08555
5798.90526,0.06796
5800.83373,0.06198
5802.76220,0.06581
5804.69066,0.07818
5806.61913,0.09081
5808.54760,0.08208
5810.47607,0.07045
5812.40454,0.09054
5814.33301,0.12324
5816.26148,0.13065
5818.18994,0.11564
5820.11841,0.10738
5822.04688,0.09615
5823.97535,0.06659
5825.90382,0.06276
5827.83229,0.08701
5829.76076,0.08792
5831.68923,0.06663
5833.61769,0.05385
5835.54616,0.05519
5837.47463,0.05695
5839.40310,0.04461
5841.33157,0.03309
5843.26004,0.04283
5845.18851,0.05610
5847.11697,0.05160
5849.04544,0.04374
5850.97391,0.05237
5852.90238,0.06441
5854.83085,0.07683
5856.75932,0.10354
5858.68779,0.12251
5860.61626,0.09849
5862.54472,0.06504
5864.47319,0.06805
5866.40166,0.07585
5868.33013,0.07585
5870.25860,0.08524
5872.18707,0.08590
5874.11554,0.08299
5876.04400,0.09619
5877.97247,0.11058
5879.90094,0.11182
5881.82941,0.10403
5883.75788,0.09927
5885.68635,0.11014
5887.61482,0.11213
5889.54329,0.08234
5891.47175,0.05259
5893.40022,0.04003
5895.32869,0.02839
5897.25716,0.03169
5899.18563,0.07456
5901.11410,0.11540
5903.04257,0.10122
5904.97103,0.06235
5906.89950,0.05318
5908.82797,0.08240
5910.75644,0.12362
5912.68491,0.13433
5914.61338,0.09230
5916.54185,0.04561
5918.47032,0.03158
5920.39878,0.02998
5922.32725,0.03914
5924.25572,0.05746
5926.18419,0.08269
5928.11266,0.11229
5930.04113,0.09861
5931.96960,0.04983
5933.89806,0.04232
5935.82653,0.07134
5937.75500,0.07881
5939.68347,0.07120
5941.61194,0.06657
5943.54041,0.06954
5945.46888,0.08876
5947.39734,0.10438
5949.32581,0.09824
5951.25428,0.08154
5953.18275,0.06788
5955.11122,0.07011
5957.03969,0.08330
5958.96816,0.10367
5960.89663,0.13426
5962.82509,0.14739
5964.75356,0.13521
5966.68203,0.10620
5968.61050,0.06704
5970.53897,0.05167
5972.46744,0.06777
5974.39591,0.09094
5976.32437,0.11085
5978.25284,0.12448
5980.18131,0.13224
5982.10978,0.12429
5984.03825,0.07968
5985.96672,0.02134
5987.89519,0.01061
5989.82366,0.02986
5991.75212,0.04186
5993.68059,0.06890
5995.60906,0.08751
5997.53753,0.09034
5999.46600,0.11875
6001.39447,0.14477
6003.32294,0.12983
6005.25140,0.09338
6007.17987,0.07734
6009.10834,0.09454
6011.03681,0.11530
6012.96528,0.11060
6014.89375,0.10212
6016.82222,0.10656
6018.75069,0.08833
6020.67915,0.04658
6022.60762,0.04221
6024.53609,0.08872
6026.46456,0.12406
6028.39303,0.11824
6030.32150,0.10726
6032.24997,0.10402
6034.17843,0.10633
6036.10690,0.12095
6038.03537,0.12568
6039.96384,0.11998
6041.89231,0.13687
6043.82078,0.15660
6045.74925,0.14042
6047.67772,0.10849
6049.60618,0.08170
6051.53465,0.06835
6053.46312,0.08378
6055.39159,0.10871
6057.32006,0.11792
6059.24853,0.11437
6061.17700,0.10009
6063.10546,0.08180
6065.03393,0.05722
6066.96240,0.02134
6068.89087,0.01841
6070.81934,0.07977
6072.74781,0.13429
6074.67628,0.12629
6076.60475,0.10638
6078.53321,0.10595
6080.46168,0.10180
6082.39015,0.09651
6084.31862,0.08960
6086.24709,0.06052
6088.17556,0.03167
6090.10403,0.02216
6092.03249,0.00568
6093.96096,-0.00247
6095.88943,0.03444
6097.81790,0.07515
6099.74637,0.07507
6101.67484,0.07785
6103.60331,0.11193
6105.53177,0.13523
6107.46024,0.12368
6109.38871,0.08772
6111.31718,0.05980
6113.24565,0.07684
6115.17412,0.10163
6117.10259,0.07564
6119.03106,0.03150
6120.95952,0.02234
6122.88799,0.01438
6124.81646,-0.00447
6126.74493,0.00875
6128.67340,0.04412
6130.60187,0.07432
6132.53034,0.11143
6134.45880,0.14215
6136.38727,0.14574
6138.31574,0.12082
6140.24421,0.08872
6142.17268,0.06697
6144.10115,0.05580
6146.02962,0.06222
6147.95809,0.07501
6149.88655,0.09236
6151.81502,0.13457
6153.74349,0.15196
6155.67196,0.09105
6157.60043,0.03616
6159.52890,0.05037
6161.45737,0.07438
6163.38583,0.08262
6165.31430,0.09455
6167.24277,0.08900
6169.17124,0.06250
6171.09971,0.04715
6173.02818,0.04526
6174.95665,0.05030
6176.88512,0.07382
6178.81358,0.10813
6180.74205,0.13234
6182.67052,0.11944
6184.59899,0.08249
6186.52746,0.05274
6188.45593,0.04390
6190.38440,0.08061
6192.31286,0.11794
6194.24133,0.07465
6196.16980,-0.00738
6198.09827,-0.01585
6200.02674,0.05621
6201.95521,0.12796
6203.88368,0.14307
6205.81215,0.11700
6207.74061,0.12097
6209.66908,0.18984
6211.59755,0.23999
6213.52602,0.18625
6215.45449,0.10384
6217.38296,0.07460
6219.31143,0.07522
6221.23989,0.08177
6223.16836,0.10745
6225.09683,0.13988
6227.02530,0.14548
6228.95377,0.11211
6230.88224,0.05256
6232.81071,0.03367
6234.73918,0.06766
6236.66764,0.05092
6238.59611,0.00677
6240.52458,0.05712
6242.45305,0.15975
6244.38152,0.17970
6246.30999,0.13150
6248.23846,0.10607
6250.16692,0.10931
6252.09539,0.09826
6254.02386,0.05384
6255.95233,0.00878
6257.88080,0.00436
6259.80927,0.01671
6261.73774,0.02903
6263.66621,0.05093
6265.59467,0.05790
6267.52314,0.04261
6269.45161,0.01542
6271.38008,-0.02648
6273.30855,-0.04852
6275.23702,0.00107
6277.16549,0.07947
6279.09395,0.09557
6281.02242,0.06645
6282.95089,0.06191
6284.87936,0.08476
6286.80783,0.09638
6288.73630,0.08655
6290.66477,0.07395
6292.59323,0.07478
6294.52170,0.08839
6296.45017,0.10261
6298.37864,0.10273
6300.30711,0.07050
6302.23558,0.01942
6304.16405,0.00777
6306.09252,0.01914
6308.02098,-0.00028
6309.94945,-0.01586
6311.87792,0.04346
6313.80639,0.14078
6315.73486,0.17171
6317.66333,0.14173
6319.59180,0.11433
6321.52026,0.07341
6323.44873,0.01960
6325.37720,0.00641
6327.30567,0.03904
6329.23414,0.08504
6331.16261,0.09236
6333.09108,0.07061
6335.01955,0.07998
6336.94801,0.08676
6338.87648,0.06339
6340.80495,0.04176
6342.73342,0.02751
6344.66189,0.04930
6346.59036,0.11324
6348.51883,0.16528
6350.44729,0.18018
6352.37576,0.14432
6354.30423,0.08947
6356.23270,0.03929
6358.16117,-0.01896
6360.08964,-0.03542
6362.01811,0.02880
6363.94658,0.12165
6365.87504,0.16731
6367.80351,0.10056
6369.73198,-0.00211
6371.66045,0.00499
6373.58892,0.05027
6375.51739,0.03946
6377.44586,0.06748
6379.37432,0.12332
6381.30279,0.13251
6383.23126,0.12094
6385.15973,0.12449
6387.08820,0.13129
6389.01667,0.12880
6390.94514,0.12107
6392.87361,0.11628
6394.80207,0.09359
6396.73054,0.02892
6398.65901,-0.02264
6400.58748,-0.02031
6402.51595,0.00366
6404.44442,0.06865
6406.37289,0.14172
6408.30135,0.12288
6410.22982,0.07404
6412.15829,0.07387
6414.08676,0.07640
6416.01523,0.05631
6417.94370,0.04427
6419.87217,0.05938
6421.80064,0.07488
6423.72910,0.07221
6425.65757,0.07442
6427.58604,0.08814
6429.51451,0.08767
6431.44298,0.05802
6433.37145,0.03867
6435.29992,0.07809
6437.22838,0.11277
6439.15685,0.08706
6441.08532,0.06763
6443.01379,0.07940
6444.94226,0.07106
6446.87073,0.02396
6448.79920,-0.01273
6450.72766,-0.01400
6452.65613,0.00433
6454.58460,0.02422
6456.51307,0.00066
6458.44154,-0.05490
6460.37001,-0.05794
6462.29848,-0.00268
6464.22695,0.04057
6466.15541,0.04004
6468.08388,0.03961
6470.01235,0.07772
6471.94082,0.10918
6473.86929,0.09844
6475.79776,0.06729
6477.72623,0.04589
6479.65469,0.04422
6481.58316,0.05537
6483.51163,0.06936
6485.44010,0.05302
6487.36857,0.02362
6489.29704,0.05119
6491.22551,0.10765
6493.15398,0.07875
6495.08244,-0.01432
6497.01091,-0.04923
6498.93938,-0.00689
6500.86785,0.06036
6502.79632,0.09941
6504.72479,0.08222
6506.65326,0.04723
6508.58172,0.03325
6510.51019,0.02884
6512.43866,0.05228
6514.36713,0.10885
6516.29560,0.13231
6518.22407,0.10839
6520.15254,0.07268
6522.08101,0.01158
6524.00947,-0.03244
6525.93794,0.01842
6527.86641,0.06909
6529.79488,0.05238
6531.72335,0.06206
6533.65182,0.10249
6535.58029,0.08959
6537.50875,0.05008
6539.43722,0.05129
6541.36569,0.07009
6543.29416,0.05265
6545.22263,0.00871
6547.15110,-0.02052
6549.07957,-0.03371
6551.00804,-0.03024
6552.93650,0.03019
6554.86497,0.11836
6556.79344,0.12611
6558.72191,0.07006
6560.65038,0.04008
6562.57885,0.03876
6564.50732,0.03031
6566.43578,0.00462
6568.36425,0.00901
6570.29272,0.04718
6572.22119,0.03753
6574.14966,-0.00657
6576.07813,0.01111
6578.00660,0.08189
6579.93507,0.10557
6581.86353,0.07078
6583.79200,0.06263
6585.72047,0.09921
6587.64894,0.10069
6589.57741,0.03769
6591.50588,-0.03536
6593.43435,-0.04536
6595.36281,0.02310
6597.29128,0.04576
6599.21975,0.00129
6601.14822,-0.00687
6603.07669,0.00910
6605.00516,-0.00247
6606.93363,-0.02631
6608.86210,-0.01927
6610.79056,0.03134
6612.71903,0.06167
6614.64750,0.05293
6616.57597,0.03638
6618.50444,0.00670
6620.43291,-0.03695
6622.36138,-0.06720
6624.28984,-0.05026
6626.21831,0.00815
6628.14678,0.07165
6630.07525,0.08464
6632.00372,0.05389
6633.93219,0.04324
6635.86066,0.03468
6637.78912,0.02225
6639.71759,0.04411
6641.64606,0.07009
6643.57453,0.07058
6645.50300,0.04254
6647.43147,0.00408
6649.35994,-0.00501
6651.28841,0.03062
6653.21687,0.09063
6655.14534,0.09531
6657.07381,0.01794
6659.00228,-0.00159
6660.93075,0.07910
6662.85922,0.15037
6664.78769,0.14477
6666.71615,0.06552
6668.64462,-0.00039
6670.57309,-0.00359
6672.50156,0.00299
6674.43003,0.00438
6676.35850,0.01771
6678.28697,0.02752
6680.21544,0.01685
6682.14390,0.01207
6684.07237,0.02685
6686.00084,0.05357
6687.92931,0.11365
6689.85778,0.15446
6691.78625,0.10910
6693.71472,0.04996
6695.64318,0.02556
6697.57165,0.00423
6699.50012,-0.00693
6701.42859,-0.00614
6703.35706,0.00385
6705.28553,0.06285
6707.21400,0.11355
6709.14247,0.10231
6711.07093,0.08891
6712.99940,0.09160
6714.92787,0.09271
6716.85634,0.10835
6718.78481,0.11853
6720.71328,0.09175
6722.64175,0.06364
6724.57021,0.02443
6726.49868,-0.01402
6728.42715,0.02759
6730.35562,0.12334
6732.28409,0.15631
6734.21256,0.10635
6736.14103,0.05939
6738.06950,0.06126
6739.99796,0.05290
6741.92643,0.01890
6743.85490,-0.00002
6745.78337,-0.02044
6747.71184,-0.05204
6749.64031,-0.07649
6751.56878,-0.05344
6753.49724,0.00026
6755.42571,-0.00227
6757.35418,-0.03506
6759.28265,-0.05071
6761.21112,-0.07002
6763.13959,-0.03866
6765.06806,0.08153
6766.99653,0.17303
6768.92499,0.15311
6770.85346,0.10465
6772.78193,0.10411
6774.71040,0.13275
6776.63887,0.15343
6778.56734,0.14617
6780.49581,0.10556
6782.42427,0.05091
6784.35274,-0.00263
6786.28121,-0.04391
6788.20968,-0.04065
6790.13815,-0.00058
6792.06662,0.03167
6793.99509,0.03716
6795.92355,0.00861
6797.85202,-0.02772
6799.78049,-0.02946
6801.70896,-0.00906
6803.63743,0.01759
6805.56590,0.04000
6807.49437,0.01642
6809.42284,-0.03239
6811.35130,-0.02625
6813.27977,0.02746
6815.20824,0.04245
6817.13671,0.03546
6819.06518,0.07140
6820.99365,0.13044
6822.92212,0.07706
6824.85058,-0.08158
6826.77905,-0.11548
6828.70752,-0.01550
6830.63599,0.03595
6832.56446,-0.04086
6834.49293,-0.13616
6836.42140,-0.10160
6838.34987,0.02339
6840.27833,0.08156
6842.20680,0.05133
6844.13527,-0.00517
6846.06374,-0.02207
6847.99221,0.02035
6849.92068,0.04773
6851.84915,0.02405
6853.77761,0.01099
6855.70608,-0.01895
6857.63455,-0.06856
6859.56302,-0.03840
6861.49149,0.05581
6863.41996,0.12814
6865.34843,0.13772
6867.27690,0.06996
6869.20536,0.00591
6871.13383,0.01501
6873.06230,0.04876
6874.99077,0.06101
6876.91924,0.08052
6878.84771,0.11137
6880.77618,0.11534
6882.70464,0.08888
6884.63311,0.05073
6886.56158,0.00894
6888.49005,-0.06291
6890.41852,-0.16111
6892.34699,-0.17971
6894.27546,-0.11314
6896.20393,-0.04666
6898.13239,0.00875
6900.06086,0.04355
6901.98933,0.04329
6903.91780,-0.02219
6905.84627,-0.10953
6907.77474,-0.06103
6909.70321,0.06711
6911.63167,0.13053
6913.56014,0.10182
6915.48861,0.00855
6917.41708,-0.03202
6919.34555,0.03469
6921.27402,0.08283
6923.20249,0.07241
6925.13096,0.06292
6927.05942,0.04322
6928.98789,-0.03374
6930.91636,-0.08900
6932.84483,-0.02993
6934.77330,0.03303
6936.70177,0.05356
6938.63024,0.10259
6940.55870,0.12802
6942.48717,0.02407
6944.41564,-0.07061
6946.34411,-0.02862
6948.27258,0.06652
6950.20105,0.09698
6952.12952,0.06993
6954.05799,-0.00535
6955.98645,-0.08739
6957.91492,-0.09758
6959.84339,-0.05151
6961.77186,0.00866
6963.70033,0.07648
6965.62880,0.10892
6967.55727,0.03672
6969.48573,-0.04138
6971.41420,0.00001
6973.34267,0.10175
6975.27114,0.20399
6977.19961,0.26175
6979.12808,0.27389
6981.05655,0.23604
6982.98501,0.11730
6984.91348,0.02251
6986.84195,0.04379
6988.77042,0.07950
6990.69889,0.05561
6992.62736,0.07984
6994.55583,0.19354
6996.48430,0.23922
6998.41276,0.11076
7000.34123,-0.01798
7002.26970,-0.00138
7004.19817,0.07079
7006.12664,0.04983
7008.05511,-0.06422
7009.98358,-0.12097
7011.91204,-0.08695
7013.84051,0.00374
7015.76898,0.10277
7017.69745,0.13317
7019.62592,0.07171
7021.55439,0.01567
7023.48286,0.01609
7025.41133,-0.01005
7027.33979,-0.02636
7029.26826,0.07368
7031.19673,0.15811
7033.12520,0.12068
7035.05367,0.04925
7036.98214,0.04127
7038.91061,0.01188
7040.83907,-0.09217
7042.76754,-0.07479
7044.69601,0.11883
7046.62448,0.19997
7048.55295,0.10053
7050.48142,-0.00530
7052.40989,-0.01179
7054.33836,0.00601
7056.26682,-0.06009
7058.19529,-0.11651
7060.12376,-0.03756
7062.05223,0.08600
7063.98070,0.11155
7065.90917,0.00542
7067.83764,-0.15793
7069.76610,-0.24953
7071.69457,-0.12861
7073.62304,0.04663
7075.55151,0.11081
7077.47998,0.10118
7079.40845,0.07748
7081.33692,0.08600
7083.26539,0.10707
7085.19385,0.08829
7087.12232,0.04371
7089.05079,0.03858
7090.97926,0.09758
7092.90773,0.20906
7094.83620,0.32169
7096.76467,0.30872
7098.69313,0.16673
7100.62160,0.07431
7102.55007,0.05676
7104.47854,-0.00005
7106.40701,-0.05893
7108.33548,-0.02854
7110.26395,0.05598
7112.19242,0.10325
7114.12088,0.05038
7116.04935,-0.01951
7117.97782,-0.02209
7119.90629,-0.02101
7121.83476,-0.03112
7123.76323,0.00137
7125.69170,0.08809
7127.62016,0.14246
7129.54863,0.10359
7131.47710,0.06475
7133.40557,0.07281
7135.33404,0.04770
7137.26251,-0.04850
7139.19098,-0.09455
7141.11944,-0.00605
7143.04791,0.09448
7144.97638,0.09022
7146.90485,0.01597
7148.83332,-0.03311
7150.76179,-0.06045
7152.69026,-0.10444
7154.61873,-0.16635
7156.54719,-0.16850
7158.47566,-0.08436
7160.40413,-0.01802
7162.33260,-0.03367
7164.26107,-0.07881
7166.18954,-0.06286
7168.11801,0.01436
7170.04647,0.03041
7171.97494,0.03302
7173.90341,0.14857
7175.83188,0.31200
7177.76035,0.38603
7179.68882,0.35893
7181.61729,0.30968
7183.54576,0.21463
7185.47422,0.08212
7187.40269,0.01326
7189.33116,-0.04680
7191.25963,-0.12867
7193.18810,-0.10746
7195.11657,-0.01464
7197.04504,0.07295
7198.97350,0.11971
7200.90197,0.07267
7202.83044,0.03427
7204.75891,0.13800
7206.68738,0.21837
7208.61585,0.15697
7210.54432,0.05497
7212.47279,-0.03542
7214.40125,-0.07425
7216.32972,-0.03526
7218.25819,-0.00428
7220.18666,0.05202
7222.11513,0.19590
7224.04360,0.30178
7225.97207,0.29719
7227.90053,0.23635
7229.82900,0.19049
7231.75747,0.15478
7233.68594,0.01152
7235.61441,-0.14043
7237.54288,-0.16262
7239.47135,-0.12506
7241.39982,-0.03676
7243.32828,0.12673
7245.25675,0.18436
7247.18522,0.13492
7249.11369,0.11532
7251.04216,0.15275
7252.97063,0.15156
7254.89910,0.09985
7256.82756,0.05120
7258.75603,0.04573
7260.68450,0.15156
7262.61297,0.25664
7264.54144,0.21030
7266.46991,0.10778
7268.39838,0.11133
7270.32685,0.19368
7272.25531,0.14108
7274.18378,-0.02289
7276.11225,-0.07798
7278.04072,-0.03452
7279.96919,0.03677
7281.89766,0.03869
7283.82613,-0.03457
7285.75459,-0.09913
7287.68306,-0.12343
7289.61153,-0.09055
7291.54000,0.01233
7293.46847,0.09005
7295.39694,0.04098
7297.32541,-0.04120
7299.25387,-0.00378
7301.18234,0.13664
7303.11081,0.22342
7305.03928,0.15967
7306.96775,0.09463
7308.89622,0.18620
7310.82469,0.27025
7312.75316,0.22416
7314.68162,0.13196
7316.61009,0.07984
7318.53856,0.05307
7320.46703,-0.01692
7322.39550,-0.02864
7324.32397,0.00990
7326.25244,-0.07283
7328.18090,-0.21331
7330.10937,-0.20781
7332.03784,-0.09635
7333.96631,-0.02841
7335.89478,-0.01443
7337.82325,0.00608
7339.75172,0.08276
7341.68019,0.18506
7343.60865,0.20446
7345.53712,0.11752
7347.46559,0.07045
7349.39406,0.16163
7351.32253,0.23234
7353.25100,0.18360
7355.17947,0.02289
7357.10793,-0.22647
7359.03640,-0.41919
7360.96487,-0.35685
7362.89334,-0.06788
7364.82181,0.21997
7366.75028,0.26856
7368.67875,0.04881
7370.60722,-0.17369
7372.53568,-0.24657
7374.46415,-0.23559
7376.39262,-0.19529
7378.32109,-0.18335
7380.24956,-0.12194
7382.17803,0.06449
7384.10650,0.26359
7386.03496,0.32396
7387.96343,0.19041
7389.89190,0.04506
7391.82037,0.00529
7393.74884,-0.02007
7395.67731,-0.08948
7397.60578,-0.17807
7399.53425,-0.20315
7401.46271,-0.14852
7403.39118,-0.09590
7405.31965,-0.09947
7407.24812,-0.14268
7409.17659,-0.15850
7411.10506,-0.13627
7413.03353,-0.08836
7414.96199,0.07533
7416.89046,0.38221
7418.81893,0.55639
7420.74740,0.37342
7422.67587,0.17878
7424.60434,0.08020
7426.53281,-0.00136
7428.46128,-0.04234
7430.38974,-0.01093
7432.31821,0.06781
7434.24668,0.18643
7436.17515,0.32986
7438.10362,0.41840
7440.03209,0.35050
7441.96056,0.21298
7443.88902,0.17282
7445.81749,0.16872
7447.74596,0.12634
7449.67443,0.07830
7451.60290,0.04616
7453.53137,0.03834
7455.45984,0.01726
7457.38831,-0.03782
7459.31677,-0.04464
7461.24524,0.04791
7463.17371,0.12012
7465.10218,0.14125
7467.03065,0.14874
7468.95912,0.13660
7470.88759,0.09566
7472.81605,0.11109
7474.74452,0.19688
7476.67299,0.15844
7478.60146,-0.01987
7480.52993,-0.02737
7482.45840,0.08229
7484.38687,0.04725
7486.31533,-0.00217
7488.24380,0.07597
7490.17227,0.21807
7492.10074,0.22573
7494.02921,0.12502
7495.95768,0.10897
7497.88615,0.19286
