399.19301,0.01885
401.12148,-0.05886
403.04995,0.13876
404.97842,0.25138
406.90689,0.19422
408.83536,0.07620
410.76382,-0.00744
412.69229,-0.06109
414.62076,-0.07024
416.54923,-0.00865
418.47770,0.06677
420.40617,0.16072
422.33464,0.26398
424.26311,0.25459
426.19157,0.13730
428.12004,0.03592
430.04851,0.00670
431.97698,0.04047
433.90545,0.01552
435.83392,-0.02651
437.76239,0.01014
439.69085,0.05906
441.61932,0.03079
443.54779,-0.04375
445.47626,-0.06360
447.40473,-0.03148
449.33320,0.00537
451.26167,0.06056
453.19013,0.12295
455.11860,0.12731
457.04707,0.08926
458.97554,0.06158
460.90401,0.01044
462.83248,-0.05149
464.76095,-0.06619
466.68942,-0.03427
468.61788,-0.00559
470.54635,0.00146
472.47482,0.06606
474.40329,0.17112
476.33176,0.10411
478.26023,0.03868
480.18870,0.08297
482.11716,0.16625
484.04563,0.21152
485.97410,0.22214
487.90257,0.19423
489.83104,0.12030
491.75951,0.07013
493.68798,0.09754
495.61645,0.15745
497.54491,0.18901
499.47338,0.17937
501.40185,0.14027
503.33032,0.10826
505.25879,0.09863
507.18726,0.10788
509.11573,0.12391
511.04419,0.09169
512.97266,0.05326
514.90113,0.06151
516.82960,0.05124
518.75807,0.02049
520.68654,0.03658
522.61501,0.07338
524.54348,0.07801
526.47194,0.06061
528.40041,0.07414
530.32888,0.11352
532.25735,0.11381
534.18582,0.07593
536.11429,0.04764
538.04276,0.04665
539.97122,0.07138
541.89969,0.09658
543.82816,0.08946
545.75663,0.06137
547.68510,0.06886
549.61357,0.16222
551.54204,0.52657
553.47051,0.92487
555.39897,0.72182
557.32744,0.22670
559.25591,0.09238
561.18438,0.13155
563.11285,0.12273
565.04132,0.08206
566.96979,0.04758
568.89825,0.06409
570.82672,0.09923
572.75519,0.10437
574.68366,0.08356
576.61213,0.06153
578.54060,0.05495
580.46907,0.07781
582.39754,0.09730
584.32600,0.09842
586.25447,0.11331
588.18294,0.12494
590.11141,0.10714
592.03988,0.09957
593.96835,0.12618
595.89682,0.15728
597.82528,0.17374
599.75375,0.15951
601.68222,0.12291
603.61069,0.09817
605.53916,0.09440
607.46763,0.09068
609.39610,0.07756
611.32456,0.06878
613.25303,0.06865
615.18150,0.06991
617.10997,0.07366
619.03844,0.08393
620.96691,0.09680
622.89538,0.10345
624.82385,0.08999
626.75231,0.06423
628.68078,0.06097
630.60925,0.07909
632.53772,0.08463
634.46619,0.07423
636.39466,0.06507
638.32313,0.06951
640.25159,0.09311
642.18006,0.11157
644.10853,0.11039
646.03700,0.10895
647.96547,0.11590
649.89394,0.11616
651.82241,0.10510
653.75088,0.10798
655.67934,0.12778
657.60781,0.14568
659.53628,0.15468
661.46475,0.13686
663.39322,0.10288
665.32169,0.09727
667.25016,0.12804
669.17862,0.13959
671.10709,0.11884
673.03556,0.10750
674.96403,0.10322
676.89250,0.10524
678.82097,0.11156
680.74944,0.11654
682.67791,0.12482
684.60637,0.12813
686.53484,0.11560
688.46331,0.10624
690.39178,0.11297
692.32025,0.12148
694.24872,0.12020
696.17719,0.11382
698.10565,0.11069
700.03412,0.11531
701.96259,0.12726
703.89106,0.13601
705.81953,0.13222
707.74800,0.12251
709.67647,0.11925
711.60494,0.12335
713.53340,0.12701
715.46187,0.11989
717.39034,0.10145
719.31881,0.09112
721.24728,0.09803
723.17575,0.10869
725.10422,0.11638
727.03268,0.12293
728.96115,0.13117
730.88962,0.13741
732.81809,0.12943
734.74656,0.11380
736.67503,0.10840
738.60350,0.11078
740.53197,0.11091
742.46043,0.10969
744.38890,0.11662
746.31737,0.12804
748.24584,0.12951
750.17431,0.12462
752.10278,0.12218
754.03125,0.11757
755.95971,0.10652
757.88818,0.10136
759.81665,0.11493
761.74512,0.13408
763.67359,0.13702
765.60206,0.12678
767.53053,0.12033
769.45900,0.12189
771.38746,0.12507
773.31593,0.11951
775.24440,0.10831
777.17287,0.10388
779.10134,0.10968
781.02981,0.12792
782.95828,0.14382
784.88674,0.14012
786.81521,0.12778
788.74368,0.12677
790.67215,0.13808
792.60062,0.14447
794.52909,0.13921
796.45756,0.12963
798.38602,0.12249
800.31449,0.11913
802.24296,0.11816
804.17143,0.11893
806.09990,0.11980
808.02837,0.12102
809.95684,0.12154
811.88531,0.12239
813.81377,0.12519
815.74224,0.12850
817.67071,0.12990
819.59918,0.12776
821.52765,0.12469
823.45612,0.12062
825.38459,0.11536
827.31305,0.11078
829.24152,0.11397
831.16999,0.12582
833.09846,0.13269
835.02693,0.13559
836.95540,0.13822
838.88387,0.12783
840.81234,0.11129
842.74080,0.10837
844.66927,0.11512
846.59774,0.11795
848.52621,0.11757
850.45468,0.12221
852.38315,0.13333
854.31162,0.14117
856.24008,0.13964
858.16855,0.13028
860.09702,0.11887
862.02549,0.11675
863.95396,0.12504
865.88243,0.13488
867.81090,0.14310
869.73937,0.14556
871.66783,0.13684
873.59630,0.12652
875.52477,0.12588
877.45324,0.13067
879.38171,0.13620
881.31018,0.14169
883.23865,0.14336
885.16711,0.13938
887.09558,0.13282
889.02405,0.12875
890.95252,0.12741
892.88099,0.12724
894.80946,0.13224
896.73793,0.13754
898.66640,0.13243
900.59486,0.12449
902.52333,0.12438
904.45180,0.12630
906.38027,0.12644
908.30874,0.13002
910.23721,0.13436
912.16568,0.13398
914.09414,0.13303
916.02261,0.13309
917.95108,0.13308
919.87955,0.13556
921.80802,0.13923
923.73649,0.14053
925.66496,0.14046
927.59343,0.14075
929.52189,0.13828
931.45036,0.13488
933.37883,0.13675
935.30730,0.14048
937.23577,0.14122
939.16424,0.14117
941.09271,0.14457
943.02117,0.15183
944.94964,0.15617
946.87811,0.15135
948.80658,0.14398
950.73505,0.14520
952.66352,0.15032
954.59199,0.14922
956.52045,0.14446
958.44892,0.14140
960.37739,0.13807
962.30586,0.13337
964.23433,0.13364
966.16280,0.13830
968.09127,0.14169
970.01974,0.14531
971.94820,0.14478
973.87667,0.13975
975.80514,0.14028
977.73361,0.14450
979.66208,0.14456
981.59055,0.14104
983.51902,0.14040
985.44748,0.14482
987.37595,0.14930
989.30442,0.15077
991.23289,0.14932
993.16136,0.14593
995.08983,0.13855
997.01830,0.12837
998.94677,0.12530
1000.87523,0.13223
1002.80370,0.14398
1004.73217,0.15177
1006.66064,0.15158
1008.58911,0.15197
1010.51758,0.15609
1012.44605,0.15665
1014.37451,0.15116
1016.30298,0.14724
1018.23145,0.14755
1020.15992,0.14660
1022.08839,0.14502
1024.01686,0.13864
1025.94533,0.10946
1027.87380,0.06847
1029.80226,0.07227
1031.73073,0.12534
1033.65920,0.16089
1035.58767,0.15698
1037.51614,0.14686
1039.44461,0.15000
1041.37308,0.15767
1043.30154,0.15725
1045.23001,0.14738
1047.15848,0.13867
1049.08695,0.14056
1051.01542,0.14729
1052.94389,0.15156
1054.87236,0.15193
1056.80083,0.15000
1058.72929,0.15225
1060.65776,0.15752
1062.58623,0.16108
1064.51470,0.16373
1066.44317,0.16025
1068.37164,0.15239
1070.30011,0.15087
1072.22857,0.15274
1074.15704,0.15429
1076.08551,0.15707
1078.01398,0.15861
1079.94245,0.16008
1081.87092,0.16111
1083.79939,0.15872
1085.72786,0.15787
1087.65632,0.16053
1089.58479,0.16276
1091.51326,0.16247
1093.44173,0.15404
1095.37020,0.13948
1097.29867,0.13372
1099.22714,0.14228
1101.15560,0.15430
1103.08407,0.15631
1105.01254,0.14845
1106.94101,0.14702
1108.86948,0.15703
1110.79795,0.16430
1112.72642,0.16585
1114.65489,0.16797
1116.58335,0.16723
1118.51182,0.15887
1120.44029,0.14883
1122.36876,0.14774
1124.29723,0.15227
1126.22570,0.14981
1128.15417,0.14286
1130.08263,0.14327
1132.01110,0.14796
1133.93957,0.14973
1135.86804,0.15106
1137.79651,0.15228
1139.72498,0.15062
1141.65345,0.14940
1143.58191,0.15366
1145.51038,0.16021
1147.43885,0.16170
1149.36732,0.15809
1151.29579,0.15685
1153.22426,0.15821
1155.15273,0.15566
1157.08120,0.15216
1159.00966,0.15249
1160.93813,0.15535
1162.86660,0.15926
1164.79507,0.16250
1166.72354,0.16288
1168.65201,0.16224
1170.58048,0.16583
1172.50894,0.17199
1174.43741,0.17438
1176.36588,0.17070
1178.29435,0.16591
1180.22282,0.16512
1182.15129,0.16436
1184.07976,0.15934
1186.00823,0.15242
1187.93669,0.15170
1189.86516,0.15793
1191.79363,0.15959
1193.72210,0.15555
1195.65057,0.15328
1197.57904,0.15457
1199.50751,0.15816
1201.43597,0.16252
1203.36444,0.16611
1205.29291,0.16630
1207.22138,0.16394
1209.14985,0.16250
1211.07832,0.16174
1213.00679,0.16086
1214.93526,0.15977
1216.86372,0.15914
1218.79219,0.16024
1220.72066,0.16079
1222.64913,0.16031
1224.57760,0.16274
1226.50607,0.16620
1228.43454,0.16674
1230.36300,0.16804
1232.29147,0.17004
1234.21994,0.16494
1236.14841,0.15674
1238.07688,0.15554
1240.00535,0.15722
1241.93382,0.15622
1243.86229,0.15399
1245.79075,0.15126
1247.71922,0.15234
1249.64769,0.15830
1251.57616,0.16115
1253.50463,0.16004
1255.43310,0.16163
1257.36157,0.16428
1259.29003,0.16123
1261.21850,0.15593
1263.14697,0.15596
1265.07544,0.15803
1267.00391,0.15934
1268.93238,0.16209
1270.86085,0.16263
1272.78932,0.15829
1274.71778,0.15601
1276.64625,0.16170
1278.57472,0.16756
1280.50319,0.16318
1282.43166,0.15658
1284.36013,0.15953
1286.28860,0.16454
1288.21706,0.16523
1290.14553,0.16735
1292.07400,0.16998
1294.00247,0.16786
1295.93094,0.15995
1297.85941,0.14921
1299.78788,0.13912
1301.71634,0.12568
1303.64481,0.11005
1305.57328,0.11245
1307.50175,0.13735
1309.43022,0.15931
1311.35869,0.16707
1313.28716,0.16815
1315.21563,0.16748
1317.14409,0.16815
1319.07256,0.16832
1321.00103,0.16610
1322.92950,0.16469
1324.85797,0.16284
1326.78644,0.16054
1328.71491,0.16079
1330.64337,0.15898
1332.57184,0.15663
1334.50031,0.15811
1336.42878,0.15980
1338.35725,0.16247
1340.28572,0.16003
1342.21419,0.15234
1344.14266,0.15215
1346.07112,0.15671
1347.99959,0.16025
1349.92806,0.16064
1351.85653,0.15839
1353.78500,0.15845
1355.71347,0.15909
1357.64194,0.15932
1359.57040,0.16236
1361.49887,0.16835
1363.42734,0.17295
1365.35581,0.17271
1367.28428,0.17169
1369.21275,0.17163
1371.14122,0.17294
1373.06969,0.17828
1374.99815,0.18246
1376.92662,0.17911
1378.85509,0.17452
1380.78356,0.17287
1382.71203,0.17443
1384.64050,0.18035
1386.56897,0.18514
1388.49743,0.18286
1390.42590,0.18251
1392.35437,0.18980
1394.28284,0.19725
1396.21131,0.19764
1398.13978,0.19466
1400.06825,0.18942
1401.99672,0.18467
1403.92518,0.18393
1405.85365,0.18254
1407.78212,0.17847
1409.71059,0.17651
1411.63906,0.17663
1413.56753,0.17813
1415.49600,0.18618
1417.42446,0.20005
1419.35293,0.20208
1421.28140,0.19073
1423.20987,0.18466
1425.13834,0.18348
1427.06681,0.18585
1428.99528,0.19222
1430.92375,0.19409
1432.85221,0.19140
1434.78068,0.19352
1436.70915,0.19507
1438.63762,0.18675
1440.56609,0.17943
1442.49456,0.17818
1444.42303,0.18130
1446.35149,0.18650
1448.27996,0.18765
1450.20843,0.18488
1452.13690,0.18750
1454.06537,0.20039
1455.99384,0.22544
1457.92231,0.23389
1459.85077,0.21003
1461.77924,0.19852
1463.70771,0.20340
1465.63618,0.20531
1467.56465,0.19813
1469.49312,0.19835
1471.42159,0.21173
1473.35006,0.22493
1475.27852,0.21966
1477.20699,0.20543
1479.13546,0.19347
1481.06393,0.18667
1482.99240,0.18546
1484.92087,0.19247
1486.84934,0.20667
1488.77780,0.21827
1490.70627,0.21533
1492.63474,0.20747
1494.56321,0.20823
1496.49168,0.21584
1498.42015,0.21572
1500.34862,0.20857
1502.27709,0.20649
1504.20555,0.21880
1506.13402,0.25530
1508.06249,0.26403
1509.99096,0.23341
1511.91943,0.21687
1513.84790,0.21842
1515.77637,0.22892
1517.70483,0.23295
1519.63330,0.23712
1521.56177,0.24514
1523.49024,0.23682
1525.41871,0.22486
1527.34718,0.21664
1529.27565,0.21041
1531.20412,0.21301
1533.13258,0.22170
1535.06105,0.22136
1536.98952,0.22397
1538.91799,0.24881
1540.84646,0.27168
1542.77493,0.25313
1544.70340,0.22837
1546.63186,0.21263
1548.56033,0.21055
1550.48880,0.21344
1552.41727,0.21308
1554.34574,0.21814
1556.27421,0.24345
1558.20268,0.28534
1560.13115,0.25651
1562.05961,0.21042
1563.98808,0.19523
1565.91655,0.19482
1567.84502,0.20308
1569.77349,0.21007
1571.70196,0.20468
1573.63043,0.20233
1575.55889,0.20829
1577.48736,0.20311
1579.41583,0.18888
1581.34430,0.18121
1583.27277,0.18245
1585.20124,0.18865
1587.12971,0.19288
1589.05818,0.19234
1590.98664,0.18881
1592.91511,0.18811
1594.84358,0.19250
1596.77205,0.19486
1598.70052,0.19233
1600.62899,0.18992
1602.55746,0.19065
1604.48592,0.19317
1606.41439,0.19539
1608.34286,0.19522
1610.27133,0.19233
1612.19980,0.19174
1614.12827,0.19774
1616.05674,0.20633
1617.98521,0.20510
1619.91367,0.20362
1621.84214,0.21184
1623.77061,0.21836
1625.69908,0.21574
1627.62755,0.21197
1629.55602,0.20846
1631.48449,0.21005
1633.41295,0.22448
1635.34142,0.24622
1637.26989,0.23982
1639.19836,0.21738
1641.12683,0.20563
1643.05530,0.20855
1644.98377,0.22543
1646.91223,0.24534
1648.84070,0.24683
1650.76917,0.24992
1652.69764,0.26402
1654.62611,0.24598
1656.55458,0.21797
1658.48305,0.20873
1660.41152,0.22058
1662.33998,0.23236
1664.26845,0.21742
1666.19692,0.20736
1668.12539,0.21823
1670.05386,0.22815
1671.98233,0.22312
1673.91080,0.21722
1675.83926,0.21357
1677.76773,0.21310
1679.69620,0.22021
1681.62467,0.23505
1683.55314,0.25081
1685.48161,0.24467
1687.41008,0.22748
1689.33855,0.21406
1691.26701,0.20538
1693.19548,0.20853
1695.12395,0.22506
1697.05242,0.24122
1698.98089,0.24489
1700.90936,0.23643
1702.83783,0.22870
1704.76629,0.22882
1706.69476,0.22172
1708.62323,0.20887
1710.55170,0.20595
1712.48017,0.21316
1714.40864,0.22804
1716.33711,0.24371
1718.26558,0.23077
1720.19404,0.20384
1722.12251,0.19236
1724.05098,0.19054
1725.97945,0.19032
1727.90792,0.19457
1729.83639,0.20523
1731.76486,0.21979
1733.69332,0.22793
1735.62179,0.21730
1737.55026,0.20988
1739.47873,0.21085
1741.40720,0.21111
1743.33567,0.20911
1745.26414,0.20837
1747.19261,0.21202
1749.12107,0.21699
1751.04954,0.21298
1752.97801,0.20578
1754.90648,0.20611
1756.83495,0.20873
1758.76342,0.20687
1760.69189,0.20399
1762.62035,0.19928
1764.54882,0.19345
1766.47729,0.19320
1768.40576,0.19990
1770.33423,0.21216
1772.26270,0.22165
1774.19117,0.21553
1776.11964,0.20392
1778.04810,0.19818
1779.97657,0.19801
1781.90504,0.19709
1783.83351,0.19528
1785.76198,0.19465
1787.69045,0.19577
1789.61892,0.20355
1791.54738,0.21419
1793.47585,0.21191
1795.40432,0.20416
1797.33279,0.20429
1799.26126,0.20870
1801.18973,0.20859
1803.11820,0.20340
1805.04666,0.19983
1806.97513,0.19986
1808.90360,0.20188
1810.83207,0.20220
1812.76054,0.19765
1814.68901,0.19256
1816.61748,0.19117
1818.54595,0.19222
1820.47441,0.19271
1822.40288,0.19378
1824.33135,0.19603
1826.25982,0.19591
1828.18829,0.19848
1830.11676,0.20434
1832.04523,0.20256
1833.97369,0.19730
1835.90216,0.19504
1837.83063,0.19419
1839.75910,0.19443
1841.68757,0.19894
1843.61604,0.20528
1845.54451,0.20416
1847.47298,0.19859
1849.40144,0.19524
1851.32991,0.19364
1853.25838,0.19195
1855.18685,0.19008
1857.11532,0.18859
1859.04379,0.18753
1860.97226,0.18874
1862.90072,0.19254
1864.82919,0.19844
1866.75766,0.20744
1868.68613,0.21338
1870.61460,0.20655
1872.54307,0.19551
1874.47154,0.19078
1876.40001,0.19071
1878.32847,0.18979
1880.25694,0.18762
1882.18541,0.18615
1884.11388,0.18676
1886.04235,0.18923
1887.97082,0.19274
1889.89929,0.19528
1891.82775,0.19462
1893.75622,0.19322
1895.68469,0.19220
1897.61316,0.19159
1899.54163,0.19229
1901.47010,0.19265
1903.39857,0.19301
1905.32704,0.19472
1907.25550,0.19654
1909.18397,0.19772
1911.11244,0.19737
1913.04091,0.19509
1914.96938,0.19362
1916.89785,0.19553
1918.82632,0.19849
1920.75478,0.19960
1922.68325,0.19919
1924.61172,0.19760
1926.54019,0.19660
1928.46866,0.19550
1930.39713,0.19267
1932.32560,0.19121
1934.25407,0.19186
1936.18253,0.19151
1938.11100,0.19074
1940.03947,0.19305
1941.96794,0.19789
1943.89641,0.19930
1945.82488,0.19637
1947.75335,0.19283
1949.68181,0.19014
1951.61028,0.18934
1953.53875,0.19053
1955.46722,0.19236
1957.39569,0.19352
1959.32416,0.19416
1961.25263,0.19470
1963.18110,0.19494
1965.10956,0.19547
1967.03803,0.19554
1968.96650,0.19475
1970.89497,0.19501
1972.82344,0.19585
1974.75191,0.19232
1976.68038,0.18235
1978.60884,0.17488
1980.53731,0.17823
1982.46578,0.18607
1984.39425,0.19007
1986.32272,0.19139
1988.25119,0.19367
1990.17966,0.19840
1992.10812,0.20082
1994.03659,0.19729
1995.96506,0.19365
1997.89353,0.19220
1999.82200,0.19140
2001.75047,0.19181
2003.67894,0.19324
2005.60741,0.19482
2007.53587,0.19560
2009.46434,0.19576
2011.39281,0.19515
2013.32128,0.19341
2015.24975,0.19279
2017.17822,0.19336
2019.10669,0.19339
2021.03515,0.19395
2022.96362,0.19435
2024.89209,0.19270
2026.82056,0.19207
2028.74903,0.19514
2030.67750,0.19707
2032.60597,0.19451
2034.53444,0.19181
2036.46290,0.19141
2038.39137,0.19187
2040.31984,0.19306
2042.24831,0.19551
2044.17678,0.19682
2046.10525,0.19363
2048.03372,0.19000
2049.96218,0.19131
2051.89065,0.19377
2053.81912,0.19404
2055.74759,0.19561
2057.67606,0.19910
2059.60453,0.19920
2061.53300,0.19456
2063.46147,0.19118
2065.38993,0.19173
2067.31840,0.19374
2069.24687,0.19584
2071.17534,0.19624
2073.10381,0.19579
2075.03228,0.19618
2076.96075,0.19528
2078.88921,0.19394
2080.81768,0.19324
2082.74615,0.19178
2084.67462,0.19147
2086.60309,0.19369
2088.53156,0.19610
2090.46003,0.19641
2092.38850,0.19499
2094.31696,0.19389
2096.24543,0.19439
2098.17390,0.19658
2100.10237,0.19934
2102.03084,0.20048
2103.95931,0.19905
2105.88778,0.19596
2107.81624,0.19316
2109.74471,0.19199
2111.67318,0.19215
2113.60165,0.19299
2115.53012,0.19330
2117.45859,0.19231
2119.38706,0.19124
2121.31553,0.19043
2123.24399,0.18779
2125.17246,0.18445
2127.10093,0.18528
2129.02940,0.18963
2130.95787,0.19162
2132.88634,0.18773
2134.81481,0.18012
2136.74327,0.17606
2138.67174,0.18028
2140.60021,0.18948
2142.52868,0.19677
2144.45715,0.19934
2146.38562,0.19885
2148.31409,0.19644
2150.24255,0.19340
2152.17102,0.19278
2154.09949,0.19531
2156.02796,0.19765
2157.95643,0.19845
2159.88490,0.19907
2161.81337,0.19814
2163.74184,0.19519
2165.67030,0.19336
2167.59877,0.19255
2169.52724,0.19259
2171.45571,0.19521
2173.38418,0.19665
2175.31265,0.19465
2177.24112,0.19402
2179.16958,0.19636
2181.09805,0.19640
2183.02652,0.19260
2184.95499,0.19047
2186.88346,0.19179
2188.81193,0.19285
2190.74040,0.19219
2192.66887,0.19311
2194.59733,0.19632
2196.52580,0.19760
2198.45427,0.19584
2200.38274,0.19386
2202.31121,0.19456
2204.23968,0.19726
2206.16815,0.19697
2208.09661,0.19312
2210.02508,0.19041
2211.95355,0.19012
2213.88202,0.19135
2215.81049,0.19390
2217.73896,0.19511
2219.66743,0.19380
2221.59590,0.19205
2223.52436,0.19179
2225.45283,0.19471
2227.38130,0.19821
2229.30977,0.19694
2231.23824,0.19277
2233.16671,0.19100
2235.09518,0.19132
2237.02364,0.19257
2238.95211,0.19417
2240.88058,0.19363
2242.80905,0.19289
2244.73752,0.19428
2246.66599,0.19519
2248.59446,0.19532
2250.52293,0.19675
2252.45139,0.19921
2254.37986,0.19891
2256.30833,0.19492
2258.23680,0.19397
2260.16527,0.19682
2262.09374,0.19740
2264.02221,0.19613
2265.95067,0.19534
2267.87914,0.19464
2269.80761,0.19448
2271.73608,0.19595
2273.66455,0.19818
2275.59302,0.19887
2277.52149,0.19780
2279.44996,0.19677
2281.37842,0.19789
2283.30689,0.19974
2285.23536,0.19872
2287.16383,0.19695
2289.09230,0.19740
2291.02077,0.19985
2292.94924,0.20606
2294.87770,0.21187
2296.80617,0.20846
2298.73464,0.20127
2300.66311,0.19915
2302.59158,0.19775
2304.52005,0.19476
2306.44852,0.19497
2308.37699,0.19892
2310.30545,0.20181
2312.23392,0.19970
2314.16239,0.19631
2316.09086,0.19666
2318.01933,0.19862
2319.94780,0.19839
2321.87627,0.19364
2323.80473,0.18550
2325.73320,0.17870
2327.66167,0.17558
2329.59014,0.17608
2331.51861,0.17929
2333.44708,0.18655
2335.37555,0.19680
2337.30401,0.19980
2339.23248,0.19173
2341.16095,0.18565
2343.08942,0.18725
2345.01789,0.19062
2346.94636,0.19379
2348.87483,0.19342
2350.80330,0.18955
2352.73176,0.18806
2354.66023,0.19249
2356.58870,0.20015
2358.51717,0.20016
2360.44564,0.18752
2362.37411,0.18236
2364.30258,0.18179
2366.23104,0.17567
2368.15951,0.17686
2370.08798,0.18576
2372.01645,0.19311
2373.94492,0.19498
2375.87339,0.19503
2377.80186,0.19648
2379.73033,0.19652
2381.65879,0.19588
2383.58726,0.19672
2385.51573,0.19725
2387.44420,0.19691
2389.37267,0.19713
2391.30114,0.19836
2393.22961,0.19941
2395.15807,0.19883
2397.08654,0.19735
2399.01501,0.19713
2400.94348,0.19844
2402.87195,0.19929
2404.80042,0.19824
2406.72889,0.19634
2408.65736,0.19583
2410.58582,0.19612
2412.51429,0.19534
2414.44276,0.19392
2416.37123,0.19266
2418.29970,0.19232
2420.22817,0.19257
2422.15664,0.19215
2424.08510,0.19159
2426.01357,0.19180
2427.94204,0.19361
2429.87051,0.19694
2431.79898,0.19905
2433.72745,0.19755
2435.65592,0.19350
2437.58439,0.19156
2439.51285,0.19375
2441.44132,0.19575
2443.36979,0.19566
2445.29826,0.19599
2447.22673,0.19776
2449.15520,0.19958
2451.08367,0.19880
2453.01213,0.19587
2454.94060,0.19394
2456.86907,0.19412
2458.79754,0.19475
2460.72601,0.19373
2462.65448,0.19256
2464.58295,0.19404
2466.51142,0.19680
2468.43988,0.19694
2470.36835,0.19475
2472.29682,0.19457
2474.22529,0.19670
2476.15376,0.19881
2478.08223,0.19991
2480.01070,0.19901
2481.93916,0.19777
2483.86763,0.19798
2485.79610,0.19799
2487.72457,0.19770
2489.65304,0.19751
2491.58151,0.19592
2493.50998,0.19382
2495.43844,0.19425
2497.36691,0.19715
2499.29538,0.19927
2501.22385,0.19980
2503.15232,0.19982
2505.08079,0.19924
2507.00926,0.19860
2508.93773,0.19871
2510.86619,0.19804
2512.79466,0.19571
2514.72313,0.19534
2516.65160,0.19845
2518.58007,0.20119
2520.50854,0.20140
2522.43701,0.20024
2524.36547,0.19864
2526.29394,0.19607
2528.22241,0.19491
2530.15088,0.19747
2532.07935,0.19865
2534.00782,0.19621
2535.93629,0.19612
2537.86476,0.19929
2539.79322,0.20128
2541.72169,0.20153
2543.65016,0.20084
2545.57863,0.19951
2547.50710,0.19981
2549.43557,0.20116
2551.36404,0.20115
2553.29250,0.20105
2555.22097,0.20143
2557.14944,0.20123
2559.07791,0.20084
2561.00638,0.20051
2562.93485,0.19992
2564.86332,0.19972
2566.79179,0.20023
2568.72025,0.19947
2570.64872,0.19713
2572.57719,0.19628
2574.50566,0.19813
2576.43413,0.20049
2578.36260,0.20140
2580.29107,0.20126
2582.21953,0.20021
2584.14800,0.19883
2586.07647,0.19936
2588.00494,0.20041
2589.93341,0.19963
2591.86188,0.19889
2593.79035,0.19862
2595.71882,0.19711
2597.64728,0.19539
2599.57575,0.19506
2601.50422,0.19594
2603.43269,0.19779
2605.36116,0.20024
2607.28963,0.20066
2609.21810,0.19485
2611.14656,0.18644
2613.07503,0.18703
2615.00350,0.19531
2616.93197,0.19922
2618.86044,0.19906
2620.78891,0.20082
2622.71738,0.20304
2624.64585,0.20356
2626.57431,0.20335
2628.50278,0.20429
2630.43125,0.20588
2632.35972,0.20502
2634.28819,0.20214
2636.21666,0.20004
2638.14513,0.19967
2640.07359,0.20079
2642.00206,0.20217
2643.93053,0.20252
2645.85900,0.20146
2647.78747,0.20079
2649.71594,0.20239
2651.64441,0.20403
2653.57288,0.20319
2655.50134,0.20219
2657.42981,0.20340
2659.35828,0.20446
2661.28675,0.20398
2663.21522,0.20299
2665.14369,0.20219
2667.07216,0.20246
2669.00062,0.20234
2670.92909,0.19979
2672.85756,0.19784
2674.78603,0.19990
2676.71450,0.20241
2678.64297,0.20235
2680.57144,0.20300
2682.49990,0.20478
2684.42837,0.20587
2686.35684,0.20765
2688.28531,0.20868
2690.21378,0.20558
2692.14225,0.20076
2694.07072,0.19869
2695.99919,0.20164
2697.92765,0.20771
2699.85612,0.21025
2701.78459,0.20859
2703.71306,0.20780
2705.64153,0.20759
2707.57000,0.20499
2709.49847,0.20197
2711.42693,0.20241
2713.35540,0.20391
2715.28387,0.20416
2717.21234,0.20668
2719.14081,0.21036
2721.06928,0.21056
2722.99775,0.20794
2724.92622,0.20493
2726.85468,0.20224
2728.78315,0.20123
2730.71162,0.20340
2732.64009,0.20653
2734.56856,0.20767
2736.49703,0.20757
2738.42550,0.20651
2740.35396,0.20450
2742.28243,0.20315
2744.21090,0.20373
2746.13937,0.20651
2748.06784,0.20864
2749.99631,0.20832
2751.92478,0.20733
2753.85325,0.20658
2755.78171,0.20610
2757.71018,0.20526
2759.63865,0.20411
2761.56712,0.20470
2763.49559,0.20668
2765.42406,0.20676
2767.35253,0.20654
2769.28099,0.20928
2771.20946,0.21016
2773.13793,0.20690
2775.06640,0.20608
2776.99487,0.20981
2778.92334,0.21361
2780.85181,0.21346
2782.78028,0.21100
2784.70874,0.21128
2786.63721,0.21277
2788.56568,0.21156
2790.49415,0.21028
2792.42262,0.21057
2794.35109,0.21024
2796.27956,0.20998
2798.20802,0.21056
2800.13649,0.21180
2802.06496,0.21371
2803.99343,0.21381
2805.92190,0.21048
2807.85037,0.20601
2809.77884,0.20476
2811.70731,0.20731
2813.63577,0.21131
2815.56424,0.21487
2817.49271,0.21517
2819.42118,0.21267
2821.34965,0.21000
2823.27812,0.20834
2825.20659,0.20911
2827.13505,0.21218
2829.06352,0.21615
2830.99199,0.21962
2832.92046,0.22094
2834.84893,0.21937
2836.77740,0.21550
2838.70587,0.21086
2840.63433,0.20639
2842.56280,0.20319
2844.49127,0.20394
2846.41974,0.20782
2848.34821,0.21159
2850.27668,0.21498
2852.20515,0.21681
2854.13362,0.21557
2856.06208,0.21365
2857.99055,0.21348
2859.91902,0.21409
2861.84749,0.21375
2863.77596,0.21153
2865.70443,0.20820
2867.63290,0.20647
2869.56136,0.20778
2871.48983,0.21075
2873.41830,0.21193
2875.34677,0.21064
2877.27524,0.20977
2879.20371,0.21010
2881.13218,0.21063
2883.06065,0.21075
2884.98911,0.21138
2886.91758,0.21371
2888.84605,0.21557
2890.77452,0.21538
2892.70299,0.21289
2894.63146,0.20571
2896.55993,0.19875
2898.48839,0.20056
2900.41686,0.20631
2902.34533,0.20576
2904.27380,0.19779
2906.20227,0.19188
2908.13074,0.19592
2910.05921,0.20400
2911.98768,0.20711
2913.91614,0.20276
2915.84461,0.19605
2917.77308,0.19550
2919.70155,0.20028
2921.63002,0.20465
2923.55849,0.20269
2925.48696,0.19185
2927.41542,0.18689
2929.34389,0.19571
2931.27236,0.20370
2933.20083,0.20488
2935.12930,0.20115
2937.05777,0.19520
2938.98624,0.19816
2940.91471,0.20690
2942.84317,0.20899
2944.77164,0.20281
2946.70011,0.19162
2948.62858,0.18754
2950.55705,0.19573
2952.48552,0.20295
2954.41399,0.19962
2956.34245,0.18625
2958.27092,0.17927
2960.19939,0.19304
2962.12786,0.21116
2964.05633,0.21604
2965.98480,0.20937
2967.91327,0.20223
2969.84174,0.20807
2971.77020,0.22040
2973.69867,0.22381
2975.62714,0.21521
2977.55561,0.20046
2979.48408,0.19658
2981.41255,0.20639
2983.34102,0.21339
2985.26948,0.21263
2987.19795,0.20662
2989.12642,0.20287
2991.05489,0.20888
2992.98336,0.21729
2994.91183,0.22198
2996.84030,0.22298
2998.76877,0.21987
3000.69723,0.21624
3002.62570,0.21540
3004.55417,0.21688
3006.48264,0.21655
3008.41111,0.20965
3010.33958,0.19359
3012.26805,0.16498
3014.19651,0.12561
3016.12498,0.09707
3018.05345,0.11124
3019.98192,0.16187
3021.91039,0.20567
3023.83886,0.22305
3025.76733,0.22372
3027.69579,0.21949
3029.62426,0.21685
3031.55273,0.21616
3033.48120,0.21765
3035.40967,0.21913
3037.33814,0.21667
3039.26661,0.21429
3041.19508,0.21451
3043.12354,0.21568
3045.05201,0.21400
3046.98048,0.20663
3048.90895,0.20479
3050.83742,0.21266
3052.76589,0.21758
3054.69436,0.21201
3056.62282,0.20170
3058.55129,0.20237
3060.47976,0.21250
3062.40823,0.21615
3064.33670,0.20896
3066.26517,0.19819
3068.19364,0.19807
3070.12211,0.20580
3072.05057,0.20740
3073.97904,0.20262
3075.90751,0.19707
3077.83598,0.20053
3079.76445,0.21352
3081.69292,0.21951
3083.62139,0.20732
3085.54985,0.19078
3087.47832,0.19231
3089.40679,0.20500
3091.33526,0.20846
3093.26373,0.19971
3095.19220,0.19480
3097.12067,0.20681
3099.04914,0.21952
3100.97760,0.21370
3102.90607,0.19767
3104.83454,0.19505
3106.76301,0.20839
3108.69148,0.21748
3110.61995,0.21207
3112.54842,0.20044
3114.47688,0.19784
3116.40535,0.20525
3118.33382,0.21127
3120.26229,0.20896
3122.19076,0.20433
3124.11923,0.21013
3126.04770,0.21927
3127.97617,0.21773
3129.90463,0.21062
3131.83310,0.21289
3133.76157,0.22524
3135.69004,0.23166
3137.61851,0.22430
3139.54698,0.21299
3141.47545,0.21153
3143.40391,0.21792
3145.33238,0.22062
3147.26085,0.21777
3149.18932,0.21628
3151.11779,0.21912
3153.04626,0.21960
3154.97473,0.21573
3156.90320,0.21352
3158.83166,0.21340
3160.76013,0.21421
3162.68860,0.21823
3164.61707,0.22318
3166.54554,0.22510
3168.47401,0.22609
3170.40248,0.22797
3172.33094,0.22689
3174.25941,0.22250
3176.18788,0.22033
3178.11635,0.22136
3180.04482,0.22266
3181.97329,0.22230
3183.90176,0.22201
3185.83022,0.22422
3187.75869,0.22623
3189.68716,0.22772
3191.61563,0.22989
3193.54410,0.22916
3195.47257,0.22415
3197.40104,0.22004
3199.32951,0.22152
3201.25797,0.22619
3203.18644,0.22813
3205.11491,0.22688
3207.04338,0.22611
3208.97185,0.22448
3210.90032,0.22309
3212.82879,0.22727
3214.75725,0.23366
3216.68572,0.23492
3218.61419,0.23079
3220.54266,0.22652
3222.47113,0.22483
3224.39960,0.22240
3226.32807,0.21929
3228.25654,0.22041
3230.18500,0.22339
3232.11347,0.22399
3234.04194,0.22459
3235.97041,0.22347
3237.89888,0.21960
3239.82735,0.21790
3241.75582,0.21470
3243.68428,0.20695
3245.61275,0.20530
3247.54122,0.21481
3249.46969,0.22476
3251.39816,0.22700
3253.32663,0.22520
3255.25510,0.22372
3257.18357,0.22315
3259.11203,0.22383
3261.04050,0.22498
3262.96897,0.22600
3264.89744,0.22335
3266.82591,0.21673
3268.75438,0.21490
3270.68285,0.21813
3272.61131,0.22044
3274.53978,0.22096
3276.46825,0.21679
3278.39672,0.20979
3280.32519,0.20839
3282.25366,0.21335
3284.18213,0.21784
3286.11060,0.21866
3288.03906,0.21732
3289.96753,0.21377
3291.89600,0.21182
3293.82447,0.21705
3295.75294,0.22364
3297.68141,0.22403
3299.60988,0.22110
3301.53834,0.21858
3303.46681,0.21678
3305.39528,0.21635
3307.32375,0.21571
3309.25222,0.21394
3311.18069,0.21313
3313.10916,0.21195
3315.03763,0.20839
3316.96609,0.20625
3318.89456,0.21010
3320.82303,0.21776
3322.75150,0.22370
3324.67997,0.22659
3326.60844,0.22673
3328.53691,0.22510
3330.46537,0.22318
3332.39384,0.21997
3334.32231,0.21619
3336.25078,0.21528
3338.17925,0.21802
3340.10772,0.22177
3342.03619,0.22603
3343.96466,0.22825
3345.89312,0.22515
3347.82159,0.22218
3349.75006,0.22414
3351.67853,0.22892
3353.60700,0.23074
3355.53547,0.22432
3357.46394,0.21382
3359.39240,0.20967
3361.32087,0.21401
3363.24934,0.21962
3365.17781,0.22215
3367.10628,0.22205
3369.03475,0.22127
3370.96322,0.22224
3372.89168,0.22433
3374.82015,0.22357
3376.74862,0.21904
3378.67709,0.21760
3380.60556,0.22254
3382.53403,0.22649
3384.46250,0.22388
3386.39097,0.21882
3388.31943,0.21657
3390.24790,0.21698
3392.17637,0.21943
3394.10484,0.22547
3396.03331,0.23145
3397.96178,0.22923
3399.89025,0.22600
3401.81871,0.23117
3403.74718,0.23068
3405.67565,0.21844
3407.60412,0.21310
3409.53259,0.22040
3411.46106,0.22491
3413.38953,0.22068
3415.31800,0.21625
3417.24646,0.21723
3419.17493,0.22120
3421.10340,0.22174
3423.03187,0.21594
3424.96034,0.21228
3426.88881,0.21601
3428.81728,0.21909
3430.74574,0.21848
3432.67421,0.21802
3434.60268,0.21849
3436.53115,0.21955
3438.45962,0.21786
3440.38809,0.21508
3442.31656,0.21655
3444.24503,0.21884
3446.17349,0.21855
3448.10196,0.21517
3450.03043,0.20853
3451.95890,0.20301
3453.88737,0.20121
3455.81584,0.20240
3457.74431,0.20444
3459.67277,0.20442
3461.60124,0.20205
3463.52971,0.19983
3465.45818,0.20012
3467.38665,0.20102
3469.31512,0.19938
3471.24359,0.19604
3473.17206,0.19495
3475.10052,0.19978
3477.02899,0.20548
3478.95746,0.20492
3480.88593,0.20159
3482.81440,0.20056
3484.74287,0.20097
3486.67134,0.20111
3488.59980,0.20038
3490.52827,0.19752
3492.45674,0.19386
3494.38521,0.19346
3496.31368,0.19457
3498.24215,0.19493
3500.17062,0.19457
3502.09909,0.19076
3504.02755,0.18787
3505.95602,0.19143
3507.88449,0.19583
3509.81296,0.19495
3511.74143,0.19122
3513.66990,0.19053
3515.59837,0.19194
3517.52683,0.19244
3519.45530,0.19424
3521.38377,0.19892
3523.31224,0.20079
3525.24071,0.19764
3527.16918,0.19623
3529.09765,0.19355
3531.02611,0.18525
3532.95458,0.18047
3534.88305,0.18114
3536.81152,0.18042
3538.73999,0.17906
3540.66846,0.18180
3542.59693,0.18796
3544.52540,0.19221
3546.45386,0.19134
3548.38233,0.18890
3550.31080,0.18892
3552.23927,0.19049
3554.16774,0.18835
3556.09621,0.18317
3558.02468,0.18148
3559.95314,0.18476
3561.88161,0.18864
3563.81008,0.19092
3565.73855,0.19532
3567.66702,0.19778
3569.59549,0.18828
3571.52396,0.17582
3573.45243,0.17002
3575.38089,0.16920
3577.30936,0.16592
3579.23783,0.16250
3581.16630,0.16642
3583.09477,0.17351
3585.02324,0.17932
3586.95171,0.18632
3588.88017,0.18615
3590.80864,0.17877
3592.73711,0.17739
3594.66558,0.18053
3596.59405,0.17732
3598.52252,0.16929
3600.45099,0.16470
3602.37946,0.16435
3604.30792,0.16465
3606.23639,0.16493
3608.16486,0.16484
3610.09333,0.16658
3612.02180,0.17289
3613.95027,0.17719
3615.87874,0.17605
3617.80720,0.17486
3619.73567,0.17033
3621.66414,0.16215
3623.59261,0.15711
3625.52108,0.15592
3627.44955,0.16174
3629.37802,0.17050
3631.30649,0.16771
3633.23495,0.16151
3635.16342,0.15698
3637.09189,0.15336
3639.02036,0.14984
3640.94883,0.14777
3642.87730,0.14895
3644.80577,0.15758
3646.73423,0.18113
3648.66270,0.20503
3650.59117,0.18784
3652.51964,0.16228
3654.44811,0.15560
3656.37658,0.15672
3658.30505,0.15199
3660.23352,0.14449
3662.16198,0.13951
3664.09045,0.13731
3666.01892,0.13961
3667.94739,0.15219
3669.87586,0.17262
3671.80433,0.18064
3673.73280,0.18030
3675.66126,0.17490
3677.58973,0.16319
3679.51820,0.15334
3681.44667,0.14436
3683.37514,0.13884
3685.30361,0.14037
3687.23208,0.14929
3689.16055,0.15734
3691.08901,0.15190
3693.01748,0.14361
3694.94595,0.13973
3696.87442,0.13763
3698.80289,0.13972
3700.73136,0.14690
3702.65983,0.14803
3704.58829,0.14274
3706.51676,0.14573
3708.44523,0.15912
3710.37370,0.16950
3712.30217,0.16252
3714.23064,0.15052
3716.15911,0.14306
3718.08757,0.13720
3720.01604,0.13807
3721.94451,0.15043
3723.87298,0.16013
3725.80145,0.15646
3727.72992,0.14786
3729.65839,0.14200
3731.58686,0.14119
3733.51532,0.14929
3735.44379,0.15879
3737.37226,0.15464
3739.30073,0.14664
3741.22920,0.14449
3743.15767,0.14948
3745.08614,0.15983
3747.01460,0.17050
3748.94307,0.18571
3750.87154,0.19367
3752.80001,0.17396
3754.72848,0.15717
3756.65695,0.15618
3758.58542,0.15863
3760.51389,0.15231
3762.44235,0.14576
3764.37082,0.14662
3766.29929,0.14858
3768.22776,0.14790
3770.15623,0.14532
3772.08470,0.13772
3774.01317,0.13024
3775.94163,0.12983
3777.87010,0.13761
3779.79857,0.14264
3781.72704,0.13569
3783.65551,0.12943
3785.58398,0.13084
3787.51245,0.13360
3789.44092,0.13404
3791.36938,0.13332
3793.29785,0.13442
3795.22632,0.14112
3797.15479,0.15094
3799.08326,0.15793
3801.01173,0.15730
3802.94020,0.14437
3804.86866,0.13751
3806.79713,0.14288
3808.72560,0.14390
3810.65407,0.13575
3812.58254,0.13066
3814.51101,0.13513
3816.43948,0.14403
3818.36795,0.14983
3820.29641,0.15662
3822.22488,0.15616
3824.15335,0.14892
3826.08182,0.14483
3828.01029,0.14114
3829.93876,0.13767
3831.86723,0.13617
3833.79569,0.13644
3835.72416,0.13950
3837.65263,0.14542
3839.58110,0.14761
3841.50957,0.14251
3843.43804,0.13596
3845.36651,0.13075
3847.29498,0.13024
3849.22344,0.13745
3851.15191,0.14921
3853.08038,0.15308
3855.00885,0.13994
3856.93732,0.13134
3858.86579,0.13081
3860.79426,0.13592
3862.72272,0.14081
3864.65119,0.13782
3866.57966,0.13644
3868.50813,0.14345
3870.43660,0.14771
3872.36507,0.14425
3874.29354,0.13953
3876.22200,0.13338
3878.15047,0.13234
3880.07894,0.14001
3882.00741,0.14343
3883.93588,0.13756
3885.86435,0.12861
3887.79282,0.12008
3889.72129,0.11828
3891.64975,0.12258
3893.57822,0.12008
3895.50669,0.11666
3897.43516,0.12346
3899.36363,0.13340
3901.29210,0.13886
3903.22057,0.14287
3905.14903,0.14018
3907.07750,0.13051
3909.00597,0.12251
3910.93444,0.11782
3912.86291,0.11634
3914.79138,0.12047
3916.71985,0.12598
3918.64832,0.12534
3920.57678,0.12033
3922.50525,0.11429
3924.43372,0.10890
3926.36219,0.10805
3928.29066,0.11215
3930.21913,0.11584
3932.14760,0.11397
3934.07606,0.11036
3936.00453,0.11043
3937.93300,0.11307
3939.86147,0.11696
3941.78994,0.11944
3943.71841,0.11710
3945.64688,0.11292
3947.57535,0.11163
3949.50381,0.11304
3951.43228,0.11354
3953.36075,0.11350
3955.28922,0.11509
3957.21769,0.11565
3959.14616,0.11396
3961.07463,0.11418
3963.00309,0.11444
3964.93156,0.11104
3966.86003,0.10729
3968.78850,0.10466
3970.71697,0.10495
3972.64544,0.10767
3974.57391,0.10630
3976.50238,0.10253
3978.43084,0.10320
3980.35931,0.10754
3982.28778,0.11186
3984.21625,0.11409
3986.14472,0.11180
3988.07319,0.10672
3990.00166,0.10479
3991.93012,0.10790
3993.85859,0.11031
3995.78706,0.10729
3997.71553,0.10362
3999.64400,0.10418
4001.57247,0.10647
4003.50094,0.10632
4005.42941,0.10334
4007.35787,0.09906
4009.28634,0.09601
4011.21481,0.09724
4013.14328,0.10189
4015.07175,0.10756
4017.00022,0.10996
4018.92869,0.10488
4020.85715,0.09655
4022.78562,0.09436
4024.71409,0.10026
4026.64256,0.10694
4028.57103,0.10935
4030.49950,0.10817
4032.42797,0.10456
4034.35644,0.10028
4036.28490,0.09790
4038.21337,0.09711
4040.14184,0.09674
4042.07031,0.09729
4043.99878,0.09745
4045.92725,0.09584
4047.85572,0.09402
4049.78418,0.09451
4051.71265,0.09788
4053.64112,0.10114
4055.56959,0.09992
4057.49806,0.09784
4059.42653,0.10121
4061.35500,0.10343
4063.28346,0.09861
4065.21193,0.09406
4067.14040,0.09413
4069.06887,0.09407
4070.99734,0.09059
4072.92581,0.08569
4074.85428,0.08601
4076.78275,0.09241
4078.71121,0.09527
4080.63968,0.09326
4082.56815,0.09218
4084.49662,0.09118
4086.42509,0.08935
4088.35356,0.08908
4090.28203,0.08818
4092.21049,0.08448
4094.13896,0.08428
4096.06743,0.09035
4097.99590,0.09574
4099.92437,0.09562
4101.85284,0.09343
4103.78131,0.09532
4105.70978,0.09919
4107.63824,0.09622
4109.56671,0.08705
4111.49518,0.08113
4113.42365,0.08004
4115.35212,0.08145
4117.28059,0.08710
4119.20906,0.09370
4121.13752,0.09449
4123.06599,0.09047
4124.99446,0.08784
4126.92293,0.08853
4128.85140,0.08962
4130.77987,0.08898
4132.70834,0.08739
4134.63681,0.08618
4136.56527,0.08772
4138.49374,0.09069
4140.42221,0.08861
4142.35068,0.08476
4144.27915,0.08713
4146.20762,0.08942
4148.13609,0.08427
4150.06455,0.07740
4151.99302,0.07464
4153.92149,0.07552
4155.84996,0.07711
4157.77843,0.07792
4159.70690,0.07960
4161.63537,0.08198
4163.56384,0.08098
4165.49230,0.07600
4167.42077,0.07473
4169.34924,0.07976
4171.27771,0.08147
4173.20618,0.07792
4175.13465,0.07795
4177.06312,0.07983
4178.99158,0.07779
4180.92005,0.07673
4182.84852,0.07877
4184.77699,0.08094
4186.70546,0.08112
4188.63393,0.07906
4190.56240,0.07858
4192.49087,0.07868
4194.41933,0.07751
4196.34780,0.08127
4198.27627,0.08899
4200.20474,0.09069
4202.13321,0.08562
4204.06168,0.07800
4205.99015,0.06919
4207.91861,0.06168
4209.84708,0.05736
4211.77555,0.05872
4213.70402,0.06309
4215.63249,0.06316
4217.56096,0.06239
4219.48943,0.06504
4221.41789,0.06594
4223.34636,0.06473
4225.27483,0.06519
4227.20330,0.06813
4229.13177,0.07211
4231.06024,0.07305
4232.98871,0.07232
4234.91718,0.07340
4236.84564,0.07201
4238.77411,0.06752
4240.70258,0.06313
4242.63105,0.05914
4244.55952,0.05903
4246.48799,0.06487
4248.41646,0.07021
4250.34492,0.06786
4252.27339,0.05989
4254.20186,0.05249
4256.13033,0.04971
4258.05880,0.05383
4259.98727,0.06017
4261.91574,0.06143
4263.84421,0.05867
4265.77267,0.05797
4267.70114,0.05878
4269.62961,0.05818
4271.55808,0.05856
4273.48655,0.05750
4275.41502,0.05523
4277.34349,0.05838
4279.27195,0.06230
4281.20042,0.06074
4283.12889,0.05786
4285.05736,0.05784
4286.98583,0.06123
4288.91430,0.06616
4290.84277,0.06783
4292.77124,0.06498
4294.69970,0.06288
4296.62817,0.06195
4298.55664,0.05592
4300.48511,0.04806
4302.41358,0.04498
4304.34205,0.04618
4306.27052,0.05204
4308.19898,0.05743
4310.12745,0.05897
4312.05592,0.06295
4313.98439,0.06670
4315.91286,0.06289
4317.84133,0.05559
4319.76980,0.05380
4321.69827,0.05432
4323.62673,0.04977
4325.55520,0.04255
4327.48367,0.03431
4329.41214,0.02810
4331.34061,0.03235
4333.26908,0.04184
4335.19755,0.04119
4337.12601,0.03164
4339.05448,0.02707
4340.98295,0.03180
4342.91142,0.03983
4344.83989,0.04637
4346.76836,0.04698
4348.69683,0.04099
4350.62530,0.03883
4352.55376,0.04370
4354.48223,0.04868
4356.41070,0.05004
4358.33917,0.04662
4360.26764,0.04231
4362.19611,0.04053
4364.12458,0.03735
4366.05304,0.03082
4367.98151,0.02574
4369.90998,0.02472
4371.83845,0.02651
4373.76692,0.03167
4375.69539,0.03972
4377.62386,0.04430
4379.55232,0.04068
4381.48079,0.03394
4383.40926,0.03146
4385.33773,0.03489
4387.26620,0.03727
4389.19467,0.03129
4391.12314,0.02334
4393.05161,0.02173
4394.98007,0.02449
4396.90854,0.02901
4398.83701,0.03221
4400.76548,0.02822
4402.69395,0.02144
4404.62242,0.02222
4406.55089,0.03133
4408.47935,0.03899
4410.40782,0.03524
4412.33629,0.02618
4414.26476,0.02366
4416.19323,0.02808
4418.12170,0.03102
4420.05017,0.02781
4421.97864,0.02370
4423.90710,0.01968
4425.83557,0.01739
4427.76404,0.02257
4429.69251,0.02659
4431.62098,0.02412
4433.54945,0.02512
4435.47792,0.02731
4437.40638,0.02406
4439.33485,0.02278
4441.26332,0.02465
4443.19179,0.02355
4445.12026,0.02120
4447.04873,0.02197
4448.97720,0.02527
4450.90567,0.02426
4452.83413,0.01596
4454.76260,0.01216
4456.69107,0.01692
4458.61954,0.01757
4460.54801,0.01464
4462.47648,0.01379
4464.40495,0.01328
4466.33341,0.01883
4468.26188,0.02422
4470.19035,0.01648
4472.11882,0.00513
4474.04729,0.00457
4475.97576,0.01225
4477.90423,0.01788
4479.83270,0.01718
4481.76116,0.01293
4483.68963,0.01089
4485.61810,0.01320
4487.54657,0.01457
4489.47504,0.01215
4491.40351,0.01000
4493.33198,0.00934
4495.26044,0.01130
4497.18891,0.01708
4499.11738,0.01942
4501.04585,0.01577
4502.97432,0.01170
4504.90279,0.00865
4506.83126,0.00630
4508.75973,0.00743
4510.68819,0.01092
4512.61666,0.01058
4514.54513,0.00801
4516.47360,0.00876
4518.40207,0.00997
4520.33054,0.00831
4522.25901,0.00709
4524.18747,0.00842
4526.11594,0.01098
4528.04441,0.01399
4529.97288,0.01554
4531.90135,0.01415
4533.82982,0.01203
4535.75829,0.01166
4537.68676,0.01106
4539.61522,0.01000
4541.54369,0.00896
4543.47216,0.00391
4545.40063,-0.00206
4547.32910,-0.00012
4549.25757,0.01061
4551.18604,0.02094
4553.11450,0.01965
4555.04297,0.00646
4556.97144,-0.00398
4558.89991,-0.00266
4560.82838,0.00039
4562.75685,-0.00206
4564.68532,-0.00552
4566.61378,-0.00247
4568.54225,0.00429
4570.47072,0.00728
4572.39919,0.01140
4574.32766,0.01314
4576.25613,0.00672
4578.18460,0.00327
4580.11307,0.00511
4582.04153,0.00590
4583.97000,0.00891
4585.89847,0.01139
4587.82694,0.00555
4589.75541,-0.00004
4591.68388,-0.00069
4593.61235,-0.00469
4595.54081,-0.00592
4597.46928,0.00461
4599.39775,0.01587
4601.32622,0.01491
4603.25469,0.00947
4605.18316,0.01228
4607.11163,0.01750
4609.04010,0.01816
4610.96856,0.02197
4612.89703,0.02966
4614.82550,0.02908
4616.75397,0.02102
4618.68244,0.01696
4620.61091,0.01443
4622.53938,0.00889
4624.46784,0.00581
4626.39631,0.00522
4628.32478,0.00309
4630.25325,0.00212
4632.18172,0.00553
4634.11019,0.00910
4636.03866,0.00645
4637.96713,0.00144
4639.89559,0.00032
4641.82406,-0.00048
4643.75253,0.00072
4645.68100,0.00884
4647.60947,0.01337
4649.53794,0.00731
4651.46641,-0.00107
4653.39487,-0.00705
4655.32334,-0.01018
4657.25181,-0.00688
4659.18028,-0.00231
4661.10875,-0.00456
4663.03722,-0.00946
4664.96569,-0.01286
4666.89416,-0.00716
4668.82262,0.00727
4670.75109,0.01162
4672.67956,0.00393
4674.60803,-0.00317
4676.53650,-0.00372
4678.46497,-0.00218
4680.39344,-0.00296
4682.32190,-0.00389
4684.25037,-0.00512
4686.17884,-0.00042
4688.10731,0.00895
4690.03578,0.01024
4691.96425,0.00639
4693.89272,0.00774
4695.82119,0.01401
4697.74965,0.01437
4699.67812,-0.00202
4701.60659,-0.01976
4703.53506,-0.01510
4705.46353,-0.00560
4707.39200,-0.01147
4709.32047,-0.01740
4711.24893,-0.01468
4713.17740,-0.01218
4715.10587,-0.01336
4717.03434,-0.01420
4718.96281,-0.00870
4720.89128,0.00848
4722.81975,0.02707
4724.74821,0.02510
4726.67668,0.00665
4728.60515,-0.00532
4730.53362,-0.00610
4732.46209,-0.00713
4734.39056,-0.00829
4736.31903,-0.00034
4738.24750,0.00747
4740.17596,0.00374
4742.10443,-0.00163
4744.03290,-0.00212
4745.96137,0.00045
4747.88984,0.00754
4749.81831,0.01435
4751.74678,0.01529
4753.67524,0.01769
4755.60371,0.02732
4757.53218,0.03329
4759.46065,0.03025
4761.38912,0.02621
4763.31759,0.02335
4765.24606,0.01798
4767.17453,0.01222
4769.10299,0.01028
4771.03146,0.00977
4772.95993,0.01140
4774.88840,0.01725
4776.81687,0.02020
4778.74534,0.01178
4780.67381,-0.00229
4782.60227,-0.00441
4784.53074,0.00171
4786.45921,0.00066
4788.38768,-0.00100
4790.31615,0.00476
4792.24462,0.01201
4794.17309,0.01429
4796.10156,0.00531
4798.03002,-0.00804
4799.95849,-0.01118
4801.88696,-0.00579
4803.81543,-0.00241
4805.74390,-0.00647
4807.67237,-0.00927
4809.60084,-0.00069
4811.52930,0.00682
4813.45777,-0.00196
4815.38624,-0.01826
4817.31471,-0.02262
4819.24318,-0.01087
4821.17165,0.00147
4823.10012,0.00381
4825.02859,0.00610
4826.95705,0.00837
4828.88552,0.00297
4830.81399,-0.00240
4832.74246,0.00003
4834.67093,0.00954
4836.59940,0.01719
4838.52787,0.01658
4840.45633,0.00900
4842.38480,0.00226
4844.31327,0.00740
4846.24174,0.01591
4848.17021,0.01265
4850.09868,0.00365
4852.02715,0.00408
4853.95562,0.01455
4855.88408,0.02072
4857.81255,0.01463
4859.74102,0.00854
4861.66949,0.01089
4863.59796,0.01527
4865.52643,0.01825
4867.45490,0.01507
4869.38336,0.00676
4871.31183,0.00278
4873.24030,0.00445
4875.16877,0.00957
4877.09724,0.01267
4879.02571,0.01166
4880.95418,0.00895
4882.88265,0.00424
4884.81111,0.00113
4886.73958,0.00361
4888.66805,0.00946
4890.59652,0.01400
4892.52499,0.00941
4894.45346,-0.00462
4896.38193,-0.01285
4898.31039,-0.00233
4900.23886,0.01466
4902.16733,0.02026
4904.09580,0.01922
4906.02427,0.02278
4907.95274,0.02742
4909.88121,0.02730
4911.80967,0.02597
4913.73814,0.02383
4915.66661,0.01736
4917.59508,0.01189
4919.52355,0.00821
4921.45202,0.00261
4923.38049,0.00533
4925.30896,0.01596
4927.23742,0.02028
4929.16589,0.02178
4931.09436,0.02442
4933.02283,0.02364
4934.95130,0.01598
4936.87977,0.00560
4938.80824,0.00440
4940.73670,0.01061
4942.66517,0.01887
4944.59364,0.02547
4946.52211,0.02265
4948.45058,0.01178
4950.37905,-0.00021
4952.30752,-0.00494
4954.23599,-0.00012
4956.16445,0.00095
4958.09292,-0.00478
4960.02139,-0.00216
4961.94986,0.00811
4963.87833,0.00947
4965.80680,0.00069
4967.73527,-0.00563
4969.66373,-0.00702
4971.59220,-0.01305
4973.52067,-0.01607
4975.44914,0.00549
4977.37761,0.03255
4979.30608,0.03207
4981.23455,0.01430
4983.16302,0.00118
4985.09148,-0.00465
4987.01995,-0.00660
4988.94842,-0.00424
4990.87689,-0.00029
4992.80536,0.00409
4994.73383,0.01528
4996.66230,0.02465
4998.59076,0.01865
5000.51923,0.00236
5002.44770,-0.01049
5004.37617,-0.01359
5006.30464,-0.01025
5008.23311,-0.00114
5010.16158,0.00932
5012.09005,0.01239
5014.01851,0.00640
5015.94698,-0.00677
5017.87545,-0.01622
5019.80392,-0.00653
5021.73239,0.01398
5023.66086,0.01970
5025.58933,0.00884
5027.51779,0.00220
5029.44626,0.00244
5031.37473,0.00226
5033.30320,0.00646
5035.23167,0.00977
5037.16014,0.00703
5039.08861,0.00915
5041.01708,0.01752
5042.94554,0.02285
5044.87401,0.02252
5046.80248,0.01967
5048.73095,0.01451
5050.65942,0.00567
5052.58789,-0.00059
5054.51636,0.00393
5056.44482,0.01075
5058.37329,0.00756
5060.30176,0.00798
5062.23023,0.02003
5064.15870,0.02694
5066.08717,0.02505
5068.01564,0.01895
5069.94410,0.00841
5071.87257,0.00156
5073.80104,0.00715
5075.72951,0.01646
5077.65798,0.01524
5079.58645,0.01098
5081.51492,0.01335
5083.44339,0.00992
5085.37185,-0.00331
5087.30032,-0.00650
5089.22879,0.01215
5091.15726,0.03725
5093.08573,0.04461
5095.01420,0.02878
5096.94267,0.01300
5098.87113,0.01383
5100.79960,0.02236
5102.72807,0.02984
5104.65654,0.03508
5106.58501,0.03824
5108.51348,0.02940
5110.44195,0.01098
5112.37042,0.01035
5114.29888,0.02912
5116.22735,0.04424
5118.15582,0.04866
5120.08429,0.04524
5122.01276,0.03457
5123.94123,0.02154
5125.86970,0.01494
5127.79816,0.02052
5129.72663,0.03797
5131.65510,0.05372
5133.58357,0.05549
5135.51204,0.04766
5137.44051,0.03212
5139.36898,0.02033
5141.29745,0.03595
5143.22591,0.06251
5145.15438,0.07013
5147.08285,0.06067
5149.01132,0.03815
5150.93979,0.01330
5152.86826,0.00192
5154.79673,0.00161
5156.72519,0.01035
5158.65366,0.02252
5160.58213,0.01815
5162.51060,-0.00413
5164.43907,-0.01267
5166.36754,0.00556
5168.29601,0.02036
5170.22448,0.02039
5172.15294,0.02518
5174.08141,0.03125
5176.00988,0.02934
5177.93835,0.03181
5179.86682,0.03909
5181.79529,0.04679
5183.72376,0.06379
5185.65222,0.07047
5187.58069,0.04776
5189.50916,0.03429
5191.43763,0.04571
5193.36610,0.05107
5195.29457,0.05058
5197.22304,0.05523
5199.15151,0.05111
5201.07997,0.04100
5203.00844,0.02972
5204.93691,0.01248
5206.86538,0.00928
5208.79385,0.02704
5210.72232,0.03884
5212.65079,0.03193
5214.57925,0.01727
5216.50772,0.01225
5218.43619,0.01611
5220.36466,0.03044
5222.29313,0.05839
5224.22160,0.08432
5226.15007,0.08868
5228.07854,0.06213
5230.00700,0.01772
5231.93547,-0.01355
5233.86394,-0.00650
5235.79241,0.02773
5237.72088,0.06023
5239.64935,0.07393
5241.57782,0.06580
5243.50628,0.04811
5245.43475,0.04260
5247.36322,0.04707
5249.29169,0.04990
5251.22016,0.05927
5253.14863,0.06861
5255.07710,0.06460
5257.00556,0.05487
5258.93403,0.05176
5260.86250,0.05822
5262.79097,0.06903
5264.71944,0.07428
5266.64791,0.06342
5268.57638,0.04851
5270.50485,0.05141
5272.43331,0.06386
5274.36178,0.06159
5276.29025,0.04635
5278.21872,0.04262
5280.14719,0.04895
5282.07566,0.05200
5284.00413,0.06162
5285.93259,0.07136
5287.86106,0.06858
5289.78953,0.06458
5291.71800,0.07027
5293.64647,0.07305
5295.57494,0.05601
5297.50341,0.04083
5299.43188,0.04828
5301.36034,0.05177
5303.28881,0.04384
5305.21728,0.05281
5307.14575,0.06958
5309.07422,0.05962
5311.00269,0.03917
5312.93116,0.04032
5314.85962,0.05543
5316.78809,0.06480
5318.71656,0.06418
5320.64503,0.06111
5322.57350,0.05495
5324.50197,0.04220
5326.43044,0.02930
5328.35891,0.02378
5330.28737,0.03606
5332.21584,0.06429
5334.14431,0.07819
5336.07278,0.07161
5338.00125,0.07432
5339.92972,0.07377
5341.85819,0.05275
5343.78665,0.04857
5345.71512,0.06935
5347.64359,0.07405
5349.57206,0.05876
5351.50053,0.03566
5353.42900,0.01672
5355.35747,0.02228
5357.28594,0.04429
5359.21440,0.05384
5361.14287,0.04364
5363.07134,0.03675
5364.99981,0.03877
5366.92828,0.03048
5368.85675,0.01933
5370.78522,0.01989
5372.71368,0.02660
5374.64215,0.03132
5376.57062,0.04096
5378.49909,0.05709
5380.42756,0.06621
5382.35603,0.06816
5384.28450,0.06086
5386.21297,0.05276
5388.14143,0.05924
5390.06990,0.06360
5391.99837,0.05643
5393.92684,0.04844
5395.85531,0.04403
5397.78378,0.04259
5399.71225,0.04994
5401.64071,0.06004
5403.56918,0.07153
5405.49765,0.08933
5407.42612,0.09549
5409.35459,0.08168
5411.28306,0.06674
5413.21153,0.06721
5415.13999,0.06870
5417.06846,0.06132
5418.99693,0.05863
5420.92540,0.05425
5422.85387,0.03678
5424.78234,0.01899
5426.71081,0.01576
5428.63928,0.03259
5430.56774,0.06848
5432.49621,0.10661
5434.42468,0.12573
5436.35315,0.11929
5438.28162,0.09887
5440.21009,0.08171
5442.13856,0.08017
5444.06702,0.08104
5445.99549,0.07253
5447.92396,0.07146
5449.85243,0.08372
5451.78090,0.08663
5453.70937,0.06524
5455.63784,0.03795
5457.56631,0.04164
5459.49477,0.06522
5461.42324,0.07697
5463.35171,0.07761
5465.28018,0.07048
5467.20865,0.06485
5469.13712,0.06978
5471.06559,0.06661
5472.99405,0.04824
5474.92252,0.03318
5476.85099,0.03415
5478.77946,0.05434
5480.70793,0.08652
5482.63640,0.10366
5484.56487,0.08517
5486.49334,0.05156
5488.42180,0.03997
5490.35027,0.05462
5492.27874,0.07771
5494.20721,0.09352
5496.13568,0.09037
5498.06415,0.07019
5499.99262,0.05839
5501.92108,0.07952
5503.84955,0.10574
5505.77802,0.09620
5507.70649,0.05676
5509.63496,0.02868
5511.56343,0.03926
5513.49190,0.06713
5515.42037,0.06713
5517.34883,0.04988
5519.27730,0.05322
5521.20577,0.06966
5523.13424,0.07512
5525.06271,0.07134
5526.99118,0.07558
5528.91965,0.08685
5530.84811,0.08713
5532.77658,0.07246
5534.70505,0.06078
5536.63352,0.05916
5538.56199,0.05493
5540.49046,0.04507
5542.41893,0.04234
5544.34740,0.06455
5546.27586,0.10058
5548.20433,0.11411
5550.13280,0.09846
5552.06127,0.07179
5553.98974,0.05489
5555.91821,0.05276
5557.84668,0.05269
5559.77514,0.05529
5561.70361,0.06473
5563.63208,0.07984
5565.56055,0.09300
5567.48902,0.08429
5569.41749,0.06599
5571.34596,0.06656
5573.27443,0.06891
5575.20289,0.05198
5577.13136,0.03943
5579.05983,0.04751
5580.98830,0.05929
5582.91677,0.05466
5584.84524,0.03343
5586.77371,0.02484
5588.70217,0.04458
5590.63064,0.06030
5592.55911,0.06038
5594.48758,0.06177
5596.41605,0.06323
5598.34452,0.06054
5600.27299,0.05411
5602.20145,0.04515
5604.12992,0.04003
5606.05839,0.04291
5607.98686,0.05458
5609.91533,0.07241
5611.84380,0.08853
5613.77227,0.09298
5615.70074,0.08792
5617.62920,0.09289
5619.55767,0.10223
5621.48614,0.09401
5623.41461,0.08135
5625.34308,0.07725
5627.27155,0.06611
5629.20002,0.05144
5631.12848,0.06470
5633.05695,0.09548
5634.98542,0.09972
5636.91389,0.06994
5638.84236,0.04220
5640.77083,0.04242
5642.69930,0.05737
5644.62777,0.07611
5646.55623,0.09824
5648.48470,0.10991
5650.41317,0.10247
5652.34164,0.08762
5654.27011,0.07539
5656.19858,0.05833
5658.12705,0.05049
5660.05551,0.06403
5661.98398,0.07774
5663.91245,0.08585
5665.84092,0.09208
5667.76939,0.09173
5669.69786,0.09565
5671.62633,0.11474
5673.55480,0.12709
5675.48326,0.11787
5677.41173,0.10955
5679.34020,0.09937
5681.26867,0.07727
5683.19714,0.06964
5685.12561,0.07470
5687.05408,0.07046
5688.98254,0.06873
5690.91101,0.08728
5692.83948,0.11308
5694.76795,0.11396
5696.69642,0.09136
5698.62489,0.09487
5700.55336,0.12447
5702.48183,0.12869
5704.41029,0.10829
5706.33876,0.09421
5708.26723,0.10210
5710.19570,0.12329
5712.12417,0.12640
5714.05264,0.10265
5715.98111,0.07622
5717.90957,0.06086
5719.83804,0.04252
5721.76651,0.02877
5723.69498,0.03961
5725.62345,0.05443
5727.55192,0.06402
5729.48039,0.07009
5731.40886,0.06292
5733.33732,0.06550
5735.26579,0.08739
5737.19426,0.08964
5739.12273,0.06951
5741.05120,0.05708
5742.97967,0.04325
5744.90814,0.01990
5746.83660,0.00480
5748.76507,0.00920
5750.69354,0.03947
5752.62201,0.07811
5754.55048,0.08666
5756.47895,0.06637
5758.40742,0.03238
5760.33588,0.00025
5762.26435,0.01077
5764.19282,0.04986
5766.12129,0.05439
5768.04976,0.02997
5769.97823,0.01653
5771.90670,0.01206
5773.83517,-0.00882
5775.76363,-0.03074
5777.69210,-0.01588
5779.62057,0.01802
5781.54904,0.04838
5783.47751,0.08339
5785.40598,0.09497
5787.33445,0.07374
5789.26291,0.06330
5791.19138,0.07844
5793.11985,0.10060
5795.04832,0.11660
5796.97679,0.10381
5798.90526,0.05965
5800.83373,0.03834
5802.76220,0.06717
5804.69066,0.11174
5806.61913,0.12760
5808.54760,0.10706
5810.47607,0.07686
5812.40454,0.04440
5814.33301,0.01161
5816.26148,0.01696
5818.18994,0.08404
5820.11841,0.15358
5822.04688,0.15785
5823.97535,0.11914
5825.90382,0.08708
5827.83229,0.07580
5829.76076,0.08259
5831.68923,0.09650
5833.61769,0.09480
5835.54616,0.08177
5837.47463,0.07984
5839.40310,0.08383
5841.33157,0.08809
5843.26004,0.09194
5845.18851,0.08985
5847.11697,0.08158
5849.04544,0.06189
5850.97391,0.04405
5852.90238,0.05012
5854.83085,0.06800
5856.75932,0.09076
5858.68779,0.11794
5860.61626,0.12688
5862.54472,0.11489
5864.47319,0.11244
5866.40166,0.12996
5868.33013,0.13855
5870.25860,0.12649
5872.18707,0.12467
5874.11554,0.16144
5876.04400,0.20181
5877.97247,0.19440
5879.90094,0.15663
5881.82941,0.10190
5883.75788,0.05331
5885.68635,0.04173
5887.61482,0.03347
5889.54329,0.01340
5891.47175,0.00330
5893.40022,0.00780
5895.32869,0.04038
5897.25716,0.09541
5899.18563,0.11378
5901.11410,0.08679
5903.04257,0.07253
5904.97103,0.07331
5906.89950,0.07635
5908.82797,0.09966
5910.75644,0.11943
5912.68491,0.09784
5914.61338,0.05292
5916.54185,0.03730
5918.47032,0.04306
5920.39878,0.03976
5922.32725,0.05679
5924.25572,0.07741
5926.18419,0.05042
5928.11266,0.03035
5930.04113,0.08581
5931.96960,0.15814
5933.89806,0.15178
5935.82653,0.08714
5937.75500,0.04977
5939.68347,0.04638
5941.61194,0.05616
5943.54041,0.07790
5945.46888,0.08533
5947.39734,0.06286
5949.32581,0.04245
5951.25428,0.05961
5953.18275,0.11003
5955.11122,0.13825
5957.03969,0.11188
5958.96816,0.07291
5960.89663,0.05161
5962.82509,0.05107
5964.75356,0.07416
5966.68203,0.08484
5968.61050,0.06566
5970.53897,0.05813
5972.46744,0.06735
5974.39591,0.06232
5976.32437,0.05001
5978.25284,0.04678
5980.18131,0.05472
5982.10978,0.06202
5984.03825,0.05483
5985.96672,0.05499
5987.89519,0.07702
5989.82366,0.10740
5991.75212,0.13531
5993.68059,0.14628
5995.60906,0.13888
5997.53753,0.11137
5999.46600,0.06496
6001.39447,0.03611
6003.32294,0.03923
6005.25140,0.05606
6007.17987,0.08610
6009.10834,0.11118
6011.03681,0.12142
6012.96528,0.14252
6014.89375,0.15964
6016.82222,0.13486
6018.75069,0.08709
6020.67915,0.07529
6022.60762,0.08938
6024.53609,0.09217
6026.46456,0.09952
6028.39303,0.10214
6030.32150,0.06719
6032.24997,0.03107
6034.17843,0.03609
6036.10690,0.05682
6038.03537,0.06141
6039.96384,0.05851
6041.89231,0.06969
6043.82078,0.11379
6045.74925,0.17589
6047.67772,0.20055
6049.60618,0.15818
6051.53465,0.09586
6053.46312,0.04516
6055.39159,0.00256
6057.32006,-0.01408
6059.24853,0.00725
6061.17700,0.04395
6063.10546,0.06657
6065.03393,0.07988
6066.96240,0.08271
6068.89087,0.07471
6070.81934,0.07401
6072.74781,0.06550
6074.67628,0.05425
6076.60475,0.06732
6078.53321,0.06734
6080.46168,0.04104
6082.39015,0.05060
6084.31862,0.08864
6086.24709,0.08160
6088.17556,0.05407
6090.10403,0.08003
6092.03249,0.13606
6093.96096,0.16416
6095.88943,0.16146
6097.81790,0.13772
6099.74637,0.09398
6101.67484,0.05155
6103.60331,0.02116
6105.53177,0.00933
6107.46024,0.03921
6109.38871,0.09107
6111.31718,0.09476
6113.24565,0.04489
6115.17412,0.01296
6117.10259,0.02662
6119.03106,0.04833
6120.95952,0.04438
6122.88799,0.03353
6124.81646,0.03848
6126.74493,0.02192
6128.67340,0.00052
6130.60187,0.07390
6132.53034,0.16558
6134.45880,0.14435
6136.38727,0.07540
6138.31574,0.04013
6140.24421,0.03300
6142.17268,0.06900
6144.10115,0.10871
6146.02962,0.09884
6147.95809,0.08350
6149.88655,0.07831
6151.81502,0.06779
6153.74349,0.06115
6155.67196,0.05885
6157.60043,0.09557
6159.52890,0.18594
6161.45737,0.23774
6163.38583,0.20123
6165.31430,0.11719
6167.24277,0.04623
6169.17124,0.03646
6171.09971,0.04262
6173.02818,0.02356
6174.95665,0.03092
6176.88512,0.05684
6178.81358,0.06061
6180.74205,0.04650
6182.67052,0.02781
6184.59899,0.04108
6186.52746,0.10132
6188.45593,0.15220
6190.38440,0.15304
6192.31286,0.13492
6194.24133,0.11103
6196.16980,0.08253
6198.09827,0.08932
6200.02674,0.13098
6201.95521,0.13521
6203.88368,0.08443
6205.81215,0.04739
6207.74061,0.05747
6209.66908,0.09397
6211.59755,0.10539
6213.52602,0.06418
6215.45449,0.03356
6217.38296,0.06567
6219.31143,0.13377
6221.23989,0.18437
6223.16836,0.15473
6225.09683,0.04547
6227.02530,-0.04387
6228.95377,-0.03403
6230.88224,0.06203
6232.81071,0.13204
6234.73918,0.11663
6236.66764,0.09049
6238.59611,0.08660
6240.52458,0.07776
6242.45305,0.05419
6244.38152,0.04808
6246.30999,0.08417
6248.23846,0.09718
6250.16692,0.05309
6252.09539,0.05866
6254.02386,0.12001
6255.95233,0.12590
6257.88080,0.10076
6259.80927,0.13094
6261.73774,0.19995
6263.66621,0.22498
6265.59467,0.15930
6267.52314,0.08947
6269.45161,0.08278
6271.38008,0.09781
6273.30855,0.12436
6275.23702,0.15575
6277.16549,0.15915
6279.09395,0.13551
6281.02242,0.10984
6282.95089,0.08555
6284.87936,0.05437
6286.80783,0.05378
6288.73630,0.09593
6290.66477,0.12468
6292.59323,0.10477
6294.52170,0.07817
6296.45017,0.07922
6298.37864,0.05909
6300.30711,0.00859
6302.23558,-0.01212
6304.16405,0.00807
6306.09252,0.04734
6308.02098,0.06791
6309.94945,0.04452
6311.87792,0.02171
6313.80639,0.03963
6315.73486,0.06047
6317.66333,0.05207
6319.59180,0.04331
6321.52026,0.04130
6323.44873,0.05762
6325.37720,0.08266
6327.30567,0.06559
6329.23414,0.05624
6331.16261,0.09732
6333.09108,0.12135
6335.01955,0.12341
6336.94801,0.13184
6338.87648,0.13281
6340.80495,0.12485
6342.73342,0.11493
6344.66189,0.10913
6346.59036,0.11353
6348.51883,0.12716
6350.44729,0.13727
6352.37576,0.12510
6354.30423,0.09840
6356.23270,0.06782
6358.16117,0.05702
6360.08964,0.09240
6362.01811,0.14299
6363.94658,0.16984
6365.87504,0.17873
6367.80351,0.17558
6369.73198,0.12987
6371.66045,0.06482
6373.58892,0.07022
6375.51739,0.12602
6377.44586,0.14597
6379.37432,0.14242
6381.30279,0.14177
6383.23126,0.10639
6385.15973,0.04791
6387.08820,0.01963
6389.01667,0.01614
6390.94514,0.03436
6392.87361,0.06792
6394.80207,0.08923
6396.73054,0.08691
6398.65901,0.07984
6400.58748,0.08435
6402.51595,0.08480
6404.44442,0.06963
6406.37289,0.06157
6408.30135,0.06196
6410.22982,0.02814
6412.15829,-0.00605
6414.08676,0.00295
6416.01523,-0.02455
6417.94370,-0.08128
6419.87217,-0.04235
6421.80064,0.04935
6423.72910,0.10383
6425.65757,0.11378
6427.58604,0.06990
6429.51451,-0.00298
6431.44298,-0.02634
6433.37145,0.02407
6435.29992,0.07818
6437.22838,0.07808
6439.15685,0.05629
6441.08532,0.07636
6443.01379,0.11425
6444.94226,0.10569
6446.87073,0.07102
6448.79920,0.03525
6450.72766,-0.00182
6452.65613,0.01536
6454.58460,0.07998
6456.51307,0.10600
6458.44154,0.07549
6460.37001,0.02369
6462.29848,-0.02847
6464.22695,-0.03706
6466.15541,-0.00911
6468.08388,0.02184
6470.01235,0.07362
6471.94082,0.12076
6473.86929,0.14429
6475.79776,0.15293
6477.72623,0.12275
6479.65469,0.05924
6481.58316,0.01686
6483.51163,0.07420
6485.44010,0.15692
6487.36857,0.14248
6489.29704,0.08171
6491.22551,0.04628
6493.15398,0.00484
6495.08244,-0.03895
6497.01091,-0.06079
6498.93938,-0.08450
6500.86785,-0.09060
6502.79632,-0.03415
6504.72479,0.03413
6506.65326,0.06841
6508.58172,0.06513
6510.51019,0.02406
6512.43866,-0.01218
6514.36713,-0.01429
6516.29560,-0.01211
6518.22407,-0.00955
6520.15254,-0.01797
6522.08101,-0.06842
6524.00947,-0.09700
6525.93794,-0.02301
6527.86641,0.08742
6529.79488,0.14536
6531.72335,0.12255
6533.65182,0.04983
6535.58029,-0.01916
6537.50875,-0.06276
6539.43722,-0.01993
6541.36569,0.10967
6543.29416,0.16233
6545.22263,0.11963
6547.15110,0.10511
6549.07957,0.10768
6551.00804,0.11019
6552.93650,0.11012
6554.86497,0.07432
6556.79344,0.02439
6558.72191,0.00414
6560.65038,0.04730
6562.57885,0.11081
6564.50732,0.10361
6566.43578,0.06271
6568.36425,0.08351
6570.29272,0.11231
6572.22119,0.09780
6574.14966,0.08627
6576.07813,0.07710
6578.00660,0.04252
6579.93507,0.01096
6581.86353,-0.00221
6583.79200,-0.06100
6585.72047,-0.12515
6587.64894,-0.05658
6589.57741,0.06696
6591.50588,0.08815
6593.43435,0.05450
6595.36281,0.02075
6597.29128,-0.03541
6599.21975,-0.03201
6601.14822,0.06196
6603.07669,0.12874
6605.00516,0.13187
6606.93363,0.10370
6608.86210,0.04625
6610.79056,-0.03179
6612.71903,-0.05945
6614.64750,0.02764
6616.57597,0.16799
6618.50444,0.22707
6620.43291,0.15131
6622.36138,0.02044
6624.28984,-0.01260
6626.21831,0.06515
6628.14678,0.11656
6630.07525,0.08416
6632.00372,0.04133
6633.93219,0.02333
6635.86066,0.01857
6637.78912,0.02833
6639.71759,0.02239
6641.64606,0.01002
6643.57453,0.04375
6645.50300,0.09971
6647.43147,0.11075
6649.35994,0.06122
6651.28841,-0.00327
6653.21687,-0.03001
6655.14534,-0.00674
6657.07381,0.03278
6659.00228,0.07529
6660.93075,0.12258
6662.85922,0.12446
6664.78769,0.09617
6666.71615,0.07535
6668.64462,0.06956
6670.57309,0.08539
6672.50156,0.10682
6674.43003,0.13071
6676.35850,0.10698
6678.28697,0.02326
6680.21544,-0.00998
6682.14390,0.04176
6684.07237,0.08522
6686.00084,0.02787
6687.92931,-0.05903
6689.85778,-0.02552
6691.78625,0.06231
6693.71472,0.10536
6695.64318,0.11309
6697.57165,0.08614
6699.50012,0.07099
6701.42859,0.12456
6703.35706,0.20279
6705.28553,0.21868
6707.21400,0.14623
6709.14247,0.04703
6711.07093,-0.03089
6712.99940,-0.08705
6714.92787,-0.04991
6716.85634,0.11068
6718.78481,0.23981
6720.71328,0.21173
6722.64175,0.11529
6724.57021,0.06571
6726.49868,0.02873
6728.42715,-0.02765
6730.35562,-0.01605
6732.28409,0.08242
6734.21256,0.11534
6736.14103,0.03242
6738.06950,-0.01000
6739.99796,0.02424
6741.92643,0.04130
6743.85490,0.06871
6745.78337,0.10681
6747.71184,0.08624
6749.64031,0.04605
6751.56878,0.02054
6753.49724,-0.00106
6755.42571,0.01678
6757.35418,0.06210
6759.28265,0.07920
6761.21112,0.07964
6763.13959,0.12083
6765.06806,0.16852
6766.99653,0.17517
6768.92499,0.16246
6770.85346,0.15198
6772.78193,0.15981
6774.71040,0.16211
6776.63887,0.11900
6778.56734,0.09402
6780.49581,0.10990
6782.42427,0.12389
6784.35274,0.11085
6786.28121,0.06659
6788.20968,0.03801
6790.13815,0.04027
6792.06662,0.00459
6793.99509,-0.08256
6795.92355,-0.09809
6797.85202,-0.00260
6799.78049,0.10831
6801.70896,0.16512
6803.63743,0.15179
6805.56590,0.13419
6807.49437,0.13689
6809.42284,0.15411
6811.35130,0.21199
6813.27977,0.20672
6815.20824,0.05132
6817.13671,-0.08467
6819.06518,-0.06045
6820.99365,0.01503
6822.92212,0.06261
6824.85058,0.07855
6826.77905,0.06150
6828.70752,0.04338
6830.63599,0.06797
6832.56446,0.13881
6834.49293,0.16849
6836.42140,0.11066
6838.34987,0.07529
6840.27833,0.08098
6842.20680,0.05982
6844.13527,0.02010
6846.06374,-0.03354
6847.99221,-0.10789
6849.92068,-0.14137
6851.84915,-0.12284
6853.77761,-0.08092
6855.70608,-0.01065
6857.63455,0.03635
6859.56302,0.03183
6861.49149,0.03361
6863.41996,0.10564
6865.34843,0.19593
6867.27690,0.21096
6869.20536,0.17691
6871.13383,0.15886
6873.06230,0.15923
6874.99077,0.16614
6876.91924,0.12471
6878.84771,0.01622
6880.77618,-0.02401
6882.70464,0.04468
6884.63311,0.09814
6886.56158,0.07989
6888.49005,0.01083
6890.41852,-0.03769
6892.34699,-0.00510
6894.27546,0.04475
6896.20393,0.02402
6898.13239,-0.01262
6900.06086,-0.00238
6901.98933,0.03831
6903.91780,0.12129
6905.84627,0.15247
6907.77474,0.06028
6909.70321,-0.01615
6911.63167,0.03472
6913.56014,0.17535
6915.48861,0.22964
6917.41708,0.12670
6919.34555,-0.02241
6921.27402,-0.08455
6923.20249,-0.01473
6925.13096,0.09251
6927.05942,0.10679
6928.98789,0.04156
6930.91636,-0.01730
6932.84483,-0.04808
6934.77330,-0.05558
6936.70177,-0.06847
6938.63024,-0.07938
6940.55870,0.00648
6942.48717,0.10935
6944.41564,0.09253
6946.34411,0.05381
6948.27258,0.10505
6950.20105,0.20081
6952.12952,0.23247
6954.05799,0.16489
6955.98645,0.09518
6957.91492,0.09798
6959.84339,0.10037
6961.77186,0.05504
6963.70033,-0.00073
6965.62880,-0.03643
6967.55727,-0.05863
6969.48573,-0.05376
6971.41420,0.01414
6973.34267,0.09873
6975.27114,0.13093
6977.19961,0.14252
6979.12808,0.14674
6981.05655,0.09300
6982.98501,0.04326
6984.91348,0.10673
6986.84195,0.20083
6988.77042,0.21205
6990.69889,0.14463
6992.62736,0.08364
6994.55583,0.08413
6996.48430,0.09580
6998.41276,0.05809
7000.34123,-0.00144
7002.26970,-0.06839
7004.19817,-0.13277
7006.12664,-0.07589
7008.05511,0.08572
7009.98358,0.13041
7011.91204,0.05742
7013.84051,-0.01757
7015.76898,-0.05665
7017.69745,-0.10575
7019.62592,-0.18861
7021.55439,-0.23490
7023.48286,-0.22006
7025.41133,-0.22601
7027.33979,-0.21948
7029.26826,-0.09060
7031.19673,0.01982
7033.12520,-0.01862
7035.05367,-0.06981
7036.98214,-0.03023
7038.91061,0.06919
7040.83907,0.23205
7042.76754,0.30342
7044.69601,0.15798
7046.62448,0.05499
7048.55295,0.02699
7050.48142,-0.03657
7052.40989,-0.01800
7054.33836,0.09840
7056.26682,0.13123
7058.19529,-0.01232
7060.12376,-0.12766
7062.05223,-0.06149
7063.98070,0.06318
7065.90917,0.09487
7067.83764,0.07686
7069.76610,0.06595
7071.69457,0.03590
7073.62304,0.04547
7075.55151,0.14726
7077.47998,0.21907
7079.40845,0.15675
7081.33692,-0.02848
7083.26539,-0.13805
7085.19385,-0.04834
7087.12232,0.14179
7089.05079,0.22745
7090.97926,0.19084
7092.90773,0.13428
7094.83620,0.11226
7096.76467,0.15873
7098.69313,0.14750
7100.62160,0.08633
7102.55007,0.08695
7104.47854,0.10086
7106.40701,0.08460
7108.33548,0.04925
7110.26395,-0.02754
7112.19242,-0.07504
7114.12088,-0.02140
7116.04935,0.05765
7117.97782,0.10576
7119.90629,0.15363
7121.83476,0.16874
7123.76323,0.13653
7125.69170,0.13280
7127.62016,0.17021
7129.54863,0.17240
7131.47710,0.11614
7133.40557,0.07818
7135.33404,0.10246
7137.26251,0.09431
7139.19098,-0.01125
7141.11944,-0.10796
7143.04791,-0.06942
7144.97638,0.11650
7146.90485,0.35557
7148.83332,0.49249
7150.76179,0.43400
7152.69026,0.22240
7154.61873,0.08374
7156.54719,0.12980
7158.47566,0.20721
7160.40413,0.17163
7162.33260,0.01278
7164.26107,-0.11264
7166.18954,-0.12738
7168.11801,-0.08548
7170.04647,0.00069
7171.97494,0.08683
7173.90341,0.15779
7175.83188,0.24982
7177.76035,0.33358
7179.68882,0.29563
7181.61729,0.08786
7183.54576,-0.01489
7185.47422,0.07964
7187.40269,0.11110
7189.33116,0.08519
7191.25963,0.04950
7193.18810,0.02195
7195.11657,0.04620
7197.04504,0.04237
7198.97350,-0.04933
7200.90197,-0.16213
7202.83044,-0.22880
7204.75891,-0.22453
7206.68738,-0.20885
7208.61585,-0.13156
7210.54432,0.00789
7212.47279,0.08131
7214.40125,0.09130
7216.32972,0.03771
7218.25819,-0.04832
7220.18666,0.05299
7222.11513,0.14000
7224.04360,0.08789
7225.97207,0.09630
7227.90053,0.21177
7229.82900,0.22955
7231.75747,0.13137
7233.68594,0.14669
7235.61441,0.29043
7237.54288,0.36871
7239.47135,0.31228
7241.39982,0.14720
7243.32828,-0.09943
7245.25675,-0.20123
7247.18522,-0.10943
7249.11369,0.05792
7251.04216,0.16140
7252.97063,0.09171
7254.89910,0.00166
7256.82756,0.02896
7258.75603,0.13148
7260.68450,0.27215
7262.61297,0.22342
7264.54144,-0.04121
7266.46991,-0.10282
7268.39838,0.07555
7270.32685,0.20437
7272.25531,0.08856
7274.18378,-0.08856
7276.11225,-0.08791
7278.04072,0.05310
7279.96919,0.17760
7281.89766,0.13904
7283.82613,0.16394
7285.75459,0.25538
7287.68306,0.17902
7289.61153,0.01453
7291.54000,-0.06594
7293.46847,-0.03678
7295.39694,0.08120
7297.32541,0.10958
7299.25387,0.04946
7301.18234,0.04267
7303.11081,0.03881
7305.03928,0.01661
7306.96775,0.04351
7308.89622,0.12798
7310.82469,0.24726
7312.75316,0.26260
7314.68162,0.10182
7316.61009,-0.08265
7318.53856,-0.06946
7320.46703,0.07138
7322.39550,0.18106
7324.32397,0.17324
7326.25244,0.09546
7328.18090,-0.00340
7330.10937,-0.02588
7332.03784,0.07529
7333.96631,0.14917
7335.89478,0.12726
7337.82325,0.05729
7339.75172,0.08204
7341.68019,0.22435
7343.60865,0.24048
7345.53712,0.11364
7347.46559,-0.11618
7349.39406,-0.31507
7351.32253,-0.31186
7353.25100,-0.14335
7355.17947,0.08348
7357.10793,0.26792
7359.03640,0.26754
7360.96487,0.12273
7362.89334,-0.03024
7364.82181,-0.06326
7366.75028,0.04751
7368.67875,0.16687
7370.60722,0.16414
7372.53568,0.08934
7374.46415,0.04582
7376.39262,0.02281
7378.32109,-0.01359
7380.24956,0.03137
7382.17803,0.20541
7384.10650,0.35726
7386.03496,0.29812
7387.96343,0.08010
7389.89190,-0.01666
7391.82037,0.06668
7393.74884,0.17406
7395.67731,0.19341
7397.60578,0.11857
7399.53425,0.05312
7401.46271,0.10092
7403.39118,0.20831
7405.31965,0.23271
7407.24812,0.14505
7409.17659,-0.01728
7411.10506,-0.17041
7413.03353,-0.18956
7414.96199,-0.07177
7416.89046,0.09885
7418.81893,0.16127
7420.74740,0.12747
7422.67587,0.17107
7424.60434,0.21009
7426.53281,0.18454
7428.46128,0.10644
7430.38974,-0.01687
7432.31821,-0.08289
7434.24668,-0.05435
7436.17515,0.01727
7438.10362,0.09397
7440.03209,0.14871
7441.96056,0.13778
7443.88902,0.05794
7445.81749,-0.00142
7447.74596,0.04290
7449.67443,0.20743
7451.60290,0.26384
7453.53137,0.05836
7455.45984,-0.08129
7457.38831,-0.05086
7459.31677,0.01580
7461.24524,0.00894
7463.17371,-0.01886
7465.10218,0.07819
7467.03065,0.24761
7468.95912,0.28558
7470.88759,0.23959
7472.81605,0.22400
7474.74452,0.20479
7476.67299,0.11453
7478.60146,0.00350
7480.52993,0.08564
7482.45840,0.20883
7484.38687,0.08958
7486.31533,-0.08707
7488.24380,-0.15296
7490.17227,-0.08222
7492.10074,0.06257
7494.02921,0.15369
7495.95768,0.13870
7497.88615,0.06545
