399.19301,0.78392
401.12148,0.63105
403.04995,0.39849
404.97842,0.23905
406.90689,0.15100
408.83536,0.07338
410.76382,-0.00035
412.69229,-0.00536
414.62076,0.05157
416.54923,0.09645
418.47770,0.07604
420.40617,0.03050
422.33464,0.06297
424.26311,0.10187
426.19157,0.08076
428.12004,0.02849
430.04851,-0.01593
431.97698,-0.01819
433.90545,0.03436
435.83392,0.09585
437.76239,0.11240
439.69085,0.11613
441.61932,0.14848
443.54779,0.18889
445.47626,0.20444
447.40473,0.17460
449.33320,0.11698
451.26167,0.07653
453.19013,0.06345
455.11860,0.05228
457.04707,0.04106
458.97554,0.05693
460.90401,0.06081
462.83248,0.03129
464.76095,0.03073
466.68942,0.07091
468.61788,0.11158
470.54635,0.15014
472.47482,0.17915
474.40329,0.15815
476.33176,0.11732
478.26023,0.10810
480.18870,0.10614
482.11716,0.11456
484.04563,0.15908
485.97410,0.18436
487.90257,0.15974
489.83104,0.14634
491.75951,0.14604
493.68798,0.11072
495.61645,0.06475
497.54491,0.06020
499.47338,0.09576
501.40185,0.12849
503.33032,0.12556
505.25879,0.11929
507.18726,0.14310
509.11573,0.17717
511.04419,0.18598
512.97266,0.16275
514.90113,0.13205
516.82960,0.10060
518.75807,0.06736
520.68654,0.04612
522.61501,0.02539
524.54348,0.00089
526.47194,0.01354
528.40041,0.07429
530.32888,0.12003
532.25735,0.11427
534.18582,0.08356
536.11429,0.06822
538.04276,0.08526
539.97122,0.09325
541.89969,0.07701
543.82816,0.07479
545.75663,0.07919
547.68510,0.07202
549.61357,0.09171
551.54204,0.19852
553.47051,0.32480
555.39897,0.30577
557.32744,0.18079
559.25591,0.11522
561.18438,0.09499
563.11285,0.07439
565.04132,0.07577
566.96979,0.08134
568.89825,0.07238
570.82672,0.07870
572.75519,0.10603
574.68366,0.11192
576.61213,0.08874
578.54060,0.07162
580.46907,0.07260
582.39754,0.08307
584.32600,0.08797
586.25447,0.08490
588.18294,0.09291
590.11141,0.12113
592.03988,0.13637
593.96835,0.11262
595.89682,0.08711
597.82528,0.08789
599.75375,0.09612
601.68222,0.09840
603.61069,0.09981
605.53916,0.10585
607.46763,0.11803
609.39610,0.13214
611.32456,0.14347
613.25303,0.14469
615.18150,0.12726
617.10997,0.08674
619.03844,0.04547
620.96691,0.03963
622.89538,0.06471
624.82385,0.09315
626.75231,0.11367
628.68078,0.12591
630.60925,0.12488
632.53772,0.11219
634.46619,0.09895
636.39466,0.09358
638.32313,0.09704
640.25159,0.09772
642.18006,0.09482
644.10853,0.09766
646.03700,0.10224
647.96547,0.10059
649.89394,0.09836
651.82241,0.10731
653.75088,0.11855
655.67934,0.12026
657.60781,0.11726
659.53628,0.11935
661.46475,0.12495
663.39322,0.13014
665.32169,0.13931
667.25016,0.14670
669.17862,0.13145
671.10709,0.11603
673.03556,0.11867
674.96403,0.12489
676.89250,0.12129
678.82097,0.10747
680.74944,0.10065
682.67791,0.11890
684.60637,0.14467
686.53484,0.14818
688.46331,0.12611
690.39178,0.10075
692.32025,0.09338
694.24872,0.10373
696.17719,0.11777
698.10565,0.12458
700.03412,0.12955
701.96259,0.13331
703.89106,0.12330
705.81953,0.10854
707.74800,0.10550
709.67647,0.10040
711.60494,0.08297
713.53340,0.07861
715.46187,0.09704
717.39034,0.11240
719.31881,0.12017
721.24728,0.13719
723.17575,0.15149
725.10422,0.14326
727.03268,0.12637
728.96115,0.11839
730.88962,0.11861
732.81809,0.12329
734.74656,0.12521
736.67503,0.11439
738.60350,0.10011
740.53197,0.10210
742.46043,0.11056
744.38890,0.10983
746.31737,0.10958
748.24584,0.11688
750.17431,0.12511
752.10278,0.12643
754.03125,0.12050
755.95971,0.11036
757.88818,0.09962
759.81665,0.09929
761.74512,0.10923
763.67359,0.11656
765.60206,0.12181
767.53053,0.12545
769.45900,0.11888
771.38746,0.10817
773.31593,0.10444
775.24440,0.10640
777.17287,0.11414
779.10134,0.12873
781.02981,0.14206
782.95828,0.14547
784.88674,0.13638
786.81521,0.12150
788.74368,0.11583
790.67215,0.12258
792.60062,0.12711
794.52909,0.12223
796.45756,0.12066
798.38602,0.12980
800.31449,0.13790
802.24296,0.13289
804.17143,0.11978
806.09990,0.11222
808.02837,0.11571
809.95684,0.12471
811.88531,0.12821
813.81377,0.12256
815.74224,0.11379
817.67071,0.10654
819.59918,0.10928
821.52765,0.12420
823.45612,0.13734
825.38459,0.14171
827.31305,0.13930
829.24152,0.13423
831.16999,0.12988
833.09846,0.12432
835.02693,0.12333
836.95540,0.13256
838.88387,0.14084
840.81234,0.13890
842.74080,0.13085
844.66927,0.12320
846.59774,0.11837
848.52621,0.11542
850.45468,0.11578
852.38315,0.12135
854.31162,0.12878
856.24008,0.13183
858.16855,0.13036
860.09702,0.13374
862.02549,0.14266
863.95396,0.14778
865.88243,0.14511
867.81090,0.13865
869.73937,0.13526
871.66783,0.13178
873.59630,0.12405
875.52477,0.11795
877.45324,0.12091
879.38171,0.12949
881.31018,0.12920
883.23865,0.12124
885.16711,0.11821
887.09558,0.12226
889.02405,0.13241
890.95252,0.13928
892.88099,0.13204
894.80946,0.12333
896.73793,0.12468
898.66640,0.12648
900.59486,0.12770
902.52333,0.13444
904.45180,0.14081
906.38027,0.13946
908.30874,0.13317
910.23721,0.13297
912.16568,0.14141
914.09414,0.14395
916.02261,0.13368
917.95108,0.12614
919.87955,0.13116
921.80802,0.13780
923.73649,0.13944
925.66496,0.14005
927.59343,0.14063
929.52189,0.13798
931.45036,0.13181
933.37883,0.12940
935.30730,0.13372
937.23577,0.13913
939.16424,0.14153
941.09271,0.14078
943.02117,0.13926
944.94964,0.13781
946.87811,0.13497
948.80658,0.13285
950.73505,0.13678
952.66352,0.14319
954.59199,0.14257
956.52045,0.13827
958.44892,0.13819
960.37739,0.14167
962.30586,0.14666
964.23433,0.15115
966.16280,0.15051
968.09127,0.14396
970.01974,0.13981
971.94820,0.14235
973.87667,0.14280
975.80514,0.13912
977.73361,0.14165
979.66208,0.14957
981.59055,0.15129
983.51902,0.14711
985.44748,0.14422
987.37595,0.14134
989.30442,0.13815
991.23289,0.13901
993.16136,0.14214
995.08983,0.14740
997.01830,0.15518
998.94677,0.15592
1000.87523,0.15198
1002.80370,0.15349
1004.73217,0.15475
1006.66064,0.15218
1008.58911,0.14909
1010.51758,0.14501
1012.44605,0.14269
1014.37451,0.14320
1016.30298,0.14310
1018.23145,0.14358
1020.15992,0.14406
1022.08839,0.14263
1024.01686,0.14397
1025.94533,0.14556
1027.87380,0.14298
1029.80226,0.14185
1031.73073,0.14383
1033.65920,0.14325
1035.58767,0.13903
1037.51614,0.13750
1039.44461,0.14305
1041.37308,0.15256
1043.30154,0.15795
1045.23001,0.15683
1047.15848,0.15216
1049.08695,0.14481
1051.01542,0.14219
1052.94389,0.14669
1054.87236,0.15042
1056.80083,0.15313
1058.72929,0.15646
1060.65776,0.15710
1062.58623,0.15324
1064.51470,0.14852
1066.44317,0.14866
1068.37164,0.15208
1070.30011,0.15625
1072.22857,0.16272
1074.15704,0.16632
1076.08551,0.15924
1078.01398,0.14585
1079.94245,0.14085
1081.87092,0.15012
1083.79939,0.15968
1085.72786,0.15566
1087.65632,0.14869
1089.58479,0.15214
1091.51326,0.16045
1093.44173,0.16636
1095.37020,0.16615
1097.29867,0.16359
1099.22714,0.16623
1101.15560,0.16413
1103.08407,0.15175
1105.01254,0.14167
1106.94101,0.13871
1108.86948,0.14151
1110.79795,0.14993
1112.72642,0.15970
1114.65489,0.16725
1116.58335,0.16970
1118.51182,0.16503
1120.44029,0.15905
1122.36876,0.15780
1124.29723,0.15908
1126.22570,0.15761
1128.15417,0.15361
1130.08263,0.15306
1132.01110,0.15365
1133.93957,0.14940
1135.86804,0.14480
1137.79651,0.14223
1139.72498,0.14044
1141.65345,0.14428
1143.58191,0.15300
1145.51038,0.15660
1147.43885,0.15233
1149.36732,0.14879
1151.29579,0.15310
1153.22426,0.16130
1155.15273,0.16345
1157.08120,0.15932
1159.00966,0.15593
1160.93813,0.15425
1162.86660,0.15250
1164.79507,0.15305
1166.72354,0.15832
1168.65201,0.16327
1170.58048,0.16384
1172.50894,0.16374
1174.43741,0.16429
1176.36588,0.16384
1178.29435,0.16260
1180.22282,0.15941
1182.15129,0.15460
1184.07976,0.14628
1186.00823,0.13398
1187.93669,0.13463
1189.86516,0.15050
1191.79363,0.15940
1193.72210,0.15890
1195.65057,0.15749
1197.57904,0.15477
1199.50751,0.15279
1201.43597,0.15294
1203.36444,0.15339
1205.29291,0.15514
1207.22138,0.15818
1209.14985,0.15864
1211.07832,0.15748
1213.00679,0.15956
1214.93526,0.16456
1216.86372,0.16787
1218.79219,0.16534
1220.72066,0.15851
1222.64913,0.15427
1224.57760,0.15538
1226.50607,0.15856
1228.43454,0.16051
1230.36300,0.16048
1232.29147,0.16055
1234.21994,0.16247
1236.14841,0.16322
1238.07688,0.16150
1240.00535,0.16060
1241.93382,0.15974
1243.86229,0.15758
1245.79075,0.15812
1247.71922,0.16204
1249.64769,0.16260
1251.57616,0.15785
1253.50463,0.15648
1255.43310,0.16088
1257.36157,0.16467
1259.29003,0.16661
1261.21850,0.16755
1263.14697,0.16709
1265.07544,0.16648
1267.00391,0.16448
1268.93238,0.16141
1270.86085,0.16210
1272.78932,0.16516
1274.71778,0.16602
1276.64625,0.16589
1278.57472,0.16714
1280.50319,0.16995
1282.43166,0.17211
1284.36013,0.17099
1286.28860,0.16886
1288.21706,0.16918
1290.14553,0.16988
1292.07400,0.16966
1294.00247,0.16984
1295.93094,0.16919
1297.85941,0.16802
1299.78788,0.16751
1301.71634,0.16646
1303.64481,0.16492
1305.57328,0.16426
1307.50175,0.16482
1309.43022,0.16649
1311.35869,0.16896
1313.28716,0.17103
1315.21563,0.17311
1317.14409,0.17634
1319.07256,0.17616
1321.00103,0.17063
1322.92950,0.16649
1324.85797,0.16584
1326.78644,0.16666
1328.71491,0.16761
1330.64337,0.16634
1332.57184,0.16460
1334.50031,0.16573
1336.42878,0.17176
1338.35725,0.18110
1340.28572,0.18157
1342.21419,0.17029
1344.14266,0.16137
1346.07112,0.16195
1347.99959,0.16749
1349.92806,0.17014
1351.85653,0.16916
1353.78500,0.16881
1355.71347,0.17031
1357.64194,0.17339
1359.57040,0.17948
1361.49887,0.18702
1363.42734,0.18738
1365.35581,0.18220
1367.28428,0.17960
1369.21275,0.17747
1371.14122,0.17682
1373.06969,0.17895
1374.99815,0.17822
1376.92662,0.17536
1378.85509,0.17497
1380.78356,0.17591
1382.71203,0.17692
1384.64050,0.18141
1386.56897,0.18690
1388.49743,0.18438
1390.42590,0.18285
1392.35437,0.19161
1394.28284,0.20095
1396.21131,0.20103
1398.13978,0.19713
1400.06825,0.18942
1401.99672,0.17990
1403.92518,0.17554
1405.85365,0.17403
1407.78212,0.17209
1409.71059,0.17300
1411.63906,0.17608
1413.56753,0.17981
1415.49600,0.18843
1417.42446,0.20236
1419.35293,0.20661
1421.28140,0.19797
1423.20987,0.19071
1425.13834,0.18333
1427.06681,0.17939
1428.99528,0.18149
1430.92375,0.18149
1432.85221,0.18254
1434.78068,0.19255
1436.70915,0.20193
1438.63762,0.19652
1440.56609,0.18730
1442.49456,0.18129
1444.42303,0.18141
1446.35149,0.18991
1448.27996,0.19806
1450.20843,0.19767
1452.13690,0.19624
1454.06537,0.20537
1455.99384,0.23139
1457.92231,0.24231
1459.85077,0.21930
1461.77924,0.20604
1463.70771,0.20377
1465.63618,0.19830
1467.56465,0.19224
1469.49312,0.19719
1471.42159,0.21455
1473.35006,0.22860
1475.27852,0.21877
1477.20699,0.19997
1479.13546,0.18853
1481.06393,0.18640
1482.99240,0.18853
1484.92087,0.19478
1486.84934,0.20910
1488.77780,0.22546
1490.70627,0.22081
1492.63474,0.20625
1494.56321,0.20685
1496.49168,0.21944
1498.42015,0.21905
1500.34862,0.20639
1502.27709,0.20581
1504.20555,0.22619
1506.13402,0.26669
1508.06249,0.27024
1509.99096,0.23524
1511.91943,0.21660
1513.84790,0.22031
1515.77637,0.23932
1517.70483,0.25440
1519.63330,0.26149
1521.56177,0.26213
1523.49024,0.24593
1525.41871,0.23302
1527.34718,0.22395
1529.27565,0.21394
1531.20412,0.21388
1533.13258,0.22165
1535.06105,0.22456
1536.98952,0.23557
1538.91799,0.27164
1540.84646,0.29603
1542.77493,0.26345
1544.70340,0.22610
1546.63186,0.20245
1548.56033,0.19767
1550.48880,0.20450
1552.41727,0.21251
1554.34574,0.22349
1556.27421,0.24413
1558.20268,0.27438
1560.13115,0.25631
1562.05961,0.22320
1563.98808,0.21201
1565.91655,0.21028
1567.84502,0.21240
1569.77349,0.21082
1571.70196,0.20288
1573.63043,0.20441
1575.55889,0.21437
1577.48736,0.21040
1579.41583,0.19610
1581.34430,0.18615
1583.27277,0.18261
1585.20124,0.18478
1587.12971,0.18770
1589.05818,0.18876
1590.98664,0.18926
1592.91511,0.18951
1594.84358,0.18897
1596.77205,0.18722
1598.70052,0.18568
1600.62899,0.18597
1602.55746,0.18779
1604.48592,0.18954
1606.41439,0.19106
1608.34286,0.19238
1610.27133,0.19161
1612.19980,0.19237
1614.12827,0.20058
1616.05674,0.21154
1617.98521,0.21017
1619.91367,0.20740
1621.84214,0.21378
1623.77061,0.21619
1625.69908,0.20944
1627.62755,0.20475
1629.55602,0.20125
1631.48449,0.20193
1633.41295,0.21760
1635.34142,0.24271
1637.26989,0.23372
1639.19836,0.20981
1641.12683,0.20159
1643.05530,0.20786
1644.98377,0.22863
1646.91223,0.25177
1648.84070,0.24797
1650.76917,0.24768
1652.69764,0.26854
1654.62611,0.25157
1656.55458,0.21771
1658.48305,0.20526
1660.41152,0.20773
1662.33998,0.21503
1664.26845,0.21549
1666.19692,0.21351
1668.12539,0.22049
1670.05386,0.22788
1671.98233,0.22362
1673.91080,0.22189
1675.83926,0.22038
1677.76773,0.21662
1679.69620,0.22168
1681.62467,0.24047
1683.55314,0.26515
1685.48161,0.25583
1687.41008,0.23083
1689.33855,0.21733
1691.26701,0.21036
1693.19548,0.21431
1695.12395,0.23568
1697.05242,0.25841
1698.98089,0.26273
1700.90936,0.24850
1702.83783,0.23299
1704.76629,0.22734
1706.69476,0.21858
1708.62323,0.20587
1710.55170,0.20129
1712.48017,0.20823
1714.40864,0.22391
1716.33711,0.23640
1718.26558,0.22185
1720.19404,0.19907
1722.12251,0.19127
1724.05098,0.19208
1725.97945,0.19370
1727.90792,0.19832
1729.83639,0.20837
1731.76486,0.22306
1733.69332,0.23324
1735.62179,0.22169
1737.55026,0.21094
1739.47873,0.21109
1741.40720,0.21287
1743.33567,0.21150
1745.26414,0.21088
1747.19261,0.21764
1749.12107,0.22769
1751.04954,0.22302
1752.97801,0.20882
1754.90648,0.20266
1756.83495,0.20323
1758.76342,0.20374
1760.69189,0.20427
1762.62035,0.20086
1764.54882,0.19539
1766.47729,0.19771
1768.40576,0.20644
1770.33423,0.21521
1772.26270,0.21722
1774.19117,0.20881
1776.11964,0.20143
1778.04810,0.20045
1779.97657,0.20277
1781.90504,0.20169
1783.83351,0.19648
1785.76198,0.19160
1787.69045,0.19212
1789.61892,0.20301
1791.54738,0.21728
1793.47585,0.21632
1795.40432,0.20615
1797.33279,0.20044
1799.26126,0.20060
1801.18973,0.20089
1803.11820,0.19627
1805.04666,0.19264
1806.97513,0.19406
1808.90360,0.19809
1810.83207,0.19982
1812.76054,0.19627
1814.68901,0.19165
1816.61748,0.18304
1818.54595,0.16474
1820.47441,0.15522
1822.40288,0.17038
1824.33135,0.19157
1826.25982,0.20055
1828.18829,0.20769
1830.11676,0.21149
1832.04523,0.20301
1833.97369,0.19570
1835.90216,0.19475
1837.83063,0.19373
1839.75910,0.19182
1841.68757,0.19583
1843.61604,0.20507
1845.54451,0.20675
1847.47298,0.20181
1849.40144,0.19766
1851.32991,0.19294
1853.25838,0.18892
1855.18685,0.18883
1857.11532,0.19062
1859.04379,0.19114
1860.97226,0.19006
1862.90072,0.18929
1864.82919,0.19435
1866.75766,0.20698
1868.68613,0.21385
1870.61460,0.20359
1872.54307,0.19093
1874.47154,0.18593
1876.40001,0.18673
1878.32847,0.18918
1880.25694,0.19042
1882.18541,0.19098
1884.11388,0.19150
1886.04235,0.19157
1887.97082,0.19368
1889.89929,0.19662
1891.82775,0.19609
1893.75622,0.19468
1895.68469,0.19356
1897.61316,0.19230
1899.54163,0.19281
1901.47010,0.19359
1903.39857,0.19216
1905.32704,0.19080
1907.25550,0.19247
1909.18397,0.19351
1911.11244,0.19035
1913.04091,0.18833
1914.96938,0.19289
1916.89785,0.20013
1918.82632,0.20056
1920.75478,0.19608
1922.68325,0.19456
1924.61172,0.19445
1926.54019,0.19214
1928.46866,0.18984
1930.39713,0.18976
1932.32560,0.18971
1934.25407,0.18897
1936.18253,0.18907
1938.11100,0.19035
1940.03947,0.19404
1941.96794,0.19817
1943.89641,0.19779
1945.82488,0.19458
1947.75335,0.19154
1949.68181,0.18980
1951.61028,0.19033
1953.53875,0.19120
1955.46722,0.19131
1957.39569,0.19149
1959.32416,0.19196
1961.25263,0.19224
1963.18110,0.19221
1965.10956,0.19237
1967.03803,0.19251
1968.96650,0.19284
1970.89497,0.19348
1972.82344,0.19315
1974.75191,0.19143
1976.68038,0.19055
1978.60884,0.19210
1980.53731,0.19371
1982.46578,0.19306
1984.39425,0.19142
1986.32272,0.19140
1988.25119,0.19326
1990.17966,0.19576
1992.10812,0.19682
1994.03659,0.19438
1995.96506,0.19121
1997.89353,0.19014
1999.82200,0.18997
2001.75047,0.18985
2003.67894,0.19005
2005.60741,0.18970
2007.53587,0.18927
2009.46434,0.19060
2011.39281,0.19211
2013.32128,0.19143
2015.24975,0.19135
2017.17822,0.19367
2019.10669,0.19505
2021.03515,0.19441
2022.96362,0.19341
2024.89209,0.19260
2026.82056,0.19157
2028.74903,0.19093
2030.67750,0.19215
2032.60597,0.19442
2034.53444,0.19464
2036.46290,0.19218
2038.39137,0.19049
2040.31984,0.19097
2042.24831,0.19200
2044.17678,0.19252
2046.10525,0.19190
2048.03372,0.19033
2049.96218,0.18907
2051.89065,0.18979
2053.81912,0.19219
2055.74759,0.19417
2057.67606,0.19494
2059.60453,0.19446
2061.53300,0.19364
2063.46147,0.19342
2065.38993,0.19246
2067.31840,0.19101
2069.24687,0.19122
2071.17534,0.19238
2073.10381,0.19312
2075.03228,0.19278
2076.96075,0.19159
2078.88921,0.19179
2080.81768,0.19301
2082.74615,0.19297
2084.67462,0.19203
2086.60309,0.19128
2088.53156,0.19211
2090.46003,0.19405
2092.38850,0.19400
2094.31696,0.19323
2096.24543,0.19461
2098.17390,0.19614
2100.10237,0.19577
2102.03084,0.19481
2103.95931,0.19447
2105.88778,0.19369
2107.81624,0.19267
2109.74471,0.19248
2111.67318,0.19288
2113.60165,0.19362
2115.53012,0.19348
2117.45859,0.19217
2119.38706,0.19161
2121.31553,0.19221
2123.24399,0.19270
2125.17246,0.19344
2127.10093,0.19453
2129.02940,0.19396
2130.95787,0.19217
2132.88634,0.19188
2134.81481,0.19433
2136.74327,0.19851
2138.67174,0.20078
2140.60021,0.19902
2142.52868,0.19646
2144.45715,0.19526
2146.38562,0.19339
2148.31409,0.19123
2150.24255,0.19099
2152.17102,0.19227
2154.09949,0.19317
2156.02796,0.19238
2157.95643,0.19201
2159.88490,0.19445
2161.81337,0.19687
2163.74184,0.19596
2165.67030,0.19352
2167.59877,0.19261
2169.52724,0.19335
2171.45571,0.19399
2173.38418,0.19357
2175.31265,0.19286
2177.24112,0.19293
2179.16958,0.19413
2181.09805,0.19580
2183.02652,0.19586
2184.95499,0.19429
2186.88346,0.19392
2188.81193,0.19429
2190.74040,0.19284
2192.66887,0.19088
2194.59733,0.19001
2196.52580,0.19009
2198.45427,0.19128
2200.38274,0.19247
2202.31121,0.19311
2204.23968,0.19443
2206.16815,0.19519
2208.09661,0.19363
2210.02508,0.19143
2211.95355,0.19083
2213.88202,0.19257
2215.81049,0.19464
2217.73896,0.19431
2219.66743,0.19339
2221.59590,0.19371
2223.52436,0.19385
2225.45283,0.19456
2227.38130,0.19643
2229.30977,0.19759
2231.23824,0.19770
2233.16671,0.19610
2235.09518,0.19294
2237.02364,0.19173
2238.95211,0.19267
2240.88058,0.19351
2242.80905,0.19529
2244.73752,0.19758
2246.66599,0.19726
2248.59446,0.19511
2250.52293,0.19435
2252.45139,0.19525
2254.37986,0.19612
2256.30833,0.19588
2258.23680,0.19594
2260.16527,0.19762
2262.09374,0.19930
2264.02221,0.19938
2265.95067,0.19800
2267.87914,0.19697
2269.80761,0.19737
2271.73608,0.19691
2273.66455,0.19486
2275.59302,0.19452
2277.52149,0.19614
2279.44996,0.19652
2281.37842,0.19524
2283.30689,0.19416
2285.23536,0.19500
2287.16383,0.19696
2289.09230,0.19724
2291.02077,0.19859
2292.94924,0.20599
2294.87770,0.21366
2296.80617,0.21245
2298.73464,0.20561
2300.66311,0.20236
2302.59158,0.20395
2304.52005,0.20576
2306.44852,0.20644
2308.37699,0.20824
2310.30545,0.21021
2312.23392,0.20912
2314.16239,0.20537
2316.09086,0.20087
2318.01933,0.19903
2319.94780,0.20260
2321.87627,0.20789
2323.80473,0.21367
2325.73320,0.22022
2327.66167,0.21955
2329.59014,0.21153
2331.51861,0.20894
2333.44708,0.21550
2335.37555,0.22361
2337.30401,0.22555
2339.23248,0.22071
2341.16095,0.21860
2343.08942,0.22285
2345.01789,0.22400
2346.94636,0.21675
2348.87483,0.20970
2350.80330,0.20951
2352.73176,0.21610
2354.66023,0.22432
2356.58870,0.23263
2358.51717,0.24139
2360.44564,0.24247
2362.37411,0.23532
2364.30258,0.22698
2366.23104,0.22149
2368.15951,0.21772
2370.08798,0.21056
2372.01645,0.20464
2373.94492,0.20447
2375.87339,0.20575
2377.80186,0.20435
2379.73033,0.20042
2381.65879,0.19765
2383.58726,0.19792
2385.51573,0.19857
2387.44420,0.19795
2389.37267,0.19687
2391.30114,0.19511
2393.22961,0.19357
2395.15807,0.19363
2397.08654,0.19322
2399.01501,0.19181
2400.94348,0.19196
2402.87195,0.19371
2404.80042,0.19500
2406.72889,0.19538
2408.65736,0.19546
2410.58582,0.19439
2412.51429,0.19229
2414.44276,0.19141
2416.37123,0.19160
2418.29970,0.19155
2420.22817,0.19195
2422.15664,0.19244
2424.08510,0.19280
2426.01357,0.19393
2427.94204,0.19449
2429.87051,0.19387
2431.79898,0.19269
2433.72745,0.19237
2435.65592,0.19361
2437.58439,0.19315
2439.51285,0.19053
2441.44132,0.18877
2443.36979,0.18859
2445.29826,0.18972
2447.22673,0.19218
2449.15520,0.19440
2451.08367,0.19422
2453.01213,0.19255
2454.94060,0.19255
2456.86907,0.19612
2458.79754,0.19910
2460.72601,0.19670
2462.65448,0.19289
2464.58295,0.19212
2466.51142,0.19315
2468.43988,0.19419
2470.36835,0.19436
2472.29682,0.19427
2474.22529,0.19494
2476.15376,0.19465
2478.08223,0.19277
2480.01070,0.19199
2481.93916,0.19375
2483.86763,0.19547
2485.79610,0.19412
2487.72457,0.19199
2489.65304,0.19257
2491.58151,0.19366
2493.50998,0.19320
2495.43844,0.19283
2497.36691,0.19315
2499.29538,0.19460
2501.22385,0.19722
2503.15232,0.19888
2505.08079,0.19870
2507.00926,0.19766
2508.93773,0.19668
2510.86619,0.19562
2512.79466,0.19463
2514.72313,0.19435
2516.65160,0.19428
2518.58007,0.19477
2520.50854,0.19624
2522.43701,0.19656
2524.36547,0.19473
2526.29394,0.19342
2528.22241,0.19367
2530.15088,0.19443
2532.07935,0.19749
2534.00782,0.20173
2535.93629,0.20228
2537.86476,0.20039
2539.79322,0.20048
2541.72169,0.20219
2543.65016,0.20344
2545.57863,0.20313
2547.50710,0.20038
2549.43557,0.19640
2551.36404,0.19409
2553.29250,0.19440
2555.22097,0.19596
2557.14944,0.19762
2559.07791,0.19758
2561.00638,0.19521
2562.93485,0.19366
2564.86332,0.19481
2566.79179,0.19775
2568.72025,0.20108
2570.64872,0.20259
2572.57719,0.20190
2574.50566,0.20107
2576.43413,0.20074
2578.36260,0.20038
2580.29107,0.19964
2582.21953,0.19826
2584.14800,0.19655
2586.07647,0.19504
2588.00494,0.19514
2589.93341,0.19685
2591.86188,0.19687
2593.79035,0.19457
2595.71882,0.19360
2597.64728,0.19450
2599.57575,0.19452
2601.50422,0.19443
2603.43269,0.19629
2605.36116,0.19863
2607.28963,0.19945
2609.21810,0.19818
2611.14656,0.19565
2613.07503,0.19488
2615.00350,0.19666
2616.93197,0.19768
2618.86044,0.19647
2620.78891,0.19539
2622.71738,0.19622
2624.64585,0.19730
2626.57431,0.19724
2628.50278,0.19745
2630.43125,0.19874
2632.35972,0.20072
2634.28819,0.20333
2636.21666,0.20511
2638.14513,0.20431
2640.07359,0.20292
2642.00206,0.20289
2643.93053,0.20392
2645.85900,0.20588
2647.78747,0.20635
2649.71594,0.20397
2651.64441,0.20104
2653.57288,0.19892
2655.50134,0.19733
2657.42981,0.19671
2659.35828,0.19815
2661.28675,0.20029
2663.21522,0.20125
2665.14369,0.20268
2667.07216,0.20489
2669.00062,0.20460
2670.92909,0.20198
2672.85756,0.20054
2674.78603,0.20067
2676.71450,0.20069
2678.64297,0.19997
2680.57144,0.20014
2682.49990,0.20304
2684.42837,0.20664
2686.35684,0.20693
2688.28531,0.20312
2690.21378,0.19912
2692.14225,0.19870
2694.07072,0.20093
2695.99919,0.20333
2697.92765,0.20487
2699.85612,0.20607
2701.78459,0.20699
2703.71306,0.20652
2705.64153,0.20592
2707.57000,0.20653
2709.49847,0.20648
2711.42693,0.20564
2713.35540,0.20591
2715.28387,0.20727
2717.21234,0.20806
2719.14081,0.20779
2721.06928,0.20700
2722.99775,0.20540
2724.92622,0.20399
2726.85468,0.20528
2728.78315,0.20776
2730.71162,0.20703
2732.64009,0.20442
2734.56856,0.20395
2736.49703,0.20492
2738.42550,0.20615
2740.35396,0.20787
2742.28243,0.20853
2744.21090,0.20709
2746.13937,0.20521
2748.06784,0.20451
2749.99631,0.20504
2751.92478,0.20536
2753.85325,0.20569
2755.78171,0.20872
2757.71018,0.21177
2759.63865,0.21044
2761.56712,0.20802
2763.49559,0.20928
2765.42406,0.21198
2767.35253,0.21066
2769.28099,0.20591
2771.20946,0.20380
2773.13793,0.20596
2775.06640,0.20849
2776.99487,0.20878
2778.92334,0.20759
2780.85181,0.20676
2782.78028,0.20788
2784.70874,0.21005
2786.63721,0.20983
2788.56568,0.20742
2790.49415,0.20607
2792.42262,0.20609
2794.35109,0.20697
2796.27956,0.20801
2798.20802,0.20761
2800.13649,0.20708
2802.06496,0.20899
2803.99343,0.21236
2805.92190,0.21335
2807.85037,0.21181
2809.77884,0.21110
2811.70731,0.21047
2813.63577,0.20923
2815.56424,0.20959
2817.49271,0.20939
2819.42118,0.20714
2821.34965,0.20593
2823.27812,0.20747
2825.20659,0.21029
2827.13505,0.21146
2829.06352,0.21100
2830.99199,0.21146
2832.92046,0.21295
2834.84893,0.21360
2836.77740,0.21237
2838.70587,0.21032
2840.63433,0.20871
2842.56280,0.20795
2844.49127,0.20881
2846.41974,0.21120
2848.34821,0.21242
2850.27668,0.21098
2852.20515,0.20890
2854.13362,0.20856
2856.06208,0.21170
2857.99055,0.21620
2859.91902,0.21627
2861.84749,0.21120
2863.77596,0.20765
2865.70443,0.21056
2867.63290,0.21543
2869.56136,0.21587
2871.48983,0.21411
2873.41830,0.21351
2875.34677,0.21167
2877.27524,0.20817
2879.20371,0.20605
2881.13218,0.20661
2883.06065,0.20861
2884.98911,0.21024
2886.91758,0.21253
2888.84605,0.21558
2890.77452,0.21509
2892.70299,0.21040
2894.63146,0.20723
2896.55993,0.20882
2898.48839,0.21110
2900.41686,0.20944
2902.34533,0.20580
2904.27380,0.20400
2906.20227,0.20441
2908.13074,0.20620
2910.05921,0.20877
2911.98768,0.21090
2913.91614,0.21119
2915.84461,0.21001
2917.77308,0.20877
2919.70155,0.20719
2921.63002,0.20596
2923.55849,0.20783
2925.48696,0.20964
2927.41542,0.20856
2929.34389,0.21103
2931.27236,0.21618
2933.20083,0.21537
2935.12930,0.21056
2937.05777,0.20883
2938.98624,0.21066
2940.91471,0.21223
2942.84317,0.21211
2944.77164,0.21099
2946.70011,0.20879
2948.62858,0.20811
2950.55705,0.21075
2952.48552,0.21375
2954.41399,0.21445
2956.34245,0.21223
2958.27092,0.21007
2960.19939,0.21129
2962.12786,0.21402
2964.05633,0.21620
2965.98480,0.21796
2967.91327,0.21837
2969.84174,0.21700
2971.77020,0.21502
2973.69867,0.21331
2975.62714,0.21131
2977.55561,0.20986
2979.48408,0.21147
2981.41255,0.21425
2983.34102,0.21488
2985.26948,0.21355
2987.19795,0.21091
2989.12642,0.20978
2991.05489,0.21273
2992.98336,0.21668
2994.91183,0.21840
2996.84030,0.21795
2998.76877,0.21688
3000.69723,0.21766
3002.62570,0.21891
3004.55417,0.21673
3006.48264,0.21344
3008.41111,0.21344
3010.33958,0.21458
3012.26805,0.21043
3014.19651,0.19914
3016.12498,0.19048
3018.05345,0.19597
3019.98192,0.20981
3021.91039,0.21819
3023.83886,0.22083
3025.76733,0.22209
3027.69579,0.22120
3029.62426,0.21973
3031.55273,0.22008
3033.48120,0.22040
3035.40967,0.21805
3037.33814,0.21580
3039.26661,0.21734
3041.19508,0.21917
3043.12354,0.21768
3045.05201,0.21599
3046.98048,0.21611
3048.90895,0.21564
3050.83742,0.21409
3052.76589,0.21457
3054.69436,0.21615
3056.62282,0.21398
3058.55129,0.21139
3060.47976,0.21407
3062.40823,0.21917
3064.33670,0.22110
3066.26517,0.21725
3068.19364,0.21343
3070.12211,0.21486
3072.05057,0.21591
3073.97904,0.21362
3075.90751,0.21216
3077.83598,0.21387
3079.76445,0.21775
3081.69292,0.21969
3083.62139,0.21466
3085.54985,0.20715
3087.47832,0.20712
3089.40679,0.21272
3091.33526,0.21472
3093.26373,0.21123
3095.19220,0.20909
3097.12067,0.21197
3099.04914,0.21546
3100.97760,0.21599
3102.90607,0.21530
3104.83454,0.21843
3106.76301,0.22334
3108.69148,0.22257
3110.61995,0.21762
3112.54842,0.21437
3114.47688,0.21438
3116.40535,0.21664
3118.33382,0.21913
3120.26229,0.21941
3122.19076,0.21826
3124.11923,0.21998
3126.04770,0.22368
3127.97617,0.22261
3129.90463,0.21747
3131.83310,0.21510
3133.76157,0.21481
3135.69004,0.21404
3137.61851,0.21484
3139.54698,0.21748
3141.47545,0.22041
3143.40391,0.22299
3145.33238,0.22370
3147.26085,0.22067
3149.18932,0.21713
3151.11779,0.21884
3153.04626,0.22448
3154.97473,0.22785
3156.90320,0.22710
3158.83166,0.22449
3160.76013,0.22178
3162.68860,0.21993
3164.61707,0.21881
3166.54554,0.21867
3168.47401,0.21989
3170.40248,0.22013
3172.33094,0.21798
3174.25941,0.21654
3176.18788,0.21782
3178.11635,0.21870
3180.04482,0.21846
3181.97329,0.22019
3183.90176,0.22307
3185.83022,0.22386
3187.75869,0.22340
3189.68716,0.22429
3191.61563,0.22522
3193.54410,0.22582
3195.47257,0.22690
3197.40104,0.22773
3199.32951,0.22863
3201.25797,0.22688
3203.18644,0.22125
3205.11491,0.21778
3207.04338,0.22005
3208.97185,0.22265
3210.90032,0.22027
3212.82879,0.21788
3214.75725,0.21958
3216.68572,0.22173
3218.61419,0.22296
3220.54266,0.22151
3222.47113,0.21617
3224.39960,0.21386
3226.32807,0.21786
3228.25654,0.22123
3230.18500,0.22148
3232.11347,0.22320
3234.04194,0.22484
3235.97041,0.22209
3237.89888,0.21830
3239.82735,0.21719
3241.75582,0.21794
3243.68428,0.21925
3245.61275,0.21998
3247.54122,0.22054
3249.46969,0.22097
3251.39816,0.22033
3253.32663,0.22035
3255.25510,0.22227
3257.18357,0.22398
3259.11203,0.22305
3261.04050,0.22048
3262.96897,0.21949
3264.89744,0.22011
3266.82591,0.22014
3268.75438,0.21952
3270.68285,0.21836
3272.61131,0.21553
3274.53978,0.21346
3276.46825,0.21504
3278.39672,0.21771
3280.32519,0.21941
3282.25366,0.22093
3284.18213,0.22142
3286.11060,0.22037
3288.03906,0.21877
3289.96753,0.21668
3291.89600,0.21604
3293.82447,0.21864
3295.75294,0.22238
3297.68141,0.22464
3299.60988,0.22313
3301.53834,0.21955
3303.46681,0.21714
3305.39528,0.21307
3307.32375,0.20719
3309.25222,0.20561
3311.18069,0.20989
3313.10916,0.21522
3315.03763,0.21730
3316.96609,0.21695
3318.89456,0.21830
3320.82303,0.22026
3322.75150,0.21868
3324.67997,0.21593
3326.60844,0.21403
3328.53691,0.21280
3330.46537,0.21501
3332.39384,0.21859
3334.32231,0.21712
3336.25078,0.21314
3338.17925,0.21349
3340.10772,0.21492
3342.03619,0.21485
3343.96466,0.21836
3345.89312,0.22272
3347.82159,0.22073
3349.75006,0.21647
3351.67853,0.21681
3353.60700,0.21854
3355.53547,0.21884
3357.46394,0.21930
3359.39240,0.22081
3361.32087,0.22438
3363.24934,0.22585
3365.17781,0.22292
3367.10628,0.22287
3369.03475,0.22739
3370.96322,0.22957
3372.89168,0.22769
3374.82015,0.22495
3376.74862,0.22091
3378.67709,0.21588
3380.60556,0.21465
3382.53403,0.21876
3384.46250,0.22461
3386.39097,0.22811
3388.31943,0.22700
3390.24790,0.22526
3392.17637,0.22672
3394.10484,0.22617
3396.03331,0.22232
3397.96178,0.21949
3399.89025,0.21732
3401.81871,0.21510
3403.74718,0.21444
3405.67565,0.21780
3407.60412,0.22112
3409.53259,0.21795
3411.46106,0.21347
3413.38953,0.21433
3415.31800,0.21677
3417.24646,0.21678
3419.17493,0.21839
3421.10340,0.22095
3423.03187,0.21794
3424.96034,0.21241
3426.88881,0.21151
3428.81728,0.21616
3430.74574,0.21904
3432.67421,0.21384
3434.60268,0.20787
3436.53115,0.20973
3438.45962,0.21484
3440.38809,0.21547
3442.31656,0.21275
3444.24503,0.21412
3446.17349,0.21992
3448.10196,0.22092
3450.03043,0.21605
3451.95890,0.20999
3453.88737,0.20405
3455.81584,0.20320
3457.74431,0.20793
3459.67277,0.21029
3461.60124,0.20786
3463.52971,0.20378
3465.45818,0.19905
3467.38665,0.19765
3469.31512,0.20332
3471.24359,0.20943
3473.17206,0.20701
3475.10052,0.19882
3477.02899,0.19423
3478.95746,0.19515
3480.88593,0.19638
3482.81440,0.19248
3484.74287,0.18794
3486.67134,0.18966
3488.59980,0.19258
3490.52827,0.19288
3492.45674,0.19315
3494.38521,0.19290
3496.31368,0.19060
3498.24215,0.18878
3500.17062,0.19125
3502.09909,0.19538
3504.02755,0.19529
3505.95602,0.19234
3507.88449,0.19135
3509.81296,0.19182
3511.74143,0.18930
3513.66990,0.18415
3515.59837,0.18358
3517.52683,0.18714
3519.45530,0.18725
3521.38377,0.18590
3523.31224,0.18774
3525.24071,0.19231
3527.16918,0.19533
3529.09765,0.19148
3531.02611,0.18341
3532.95458,0.17655
3534.88305,0.17484
3536.81152,0.17763
3538.73999,0.17831
3540.66846,0.17750
3542.59693,0.17990
3544.52540,0.18534
3546.45386,0.18915
3548.38233,0.18707
3550.31080,0.18244
3552.23927,0.17878
3554.16774,0.17535
3556.09621,0.17203
3558.02468,0.17121
3559.95314,0.17367
3561.88161,0.17786
3563.81008,0.18741
3565.73855,0.20073
3567.66702,0.19774
3569.59549,0.17929
3571.52396,0.16712
3573.45243,0.16387
3575.38089,0.16503
3577.30936,0.16535
3579.23783,0.16337
3581.16630,0.16276
3583.09477,0.16597
3585.02324,0.17443
3586.95171,0.18552
3588.88017,0.18565
3590.80864,0.17975
3592.73711,0.17834
3594.66558,0.17728
3596.59405,0.17600
3598.52252,0.17546
3600.45099,0.17045
3602.37946,0.16319
3604.30792,0.16146
3606.23639,0.16797
3608.16486,0.17811
3610.09333,0.18380
3612.02180,0.18761
3613.95027,0.18809
3615.87874,0.18214
3617.80720,0.17952
3619.73567,0.17600
3621.66414,0.16303
3623.59261,0.15682
3625.52108,0.16539
3627.44955,0.18258
3629.37802,0.18823
3631.30649,0.17516
3633.23495,0.16169
3635.16342,0.15133
3637.09189,0.14669
3639.02036,0.14479
3640.94883,0.14320
3642.87730,0.14618
3644.80577,0.15711
3646.73423,0.17802
3648.66270,0.19812
3650.59117,0.18589
3652.51964,0.16287
3654.44811,0.15524
3656.37658,0.15625
3658.30505,0.15078
3660.23352,0.14142
3662.16198,0.13603
3664.09045,0.13672
3666.01892,0.14417
3667.94739,0.15949
3669.87586,0.17361
3671.80433,0.17174
3673.73280,0.17116
3675.66126,0.17320
3677.58973,0.16066
3679.51820,0.14864
3681.44667,0.14471
3683.37514,0.14258
3685.30361,0.14151
3687.23208,0.15073
3689.16055,0.16773
3691.08901,0.16489
3693.01748,0.14943
3694.94595,0.13988
3696.87442,0.13587
3698.80289,0.13715
3700.73136,0.14254
3702.65983,0.14307
3704.58829,0.13960
3706.51676,0.14343
3708.44523,0.15461
3710.37370,0.16266
3712.30217,0.15716
3714.23064,0.14670
3716.15911,0.14022
3718.08757,0.13604
3720.01604,0.13694
3721.94451,0.14566
3723.87298,0.15348
3725.80145,0.15319
3727.72992,0.14914
3729.65839,0.14988
3731.58686,0.16004
3733.51532,0.17809
3735.44379,0.18549
3737.37226,0.17011
3739.30073,0.15434
3741.22920,0.14985
3743.15767,0.15687
3745.08614,0.16640
3747.01460,0.16592
3748.94307,0.16832
3750.87154,0.17271
3752.80001,0.16055
3754.72848,0.14721
3756.65695,0.14610
3758.58542,0.15273
3760.51389,0.15251
3762.44235,0.14608
3764.37082,0.14295
3766.29929,0.14254
3768.22776,0.14532
3770.15623,0.14669
3772.08470,0.13870
3774.01317,0.13047
3775.94163,0.12985
3777.87010,0.13704
3779.79857,0.14346
3781.72704,0.14095
3783.65551,0.13826
3785.58398,0.13986
3787.51245,0.13930
3789.44092,0.13486
3791.36938,0.13218
3793.29785,0.13491
3795.22632,0.14082
3797.15479,0.14350
3799.08326,0.14323
3801.01173,0.14645
3802.94020,0.14668
3804.86866,0.14345
3806.79713,0.14276
3808.72560,0.13778
3810.65407,0.12976
3812.58254,0.12681
3814.51101,0.13104
3816.43948,0.13893
3818.36795,0.14610
3820.29641,0.15401
3822.22488,0.15189
3824.15335,0.14229
3826.08182,0.13596
3828.01029,0.13097
3829.93876,0.13059
3831.86723,0.13670
3833.79569,0.14673
3835.72416,0.16037
3837.65263,0.17091
3839.58110,0.16423
3841.50957,0.15036
3843.43804,0.14278
3845.36651,0.13727
3847.29498,0.13303
3849.22344,0.13681
3851.15191,0.15221
3853.08038,0.16925
3855.00885,0.15905
3856.93732,0.13965
3858.86579,0.12762
3860.79426,0.12523
3862.72272,0.13064
3864.65119,0.13293
3866.57966,0.13108
3868.50813,0.13433
3870.43660,0.13883
3872.36507,0.13876
3874.29354,0.13842
3876.22200,0.13797
3878.15047,0.13822
3880.07894,0.13711
3882.00741,0.13340
3883.93588,0.13472
3885.86435,0.13653
3887.79282,0.13223
3889.72129,0.13172
3891.64975,0.13458
3893.57822,0.12992
3895.50669,0.12588
3897.43516,0.12973
3899.36363,0.13589
3901.29210,0.13875
3903.22057,0.14096
3905.14903,0.13907
3907.07750,0.12961
3909.00597,0.12096
3910.93444,0.11737
3912.86291,0.11681
3914.79138,0.12018
3916.71985,0.12835
3918.64832,0.13319
3920.57678,0.13024
3922.50525,0.12682
3924.43372,0.12627
3926.36219,0.12493
3928.29066,0.12527
3930.21913,0.13117
3932.14760,0.13595
3934.07606,0.13352
3936.00453,0.12731
3937.93300,0.12106
3939.86147,0.11672
3941.78994,0.11335
3943.71841,0.11027
3945.64688,0.10941
3947.57535,0.11165
3949.50381,0.11525
3951.43228,0.11534
3953.36075,0.11166
3955.28922,0.10852
3957.21769,0.10816
3959.14616,0.11146
3961.07463,0.11618
3963.00309,0.11730
3964.93156,0.11371
3966.86003,0.10866
3968.78850,0.10579
3970.71697,0.10617
3972.64544,0.10766
3974.57391,0.10647
3976.50238,0.10246
3978.43084,0.10169
3980.35931,0.10475
3982.28778,0.10502
3984.21625,0.10307
3986.14472,0.10420
3988.07319,0.10692
3990.00166,0.10726
3991.93012,0.10443
3993.85859,0.10079
3995.78706,0.10008
3997.71553,0.10278
3999.64400,0.10523
4001.57247,0.10574
4003.50094,0.10557
4005.42941,0.10499
4007.35787,0.10486
4009.28634,0.10358
4011.21481,0.10033
4013.14328,0.09997
4015.07175,0.10139
4017.00022,0.10117
4018.92869,0.10339
4020.85715,0.10740
4022.78562,0.10491
4024.71409,0.09737
4026.64256,0.09433
4028.57103,0.09637
4030.49950,0.09812
4032.42797,0.09796
4034.35644,0.09628
4036.28490,0.09437
4038.21337,0.09577
4040.14184,0.10097
4042.07031,0.10420
4043.99878,0.10242
4045.92725,0.09853
4047.85572,0.09597
4049.78418,0.09511
4051.71265,0.09429
4053.64112,0.09442
4055.56959,0.09775
4057.49806,0.10208
4059.42653,0.10283
4061.35500,0.09911
4063.28346,0.09481
4065.21193,0.09388
4067.14040,0.09612
4069.06887,0.09855
4070.99734,0.09920
4072.92581,0.09888
4074.85428,0.09799
4076.78275,0.09392
4078.71121,0.08757
4080.63968,0.08543
4082.56815,0.08853
4084.49662,0.09090
4086.42509,0.09068
4088.35356,0.08968
4090.28203,0.08821
4092.21049,0.08716
4094.13896,0.08487
4096.06743,0.08078
4097.99590,0.08093
4099.92437,0.08719
4101.85284,0.09344
4103.78131,0.09423
4105.70978,0.09148
4107.63824,0.08986
4109.56671,0.08880
4111.49518,0.08752
4113.42365,0.08790
4115.35212,0.09114
4117.28059,0.09496
4119.20906,0.09496
4121.13752,0.09246
4123.06599,0.09070
4124.99446,0.09105
4126.92293,0.09260
4128.85140,0.09072
4130.77987,0.08769
4132.70834,0.08699
4134.63681,0.08507
4136.56527,0.08175
4138.49374,0.08006
4140.42221,0.08035
4142.35068,0.08096
4144.27915,0.08157
4146.20762,0.08119
4148.13609,0.07894
4150.06455,0.07755
4151.99302,0.07667
4153.92149,0.07680
4155.84996,0.08071
4157.77843,0.08360
4159.70690,0.08066
4161.63537,0.07467
4163.56384,0.07130
4165.49230,0.07432
4167.42077,0.07863
4169.34924,0.07574
4171.27771,0.06964
4173.20618,0.06932
4175.13465,0.07271
4177.06312,0.07618
4178.99158,0.08133
4180.92005,0.08550
4182.84852,0.08426
4184.77699,0.07684
4186.70546,0.06823
4188.63393,0.06764
4190.56240,0.07279
4192.49087,0.07299
4194.41933,0.06849
4196.34780,0.06766
4198.27627,0.07314
4200.20474,0.07756
4202.13321,0.07480
4204.06168,0.06892
4205.99015,0.06770
4207.91861,0.07022
4209.84708,0.07068
4211.77555,0.07096
4213.70402,0.07169
4215.63249,0.06893
4217.56096,0.06564
4219.48943,0.06672
4221.41789,0.07076
4223.34636,0.07252
4225.27483,0.06953
4227.20330,0.06624
4229.13177,0.06710
4231.06024,0.07135
4232.98871,0.07710
4234.91718,0.07976
4236.84564,0.07571
4238.77411,0.06975
4240.70258,0.06555
4242.63105,0.06372
4244.55952,0.06710
4246.48799,0.07115
4248.41646,0.06828
4250.34492,0.06235
4252.27339,0.05906
4254.20186,0.05633
4256.13033,0.05393
4258.05880,0.05556
4259.98727,0.05980
4261.91574,0.06158
4263.84421,0.06048
4265.77267,0.05837
4267.70114,0.05504
4269.62961,0.05248
4271.55808,0.05342
4273.48655,0.05439
4275.41502,0.05234
4277.34349,0.05212
4279.27195,0.05539
4281.20042,0.05758
4283.12889,0.05865
4285.05736,0.05824
4286.98583,0.05464
4288.91430,0.05312
4290.84277,0.05533
4292.77124,0.05633
4294.69970,0.05585
4296.62817,0.05432
4298.55664,0.05179
4300.48511,0.05081
4302.41358,0.05117
4304.34205,0.05361
4306.27052,0.05745
4308.19898,0.05627
4310.12745,0.05261
4312.05592,0.05488
4313.98439,0.05803
4315.91286,0.05376
4317.84133,0.04658
4319.76980,0.04336
4321.69827,0.04439
4323.62673,0.04772
4325.55520,0.05062
4327.48367,0.05126
4329.41214,0.05036
4331.34061,0.04875
4333.26908,0.04570
4335.19755,0.04278
4337.12601,0.04500
4339.05448,0.04874
4340.98295,0.04682
4342.91142,0.04239
4344.83989,0.03901
4346.76836,0.03770
4348.69683,0.03636
4350.62530,0.02837
4352.55376,0.02092
4354.48223,0.02765
4356.41070,0.04257
4358.33917,0.05015
4360.26764,0.04489
4362.19611,0.03446
4364.12458,0.03245
4366.05304,0.03592
4367.98151,0.03292
4369.90998,0.02884
4371.83845,0.03054
4373.76692,0.03288
4375.69539,0.03456
4377.62386,0.03929
4379.55232,0.04323
4381.48079,0.04039
4383.40926,0.03371
4385.33773,0.02919
4387.26620,0.02897
4389.19467,0.03217
4391.12314,0.03399
4393.05161,0.03116
4394.98007,0.02839
4396.90854,0.02783
4398.83701,0.02736
4400.76548,0.02966
4402.69395,0.03361
4404.62242,0.03379
4406.55089,0.03117
4408.47935,0.02943
4410.40782,0.03075
4412.33629,0.03204
4414.26476,0.02727
4416.19323,0.01944
4418.12170,0.01361
4420.05017,0.00888
4421.97864,0.00703
4423.90710,0.01175
4425.83557,0.02107
4427.76404,0.02881
4429.69251,0.02871
4431.62098,0.01993
4433.54945,0.01231
4435.47792,0.01283
4437.40638,0.01651
4439.33485,0.01873
4441.26332,0.01963
4443.19179,0.01932
4445.12026,0.01750
4447.04873,0.01650
4448.97720,0.01655
4450.90567,0.01384
4452.83413,0.01002
4454.76260,0.01239
4456.69107,0.02135
4458.61954,0.02742
4460.54801,0.02615
4462.47648,0.02383
4464.40495,0.02578
4466.33341,0.03051
4468.26188,0.03223
4470.19035,0.02601
4472.11882,0.01679
4474.04729,0.01504
4475.97576,0.01860
4477.90423,0.01969
4479.83270,0.01877
4481.76116,0.01769
4483.68963,0.01557
4485.61810,0.01237
4487.54657,0.00981
4489.47504,0.00839
4491.40351,0.00972
4493.33198,0.01402
4495.26044,0.01686
4497.18891,0.01514
4499.11738,0.00985
4501.04585,0.00533
4502.97432,0.00341
4504.90279,0.00284
4506.83126,0.00326
4508.75973,0.00398
4510.68819,0.00722
4512.61666,0.01649
4514.54513,0.02560
4516.47360,0.02453
4518.40207,0.01568
4520.33054,0.00937
4522.25901,0.00794
4524.18747,0.00629
4526.11594,0.00522
4528.04441,0.00722
4529.97288,0.00947
4531.90135,0.01227
4533.82982,0.01487
4535.75829,0.01420
4537.68676,0.01535
4539.61522,0.02077
4541.54369,0.02302
4543.47216,0.01863
4545.40063,0.01051
4547.32910,0.00687
4549.25757,0.01066
4551.18604,0.00910
4553.11450,0.00065
4555.04297,0.00041
4556.97144,0.00897
4558.89991,0.01562
4560.82838,0.01721
4562.75685,0.01545
4564.68532,0.01270
4566.61378,0.01125
4568.54225,0.00829
4570.47072,0.00222
4572.39919,0.00071
4574.32766,0.00488
4576.25613,0.00458
4578.18460,-0.00153
4580.11307,-0.00255
4582.04153,0.00191
4583.97000,0.00127
4585.89847,-0.00298
4587.82694,-0.00618
4589.75541,-0.00971
4591.68388,-0.00905
4593.61235,-0.00193
4595.54081,0.00447
4597.46928,0.00559
4599.39775,0.00349
4601.32622,0.00033
4603.25469,-0.00290
4605.18316,-0.00389
4607.11163,-0.00406
4609.04010,-0.00114
4610.96856,0.00871
4612.89703,0.01665
4614.82550,0.01909
4616.75397,0.01936
4618.68244,0.01335
4620.61091,0.00403
4622.53938,0.00045
4624.46784,0.00414
4626.39631,0.01039
4628.32478,0.01384
4630.25325,0.01411
4632.18172,0.01111
4634.11019,0.00482
4636.03866,-0.00005
4637.96713,-0.00242
4639.89559,-0.00377
4641.82406,-0.00275
4643.75253,-0.00106
4645.68100,0.00017
4647.60947,0.00508
4649.53794,0.00992
4651.46641,0.00656
4653.39487,-0.00097
4655.32334,-0.00635
4657.25181,-0.00866
4659.18028,-0.00983
4661.10875,-0.01152
4663.03722,-0.00857
4664.96569,-0.00141
4666.89416,0.00134
4668.82262,0.00201
4670.75109,0.00560
4672.67956,0.00625
4674.60803,0.00266
4676.53650,0.00075
4678.46497,-0.00007
4680.39344,-0.00174
4682.32190,-0.00444
4684.25037,-0.00790
4686.17884,-0.00642
4688.10731,0.00087
4690.03578,0.00384
4691.96425,-0.00003
4693.89272,0.00128
4695.82119,0.01090
4697.74965,0.01614
4699.67812,0.01323
4701.60659,0.00805
4703.53506,0.00229
4705.46353,-0.00037
4707.39200,0.00140
4709.32047,0.00580
4711.24893,0.01074
4713.17740,0.00768
4715.10587,0.00073
4717.03434,0.00606
4718.96281,0.01916
4720.89128,0.02093
4722.81975,0.01072
4724.74821,0.00246
4726.67668,-0.00117
4728.60515,-0.00131
4730.53362,0.00425
4732.46209,0.01051
4734.39056,0.01133
4736.31903,0.00790
4738.24750,0.00390
4740.17596,0.00156
4742.10443,0.00132
4744.03290,0.00100
4745.96137,-0.00124
4747.88984,-0.00311
4749.81831,-0.00041
4751.74678,0.00216
4753.67524,-0.00341
4755.60371,-0.00864
4757.53218,-0.00206
4759.46065,0.01157
4761.38912,0.02070
4763.31759,0.01926
4765.24606,0.01288
4767.17453,0.00628
4769.10299,-0.00387
4771.03146,-0.01363
4772.95993,-0.01159
4774.88840,0.00050
4776.81687,0.00985
4778.74534,0.01643
4780.67381,0.01937
4782.60227,0.01255
4784.53074,0.00693
4786.45921,0.00772
4788.38768,0.00628
4790.31615,0.00362
4792.24462,0.00800
4794.17309,0.01558
4796.10156,0.01444
4798.03002,0.01044
4799.95849,0.01496
4801.88696,0.02489
4803.81543,0.02818
4805.74390,0.01628
4807.67237,-0.00028
4809.60084,-0.00336
4811.52930,0.00747
4813.45777,0.01626
4815.38624,0.01212
4817.31471,0.00195
4819.24318,-0.00387
4821.17165,-0.00481
4823.10012,-0.00730
4825.02859,-0.01252
4826.95705,-0.00886
4828.88552,0.00193
4830.81399,0.00409
4832.74246,0.00240
4834.67093,0.00588
4836.59940,0.01124
4838.52787,0.01624
4840.45633,0.01578
4842.38480,0.00752
4844.31327,0.00182
4846.24174,0.00197
4848.17021,-0.00123
4850.09868,-0.00459
4852.02715,0.00112
4853.95562,0.01105
4855.88408,0.01814
4857.81255,0.02182
4859.74102,0.02095
4861.66949,0.01571
4863.59796,0.00823
4865.52643,-0.00008
4867.45490,-0.00312
4869.38336,0.00115
4871.31183,0.00757
4873.24030,0.01159
4875.16877,0.01104
4877.09724,0.01019
4879.02571,0.00807
4880.95418,-0.00132
4882.88265,-0.01248
4884.81111,-0.01308
4886.73958,-0.00207
4888.66805,0.01406
4890.59652,0.02384
4892.52499,0.01824
4894.45346,0.00912
4896.38193,0.00755
4898.31039,0.00481
4900.23886,-0.00549
4902.16733,-0.01407
4904.09580,-0.01234
4906.02427,-0.00450
4907.95274,-0.00039
4909.88121,0.00027
4911.80967,0.00231
4913.73814,0.00315
4915.66661,0.00334
4917.59508,0.00664
4919.52355,0.01342
4921.45202,0.02208
4923.38049,0.02756
4925.30896,0.02683
4927.23742,0.01944
4929.16589,0.00894
4931.09436,0.00354
4933.02283,0.00856
4934.95130,0.01799
4936.87977,0.01978
4938.80824,0.01501
4940.73670,0.00998
4942.66517,0.00156
4944.59364,-0.00827
4946.52211,-0.01131
4948.45058,-0.00818
4950.37905,-0.00506
4952.30752,0.00203
4954.23599,0.01224
4956.16445,0.01406
4958.09292,0.00874
4960.02139,0.00696
4961.94986,0.00761
4963.87833,0.00573
4965.80680,0.00632
4967.73527,0.00966
4969.66373,0.01217
4971.59220,0.01184
4973.52067,0.00676
4975.44914,0.00100
4977.37761,-0.00052
4979.30608,0.00124
4981.23455,0.00259
4983.16302,0.00521
4985.09148,0.00912
4987.01995,0.00713
4988.94842,0.00207
4990.87689,0.00337
4992.80536,0.00920
4994.73383,0.01353
4996.66230,0.01342
4998.59076,0.01083
5000.51923,0.01162
5002.44770,0.01141
5004.37617,0.00573
5006.30464,0.00022
5008.23311,-0.00155
5010.16158,-0.00010
5012.09005,-0.00055
5014.01851,-0.00274
5015.94698,-0.00277
5017.87545,0.00009
5019.80392,0.00723
5021.73239,0.01394
5023.66086,0.01132
5025.58933,0.00075
5027.51779,-0.00149
5029.44626,0.00896
5031.37473,0.01805
5033.30320,0.01928
5035.23167,0.01796
5037.16014,0.01820
5039.08861,0.01340
5041.01708,0.00337
5042.94554,-0.00054
5044.87401,0.00212
5046.80248,0.00548
5048.73095,0.00969
5050.65942,0.01440
5052.58789,0.01629
5054.51636,0.02008
5056.44482,0.02317
5058.37329,0.01647
5060.30176,0.01151
5062.23023,0.01355
5064.15870,0.01454
5066.08717,0.01756
5068.01564,0.01823
5069.94410,0.01195
5071.87257,0.01241
5073.80104,0.02349
5075.72951,0.02692
5077.65798,0.02003
5079.58645,0.02052
5081.51492,0.02234
5083.44339,0.01404
5085.37185,0.00517
5087.30032,0.00001
5089.22879,0.00307
5091.15726,0.01709
5093.08573,0.02508
5095.01420,0.02325
5096.94267,0.02437
5098.87113,0.02613
5100.79960,0.02173
5102.72807,0.01675
5104.65654,0.01942
5106.58501,0.03067
5108.51348,0.04468
5110.44195,0.04962
5112.37042,0.03444
5114.29888,0.01259
5116.22735,0.00693
5118.15582,0.01030
5120.08429,0.00757
5122.01276,0.00342
5123.94123,0.00344
5125.86970,0.00800
5127.79816,0.01668
5129.72663,0.02249
5131.65510,0.02121
5133.58357,0.02025
5135.51204,0.02258
5137.44051,0.02354
5139.36898,0.02987
5141.29745,0.04497
5143.22591,0.05295
5145.15438,0.04250
5147.08285,0.02887
5149.01132,0.03112
5150.93979,0.03945
5152.86826,0.03843
5154.79673,0.02921
5156.72519,0.01426
5158.65366,0.00218
5160.58213,0.00945
5162.51060,0.03080
5164.43907,0.03744
5166.36754,0.02351
5168.29601,0.01343
5170.22448,0.01294
5172.15294,0.00905
5174.08141,0.01057
5176.00988,0.01933
5177.93835,0.02107
5179.86682,0.02282
5181.79529,0.02823
5183.72376,0.02987
5185.65222,0.02783
5187.58069,0.02724
5189.50916,0.03214
5191.43763,0.03302
5193.36610,0.02636
5195.29457,0.02713
5197.22304,0.03477
5199.15151,0.03800
5201.07997,0.04612
5203.00844,0.06326
5204.93691,0.07445
5206.86538,0.06684
5208.79385,0.04631
5210.72232,0.03298
5212.65079,0.03122
5214.57925,0.02878
5216.50772,0.02542
5218.43619,0.03176
5220.36466,0.03912
5222.29313,0.04164
5224.22160,0.05348
5226.15007,0.06885
5228.07854,0.06376
5230.00700,0.04059
5231.93547,0.02351
5233.86394,0.02087
5235.79241,0.01712
5237.72088,0.01387
5239.64935,0.02572
5241.57782,0.04569
5243.50628,0.05657
5245.43475,0.05444
5247.36322,0.05852
5249.29169,0.07367
5251.22016,0.06751
5253.14863,0.04608
5255.07710,0.04524
5257.00556,0.05453
5258.93403,0.04778
5260.86250,0.03021
5262.79097,0.02465
5264.71944,0.03971
5266.64791,0.05432
5268.57638,0.05400
5270.50485,0.04504
5272.43331,0.03874
5274.36178,0.03218
5276.29025,0.02289
5278.21872,0.02233
5280.14719,0.03275
5282.07566,0.04724
5284.00413,0.05257
5285.93259,0.04359
5287.86106,0.04055
5289.78953,0.05421
5291.71800,0.06905
5293.64647,0.06085
5295.57494,0.03817
5297.50341,0.02927
5299.43188,0.03036
5301.36034,0.02363
5303.28881,0.01973
5305.21728,0.03067
5307.14575,0.04384
5309.07422,0.05205
5311.00269,0.05616
5312.93116,0.05074
5314.85962,0.04318
5316.78809,0.04197
5318.71656,0.03709
5320.64503,0.02320
5322.57350,0.01458
5324.50197,0.01961
5326.43044,0.03052
5328.35891,0.04031
5330.28737,0.05028
5332.21584,0.06429
5334.14431,0.07788
5336.07278,0.08268
5338.00125,0.07334
5339.92972,0.06342
5341.85819,0.06586
5343.78665,0.07269
5345.71512,0.07739
5347.64359,0.07036
5349.57206,0.05724
5351.50053,0.05024
5353.42900,0.04995
5355.35747,0.06045
5357.28594,0.06890
5359.21440,0.06337
5361.14287,0.05773
5363.07134,0.05785
5364.99981,0.05331
5366.92828,0.04937
5368.85675,0.05935
5370.78522,0.07165
5372.71368,0.07018
5374.64215,0.07322
5376.57062,0.08282
5378.49909,0.06838
5380.42756,0.05247
5382.35603,0.05763
5384.28450,0.07430
5386.21297,0.08662
5388.14143,0.07032
5390.06990,0.03655
5391.99837,0.02204
5393.92684,0.03464
5395.85531,0.05087
5397.78378,0.05537
5399.71225,0.05266
5401.64071,0.05531
5403.56918,0.06381
5405.49765,0.07217
5407.42612,0.08694
5409.35459,0.10208
5411.28306,0.10689
5413.21153,0.09835
5415.13999,0.07403
5417.06846,0.05983
5418.99693,0.06015
5420.92540,0.04468
5422.85387,0.01833
5424.78234,0.01265
5426.71081,0.02372
5428.63928,0.03208
5430.56774,0.03821
5432.49621,0.04553
5434.42468,0.05291
5436.35315,0.05987
5438.28162,0.06615
5440.21009,0.06518
5442.13856,0.05367
5444.06702,0.04887
5445.99549,0.05305
5447.92396,0.05649
5449.85243,0.06039
5451.78090,0.06122
5453.70937,0.06109
5455.63784,0.05939
5457.56631,0.04428
5459.49477,0.02960
5461.42324,0.03648
5463.35171,0.04761
5465.28018,0.04455
5467.20865,0.03468
5469.13712,0.02918
5471.06559,0.03074
5472.99405,0.03628
5474.92252,0.05781
5476.85099,0.09493
5478.77946,0.11198
5480.70793,0.10043
5482.63640,0.08436
5484.56487,0.07149
5486.49334,0.05229
5488.42180,0.03999
5490.35027,0.05454
5492.27874,0.08956
5494.20721,0.10472
5496.13568,0.07846
5498.06415,0.04812
5499.99262,0.05280
5501.92108,0.07575
5503.84955,0.08221
5505.77802,0.08253
5507.70649,0.08963
5509.63496,0.08796
5511.56343,0.07318
5513.49190,0.05136
5515.42037,0.04039
5517.34883,0.05963
5519.27730,0.08576
5521.20577,0.09068
5523.13424,0.08661
5525.06271,0.08692
5526.99118,0.08293
5528.91965,0.07098
5530.84811,0.06674
5532.77658,0.07420
5534.70505,0.07832
5536.63352,0.07768
5538.56199,0.07791
5540.49046,0.08339
5542.41893,0.09575
5544.34740,0.10053
5546.27586,0.08650
5548.20433,0.06529
5550.13280,0.04760
5552.06127,0.03008
5553.98974,0.02115
5555.91821,0.02771
5557.84668,0.04660
5559.77514,0.07608
5561.70361,0.09448
5563.63208,0.09460
5565.56055,0.09918
5567.48902,0.10533
5569.41749,0.10662
5571.34596,0.10662
5573.27443,0.09479
5575.20289,0.07227
5577.13136,0.05714
5579.05983,0.06129
5580.98830,0.07388
5582.91677,0.06791
5584.84524,0.04547
5586.77371,0.03556
5588.70217,0.05011
5590.63064,0.07088
5592.55911,0.08526
5594.48758,0.09369
5596.41605,0.09331
5598.34452,0.09059
5600.27299,0.09469
5602.20145,0.10221
5604.12992,0.09702
5606.05839,0.07066
5607.98686,0.04193
5609.91533,0.02685
5611.84380,0.02792
5613.77227,0.04856
5615.70074,0.07469
5617.62920,0.08473
5619.55767,0.08124
5621.48614,0.08486
5623.41461,0.08879
5625.34308,0.07219
5627.27155,0.05187
5629.20002,0.04851
5631.12848,0.05141
5633.05695,0.04913
5634.98542,0.05311
5636.91389,0.07276
5638.84236,0.08389
5640.77083,0.07328
5642.69930,0.05875
5644.62777,0.05226
5646.55623,0.05486
5648.48470,0.05868
5650.41317,0.04846
5652.34164,0.03515
5654.27011,0.04550
5656.19858,0.06635
5658.12705,0.06690
5660.05551,0.05704
5661.98398,0.06061
5663.91245,0.06282
5665.84092,0.05562
5667.76939,0.05701
5669.69786,0.06569
5671.62633,0.07415
5673.55480,0.08130
5675.48326,0.07657
5677.41173,0.05401
5679.34020,0.03503
5681.26867,0.04013
5683.19714,0.05641
5685.12561,0.06728
5687.05408,0.07602
5688.98254,0.07203
5690.91101,0.04815
5692.83948,0.04421
5694.76795,0.07403
5696.69642,0.09160
5698.62489,0.07949
5700.55336,0.06754
5702.48183,0.06576
5704.41029,0.06616
5706.33876,0.06497
5708.26723,0.05518
5710.19570,0.04586
5712.12417,0.05300
5714.05264,0.05867
5715.98111,0.04521
5717.90957,0.03497
5719.83804,0.04991
5721.76651,0.08086
5723.69498,0.09850
5725.62345,0.09554
5727.55192,0.08815
5729.48039,0.07783
5731.40886,0.07070
5733.33732,0.06831
5735.26579,0.06504
5737.19426,0.07223
5739.12273,0.08444
5741.05120,0.09109
5742.97967,0.09969
5744.90814,0.10197
5746.83660,0.08634
5748.76507,0.07500
5750.69354,0.07995
5752.62201,0.07890
5754.55048,0.06613
5756.47895,0.05163
5758.40742,0.05591
5760.33588,0.08186
5762.26435,0.09969
5764.19282,0.10309
5766.12129,0.10539
5768.04976,0.09732
5769.97823,0.07460
5771.90670,0.06237
5773.83517,0.07082
5775.76363,0.08304
5777.69210,0.10031
5779.62057,0.12520
5781.54904,0.12632
5783.47751,0.09605
5785.40598,0.08711
5787.33445,0.11358
5789.26291,0.11752
5791.19138,0.09450
5793.11985,0.09998
5795.04832,0.12896
5796.97679,0.13694
5798.90526,0.12038
5800.83373,0.08986
5802.76220,0.06611
5804.69066,0.07513
5806.61913,0.08901
5808.54760,0.07959
5810.47607,0.08202
5812.40454,0.10426
5814.33301,0.09565
5816.26148,0.06416
5818.18994,0.07292
5820.11841,0.11462
5822.04688,0.11892
5823.97535,0.08593
5825.90382,0.06840
5827.83229,0.07788
5829.76076,0.10532
5831.68923,0.13708
5833.61769,0.14932
5835.54616,0.13038
5837.47463,0.09817
5839.40310,0.07706
5841.33157,0.06852
5843.26004,0.06759
5845.18851,0.08023
5847.11697,0.09446
5849.04544,0.09041
5850.97391,0.08054
5852.90238,0.08839
5854.83085,0.10689
5856.75932,0.11027
5858.68779,0.09795
5860.61626,0.09342
5862.54472,0.09618
5864.47319,0.09261
5866.40166,0.08599
5868.33013,0.08211
5870.25860,0.08632
5872.18707,0.10619
5874.11554,0.12269
5876.04400,0.11466
5877.97247,0.10380
5879.90094,0.09208
5881.82941,0.06843
5883.75788,0.06020
5885.68635,0.07513
5887.61482,0.09518
5889.54329,0.11265
5891.47175,0.12333
5893.40022,0.11456
5895.32869,0.08202
5897.25716,0.05757
5899.18563,0.05947
5901.11410,0.05581
5903.04257,0.04638
5904.97103,0.04962
5906.89950,0.05910
5908.82797,0.08777
5910.75644,0.12241
5912.68491,0.13398
5914.61338,0.12750
5916.54185,0.09550
5918.47032,0.03214
5920.39878,-0.01988
5922.32725,-0.01938
5924.25572,0.01371
5926.18419,0.05311
5928.11266,0.09456
5930.04113,0.10485
5931.96960,0.07082
5933.89806,0.03781
5935.82653,0.03511
5937.75500,0.04436
5939.68347,0.04857
5941.61194,0.05093
5943.54041,0.06223
5945.46888,0.07425
5947.39734,0.06569
5949.32581,0.04754
5951.25428,0.05161
5953.18275,0.06895
5955.11122,0.07245
5957.03969,0.05674
5958.96816,0.03192
5960.89663,0.03538
5962.82509,0.07923
5964.75356,0.10949
5966.68203,0.09793
5968.61050,0.08989
5970.53897,0.10510
5972.46744,0.10466
5974.39591,0.07950
5976.32437,0.05306
5978.25284,0.04276
5980.18131,0.04921
5982.10978,0.06861
5984.03825,0.09317
5985.96672,0.09077
5987.89519,0.07212
5989.82366,0.08816
5991.75212,0.12032
5993.68059,0.13314
5995.60906,0.12584
5997.53753,0.09725
5999.46600,0.08502
6001.39447,0.10769
6003.32294,0.12042
6005.25140,0.11553
6007.17987,0.10101
6009.10834,0.06148
6011.03681,0.02479
6012.96528,0.01908
6014.89375,0.03599
6016.82222,0.06522
6018.75069,0.09775
6020.67915,0.11880
6022.60762,0.12847
6024.53609,0.14268
6026.46456,0.16829
6028.39303,0.18767
6030.32150,0.17399
6032.24997,0.14486
6034.17843,0.13706
6036.10690,0.14915
6038.03537,0.16296
6039.96384,0.16090
6041.89231,0.12970
6043.82078,0.08848
6045.74925,0.06853
6047.67772,0.07394
6049.60618,0.08067
6051.53465,0.07063
6053.46312,0.07373
6055.39159,0.09890
6057.32006,0.09726
6059.24853,0.07301
6061.17700,0.06658
6063.10546,0.06889
6065.03393,0.07254
6066.96240,0.07888
6068.89087,0.07870
6070.81934,0.07727
6072.74781,0.08051
6074.67628,0.07633
6076.60475,0.06778
6078.53321,0.08968
6080.46168,0.12817
6082.39015,0.13549
6084.31862,0.12141
6086.24709,0.10190
6088.17556,0.07309
6090.10403,0.06358
6092.03249,0.08481
6093.96096,0.09411
6095.88943,0.08584
6097.81790,0.09428
6099.74637,0.11157
6101.67484,0.11088
6103.60331,0.08837
6105.53177,0.07197
6107.46024,0.08582
6109.38871,0.10687
6111.31718,0.11663
6113.24565,0.12434
6115.17412,0.11514
6117.10259,0.08658
6119.03106,0.07278
6120.95952,0.06882
6122.88799,0.04627
6124.81646,0.02638
6126.74493,0.02395
6128.67340,0.01883
6130.60187,0.00905
6132.53034,0.00927
6134.45880,0.02805
6136.38727,0.05617
6138.31574,0.06844
6140.24421,0.06398
6142.17268,0.05357
6144.10115,0.03654
6146.02962,0.03545
6147.95809,0.06864
6149.88655,0.10338
6151.81502,0.10671
6153.74349,0.10328
6155.67196,0.11936
6157.60043,0.12944
6159.52890,0.10512
6161.45737,0.07327
6163.38583,0.06331
6165.31430,0.07040
6167.24277,0.08802
6169.17124,0.07830
6171.09971,0.03128
6173.02818,0.01914
6174.95665,0.06281
6176.88512,0.09928
6178.81358,0.09261
6180.74205,0.07108
6182.67052,0.06574
6184.59899,0.06441
6186.52746,0.06146
6188.45593,0.07458
6190.38440,0.10035
6192.31286,0.12088
6194.24133,0.11845
6196.16980,0.09079
6198.09827,0.06699
6200.02674,0.07686
6201.95521,0.10089
6203.88368,0.09106
6205.81215,0.05061
6207.74061,0.02602
6209.66908,0.03722
6211.59755,0.06017
6213.52602,0.07556
6215.45449,0.08920
6217.38296,0.07795
6219.31143,0.04469
6221.23989,0.02924
6223.16836,0.04018
6225.09683,0.06095
6227.02530,0.07051
6228.95377,0.05850
6230.88224,0.04313
6232.81071,0.04240
6234.73918,0.05321
6236.66764,0.06669
6238.59611,0.06820
6240.52458,0.06157
6242.45305,0.07905
6244.38152,0.11169
6246.30999,0.10244
6248.23846,0.05912
6250.16692,0.04722
6252.09539,0.06740
6254.02386,0.06844
6255.95233,0.04841
6257.88080,0.05123
6259.80927,0.08338
6261.73774,0.10696
6263.66621,0.10801
6265.59467,0.10913
6267.52314,0.13503
6269.45161,0.14631
6271.38008,0.11285
6273.30855,0.07841
6275.23702,0.08526
6277.16549,0.11563
6279.09395,0.11070
6281.02242,0.07388
6282.95089,0.06414
6284.87936,0.06141
6286.80783,0.04300
6288.73630,0.04101
6290.66477,0.04148
6292.59323,0.01798
6294.52170,-0.02015
6296.45017,-0.03546
6298.37864,0.01297
6300.30711,0.08117
6302.23558,0.08968
6304.16405,0.08748
6306.09252,0.14013
6308.02098,0.19004
6309.94945,0.19031
6311.87792,0.17306
6313.80639,0.15987
6315.73486,0.13551
6317.66333,0.09705
6319.59180,0.05555
6321.52026,0.02061
6323.44873,0.02205
6325.37720,0.05227
6327.30567,0.06580
6329.23414,0.05385
6331.16261,0.03524
6333.09108,0.04760
6335.01955,0.08752
6336.94801,0.09651
6338.87648,0.09428
6340.80495,0.11645
6342.73342,0.13395
6344.66189,0.13846
6346.59036,0.13495
6348.51883,0.13096
6350.44729,0.12813
6352.37576,0.11914
6354.30423,0.11670
6356.23270,0.10251
6358.16117,0.06054
6360.08964,0.02421
6362.01811,0.01482
6363.94658,0.01356
6365.87504,0.00255
6367.80351,-0.01399
6369.73198,-0.01120
6371.66045,0.01000
6373.58892,0.01848
6375.51739,0.03877
6377.44586,0.07914
6379.37432,0.08787
6381.30279,0.08592
6383.23126,0.10614
6385.15973,0.08477
6387.08820,0.05196
6389.01667,0.09672
6390.94514,0.14262
6392.87361,0.09488
6394.80207,0.04192
6396.73054,0.04207
6398.65901,0.05405
6400.58748,0.07702
6402.51595,0.08918
6404.44442,0.08642
6406.37289,0.10486
6408.30135,0.10086
6410.22982,0.07662
6412.15829,0.10066
6414.08676,0.11510
6416.01523,0.08312
6417.94370,0.06613
6419.87217,0.06789
6421.80064,0.04129
6423.72910,0.01924
6425.65757,0.04176
6427.58604,0.08617
6429.51451,0.12921
6431.44298,0.11898
6433.37145,0.04221
6435.29992,-0.01046
6437.22838,0.01006
6439.15685,0.04461
6441.08532,0.04466
6443.01379,0.06769
6444.94226,0.10688
6446.87073,0.08476
6448.79920,0.04667
6450.72766,0.06546
6452.65613,0.08548
6454.58460,0.04181
6456.51307,-0.01281
6458.44154,-0.01871
6460.37001,-0.00215
6462.29848,0.01119
6464.22695,0.02284
6466.15541,0.01935
6468.08388,0.00435
6470.01235,0.01471
6471.94082,0.03456
6473.86929,0.02238
6475.79776,0.01808
6477.72623,0.03661
6479.65469,0.00552
6481.58316,-0.02429
6483.51163,0.04468
6485.44010,0.11412
6487.36857,0.10015
6489.29704,0.06746
6491.22551,0.07764
6493.15398,0.10885
6495.08244,0.12043
6497.01091,0.10995
6498.93938,0.10653
6500.86785,0.12279
6502.79632,0.12965
6504.72479,0.10541
6506.65326,0.06195
6508.58172,0.05035
6510.51019,0.09180
6512.43866,0.09138
6514.36713,0.01149
6516.29560,-0.03822
6518.22407,-0.01091
6520.15254,0.02581
6522.08101,0.02887
6524.00947,0.00624
6525.93794,-0.00060
6527.86641,0.01389
6529.79488,0.00748
6531.72335,0.00786
6533.65182,0.05124
6535.58029,0.08904
6537.50875,0.08757
6539.43722,0.07219
6541.36569,0.07193
6543.29416,0.08028
6545.22263,0.07804
6547.15110,0.07792
6549.07957,0.09179
6551.00804,0.11009
6552.93650,0.11137
6554.86497,0.06952
6556.79344,0.01758
6558.72191,0.01774
6560.65038,0.03462
6562.57885,0.02782
6564.50732,0.01802
6566.43578,-0.00801
6568.36425,-0.02511
6570.29272,0.00236
6572.22119,0.04518
6574.14966,0.06860
6576.07813,0.04915
6578.00660,0.03971
6579.93507,0.09750
6581.86353,0.13676
6583.79200,0.11557
6585.72047,0.10454
6587.64894,0.11262
6589.57741,0.11885
6591.50588,0.11550
6593.43435,0.11150
6595.36281,0.11175
6597.29128,0.10322
6599.21975,0.10320
6601.14822,0.11234
6603.07669,0.14044
6605.00516,0.18528
6606.93363,0.18010
6608.86210,0.12730
6610.79056,0.08872
6612.71903,0.07468
6614.64750,0.06368
6616.57597,0.02871
6618.50444,-0.00319
6620.43291,0.01567
6622.36138,0.05389
6624.28984,0.04461
6626.21831,0.01350
6628.14678,0.03844
6630.07525,0.09298
6632.00372,0.09073
6633.93219,0.04545
6635.86066,0.02287
6637.78912,0.01424
6639.71759,-0.02645
6641.64606,-0.03573
6643.57453,0.04940
6645.50300,0.16288
6647.43147,0.19120
6649.35994,0.12082
6651.28841,0.05913
6653.21687,0.07632
6655.14534,0.13097
6657.07381,0.15486
6659.00228,0.11190
6660.93075,0.02964
6662.85922,-0.01855
6664.78769,-0.00452
6666.71615,0.03639
6668.64462,0.06157
6670.57309,0.07519
6672.50156,0.07051
6674.43003,0.02876
6676.35850,-0.00522
6678.28697,-0.02240
6680.21544,-0.05211
6682.14390,-0.11344
6684.07237,-0.17413
6686.00084,-0.14883
6687.92931,-0.04590
6689.85778,0.03576
6691.78625,0.06266
6693.71472,0.05870
6695.64318,0.02690
6697.57165,0.00527
6699.50012,0.04610
6701.42859,0.08762
6703.35706,0.08846
6705.28553,0.11820
6707.21400,0.14678
6709.14247,0.08824
6711.07093,0.00825
6712.99940,0.00146
6714.92787,0.04714
6716.85634,0.06461
6718.78481,0.03585
6720.71328,-0.03150
6722.64175,-0.09047
6724.57021,-0.04434
6726.49868,0.05365
6728.42715,0.09889
6730.35562,0.08898
6732.28409,0.04342
6734.21256,-0.00324
6736.14103,0.01461
6738.06950,0.07444
6739.99796,0.08518
6741.92643,0.03169
6743.85490,-0.02034
6745.78337,-0.04098
6747.71184,-0.00815
6749.64031,0.07433
6751.56878,0.13389
6753.49724,0.14254
6755.42571,0.10896
6757.35418,0.07134
6759.28265,0.07261
6761.21112,0.06985
6763.13959,0.03778
6765.06806,0.00390
6766.99653,-0.02983
6768.92499,-0.03946
6770.85346,-0.00231
6772.78193,0.04680
6774.71040,0.07928
6776.63887,0.10378
6778.56734,0.09408
6780.49581,0.05461
6782.42427,0.03247
6784.35274,0.03233
6786.28121,0.06216
6788.20968,0.12381
6790.13815,0.16334
6792.06662,0.14483
6793.99509,0.11413
6795.92355,0.09935
6797.85202,0.10515
6799.78049,0.11923
6801.70896,0.11070
6803.63743,0.10589
6805.56590,0.09991
6807.49437,0.05359
6809.42284,0.00442
6811.35130,-0.02909
6813.27977,-0.07132
6815.20824,-0.08530
6817.13671,-0.00736
6819.06518,0.08389
6820.99365,0.06535
6822.92212,-0.02553
6824.85058,-0.00742
6826.77905,0.08751
6828.70752,0.10600
6830.63599,0.03233
6832.56446,-0.03319
6834.49293,-0.02850
6836.42140,0.03558
6838.34987,0.07761
6840.27833,0.07810
6842.20680,0.07755
6844.13527,0.07546
6846.06374,0.07204
6847.99221,0.08036
6849.92068,0.08476
6851.84915,0.08798
6853.77761,0.09530
6855.70608,0.09442
6857.63455,0.10140
6859.56302,0.10129
6861.49149,0.05693
6863.41996,0.00556
6865.34843,-0.02202
6867.27690,-0.04299
6869.20536,-0.03322
6871.13383,0.01186
6873.06230,0.03721
6874.99077,0.03554
6876.91924,0.06164
6878.84771,0.09704
6880.77618,0.08859
6882.70464,0.05961
6884.63311,0.05641
6886.56158,0.07234
6888.49005,0.07838
6890.41852,0.08866
6892.34699,0.10058
6894.27546,0.05671
6896.20393,-0.03051
6898.13239,-0.06133
6900.06086,-0.02001
6901.98933,0.01308
6903.91780,0.03351
6905.84627,0.05693
6907.77474,0.05794
6909.70321,0.04912
6911.63167,0.04994
6913.56014,0.04167
6915.48861,0.03124
6917.41708,0.03939
6919.34555,0.07631
6921.27402,0.13201
6923.20249,0.11795
6925.13096,0.03754
6927.05942,0.00317
6928.98789,0.04957
6930.91636,0.11292
6932.84483,0.12282
6934.77330,0.09003
6936.70177,0.05284
6938.63024,0.02796
6940.55870,0.00330
6942.48717,-0.08185
6944.41564,-0.15912
6946.34411,-0.12705
6948.27258,-0.06317
6950.20105,-0.06184
6952.12952,-0.04577
6954.05799,0.06507
6955.98645,0.16924
6957.91492,0.15227
6959.84339,0.08740
6961.77186,0.05099
6963.70033,0.05458
6965.62880,0.05335
6967.55727,0.03352
6969.48573,0.05699
6971.41420,0.12887
6973.34267,0.18548
6975.27114,0.20546
6977.19961,0.21482
6979.12808,0.21728
6981.05655,0.16264
6982.98501,0.07044
6984.91348,-0.00127
6986.84195,-0.07098
6988.77042,-0.13170
6990.69889,-0.13908
6992.62736,-0.12264
6994.55583,-0.12088
6996.48430,-0.15057
6998.41276,-0.16940
7000.34123,-0.04271
7002.26970,0.11329
7004.19817,0.10262
7006.12664,0.02464
7008.05511,-0.01969
7009.98358,-0.03688
7011.91204,-0.01265
7013.84051,0.03358
7015.76898,0.04877
7017.69745,0.03512
7019.62592,0.04618
7021.55439,0.07906
7023.48286,0.06370
7025.41133,0.00624
7027.33979,-0.01008
7029.26826,0.01774
7031.19673,0.02972
7033.12520,0.04834
7035.05367,0.02660
7036.98214,-0.05958
7038.91061,-0.06347
7040.83907,0.02057
7042.76754,0.05820
7044.69601,0.00834
7046.62448,-0.09343
7048.55295,-0.21912
7050.48142,-0.24288
7052.40989,-0.14595
7054.33836,-0.10299
7056.26682,-0.17786
7058.19529,-0.18428
7060.12376,-0.03760
7062.05223,0.08830
7063.98070,0.07130
7065.90917,0.02386
7067.83764,0.06916
7069.76610,0.18362
7071.69457,0.22070
7073.62304,0.11722
7075.55151,0.07173
7077.47998,0.16673
7079.40845,0.27069
7081.33692,0.22950
7083.26539,0.11944
7085.19385,0.09888
7087.12232,0.15505
7089.05079,0.18958
7090.97926,0.19125
7092.90773,0.23473
7094.83620,0.25952
7096.76467,0.18034
7098.69313,0.05052
7100.62160,0.00231
7102.55007,0.05035
7104.47854,0.09602
7106.40701,0.05139
7108.33548,-0.01999
7110.26395,0.01696
7112.19242,0.13080
7114.12088,0.18642
7116.04935,0.14402
7117.97782,0.08833
7119.90629,0.10291
7121.83476,0.07334
7123.76323,-0.00132
7125.69170,0.01626
7127.62016,0.09849
7129.54863,0.11316
7131.47710,0.05274
7133.40557,-0.00207
7135.33404,-0.02875
7137.26251,-0.10395
7139.19098,-0.23065
7141.11944,-0.24812
7143.04791,-0.14600
7144.97638,-0.07638
7146.90485,-0.06801
7148.83332,-0.05562
7150.76179,-0.01918
7152.69026,0.02405
7154.61873,0.07150
7156.54719,0.08759
7158.47566,0.04612
7160.40413,-0.00168
7162.33260,0.00088
7164.26107,0.06866
7166.18954,0.14175
7168.11801,0.17599
7170.04647,0.20627
7171.97494,0.23110
7173.90341,0.20611
7175.83188,0.07393
7177.76035,-0.09042
7179.68882,-0.14816
7181.61729,-0.13559
7183.54576,-0.09665
7185.47422,0.00215
7187.40269,0.11663
7189.33116,0.18471
7191.25963,0.17236
7193.18810,0.07940
7195.11657,-0.01496
7197.04504,-0.09272
7198.97350,-0.15929
7200.90197,-0.16675
7202.83044,-0.12348
7204.75891,-0.05075
7206.68738,0.00747
7208.61585,-0.04102
7210.54432,-0.13769
7212.47279,-0.13375
7214.40125,-0.05394
7216.32972,-0.05921
7218.25819,-0.11110
7220.18666,-0.07051
7222.11513,0.00162
7224.04360,0.14387
7225.97207,0.31511
7227.90053,0.31379
7229.82900,0.22089
7231.75747,0.22501
7233.68594,0.22733
7235.61441,0.20764
7237.54288,0.21523
7239.47135,0.14251
7241.39982,0.02311
7243.32828,0.01532
7245.25675,0.06350
7247.18522,0.04002
7249.11369,-0.01656
7251.04216,-0.03291
7252.97063,0.00595
7254.89910,0.08599
7256.82756,0.12345
7258.75603,0.04366
7260.68450,-0.09432
7262.61297,-0.06629
7264.54144,0.08590
7266.46991,0.09115
7268.39838,0.01615
7270.32685,0.05353
7272.25531,0.16401
7274.18378,0.17058
7276.11225,0.11476
7278.04072,0.06503
7279.96919,0.03533
7281.89766,0.02432
7283.82613,-0.00424
7285.75459,0.01159
7287.68306,0.09981
7289.61153,0.13353
7291.54000,0.05945
7293.46847,-0.01399
7295.39694,0.00722
7297.32541,0.09858
7299.25387,0.13376
7301.18234,0.07432
7303.11081,-0.00131
7305.03928,-0.01240
7306.96775,0.00702
7308.89622,0.02093
7310.82469,0.07405
7312.75316,0.06288
7314.68162,-0.06654
7316.61009,-0.13925
7318.53856,-0.06559
7320.46703,-0.04126
7322.39550,-0.09524
7324.32397,-0.10900
7326.25244,-0.07475
7328.18090,-0.07833
7330.10937,-0.09669
7332.03784,-0.08125
7333.96631,-0.04205
7335.89478,0.08765
7337.82325,0.28270
7339.75172,0.33141
7341.68019,0.17870
7343.60865,0.12568
7345.53712,0.13734
7347.46559,0.11851
7349.39406,0.10751
7351.32253,0.13228
7353.25100,0.14502
7355.17947,0.13538
7357.10793,0.15011
7359.03640,0.15656
7360.96487,0.08511
7362.89334,0.06913
7364.82181,0.12850
7366.75028,0.13853
7368.67875,0.10842
7370.60722,0.14068
7372.53568,0.25521
7374.46415,0.34056
7376.39262,0.26838
7378.32109,0.14043
7380.24956,0.03198
7382.17803,0.01680
7384.10650,0.09808
7386.03496,0.14821
7387.96343,0.14158
7389.89190,0.12096
7391.82037,0.01691
7393.74884,-0.15690
7395.67731,-0.19000
7397.60578,-0.07904
7399.53425,-0.01118
7401.46271,0.00281
7403.39118,0.04177
7405.31965,0.13059
7407.24812,0.20733
7409.17659,0.22031
7411.10506,0.17386
7413.03353,0.11461
7414.96199,0.08052
7416.89046,0.07170
7418.81893,0.09087
7420.74740,0.11742
7422.67587,0.07161
7424.60434,0.01204
7426.53281,0.01100
7428.46128,0.04258
7430.38974,0.06251
7432.31821,0.05782
7434.24668,0.08384
7436.17515,0.16521
7438.10362,0.24442
7440.03209,0.26709
7441.96056,0.25250
7443.88902,0.22731
7445.81749,0.13673
7447.74596,0.04202
7449.67443,0.07087
7451.60290,0.12334
7453.53137,0.06801
7455.45984,0.00403
7457.38831,-0.03854
7459.31677,-0.07143
7461.24524,-0.03525
7463.17371,0.03874
7465.10218,0.05572
7467.03065,0.01083
7468.95912,-0.06475
7470.88759,-0.14724
7472.81605,-0.14076
7474.74452,0.01092
7476.67299,0.22777
7478.60146,0.34708
7480.52993,0.26478
7482.45840,0.07818
7484.38687,-0.03748
7486.31533,-0.05464
7488.24380,0.04118
7490.17227,0.20641
7492.10074,0.23778
7494.02921,0.16071
7495.95768,0.14983
7497.88615,0.21591
