399.19301,0.39925
401.12148,-0.02011
403.04995,0.03153
404.97842,0.23247
406.90689,0.40229
408.83536,0.34312
410.76382,0.10952
412.69229,-0.03303
414.62076,-0.04670
416.54923,0.00112
418.47770,0.08936
420.40617,0.10531
422.33464,0.05111
424.26311,0.00890
426.19157,-0.00415
428.12004,0.02224
430.04851,0.04148
431.97698,0.00771
433.90545,0.02077
435.83392,0.08308
437.76239,0.09971
439.69085,0.06292
441.61932,0.04407
443.54779,0.08815
445.47626,0.12513
447.40473,0.11187
449.33320,0.11034
451.26167,0.12475
453.19013,0.08601
455.11860,0.06901
457.04707,0.14660
458.97554,0.16713
460.90401,0.10123
462.83248,0.08837
464.76095,0.11728
466.68942,0.09364
468.61788,0.01650
470.54635,-0.04153
472.47482,-0.04359
474.40329,0.00706
476.33176,0.08627
478.26023,0.10904
480.18870,0.06320
482.11716,0.02160
484.04563,0.03288
485.97410,0.07765
487.90257,0.12318
489.83104,0.11814
491.75951,0.07084
493.68798,0.05430
495.61645,0.07004
497.54491,0.08689
499.47338,0.10180
501.40185,0.09743
503.33032,0.07963
505.25879,0.08142
507.18726,0.08977
509.11573,0.07961
511.04419,0.06236
512.97266,0.05408
514.90113,0.06616
516.82960,0.08241
518.75807,0.08477
520.68654,0.09440
522.61501,0.11266
524.54348,0.12046
526.47194,0.11766
528.40041,0.12121
530.32888,0.12862
532.25735,0.12254
534.18582,0.09580
536.11429,0.06693
538.04276,0.04639
539.97122,0.02819
541.89969,0.02353
543.82816,0.03374
545.75663,0.05538
547.68510,0.08737
549.61357,0.05730
551.54204,-0.27945
553.47051,-0.69256
555.39897,-0.53988
557.32744,-0.09200
559.25591,0.07125
561.18438,0.08187
563.11285,0.11504
565.04132,0.12097
566.96979,0.10054
568.89825,0.08337
570.82672,0.07984
572.75519,0.07813
574.68366,0.06696
576.61213,0.05194
578.54060,0.06599
580.46907,0.08870
582.39754,0.08519
584.32600,0.06912
586.25447,0.06278
588.18294,0.07474
590.11141,0.08996
592.03988,0.09495
593.96835,0.10455
595.89682,0.12405
597.82528,0.12877
599.75375,0.11290
601.68222,0.09274
603.61069,0.09248
605.53916,0.11462
607.46763,0.13272
609.39610,0.13491
611.32456,0.12222
613.25303,0.10667
615.18150,0.10959
617.10997,0.12814
619.03844,0.12921
620.96691,0.10301
622.89538,0.07859
624.82385,0.08388
626.75231,0.10578
628.68078,0.10914
630.60925,0.10004
632.53772,0.09354
634.46619,0.08247
636.39466,0.07410
638.32313,0.07972
640.25159,0.09915
642.18006,0.12255
644.10853,0.13160
646.03700,0.12441
647.96547,0.11448
649.89394,0.10829
651.82241,0.11368
653.75088,0.12706
655.67934,0.12665
657.60781,0.10679
659.53628,0.09072
661.46475,0.09399
663.39322,0.10515
665.32169,0.10980
667.25016,0.09922
669.17862,0.08120
671.10709,0.08588
673.03556,0.10339
674.96403,0.11308
676.89250,0.11071
678.82097,0.10905
680.74944,0.11298
682.67791,0.11802
684.60637,0.11069
686.53484,0.09386
688.46331,0.09310
690.39178,0.11409
692.32025,0.13790
694.24872,0.14975
696.17719,0.14493
698.10565,0.12813
700.03412,0.11269
701.96259,0.10637
703.89106,0.10902
705.81953,0.11567
707.74800,0.12334
709.67647,0.12961
711.60494,0.12788
713.53340,0.11872
715.46187,0.11618
717.39034,0.12568
719.31881,0.13247
721.24728,0.13077
723.17575,0.12645
725.10422,0.11917
727.03268,0.11328
728.96115,0.11434
730.88962,0.11598
732.81809,0.11587
734.74656,0.11630
736.67503,0.11162
738.60350,0.10950
740.53197,0.11799
742.46043,0.12275
744.38890,0.12025
746.31737,0.12132
748.24584,0.12434
750.17431,0.12643
752.10278,0.13141
754.03125,0.13827
755.95971,0.13975
757.88818,0.13107
759.81665,0.12245
761.74512,0.12115
763.67359,0.12223
765.60206,0.12423
767.53053,0.12505
769.45900,0.12575
771.38746,0.12409
773.31593,0.11508
775.24440,0.11373
777.17287,0.12624
779.10134,0.13335
781.02981,0.12871
782.95828,0.12332
784.88674,0.12444
786.81521,0.12516
788.74368,0.11803
790.67215,0.11226
792.60062,0.11343
794.52909,0.11468
796.45756,0.11358
798.38602,0.11671
800.31449,0.12159
802.24296,0.11455
804.17143,0.10454
806.09990,0.10910
808.02837,0.12168
809.95684,0.13116
811.88531,0.13245
813.81377,0.12599
815.74224,0.12156
817.67071,0.12075
819.59918,0.11604
821.52765,0.11043
823.45612,0.11310
825.38459,0.11792
827.31305,0.11378
829.24152,0.10967
831.16999,0.11298
833.09846,0.11815
835.02693,0.12235
836.95540,0.11951
838.88387,0.10934
840.81234,0.10488
842.74080,0.10682
844.66927,0.10567
846.59774,0.10610
848.52621,0.11720
850.45468,0.13248
852.38315,0.14044
854.31162,0.14244
856.24008,0.14207
858.16855,0.13236
860.09702,0.11566
862.02549,0.10822
863.95396,0.11345
865.88243,0.12313
867.81090,0.12723
869.73937,0.12207
871.66783,0.12310
873.59630,0.13631
875.52477,0.14461
877.45324,0.14199
879.38171,0.13819
881.31018,0.13807
883.23865,0.13686
885.16711,0.13150
887.09558,0.12762
889.02405,0.12812
890.95252,0.12955
892.88099,0.13148
894.80946,0.13398
896.73793,0.13278
898.66640,0.12811
900.59486,0.12826
902.52333,0.13775
904.45180,0.14754
906.38027,0.14662
908.30874,0.14006
910.23721,0.13606
912.16568,0.13312
914.09414,0.13177
916.02261,0.13070
917.95108,0.12763
919.87955,0.13020
921.80802,0.13928
923.73649,0.14444
925.66496,0.14336
927.59343,0.13934
929.52189,0.13484
931.45036,0.13501
933.37883,0.13958
935.30730,0.14291
937.23577,0.14529
939.16424,0.14690
941.09271,0.14182
943.02117,0.13349
944.94964,0.13345
946.87811,0.14047
948.80658,0.14562
950.73505,0.14384
952.66352,0.13687
954.59199,0.13256
956.52045,0.13208
958.44892,0.13264
960.37739,0.13316
962.30586,0.13155
964.23433,0.13083
966.16280,0.13236
968.09127,0.13183
970.01974,0.13280
971.94820,0.14110
973.87667,0.14987
975.80514,0.14844
977.73361,0.14057
979.66208,0.13787
981.59055,0.14034
983.51902,0.14102
985.44748,0.14154
987.37595,0.14474
989.30442,0.14500
991.23289,0.14163
993.16136,0.13873
995.08983,0.13760
997.01830,0.14258
998.94677,0.15044
1000.87523,0.15130
1002.80370,0.14468
1004.73217,0.13810
1006.66064,0.13696
1008.58911,0.14257
1010.51758,0.14935
1012.44605,0.14987
1014.37451,0.15046
1016.30298,0.15579
1018.23145,0.16053
1020.15992,0.16030
1022.08839,0.15462
1024.01686,0.14805
1025.94533,0.15489
1027.87380,0.18414
1029.80226,0.19530
1031.73073,0.16621
1033.65920,0.14354
1035.58767,0.14374
1037.51614,0.15012
1039.44461,0.15549
1041.37308,0.15375
1043.30154,0.14669
1045.23001,0.14118
1047.15848,0.14274
1049.08695,0.14932
1051.01542,0.15434
1052.94389,0.15570
1054.87236,0.15575
1056.80083,0.15700
1058.72929,0.15568
1060.65776,0.15228
1062.58623,0.15434
1064.51470,0.15830
1066.44317,0.15398
1068.37164,0.14512
1070.30011,0.14325
1072.22857,0.14999
1074.15704,0.15696
1076.08551,0.15845
1078.01398,0.15346
1079.94245,0.14341
1081.87092,0.13456
1083.79939,0.13342
1085.72786,0.14017
1087.65632,0.14795
1089.58479,0.14815
1091.51326,0.14129
1093.44173,0.13863
1095.37020,0.14170
1097.29867,0.14379
1099.22714,0.14764
1101.15560,0.15296
1103.08407,0.15435
1105.01254,0.15418
1106.94101,0.15671
1108.86948,0.16150
1110.79795,0.16412
1112.72642,0.16063
1114.65489,0.15514
1116.58335,0.15288
1118.51182,0.15136
1120.44029,0.14942
1122.36876,0.14829
1124.29723,0.14849
1126.22570,0.15367
1128.15417,0.16009
1130.08263,0.15675
1132.01110,0.14834
1133.93957,0.14674
1135.86804,0.15043
1137.79651,0.15273
1139.72498,0.15258
1141.65345,0.15420
1143.58191,0.15726
1145.51038,0.15838
1147.43885,0.15865
1149.36732,0.15721
1151.29579,0.15588
1153.22426,0.15806
1155.15273,0.15994
1157.08120,0.16048
1159.00966,0.16322
1160.93813,0.16424
1162.86660,0.16025
1164.79507,0.15871
1166.72354,0.16252
1168.65201,0.16473
1170.58048,0.16433
1172.50894,0.16534
1174.43741,0.16561
1176.36588,0.16277
1178.29435,0.15783
1180.22282,0.15408
1182.15129,0.15464
1184.07976,0.15277
1186.00823,0.14565
1187.93669,0.14536
1189.86516,0.15599
1191.79363,0.16530
1193.72210,0.16563
1195.65057,0.16221
1197.57904,0.15916
1199.50751,0.15583
1201.43597,0.15313
1203.36444,0.15234
1205.29291,0.15336
1207.22138,0.15517
1209.14985,0.15719
1211.07832,0.15949
1213.00679,0.16251
1214.93526,0.16615
1216.86372,0.16714
1218.79219,0.16428
1220.72066,0.16224
1222.64913,0.16264
1224.57760,0.16270
1226.50607,0.16134
1228.43454,0.15922
1230.36300,0.15898
1232.29147,0.16087
1234.21994,0.16184
1236.14841,0.16249
1238.07688,0.16378
1240.00535,0.16419
1241.93382,0.16431
1243.86229,0.16430
1245.79075,0.16278
1247.71922,0.16171
1249.64769,0.16222
1251.57616,0.16204
1253.50463,0.16174
1255.43310,0.16310
1257.36157,0.16411
1259.29003,0.16299
1261.21850,0.16075
1263.14697,0.15876
1265.07544,0.15811
1267.00391,0.15859
1268.93238,0.16136
1270.86085,0.16710
1272.78932,0.17093
1274.71778,0.17111
1276.64625,0.17153
1278.57472,0.17224
1280.50319,0.17008
1282.43166,0.16697
1284.36013,0.16753
1286.28860,0.17078
1288.21706,0.17271
1290.14553,0.17292
1292.07400,0.17296
1294.00247,0.17167
1295.93094,0.16789
1297.85941,0.16417
1299.78788,0.16284
1301.71634,0.16274
1303.64481,0.16181
1305.57328,0.16137
1307.50175,0.16449
1309.43022,0.16941
1311.35869,0.17400
1313.28716,0.17859
1315.21563,0.18022
1317.14409,0.17900
1319.07256,0.17724
1321.00103,0.17345
1322.92950,0.16870
1324.85797,0.16550
1326.78644,0.16491
1328.71491,0.16618
1330.64337,0.16546
1332.57184,0.16193
1334.50031,0.16088
1336.42878,0.16760
1338.35725,0.17903
1340.28572,0.18169
1342.21419,0.17518
1344.14266,0.17107
1346.07112,0.16892
1347.99959,0.16684
1349.92806,0.16713
1351.85653,0.16866
1353.78500,0.16850
1355.71347,0.16606
1357.64194,0.16558
1359.57040,0.17057
1361.49887,0.17878
1363.42734,0.18217
1365.35581,0.17914
1367.28428,0.17620
1369.21275,0.17396
1371.14122,0.17547
1373.06969,0.18386
1374.99815,0.18949
1376.92662,0.18622
1378.85509,0.18138
1380.78356,0.17786
1382.71203,0.17682
1384.64050,0.18052
1386.56897,0.18548
1388.49743,0.18512
1390.42590,0.18334
1392.35437,0.18882
1394.28284,0.20011
1396.21131,0.20456
1398.13978,0.19953
1400.06825,0.19022
1401.99672,0.18152
1403.92518,0.17995
1405.85365,0.18232
1407.78212,0.18028
1409.71059,0.17775
1411.63906,0.17874
1413.56753,0.18019
1415.49600,0.18594
1417.42446,0.19786
1419.35293,0.19875
1421.28140,0.19078
1423.20987,0.19029
1425.13834,0.18846
1427.06681,0.18391
1428.99528,0.18405
1430.92375,0.18562
1432.85221,0.18680
1434.78068,0.19162
1436.70915,0.19285
1438.63762,0.18426
1440.56609,0.17918
1442.49456,0.18048
1444.42303,0.18448
1446.35149,0.19124
1448.27996,0.19665
1450.20843,0.19439
1452.13690,0.19265
1454.06537,0.20291
1455.99384,0.22915
1457.92231,0.23974
1459.85077,0.21390
1461.77924,0.19695
1463.70771,0.19615
1465.63618,0.19788
1467.56465,0.19591
1469.49312,0.20203
1471.42159,0.22092
1473.35006,0.23451
1475.27852,0.22363
1477.20699,0.20494
1479.13546,0.19276
1481.06393,0.18912
1482.99240,0.19050
1484.92087,0.19811
1486.84934,0.21308
1488.77780,0.22522
1490.70627,0.21678
1492.63474,0.20348
1494.56321,0.20714
1496.49168,0.22171
1498.42015,0.22018
1500.34862,0.20574
1502.27709,0.20262
1504.20555,0.22233
1506.13402,0.27034
1508.06249,0.27791
1509.99096,0.23714
1511.91943,0.21304
1513.84790,0.21083
1515.77637,0.22502
1517.70483,0.23922
1519.63330,0.25055
1521.56177,0.25984
1523.49024,0.24922
1525.41871,0.23501
1527.34718,0.22274
1529.27565,0.21108
1531.20412,0.21172
1533.13258,0.22247
1535.06105,0.22602
1536.98952,0.23486
1538.91799,0.26972
1540.84646,0.29752
1542.77493,0.26945
1544.70340,0.23526
1546.63186,0.21488
1548.56033,0.20999
1550.48880,0.21153
1552.41727,0.21484
1554.34574,0.22508
1556.27421,0.24607
1558.20268,0.27500
1560.13115,0.25106
1562.05961,0.21559
1563.98808,0.20632
1565.91655,0.20718
1567.84502,0.21154
1569.77349,0.21300
1571.70196,0.20573
1573.63043,0.20485
1575.55889,0.21173
1577.48736,0.20758
1579.41583,0.19523
1581.34430,0.18721
1583.27277,0.18256
1585.20124,0.17958
1587.12971,0.18032
1589.05818,0.18444
1590.98664,0.18766
1592.91511,0.18858
1594.84358,0.18761
1596.77205,0.18501
1598.70052,0.18428
1600.62899,0.18661
1602.55746,0.18951
1604.48592,0.19186
1606.41439,0.19417
1608.34286,0.19626
1610.27133,0.19632
1612.19980,0.19727
1614.12827,0.20709
1616.05674,0.22226
1617.98521,0.21787
1619.91367,0.20593
1621.84214,0.20676
1623.77061,0.21024
1625.69908,0.20685
1627.62755,0.20300
1629.55602,0.19912
1631.48449,0.19833
1633.41295,0.21048
1635.34142,0.23338
1637.26989,0.23032
1639.19836,0.21187
1641.12683,0.20432
1643.05530,0.20996
1644.98377,0.23116
1646.91223,0.25442
1648.84070,0.24895
1650.76917,0.24708
1652.69764,0.26552
1654.62611,0.24825
1656.55458,0.21658
1658.48305,0.20542
1660.41152,0.21061
1662.33998,0.21998
1664.26845,0.21634
1666.19692,0.21093
1668.12539,0.22019
1670.05386,0.23199
1671.98233,0.22700
1673.91080,0.22056
1675.83926,0.21483
1677.76773,0.21060
1679.69620,0.21636
1681.62467,0.23347
1683.55314,0.25626
1685.48161,0.25070
1687.41008,0.22954
1689.33855,0.21741
1691.26701,0.20923
1693.19548,0.20959
1695.12395,0.22620
1697.05242,0.24848
1698.98089,0.25728
1700.90936,0.24358
1702.83783,0.22713
1704.76629,0.22422
1706.69476,0.21865
1708.62323,0.20627
1710.55170,0.20021
1712.48017,0.20547
1714.40864,0.22501
1716.33711,0.25130
1718.26558,0.24404
1720.19404,0.21331
1722.12251,0.19555
1724.05098,0.18985
1725.97945,0.18974
1727.90792,0.19349
1729.83639,0.20241
1731.76486,0.21894
1733.69332,0.23343
1735.62179,0.22301
1737.55026,0.21094
1739.47873,0.20941
1741.40720,0.20986
1743.33567,0.21142
1745.26414,0.21647
1747.19261,0.22418
1749.12107,0.22883
1751.04954,0.22040
1752.97801,0.20835
1754.90648,0.20499
1756.83495,0.20570
1758.76342,0.20424
1760.69189,0.20383
1762.62035,0.20084
1764.54882,0.19462
1766.47729,0.19611
1768.40576,0.20615
1770.33423,0.21871
1772.26270,0.22462
1774.19117,0.21549
1776.11964,0.20519
1778.04810,0.20247
1779.97657,0.20328
1781.90504,0.20104
1783.83351,0.19697
1785.76198,0.19340
1787.69045,0.19216
1789.61892,0.19966
1791.54738,0.21374
1793.47585,0.21559
1795.40432,0.20647
1797.33279,0.20164
1799.26126,0.20195
1801.18973,0.20141
1803.11820,0.19695
1805.04666,0.19297
1806.97513,0.19365
1808.90360,0.19738
1810.83207,0.19775
1812.76054,0.19275
1814.68901,0.18975
1816.61748,0.18988
1818.54595,0.18759
1820.47441,0.18629
1822.40288,0.19316
1824.33135,0.20354
1826.25982,0.20901
1828.18829,0.21246
1830.11676,0.20993
1832.04523,0.19787
1833.97369,0.19134
1835.90216,0.19346
1837.83063,0.19512
1839.75910,0.19500
1841.68757,0.20039
1843.61604,0.20879
1845.54451,0.20671
1847.47298,0.19799
1849.40144,0.19144
1851.32991,0.18744
1853.25838,0.18713
1855.18685,0.18958
1857.11532,0.19093
1859.04379,0.18930
1860.97226,0.18699
1862.90072,0.18760
1864.82919,0.19322
1866.75766,0.20310
1868.68613,0.20791
1870.61460,0.19942
1872.54307,0.18929
1874.47154,0.18698
1876.40001,0.18965
1878.32847,0.19140
1880.25694,0.19122
1882.18541,0.18947
1884.11388,0.18734
1886.04235,0.18880
1887.97082,0.19433
1889.89929,0.19775
1891.82775,0.19636
1893.75622,0.19560
1895.68469,0.19549
1897.61316,0.19286
1899.54163,0.18997
1901.47010,0.18900
1903.39857,0.19019
1905.32704,0.19413
1907.25550,0.19902
1909.18397,0.19968
1911.11244,0.19544
1913.04091,0.19184
1914.96938,0.19242
1916.89785,0.19598
1918.82632,0.19760
1920.75478,0.19734
1922.68325,0.19673
1924.61172,0.19265
1926.54019,0.18880
1928.46866,0.18886
1930.39713,0.18948
1932.32560,0.18862
1934.25407,0.18815
1936.18253,0.18909
1938.11100,0.18959
1940.03947,0.19125
1941.96794,0.19578
1943.89641,0.19739
1945.82488,0.19428
1947.75335,0.19195
1949.68181,0.19196
1951.61028,0.19130
1953.53875,0.18941
1955.46722,0.18879
1957.39569,0.18862
1959.32416,0.18801
1961.25263,0.18935
1963.18110,0.19213
1965.10956,0.19413
1967.03803,0.19517
1968.96650,0.19473
1970.89497,0.19294
1972.82344,0.19129
1974.75191,0.19079
1976.68038,0.19062
1978.60884,0.18966
1980.53731,0.18894
1982.46578,0.18845
1984.39425,0.18768
1986.32272,0.18768
1988.25119,0.18938
1990.17966,0.19289
1992.10812,0.19534
1994.03659,0.19456
1995.96506,0.19318
1997.89353,0.19289
1999.82200,0.19285
2001.75047,0.19239
2003.67894,0.19139
2005.60741,0.19047
2007.53587,0.18992
2009.46434,0.18954
2011.39281,0.18923
2013.32128,0.18919
2015.24975,0.19123
2017.17822,0.19507
2019.10669,0.19555
2021.03515,0.19275
2022.96362,0.19257
2024.89209,0.19474
2026.82056,0.19485
2028.74903,0.19337
2030.67750,0.19244
2032.60597,0.19216
2034.53444,0.19223
2036.46290,0.19326
2038.39137,0.19555
2040.31984,0.19678
2042.24831,0.19486
2044.17678,0.19222
2046.10525,0.19235
2048.03372,0.19388
2049.96218,0.19423
2051.89065,0.19337
2053.81912,0.19198
2055.74759,0.19132
2057.67606,0.19171
2059.60453,0.19296
2061.53300,0.19511
2063.46147,0.19635
2065.38993,0.19498
2067.31840,0.19201
2069.24687,0.19067
2071.17534,0.19236
2073.10381,0.19474
2075.03228,0.19624
2076.96075,0.19659
2078.88921,0.19513
2080.81768,0.19387
2082.74615,0.19440
2084.67462,0.19406
2086.60309,0.19191
2088.53156,0.19035
2090.46003,0.19122
2092.38850,0.19360
2094.31696,0.19361
2096.24543,0.19230
2098.17390,0.19357
2100.10237,0.19513
2102.03084,0.19540
2103.95931,0.19578
2105.88778,0.19557
2107.81624,0.19348
2109.74471,0.19109
2111.67318,0.19220
2113.60165,0.19536
2115.53012,0.19600
2117.45859,0.19474
2119.38706,0.19383
2121.31553,0.19405
2123.24399,0.19537
2125.17246,0.19597
2127.10093,0.19463
2129.02940,0.19206
2130.95787,0.19016
2132.88634,0.19004
2134.81481,0.18944
2136.74327,0.18844
2138.67174,0.19071
2140.60021,0.19433
2142.52868,0.19538
2144.45715,0.19461
2146.38562,0.19371
2148.31409,0.19382
2150.24255,0.19464
2152.17102,0.19435
2154.09949,0.19292
2156.02796,0.19160
2157.95643,0.19128
2159.88490,0.19271
2161.81337,0.19545
2163.74184,0.19707
2165.67030,0.19562
2167.59877,0.19317
2169.52724,0.19245
2171.45571,0.19247
2173.38418,0.19233
2175.31265,0.19303
2177.24112,0.19445
2179.16958,0.19529
2181.09805,0.19464
2183.02652,0.19351
2184.95499,0.19373
2186.88346,0.19504
2188.81193,0.19591
2190.74040,0.19627
2192.66887,0.19688
2194.59733,0.19714
2196.52580,0.19594
2198.45427,0.19368
2200.38274,0.19267
2202.31121,0.19358
2204.23968,0.19418
2206.16815,0.19394
2208.09661,0.19356
2210.02508,0.19320
2211.95355,0.19369
2213.88202,0.19530
2215.81049,0.19649
2217.73896,0.19572
2219.66743,0.19497
2221.59590,0.19615
2223.52436,0.19703
2225.45283,0.19588
2227.38130,0.19397
2229.30977,0.19352
2231.23824,0.19429
2233.16671,0.19402
2235.09518,0.19425
2237.02364,0.19573
2238.95211,0.19421
2240.88058,0.19123
2242.80905,0.19186
2244.73752,0.19378
2246.66599,0.19313
2248.59446,0.19103
2250.52293,0.19124
2252.45139,0.19371
2254.37986,0.19408
2256.30833,0.19252
2258.23680,0.19269
2260.16527,0.19471
2262.09374,0.19511
2264.02221,0.19359
2265.95067,0.19424
2267.87914,0.19670
2269.80761,0.19702
2271.73608,0.19556
2273.66455,0.19483
2275.59302,0.19442
2277.52149,0.19360
2279.44996,0.19316
2281.37842,0.19374
2283.30689,0.19451
2285.23536,0.19420
2287.16383,0.19458
2289.09230,0.19677
2291.02077,0.20155
2292.94924,0.20980
2294.87770,0.21660
2296.80617,0.21537
2298.73464,0.20598
2300.66311,0.19693
2302.59158,0.19323
2304.52005,0.19184
2306.44852,0.19298
2308.37699,0.19707
2310.30545,0.20242
2312.23392,0.20756
2314.16239,0.20949
2316.09086,0.20821
2318.01933,0.20793
2319.94780,0.21171
2321.87627,0.21701
2323.80473,0.21782
2325.73320,0.21089
2327.66167,0.20134
2329.59014,0.19560
2331.51861,0.19423
2333.44708,0.19612
2335.37555,0.19838
2337.30401,0.20108
2339.23248,0.20784
2341.16095,0.21734
2343.08942,0.22220
2345.01789,0.21835
2346.94636,0.21132
2348.87483,0.20707
2350.80330,0.20806
2352.73176,0.21305
2354.66023,0.21249
2356.58870,0.20235
2358.51717,0.19816
2360.44564,0.21041
2362.37411,0.22658
2364.30258,0.23272
2366.23104,0.22702
2368.15951,0.21103
2370.08798,0.19620
2372.01645,0.19455
2373.94492,0.19865
2375.87339,0.19976
2377.80186,0.20026
2379.73033,0.20151
2381.65879,0.20171
2383.58726,0.20005
2385.51573,0.19720
2387.44420,0.19551
2389.37267,0.19539
2391.30114,0.19416
2393.22961,0.19176
2395.15807,0.19053
2397.08654,0.19054
2399.01501,0.19091
2400.94348,0.19122
2402.87195,0.19096
2404.80042,0.19106
2406.72889,0.19306
2408.65736,0.19647
2410.58582,0.19864
2412.51429,0.19785
2414.44276,0.19565
2416.37123,0.19423
2418.29970,0.19462
2420.22817,0.19549
2422.15664,0.19433
2424.08510,0.19278
2426.01357,0.19266
2427.94204,0.19259
2429.87051,0.19247
2431.79898,0.19303
2433.72745,0.19384
2435.65592,0.19347
2437.58439,0.19263
2439.51285,0.19287
2441.44132,0.19346
2443.36979,0.19435
2445.29826,0.19568
2447.22673,0.19686
2449.15520,0.19788
2451.08367,0.19910
2453.01213,0.20060
2454.94060,0.20039
2456.86907,0.19597
2458.79754,0.19030
2460.72601,0.18843
2462.65448,0.18940
2464.58295,0.19064
2466.51142,0.19235
2468.43988,0.19445
2470.36835,0.19576
2472.29682,0.19664
2474.22529,0.19819
2476.15376,0.19845
2478.08223,0.19590
2480.01070,0.19298
2481.93916,0.19193
2483.86763,0.19276
2485.79610,0.19475
2487.72457,0.19623
2489.65304,0.19586
2491.58151,0.19467
2493.50998,0.19445
2495.43844,0.19664
2497.36691,0.19958
2499.29538,0.19955
2501.22385,0.19614
2503.15232,0.19205
2505.08079,0.19076
2507.00926,0.19309
2508.93773,0.19638
2510.86619,0.19757
2512.79466,0.19626
2514.72313,0.19498
2516.65160,0.19561
2518.58007,0.19656
2520.50854,0.19608
2522.43701,0.19602
2524.36547,0.19615
2526.29394,0.19490
2528.22241,0.19517
2530.15088,0.19779
2532.07935,0.19858
2534.00782,0.19622
2535.93629,0.19429
2537.86476,0.19425
2539.79322,0.19457
2541.72169,0.19464
2543.65016,0.19557
2545.57863,0.19820
2547.50710,0.19972
2549.43557,0.19940
2551.36404,0.19994
2553.29250,0.20034
2555.22097,0.19929
2557.14944,0.19862
2559.07791,0.19942
2561.00638,0.20010
2562.93485,0.19951
2564.86332,0.19944
2566.79179,0.20025
2568.72025,0.19991
2570.64872,0.19915
2572.57719,0.19875
2574.50566,0.19757
2576.43413,0.19670
2578.36260,0.19721
2580.29107,0.19807
2582.21953,0.19826
2584.14800,0.19772
2586.07647,0.19794
2588.00494,0.19987
2589.93341,0.20103
2591.86188,0.20026
2593.79035,0.19968
2595.71882,0.19948
2597.64728,0.19899
2599.57575,0.19843
2601.50422,0.19744
2603.43269,0.19555
2605.36116,0.19264
2607.28963,0.18916
2609.21810,0.18732
2611.14656,0.18860
2613.07503,0.19043
2615.00350,0.19255
2616.93197,0.19636
2618.86044,0.19992
2620.78891,0.20274
2622.71738,0.20392
2624.64585,0.20251
2626.57431,0.20081
2628.50278,0.20058
2630.43125,0.20112
2632.35972,0.20057
2634.28819,0.19895
2636.21666,0.19816
2638.14513,0.19919
2640.07359,0.20148
2642.00206,0.20432
2643.93053,0.20551
2645.85900,0.20247
2647.78747,0.19809
2649.71594,0.19695
2651.64441,0.19829
2653.57288,0.19960
2655.50134,0.20046
2657.42981,0.20120
2659.35828,0.20194
2661.28675,0.20291
2663.21522,0.20387
2665.14369,0.20301
2667.07216,0.20061
2669.00062,0.20093
2670.92909,0.20342
2672.85756,0.20375
2674.78603,0.20297
2676.71450,0.20335
2678.64297,0.20476
2680.57144,0.20560
2682.49990,0.20328
2684.42837,0.19904
2686.35684,0.19734
2688.28531,0.19876
2690.21378,0.20123
2692.14225,0.20432
2694.07072,0.20647
2695.99919,0.20518
2697.92765,0.20207
2699.85612,0.20182
2701.78459,0.20473
2703.71306,0.20629
2705.64153,0.20560
2707.57000,0.20496
2709.49847,0.20407
2711.42693,0.20269
2713.35540,0.20304
2715.28387,0.20596
2717.21234,0.20830
2719.14081,0.20548
2721.06928,0.19895
2722.99775,0.19664
2724.92622,0.20073
2726.85468,0.20511
2728.78315,0.20639
2730.71162,0.20676
2732.64009,0.20852
2734.56856,0.21041
2736.49703,0.21071
2738.42550,0.21044
2740.35396,0.20996
2742.28243,0.20902
2744.21090,0.20862
2746.13937,0.20902
2748.06784,0.20892
2749.99631,0.20727
2751.92478,0.20496
2753.85325,0.20375
2755.78171,0.20529
2757.71018,0.20928
2759.63865,0.21286
2761.56712,0.21480
2763.49559,0.21569
2765.42406,0.21448
2767.35253,0.21145
2769.28099,0.20983
2771.20946,0.21007
2773.13793,0.20942
2775.06640,0.20664
2776.99487,0.20452
2778.92334,0.20804
2780.85181,0.21505
2782.78028,0.21806
2784.70874,0.21663
2786.63721,0.21394
2788.56568,0.21147
2790.49415,0.21078
2792.42262,0.21175
2794.35109,0.21289
2796.27956,0.21298
2798.20802,0.21130
2800.13649,0.20857
2802.06496,0.20671
2803.99343,0.20711
2805.92190,0.20778
2807.85037,0.20637
2809.77884,0.20566
2811.70731,0.20851
2813.63577,0.21243
2815.56424,0.21377
2817.49271,0.21261
2819.42118,0.21102
2821.34965,0.21046
2823.27812,0.21106
2825.20659,0.21219
2827.13505,0.21325
2829.06352,0.21369
2830.99199,0.21332
2832.92046,0.21248
2834.84893,0.21291
2836.77740,0.21632
2838.70587,0.21982
2840.63433,0.21968
2842.56280,0.21725
2844.49127,0.21490
2846.41974,0.21326
2848.34821,0.21268
2850.27668,0.21277
2852.20515,0.21315
2854.13362,0.21416
2856.06208,0.21527
2857.99055,0.21488
2859.91902,0.21235
2861.84749,0.20947
2863.77596,0.20823
2865.70443,0.20863
2867.63290,0.20970
2869.56136,0.21062
2871.48983,0.21101
2873.41830,0.21120
2875.34677,0.21142
2877.27524,0.21085
2879.20371,0.21128
2881.13218,0.21402
2883.06065,0.21520
2884.98911,0.21471
2886.91758,0.21516
2888.84605,0.21456
2890.77452,0.21244
2892.70299,0.21159
2894.63146,0.21164
2896.55993,0.21097
2898.48839,0.21086
2900.41686,0.21044
2902.34533,0.20725
2904.27380,0.20334
2906.20227,0.20318
2908.13074,0.20593
2910.05921,0.20656
2911.98768,0.20525
2913.91614,0.20501
2915.84461,0.20646
2917.77308,0.20855
2919.70155,0.20979
2921.63002,0.20994
2923.55849,0.20820
2925.48696,0.20525
2927.41542,0.20481
2929.34389,0.20602
2931.27236,0.20623
2933.20083,0.20708
2935.12930,0.20697
2937.05777,0.20529
2938.98624,0.20760
2940.91471,0.21272
2942.84317,0.21461
2944.77164,0.21298
2946.70011,0.21065
2948.62858,0.20892
2950.55705,0.20888
2952.48552,0.21106
2954.41399,0.21179
2956.34245,0.20822
2958.27092,0.20502
2960.19939,0.20736
2962.12786,0.21284
2964.05633,0.21563
2965.98480,0.21313
2967.91327,0.20938
2969.84174,0.20980
2971.77020,0.21429
2973.69867,0.21937
2975.62714,0.21994
2977.55561,0.21549
2979.48408,0.21242
2981.41255,0.21304
2983.34102,0.21338
2985.26948,0.21351
2987.19795,0.21547
2989.12642,0.21608
2991.05489,0.21558
2992.98336,0.21740
2994.91183,0.22086
2996.84030,0.22175
2998.76877,0.21974
3000.69723,0.21992
3002.62570,0.22069
3004.55417,0.21923
3006.48264,0.21780
3008.41111,0.21726
3010.33958,0.21646
3012.26805,0.20976
3014.19651,0.19381
3016.12498,0.17980
3018.05345,0.18473
3019.98192,0.20437
3021.91039,0.21778
3023.83886,0.21943
3025.76733,0.21716
3027.69579,0.21596
3029.62426,0.21660
3031.55273,0.21902
3033.48120,0.22274
3035.40967,0.22363
3037.33814,0.22032
3039.26661,0.21772
3041.19508,0.21778
3043.12354,0.21864
3045.05201,0.21859
3046.98048,0.21836
3048.90895,0.21926
3050.83742,0.21848
3052.76589,0.21561
3054.69436,0.21265
3056.62282,0.21058
3058.55129,0.21299
3060.47976,0.21798
3062.40823,0.21924
3064.33670,0.21645
3066.26517,0.21313
3068.19364,0.21326
3070.12211,0.21634
3072.05057,0.21808
3073.97904,0.21629
3075.90751,0.21227
3077.83598,0.21194
3079.76445,0.21570
3081.69292,0.21704
3083.62139,0.21322
3085.54985,0.20678
3087.47832,0.20503
3089.40679,0.20952
3091.33526,0.21125
3093.26373,0.20707
3095.19220,0.20608
3097.12067,0.21160
3099.04914,0.21533
3100.97760,0.21457
3102.90607,0.21310
3104.83454,0.21361
3106.76301,0.21634
3108.69148,0.21848
3110.61995,0.21755
3112.54842,0.21385
3114.47688,0.21136
3116.40535,0.21332
3118.33382,0.21671
3120.26229,0.21842
3122.19076,0.21965
3124.11923,0.22088
3126.04770,0.22225
3127.97617,0.22315
3129.90463,0.22052
3131.83310,0.21687
3133.76157,0.21778
3135.69004,0.21948
3137.61851,0.21776
3139.54698,0.21878
3141.47545,0.22350
3143.40391,0.22378
3145.33238,0.21949
3147.26085,0.21651
3149.18932,0.21742
3151.11779,0.22093
3153.04626,0.22241
3154.97473,0.22100
3156.90320,0.22035
3158.83166,0.21964
3160.76013,0.21958
3162.68860,0.22288
3164.61707,0.22536
3166.54554,0.22402
3168.47401,0.22183
3170.40248,0.22200
3172.33094,0.22481
3174.25941,0.22639
3176.18788,0.22330
3178.11635,0.22093
3180.04482,0.22461
3181.97329,0.22752
3183.90176,0.22663
3185.83022,0.22651
3187.75869,0.22614
3189.68716,0.22453
3191.61563,0.22377
3193.54410,0.22519
3195.47257,0.22821
3197.40104,0.22884
3199.32951,0.22674
3201.25797,0.22634
3203.18644,0.22625
3205.11491,0.22323
3207.04338,0.22059
3208.97185,0.21960
3210.90032,0.21619
3212.82879,0.21170
3214.75725,0.21196
3216.68572,0.21784
3218.61419,0.22488
3220.54266,0.22824
3222.47113,0.22671
3224.39960,0.22345
3226.32807,0.22114
3228.25654,0.22065
3230.18500,0.22299
3232.11347,0.22555
3234.04194,0.22418
3235.97041,0.22008
3237.89888,0.21697
3239.82735,0.21514
3241.75582,0.21396
3243.68428,0.21535
3245.61275,0.21811
3247.54122,0.22037
3249.46969,0.22327
3251.39816,0.22497
3253.32663,0.22309
3255.25510,0.21927
3257.18357,0.21868
3259.11203,0.22230
3261.04050,0.22324
3262.96897,0.22065
3264.89744,0.21978
3266.82591,0.21961
3268.75438,0.21901
3270.68285,0.22055
3272.61131,0.22260
3274.53978,0.22295
3276.46825,0.22356
3278.39672,0.22518
3280.32519,0.22419
3282.25366,0.21919
3284.18213,0.21535
3286.11060,0.21560
3288.03906,0.21490
3289.96753,0.21256
3291.89600,0.21418
3293.82447,0.21745
3295.75294,0.21875
3297.68141,0.21828
3299.60988,0.21573
3301.53834,0.21467
3303.46681,0.21483
3305.39528,0.21255
3307.32375,0.21022
3309.25222,0.20923
3311.18069,0.20725
3313.10916,0.20620
3315.03763,0.20796
3316.96609,0.20910
3318.89456,0.21078
3320.82303,0.21597
3322.75150,0.22089
3324.67997,0.22133
3326.60844,0.21789
3328.53691,0.21496
3330.46537,0.21487
3332.39384,0.21749
3334.32231,0.22149
3336.25078,0.22420
3338.17925,0.22686
3340.10772,0.22964
3342.03619,0.22983
3343.96466,0.22814
3345.89312,0.22463
3347.82159,0.22064
3349.75006,0.21916
3351.67853,0.21787
3353.60700,0.21681
3355.53547,0.21763
3357.46394,0.21614
3359.39240,0.21375
3361.32087,0.21675
3363.24934,0.22196
3365.17781,0.22317
3367.10628,0.22309
3369.03475,0.22525
3370.96322,0.22796
3372.89168,0.22911
3374.82015,0.22763
3376.74862,0.22556
3378.67709,0.22540
3380.60556,0.22487
3382.53403,0.22388
3384.46250,0.22449
3386.39097,0.22219
3388.31943,0.21604
3390.24790,0.21259
3392.17637,0.21398
3394.10484,0.21744
3396.03331,0.21876
3397.96178,0.21807
3399.89025,0.21894
3401.81871,0.22108
3403.74718,0.22307
3405.67565,0.22424
3407.60412,0.22383
3409.53259,0.22108
3411.46106,0.21710
3413.38953,0.21287
3415.31800,0.21001
3417.24646,0.21311
3419.17493,0.21852
3421.10340,0.21870
3423.03187,0.21524
3424.96034,0.21294
3426.88881,0.21464
3428.81728,0.21720
3430.74574,0.21455
3432.67421,0.20885
3434.60268,0.20571
3436.53115,0.20643
3438.45962,0.21069
3440.38809,0.21563
3442.31656,0.21683
3444.24503,0.21570
3446.17349,0.21487
3448.10196,0.21002
3450.03043,0.20167
3451.95890,0.19731
3453.88737,0.19905
3455.81584,0.20344
3457.74431,0.20473
3459.67277,0.20184
3461.60124,0.19991
3463.52971,0.19999
3465.45818,0.20003
3467.38665,0.20168
3469.31512,0.20276
3471.24359,0.20028
3473.17206,0.19876
3475.10052,0.19899
3477.02899,0.19992
3478.95746,0.20241
3480.88593,0.20257
3482.81440,0.20070
3484.74287,0.20063
3486.67134,0.19979
3488.59980,0.19566
3490.52827,0.19329
3492.45674,0.19602
3494.38521,0.19811
3496.31368,0.19596
3498.24215,0.19328
3500.17062,0.19383
3502.09909,0.19821
3504.02755,0.20110
3505.95602,0.19832
3507.88449,0.19367
3509.81296,0.18882
3511.74143,0.18443
3513.66990,0.18153
3515.59837,0.17935
3517.52683,0.17969
3519.45530,0.18290
3521.38377,0.18860
3523.31224,0.19410
3525.24071,0.19224
3527.16918,0.18633
3529.09765,0.18272
3531.02611,0.17919
3532.95458,0.17679
3534.88305,0.17892
3536.81152,0.17995
3538.73999,0.17517
3540.66846,0.17240
3542.59693,0.17650
3544.52540,0.18368
3546.45386,0.18696
3548.38233,0.18327
3550.31080,0.17869
3552.23927,0.17507
3554.16774,0.17065
3556.09621,0.16974
3558.02468,0.17251
3559.95314,0.17292
3561.88161,0.17412
3563.81008,0.18485
3565.73855,0.20013
3567.66702,0.20003
3569.59549,0.18349
3571.52396,0.17044
3573.45243,0.16485
3575.38089,0.16262
3577.30936,0.16113
3579.23783,0.15962
3581.16630,0.15967
3583.09477,0.16335
3585.02324,0.17393
3586.95171,0.18735
3588.88017,0.18283
3590.80864,0.16880
3592.73711,0.16490
3594.66558,0.17009
3596.59405,0.17498
3598.52252,0.17342
3600.45099,0.16647
3602.37946,0.15965
3604.30792,0.15900
3606.23639,0.16665
3608.16486,0.17396
3610.09333,0.17216
3612.02180,0.17162
3613.95027,0.17514
3615.87874,0.17663
3617.80720,0.17873
3619.73567,0.17706
3621.66414,0.16724
3623.59261,0.16016
3625.52108,0.16313
3627.44955,0.17562
3629.37802,0.17987
3631.30649,0.16960
3633.23495,0.16350
3635.16342,0.15894
3637.09189,0.15234
3639.02036,0.14673
3640.94883,0.14487
3642.87730,0.14862
3644.80577,0.15798
3646.73423,0.17158
3648.66270,0.18432
3650.59117,0.17721
3652.51964,0.15893
3654.44811,0.15064
3656.37658,0.15044
3658.30505,0.14768
3660.23352,0.14312
3662.16198,0.13956
3664.09045,0.13758
3666.01892,0.14132
3667.94739,0.15531
3669.87586,0.17188
3671.80433,0.17396
3673.73280,0.17753
3675.66126,0.18353
3677.58973,0.17079
3679.51820,0.15534
3681.44667,0.14550
3683.37514,0.14104
3685.30361,0.14475
3687.23208,0.15814
3689.16055,0.17187
3691.08901,0.16410
3693.01748,0.14593
3694.94595,0.13519
3696.87442,0.13323
3698.80289,0.13837
3700.73136,0.14796
3702.65983,0.15294
3704.58829,0.14929
3706.51676,0.14565
3708.44523,0.14755
3710.37370,0.15648
3712.30217,0.15986
3714.23064,0.14782
3716.15911,0.13985
3718.08757,0.14532
3720.01604,0.15594
3721.94451,0.16034
3723.87298,0.15651
3725.80145,0.15039
3727.72992,0.14699
3729.65839,0.14678
3731.58686,0.15169
3733.51532,0.16614
3735.44379,0.18085
3737.37226,0.17567
3739.30073,0.16254
3741.22920,0.15704
3743.15767,0.16314
3745.08614,0.17468
3747.01460,0.17821
3748.94307,0.18106
3750.87154,0.17862
3752.80001,0.16307
3754.72848,0.15289
3756.65695,0.15253
3758.58542,0.15522
3760.51389,0.15012
3762.44235,0.14167
3764.37082,0.13846
3766.29929,0.14070
3768.22776,0.14785
3770.15623,0.15117
3772.08470,0.14501
3774.01317,0.13989
3775.94163,0.13778
3777.87010,0.13663
3779.79857,0.13574
3781.72704,0.13437
3783.65551,0.13434
3785.58398,0.13241
3787.51245,0.12784
3789.44092,0.12634
3791.36938,0.12710
3793.29785,0.12845
3795.22632,0.13417
3797.15479,0.14318
3799.08326,0.15204
3801.01173,0.16165
3802.94020,0.16238
3804.86866,0.15814
3806.79713,0.15221
3808.72560,0.13904
3810.65407,0.13045
3812.58254,0.13171
3814.51101,0.13999
3816.43948,0.14953
3818.36795,0.15855
3820.29641,0.17114
3822.22488,0.16841
3824.15335,0.15417
3826.08182,0.14703
3828.01029,0.14198
3829.93876,0.13785
3831.86723,0.13780
3833.79569,0.14000
3835.72416,0.14530
3837.65263,0.15363
3839.58110,0.15418
3841.50957,0.14534
3843.43804,0.13656
3845.36651,0.13212
3847.29498,0.13190
3849.22344,0.13603
3851.15191,0.14595
3853.08038,0.15268
3855.00885,0.14160
3856.93732,0.13196
3858.86579,0.12651
3860.79426,0.12603
3862.72272,0.13464
3864.65119,0.14077
3866.57966,0.13689
3868.50813,0.13766
3870.43660,0.14356
3872.36507,0.14211
3874.29354,0.13432
3876.22200,0.12394
3878.15047,0.11799
3880.07894,0.12158
3882.00741,0.12912
3883.93588,0.13340
3885.86435,0.13195
3887.79282,0.12655
3889.72129,0.12580
3891.64975,0.12759
3893.57822,0.12286
3895.50669,0.11911
3897.43516,0.12428
3899.36363,0.13195
3901.29210,0.13275
3903.22057,0.12980
3905.14903,0.12490
3907.07750,0.11887
3909.00597,0.11614
3910.93444,0.11442
3912.86291,0.11327
3914.79138,0.11765
3916.71985,0.12280
3918.64832,0.12098
3920.57678,0.11776
3922.50525,0.12032
3924.43372,0.12602
3926.36219,0.12608
3928.29066,0.12335
3930.21913,0.12510
3932.14760,0.12448
3934.07606,0.11369
3936.00453,0.10312
3937.93300,0.10307
3939.86147,0.11089
3941.78994,0.11819
3943.71841,0.11949
3945.64688,0.11737
3947.57535,0.11636
3949.50381,0.11445
3951.43228,0.11115
3953.36075,0.11124
3955.28922,0.11486
3957.21769,0.11908
3959.14616,0.12023
3961.07463,0.11513
3963.00309,0.10851
3964.93156,0.10645
3966.86003,0.10828
3968.78850,0.11050
3970.71697,0.11079
3972.64544,0.11078
3974.57391,0.11211
3976.50238,0.11307
3978.43084,0.11193
3980.35931,0.11063
3982.28778,0.11099
3984.21625,0.10982
3986.14472,0.10694
3988.07319,0.10548
3990.00166,0.10487
3991.93012,0.10506
3993.85859,0.10628
3995.78706,0.10646
3997.71553,0.10537
3999.64400,0.10476
4001.57247,0.10556
4003.50094,0.10612
4005.42941,0.10415
4007.35787,0.10155
4009.28634,0.10035
4011.21481,0.09986
4013.14328,0.10120
4015.07175,0.10198
4017.00022,0.09852
4018.92869,0.09529
4020.85715,0.09645
4022.78562,0.09945
4024.71409,0.10036
4026.64256,0.09870
4028.57103,0.09707
4030.49950,0.09601
4032.42797,0.09392
4034.35644,0.09133
4036.28490,0.09174
4038.21337,0.09425
4040.14184,0.09367
4042.07031,0.09157
4043.99878,0.09285
4045.92725,0.09671
4047.85572,0.10003
4049.78418,0.10106
4051.71265,0.09985
4053.64112,0.09939
4055.56959,0.10038
4057.49806,0.09923
4059.42653,0.09428
4061.35500,0.09007
4063.28346,0.09232
4065.21193,0.09780
4067.14040,0.09891
4069.06887,0.09431
4070.99734,0.08968
4072.92581,0.09019
4074.85428,0.09358
4076.78275,0.09653
4078.71121,0.09822
4080.63968,0.09561
4082.56815,0.08935
4084.49662,0.08683
4086.42509,0.09078
4088.35356,0.09419
4090.28203,0.09183
4092.21049,0.08584
4094.13896,0.08224
4096.06743,0.08425
4097.99590,0.08722
4099.92437,0.08761
4101.85284,0.08727
4103.78131,0.08788
4105.70978,0.09021
4107.63824,0.09362
4109.56671,0.09539
4111.49518,0.09332
4113.42365,0.08840
4115.35212,0.08507
4117.28059,0.08559
4119.20906,0.08686
4121.13752,0.08688
4123.06599,0.08672
4124.99446,0.08886
4126.92293,0.09345
4128.85140,0.09355
4130.77987,0.08747
4132.70834,0.08377
4134.63681,0.08500
4136.56527,0.08710
4138.49374,0.09008
4140.42221,0.09299
4142.35068,0.09062
4144.27915,0.08384
4146.20762,0.08056
4148.13609,0.08169
4150.06455,0.08097
4151.99302,0.07903
4153.92149,0.08040
4155.84996,0.08398
4157.77843,0.08506
4159.70690,0.08145
4161.63537,0.07686
4163.56384,0.07571
4165.49230,0.07645
4167.42077,0.07634
4169.34924,0.07635
4171.27771,0.07656
4173.20618,0.07476
4175.13465,0.07127
4177.06312,0.07025
4178.99158,0.07304
4180.92005,0.07463
4182.84852,0.07402
4184.77699,0.07542
4186.70546,0.07648
4188.63393,0.07394
4190.56240,0.06978
4192.49087,0.06321
4194.41933,0.05641
4196.34780,0.05495
4198.27627,0.06054
4200.20474,0.07039
4202.13321,0.07504
4204.06168,0.07375
4205.99015,0.07681
4207.91861,0.08420
4209.84708,0.08547
4211.77555,0.07908
4213.70402,0.07525
4215.63249,0.07326
4217.56096,0.06752
4219.48943,0.06422
4221.41789,0.06398
4223.34636,0.06176
4225.27483,0.05971
4227.20330,0.06011
4229.13177,0.06026
4231.06024,0.05980
4232.98871,0.06314
4234.91718,0.06982
4236.84564,0.07352
4238.77411,0.06870
4240.70258,0.05850
4242.63105,0.05561
4244.55952,0.06092
4246.48799,0.06497
4248.41646,0.06776
4250.34492,0.07111
4252.27339,0.07024
4254.20186,0.06305
4256.13033,0.05572
4258.05880,0.05303
4259.98727,0.05400
4261.91574,0.05809
4263.84421,0.06084
4265.77267,0.05894
4267.70114,0.05897
4269.62961,0.06221
4271.55808,0.06186
4273.48655,0.06009
4275.41502,0.06205
4277.34349,0.06320
4279.27195,0.06030
4281.20042,0.05821
4283.12889,0.05742
4285.05736,0.05585
4286.98583,0.05379
4288.91430,0.04931
4290.84277,0.04577
4292.77124,0.04764
4294.69970,0.05020
4296.62817,0.05116
4298.55664,0.05316
4300.48511,0.05385
4302.41358,0.05294
4304.34205,0.05438
4306.27052,0.05437
4308.19898,0.04778
4310.12745,0.03904
4312.05592,0.03633
4313.98439,0.03986
4315.91286,0.04154
4317.84133,0.04004
4319.76980,0.04169
4321.69827,0.04553
4323.62673,0.04546
4325.55520,0.04362
4327.48367,0.04407
4329.41214,0.04481
4331.34061,0.04626
4333.26908,0.04994
4335.19755,0.05079
4337.12601,0.04514
4339.05448,0.03780
4340.98295,0.03549
4342.91142,0.03969
4344.83989,0.04385
4346.76836,0.04143
4348.69683,0.03647
4350.62530,0.03636
4352.55376,0.03999
4354.48223,0.04285
4356.41070,0.04512
4358.33917,0.04747
4360.26764,0.04671
4362.19611,0.04040
4364.12458,0.03343
4366.05304,0.03097
4367.98151,0.03255
4369.90998,0.03725
4371.83845,0.04194
4373.76692,0.04378
4375.69539,0.04259
4377.62386,0.03815
4379.55232,0.03379
4381.48079,0.03269
4383.40926,0.03039
4385.33773,0.02550
4387.26620,0.02638
4389.19467,0.03347
4391.12314,0.03696
4393.05161,0.03510
4394.98007,0.03223
4396.90854,0.02976
4398.83701,0.02800
4400.76548,0.02602
4402.69395,0.02432
4404.62242,0.02437
4406.55089,0.02531
4408.47935,0.02623
4410.40782,0.02703
4412.33629,0.02687
4414.26476,0.02211
4416.19323,0.01576
4418.12170,0.01472
4420.05017,0.01646
4421.97864,0.01640
4423.90710,0.01362
4425.83557,0.01195
4427.76404,0.01426
4429.69251,0.01888
4431.62098,0.02584
4433.54945,0.02943
4435.47792,0.02333
4437.40638,0.01585
4439.33485,0.01350
4441.26332,0.01184
4443.19179,0.01338
4445.12026,0.01844
4447.04873,0.01764
4448.97720,0.01183
4450.90567,0.00998
4452.83413,0.01261
4454.76260,0.01524
4456.69107,0.01949
4458.61954,0.02205
4460.54801,0.01604
4462.47648,0.00970
4464.40495,0.01310
4466.33341,0.01992
4468.26188,0.02205
4470.19035,0.02168
4472.11882,0.01929
4474.04729,0.01607
4475.97576,0.01696
4477.90423,0.02159
4479.83270,0.02592
4481.76116,0.02247
4483.68963,0.01298
4485.61810,0.00883
4487.54657,0.01090
4489.47504,0.01342
4491.40351,0.01360
4493.33198,0.01281
4495.26044,0.01345
4497.18891,0.01287
4499.11738,0.00894
4501.04585,0.00758
4502.97432,0.01041
4504.90279,0.00895
4506.83126,0.00345
4508.75973,0.00345
4510.68819,0.00992
4512.61666,0.01638
4514.54513,0.01885
4516.47360,0.01856
4518.40207,0.01958
4520.33054,0.02083
4522.25901,0.01599
4524.18747,0.00889
4526.11594,0.00724
4528.04441,0.00533
4529.97288,-0.00011
4531.90135,-0.00176
4533.82982,0.00128
4535.75829,0.00587
4537.68676,0.00910
4539.61522,0.00522
4541.54369,-0.00272
4543.47216,-0.00204
4545.40063,0.00866
4547.32910,0.01646
4549.25757,0.01761
4551.18604,0.01810
4553.11450,0.01867
4555.04297,0.01962
4556.97144,0.01906
4558.89991,0.01551
4560.82838,0.01566
4562.75685,0.01732
4564.68532,0.01159
4566.61378,0.00494
4568.54225,0.00733
4570.47072,0.01232
4572.39919,0.00956
4574.32766,0.00559
4576.25613,0.00754
4578.18460,0.00690
4580.11307,0.00268
4582.04153,0.00391
4583.97000,0.01036
4585.89847,0.01084
4587.82694,-0.00155
4589.75541,-0.01503
4591.68388,-0.01724
4593.61235,-0.01073
4595.54081,-0.00272
4597.46928,0.00358
4599.39775,0.00695
4601.32622,0.00513
4603.25469,0.00240
4605.18316,0.00175
4607.11163,0.00090
4609.04010,0.00123
4610.96856,0.00089
4612.89703,-0.00329
4614.82550,-0.00706
4616.75397,-0.00722
4618.68244,-0.00210
4620.61091,0.00829
4622.53938,0.01393
4624.46784,0.01343
4626.39631,0.01289
4628.32478,0.01028
4630.25325,0.00402
4632.18172,-0.00622
4634.11019,-0.01539
4636.03866,-0.01419
4637.96713,-0.00525
4639.89559,0.00389
4641.82406,0.00789
4643.75253,0.00361
4645.68100,-0.00188
4647.60947,0.00120
4649.53794,0.00520
4651.46641,0.00179
4653.39487,-0.00121
4655.32334,0.00128
4657.25181,0.00649
4659.18028,0.00873
4661.10875,0.00267
4663.03722,-0.00492
4664.96569,0.00078
4666.89416,0.01892
4668.82262,0.03126
4670.75109,0.03114
4672.67956,0.02520
4674.60803,0.01294
4676.53650,-0.00091
4678.46497,-0.00409
4680.39344,0.00085
4682.32190,0.00428
4684.25037,0.00703
4686.17884,0.01015
4688.10731,0.00783
4690.03578,0.00168
4691.96425,-0.00046
4693.89272,-0.00042
4695.82119,-0.00152
4697.74965,0.00030
4699.67812,0.00403
4701.60659,0.00525
4703.53506,0.00596
4705.46353,0.00852
4707.39200,0.01245
4709.32047,0.01549
4711.24893,0.01458
4713.17740,0.01024
4715.10587,0.00799
4717.03434,0.01047
4718.96281,0.01246
4720.89128,0.01189
4722.81975,0.01150
4724.74821,0.00997
4726.67668,0.00631
4728.60515,0.00305
4730.53362,0.00259
4732.46209,0.00405
4734.39056,-0.00053
4736.31903,-0.01067
4738.24750,-0.01007
4740.17596,-0.00010
4742.10443,0.00339
4744.03290,0.00250
4745.96137,0.00235
4747.88984,-0.00075
4749.81831,-0.00465
4751.74678,-0.00232
4753.67524,0.00115
4755.60371,-0.00247
4757.53218,-0.00345
4759.46065,0.00106
4761.38912,0.00094
4763.31759,0.00251
4765.24606,0.00778
4767.17453,0.00550
4769.10299,-0.00009
4771.03146,-0.00045
4772.95993,0.00525
4774.88840,0.01648
4776.81687,0.02405
4778.74534,0.01743
4780.67381,0.00348
4782.60227,0.00035
4784.53074,0.00941
4786.45921,0.01657
4788.38768,0.01675
4790.31615,0.01160
4792.24462,0.00443
4794.17309,-0.00279
4796.10156,-0.00646
4798.03002,-0.00113
4799.95849,0.00743
4801.88696,0.01167
4803.81543,0.00914
4805.74390,0.00559
4807.67237,0.00832
4809.60084,0.00720
4811.52930,-0.00084
4813.45777,-0.00398
4815.38624,-0.00143
4817.31471,0.00033
4819.24318,0.00199
4821.17165,0.00303
4823.10012,0.00490
4825.02859,0.01243
4826.95705,0.01823
4828.88552,0.01116
4830.81399,-0.00390
4832.74246,-0.00973
4834.67093,-0.00218
4836.59940,0.00375
4838.52787,0.00519
4840.45633,0.01099
4842.38480,0.01787
4844.31327,0.01490
4846.24174,0.00029
4848.17021,-0.01021
4850.09868,-0.00968
4852.02715,-0.01396
4853.95562,-0.02549
4855.88408,-0.02608
4857.81255,-0.01784
4859.74102,-0.00961
4861.66949,0.00646
4863.59796,0.02397
4865.52643,0.02990
4867.45490,0.02750
4869.38336,0.02105
4871.31183,0.01078
4873.24030,-0.00198
4875.16877,-0.00956
4877.09724,-0.00413
4879.02571,0.00572
4880.95418,0.00502
4882.88265,-0.00255
4884.81111,-0.00100
4886.73958,0.00932
4888.66805,0.01600
4890.59652,0.01686
4892.52499,0.01552
4894.45346,0.01148
4896.38193,0.00522
4898.31039,-0.00107
4900.23886,-0.00377
4902.16733,0.00371
4904.09580,0.01904
4906.02427,0.02766
4907.95274,0.02544
4909.88121,0.02239
4911.80967,0.02199
4913.73814,0.01670
4915.66661,0.00736
4917.59508,0.00601
4919.52355,0.00922
4921.45202,0.00806
4923.38049,0.00965
4925.30896,0.01372
4927.23742,0.01063
4929.16589,0.00496
4931.09436,0.00228
4933.02283,0.00007
4934.95130,0.00109
4936.87977,0.00437
4938.80824,0.00453
4940.73670,0.00294
4942.66517,-0.00199
4944.59364,-0.00627
4946.52211,-0.00128
4948.45058,0.00715
4950.37905,0.00627
4952.30752,-0.00450
4954.23599,-0.00738
4956.16445,0.00425
4958.09292,0.01388
4960.02139,0.01258
4961.94986,0.00831
4963.87833,0.00646
4965.80680,0.00264
4967.73527,0.00099
4969.66373,0.00397
4971.59220,0.00255
4973.52067,0.00235
4975.44914,0.01083
4977.37761,0.01311
4979.30608,0.00298
4981.23455,-0.00540
4983.16302,-0.01098
4985.09148,-0.01459
4987.01995,-0.00228
4988.94842,0.01562
4990.87689,0.01748
4992.80536,0.01153
4994.73383,0.00892
4996.66230,0.00372
4998.59076,-0.00154
5000.51923,0.00459
5002.44770,0.01471
5004.37617,0.01619
5006.30464,0.01565
5008.23311,0.01775
5010.16158,0.01290
5012.09005,0.00103
5014.01851,-0.00588
5015.94698,-0.00800
5017.87545,-0.00459
5019.80392,0.00790
5021.73239,0.01789
5023.66086,0.02188
5025.58933,0.02786
5027.51779,0.02688
5029.44626,0.00839
5031.37473,-0.00662
5033.30320,-0.00082
5035.23167,0.01104
5037.16014,0.01900
5039.08861,0.02443
5041.01708,0.02481
5042.94554,0.01427
5044.87401,-0.00203
5046.80248,-0.00596
5048.73095,0.00078
5050.65942,0.00928
5052.58789,0.02063
5054.51636,0.02983
5056.44482,0.03645
5058.37329,0.03588
5060.30176,0.02108
5062.23023,0.00748
5064.15870,0.00900
5066.08717,0.01817
5068.01564,0.02410
5069.94410,0.02726
5071.87257,0.02791
5073.80104,0.02174
5075.72951,0.01994
5077.65798,0.02996
5079.58645,0.03394
5081.51492,0.02270
5083.44339,0.00975
5085.37185,0.00665
5087.30032,0.01356
5089.22879,0.02027
5091.15726,0.01809
5093.08573,0.01533
5095.01420,0.01570
5096.94267,0.00801
5098.87113,-0.00145
5100.79960,0.00437
5102.72807,0.01903
5104.65654,0.02165
5106.58501,0.00986
5108.51348,0.00166
5110.44195,0.00417
5112.37042,0.01053
5114.29888,0.01507
5116.22735,0.01641
5118.15582,0.01619
5120.08429,0.01762
5122.01276,0.02368
5123.94123,0.03050
5125.86970,0.03539
5127.79816,0.04034
5129.72663,0.03884
5131.65510,0.03280
5133.58357,0.03854
5135.51204,0.04276
5137.44051,0.02453
5139.36898,0.00808
5141.29745,0.00957
5143.22591,0.01212
5145.15438,0.01296
5147.08285,0.01929
5149.01132,0.02685
5150.93979,0.02902
5152.86826,0.02671
5154.79673,0.02666
5156.72519,0.03053
5158.65366,0.03224
5160.58213,0.03138
5162.51060,0.02339
5164.43907,0.00956
5166.36754,0.01033
5168.29601,0.02608
5170.22448,0.04010
5172.15294,0.04440
5174.08141,0.04273
5176.00988,0.04468
5177.93835,0.04939
5179.86682,0.04618
5181.79529,0.03627
5183.72376,0.03388
5185.65222,0.04155
5187.58069,0.04372
5189.50916,0.03292
5191.43763,0.02130
5193.36610,0.01882
5195.29457,0.02553
5197.22304,0.03393
5199.15151,0.03394
5201.07997,0.03114
5203.00844,0.02812
5204.93691,0.02276
5206.86538,0.02489
5208.79385,0.03434
5210.72232,0.03686
5212.65079,0.03236
5214.57925,0.03446
5216.50772,0.04445
5218.43619,0.04799
5220.36466,0.04240
5222.29313,0.04007
5224.22160,0.04004
5226.15007,0.03468
5228.07854,0.03414
5230.00700,0.04274
5231.93547,0.05237
5233.86394,0.05807
5235.79241,0.05641
5237.72088,0.04965
5239.64935,0.05025
5241.57782,0.06403
5243.50628,0.07350
5245.43475,0.06637
5247.36322,0.05308
5249.29169,0.03990
5251.22016,0.03105
5253.14863,0.02701
5255.07710,0.02079
5257.00556,0.01688
5258.93403,0.02595
5260.86250,0.04149
5262.79097,0.05185
5264.71944,0.06233
5266.64791,0.07365
5268.57638,0.07844
5270.50485,0.07638
5272.43331,0.06135
5274.36178,0.03822
5276.29025,0.03017
5278.21872,0.03554
5280.14719,0.04267
5282.07566,0.05380
5284.00413,0.05215
5285.93259,0.03205
5287.86106,0.01865
5289.78953,0.02393
5291.71800,0.03943
5293.64647,0.04936
5295.57494,0.05076
5297.50341,0.05253
5299.43188,0.05845
5301.36034,0.05798
5303.28881,0.04975
5305.21728,0.04653
5307.14575,0.04822
5309.07422,0.05266
5311.00269,0.05755
5312.93116,0.05619
5314.85962,0.05287
5316.78809,0.05265
5318.71656,0.04926
5320.64503,0.03873
5322.57350,0.03195
5324.50197,0.04066
5326.43044,0.05422
5328.35891,0.05677
5330.28737,0.05363
5332.21584,0.05244
5334.14431,0.05159
5336.07278,0.04864
5338.00125,0.04468
5339.92972,0.04633
5341.85819,0.05080
5343.78665,0.04843
5345.71512,0.04444
5347.64359,0.04302
5349.57206,0.04022
5351.50053,0.04639
5353.42900,0.05553
5355.35747,0.05109
5357.28594,0.05266
5359.21440,0.06863
5361.14287,0.07714
5363.07134,0.07003
5364.99981,0.06465
5366.92828,0.06922
5368.85675,0.07461
5370.78522,0.07159
5372.71368,0.06128
5374.64215,0.05778
5376.57062,0.06162
5378.49909,0.05710
5380.42756,0.05178
5382.35603,0.05351
5384.28450,0.05336
5386.21297,0.05101
5388.14143,0.05151
5390.06990,0.05057
5391.99837,0.05552
5393.92684,0.07283
5395.85531,0.08873
5397.78378,0.09298
5399.71225,0.08772
5401.64071,0.07387
5403.56918,0.05672
5405.49765,0.04953
5407.42612,0.04910
5409.35459,0.05087
5411.28306,0.06030
5413.21153,0.06195
5415.13999,0.05697
5417.06846,0.06214
5418.99693,0.06624
5420.92540,0.06219
5422.85387,0.06115
5424.78234,0.06234
5426.71081,0.05281
5428.63928,0.04206
5430.56774,0.04551
5432.49621,0.06224
5434.42468,0.08484
5436.35315,0.09275
5438.28162,0.08153
5440.21009,0.05839
5442.13856,0.03802
5444.06702,0.04020
5445.99549,0.05618
5447.92396,0.05686
5449.85243,0.03574
5451.78090,0.02146
5453.70937,0.02623
5455.63784,0.03250
5457.56631,0.03318
5459.49477,0.04895
5461.42324,0.08003
5463.35171,0.09498
5465.28018,0.08224
5467.20865,0.06352
5469.13712,0.05813
5471.06559,0.05527
5472.99405,0.04903
5474.92252,0.05286
5476.85099,0.06226
5478.77946,0.06475
5480.70793,0.05859
5482.63640,0.04899
5484.56487,0.04863
5486.49334,0.05861
5488.42180,0.06861
5490.35027,0.07338
5492.27874,0.07348
5494.20721,0.06666
5496.13568,0.05504
5498.06415,0.05195
5499.99262,0.05371
5501.92108,0.04475
5503.84955,0.04550
5505.77802,0.07266
5507.70649,0.09709
5509.63496,0.09808
5511.56343,0.09027
5513.49190,0.08481
5515.42037,0.08982
5517.34883,0.09872
5519.27730,0.09227
5521.20577,0.08747
5523.13424,0.09714
5525.06271,0.09653
5526.99118,0.08556
5528.91965,0.08364
5530.84811,0.08562
5532.77658,0.08039
5534.70505,0.07149
5536.63352,0.06762
5538.56199,0.06628
5540.49046,0.06131
5542.41893,0.05939
5544.34740,0.06000
5546.27586,0.05888
5548.20433,0.05808
5550.13280,0.04937
5552.06127,0.03431
5553.98974,0.03613
5555.91821,0.06571
5557.84668,0.09325
5559.77514,0.10051
5561.70361,0.10661
5563.63208,0.10789
5565.56055,0.09039
5567.48902,0.06419
5569.41749,0.05270
5571.34596,0.06481
5573.27443,0.08151
5575.20289,0.08129
5577.13136,0.07178
5579.05983,0.06947
5580.98830,0.06343
5582.91677,0.05133
5584.84524,0.05634
5586.77371,0.07239
5588.70217,0.07371
5590.63064,0.06342
5592.55911,0.06297
5594.48758,0.06663
5596.41605,0.06632
5598.34452,0.06971
5600.27299,0.06686
5602.20145,0.05300
5604.12992,0.05133
5606.05839,0.06839
5607.98686,0.07184
5609.91533,0.05351
5611.84380,0.05399
5613.77227,0.08366
5615.70074,0.10015
5617.62920,0.08526
5619.55767,0.07453
5621.48614,0.08792
5623.41461,0.10112
5625.34308,0.10092
5627.27155,0.09623
5629.20002,0.09764
5631.12848,0.10207
5633.05695,0.09497
5634.98542,0.07362
5636.91389,0.05295
5638.84236,0.04443
5640.77083,0.05383
5642.69930,0.07240
5644.62777,0.07568
5646.55623,0.06856
5648.48470,0.07048
5650.41317,0.07707
5652.34164,0.08094
5654.27011,0.08263
5656.19858,0.08935
5658.12705,0.09428
5660.05551,0.08476
5661.98398,0.06710
5663.91245,0.04764
5665.84092,0.04043
5667.76939,0.06128
5669.69786,0.08891
5671.62633,0.10156
5673.55480,0.10597
5675.48326,0.10577
5677.41173,0.10089
5679.34020,0.09139
5681.26867,0.08385
5683.19714,0.08441
5685.12561,0.08269
5687.05408,0.07245
5688.98254,0.06241
5690.91101,0.06930
5692.83948,0.08563
5694.76795,0.08540
5696.69642,0.07837
5698.62489,0.08804
5700.55336,0.10474
5702.48183,0.11120
5704.41029,0.10436
5706.33876,0.09739
5708.26723,0.09681
5710.19570,0.08816
5712.12417,0.07665
5714.05264,0.08033
5715.98111,0.08979
5717.90957,0.07972
5719.83804,0.05932
5721.76651,0.05843
5723.69498,0.06915
5725.62345,0.07497
5727.55192,0.07496
5729.48039,0.08580
5731.40886,0.10432
5733.33732,0.10536
5735.26579,0.11171
5737.19426,0.12545
5739.12273,0.10026
5741.05120,0.05509
5742.97967,0.02529
5744.90814,0.01438
5746.83660,0.03696
5748.76507,0.07871
5750.69354,0.10229
5752.62201,0.10671
5754.55048,0.10295
5756.47895,0.09941
5758.40742,0.10514
5760.33588,0.11921
5762.26435,0.13193
5764.19282,0.13541
5766.12129,0.12689
5768.04976,0.10778
5769.97823,0.09477
5771.90670,0.08812
5773.83517,0.07602
5775.76363,0.07541
5777.69210,0.09195
5779.62057,0.10272
5781.54904,0.09863
5783.47751,0.09023
5785.40598,0.09702
5787.33445,0.11079
5789.26291,0.09594
5791.19138,0.07955
5793.11985,0.09581
5795.04832,0.10513
5796.97679,0.08314
5798.90526,0.07147
5800.83373,0.08779
5802.76220,0.09909
5804.69066,0.10474
5806.61913,0.11256
5808.54760,0.10392
5810.47607,0.08737
5812.40454,0.08381
5814.33301,0.10764
5816.26148,0.14420
5818.18994,0.14684
5820.11841,0.11779
5822.04688,0.09649
5823.97535,0.07939
5825.90382,0.05691
5827.83229,0.04181
5829.76076,0.04425
5831.68923,0.05198
5833.61769,0.06020
5835.54616,0.07460
5837.47463,0.07272
5839.40310,0.05214
5841.33157,0.03559
5843.26004,0.03744
5845.18851,0.07132
5847.11697,0.11844
5849.04544,0.12154
5850.97391,0.06974
5852.90238,0.03862
5854.83085,0.06111
5856.75932,0.09219
5858.68779,0.10263
5860.61626,0.10460
5862.54472,0.10343
5864.47319,0.08901
5866.40166,0.06956
5868.33013,0.07484
5870.25860,0.09489
5872.18707,0.09870
5874.11554,0.09129
5876.04400,0.07308
5877.97247,0.04776
5879.90094,0.04651
5881.82941,0.06492
5883.75788,0.06594
5885.68635,0.04761
5887.61482,0.04795
5889.54329,0.07816
5891.47175,0.10534
5893.40022,0.11000
5895.32869,0.10976
5897.25716,0.12334
5899.18563,0.14014
5901.11410,0.15517
5903.04257,0.16548
5904.97103,0.15116
5906.89950,0.11714
5908.82797,0.07744
5910.75644,0.04990
5912.68491,0.05239
5914.61338,0.06502
5916.54185,0.07571
5918.47032,0.08563
5920.39878,0.08172
5922.32725,0.06889
5924.25572,0.05943
5926.18419,0.06634
5928.11266,0.09639
5930.04113,0.13547
5931.96960,0.14919
5933.89806,0.11743
5935.82653,0.07279
5937.75500,0.04839
5939.68347,0.03489
5941.61194,0.01758
5943.54041,0.01285
5945.46888,0.03117
5947.39734,0.05085
5949.32581,0.05664
5951.25428,0.05605
5953.18275,0.05860
5955.11122,0.04922
5957.03969,0.03214
5958.96816,0.02824
5960.89663,0.03198
5962.82509,0.03860
5964.75356,0.04867
5966.68203,0.05966
5968.61050,0.07166
5970.53897,0.08391
5972.46744,0.09062
5974.39591,0.08427
5976.32437,0.07128
5978.25284,0.06513
5980.18131,0.07428
5982.10978,0.09157
5984.03825,0.09544
5985.96672,0.09637
5987.89519,0.11711
5989.82366,0.12568
5991.75212,0.10343
5993.68059,0.07559
5995.60906,0.05158
5997.53753,0.04629
5999.46600,0.07454
6001.39447,0.11128
6003.32294,0.12068
6005.25140,0.10723
6007.17987,0.10442
6009.10834,0.10978
6011.03681,0.10070
6012.96528,0.08674
6014.89375,0.10219
6016.82222,0.13987
6018.75069,0.13401
6020.67915,0.07757
6022.60762,0.02844
6024.53609,0.01398
6026.46456,0.03655
6028.39303,0.06683
6030.32150,0.06492
6032.24997,0.04245
6034.17843,0.03605
6036.10690,0.04196
6038.03537,0.05246
6039.96384,0.07907
6041.89231,0.09465
6043.82078,0.07569
6045.74925,0.05887
6047.67772,0.08672
6049.60618,0.13581
6051.53465,0.15684
6053.46312,0.14265
6055.39159,0.10121
6057.32006,0.05898
6059.24853,0.02874
6061.17700,0.02225
6063.10546,0.04858
6065.03393,0.06678
6066.96240,0.07221
6068.89087,0.09102
6070.81934,0.10842
6072.74781,0.11416
6074.67628,0.12614
6076.60475,0.11384
6078.53321,0.06117
6080.46168,0.04816
6082.39015,0.09520
6084.31862,0.12313
6086.24709,0.08800
6088.17556,0.03816
6090.10403,0.04079
6092.03249,0.07650
6093.96096,0.08603
6095.88943,0.06670
6097.81790,0.05667
6099.74637,0.06743
6101.67484,0.07096
6103.60331,0.05057
6105.53177,0.02151
6107.46024,-0.00138
6109.38871,-0.01296
6111.31718,0.01068
6113.24565,0.06981
6115.17412,0.10971
6117.10259,0.11250
6119.03106,0.09667
6120.95952,0.08628
6122.88799,0.09584
6124.81646,0.10722
6126.74493,0.09662
6128.67340,0.04914
6130.60187,0.01090
6132.53034,0.01303
6134.45880,0.02027
6136.38727,0.02834
6138.31574,0.03173
6140.24421,0.03304
6142.17268,0.05808
6144.10115,0.10159
6146.02962,0.13380
6147.95809,0.13047
6149.88655,0.10343
6151.81502,0.08306
6153.74349,0.06672
6155.67196,0.04241
6157.60043,0.03545
6159.52890,0.05459
6161.45737,0.10034
6163.38583,0.16895
6165.31430,0.18052
6167.24277,0.12943
6169.17124,0.08693
6171.09971,0.05321
6173.02818,0.00867
6174.95665,-0.01160
6176.88512,0.04046
6178.81358,0.09967
6180.74205,0.09492
6182.67052,0.09146
6184.59899,0.11991
6186.52746,0.13308
6188.45593,0.11232
6190.38440,0.08031
6192.31286,0.06162
6194.24133,0.05585
6196.16980,0.05578
6198.09827,0.05808
6200.02674,0.04237
6201.95521,0.01672
6203.88368,0.03671
6205.81215,0.11016
6207.74061,0.16829
6209.66908,0.15934
6211.59755,0.11074
6213.52602,0.07592
6215.45449,0.04658
6217.38296,0.02278
6219.31143,0.01058
6221.23989,-0.00876
6223.16836,-0.01203
6225.09683,0.03422
6227.02530,0.09358
6228.95377,0.12935
6230.88224,0.14045
6232.81071,0.11920
6234.73918,0.07815
6236.66764,0.06827
6238.59611,0.10535
6240.52458,0.15061
6242.45305,0.16756
6244.38152,0.14127
6246.30999,0.11058
6248.23846,0.12255
6250.16692,0.14963
6252.09539,0.14764
6254.02386,0.11696
6255.95233,0.08461
6257.88080,0.06406
6259.80927,0.06313
6261.73774,0.06973
6263.66621,0.05677
6265.59467,0.05453
6267.52314,0.06900
6269.45161,0.06723
6271.38008,0.08019
6273.30855,0.10768
6275.23702,0.08781
6277.16549,0.02078
6279.09395,-0.02864
6281.02242,-0.02592
6282.95089,0.02873
6284.87936,0.08497
6286.80783,0.09851
6288.73630,0.08894
6290.66477,0.08293
6292.59323,0.10248
6294.52170,0.12520
6296.45017,0.09834
6298.37864,0.04872
6300.30711,0.02710
6302.23558,0.01405
6304.16405,0.00109
6306.09252,0.02568
6308.02098,0.07726
6309.94945,0.12222
6311.87792,0.15490
6313.80639,0.16649
6315.73486,0.14118
6317.66333,0.10292
6319.59180,0.11245
6321.52026,0.13990
6323.44873,0.12653
6325.37720,0.12318
6327.30567,0.14165
6329.23414,0.15133
6331.16261,0.16361
6333.09108,0.14489
6335.01955,0.08497
6336.94801,0.04198
6338.87648,0.02285
6340.80495,0.01417
6342.73342,0.02218
6344.66189,0.05326
6346.59036,0.09097
6348.51883,0.08356
6350.44729,0.04781
6352.37576,0.05078
6354.30423,0.06112
6356.23270,0.03996
6358.16117,0.02308
6360.08964,0.01809
6362.01811,0.02059
6363.94658,0.06105
6365.87504,0.11137
6367.80351,0.14212
6369.73198,0.16622
6371.66045,0.15406
6373.58892,0.11844
6375.51739,0.11114
6377.44586,0.09851
6379.37432,0.04497
6381.30279,0.00481
6383.23126,0.04276
6385.15973,0.10994
6387.08820,0.12662
6389.01667,0.08354
6390.94514,-0.00889
6392.87361,-0.05246
6394.80207,0.02301
6396.73054,0.07835
6398.65901,0.06224
6400.58748,0.05331
6402.51595,0.05893
6404.44442,0.04679
6406.37289,0.04676
6408.30135,0.04334
6410.22982,0.00010
6412.15829,-0.01434
6414.08676,0.02193
6416.01523,0.07538
6417.94370,0.12157
6419.87217,0.12170
6421.80064,0.10686
6423.72910,0.09928
6425.65757,0.07748
6427.58604,0.05669
6429.51451,0.06392
6431.44298,0.08483
6433.37145,0.11759
6435.29992,0.17041
6437.22838,0.16941
6439.15685,0.08019
6441.08532,0.00612
6443.01379,0.00272
6444.94226,0.02919
6446.87073,0.03011
6448.79920,-0.00523
6450.72766,-0.02863
6452.65613,0.00421
6454.58460,0.05596
6456.51307,0.07951
6458.44154,0.05263
6460.37001,-0.00757
6462.29848,-0.05050
6464.22695,-0.03489
6466.15541,0.01340
6468.08388,0.03551
6470.01235,0.02165
6471.94082,0.01077
6473.86929,0.04728
6475.79776,0.09004
6477.72623,0.07029
6479.65469,0.03396
6481.58316,0.04192
6483.51163,0.06637
6485.44010,0.05511
6487.36857,0.00133
6489.29704,-0.04992
6491.22551,-0.03476
6493.15398,0.01667
6495.08244,0.02167
6497.01091,0.01069
6498.93938,0.03545
6500.86785,0.05466
6502.79632,0.01453
6504.72479,-0.01759
6506.65326,0.00421
6508.58172,0.03573
6510.51019,0.06498
6512.43866,0.08705
6514.36713,0.06485
6516.29560,0.02899
6518.22407,0.03492
6520.15254,0.07089
6522.08101,0.10980
6524.00947,0.11613
6525.93794,0.09250
6527.86641,0.07200
6529.79488,0.04259
6531.72335,0.01287
6533.65182,-0.01077
6535.58029,-0.00815
6537.50875,0.02975
6539.43722,0.04503
6541.36569,0.03189
6543.29416,0.04614
6545.22263,0.11540
6547.15110,0.19177
6549.07957,0.20301
6551.00804,0.14232
6552.93650,0.06579
6554.86497,0.01124
6556.79344,0.01313
6558.72191,0.06683
6560.65038,0.10552
6562.57885,0.08546
6564.50732,0.03910
6566.43578,0.01108
6568.36425,0.00442
6570.29272,0.02266
6572.22119,0.07472
6574.14966,0.13618
6576.07813,0.16041
6578.00660,0.13681
6579.93507,0.12028
6581.86353,0.13738
6583.79200,0.13055
6585.72047,0.07579
6587.64894,0.01396
6589.57741,-0.01454
6591.50588,0.01435
6593.43435,0.05808
6595.36281,0.04630
6597.29128,0.00150
6599.21975,-0.02749
6601.14822,-0.02301
6603.07669,0.00184
6605.00516,0.01398
6606.93363,0.01019
6608.86210,0.02130
6610.79056,0.04661
6612.71903,0.05328
6614.64750,0.02781
6616.57597,-0.01313
6618.50444,-0.01671
6620.43291,0.03130
6622.36138,0.08804
6624.28984,0.11517
6626.21831,0.12885
6628.14678,0.14977
6630.07525,0.13645
6632.00372,0.09671
6633.93219,0.11590
6635.86066,0.19917
6637.78912,0.20842
6639.71759,0.11390
6641.64606,0.05952
6643.57453,0.07284
6645.50300,0.05966
6647.43147,0.04496
6649.35994,0.05897
6651.28841,0.05411
6653.21687,0.03067
6655.14534,-0.00126
6657.07381,0.00207
6659.00228,0.06604
6660.93075,0.10189
6662.85922,0.07267
6664.78769,0.01793
6666.71615,-0.03634
6668.64462,-0.03944
6670.57309,0.04189
6672.50156,0.09998
6674.43003,0.05670
6676.35850,0.04365
6678.28697,0.12115
6680.21544,0.18620
6682.14390,0.18257
6684.07237,0.13143
6686.00084,0.07803
6687.92931,0.06817
6689.85778,0.06413
6691.78625,0.03380
6693.71472,0.01900
6695.64318,0.00228
6697.57165,-0.03458
6699.50012,-0.01744
6701.42859,0.06115
6703.35706,0.09891
6705.28553,0.10505
6707.21400,0.11398
6709.14247,0.06307
6711.07093,0.01151
6712.99940,0.02573
6714.92787,0.04197
6716.85634,0.03631
6718.78481,0.05425
6720.71328,0.06064
6722.64175,0.02594
6724.57021,0.03062
6726.49868,0.08557
6728.42715,0.12205
6730.35562,0.12542
6732.28409,0.13529
6734.21256,0.16053
6736.14103,0.15222
6738.06950,0.10161
6739.99796,0.05944
6741.92643,0.06557
6743.85490,0.10939
6745.78337,0.12191
6747.71184,0.10929
6749.64031,0.12986
6751.56878,0.11030
6753.49724,0.04164
6755.42571,0.04203
6757.35418,0.07511
6759.28265,0.05161
6761.21112,0.00324
6763.13959,-0.02876
6765.06806,-0.04966
6766.99653,-0.03763
6768.92499,-0.01825
6770.85346,-0.02343
6772.78193,-0.00793
6774.71040,0.05133
6776.63887,0.10416
6778.56734,0.10732
6780.49581,0.04977
6782.42427,-0.04594
6784.35274,-0.09497
6786.28121,-0.08892
6788.20968,-0.08850
6790.13815,-0.09001
6792.06662,-0.04694
6793.99509,0.04764
6795.92355,0.13431
6797.85202,0.17235
6799.78049,0.17274
6801.70896,0.13875
6803.63743,0.10157
6805.56590,0.08473
6807.49437,0.08078
6809.42284,0.10254
6811.35130,0.15059
6813.27977,0.20075
6815.20824,0.24100
6817.13671,0.24490
6819.06518,0.20470
6820.99365,0.14010
6822.92212,0.08085
6824.85058,0.07490
6826.77905,0.07075
6828.70752,0.02968
6830.63599,0.00265
6832.56446,0.02989
6834.49293,0.08868
6836.42140,0.08624
6838.34987,0.02787
6840.27833,0.00381
6842.20680,-0.00937
6844.13527,-0.00823
6846.06374,0.00061
6847.99221,-0.02952
6849.92068,-0.02892
6851.84915,0.02314
6853.77761,0.02522
6855.70608,-0.04474
6857.63455,-0.08963
6859.56302,-0.06460
6861.49149,-0.03718
6863.41996,-0.04095
6865.34843,-0.03940
6867.27690,-0.00885
6869.20536,0.01728
6871.13383,-0.00048
6873.06230,-0.01624
6874.99077,-0.00025
6876.91924,-0.02173
6878.84771,-0.03350
6880.77618,0.07030
6882.70464,0.15893
6884.63311,0.10593
6886.56158,0.02335
6888.49005,0.05326
6890.41852,0.12419
6892.34699,0.13986
6894.27546,0.16895
6896.20393,0.21227
6898.13239,0.21622
6900.06086,0.19584
6901.98933,0.16951
6903.91780,0.15293
6905.84627,0.13457
6907.77474,0.11208
6909.70321,0.10643
6911.63167,0.08620
6913.56014,0.01408
6915.48861,-0.05580
6917.41708,-0.04462
6919.34555,0.04137
6921.27402,0.12073
6923.20249,0.10964
6925.13096,0.02588
6927.05942,-0.03140
6928.98789,-0.04172
6930.91636,-0.06232
6932.84483,-0.04763
6934.77330,0.01299
6936.70177,0.00958
6938.63024,-0.03265
6940.55870,0.01121
6942.48717,0.10906
6944.41564,0.12240
6946.34411,0.04395
6948.27258,-0.01672
6950.20105,-0.02279
6952.12952,-0.02156
6954.05799,-0.02613
6955.98645,-0.03268
6957.91492,-0.02532
6959.84339,-0.01594
6961.77186,-0.00053
6963.70033,0.07078
6965.62880,0.17758
6967.55727,0.24290
6969.48573,0.21041
6971.41420,0.11279
6973.34267,0.05337
6975.27114,0.05696
6977.19961,0.09323
6979.12808,0.12252
6981.05655,0.10328
6982.98501,0.09161
6984.91348,0.14518
6986.84195,0.18680
6988.77042,0.14861
6990.69889,0.10001
6992.62736,0.09060
6994.55583,0.07927
6996.48430,0.06797
6998.41276,0.10044
7000.34123,0.14137
7002.26970,0.10678
7004.19817,0.03989
7006.12664,0.02076
7008.05511,0.05106
7009.98358,0.09993
7011.91204,0.11086
7013.84051,0.06441
7015.76898,0.03983
7017.69745,0.07759
7019.62592,0.14609
7021.55439,0.19440
7023.48286,0.19058
7025.41133,0.14387
7027.33979,0.12017
7029.26826,0.16085
7031.19673,0.15269
7033.12520,0.01507
7035.05367,-0.13167
7036.98214,-0.11142
7038.91061,0.00864
7040.83907,0.03800
7042.76754,-0.05831
7044.69601,-0.09450
7046.62448,-0.01675
7048.55295,0.05799
7050.48142,0.06541
7052.40989,0.03977
7054.33836,0.03996
7056.26682,0.03139
7058.19529,-0.03207
7060.12376,-0.08682
7062.05223,-0.12019
7063.98070,-0.09362
7065.90917,0.00041
7067.83764,0.03638
7069.76610,-0.00709
7071.69457,0.00601
7073.62304,0.12039
7075.55151,0.20527
7077.47998,0.19341
7079.40845,0.12889
7081.33692,0.07244
7083.26539,0.01611
7085.19385,-0.03824
7087.12232,-0.03828
7089.05079,-0.05077
7090.97926,-0.10895
7092.90773,-0.05998
7094.83620,0.06851
7096.76467,0.09594
7098.69313,0.04345
7100.62160,0.05105
7102.55007,0.08077
7104.47854,0.04959
7106.40701,0.00944
7108.33548,0.02431
7110.26395,0.03682
7112.19242,0.03476
7114.12088,0.06681
7116.04935,0.12210
7117.97782,0.16118
7119.90629,0.20176
7121.83476,0.23681
7123.76323,0.17922
7125.69170,0.03755
7127.62016,-0.03980
7129.54863,-0.00807
7131.47710,0.02864
7133.40557,0.00006
7135.33404,-0.05190
7137.26251,-0.05625
7139.19098,-0.01737
7141.11944,0.04491
7143.04791,0.10526
7144.97638,0.11351
7146.90485,0.15178
7148.83332,0.25642
7150.76179,0.26392
7152.69026,0.18265
7154.61873,0.13930
7156.54719,0.03331
7158.47566,-0.11961
7160.40413,-0.15256
7162.33260,-0.07977
7164.26107,0.02506
7166.18954,0.16016
7168.11801,0.21381
7170.04647,0.12514
7171.97494,0.05661
7173.90341,0.08211
7175.83188,0.10078
7177.76035,0.02733
7179.68882,-0.09887
7181.61729,-0.20780
7183.54576,-0.20744
7185.47422,-0.04969
7187.40269,0.10477
7189.33116,0.13898
7191.25963,0.05954
7193.18810,-0.01100
7195.11657,0.00877
7197.04504,0.06689
7198.97350,0.11090
7200.90197,0.09432
7202.83044,0.04528
7204.75891,0.04034
7206.68738,0.02584
7208.61585,-0.01384
7210.54432,-0.00730
7212.47279,0.02793
7214.40125,0.05554
7216.32972,0.09664
7218.25819,0.11349
7220.18666,0.06933
7222.11513,0.06988
7224.04360,0.08098
7225.97207,0.01792
7227.90053,-0.00202
7229.82900,0.07153
7231.75747,0.10634
7233.68594,0.08185
7235.61441,0.01666
7237.54288,-0.06785
7239.47135,-0.06905
7241.39982,-0.02116
7243.32828,-0.01140
7245.25675,-0.00636
7247.18522,-0.00900
7249.11369,-0.06400
7251.04216,-0.12037
7252.97063,-0.06721
7254.89910,0.03215
7256.82756,0.09646
7258.75603,0.15698
7260.68450,0.14232
7262.61297,0.09518
7264.54144,0.15410
7266.46991,0.13398
7268.39838,0.02122
7270.32685,-0.00880
7272.25531,-0.00145
7274.18378,-0.06674
7276.11225,-0.10102
7278.04072,-0.05981
7279.96919,0.04573
7281.89766,0.10928
7283.82613,0.04646
7285.75459,-0.03887
7287.68306,-0.01174
7289.61153,0.13000
7291.54000,0.26575
7293.46847,0.30644
7295.39694,0.24121
7297.32541,0.15957
7299.25387,0.18663
7301.18234,0.22648
7303.11081,0.16339
7305.03928,0.09175
7306.96775,0.07502
7308.89622,0.04933
7310.82469,-0.04359
7312.75316,-0.11893
7314.68162,-0.08081
7316.61009,0.04904
7318.53856,0.17274
7320.46703,0.21712
7322.39550,0.17496
7324.32397,0.16763
7326.25244,0.23930
7328.18090,0.25352
7330.10937,0.17698
7332.03784,0.15990
7333.96631,0.13589
7335.89478,0.05446
7337.82325,0.05375
7339.75172,0.18659
7341.68019,0.22938
7343.60865,0.19625
7345.53712,0.21912
7347.46559,0.29866
7349.39406,0.37094
7351.32253,0.30761
7353.25100,0.14291
7355.17947,0.04853
7357.10793,0.04095
7359.03640,0.01343
7360.96487,-0.04922
7362.89334,-0.08230
7364.82181,-0.05890
7366.75028,0.03293
7368.67875,0.12397
7370.60722,0.11788
7372.53568,0.03319
7374.46415,-0.08652
7376.39262,-0.05626
7378.32109,0.15681
7380.24956,0.28785
7382.17803,0.24573
7384.10650,0.21285
7386.03496,0.24222
7387.96343,0.14295
7389.89190,-0.08027
7391.82037,-0.28181
7393.74884,-0.37909
7395.67731,-0.26695
7397.60578,-0.01878
7399.53425,0.16563
7401.46271,0.28854
7403.39118,0.35031
7405.31965,0.22906
7407.24812,0.03195
7409.17659,-0.07890
7411.10506,-0.10361
7413.03353,0.00335
7414.96199,0.18770
7416.89046,0.23354
7418.81893,0.13939
7420.74740,0.07340
7422.67587,0.05627
7424.60434,0.11462
7426.53281,0.17001
7428.46128,0.17775
7430.38974,0.17168
7432.31821,0.16424
7434.24668,0.14242
7436.17515,0.14300
7438.10362,0.16275
7440.03209,0.04527
7441.96056,-0.11941
7443.88902,-0.09923
7445.81749,0.01011
7447.74596,0.05971
7449.67443,0.05428
7451.60290,0.02541
7453.53137,0.00291
7455.45984,0.00899
7457.38831,0.05317
7459.31677,0.12995
7461.24524,0.20367
7463.17371,0.24066
7465.10218,0.20658
7467.03065,0.16237
7468.95912,0.11002
7470.88759,-0.01001
7472.81605,-0.00828
7474.74452,0.17738
7476.67299,0.34262
7478.60146,0.33421
7480.52993,0.18530
7482.45840,0.03639
7484.38687,-0.03594
7486.31533,-0.01874
7488.24380,0.03494
7490.17227,0.04369
7492.10074,0.00096
7494.02921,-0.01850
7495.95768,-0.00239
7497.88615,-0.01228
