399.19301,0.22056
401.12148,-0.06296
403.04995,-0.07195
404.97842,0.06663
406.90689,0.14217
408.83536,0.16809
410.76382,0.12522
412.69229,0.01879
414.62076,-0.07585
416.54923,-0.09163
418.47770,0.03896
420.40617,0.16854
422.33464,0.12844
424.26311,0.03981
426.19157,-0.01783
428.12004,-0.02741
430.04851,0.01213
431.97698,0.01804
433.90545,-0.03788
435.83392,-0.02340
437.76239,0.06058
439.69085,0.08777
441.61932,0.01679
443.54779,-0.02243
445.47626,0.01078
447.40473,0.01080
449.33320,-0.04991
451.26167,-0.12519
453.19013,-0.12426
455.11860,-0.02953
457.04707,0.03740
458.97554,0.01468
460.90401,-0.00199
462.83248,0.03580
464.76095,0.10941
466.68942,0.18977
468.61788,0.24690
470.54635,0.26768
472.47482,0.27842
474.40329,0.27169
476.33176,0.24323
478.26023,0.25851
480.18870,0.27748
482.11716,0.25524
484.04563,0.22953
485.97410,0.23304
487.90257,0.23435
489.83104,0.22132
491.75951,0.20931
493.68798,0.18015
495.61645,0.12841
497.54491,0.08888
499.47338,0.08416
501.40185,0.11975
503.33032,0.16737
505.25879,0.18684
507.18726,0.17562
509.11573,0.15028
511.04419,0.12996
512.97266,0.11189
514.90113,0.09417
516.82960,0.09735
518.75807,0.11881
520.68654,0.12167
522.61501,0.10758
524.54348,0.09558
526.47194,0.08638
528.40041,0.07820
530.32888,0.06926
532.25735,0.06322
534.18582,0.06823
536.11429,0.07455
538.04276,0.05849
539.97122,0.03508
541.89969,0.05186
543.82816,0.10157
545.75663,0.12139
547.68510,0.11682
549.61357,0.12813
551.54204,0.11616
553.47051,0.06216
555.39897,0.02261
557.32744,0.03172
559.25591,0.06781
561.18438,0.08422
563.11285,0.06943
565.04132,0.05767
566.96979,0.06680
568.89825,0.07449
570.82672,0.07200
572.75519,0.08897
574.68366,0.12043
576.61213,0.12569
578.54060,0.10735
580.46907,0.08819
582.39754,0.08103
584.32600,0.09243
586.25447,0.10921
588.18294,0.11248
590.11141,0.09947
592.03988,0.08214
593.96835,0.08235
595.89682,0.09910
597.82528,0.11279
599.75375,0.12126
601.68222,0.13045
603.61069,0.13734
605.53916,0.13037
607.46763,0.10618
609.39610,0.07870
611.32456,0.06534
613.25303,0.07591
615.18150,0.10091
617.10997,0.11909
619.03844,0.11855
620.96691,0.10357
622.89538,0.09281
624.82385,0.10358
626.75231,0.12599
628.68078,0.13614
630.60925,0.13121
632.53772,0.11949
634.46619,0.11477
636.39466,0.12696
638.32313,0.13987
640.25159,0.14119
642.18006,0.13170
644.10853,0.11058
646.03700,0.09685
647.96547,0.10468
649.89394,0.10972
651.82241,0.09843
653.75088,0.08408
655.67934,0.07551
657.60781,0.07970
659.53628,0.09849
661.46475,0.12618
663.39322,0.14486
665.32169,0.13614
667.25016,0.10331
669.17862,0.07408
671.10709,0.07548
673.03556,0.09480
674.96403,0.10860
676.89250,0.10152
678.82097,0.08971
680.74944,0.07935
682.67791,0.06906
684.60637,0.06899
686.53484,0.07775
688.46331,0.08435
690.39178,0.09356
692.32025,0.10559
694.24872,0.10787
696.17719,0.10908
698.10565,0.11865
700.03412,0.12782
701.96259,0.12950
703.89106,0.11952
705.81953,0.10422
707.74800,0.09569
709.67647,0.09449
711.60494,0.09830
713.53340,0.10845
715.46187,0.12344
717.39034,0.13581
719.31881,0.13923
721.24728,0.13640
723.17575,0.13076
725.10422,0.12646
727.03268,0.12779
728.96115,0.12947
730.88962,0.12880
732.81809,0.12580
734.74656,0.12066
736.67503,0.11785
738.60350,0.11284
740.53197,0.10380
742.46043,0.09998
744.38890,0.10344
746.31737,0.11148
748.24584,0.12100
750.17431,0.12883
752.10278,0.13461
754.03125,0.13664
755.95971,0.13444
757.88818,0.12785
759.81665,0.12021
761.74512,0.11978
763.67359,0.12452
765.60206,0.12637
767.53053,0.12585
769.45900,0.12696
771.38746,0.12923
773.31593,0.13367
775.24440,0.13892
777.17287,0.13683
779.10134,0.12701
781.02981,0.11535
782.95828,0.10951
784.88674,0.11482
786.81521,0.12209
788.74368,0.11887
790.67215,0.10979
792.60062,0.10893
794.52909,0.11940
796.45756,0.12661
798.38602,0.11994
800.31449,0.11074
802.24296,0.10584
804.17143,0.10307
806.09990,0.11133
808.02837,0.12477
809.95684,0.12710
811.88531,0.12134
813.81377,0.11804
815.74224,0.11672
817.67071,0.11121
819.59918,0.10680
821.52765,0.10755
823.45612,0.10857
825.38459,0.11354
827.31305,0.12410
829.24152,0.12846
831.16999,0.12561
833.09846,0.12561
835.02693,0.12895
836.95540,0.13049
838.88387,0.12795
840.81234,0.12389
842.74080,0.12260
844.66927,0.12100
846.59774,0.11507
848.52621,0.11099
850.45468,0.11924
852.38315,0.13641
854.31162,0.14676
856.24008,0.14374
858.16855,0.13238
860.09702,0.12410
862.02549,0.12697
863.95396,0.13237
865.88243,0.12973
867.81090,0.12006
869.73937,0.11870
871.66783,0.13732
873.59630,0.15270
875.52477,0.14850
877.45324,0.14101
879.38171,0.13392
881.31018,0.12660
883.23865,0.12889
885.16711,0.13959
887.09558,0.14896
889.02405,0.14966
890.95252,0.14348
892.88099,0.13752
894.80946,0.13434
896.73793,0.13169
898.66640,0.12798
900.59486,0.12676
902.52333,0.13175
904.45180,0.13937
906.38027,0.13908
908.30874,0.13055
910.23721,0.12735
912.16568,0.13169
914.09414,0.13543
916.02261,0.13608
917.95108,0.13293
919.87955,0.12741
921.80802,0.12489
923.73649,0.12772
925.66496,0.13362
927.59343,0.13673
929.52189,0.13308
931.45036,0.12906
933.37883,0.13110
935.30730,0.13467
937.23577,0.13372
939.16424,0.13011
941.09271,0.12832
943.02117,0.12960
944.94964,0.13192
946.87811,0.13281
948.80658,0.13483
950.73505,0.13833
952.66352,0.13953
954.59199,0.13875
956.52045,0.13656
958.44892,0.13437
960.37739,0.13669
962.30586,0.14179
964.23433,0.14172
966.16280,0.13744
968.09127,0.13728
970.01974,0.13845
971.94820,0.13305
973.87667,0.12912
975.80514,0.13698
977.73361,0.14568
979.66208,0.14483
981.59055,0.14090
983.51902,0.14050
985.44748,0.14459
987.37595,0.14839
989.30442,0.14893
991.23289,0.15181
993.16136,0.15811
995.08983,0.16001
997.01830,0.15538
998.94677,0.14969
1000.87523,0.14507
1002.80370,0.14394
1004.73217,0.14741
1006.66064,0.15082
1008.58911,0.15234
1010.51758,0.15284
1012.44605,0.15329
1014.37451,0.15328
1016.30298,0.14941
1018.23145,0.14348
1020.15992,0.14323
1022.08839,0.14763
1024.01686,0.14785
1025.94533,0.14467
1027.87380,0.14234
1029.80226,0.13891
1031.73073,0.13435
1033.65920,0.13310
1035.58767,0.13638
1037.51614,0.14047
1039.44461,0.14323
1041.37308,0.14340
1043.30154,0.14245
1045.23001,0.14498
1047.15848,0.14681
1049.08695,0.14350
1051.01542,0.14095
1052.94389,0.14121
1054.87236,0.14025
1056.80083,0.13683
1058.72929,0.13148
1060.65776,0.13111
1062.58623,0.14060
1064.51470,0.14843
1066.44317,0.14745
1068.37164,0.14545
1070.30011,0.14427
1072.22857,0.14002
1074.15704,0.13785
1076.08551,0.14391
1078.01398,0.15162
1079.94245,0.15513
1081.87092,0.15991
1083.79939,0.16699
1085.72786,0.16894
1087.65632,0.16351
1089.58479,0.15457
1091.51326,0.14862
1093.44173,0.15167
1095.37020,0.15819
1097.29867,0.15901
1099.22714,0.15735
1101.15560,0.16249
1103.08407,0.17155
1105.01254,0.16965
1106.94101,0.16062
1108.86948,0.16356
1110.79795,0.17395
1112.72642,0.17508
1114.65489,0.16828
1116.58335,0.16070
1118.51182,0.15737
1120.44029,0.15892
1122.36876,0.15766
1124.29723,0.15510
1126.22570,0.15504
1128.15417,0.15297
1130.08263,0.14925
1132.01110,0.14636
1133.93957,0.14553
1135.86804,0.14557
1137.79651,0.14636
1139.72498,0.15043
1141.65345,0.15316
1143.58191,0.15216
1145.51038,0.15299
1147.43885,0.15793
1149.36732,0.16213
1151.29579,0.16184
1153.22426,0.16023
1155.15273,0.16069
1157.08120,0.16387
1159.00966,0.16794
1160.93813,0.16802
1162.86660,0.16169
1164.79507,0.15357
1166.72354,0.15014
1168.65201,0.15262
1170.58048,0.15380
1172.50894,0.14716
1174.43741,0.14184
1176.36588,0.14684
1178.29435,0.15522
1180.22282,0.15956
1182.15129,0.15778
1184.07976,0.15118
1186.00823,0.14623
1187.93669,0.14571
1189.86516,0.14556
1191.79363,0.14848
1193.72210,0.15602
1195.65057,0.15768
1197.57904,0.15231
1199.50751,0.14905
1201.43597,0.14973
1203.36444,0.15244
1205.29291,0.15543
1207.22138,0.15662
1209.14985,0.15714
1211.07832,0.15929
1213.00679,0.16275
1214.93526,0.16519
1216.86372,0.16529
1218.79219,0.16471
1220.72066,0.16473
1222.64913,0.16433
1224.57760,0.16211
1226.50607,0.15943
1228.43454,0.15943
1230.36300,0.16096
1232.29147,0.16045
1234.21994,0.15775
1236.14841,0.15545
1238.07688,0.15560
1240.00535,0.15830
1241.93382,0.16224
1243.86229,0.16525
1245.79075,0.16552
1247.71922,0.16409
1249.64769,0.16294
1251.57616,0.16164
1253.50463,0.16051
1255.43310,0.16133
1257.36157,0.16317
1259.29003,0.16335
1261.21850,0.16092
1263.14697,0.15831
1265.07544,0.15842
1267.00391,0.16090
1268.93238,0.16496
1270.86085,0.16823
1272.78932,0.16685
1274.71778,0.16349
1276.64625,0.16178
1278.57472,0.16198
1280.50319,0.16428
1282.43166,0.16594
1284.36013,0.16683
1286.28860,0.16925
1288.21706,0.17001
1290.14553,0.16718
1292.07400,0.16490
1294.00247,0.16596
1295.93094,0.16805
1297.85941,0.16818
1299.78788,0.16583
1301.71634,0.16112
1303.64481,0.15751
1305.57328,0.15979
1307.50175,0.16478
1309.43022,0.16812
1311.35869,0.17172
1313.28716,0.17633
1315.21563,0.17964
1317.14409,0.18058
1319.07256,0.17819
1321.00103,0.17276
1322.92950,0.16839
1324.85797,0.16676
1326.78644,0.16615
1328.71491,0.16551
1330.64337,0.16527
1332.57184,0.16747
1334.50031,0.17226
1336.42878,0.17831
1338.35725,0.18323
1340.28572,0.18215
1342.21419,0.17540
1344.14266,0.16795
1346.07112,0.16418
1347.99959,0.16645
1349.92806,0.17029
1351.85653,0.17095
1353.78500,0.16967
1355.71347,0.16869
1357.64194,0.17172
1359.57040,0.18154
1361.49887,0.19214
1363.42734,0.19160
1365.35581,0.18222
1367.28428,0.17454
1369.21275,0.17033
1371.14122,0.17257
1373.06969,0.18301
1374.99815,0.19100
1376.92662,0.18858
1378.85509,0.18268
1380.78356,0.17644
1382.71203,0.17182
1384.64050,0.17567
1386.56897,0.18525
1388.49743,0.18609
1390.42590,0.18138
1392.35437,0.18368
1394.28284,0.19190
1396.21131,0.19682
1398.13978,0.19355
1400.06825,0.18389
1401.99672,0.17757
1403.92518,0.17877
1405.85365,0.17860
1407.78212,0.17464
1409.71059,0.17357
1411.63906,0.17491
1413.56753,0.17714
1415.49600,0.18384
1417.42446,0.19580
1419.35293,0.20031
1421.28140,0.19452
1423.20987,0.19190
1425.13834,0.18885
1427.06681,0.18367
1428.99528,0.18192
1430.92375,0.18211
1432.85221,0.18245
1434.78068,0.18739
1436.70915,0.19163
1438.63762,0.18441
1440.56609,0.17790
1442.49456,0.17744
1444.42303,0.17933
1446.35149,0.18420
1448.27996,0.19022
1450.20843,0.19221
1452.13690,0.19388
1454.06537,0.20258
1455.99384,0.22120
1457.92231,0.22731
1459.85077,0.20963
1461.77924,0.20014
1463.70771,0.20154
1465.63618,0.20072
1467.56465,0.19532
1469.49312,0.19905
1471.42159,0.21589
1473.35006,0.22859
1475.27852,0.21996
1477.20699,0.20449
1479.13546,0.19334
1481.06393,0.18780
1482.99240,0.18617
1484.92087,0.19260
1486.84934,0.20957
1488.77780,0.22438
1490.70627,0.21565
1492.63474,0.20124
1494.56321,0.20322
1496.49168,0.21631
1498.42015,0.21752
1500.34862,0.20717
1502.27709,0.20654
1504.20555,0.22467
1506.13402,0.26278
1508.06249,0.26729
1509.99096,0.23386
1511.91943,0.21433
1513.84790,0.21527
1515.77637,0.23173
1517.70483,0.24707
1519.63330,0.25738
1521.56177,0.26363
1523.49024,0.25053
1525.41871,0.23424
1527.34718,0.21979
1529.27565,0.20683
1531.20412,0.20641
1533.13258,0.21457
1535.06105,0.21310
1536.98952,0.21496
1538.91799,0.24206
1540.84646,0.27433
1542.77493,0.25857
1544.70340,0.22547
1546.63186,0.20366
1548.56033,0.20199
1550.48880,0.20892
1552.41727,0.21565
1554.34574,0.22733
1556.27421,0.25032
1558.20268,0.28449
1560.13115,0.26049
1562.05961,0.21817
1563.98808,0.20245
1565.91655,0.20071
1567.84502,0.20826
1569.77349,0.21511
1571.70196,0.20979
1573.63043,0.20864
1575.55889,0.21519
1577.48736,0.20890
1579.41583,0.19484
1581.34430,0.18792
1583.27277,0.18628
1585.20124,0.18520
1587.12971,0.18466
1589.05818,0.18663
1590.98664,0.18894
1592.91511,0.18989
1594.84358,0.19065
1596.77205,0.18965
1598.70052,0.18650
1600.62899,0.18493
1602.55746,0.18610
1604.48592,0.18719
1606.41439,0.18800
1608.34286,0.19035
1610.27133,0.19254
1612.19980,0.19438
1614.12827,0.20191
1616.05674,0.21499
1617.98521,0.21440
1619.91367,0.20759
1621.84214,0.21169
1623.77061,0.21818
1625.69908,0.21853
1627.62755,0.21583
1629.55602,0.20959
1631.48449,0.20740
1633.41295,0.21855
1635.34142,0.23798
1637.26989,0.23178
1639.19836,0.21207
1641.12683,0.20323
1643.05530,0.20742
1644.98377,0.22719
1646.91223,0.25144
1648.84070,0.25173
1650.76917,0.25602
1652.69764,0.27672
1654.62611,0.25188
1656.55458,0.21529
1658.48305,0.20296
1660.41152,0.20719
1662.33998,0.21397
1664.26845,0.20892
1666.19692,0.20685
1668.12539,0.22189
1670.05386,0.23676
1671.98233,0.23201
1673.91080,0.22560
1675.83926,0.21812
1677.76773,0.21178
1679.69620,0.21731
1681.62467,0.23603
1683.55314,0.25823
1685.48161,0.24841
1687.41008,0.22635
1689.33855,0.21392
1691.26701,0.20669
1693.19548,0.21127
1695.12395,0.23188
1697.05242,0.25175
1698.98089,0.25359
1700.90936,0.23830
1702.83783,0.22586
1704.76629,0.22479
1706.69476,0.21857
1708.62323,0.20613
1710.55170,0.20240
1712.48017,0.21142
1714.40864,0.23141
1716.33711,0.25130
1718.26558,0.23796
1720.19404,0.20816
1722.12251,0.19356
1724.05098,0.18965
1725.97945,0.19033
1727.90792,0.19798
1729.83639,0.21137
1731.76486,0.22523
1733.69332,0.23099
1735.62179,0.21845
1737.55026,0.21020
1739.47873,0.21203
1741.40720,0.21376
1743.33567,0.21238
1745.26414,0.21248
1747.19261,0.21863
1749.12107,0.22473
1751.04954,0.21666
1752.97801,0.20338
1754.90648,0.20033
1756.83495,0.20357
1758.76342,0.20421
1760.69189,0.20557
1762.62035,0.20468
1764.54882,0.19898
1766.47729,0.19820
1768.40576,0.20473
1770.33423,0.21789
1772.26270,0.22757
1774.19117,0.21714
1776.11964,0.20239
1778.04810,0.19711
1779.97657,0.19853
1781.90504,0.19875
1783.83351,0.19684
1785.76198,0.19423
1787.69045,0.19263
1789.61892,0.19860
1791.54738,0.21089
1793.47585,0.21385
1795.40432,0.20743
1797.33279,0.20329
1799.26126,0.20285
1801.18973,0.20135
1803.11820,0.19629
1805.04666,0.19255
1806.97513,0.19370
1808.90360,0.19793
1810.83207,0.19846
1812.76054,0.19221
1814.68901,0.18719
1816.61748,0.18769
1818.54595,0.18983
1820.47441,0.19171
1822.40288,0.19562
1824.33135,0.20049
1826.25982,0.20390
1828.18829,0.20994
1830.11676,0.21280
1832.04523,0.20298
1833.97369,0.19399
1835.90216,0.19363
1837.83063,0.19566
1839.75910,0.19671
1841.68757,0.20033
1843.61604,0.20581
1845.54451,0.20682
1847.47298,0.20322
1849.40144,0.19713
1851.32991,0.19096
1853.25838,0.18878
1855.18685,0.19036
1857.11532,0.19196
1859.04379,0.19187
1860.97226,0.19176
1862.90072,0.19295
1864.82919,0.19590
1866.75766,0.20157
1868.68613,0.20541
1870.61460,0.20023
1872.54307,0.19288
1874.47154,0.18950
1876.40001,0.18768
1878.32847,0.18570
1880.25694,0.18523
1882.18541,0.18693
1884.11388,0.18929
1886.04235,0.19273
1887.97082,0.19783
1889.89929,0.19911
1891.82775,0.19505
1893.75622,0.19218
1895.68469,0.19100
1897.61316,0.19013
1899.54163,0.19139
1901.47010,0.19300
1903.39857,0.19255
1905.32704,0.19155
1907.25550,0.19167
1909.18397,0.19210
1911.11244,0.19141
1913.04091,0.19078
1914.96938,0.19264
1916.89785,0.19728
1918.82632,0.20073
1920.75478,0.20129
1922.68325,0.20039
1924.61172,0.19687
1926.54019,0.19272
1928.46866,0.18971
1930.39713,0.18749
1932.32560,0.18747
1934.25407,0.18888
1936.18253,0.18900
1938.11100,0.18941
1940.03947,0.19446
1941.96794,0.20115
1943.89641,0.20128
1945.82488,0.19575
1947.75335,0.19103
1949.68181,0.19070
1951.61028,0.19302
1953.53875,0.19357
1955.46722,0.19205
1957.39569,0.19124
1959.32416,0.19304
1961.25263,0.19574
1963.18110,0.19680
1965.10956,0.19770
1967.03803,0.19854
1968.96650,0.19671
1970.89497,0.19343
1972.82344,0.19030
1974.75191,0.18677
1976.68038,0.18498
1978.60884,0.18741
1980.53731,0.19079
1982.46578,0.19180
1984.39425,0.19209
1986.32272,0.19225
1988.25119,0.19201
1990.17966,0.19365
1992.10812,0.19583
1994.03659,0.19454
1995.96506,0.19196
1997.89353,0.19144
1999.82200,0.19169
2001.75047,0.19076
2003.67894,0.18976
2005.60741,0.19031
2007.53587,0.19094
2009.46434,0.19003
2011.39281,0.18917
2013.32128,0.19026
2015.24975,0.19259
2017.17822,0.19317
2019.10669,0.19084
2021.03515,0.18962
2022.96362,0.19114
2024.89209,0.19125
2026.82056,0.18915
2028.74903,0.18861
2030.67750,0.19100
2032.60597,0.19331
2034.53444,0.19350
2036.46290,0.19309
2038.39137,0.19139
2040.31984,0.18887
2042.24831,0.18953
2044.17678,0.19208
2046.10525,0.19234
2048.03372,0.19100
2049.96218,0.19111
2051.89065,0.19253
2053.81912,0.19315
2055.74759,0.19295
2057.67606,0.19302
2059.60453,0.19317
2061.53300,0.19173
2063.46147,0.18967
2065.38993,0.19037
2067.31840,0.19326
2069.24687,0.19511
2071.17534,0.19491
2073.10381,0.19426
2075.03228,0.19429
2076.96075,0.19477
2078.88921,0.19543
2080.81768,0.19567
2082.74615,0.19605
2084.67462,0.19626
2086.60309,0.19472
2088.53156,0.19238
2090.46003,0.19152
2092.38850,0.19304
2094.31696,0.19454
2096.24543,0.19343
2098.17390,0.19122
2100.10237,0.19126
2102.03084,0.19389
2103.95931,0.19570
2105.88778,0.19476
2107.81624,0.19339
2109.74471,0.19372
2111.67318,0.19460
2113.60165,0.19474
2115.53012,0.19411
2117.45859,0.19302
2119.38706,0.19229
2121.31553,0.19196
2123.24399,0.19158
2125.17246,0.19215
2127.10093,0.19457
2129.02940,0.19664
2130.95787,0.19658
2132.88634,0.19646
2134.81481,0.19798
2136.74327,0.19843
2138.67174,0.19494
2140.60021,0.19112
2142.52868,0.19155
2144.45715,0.19420
2146.38562,0.19500
2148.31409,0.19382
2150.24255,0.19387
2152.17102,0.19592
2154.09949,0.19730
2156.02796,0.19611
2157.95643,0.19334
2159.88490,0.19255
2161.81337,0.19464
2163.74184,0.19568
2165.67030,0.19359
2167.59877,0.19171
2169.52724,0.19240
2171.45571,0.19372
2173.38418,0.19397
2175.31265,0.19404
2177.24112,0.19546
2179.16958,0.19705
2181.09805,0.19624
2183.02652,0.19407
2184.95499,0.19306
2186.88346,0.19268
2188.81193,0.19220
2190.74040,0.19255
2192.66887,0.19263
2194.59733,0.19081
2196.52580,0.18879
2198.45427,0.18855
2200.38274,0.18937
2202.31121,0.19049
2204.23968,0.19139
2206.16815,0.19154
2208.09661,0.19232
2210.02508,0.19390
2211.95355,0.19455
2213.88202,0.19373
2215.81049,0.19219
2217.73896,0.19041
2219.66743,0.18934
2221.59590,0.19057
2223.52436,0.19345
2225.45283,0.19575
2227.38130,0.19537
2229.30977,0.19317
2231.23824,0.19236
2233.16671,0.19206
2235.09518,0.19099
2237.02364,0.19079
2238.95211,0.19178
2240.88058,0.19221
2242.80905,0.19158
2244.73752,0.19109
2246.66599,0.19110
2248.59446,0.19178
2250.52293,0.19269
2252.45139,0.19256
2254.37986,0.19203
2256.30833,0.19248
2258.23680,0.19266
2260.16527,0.19190
2262.09374,0.19218
2264.02221,0.19356
2265.95067,0.19402
2267.87914,0.19281
2269.80761,0.19257
2271.73608,0.19520
2273.66455,0.19779
2275.59302,0.19746
2277.52149,0.19447
2279.44996,0.19152
2281.37842,0.19100
2283.30689,0.19261
2285.23536,0.19485
2287.16383,0.19569
2289.09230,0.19511
2291.02077,0.19614
2292.94924,0.20035
2294.87770,0.20466
2296.80617,0.20393
2298.73464,0.19852
2300.66311,0.19523
2302.59158,0.19697
2304.52005,0.19995
2306.44852,0.20137
2308.37699,0.20159
2310.30545,0.20162
2312.23392,0.20181
2314.16239,0.20307
2316.09086,0.20536
2318.01933,0.20692
2319.94780,0.21044
2321.87627,0.21540
2323.80473,0.21608
2325.73320,0.21568
2327.66167,0.21511
2329.59014,0.21294
2331.51861,0.21284
2333.44708,0.21587
2335.37555,0.22343
2337.30401,0.22901
2339.23248,0.22737
2341.16095,0.22634
2343.08942,0.22478
2345.01789,0.21987
2346.94636,0.21775
2348.87483,0.21698
2350.80330,0.21554
2352.73176,0.21965
2354.66023,0.23361
2356.58870,0.24570
2358.51717,0.24603
2360.44564,0.24052
2362.37411,0.24459
2364.30258,0.25469
2366.23104,0.25192
2368.15951,0.23720
2370.08798,0.22280
2372.01645,0.21201
2373.94492,0.20499
2375.87339,0.20244
2377.80186,0.20138
2379.73033,0.19929
2381.65879,0.19749
2383.58726,0.19771
2385.51573,0.19791
2387.44420,0.19590
2389.37267,0.19450
2391.30114,0.19502
2393.22961,0.19576
2395.15807,0.19670
2397.08654,0.19620
2399.01501,0.19226
2400.94348,0.18806
2402.87195,0.18911
2404.80042,0.19534
2406.72889,0.19999
2408.65736,0.19931
2410.58582,0.19688
2412.51429,0.19460
2414.44276,0.19123
2416.37123,0.18921
2418.29970,0.19022
2420.22817,0.19196
2422.15664,0.19328
2424.08510,0.19422
2426.01357,0.19422
2427.94204,0.19451
2429.87051,0.19682
2431.79898,0.19801
2433.72745,0.19492
2435.65592,0.19115
2437.58439,0.19113
2439.51285,0.19338
2441.44132,0.19445
2443.36979,0.19421
2445.29826,0.19444
2447.22673,0.19523
2449.15520,0.19402
2451.08367,0.19016
2453.01213,0.18774
2454.94060,0.18945
2456.86907,0.19201
2458.79754,0.19241
2460.72601,0.19242
2462.65448,0.19369
2464.58295,0.19500
2466.51142,0.19569
2468.43988,0.19656
2470.36835,0.19599
2472.29682,0.19391
2474.22529,0.19376
2476.15376,0.19529
2478.08223,0.19581
2480.01070,0.19552
2481.93916,0.19646
2483.86763,0.19776
2485.79610,0.19731
2487.72457,0.19651
2489.65304,0.19726
2491.58151,0.19792
2493.50998,0.19626
2495.43844,0.19493
2497.36691,0.19652
2499.29538,0.19826
2501.22385,0.19823
2503.15232,0.19805
2505.08079,0.19842
2507.00926,0.19831
2508.93773,0.19763
2510.86619,0.19686
2512.79466,0.19670
2514.72313,0.19699
2516.65160,0.19626
2518.58007,0.19500
2520.50854,0.19386
2522.43701,0.19325
2524.36547,0.19434
2526.29394,0.19608
2528.22241,0.19698
2530.15088,0.19726
2532.07935,0.19806
2534.00782,0.19904
2535.93629,0.19877
2537.86476,0.19821
2539.79322,0.19827
2541.72169,0.19799
2543.65016,0.19756
2545.57863,0.19711
2547.50710,0.19524
2549.43557,0.19316
2551.36404,0.19392
2553.29250,0.19660
2555.22097,0.19837
2557.14944,0.19784
2559.07791,0.19625
2561.00638,0.19588
2562.93485,0.19629
2564.86332,0.19676
2566.79179,0.19725
2568.72025,0.19779
2570.64872,0.19798
2572.57719,0.19687
2574.50566,0.19592
2576.43413,0.19667
2578.36260,0.19793
2580.29107,0.19788
2582.21953,0.19653
2584.14800,0.19620
2586.07647,0.19754
2588.00494,0.19898
2589.93341,0.19927
2591.86188,0.19746
2593.79035,0.19532
2595.71882,0.19579
2597.64728,0.19741
2599.57575,0.19828
2601.50422,0.19898
2603.43269,0.20015
2605.36116,0.20104
2607.28963,0.19806
2609.21810,0.19219
2611.14656,0.19140
2613.07503,0.19668
2615.00350,0.20051
2616.93197,0.20084
2618.86044,0.20059
2620.78891,0.19969
2622.71738,0.19878
2624.64585,0.19913
2626.57431,0.19915
2628.50278,0.19915
2630.43125,0.20053
2632.35972,0.20144
2634.28819,0.19983
2636.21666,0.19766
2638.14513,0.19826
2640.07359,0.20037
2642.00206,0.20048
2643.93053,0.19860
2645.85900,0.19747
2647.78747,0.19836
2649.71594,0.19954
2651.64441,0.19901
2653.57288,0.19699
2655.50134,0.19605
2657.42981,0.19669
2659.35828,0.19683
2661.28675,0.19672
2663.21522,0.19684
2665.14369,0.19637
2667.07216,0.19639
2669.00062,0.19820
2670.92909,0.19963
2672.85756,0.19830
2674.78603,0.19705
2676.71450,0.19861
2678.64297,0.19975
2680.57144,0.19829
2682.49990,0.19799
2684.42837,0.20003
2686.35684,0.20082
2688.28531,0.19954
2690.21378,0.19836
2692.14225,0.19818
2694.07072,0.19845
2695.99919,0.20000
2697.92765,0.20425
2699.85612,0.20795
2701.78459,0.20638
2703.71306,0.20241
2705.64153,0.20139
2707.57000,0.20246
2709.49847,0.20269
2711.42693,0.20251
2713.35540,0.20291
2715.28387,0.20231
2717.21234,0.20179
2719.14081,0.20349
2721.06928,0.20429
2722.99775,0.20312
2724.92622,0.20352
2726.85468,0.20631
2728.78315,0.20837
2730.71162,0.20740
2732.64009,0.20577
2734.56856,0.20558
2736.49703,0.20555
2738.42550,0.20636
2740.35396,0.20901
2742.28243,0.21058
2744.21090,0.20923
2746.13937,0.20671
2748.06784,0.20460
2749.99631,0.20300
2751.92478,0.20182
2753.85325,0.20138
2755.78171,0.20213
2757.71018,0.20303
2759.63865,0.20288
2761.56712,0.20374
2763.49559,0.20713
2765.42406,0.21099
2767.35253,0.21287
2769.28099,0.21231
2771.20946,0.21063
2773.13793,0.20924
2775.06640,0.21002
2776.99487,0.21199
2778.92334,0.21132
2780.85181,0.20875
2782.78028,0.20728
2784.70874,0.20703
2786.63721,0.20775
2788.56568,0.20934
2790.49415,0.21126
2792.42262,0.21337
2794.35109,0.21356
2796.27956,0.21079
2798.20802,0.20800
2800.13649,0.20653
2802.06496,0.20574
2803.99343,0.20544
2805.92190,0.20506
2807.85037,0.20414
2809.77884,0.20394
2811.70731,0.20604
2813.63577,0.20941
2815.56424,0.21188
2817.49271,0.21334
2819.42118,0.21477
2821.34965,0.21501
2823.27812,0.21411
2825.20659,0.21322
2827.13505,0.21123
2829.06352,0.20990
2830.99199,0.21078
2832.92046,0.21161
2834.84893,0.21133
2836.77740,0.21040
2838.70587,0.21156
2840.63433,0.21508
2842.56280,0.21512
2844.49127,0.21129
2846.41974,0.20990
2848.34821,0.21290
2850.27668,0.21568
2852.20515,0.21390
2854.13362,0.20965
2856.06208,0.20769
2857.99055,0.20872
2859.91902,0.20939
2861.84749,0.20994
2863.77596,0.21348
2865.70443,0.21706
2867.63290,0.21745
2869.56136,0.21507
2871.48983,0.21091
2873.41830,0.20763
2875.34677,0.20681
2877.27524,0.20879
2879.20371,0.21201
2881.13218,0.21387
2883.06065,0.21462
2884.98911,0.21514
2886.91758,0.21656
2888.84605,0.21779
2890.77452,0.21589
2892.70299,0.21323
2894.63146,0.21281
2896.55993,0.21378
2898.48839,0.21446
2900.41686,0.21227
2902.34533,0.20758
2904.27380,0.20406
2906.20227,0.20351
2908.13074,0.20543
2910.05921,0.20782
2911.98768,0.20961
2913.91614,0.20959
2915.84461,0.20710
2917.77308,0.20506
2919.70155,0.20582
2921.63002,0.20993
2923.55849,0.21326
2925.48696,0.20806
2927.41542,0.19921
2929.34389,0.19823
2931.27236,0.20330
2933.20083,0.20743
2935.12930,0.20747
2937.05777,0.20410
2938.98624,0.20399
2940.91471,0.20745
2942.84317,0.20845
2944.77164,0.20671
2946.70011,0.20335
2948.62858,0.20126
2950.55705,0.20240
2952.48552,0.20353
2954.41399,0.20283
2956.34245,0.20026
2958.27092,0.19882
2960.19939,0.20307
2962.12786,0.21130
2964.05633,0.21571
2965.98480,0.21320
2967.91327,0.20994
2969.84174,0.20961
2971.77020,0.21135
2973.69867,0.21512
2975.62714,0.21800
2977.55561,0.21704
2979.48408,0.21461
2981.41255,0.21325
2983.34102,0.21314
2985.26948,0.21338
2987.19795,0.21239
2989.12642,0.21152
2991.05489,0.21252
2992.98336,0.21506
2994.91183,0.21775
2996.84030,0.21849
2998.76877,0.21858
3000.69723,0.21895
3002.62570,0.21892
3004.55417,0.21931
3006.48264,0.21882
3008.41111,0.21733
3010.33958,0.21570
3012.26805,0.21043
3014.19651,0.20121
3016.12498,0.19616
3018.05345,0.20103
3019.98192,0.21045
3021.91039,0.21568
3023.83886,0.21532
3025.76733,0.21357
3027.69579,0.21343
3029.62426,0.21515
3031.55273,0.21707
3033.48120,0.21794
3035.40967,0.21950
3037.33814,0.22104
3039.26661,0.22020
3041.19508,0.21883
3043.12354,0.21796
3045.05201,0.21748
3046.98048,0.21801
3048.90895,0.21662
3050.83742,0.21155
3052.76589,0.20743
3054.69436,0.20848
3056.62282,0.21266
3058.55129,0.21674
3060.47976,0.21991
3062.40823,0.22066
3064.33670,0.21905
3066.26517,0.21868
3068.19364,0.22106
3070.12211,0.22337
3072.05057,0.22320
3073.97904,0.21909
3075.90751,0.21314
3077.83598,0.21216
3079.76445,0.21642
3081.69292,0.21859
3083.62139,0.21424
3085.54985,0.20921
3087.47832,0.21079
3089.40679,0.21270
3091.33526,0.21036
3093.26373,0.20981
3095.19220,0.21060
3097.12067,0.20902
3099.04914,0.20864
3100.97760,0.21072
3102.90607,0.21035
3104.83454,0.20896
3106.76301,0.21146
3108.69148,0.21617
3110.61995,0.21936
3112.54842,0.21921
3114.47688,0.21850
3116.40535,0.21985
3118.33382,0.22080
3120.26229,0.22122
3122.19076,0.22147
3124.11923,0.22009
3126.04770,0.21832
3127.97617,0.21612
3129.90463,0.21333
3131.83310,0.21348
3133.76157,0.21613
3135.69004,0.21830
3137.61851,0.22010
3139.54698,0.22113
3141.47545,0.22176
3143.40391,0.22149
3145.33238,0.21959
3147.26085,0.21777
3149.18932,0.21703
3151.11779,0.21946
3153.04626,0.22327
3154.97473,0.22419
3156.90320,0.22380
3158.83166,0.22358
3160.76013,0.22217
3162.68860,0.21909
3164.61707,0.21627
3166.54554,0.21616
3168.47401,0.21882
3170.40248,0.22140
3172.33094,0.22142
3174.25941,0.22122
3176.18788,0.22249
3178.11635,0.22235
3180.04482,0.22132
3181.97329,0.22358
3183.90176,0.22738
3185.83022,0.22701
3187.75869,0.22237
3189.68716,0.21934
3191.61563,0.22000
3193.54410,0.22120
3195.47257,0.22284
3197.40104,0.22334
3199.32951,0.21937
3201.25797,0.21445
3203.18644,0.21430
3205.11491,0.21902
3207.04338,0.22249
3208.97185,0.22207
3210.90032,0.22140
3212.82879,0.22202
3214.75725,0.22208
3216.68572,0.22030
3218.61419,0.21842
3220.54266,0.21820
3222.47113,0.21943
3224.39960,0.22024
3226.32807,0.21920
3228.25654,0.21842
3230.18500,0.21948
3232.11347,0.22111
3234.04194,0.22261
3235.97041,0.22350
3237.89888,0.22214
3239.82735,0.21785
3241.75582,0.21386
3243.68428,0.21374
3245.61275,0.21616
3247.54122,0.21925
3249.46969,0.22335
3251.39816,0.22613
3253.32663,0.22449
3255.25510,0.22137
3257.18357,0.22114
3259.11203,0.22119
3261.04050,0.21878
3262.96897,0.21728
3264.89744,0.21888
3266.82591,0.22061
3268.75438,0.21976
3270.68285,0.21812
3272.61131,0.21829
3274.53978,0.21971
3276.46825,0.22083
3278.39672,0.22073
3280.32519,0.21813
3282.25366,0.21469
3284.18213,0.21384
3286.11060,0.21536
3288.03906,0.21834
3289.96753,0.22157
3291.89600,0.22172
3293.82447,0.21827
3295.75294,0.21438
3297.68141,0.21147
3299.60988,0.21074
3301.53834,0.21318
3303.46681,0.21627
3305.39528,0.21876
3307.32375,0.22110
3309.25222,0.22211
3311.18069,0.22027
3313.10916,0.21687
3315.03763,0.21490
3316.96609,0.21355
3318.89456,0.21439
3320.82303,0.21925
3322.75150,0.22059
3324.67997,0.21652
3326.60844,0.21415
3328.53691,0.21427
3330.46537,0.21578
3332.39384,0.21812
3334.32231,0.21709
3336.25078,0.21402
3338.17925,0.21401
3340.10772,0.21705
3342.03619,0.22108
3343.96466,0.22310
3345.89312,0.22169
3347.82159,0.21976
3349.75006,0.22003
3351.67853,0.22123
3353.60700,0.22029
3355.53547,0.21855
3357.46394,0.21988
3359.39240,0.22531
3361.32087,0.23033
3363.24934,0.22948
3365.17781,0.22576
3367.10628,0.22347
3369.03475,0.22258
3370.96322,0.22241
3372.89168,0.22031
3374.82015,0.21597
3376.74862,0.21366
3378.67709,0.21423
3380.60556,0.21493
3382.53403,0.21711
3384.46250,0.22133
3386.39097,0.22234
3388.31943,0.22069
3390.24790,0.22164
3392.17637,0.22270
3394.10484,0.22126
3396.03331,0.22129
3397.96178,0.22179
3399.89025,0.21945
3401.81871,0.21818
3403.74718,0.22079
3405.67565,0.22392
3407.60412,0.22443
3409.53259,0.22113
3411.46106,0.21389
3413.38953,0.20663
3415.31800,0.20541
3417.24646,0.21177
3419.17493,0.21992
3421.10340,0.22203
3423.03187,0.21701
3424.96034,0.21282
3426.88881,0.21568
3428.81728,0.21885
3430.74574,0.21415
3432.67421,0.20777
3434.60268,0.20634
3436.53115,0.20677
3438.45962,0.20692
3440.38809,0.20753
3442.31656,0.20934
3444.24503,0.21300
3446.17349,0.21494
3448.10196,0.21054
3450.03043,0.20368
3451.95890,0.20073
3453.88737,0.20226
3455.81584,0.20585
3457.74431,0.20884
3459.67277,0.20973
3461.60124,0.20708
3463.52971,0.20269
3465.45818,0.20190
3467.38665,0.20212
3469.31512,0.20072
3471.24359,0.20240
3473.17206,0.20388
3475.10052,0.19991
3477.02899,0.19620
3478.95746,0.19651
3480.88593,0.19785
3482.81440,0.19837
3484.74287,0.19625
3486.67134,0.19287
3488.59980,0.19279
3490.52827,0.19530
3492.45674,0.19691
3494.38521,0.19634
3496.31368,0.19431
3498.24215,0.19248
3500.17062,0.19502
3502.09909,0.20339
3504.02755,0.20473
3505.95602,0.19456
3507.88449,0.18849
3509.81296,0.18994
3511.74143,0.18980
3513.66990,0.18582
3515.59837,0.18021
3517.52683,0.17731
3519.45530,0.18047
3521.38377,0.18656
3523.31224,0.19071
3525.24071,0.19224
3527.16918,0.19429
3529.09765,0.19390
3531.02611,0.18660
3532.95458,0.17859
3534.88305,0.17671
3536.81152,0.17932
3538.73999,0.18104
3540.66846,0.18250
3542.59693,0.18714
3544.52540,0.19300
3546.45386,0.19433
3548.38233,0.18898
3550.31080,0.18336
3552.23927,0.18152
3554.16774,0.17818
3556.09621,0.17211
3558.02468,0.16959
3559.95314,0.17114
3561.88161,0.17409
3563.81008,0.18281
3565.73855,0.19692
3567.66702,0.19644
3569.59549,0.17889
3571.52396,0.16680
3573.45243,0.16332
3575.38089,0.16292
3577.30936,0.16305
3579.23783,0.16227
3581.16630,0.16021
3583.09477,0.16194
3585.02324,0.17278
3586.95171,0.18496
3588.88017,0.18064
3590.80864,0.17091
3592.73711,0.16975
3594.66558,0.17266
3596.59405,0.17352
3598.52252,0.17290
3600.45099,0.17053
3602.37946,0.16551
3604.30792,0.16432
3606.23639,0.17209
3608.16486,0.17984
3610.09333,0.17857
3612.02180,0.17763
3613.95027,0.17904
3615.87874,0.17919
3617.80720,0.18003
3619.73567,0.17335
3621.66414,0.15917
3623.59261,0.15396
3625.52108,0.16249
3627.44955,0.18214
3629.37802,0.18930
3631.30649,0.17290
3633.23495,0.16272
3635.16342,0.15719
3637.09189,0.15022
3639.02036,0.14614
3640.94883,0.14593
3642.87730,0.14813
3644.80577,0.15535
3646.73423,0.17501
3648.66270,0.20170
3650.59117,0.19173
3652.51964,0.16438
3654.44811,0.15491
3656.37658,0.15414
3658.30505,0.14895
3660.23352,0.14450
3662.16198,0.14240
3664.09045,0.14057
3666.01892,0.14213
3667.94739,0.15017
3669.87586,0.15894
3671.80433,0.16084
3673.73280,0.16897
3675.66126,0.17962
3677.58973,0.16942
3679.51820,0.15327
3681.44667,0.14359
3683.37514,0.13879
3685.30361,0.13884
3687.23208,0.14779
3689.16055,0.16190
3691.08901,0.16415
3693.01748,0.15519
3694.94595,0.14555
3696.87442,0.13848
3698.80289,0.13716
3700.73136,0.14169
3702.65983,0.14338
3704.58829,0.14070
3706.51676,0.14126
3708.44523,0.14885
3710.37370,0.16192
3712.30217,0.16177
3714.23064,0.14391
3716.15911,0.12980
3718.08757,0.12747
3720.01604,0.13477
3721.94451,0.14612
3723.87298,0.15414
3725.80145,0.15114
3727.72992,0.14412
3729.65839,0.14760
3731.58686,0.16258
3733.51532,0.17969
3735.44379,0.18218
3737.37226,0.16816
3739.30073,0.15841
3741.22920,0.15965
3743.15767,0.16934
3745.08614,0.17671
3747.01460,0.17673
3748.94307,0.18441
3750.87154,0.18763
3752.80001,0.16594
3754.72848,0.14960
3756.65695,0.14864
3758.58542,0.15255
3760.51389,0.15027
3762.44235,0.14425
3764.37082,0.14145
3766.29929,0.14117
3768.22776,0.14264
3770.15623,0.14484
3772.08470,0.14071
3774.01317,0.13272
3775.94163,0.12897
3777.87010,0.13179
3779.79857,0.13482
3781.72704,0.13394
3783.65551,0.13468
3785.58398,0.13514
3787.51245,0.12969
3789.44092,0.12430
3791.36938,0.12493
3793.29785,0.12842
3795.22632,0.13448
3797.15479,0.14425
3799.08326,0.15312
3801.01173,0.15720
3802.94020,0.14872
3804.86866,0.13724
3806.79713,0.13167
3808.72560,0.12942
3810.65407,0.12929
3812.58254,0.13333
3814.51101,0.14108
3816.43948,0.14680
3818.36795,0.15025
3820.29641,0.15575
3822.22488,0.15080
3824.15335,0.13842
3826.08182,0.13213
3828.01029,0.13165
3829.93876,0.13178
3831.86723,0.13178
3833.79569,0.13580
3835.72416,0.14232
3837.65263,0.14911
3839.58110,0.15355
3841.50957,0.14868
3843.43804,0.13717
3845.36651,0.12735
3847.29498,0.12468
3849.22344,0.13092
3851.15191,0.14869
3853.08038,0.17175
3855.00885,0.16441
3856.93732,0.14314
3858.86579,0.13283
3860.79426,0.13460
3862.72272,0.13858
3864.65119,0.13449
3866.57966,0.13057
3868.50813,0.13518
3870.43660,0.14232
3872.36507,0.14541
3874.29354,0.14587
3876.22200,0.14082
3878.15047,0.13518
3880.07894,0.12766
3882.00741,0.11576
3883.93588,0.11408
3885.86435,0.12020
3887.79282,0.12314
3889.72129,0.12835
3891.64975,0.13386
3893.57822,0.13000
3895.50669,0.12665
3897.43516,0.13046
3899.36363,0.13537
3901.29210,0.13526
3903.22057,0.13187
3905.14903,0.12962
3907.07750,0.12757
3909.00597,0.12309
3910.93444,0.11841
3912.86291,0.11811
3914.79138,0.12196
3916.71985,0.12455
3918.64832,0.12347
3920.57678,0.12086
3922.50525,0.11705
3924.43372,0.11277
3926.36219,0.11157
3928.29066,0.11249
3930.21913,0.11358
3932.14760,0.11674
3934.07606,0.11963
3936.00453,0.12002
3937.93300,0.11913
3939.86147,0.11917
3941.78994,0.12166
3943.71841,0.12337
3945.64688,0.12381
3947.57535,0.12366
3949.50381,0.11948
3951.43228,0.11498
3953.36075,0.11597
3955.28922,0.11744
3957.21769,0.11381
3959.14616,0.10845
3961.07463,0.10464
3963.00309,0.10289
3964.93156,0.10673
3966.86003,0.11433
3968.78850,0.11675
3970.71697,0.11311
3972.64544,0.11049
3974.57391,0.11099
3976.50238,0.11182
3978.43084,0.11171
3980.35931,0.11068
3982.28778,0.10791
3984.21625,0.10583
3986.14472,0.10819
3988.07319,0.11059
3990.00166,0.10795
3991.93012,0.10564
3993.85859,0.10622
3995.78706,0.10497
3997.71553,0.10199
3999.64400,0.09993
4001.57247,0.09959
4003.50094,0.10012
4005.42941,0.10014
4007.35787,0.10039
4009.28634,0.10104
4011.21481,0.10077
4013.14328,0.10093
4015.07175,0.10287
4017.00022,0.10456
4018.92869,0.10470
4020.85715,0.10305
4022.78562,0.10113
4024.71409,0.10203
4026.64256,0.10275
4028.57103,0.10016
4030.49950,0.09939
4032.42797,0.10180
4034.35644,0.10289
4036.28490,0.10321
4038.21337,0.10444
4040.14184,0.10346
4042.07031,0.09894
4043.99878,0.09544
4045.92725,0.09589
4047.85572,0.09715
4049.78418,0.09811
4051.71265,0.09969
4053.64112,0.09873
4055.56959,0.09481
4057.49806,0.09369
4059.42653,0.09523
4061.35500,0.09380
4063.28346,0.09069
4065.21193,0.09117
4067.14040,0.09522
4069.06887,0.09723
4070.99734,0.09472
4072.92581,0.09182
4074.85428,0.09284
4076.78275,0.09714
4078.71121,0.10015
4080.63968,0.10002
4082.56815,0.09742
4084.49662,0.09261
4086.42509,0.08853
4088.35356,0.08851
4090.28203,0.09214
4092.21049,0.09600
4094.13896,0.09498
4096.06743,0.09171
4097.99590,0.09418
4099.92437,0.09766
4101.85284,0.09638
4103.78131,0.09388
4105.70978,0.09052
4107.63824,0.08741
4109.56671,0.08772
4111.49518,0.08916
4113.42365,0.08770
4115.35212,0.08460
4117.28059,0.08468
4119.20906,0.08879
4121.13752,0.09190
4123.06599,0.08962
4124.99446,0.08606
4126.92293,0.08596
4128.85140,0.08681
4130.77987,0.08587
4132.70834,0.08298
4134.63681,0.08021
4136.56527,0.08086
4138.49374,0.08299
4140.42221,0.08330
4142.35068,0.08535
4144.27915,0.09011
4146.20762,0.09098
4148.13609,0.08576
4150.06455,0.08130
4151.99302,0.08068
4153.92149,0.07858
4155.84996,0.07612
4157.77843,0.07705
4159.70690,0.07919
4161.63537,0.08055
4163.56384,0.07912
4165.49230,0.07780
4167.42077,0.08049
4169.34924,0.08401
4171.27771,0.08407
4173.20618,0.08005
4175.13465,0.07619
4177.06312,0.07588
4178.99158,0.07728
4180.92005,0.07424
4182.84852,0.06619
4184.77699,0.06485
4186.70546,0.07198
4188.63393,0.07543
4190.56240,0.07201
4192.49087,0.06788
4194.41933,0.07009
4196.34780,0.07680
4198.27627,0.07585
4200.20474,0.06822
4202.13321,0.06570
4204.06168,0.06941
4205.99015,0.07379
4207.91861,0.07394
4209.84708,0.06948
4211.77555,0.06513
4213.70402,0.06552
4215.63249,0.07006
4217.56096,0.07339
4219.48943,0.07233
4221.41789,0.06821
4223.34636,0.06450
4225.27483,0.06195
4227.20330,0.06267
4229.13177,0.06751
4231.06024,0.07018
4232.98871,0.07026
4234.91718,0.07025
4236.84564,0.06746
4238.77411,0.06477
4240.70258,0.06795
4242.63105,0.07238
4244.55952,0.07110
4246.48799,0.06709
4248.41646,0.06426
4250.34492,0.06253
4252.27339,0.06260
4254.20186,0.06330
4256.13033,0.06300
4258.05880,0.06468
4259.98727,0.06707
4261.91574,0.06286
4263.84421,0.05571
4265.77267,0.05389
4267.70114,0.05384
4269.62961,0.05202
4271.55808,0.05219
4273.48655,0.05636
4275.41502,0.06250
4277.34349,0.06421
4279.27195,0.05862
4281.20042,0.05315
4283.12889,0.05458
4285.05736,0.05870
4286.98583,0.05873
4288.91430,0.05758
4290.84277,0.05724
4292.77124,0.05406
4294.69970,0.05113
4296.62817,0.05250
4298.55664,0.05408
4300.48511,0.05369
4302.41358,0.05312
4304.34205,0.05151
4306.27052,0.05155
4308.19898,0.05322
4310.12745,0.05105
4312.05592,0.04688
4313.98439,0.04379
4315.91286,0.04192
4317.84133,0.04277
4319.76980,0.04719
4321.69827,0.05346
4323.62673,0.05680
4325.55520,0.05179
4327.48367,0.04365
4329.41214,0.04116
4331.34061,0.04054
4333.26908,0.03908
4335.19755,0.03935
4337.12601,0.04029
4339.05448,0.04022
4340.98295,0.03885
4342.91142,0.03794
4344.83989,0.03794
4346.76836,0.03837
4348.69683,0.03917
4350.62530,0.03816
4352.55376,0.03672
4354.48223,0.03896
4356.41070,0.04304
4358.33917,0.04474
4360.26764,0.04221
4362.19611,0.03769
4364.12458,0.03477
4366.05304,0.03096
4367.98151,0.02544
4369.90998,0.02422
4371.83845,0.03128
4373.76692,0.04029
4375.69539,0.04058
4377.62386,0.03364
4379.55232,0.02973
4381.48079,0.03176
4383.40926,0.03452
4385.33773,0.03492
4387.26620,0.03332
4389.19467,0.02964
4391.12314,0.02585
4393.05161,0.02487
4394.98007,0.02889
4396.90854,0.03685
4398.83701,0.04136
4400.76548,0.03912
4402.69395,0.03391
4404.62242,0.02490
4406.55089,0.01582
4408.47935,0.01618
4410.40782,0.02224
4412.33629,0.02308
4414.26476,0.01866
4416.19323,0.01608
4418.12170,0.01760
4420.05017,0.02258
4421.97864,0.02752
4423.90710,0.02922
4425.83557,0.03077
4427.76404,0.03181
4429.69251,0.03019
4431.62098,0.02741
4433.54945,0.02572
4435.47792,0.02581
4437.40638,0.02580
4439.33485,0.02879
4441.26332,0.03713
4443.19179,0.04182
4445.12026,0.03581
4447.04873,0.02284
4448.97720,0.01077
4450.90567,0.00853
4452.83413,0.01483
4454.76260,0.01965
4456.69107,0.02272
4458.61954,0.02667
4460.54801,0.03071
4462.47648,0.03385
4464.40495,0.03226
4466.33341,0.02560
4468.26188,0.02017
4470.19035,0.02163
4472.11882,0.02656
4474.04729,0.02441
4475.97576,0.01380
4477.90423,0.00737
4479.83270,0.01300
4481.76116,0.02339
4483.68963,0.02783
4485.61810,0.02422
4487.54657,0.01885
4489.47504,0.01751
4491.40351,0.01813
4493.33198,0.01513
4495.26044,0.01021
4497.18891,0.00946
4499.11738,0.01318
4501.04585,0.01638
4502.97432,0.01433
4504.90279,0.00809
4506.83126,0.00632
4508.75973,0.01121
4510.68819,0.01404
4512.61666,0.01490
4514.54513,0.01818
4516.47360,0.01927
4518.40207,0.01758
4520.33054,0.01628
4522.25901,0.01465
4524.18747,0.01060
4526.11594,0.00561
4528.04441,0.00627
4529.97288,0.01309
4531.90135,0.01969
4533.82982,0.02018
4535.75829,0.01289
4537.68676,0.00716
4539.61522,0.01118
4541.54369,0.01570
4543.47216,0.00937
4545.40063,-0.00178
4547.32910,-0.00442
4549.25757,0.00349
4551.18604,0.01227
4553.11450,0.01291
4555.04297,0.00699
4556.97144,0.00408
4558.89991,0.00573
4560.82838,0.00352
4562.75685,-0.00271
4564.68532,-0.00492
4566.61378,-0.00275
4568.54225,-0.00165
4570.47072,-0.00134
4572.39919,-0.00083
4574.32766,-0.00117
4576.25613,0.00102
4578.18460,0.00592
4580.11307,0.00623
4582.04153,0.00471
4583.97000,0.00863
4585.89847,0.01127
4587.82694,0.00882
4589.75541,0.00531
4591.68388,0.00149
4593.61235,-0.00235
4595.54081,-0.00754
4597.46928,-0.01160
4599.39775,-0.01103
4601.32622,-0.00903
4603.25469,-0.00746
4605.18316,-0.00568
4607.11163,-0.00377
4609.04010,-0.00266
4610.96856,-0.00188
4612.89703,0.00090
4614.82550,0.00725
4616.75397,0.01264
4618.68244,0.00967
4620.61091,0.00448
4622.53938,0.00533
4624.46784,0.00810
4626.39631,0.00976
4628.32478,0.01191
4630.25325,0.01411
4632.18172,0.01574
4634.11019,0.01811
4636.03866,0.01880
4637.96713,0.01324
4639.89559,0.00683
4641.82406,0.00570
4643.75253,0.00310
4645.68100,-0.00325
4647.60947,-0.00467
4649.53794,-0.00215
4651.46641,-0.00173
4653.39487,0.00027
4655.32334,0.00247
4657.25181,-0.00406
4659.18028,-0.01334
4661.10875,-0.01310
4663.03722,-0.00388
4664.96569,0.01310
4666.89416,0.03086
4668.82262,0.03494
4670.75109,0.02372
4672.67956,0.00744
4674.60803,-0.00023
4676.53650,0.00341
4678.46497,0.00793
4680.39344,0.00740
4682.32190,0.00509
4684.25037,0.00374
4686.17884,-0.00088
4688.10731,-0.00831
4690.03578,-0.01035
4691.96425,-0.00307
4693.89272,0.00308
4695.82119,-0.00201
4697.74965,-0.00876
4699.67812,-0.00817
4701.60659,-0.00497
4703.53506,-0.00607
4705.46353,-0.00898
4707.39200,-0.00562
4709.32047,0.00543
4711.24893,0.02001
4713.17740,0.02907
4715.10587,0.02577
4717.03434,0.01711
4718.96281,0.01464
4720.89128,0.01413
4722.81975,0.00755
4724.74821,0.00110
4726.67668,0.00174
4728.60515,0.00319
4730.53362,-0.00106
4732.46209,-0.00643
4734.39056,-0.00901
4736.31903,-0.00913
4738.24750,-0.00816
4740.17596,-0.00803
4742.10443,-0.00370
4744.03290,0.00462
4745.96137,0.00990
4747.88984,0.01401
4749.81831,0.01863
4751.74678,0.01830
4753.67524,0.01597
4755.60371,0.01572
4757.53218,0.01264
4759.46065,0.00857
4761.38912,0.00349
4763.31759,-0.00722
4765.24606,-0.01469
4767.17453,-0.00860
4769.10299,0.00032
4771.03146,-0.00493
4772.95993,-0.01534
4774.88840,-0.01477
4776.81687,-0.00781
4778.74534,-0.00166
4780.67381,0.00521
4782.60227,0.01554
4784.53074,0.02012
4786.45921,0.01097
4788.38768,-0.00177
4790.31615,-0.00845
4792.24462,-0.00700
4794.17309,0.00202
4796.10156,0.00907
4798.03002,0.00835
4799.95849,0.00656
4801.88696,0.00961
4803.81543,0.01531
4805.74390,0.02034
4807.67237,0.02083
4809.60084,0.01512
4811.52930,0.01063
4813.45777,0.00751
4815.38624,0.00169
4817.31471,-0.00008
4819.24318,0.00354
4821.17165,0.00568
4823.10012,0.00770
4825.02859,0.01293
4826.95705,0.01593
4828.88552,0.01086
4830.81399,0.00027
4832.74246,-0.00443
4834.67093,0.00311
4836.59940,0.01227
4838.52787,0.01507
4840.45633,0.01553
4842.38480,0.01492
4844.31327,0.01258
4846.24174,0.01100
4848.17021,0.01073
4850.09868,0.00811
4852.02715,-0.00319
4853.95562,-0.01599
4855.88408,-0.01218
4857.81255,0.00379
4859.74102,0.01431
4861.66949,0.01566
4863.59796,0.01053
4865.52643,0.00188
4867.45490,-0.00754
4869.38336,-0.01197
4871.31183,-0.00559
4873.24030,0.00081
4875.16877,-0.00288
4877.09724,-0.00619
4879.02571,-0.00083
4880.95418,0.00719
4882.88265,0.01084
4884.81111,0.00934
4886.73958,0.00529
4888.66805,0.00548
4890.59652,0.00921
4892.52499,0.00382
4894.45346,-0.00564
4896.38193,-0.00411
4898.31039,0.00056
4900.23886,-0.00369
4902.16733,-0.00975
4904.09580,-0.00869
4906.02427,-0.00229
4907.95274,0.00712
4909.88121,0.01507
4911.80967,0.01354
4913.73814,0.00960
4915.66661,0.01078
4917.59508,0.00909
4919.52355,0.00496
4921.45202,0.00620
4923.38049,0.00923
4925.30896,0.01036
4927.23742,0.01184
4929.16589,0.01241
4931.09436,0.01370
4933.02283,0.01515
4934.95130,0.00914
4936.87977,-0.00035
4938.80824,-0.00399
4940.73670,-0.00351
4942.66517,-0.00375
4944.59364,-0.00548
4946.52211,-0.00574
4948.45058,-0.00607
4950.37905,-0.00973
4952.30752,-0.01056
4954.23599,-0.01002
4956.16445,-0.01228
4958.09292,-0.00836
4960.02139,0.00080
4961.94986,0.00865
4963.87833,0.01382
4965.80680,0.01321
4967.73527,0.01285
4969.66373,0.01504
4971.59220,0.01387
4973.52067,0.01199
4975.44914,0.01162
4977.37761,0.01147
4979.30608,0.00776
4981.23455,0.00293
4983.16302,0.00580
4985.09148,0.00648
4987.01995,-0.00309
4988.94842,-0.01185
4990.87689,-0.00995
4992.80536,0.00369
4994.73383,0.01897
4996.66230,0.02024
4998.59076,0.00954
5000.51923,0.00324
5002.44770,0.00076
5004.37617,-0.00268
5006.30464,0.00394
5008.23311,0.01952
5010.16158,0.02617
5012.09005,0.02195
5014.01851,0.01989
5015.94698,0.01971
5017.87545,0.01729
5019.80392,0.01599
5021.73239,0.01531
5023.66086,0.01327
5025.58933,0.00824
5027.51779,0.00267
5029.44626,0.00267
5031.37473,0.00628
5033.30320,0.00929
5035.23167,0.00840
5037.16014,0.00443
5039.08861,0.00481
5041.01708,0.00638
5042.94554,0.00444
5044.87401,0.00313
5046.80248,0.00267
5048.73095,0.00361
5050.65942,0.00666
5052.58789,0.01357
5054.51636,0.02222
5056.44482,0.01961
5058.37329,0.00733
5060.30176,-0.00017
5062.23023,0.00165
5064.15870,0.01066
5066.08717,0.02017
5068.01564,0.02559
5069.94410,0.02679
5071.87257,0.02476
5073.80104,0.02455
5075.72951,0.02607
5077.65798,0.02710
5079.58645,0.02747
5081.51492,0.02550
5083.44339,0.02109
5085.37185,0.01699
5087.30032,0.01953
5089.22879,0.02518
5091.15726,0.02481
5093.08573,0.02554
5095.01420,0.03386
5096.94267,0.03781
5098.87113,0.03005
5100.79960,0.02101
5102.72807,0.01667
5104.65654,0.01005
5106.58501,-0.00153
5108.51348,-0.00601
5110.44195,0.00359
5112.37042,0.01285
5114.29888,0.01254
5116.22735,0.01552
5118.15582,0.02570
5120.08429,0.03291
5122.01276,0.03879
5123.94123,0.04862
5125.86970,0.05561
5127.79816,0.04969
5129.72663,0.03692
5131.65510,0.03397
5133.58357,0.03929
5135.51204,0.03453
5137.44051,0.02085
5139.36898,0.02696
5141.29745,0.05223
5143.22591,0.05679
5145.15438,0.03332
5147.08285,0.01393
5149.01132,0.01219
5150.93979,0.01720
5152.86826,0.02479
5154.79673,0.03603
5156.72519,0.04883
5158.65366,0.05904
5160.58213,0.05807
5162.51060,0.04169
5164.43907,0.01891
5166.36754,0.01005
5168.29601,0.02172
5170.22448,0.03417
5172.15294,0.02812
5174.08141,0.01662
5176.00988,0.02248
5177.93835,0.03180
5179.86682,0.03088
5181.79529,0.03168
5183.72376,0.02710
5185.65222,0.01460
5187.58069,0.01485
5189.50916,0.02833
5191.43763,0.04035
5193.36610,0.04464
5195.29457,0.04154
5197.22304,0.03554
5199.15151,0.03291
5201.07997,0.03425
5203.00844,0.04040
5204.93691,0.04727
5206.86538,0.04393
5208.79385,0.03262
5210.72232,0.02322
5212.65079,0.02151
5214.57925,0.03195
5216.50772,0.04809
5218.43619,0.05283
5220.36466,0.04765
5222.29313,0.04753
5224.22160,0.05080
5226.15007,0.05209
5228.07854,0.04851
5230.00700,0.04018
5231.93547,0.03381
5233.86394,0.03580
5235.79241,0.03823
5237.72088,0.03020
5239.64935,0.02179
5241.57782,0.02276
5243.50628,0.03137
5245.43475,0.03645
5247.36322,0.03082
5249.29169,0.03311
5251.22016,0.04345
5253.14863,0.04163
5255.07710,0.03384
5257.00556,0.03321
5258.93403,0.03112
5260.86250,0.02653
5262.79097,0.03514
5264.71944,0.04340
5266.64791,0.03780
5268.57638,0.04340
5270.50485,0.05822
5272.43331,0.05661
5274.36178,0.04485
5276.29025,0.03887
5278.21872,0.04000
5280.14719,0.04959
5282.07566,0.06399
5284.00413,0.06854
5285.93259,0.05899
5287.86106,0.05696
5289.78953,0.07072
5291.71800,0.07741
5293.64647,0.07893
5295.57494,0.08837
5297.50341,0.09099
5299.43188,0.08299
5301.36034,0.07791
5303.28881,0.07557
5305.21728,0.07588
5307.14575,0.08131
5309.07422,0.07777
5311.00269,0.06740
5312.93116,0.06438
5314.85962,0.06222
5316.78809,0.05487
5318.71656,0.05051
5320.64503,0.05107
5322.57350,0.04586
5324.50197,0.03901
5326.43044,0.04253
5328.35891,0.05438
5330.28737,0.07253
5332.21584,0.08216
5334.14431,0.06990
5336.07278,0.06114
5338.00125,0.06324
5339.92972,0.04775
5341.85819,0.02769
5343.78665,0.02791
5345.71512,0.03846
5347.64359,0.04500
5349.57206,0.05019
5351.50053,0.05598
5353.42900,0.05549
5355.35747,0.05103
5357.28594,0.04868
5359.21440,0.03973
5361.14287,0.03204
5363.07134,0.03530
5364.99981,0.03827
5366.92828,0.03895
5368.85675,0.04925
5370.78522,0.07103
5372.71368,0.09058
5374.64215,0.09868
5376.57062,0.09352
5378.49909,0.07532
5380.42756,0.05404
5382.35603,0.03684
5384.28450,0.03011
5386.21297,0.03590
5388.14143,0.04160
5390.06990,0.04634
5391.99837,0.05421
5393.92684,0.06253
5395.85531,0.07242
5397.78378,0.08205
5399.71225,0.09330
5401.64071,0.09833
5403.56918,0.08040
5405.49765,0.05775
5407.42612,0.05429
5409.35459,0.06666
5411.28306,0.08895
5413.21153,0.11090
5415.13999,0.10907
5417.06846,0.08975
5418.99693,0.08213
5420.92540,0.08191
5422.85387,0.07340
5424.78234,0.06552
5426.71081,0.06116
5428.63928,0.06536
5430.56774,0.07927
5432.49621,0.08658
5434.42468,0.08052
5436.35315,0.05958
5438.28162,0.03875
5440.21009,0.03492
5442.13856,0.04253
5444.06702,0.04435
5445.99549,0.04481
5447.92396,0.05661
5449.85243,0.06641
5451.78090,0.06857
5453.70937,0.07559
5455.63784,0.08077
5457.56631,0.06520
5459.49477,0.03772
5461.42324,0.02807
5463.35171,0.04175
5465.28018,0.05310
5467.20865,0.04277
5469.13712,0.02921
5471.06559,0.03736
5472.99405,0.05261
5474.92252,0.05661
5476.85099,0.04753
5478.77946,0.03224
5480.70793,0.02948
5482.63640,0.04391
5484.56487,0.04942
5486.49334,0.04374
5488.42180,0.05320
5490.35027,0.06715
5492.27874,0.05978
5494.20721,0.05409
5496.13568,0.07258
5498.06415,0.09001
5499.99262,0.08529
5501.92108,0.06522
5503.84955,0.04365
5505.77802,0.03656
5507.70649,0.04077
5509.63496,0.04138
5511.56343,0.05173
5513.49190,0.06935
5515.42037,0.07244
5517.34883,0.07525
5519.27730,0.07639
5521.20577,0.05801
5523.13424,0.05683
5525.06271,0.08997
5526.99118,0.11061
5528.91965,0.10682
5530.84811,0.10531
5532.77658,0.11227
5534.70505,0.11520
5536.63352,0.10762
5538.56199,0.10161
5540.49046,0.10592
5542.41893,0.10417
5544.34740,0.08555
5546.27586,0.06573
5548.20433,0.05686
5550.13280,0.05644
5552.06127,0.06740
5553.98974,0.08185
5555.91821,0.08122
5557.84668,0.06996
5559.77514,0.06067
5561.70361,0.06138
5563.63208,0.07645
5565.56055,0.10029
5567.48902,0.11936
5569.41749,0.11559
5571.34596,0.09833
5573.27443,0.09038
5575.20289,0.08913
5577.13136,0.07489
5579.05983,0.05168
5580.98830,0.05575
5582.91677,0.08511
5584.84524,0.08698
5586.77371,0.05323
5588.70217,0.03070
5590.63064,0.03735
5592.55911,0.04497
5594.48758,0.05699
5596.41605,0.08163
5598.34452,0.09008
5600.27299,0.07353
5602.20145,0.05429
5604.12992,0.05512
5606.05839,0.07799
5607.98686,0.09045
5609.91533,0.07476
5611.84380,0.05763
5613.77227,0.06008
5615.70074,0.06995
5617.62920,0.07585
5619.55767,0.08308
5621.48614,0.09388
5623.41461,0.09783
5625.34308,0.09197
5627.27155,0.08905
5629.20002,0.08889
5631.12848,0.08449
5633.05695,0.09018
5634.98542,0.10778
5636.91389,0.11375
5638.84236,0.10183
5640.77083,0.09066
5642.69930,0.09494
5644.62777,0.10620
5646.55623,0.11167
5648.48470,0.11117
5650.41317,0.09128
5652.34164,0.05544
5654.27011,0.04502
5656.19858,0.06043
5658.12705,0.07321
5660.05551,0.07647
5661.98398,0.06463
5663.91245,0.05525
5665.84092,0.06534
5667.76939,0.06781
5669.69786,0.05407
5671.62633,0.05096
5673.55480,0.07356
5675.48326,0.10248
5677.41173,0.09924
5679.34020,0.06492
5681.26867,0.03845
5683.19714,0.04272
5685.12561,0.06450
5687.05408,0.07241
5688.98254,0.06789
5690.91101,0.07241
5692.83948,0.08025
5694.76795,0.08701
5696.69642,0.09104
5698.62489,0.08388
5700.55336,0.07839
5702.48183,0.07743
5704.41029,0.05989
5706.33876,0.03301
5708.26723,0.02528
5710.19570,0.04054
5712.12417,0.06999
5714.05264,0.10626
5715.98111,0.13125
5717.90957,0.13828
5719.83804,0.12677
5721.76651,0.09569
5723.69498,0.07206
5725.62345,0.06447
5727.55192,0.05024
5729.48039,0.03393
5731.40886,0.02069
5733.33732,0.01230
5735.26579,0.02966
5737.19426,0.05527
5739.12273,0.05744
5741.05120,0.05430
5742.97967,0.05956
5744.90814,0.05533
5746.83660,0.04139
5748.76507,0.03998
5750.69354,0.04996
5752.62201,0.05542
5754.55048,0.05085
5756.47895,0.03805
5758.40742,0.03312
5760.33588,0.03871
5762.26435,0.04307
5764.19282,0.05180
5766.12129,0.06211
5768.04976,0.05887
5769.97823,0.05467
5771.90670,0.06210
5773.83517,0.07365
5775.76363,0.10161
5777.69210,0.13908
5779.62057,0.13963
5781.54904,0.10850
5783.47751,0.08495
5785.40598,0.07787
5787.33445,0.09343
5789.26291,0.11991
5791.19138,0.12480
5793.11985,0.10941
5795.04832,0.09294
5796.97679,0.08508
5798.90526,0.08360
5800.83373,0.07686
5802.76220,0.06970
5804.69066,0.07156
5806.61913,0.07225
5808.54760,0.07563
5810.47607,0.09686
5812.40454,0.10942
5814.33301,0.08531
5816.26148,0.04971
5818.18994,0.03795
5820.11841,0.05631
5822.04688,0.07751
5823.97535,0.08754
5825.90382,0.09820
5827.83229,0.10284
5829.76076,0.09295
5831.68923,0.07705
5833.61769,0.05787
5835.54616,0.04382
5837.47463,0.05396
5839.40310,0.07282
5841.33157,0.07764
5843.26004,0.08087
5845.18851,0.08575
5847.11697,0.08246
5849.04544,0.06371
5850.97391,0.04408
5852.90238,0.05584
5854.83085,0.07551
5856.75932,0.07047
5858.68779,0.07414
5860.61626,0.09904
5862.54472,0.11236
5864.47319,0.11231
5866.40166,0.11431
5868.33013,0.12715
5870.25860,0.13503
5872.18707,0.12071
5874.11554,0.09306
5876.04400,0.05763
5877.97247,0.03770
5879.90094,0.04431
5881.82941,0.04429
5883.75788,0.04229
5885.68635,0.06664
5887.61482,0.10027
5889.54329,0.11150
5891.47175,0.09613
5893.40022,0.07012
5895.32869,0.05236
5897.25716,0.05000
5899.18563,0.05929
5901.11410,0.05650
5903.04257,0.03408
5904.97103,0.03919
5906.89950,0.07735
5908.82797,0.09855
5910.75644,0.09264
5912.68491,0.08817
5914.61338,0.08611
5916.54185,0.07688
5918.47032,0.06738
5920.39878,0.05500
5922.32725,0.04596
5924.25572,0.05338
5926.18419,0.06692
5928.11266,0.06619
5930.04113,0.05208
5931.96960,0.05238
5933.89806,0.06702
5935.82653,0.06792
5937.75500,0.06559
5939.68347,0.07197
5941.61194,0.06201
5943.54041,0.04537
5945.46888,0.05677
5947.39734,0.07840
5949.32581,0.08465
5951.25428,0.07962
5953.18275,0.06867
5955.11122,0.05635
5957.03969,0.05020
5958.96816,0.05304
5960.89663,0.06363
5962.82509,0.07364
5964.75356,0.07936
5966.68203,0.09340
5968.61050,0.11254
5970.53897,0.11214
5972.46744,0.08779
5974.39591,0.05872
5976.32437,0.05117
5978.25284,0.07889
5980.18131,0.11184
5982.10978,0.10133
5984.03825,0.06295
5985.96672,0.05689
5987.89519,0.08715
5989.82366,0.11716
5991.75212,0.12927
5993.68059,0.11272
5995.60906,0.07591
5997.53753,0.05334
5999.46600,0.04848
6001.39447,0.05134
6003.32294,0.06217
6005.25140,0.07160
6007.17987,0.06615
6009.10834,0.04087
6011.03681,0.03112
6012.96528,0.07682
6014.89375,0.14609
6016.82222,0.18136
6018.75069,0.16491
6020.67915,0.11786
6022.60762,0.07769
6024.53609,0.07577
6026.46456,0.10484
6028.39303,0.12005
6030.32150,0.08583
6032.24997,0.03270
6034.17843,0.02008
6036.10690,0.04061
6038.03537,0.06886
6039.96384,0.10232
6041.89231,0.09757
6043.82078,0.05247
6045.74925,0.02691
6047.67772,0.03946
6049.60618,0.06952
6051.53465,0.09479
6053.46312,0.11543
6055.39159,0.12641
6057.32006,0.11082
6059.24853,0.07705
6061.17700,0.04946
6063.10546,0.03988
6065.03393,0.03690
6066.96240,0.03408
6068.89087,0.03434
6070.81934,0.02473
6072.74781,0.01930
6074.67628,0.05840
6076.60475,0.09868
6078.53321,0.08022
6080.46168,0.04886
6082.39015,0.04666
6084.31862,0.05848
6086.24709,0.08673
6088.17556,0.11843
6090.10403,0.11393
6092.03249,0.09562
6093.96096,0.09527
6095.88943,0.07502
6097.81790,0.03222
6099.74637,0.01800
6101.67484,0.02927
6103.60331,0.04471
6105.53177,0.07473
6107.46024,0.11118
6109.38871,0.14270
6111.31718,0.15984
6113.24565,0.14825
6115.17412,0.13596
6117.10259,0.13389
6119.03106,0.11349
6120.95952,0.10243
6122.88799,0.12485
6124.81646,0.13821
6126.74493,0.13607
6128.67340,0.14621
6130.60187,0.15387
6132.53034,0.13859
6134.45880,0.10564
6136.38727,0.07404
6138.31574,0.05796
6140.24421,0.05292
6142.17268,0.04634
6144.10115,0.03096
6146.02962,0.02158
6147.95809,0.04009
6149.88655,0.08790
6151.81502,0.12260
6153.74349,0.11429
6155.67196,0.11071
6157.60043,0.12302
6159.52890,0.11884
6161.45737,0.12056
6163.38583,0.13848
6165.31430,0.14421
6167.24277,0.14453
6169.17124,0.14508
6171.09971,0.13721
6173.02818,0.14491
6174.95665,0.17210
6176.88512,0.16483
6178.81358,0.12579
6180.74205,0.11127
6182.67052,0.11826
6184.59899,0.11979
6186.52746,0.10236
6188.45593,0.06386
6190.38440,0.03018
6192.31286,0.02315
6194.24133,0.04292
6196.16980,0.07220
6198.09827,0.08463
6200.02674,0.08648
6201.95521,0.09739
6203.88368,0.08588
6205.81215,0.05201
6207.74061,0.03854
6209.66908,0.03808
6211.59755,0.05372
6213.52602,0.06692
6215.45449,0.05256
6217.38296,0.05868
6219.31143,0.09339
6221.23989,0.11923
6223.16836,0.14113
6225.09683,0.15678
6227.02530,0.14678
6228.95377,0.12959
6230.88224,0.12613
6232.81071,0.13424
6234.73918,0.12613
6236.66764,0.07169
6238.59611,0.01999
6240.52458,0.04727
6242.45305,0.11758
6244.38152,0.12611
6246.30999,0.06032
6248.23846,0.00228
6250.16692,-0.00308
6252.09539,0.01216
6254.02386,0.03257
6255.95233,0.06532
6257.88080,0.07190
6259.80927,0.04915
6261.73774,0.04266
6263.66621,0.02923
6265.59467,-0.00095
6267.52314,0.03558
6269.45161,0.10518
6271.38008,0.09383
6273.30855,0.01644
6275.23702,-0.01111
6277.16549,0.04267
6279.09395,0.09727
6281.02242,0.09828
6282.95089,0.05834
6284.87936,0.02556
6286.80783,0.00550
6288.73630,0.00214
6290.66477,0.03703
6292.59323,0.04829
6294.52170,0.00561
6296.45017,-0.02370
6298.37864,-0.00917
6300.30711,0.02252
6302.23558,0.03338
6304.16405,0.02452
6306.09252,0.03868
6308.02098,0.07093
6309.94945,0.07841
6311.87792,0.07814
6313.80639,0.08040
6315.73486,0.04048
6317.66333,-0.01346
6319.59180,-0.01018
6321.52026,0.03286
6323.44873,0.03421
6325.37720,-0.00290
6327.30567,-0.00164
6329.23414,0.03447
6331.16261,0.05530
6333.09108,0.08382
6335.01955,0.12177
6336.94801,0.11885
6338.87648,0.08317
6340.80495,0.04854
6342.73342,0.03805
6344.66189,0.06867
6346.59036,0.10299
6348.51883,0.09451
6350.44729,0.06047
6352.37576,0.04539
6354.30423,0.05590
6356.23270,0.07026
6358.16117,0.07595
6360.08964,0.06735
6362.01811,0.06456
6363.94658,0.07876
6365.87504,0.08385
6367.80351,0.06763
6369.73198,0.04642
6371.66045,0.03779
6373.58892,0.05022
6375.51739,0.06892
6377.44586,0.07425
6379.37432,0.07928
6381.30279,0.10302
6383.23126,0.11927
6385.15973,0.08851
6387.08820,0.04485
6389.01667,0.02771
6390.94514,0.02970
6392.87361,0.04522
6394.80207,0.06878
6396.73054,0.08791
6398.65901,0.09954
6400.58748,0.09356
6402.51595,0.08720
6404.44442,0.11499
6406.37289,0.15937
6408.30135,0.16105
6410.22982,0.11438
6412.15829,0.06682
6414.08676,0.04947
6416.01523,0.06466
6417.94370,0.07634
6419.87217,0.05891
6421.80064,0.04633
6423.72910,0.04664
6425.65757,0.04008
6427.58604,0.03918
6429.51451,0.06844
6431.44298,0.10044
6433.37145,0.08146
6435.29992,0.02130
6437.22838,-0.01319
6439.15685,0.02111
6441.08532,0.06886
6443.01379,0.07938
6444.94226,0.06486
6446.87073,0.05608
6448.79920,0.06911
6450.72766,0.08612
6452.65613,0.06851
6454.58460,0.03330
6456.51307,0.02132
6458.44154,0.03190
6460.37001,0.05755
6462.29848,0.09838
6464.22695,0.11779
6466.15541,0.09512
6468.08388,0.06650
6470.01235,0.07425
6471.94082,0.12566
6473.86929,0.17235
6475.79776,0.16867
6477.72623,0.14376
6479.65469,0.10033
6481.58316,0.01362
6483.51163,-0.03442
6485.44010,-0.00403
6487.36857,0.05251
6489.29704,0.09819
6491.22551,0.12286
6493.15398,0.15557
6495.08244,0.18631
6497.01091,0.14657
6498.93938,0.06486
6500.86785,0.02029
6502.79632,0.00492
6504.72479,-0.00839
6506.65326,0.00765
6508.58172,0.04963
6510.51019,0.07011
6512.43866,0.07263
6514.36713,0.09257
6516.29560,0.10365
6518.22407,0.07537
6520.15254,0.04011
6522.08101,0.04794
6524.00947,0.10551
6525.93794,0.14124
6527.86641,0.11540
6529.79488,0.08239
6531.72335,0.06184
6533.65182,0.03549
6535.58029,0.02358
6537.50875,0.04929
6539.43722,0.07341
6541.36569,0.05526
6543.29416,0.05261
6545.22263,0.09819
6547.15110,0.14063
6549.07957,0.15982
6551.00804,0.13634
6552.93650,0.08456
6554.86497,0.06674
6556.79344,0.08759
6558.72191,0.10136
6560.65038,0.09129
6562.57885,0.08292
6564.50732,0.09739
6566.43578,0.12030
6568.36425,0.11969
6570.29272,0.09669
6572.22119,0.06822
6574.14966,0.05507
6576.07813,0.06927
6578.00660,0.08696
6579.93507,0.11120
6581.86353,0.13315
6583.79200,0.09982
6585.72047,0.04374
6587.64894,0.01549
6589.57741,0.00204
6591.50588,-0.00732
6593.43435,0.02280
6595.36281,0.08881
6597.29128,0.10650
6599.21975,0.07043
6601.14822,0.02353
6603.07669,-0.02903
6605.00516,-0.06136
6606.93363,-0.02126
6608.86210,0.06373
6610.79056,0.09402
6612.71903,0.06243
6614.64750,0.04259
6616.57597,0.05000
6618.50444,0.05102
6620.43291,0.04549
6622.36138,0.07012
6624.28984,0.11911
6626.21831,0.13618
6628.14678,0.09237
6630.07525,0.04040
6632.00372,0.02688
6633.93219,-0.02192
6635.86066,-0.06486
6637.78912,0.02964
6639.71759,0.13040
6641.64606,0.12768
6643.57453,0.09126
6645.50300,0.05812
6647.43147,0.01978
6649.35994,0.02083
6651.28841,0.07717
6653.21687,0.10426
6655.14534,0.06387
6657.07381,0.04679
6659.00228,0.07570
6660.93075,0.09646
6662.85922,0.09607
6664.78769,0.07044
6666.71615,0.05873
6668.64462,0.08475
6670.57309,0.09346
6672.50156,0.05526
6674.43003,0.02930
6676.35850,0.04788
6678.28697,0.07184
6680.21544,0.06050
6682.14390,0.01639
6684.07237,0.00293
6686.00084,0.04129
6687.92931,0.05861
6689.85778,0.03750
6691.78625,0.03397
6693.71472,0.05482
6695.64318,0.07690
6697.57165,0.08649
6699.50012,0.08004
6701.42859,0.04218
6703.35706,-0.00367
6705.28553,-0.00200
6707.21400,0.02952
6709.14247,0.04249
6711.07093,0.03271
6712.99940,0.01552
6714.92787,0.00590
6716.85634,0.01822
6718.78481,0.06693
6720.71328,0.13185
6722.64175,0.16385
6724.57021,0.15667
6726.49868,0.13930
6728.42715,0.11717
6730.35562,0.06997
6732.28409,0.02728
6734.21256,0.04552
6736.14103,0.09238
6738.06950,0.06661
6739.99796,-0.02403
6741.92643,-0.05418
6743.85490,-0.02005
6745.78337,-0.00822
6747.71184,-0.00805
6749.64031,-0.00511
6751.56878,-0.00004
6753.49724,0.00767
6755.42571,0.00988
6757.35418,0.02837
6759.28265,0.05061
6761.21112,0.02615
6763.13959,-0.02661
6765.06806,-0.04775
6766.99653,-0.01318
6768.92499,0.04202
6770.85346,0.07742
6772.78193,0.09439
6774.71040,0.11627
6776.63887,0.13350
6778.56734,0.12572
6780.49581,0.11296
6782.42427,0.08842
6784.35274,0.04058
6786.28121,0.02736
6788.20968,0.07145
6790.13815,0.08898
6792.06662,0.04935
6793.99509,0.01407
6795.92355,-0.02331
6797.85202,-0.05635
6799.78049,-0.03674
6801.70896,0.02989
6803.63743,0.03647
6805.56590,-0.03229
6807.49437,-0.05701
6809.42284,-0.03711
6811.35130,0.00546
6813.27977,0.04517
6815.20824,0.01020
6817.13671,-0.03533
6819.06518,-0.00823
6820.99365,0.04349
6822.92212,0.07891
6824.85058,0.11568
6826.77905,0.15910
6828.70752,0.14465
6830.63599,0.03737
6832.56446,-0.06652
6834.49293,-0.08477
6836.42140,-0.03356
6838.34987,0.00316
6840.27833,0.01263
6842.20680,0.02077
6844.13527,0.00590
6846.06374,-0.01846
6847.99221,-0.01152
6849.92068,0.01363
6851.84915,0.03014
6853.77761,0.03252
6855.70608,-0.00790
6857.63455,-0.06963
6859.56302,-0.09069
6861.49149,-0.07661
6863.41996,-0.05152
6865.34843,-0.01376
6867.27690,0.03317
6869.20536,0.06889
6871.13383,0.07127
6873.06230,0.04657
6874.99077,0.04706
6876.91924,0.07543
6878.84771,0.07748
6880.77618,0.03436
6882.70464,0.02269
6884.63311,0.05997
6886.56158,0.06485
6888.49005,0.02864
6890.41852,-0.01273
6892.34699,-0.05047
6894.27546,-0.01947
6896.20393,0.07016
6898.13239,0.11057
6900.06086,0.08642
6901.98933,0.04290
6903.91780,0.02782
6905.84627,0.07839
6907.77474,0.08549
6909.70321,0.02361
6911.63167,-0.00367
6913.56014,0.01029
6915.48861,0.03485
6917.41708,0.04659
6919.34555,0.01004
6921.27402,-0.03488
6923.20249,-0.03727
6925.13096,-0.00421
6927.05942,0.03077
6928.98789,0.02361
6930.91636,-0.00074
6932.84483,0.05340
6934.77330,0.10624
6936.70177,0.04183
6938.63024,-0.08883
6940.55870,-0.15039
6942.48717,-0.09317
6944.41564,-0.03969
6946.34411,-0.01819
6948.27258,0.02523
6950.20105,0.05202
6952.12952,0.03593
6954.05799,0.01932
6955.98645,0.02409
6957.91492,0.02675
6959.84339,0.03985
6961.77186,0.11724
6963.70033,0.19733
6965.62880,0.21079
6967.55727,0.19169
6969.48573,0.15000
6971.41420,0.09518
6973.34267,0.10246
6975.27114,0.15397
6977.19961,0.15601
6979.12808,0.12453
6981.05655,0.09601
6982.98501,0.05573
6984.91348,0.01087
6986.84195,-0.00824
6988.77042,0.00082
6990.69889,-0.00373
6992.62736,-0.02427
6994.55583,-0.01834
6996.48430,0.03671
6998.41276,0.12887
7000.34123,0.18498
7002.26970,0.15878
7004.19817,0.06927
7006.12664,-0.00475
7008.05511,0.01710
7009.98358,0.06776
7011.91204,0.07916
7013.84051,0.09165
7015.76898,0.14057
7017.69745,0.15676
7019.62592,0.12426
7021.55439,0.08363
7023.48286,-0.01876
7025.41133,-0.11609
7027.33979,-0.04095
7029.26826,0.08023
7031.19673,0.01888
7033.12520,-0.06747
7035.05367,-0.03376
7036.98214,0.03454
7038.91061,0.10957
7040.83907,0.19052
7042.76754,0.21227
7044.69601,0.15971
7046.62448,0.07680
7048.55295,0.03712
7050.48142,0.04995
7052.40989,0.03623
7054.33836,0.03565
7056.26682,0.11245
7058.19529,0.11874
7060.12376,0.01586
7062.05223,-0.00992
7063.98070,0.06129
7065.90917,0.10553
7067.83764,0.08449
7069.76610,0.04087
7071.69457,0.00074
7073.62304,-0.01749
7075.55151,0.02197
7077.47998,0.08387
7079.40845,0.12030
7081.33692,0.09102
7083.26539,0.00770
7085.19385,-0.01675
7087.12232,0.02587
7089.05079,0.04533
7090.97926,0.04237
7092.90773,0.05992
7094.83620,0.06548
7096.76467,0.06236
7098.69313,0.10151
7100.62160,0.13497
7102.55007,0.09770
7104.47854,0.00993
7106.40701,-0.04571
7108.33548,-0.01208
7110.26395,0.00176
7112.19242,-0.07073
7114.12088,-0.14822
7116.04935,-0.16880
7117.97782,-0.10283
7119.90629,0.01697
7121.83476,0.08641
7123.76323,0.07943
7125.69170,0.05893
7127.62016,0.08121
7129.54863,0.08338
7131.47710,0.03007
7133.40557,0.02154
7135.33404,0.11915
7137.26251,0.22206
7139.19098,0.22366
7141.11944,0.14637
7143.04791,0.07095
7144.97638,0.00420
7146.90485,-0.06965
7148.83332,-0.08385
7150.76179,-0.05749
7152.69026,-0.09377
7154.61873,-0.09745
7156.54719,0.01246
7158.47566,0.08127
7160.40413,0.05354
7162.33260,-0.01177
7164.26107,-0.08887
7166.18954,-0.11237
7168.11801,-0.01404
7170.04647,0.07375
7171.97494,0.02520
7173.90341,-0.06500
7175.83188,-0.12668
7177.76035,-0.14378
7179.68882,-0.09755
7181.61729,-0.03650
7183.54576,-0.02496
7185.47422,0.00200
7187.40269,0.07074
7189.33116,0.14023
7191.25963,0.15799
7193.18810,0.11862
7195.11657,0.09635
7197.04504,0.10829
7198.97350,0.14590
7200.90197,0.16197
7202.83044,0.09423
7204.75891,0.01015
7206.68738,0.07576
7208.61585,0.14714
7210.54432,0.08334
7212.47279,-0.01132
7214.40125,-0.06339
7216.32972,-0.13153
7218.25819,-0.21275
7220.18666,-0.15509
7222.11513,0.01882
7224.04360,0.12699
7225.97207,0.04839
7227.90053,-0.12150
7229.82900,-0.20730
7231.75747,-0.12026
7233.68594,0.04602
7235.61441,0.16890
7237.54288,0.25219
7239.47135,0.26030
7241.39982,0.16770
7243.32828,0.06951
7245.25675,0.07605
7247.18522,0.13245
7249.11369,0.16886
7251.04216,0.17851
7252.97063,0.18836
7254.89910,0.21376
7256.82756,0.20915
7258.75603,0.16265
7260.68450,0.18561
7262.61297,0.27586
7264.54144,0.22526
7266.46991,0.10799
7268.39838,0.09949
7270.32685,0.19087
7272.25531,0.19580
7274.18378,-0.01197
7276.11225,-0.20910
7278.04072,-0.26125
7279.96919,-0.13651
7281.89766,-0.01094
7283.82613,-0.01199
7285.75459,0.01481
7287.68306,0.09601
7289.61153,0.10875
7291.54000,0.05866
7293.46847,0.07367
7295.39694,0.11746
7297.32541,0.13943
7299.25387,0.18242
7301.18234,0.16037
7303.11081,0.01716
7305.03928,-0.09998
7306.96775,-0.09932
7308.89622,-0.01440
7310.82469,0.06171
7312.75316,0.04238
7314.68162,-0.06856
7316.61009,-0.16278
7318.53856,-0.12978
7320.46703,-0.05656
7322.39550,0.00571
7324.32397,0.03662
7326.25244,0.06398
7328.18090,0.17514
7330.10937,0.25343
7332.03784,0.15734
7333.96631,0.06398
7335.89478,0.06532
7337.82325,0.07749
7339.75172,0.08372
7341.68019,0.13320
7343.60865,0.16033
7345.53712,0.12929
7347.46559,0.01016
7349.39406,-0.06766
7351.32253,0.03358
7353.25100,0.10472
7355.17947,0.04630
7357.10793,0.01871
7359.03640,0.03442
7360.96487,0.02473
7362.89334,0.06135
7364.82181,0.06918
7366.75028,0.00346
7368.67875,-0.05065
7370.60722,-0.06637
7372.53568,-0.05887
7374.46415,-0.03038
7376.39262,0.01572
7378.32109,0.01676
7380.24956,-0.03574
7382.17803,-0.00584
7384.10650,0.12094
7386.03496,0.23875
7387.96343,0.40078
7389.89190,0.45231
7391.82037,0.21343
7393.74884,-0.08624
7395.67731,-0.14959
7397.60578,-0.05358
7399.53425,0.00508
7401.46271,0.02221
7403.39118,0.08530
7405.31965,0.13346
7407.24812,0.06870
7409.17659,-0.05199
7411.10506,-0.10846
7413.03353,-0.05023
7414.96199,-0.02239
7416.89046,-0.06844
7418.81893,-0.00989
7420.74740,0.06200
7422.67587,0.00304
7424.60434,-0.04106
7426.53281,-0.00487
7428.46128,0.14822
7430.38974,0.33817
7432.31821,0.39479
7434.24668,0.36207
7436.17515,0.25667
7438.10362,0.13468
7440.03209,0.05757
7441.96056,-0.01951
7443.88902,-0.05050
7445.81749,-0.01193
7447.74596,-0.02846
7449.67443,-0.13065
7451.60290,-0.11201
7453.53137,0.07538
7455.45984,0.21084
7457.38831,0.25411
7459.31677,0.18628
7461.24524,0.03630
7463.17371,-0.02066
7465.10218,0.02124
7467.03065,0.09159
7468.95912,0.14913
7470.88759,0.15302
7472.81605,0.07051
7474.74452,-0.02869
7476.67299,0.01041
7478.60146,0.17726
7480.52993,0.20727
7482.45840,0.09236
7484.38687,0.05700
7486.31533,0.12740
7488.24380,0.21446
7490.17227,0.19145
7492.10074,0.07348
7494.02921,0.03763
7495.95768,0.09278
7497.88615,0.08328
