399.19301,0.98481
401.12148,-0.25313
403.04995,-0.07071
404.97842,0.15378
406.90689,0.19292
408.83536,0.11487
410.76382,0.05433
412.69229,0.12309
414.62076,0.24017
416.54923,0.29242
418.47770,0.27292
420.40617,0.27959
422.33464,0.27369
424.26311,0.16768
426.19157,0.05696
428.12004,0.01746
430.04851,-0.01689
431.97698,0.00276
433.90545,0.08428
435.83392,0.11697
437.76239,0.14753
439.69085,0.19768
441.61932,0.17782
443.54779,0.09322
445.47626,0.02467
447.40473,-0.02714
449.33320,-0.04266
451.26167,-0.01605
453.19013,0.01220
455.11860,0.02164
457.04707,0.02826
458.97554,0.05574
460.90401,0.10151
462.83248,0.11324
464.76095,0.02911
466.68942,-0.06103
468.61788,-0.04990
470.54635,-0.01426
472.47482,-0.03382
474.40329,0.01713
476.33176,0.10235
478.26023,0.09838
480.18870,0.08132
482.11716,0.06392
484.04563,0.05667
485.97410,0.09855
487.90257,0.16099
489.83104,0.19420
491.75951,0.16848
493.68798,0.12925
495.61645,0.12985
497.54491,0.11624
499.47338,0.07984
501.40185,0.09181
503.33032,0.12327
505.25879,0.12290
507.18726,0.11433
509.11573,0.10337
511.04419,0.08789
512.97266,0.08046
514.90113,0.07253
516.82960,0.04286
518.75807,0.01334
520.68654,0.03903
522.61501,0.12057
524.54348,0.17153
526.47194,0.11766
528.40041,0.03554
530.32888,0.02517
532.25735,0.05691
534.18582,0.06286
536.11429,0.08330
538.04276,0.13903
539.97122,0.15165
541.89969,0.10884
543.82816,0.06873
545.75663,0.06506
547.68510,0.10010
549.61357,0.20523
551.54204,0.46331
553.47051,0.70294
555.39897,0.58907
557.32744,0.27832
559.25591,0.13560
561.18438,0.11746
563.11285,0.10223
565.04132,0.08854
566.96979,0.07293
568.89825,0.06049
570.82672,0.06888
572.75519,0.08797
574.68366,0.11344
576.61213,0.14331
578.54060,0.14760
580.46907,0.13269
582.39754,0.11787
584.32600,0.09883
586.25447,0.09396
588.18294,0.11625
590.11141,0.13450
592.03988,0.13664
593.96835,0.13437
595.89682,0.12199
597.82528,0.10528
599.75375,0.10150
601.68222,0.10642
603.61069,0.09699
605.53916,0.07987
607.46763,0.08264
609.39610,0.09940
611.32456,0.11048
613.25303,0.11647
615.18150,0.11455
617.10997,0.10038
619.03844,0.09247
620.96691,0.09004
622.89538,0.09010
624.82385,0.10030
626.75231,0.10516
628.68078,0.10686
630.60925,0.11374
632.53772,0.10662
634.46619,0.08504
636.39466,0.07562
638.32313,0.09180
640.25159,0.11750
642.18006,0.13003
644.10853,0.13533
646.03700,0.14426
647.96547,0.14561
649.89394,0.13092
651.82241,0.12083
653.75088,0.13018
655.67934,0.14586
657.60781,0.15801
659.53628,0.15673
661.46475,0.13423
663.39322,0.11824
665.32169,0.13058
667.25016,0.14681
669.17862,0.13284
671.10709,0.12340
673.03556,0.11756
674.96403,0.09757
676.89250,0.08490
678.82097,0.09341
680.74944,0.10101
682.67791,0.09899
684.60637,0.10824
686.53484,0.13093
688.46331,0.13876
690.39178,0.11910
692.32025,0.09225
694.24872,0.07726
696.17719,0.07948
698.10565,0.09861
700.03412,0.11432
701.96259,0.11051
703.89106,0.10557
705.81953,0.11936
707.74800,0.13150
709.67647,0.10175
711.60494,0.05215
713.53340,0.05438
715.46187,0.10120
717.39034,0.12810
719.31881,0.12633
721.24728,0.11910
723.17575,0.11093
725.10422,0.10135
727.03268,0.10088
728.96115,0.10782
730.88962,0.11046
732.81809,0.11284
734.74656,0.11820
736.67503,0.12758
738.60350,0.13918
740.53197,0.13787
742.46043,0.12918
744.38890,0.12893
746.31737,0.12951
748.24584,0.12122
750.17431,0.10955
752.10278,0.10798
754.03125,0.11345
755.95971,0.11535
757.88818,0.12438
759.81665,0.13687
761.74512,0.13132
763.67359,0.11409
765.60206,0.10636
767.53053,0.10782
769.45900,0.10822
771.38746,0.11010
773.31593,0.12336
775.24440,0.14403
777.17287,0.14767
779.10134,0.13174
781.02981,0.12175
782.95828,0.12620
784.88674,0.13223
786.81521,0.12690
788.74368,0.12237
790.67215,0.13391
792.60062,0.14301
794.52909,0.13081
796.45756,0.11523
798.38602,0.11530
800.31449,0.12263
802.24296,0.12942
804.17143,0.13180
806.09990,0.12867
808.02837,0.12874
809.95684,0.13435
811.88531,0.13960
813.81377,0.13996
815.74224,0.13299
817.67071,0.12054
819.59918,0.11016
821.52765,0.10768
823.45612,0.11531
825.38459,0.12367
827.31305,0.12384
829.24152,0.12540
831.16999,0.13117
833.09846,0.13905
835.02693,0.14798
836.95540,0.14678
838.88387,0.13498
840.81234,0.12827
842.74080,0.13318
844.66927,0.14120
846.59774,0.14325
848.52621,0.13759
850.45468,0.12966
852.38315,0.12537
854.31162,0.12641
856.24008,0.13091
858.16855,0.13312
860.09702,0.13102
862.02549,0.12821
863.95396,0.13006
865.88243,0.13397
867.81090,0.11901
869.73937,0.08746
871.66783,0.07934
873.59630,0.09875
875.52477,0.11535
877.45324,0.12030
879.38171,0.12128
881.31018,0.12241
883.23865,0.12117
885.16711,0.12188
887.09558,0.12605
889.02405,0.12686
890.95252,0.12715
892.88099,0.12786
894.80946,0.12265
896.73793,0.11492
898.66640,0.11896
900.59486,0.13409
902.52333,0.14442
904.45180,0.14442
906.38027,0.13865
908.30874,0.13226
910.23721,0.12474
912.16568,0.11631
914.09414,0.11556
916.02261,0.12431
917.95108,0.13315
919.87955,0.13807
921.80802,0.14295
923.73649,0.14480
925.66496,0.14005
927.59343,0.13534
929.52189,0.13511
931.45036,0.13619
933.37883,0.13654
935.30730,0.13562
937.23577,0.13423
939.16424,0.13666
941.09271,0.14117
943.02117,0.14125
944.94964,0.13993
946.87811,0.13954
948.80658,0.13636
950.73505,0.13344
952.66352,0.13452
954.59199,0.14026
956.52045,0.15059
958.44892,0.15758
960.37739,0.15362
962.30586,0.14431
964.23433,0.13773
966.16280,0.13551
968.09127,0.13728
970.01974,0.14038
971.94820,0.14176
973.87667,0.14162
975.80514,0.14235
977.73361,0.14409
979.66208,0.14366
981.59055,0.14106
983.51902,0.13906
985.44748,0.14058
987.37595,0.14495
989.30442,0.14467
991.23289,0.13612
993.16136,0.12776
995.08983,0.12842
997.01830,0.13531
998.94677,0.14146
1000.87523,0.14414
1002.80370,0.14577
1004.73217,0.14993
1006.66064,0.15348
1008.58911,0.15358
1010.51758,0.15340
1012.44605,0.15012
1014.37451,0.14144
1016.30298,0.13514
1018.23145,0.13392
1020.15992,0.13783
1022.08839,0.14565
1024.01686,0.14836
1025.94533,0.13933
1027.87380,0.12504
1029.80226,0.12613
1031.73073,0.13910
1033.65920,0.14070
1035.58767,0.13407
1037.51614,0.13010
1039.44461,0.13231
1041.37308,0.14052
1043.30154,0.14767
1045.23001,0.15004
1047.15848,0.14812
1049.08695,0.14691
1051.01542,0.15198
1052.94389,0.15665
1054.87236,0.15356
1056.80083,0.14796
1058.72929,0.14448
1060.65776,0.14407
1062.58623,0.14886
1064.51470,0.15464
1066.44317,0.15771
1068.37164,0.16302
1070.30011,0.16929
1072.22857,0.16924
1074.15704,0.16741
1076.08551,0.17122
1078.01398,0.17139
1079.94245,0.15843
1081.87092,0.15092
1083.79939,0.16262
1085.72786,0.16944
1087.65632,0.16016
1089.58479,0.15722
1091.51326,0.16522
1093.44173,0.16853
1095.37020,0.16265
1097.29867,0.15535
1099.22714,0.15469
1101.15560,0.15687
1103.08407,0.15573
1105.01254,0.15416
1106.94101,0.15572
1108.86948,0.16306
1110.79795,0.16884
1112.72642,0.16221
1114.65489,0.15119
1116.58335,0.14948
1118.51182,0.15518
1120.44029,0.15707
1122.36876,0.15424
1124.29723,0.15168
1126.22570,0.15025
1128.15417,0.15075
1130.08263,0.15170
1132.01110,0.15108
1133.93957,0.14974
1135.86804,0.15102
1137.79651,0.15432
1139.72498,0.15179
1141.65345,0.14455
1143.58191,0.14365
1145.51038,0.15143
1147.43885,0.16193
1149.36732,0.16873
1151.29579,0.16764
1153.22426,0.16342
1155.15273,0.16123
1157.08120,0.16037
1159.00966,0.16006
1160.93813,0.15872
1162.86660,0.15780
1164.79507,0.16007
1166.72354,0.16275
1168.65201,0.16280
1170.58048,0.16118
1172.50894,0.16178
1174.43741,0.16647
1176.36588,0.16915
1178.29435,0.16685
1180.22282,0.16542
1182.15129,0.16537
1184.07976,0.16164
1186.00823,0.15480
1187.93669,0.15353
1189.86516,0.15996
1191.79363,0.16428
1193.72210,0.16398
1195.65057,0.16340
1197.57904,0.16147
1199.50751,0.15594
1201.43597,0.15309
1203.36444,0.15814
1205.29291,0.16207
1207.22138,0.15872
1209.14985,0.15407
1211.07832,0.15415
1213.00679,0.15829
1214.93526,0.16090
1216.86372,0.16041
1218.79219,0.15799
1220.72066,0.15478
1222.64913,0.15374
1224.57760,0.15476
1226.50607,0.15792
1228.43454,0.16243
1230.36300,0.16254
1232.29147,0.15681
1234.21994,0.15001
1236.14841,0.14829
1238.07688,0.15031
1240.00535,0.14971
1241.93382,0.14951
1243.86229,0.15238
1245.79075,0.15324
1247.71922,0.15257
1249.64769,0.15472
1251.57616,0.15574
1253.50463,0.15271
1255.43310,0.15115
1257.36157,0.14962
1259.29003,0.14375
1261.21850,0.14203
1263.14697,0.15155
1265.07544,0.16073
1267.00391,0.15904
1268.93238,0.15482
1270.86085,0.15604
1272.78932,0.15741
1274.71778,0.15430
1276.64625,0.15263
1278.57472,0.15601
1280.50319,0.15645
1282.43166,0.15358
1284.36013,0.15554
1286.28860,0.15695
1288.21706,0.15420
1290.14553,0.15520
1292.07400,0.15765
1294.00247,0.15501
1295.93094,0.14973
1297.85941,0.14500
1299.78788,0.13601
1301.71634,0.11537
1303.64481,0.09340
1305.57328,0.09869
1307.50175,0.13301
1309.43022,0.16076
1311.35869,0.16846
1313.28716,0.17076
1315.21563,0.17179
1317.14409,0.17180
1319.07256,0.16993
1321.00103,0.16399
1322.92950,0.16163
1324.85797,0.16080
1326.78644,0.15563
1328.71491,0.15280
1330.64337,0.15017
1332.57184,0.14750
1334.50031,0.14887
1336.42878,0.15058
1338.35725,0.15522
1340.28572,0.15473
1342.21419,0.14744
1344.14266,0.14900
1346.07112,0.15522
1347.99959,0.15771
1349.92806,0.15644
1351.85653,0.15372
1353.78500,0.15306
1355.71347,0.15485
1357.64194,0.15878
1359.57040,0.16437
1361.49887,0.17170
1363.42734,0.17758
1365.35581,0.17590
1367.28428,0.17038
1369.21275,0.16838
1371.14122,0.17052
1373.06969,0.17378
1374.99815,0.17661
1376.92662,0.17611
1378.85509,0.17364
1380.78356,0.17367
1382.71203,0.17732
1384.64050,0.18241
1386.56897,0.18436
1388.49743,0.18012
1390.42590,0.17748
1392.35437,0.18305
1394.28284,0.19394
1396.21131,0.20231
1398.13978,0.20191
1400.06825,0.19242
1401.99672,0.18641
1403.92518,0.18967
1405.85365,0.19008
1407.78212,0.18368
1409.71059,0.17989
1411.63906,0.17887
1413.56753,0.17837
1415.49600,0.18374
1417.42446,0.19679
1419.35293,0.20191
1421.28140,0.19336
1423.20987,0.18633
1425.13834,0.18127
1427.06681,0.17985
1428.99528,0.18535
1430.92375,0.19047
1432.85221,0.19182
1434.78068,0.19735
1436.70915,0.20214
1438.63762,0.19389
1440.56609,0.18498
1442.49456,0.18207
1444.42303,0.18336
1446.35149,0.18763
1448.27996,0.18905
1450.20843,0.18604
1452.13690,0.18877
1454.06537,0.20511
1455.99384,0.23298
1457.92231,0.23115
1459.85077,0.19787
1461.77924,0.18453
1463.70771,0.18869
1465.63618,0.19406
1467.56465,0.19325
1469.49312,0.19579
1471.42159,0.20830
1473.35006,0.22146
1475.27852,0.21540
1477.20699,0.20091
1479.13546,0.19386
1481.06393,0.19312
1482.99240,0.19089
1484.92087,0.19174
1486.84934,0.20432
1488.77780,0.22102
1490.70627,0.21856
1492.63474,0.20746
1494.56321,0.20775
1496.49168,0.21472
1498.42015,0.21181
1500.34862,0.20120
1502.27709,0.19458
1504.20555,0.19890
1506.13402,0.22746
1508.06249,0.24818
1509.99096,0.22818
1511.91943,0.21241
1513.84790,0.21251
1515.77637,0.22255
1517.70483,0.22887
1519.63330,0.23518
1521.56177,0.24490
1523.49024,0.23909
1525.41871,0.22794
1527.34718,0.21556
1529.27565,0.20472
1531.20412,0.20777
1533.13258,0.21911
1535.06105,0.22006
1536.98952,0.22373
1538.91799,0.25280
1540.84646,0.28038
1542.77493,0.25595
1544.70340,0.22655
1546.63186,0.20959
1548.56033,0.20443
1550.48880,0.20450
1552.41727,0.20843
1554.34574,0.22236
1556.27421,0.24935
1558.20268,0.28166
1560.13115,0.25273
1562.05961,0.21384
1563.98808,0.20300
1565.91655,0.20536
1567.84502,0.21425
1569.77349,0.21797
1571.70196,0.20691
1573.63043,0.20104
1575.55889,0.20626
1577.48736,0.20496
1579.41583,0.19536
1581.34430,0.18695
1583.27277,0.18136
1585.20124,0.18063
1587.12971,0.18328
1589.05818,0.18648
1590.98664,0.18854
1592.91511,0.18888
1594.84358,0.18770
1596.77205,0.18430
1598.70052,0.18219
1600.62899,0.18472
1602.55746,0.18781
1604.48592,0.18752
1606.41439,0.18723
1608.34286,0.19004
1610.27133,0.19110
1612.19980,0.19103
1614.12827,0.19876
1616.05674,0.21177
1617.98521,0.20990
1619.91367,0.20247
1621.84214,0.20694
1623.77061,0.21407
1625.69908,0.21256
1627.62755,0.20790
1629.55602,0.20271
1631.48449,0.20439
1633.41295,0.22066
1635.34142,0.24475
1637.26989,0.24209
1639.19836,0.22369
1641.12683,0.21222
1643.05530,0.21320
1644.98377,0.23258
1646.91223,0.25303
1648.84070,0.24267
1650.76917,0.23585
1652.69764,0.25328
1654.62611,0.24899
1656.55458,0.22273
1658.48305,0.20996
1660.41152,0.21265
1662.33998,0.21860
1664.26845,0.21335
1666.19692,0.21298
1668.12539,0.22717
1670.05386,0.23415
1671.98233,0.22360
1673.91080,0.21979
1675.83926,0.22049
1677.76773,0.21715
1679.69620,0.21893
1681.62467,0.23316
1683.55314,0.25420
1685.48161,0.24802
1687.41008,0.22770
1689.33855,0.21643
1691.26701,0.21232
1693.19548,0.21796
1695.12395,0.23306
1697.05242,0.24646
1698.98089,0.25344
1700.90936,0.24619
1702.83783,0.23019
1704.76629,0.22170
1706.69476,0.21316
1708.62323,0.20400
1710.55170,0.20275
1712.48017,0.21003
1714.40864,0.22343
1716.33711,0.23439
1718.26558,0.22432
1720.19404,0.20706
1722.12251,0.19905
1724.05098,0.19561
1725.97945,0.19342
1727.90792,0.19611
1729.83639,0.20401
1731.76486,0.21636
1733.69332,0.23036
1735.62179,0.22678
1737.55026,0.21645
1739.47873,0.21168
1741.40720,0.20974
1743.33567,0.21130
1745.26414,0.21638
1747.19261,0.22197
1749.12107,0.22457
1751.04954,0.21730
1752.97801,0.20542
1754.90648,0.20017
1756.83495,0.20089
1758.76342,0.20429
1760.69189,0.20987
1762.62035,0.20890
1764.54882,0.20088
1766.47729,0.19989
1768.40576,0.20769
1770.33423,0.21830
1772.26270,0.22476
1774.19117,0.21772
1776.11964,0.20594
1778.04810,0.19963
1779.97657,0.20039
1781.90504,0.20275
1783.83351,0.20124
1785.76198,0.19679
1787.69045,0.19574
1789.61892,0.20456
1791.54738,0.21643
1793.47585,0.21554
1795.40432,0.20901
1797.33279,0.20664
1799.26126,0.20871
1801.18973,0.21078
1803.11820,0.20540
1805.04666,0.19769
1806.97513,0.19502
1808.90360,0.19512
1810.83207,0.19331
1812.76054,0.18981
1814.68901,0.18928
1816.61748,0.19005
1818.54595,0.18624
1820.47441,0.18554
1822.40288,0.19422
1824.33135,0.20221
1826.25982,0.20420
1828.18829,0.20604
1830.11676,0.20596
1832.04523,0.20092
1833.97369,0.19596
1835.90216,0.19251
1837.83063,0.18984
1839.75910,0.19124
1841.68757,0.20003
1843.61604,0.20950
1845.54451,0.20694
1847.47298,0.19865
1849.40144,0.19322
1851.32991,0.19181
1853.25838,0.19372
1855.18685,0.19482
1857.11532,0.19387
1859.04379,0.19386
1860.97226,0.19593
1862.90072,0.19765
1864.82919,0.20051
1866.75766,0.20737
1868.68613,0.20993
1870.61460,0.20201
1872.54307,0.19430
1874.47154,0.19086
1876.40001,0.18842
1878.32847,0.18711
1880.25694,0.18912
1882.18541,0.19217
1884.11388,0.19346
1886.04235,0.19457
1887.97082,0.19810
1889.89929,0.20054
1891.82775,0.19763
1893.75622,0.19415
1895.68469,0.19232
1897.61316,0.19036
1899.54163,0.18999
1901.47010,0.19039
1903.39857,0.18968
1905.32704,0.19134
1907.25550,0.19481
1909.18397,0.19414
1911.11244,0.19066
1913.04091,0.18984
1914.96938,0.19293
1916.89785,0.19857
1918.82632,0.20148
1920.75478,0.20061
1922.68325,0.20020
1924.61172,0.19744
1926.54019,0.19277
1928.46866,0.19205
1930.39713,0.19453
1932.32560,0.19524
1934.25407,0.19273
1936.18253,0.19040
1938.11100,0.19112
1940.03947,0.19557
1941.96794,0.20234
1943.89641,0.20518
1945.82488,0.20228
1947.75335,0.19837
1949.68181,0.19530
1951.61028,0.19314
1953.53875,0.19212
1955.46722,0.19068
1957.39569,0.18921
1959.32416,0.19118
1961.25263,0.19490
1963.18110,0.19672
1965.10956,0.19810
1967.03803,0.19735
1968.96650,0.19214
1970.89497,0.18891
1972.82344,0.19107
1974.75191,0.19402
1976.68038,0.19280
1978.60884,0.18850
1980.53731,0.18670
1982.46578,0.18715
1984.39425,0.18822
1986.32272,0.19208
1988.25119,0.19614
1990.17966,0.19645
1992.10812,0.19469
1994.03659,0.19347
1995.96506,0.19239
1997.89353,0.19161
1999.82200,0.19214
2001.75047,0.19307
2003.67894,0.19272
2005.60741,0.19158
2007.53587,0.19203
2009.46434,0.19356
2011.39281,0.19317
2013.32128,0.19183
2015.24975,0.19361
2017.17822,0.19668
2019.10669,0.19637
2021.03515,0.19409
2022.96362,0.19247
2024.89209,0.19225
2026.82056,0.19266
2028.74903,0.19183
2030.67750,0.19044
2032.60597,0.19110
2034.53444,0.19321
2036.46290,0.19482
2038.39137,0.19666
2040.31984,0.19755
2042.24831,0.19544
2044.17678,0.19289
2046.10525,0.19249
2048.03372,0.19274
2049.96218,0.19301
2051.89065,0.19393
2053.81912,0.19434
2055.74759,0.19393
2057.67606,0.19368
2059.60453,0.19391
2061.53300,0.19431
2063.46147,0.19615
2065.38993,0.19862
2067.31840,0.19792
2069.24687,0.19556
2071.17534,0.19460
2073.10381,0.19426
2075.03228,0.19378
2076.96075,0.19372
2078.88921,0.19451
2080.81768,0.19605
2082.74615,0.19720
2084.67462,0.19670
2086.60309,0.19526
2088.53156,0.19431
2090.46003,0.19323
2092.38850,0.19232
2094.31696,0.19357
2096.24543,0.19428
2098.17390,0.19168
2100.10237,0.18970
2102.03084,0.19129
2103.95931,0.19451
2105.88778,0.19594
2107.81624,0.19466
2109.74471,0.19359
2111.67318,0.19447
2113.60165,0.19593
2115.53012,0.19740
2117.45859,0.19769
2119.38706,0.19501
2121.31553,0.19213
2123.24399,0.19210
2125.17246,0.19313
2127.10093,0.19273
2129.02940,0.19209
2130.95787,0.19393
2132.88634,0.19762
2134.81481,0.19918
2136.74327,0.19727
2138.67174,0.19556
2140.60021,0.19568
2142.52868,0.19685
2144.45715,0.19872
2146.38562,0.20011
2148.31409,0.20086
2150.24255,0.20056
2152.17102,0.19936
2154.09949,0.19846
2156.02796,0.19640
2157.95643,0.19324
2159.88490,0.19193
2161.81337,0.19274
2163.74184,0.19422
2165.67030,0.19558
2167.59877,0.19550
2169.52724,0.19430
2171.45571,0.19388
2173.38418,0.19373
2175.31265,0.19275
2177.24112,0.19176
2179.16958,0.19213
2181.09805,0.19363
2183.02652,0.19377
2184.95499,0.19264
2186.88346,0.19296
2188.81193,0.19515
2190.74040,0.19710
2192.66887,0.19741
2194.59733,0.19710
2196.52580,0.19602
2198.45427,0.19392
2200.38274,0.19243
2202.31121,0.19326
2204.23968,0.19665
2206.16815,0.19848
2208.09661,0.19612
2210.02508,0.19349
2211.95355,0.19373
2213.88202,0.19496
2215.81049,0.19506
2217.73896,0.19534
2219.66743,0.19719
2221.59590,0.19835
2223.52436,0.19639
2225.45283,0.19360
2227.38130,0.19283
2229.30977,0.19369
2231.23824,0.19477
2233.16671,0.19441
2235.09518,0.19223
2237.02364,0.19124
2238.95211,0.19333
2240.88058,0.19512
2242.80905,0.19435
2244.73752,0.19358
2246.66599,0.19514
2248.59446,0.19685
2250.52293,0.19676
2252.45139,0.19688
2254.37986,0.19687
2256.30833,0.19603
2258.23680,0.19685
2260.16527,0.19943
2262.09374,0.19979
2264.02221,0.19678
2265.95067,0.19362
2267.87914,0.19176
2269.80761,0.19171
2271.73608,0.19278
2273.66455,0.19273
2275.59302,0.19305
2277.52149,0.19527
2279.44996,0.19691
2281.37842,0.19676
2283.30689,0.19561
2285.23536,0.19386
2287.16383,0.19396
2289.09230,0.19692
2291.02077,0.19769
2292.94924,0.19181
2294.87770,0.18379
2296.80617,0.18274
2298.73464,0.18868
2300.66311,0.19281
2302.59158,0.19227
2304.52005,0.19160
2306.44852,0.19311
2308.37699,0.19414
2310.30545,0.19130
2312.23392,0.18854
2314.16239,0.19013
2316.09086,0.19162
2318.01933,0.19288
2319.94780,0.19631
2321.87627,0.19703
2323.80473,0.19289
2325.73320,0.18524
2327.66167,0.17148
2329.59014,0.15723
2331.51861,0.15903
2333.44708,0.17408
2335.37555,0.18330
2337.30401,0.18665
2339.23248,0.19151
2341.16095,0.19812
2343.08942,0.20732
2345.01789,0.20454
2346.94636,0.19041
2348.87483,0.18492
2350.80330,0.18676
2352.73176,0.18488
2354.66023,0.18195
2356.58870,0.19585
2358.51717,0.20859
2360.44564,0.19120
2362.37411,0.17254
2364.30258,0.17894
2366.23104,0.18918
2368.15951,0.18726
2370.08798,0.18646
2372.01645,0.19122
2373.94492,0.19506
2375.87339,0.19542
2377.80186,0.19391
2379.73033,0.19450
2381.65879,0.19702
2383.58726,0.19844
2385.51573,0.19794
2387.44420,0.19656
2389.37267,0.19562
2391.30114,0.19636
2393.22961,0.19818
2395.15807,0.19783
2397.08654,0.19509
2399.01501,0.19323
2400.94348,0.19248
2402.87195,0.19218
2404.80042,0.19418
2406.72889,0.19744
2408.65736,0.19793
2410.58582,0.19564
2412.51429,0.19350
2414.44276,0.19304
2416.37123,0.19402
2418.29970,0.19426
2420.22817,0.19260
2422.15664,0.19253
2424.08510,0.19560
2426.01357,0.19705
2427.94204,0.19499
2429.87051,0.19296
2431.79898,0.19289
2433.72745,0.19424
2435.65592,0.19620
2437.58439,0.19777
2439.51285,0.19826
2441.44132,0.19765
2443.36979,0.19654
2445.29826,0.19537
2447.22673,0.19499
2449.15520,0.19685
2451.08367,0.19860
2453.01213,0.19781
2454.94060,0.19715
2456.86907,0.19762
2458.79754,0.19675
2460.72601,0.19450
2462.65448,0.19255
2464.58295,0.19141
2466.51142,0.19246
2468.43988,0.19572
2470.36835,0.19834
2472.29682,0.19892
2474.22529,0.19831
2476.15376,0.19875
2478.08223,0.20104
2480.01070,0.20257
2481.93916,0.20032
2483.86763,0.19610
2485.79610,0.19497
2487.72457,0.19752
2489.65304,0.20069
2491.58151,0.20080
2493.50998,0.19776
2495.43844,0.19679
2497.36691,0.19899
2499.29538,0.20044
2501.22385,0.19964
2503.15232,0.19884
2505.08079,0.19950
2507.00926,0.19965
2508.93773,0.19795
2510.86619,0.19580
2512.79466,0.19513
2514.72313,0.19657
2516.65160,0.19835
2518.58007,0.19868
2520.50854,0.19875
2522.43701,0.19991
2524.36547,0.20156
2526.29394,0.20237
2528.22241,0.20182
2530.15088,0.20217
2532.07935,0.20379
2534.00782,0.20267
2535.93629,0.19881
2537.86476,0.19654
2539.79322,0.19560
2541.72169,0.19466
2543.65016,0.19580
2545.57863,0.19733
2547.50710,0.19716
2549.43557,0.19725
2551.36404,0.19797
2553.29250,0.19786
2555.22097,0.19751
2557.14944,0.19861
2559.07791,0.19949
2561.00638,0.19831
2562.93485,0.19745
2564.86332,0.19823
2566.79179,0.19818
2568.72025,0.19652
2570.64872,0.19610
2572.57719,0.19839
2574.50566,0.20083
2576.43413,0.20190
2578.36260,0.20326
2580.29107,0.20443
2582.21953,0.20348
2584.14800,0.20056
2586.07647,0.19876
2588.00494,0.20023
2589.93341,0.20184
2591.86188,0.20140
2593.79035,0.19985
2595.71882,0.19830
2597.64728,0.19715
2599.57575,0.19733
2601.50422,0.19982
2603.43269,0.20222
2605.36116,0.20315
2607.28963,0.20346
2609.21810,0.20247
2611.14656,0.19928
2613.07503,0.19562
2615.00350,0.19502
2616.93197,0.19633
2618.86044,0.19703
2620.78891,0.19952
2622.71738,0.20330
2624.64585,0.20484
2626.57431,0.20437
2628.50278,0.20178
2630.43125,0.19902
2632.35972,0.20031
2634.28819,0.20282
2636.21666,0.20231
2638.14513,0.20080
2640.07359,0.20116
2642.00206,0.20306
2643.93053,0.20429
2645.85900,0.20337
2647.78747,0.20190
2649.71594,0.20191
2651.64441,0.20230
2653.57288,0.20066
2655.50134,0.19782
2657.42981,0.19717
2659.35828,0.19962
2661.28675,0.20316
2663.21522,0.20442
2665.14369,0.20407
2667.07216,0.20553
2669.00062,0.20566
2670.92909,0.20133
2672.85756,0.19722
2674.78603,0.19706
2676.71450,0.19842
2678.64297,0.19968
2680.57144,0.20201
2682.49990,0.20453
2684.42837,0.20469
2686.35684,0.20221
2688.28531,0.19932
2690.21378,0.19799
2692.14225,0.19908
2694.07072,0.20085
2695.99919,0.20284
2697.92765,0.20681
2699.85612,0.21028
2701.78459,0.21043
2703.71306,0.20827
2705.64153,0.20605
2707.57000,0.20578
2709.49847,0.20798
2711.42693,0.21115
2713.35540,0.21260
2715.28387,0.21079
2717.21234,0.20842
2719.14081,0.20888
2721.06928,0.21055
2722.99775,0.21061
2724.92622,0.20882
2726.85468,0.20697
2728.78315,0.20632
2730.71162,0.20599
2732.64009,0.20559
2734.56856,0.20406
2736.49703,0.20169
2738.42550,0.20245
2740.35396,0.20550
2742.28243,0.20635
2744.21090,0.20563
2746.13937,0.20512
2748.06784,0.20511
2749.99631,0.20619
2751.92478,0.20591
2753.85325,0.20326
2755.78171,0.20232
2757.71018,0.20430
2759.63865,0.20657
2761.56712,0.20730
2763.49559,0.20771
2765.42406,0.20854
2767.35253,0.20720
2769.28099,0.20510
2771.20946,0.20640
2773.13793,0.21000
2775.06640,0.21262
2776.99487,0.21258
2778.92334,0.21048
2780.85181,0.20943
2782.78028,0.21069
2784.70874,0.21183
2786.63721,0.21197
2788.56568,0.21193
2790.49415,0.21113
2792.42262,0.21084
2794.35109,0.21318
2796.27956,0.21622
2798.20802,0.21594
2800.13649,0.21200
2802.06496,0.20899
2803.99343,0.20980
2805.92190,0.21043
2807.85037,0.20951
2809.77884,0.21153
2811.70731,0.21458
2813.63577,0.21486
2815.56424,0.21490
2817.49271,0.21650
2819.42118,0.21692
2821.34965,0.21430
2823.27812,0.21278
2825.20659,0.21402
2827.13505,0.21539
2829.06352,0.21735
2830.99199,0.21906
2832.92046,0.21780
2834.84893,0.21387
2836.77740,0.21152
2838.70587,0.21331
2840.63433,0.21465
2842.56280,0.21376
2844.49127,0.21453
2846.41974,0.21601
2848.34821,0.21576
2850.27668,0.21532
2852.20515,0.21607
2854.13362,0.21626
2856.06208,0.21397
2857.99055,0.21151
2859.91902,0.21060
2861.84749,0.21050
2863.77596,0.21191
2865.70443,0.21392
2867.63290,0.21380
2869.56136,0.21198
2871.48983,0.20968
2873.41830,0.20577
2875.34677,0.20316
2877.27524,0.20530
2879.20371,0.20917
2881.13218,0.21211
2883.06065,0.21075
2884.98911,0.20355
2886.91758,0.19814
2888.84605,0.20014
2890.77452,0.20559
2892.70299,0.20654
2894.63146,0.20125
2896.55993,0.19853
2898.48839,0.20230
2900.41686,0.20671
2902.34533,0.20753
2904.27380,0.20386
2906.20227,0.20126
2908.13074,0.20609
2910.05921,0.21206
2911.98768,0.21256
2913.91614,0.20693
2915.84461,0.19723
2917.77308,0.19554
2919.70155,0.20487
2921.63002,0.21287
2923.55849,0.21272
2925.48696,0.20388
2927.41542,0.19997
2929.34389,0.21183
2931.27236,0.22020
2933.20083,0.21219
2935.12930,0.19668
2937.05777,0.18592
2938.98624,0.19173
2940.91471,0.20490
2942.84317,0.20857
2944.77164,0.20001
2946.70011,0.18370
2948.62858,0.18021
2950.55705,0.19714
2952.48552,0.21181
2954.41399,0.20966
2956.34245,0.19122
2958.27092,0.17755
2960.19939,0.18885
2962.12786,0.20565
2964.05633,0.20781
2965.98480,0.19836
2967.91327,0.18913
2969.84174,0.19580
2971.77020,0.21141
2973.69867,0.21905
2975.62714,0.21373
2977.55561,0.19783
2979.48408,0.19139
2981.41255,0.20292
2983.34102,0.21378
2985.26948,0.21349
2987.19795,0.20396
2989.12642,0.19822
2991.05489,0.20807
2992.98336,0.21951
2994.91183,0.22041
2996.84030,0.21687
2998.76877,0.21347
3000.69723,0.21336
3002.62570,0.21745
3004.55417,0.21936
3006.48264,0.21367
3008.41111,0.20127
3010.33958,0.18028
3012.26805,0.14617
3014.19651,0.10249
3016.12498,0.07329
3018.05345,0.09558
3019.98192,0.15677
3021.91039,0.20052
3023.83886,0.21290
3025.76733,0.21351
3027.69579,0.21231
3029.62426,0.21467
3031.55273,0.21970
3033.48120,0.22158
3035.40967,0.21694
3037.33814,0.20758
3039.26661,0.20430
3041.19508,0.21010
3043.12354,0.21380
3045.05201,0.20837
3046.98048,0.19945
3048.90895,0.20010
3050.83742,0.21022
3052.76589,0.21517
3054.69436,0.20700
3056.62282,0.19665
3058.55129,0.20324
3060.47976,0.21864
3062.40823,0.22191
3064.33670,0.21036
3066.26517,0.19591
3068.19364,0.19825
3070.12211,0.21188
3072.05057,0.21293
3073.97904,0.19935
3075.90751,0.18716
3077.83598,0.19110
3079.76445,0.20323
3081.69292,0.20561
3083.62139,0.19293
3085.54985,0.17990
3087.47832,0.19033
3089.40679,0.21386
3091.33526,0.22090
3093.26373,0.20497
3095.19220,0.18989
3097.12067,0.19904
3099.04914,0.21489
3100.97760,0.21133
3102.90607,0.19315
3104.83454,0.18825
3106.76301,0.20603
3108.69148,0.22193
3110.61995,0.21730
3112.54842,0.20280
3114.47688,0.20194
3116.40535,0.21425
3118.33382,0.21981
3120.26229,0.21165
3122.19076,0.20265
3124.11923,0.20761
3126.04770,0.21587
3127.97617,0.21392
3129.90463,0.20955
3131.83310,0.21080
3133.76157,0.21341
3135.69004,0.21257
3137.61851,0.20963
3139.54698,0.20883
3141.47545,0.21304
3143.40391,0.21556
3145.33238,0.21242
3147.26085,0.20850
3149.18932,0.20925
3151.11779,0.21719
3153.04626,0.22586
3154.97473,0.22594
3156.90320,0.21922
3158.83166,0.21670
3160.76013,0.21967
3162.68860,0.22350
3164.61707,0.22809
3166.54554,0.22940
3168.47401,0.22652
3170.40248,0.22473
3172.33094,0.22436
3174.25941,0.22351
3176.18788,0.22635
3178.11635,0.23245
3180.04482,0.23066
3181.97329,0.22063
3183.90176,0.21565
3185.83022,0.22110
3187.75869,0.22674
3189.68716,0.22364
3191.61563,0.21711
3193.54410,0.21332
3195.47257,0.21285
3197.40104,0.21585
3199.32951,0.22015
3201.25797,0.22400
3203.18644,0.22761
3205.11491,0.22800
3207.04338,0.22386
3208.97185,0.21937
3210.90032,0.21887
3212.82879,0.22176
3214.75725,0.22227
3216.68572,0.21941
3218.61419,0.21805
3220.54266,0.22087
3222.47113,0.22833
3224.39960,0.23268
3226.32807,0.22646
3228.25654,0.21826
3230.18500,0.21731
3232.11347,0.21932
3234.04194,0.21841
3235.97041,0.21639
3237.89888,0.21534
3239.82735,0.21532
3241.75582,0.21990
3243.68428,0.22879
3245.61275,0.23165
3247.54122,0.22401
3249.46969,0.21674
3251.39816,0.21730
3253.32663,0.21971
3255.25510,0.21826
3257.18357,0.21519
3259.11203,0.21339
3261.04050,0.21290
3262.96897,0.21551
3264.89744,0.22120
3266.82591,0.22474
3268.75438,0.22500
3270.68285,0.22362
3272.61131,0.21867
3274.53978,0.21423
3276.46825,0.21677
3278.39672,0.22034
3280.32519,0.21798
3282.25366,0.21535
3284.18213,0.21762
3286.11060,0.22074
3288.03906,0.22168
3289.96753,0.22219
3291.89600,0.22241
3293.82447,0.22281
3295.75294,0.22494
3297.68141,0.22488
3299.60988,0.22239
3301.53834,0.22398
3303.46681,0.22739
3305.39528,0.22594
3307.32375,0.22126
3309.25222,0.21950
3311.18069,0.22042
3313.10916,0.21833
3315.03763,0.21217
3316.96609,0.20634
3318.89456,0.20629
3320.82303,0.21006
3322.75150,0.21071
3324.67997,0.20931
3326.60844,0.21124
3328.53691,0.21545
3330.46537,0.21729
3332.39384,0.21764
3334.32231,0.22028
3336.25078,0.22445
3338.17925,0.22685
3340.10772,0.22614
3342.03619,0.22463
3343.96466,0.22533
3345.89312,0.22705
3347.82159,0.22748
3349.75006,0.22713
3351.67853,0.22652
3353.60700,0.22712
3355.53547,0.23036
3357.46394,0.23093
3359.39240,0.22645
3361.32087,0.22368
3363.24934,0.22320
3365.17781,0.22139
3367.10628,0.21976
3369.03475,0.21975
3370.96322,0.22345
3372.89168,0.22916
3374.82015,0.23021
3376.74862,0.22635
3378.67709,0.22338
3380.60556,0.22441
3382.53403,0.22593
3384.46250,0.22278
3386.39097,0.21690
3388.31943,0.21380
3390.24790,0.21492
3392.17637,0.21945
3394.10484,0.22494
3396.03331,0.22817
3397.96178,0.22590
3399.89025,0.21574
3401.81871,0.20527
3403.74718,0.20629
3405.67565,0.21661
3407.60412,0.22296
3409.53259,0.22039
3411.46106,0.21727
3413.38953,0.21935
3415.31800,0.22112
3417.24646,0.21880
3419.17493,0.21774
3421.10340,0.22144
3423.03187,0.22406
3424.96034,0.22109
3426.88881,0.21782
3428.81728,0.21652
3430.74574,0.21265
3432.67421,0.20564
3434.60268,0.20061
3436.53115,0.20318
3438.45962,0.21009
3440.38809,0.21410
3442.31656,0.21583
3444.24503,0.21759
3446.17349,0.21721
3448.10196,0.21205
3450.03043,0.20720
3451.95890,0.20801
3453.88737,0.20920
3455.81584,0.20921
3457.74431,0.21418
3459.67277,0.22058
3461.60124,0.22081
3463.52971,0.21668
3465.45818,0.21285
3467.38665,0.21064
3469.31512,0.20889
3471.24359,0.20644
3473.17206,0.20381
3475.10052,0.20137
3477.02899,0.20009
3478.95746,0.20136
3480.88593,0.20294
3482.81440,0.20264
3484.74287,0.20271
3486.67134,0.20374
3488.59980,0.20445
3490.52827,0.20273
3492.45674,0.19753
3494.38521,0.19350
3496.31368,0.19163
3498.24215,0.19036
3500.17062,0.19358
3502.09909,0.19995
3504.02755,0.20147
3505.95602,0.19552
3507.88449,0.18872
3509.81296,0.18645
3511.74143,0.18644
3513.66990,0.18782
3515.59837,0.19111
3517.52683,0.19059
3519.45530,0.18491
3521.38377,0.18344
3523.31224,0.18930
3525.24071,0.19325
3527.16918,0.19180
3529.09765,0.18777
3531.02611,0.18256
3532.95458,0.18244
3534.88305,0.18732
3536.81152,0.18589
3538.73999,0.17844
3540.66846,0.17398
3542.59693,0.17425
3544.52540,0.18152
3546.45386,0.19025
3548.38233,0.18957
3550.31080,0.18525
3552.23927,0.18165
3554.16774,0.17577
3556.09621,0.17100
3558.02468,0.17152
3559.95314,0.17583
3561.88161,0.17956
3563.81008,0.18582
3565.73855,0.19679
3567.66702,0.19649
3569.59549,0.18406
3571.52396,0.17773
3573.45243,0.17777
3575.38089,0.17782
3577.30936,0.17554
3579.23783,0.17201
3581.16630,0.16914
3583.09477,0.17023
3585.02324,0.17799
3586.95171,0.18605
3588.88017,0.17980
3590.80864,0.17140
3592.73711,0.17441
3594.66558,0.17921
3596.59405,0.17612
3598.52252,0.17108
3600.45099,0.16580
3602.37946,0.15952
3604.30792,0.15895
3606.23639,0.16504
3608.16486,0.16964
3610.09333,0.16960
3612.02180,0.17150
3613.95027,0.17571
3615.87874,0.18119
3617.80720,0.18848
3619.73567,0.18554
3621.66414,0.17255
3623.59261,0.16604
3625.52108,0.16707
3627.44955,0.17354
3629.37802,0.17615
3631.30649,0.16858
3633.23495,0.16392
3635.16342,0.16010
3637.09189,0.15234
3639.02036,0.14688
3640.94883,0.14896
3642.87730,0.15368
3644.80577,0.16000
3646.73423,0.17368
3648.66270,0.18975
3650.59117,0.18157
3652.51964,0.16178
3654.44811,0.15317
3656.37658,0.15071
3658.30505,0.14644
3660.23352,0.14456
3662.16198,0.14374
3664.09045,0.14057
3666.01892,0.14141
3667.94739,0.15289
3669.87586,0.16518
3671.80433,0.16089
3673.73280,0.15491
3675.66126,0.15426
3677.58973,0.15225
3679.51820,0.14901
3681.44667,0.14412
3683.37514,0.14023
3685.30361,0.14373
3687.23208,0.15786
3689.16055,0.17254
3691.08901,0.16622
3693.01748,0.15223
3694.94595,0.14559
3696.87442,0.14313
3698.80289,0.14264
3700.73136,0.14219
3702.65983,0.13717
3704.58829,0.13296
3706.51676,0.13631
3708.44523,0.14744
3710.37370,0.16359
3712.30217,0.16751
3714.23064,0.15332
3716.15911,0.14087
3718.08757,0.13504
3720.01604,0.13165
3721.94451,0.13213
3723.87298,0.13684
3725.80145,0.13938
3727.72992,0.13923
3729.65839,0.14073
3731.58686,0.14746
3733.51532,0.16271
3735.44379,0.17376
3737.37226,0.16252
3739.30073,0.14857
3741.22920,0.14671
3743.15767,0.15669
3745.08614,0.16932
3747.01460,0.17180
3748.94307,0.17355
3750.87154,0.17365
3752.80001,0.16292
3754.72848,0.15269
3756.65695,0.14698
3758.58542,0.14123
3760.51389,0.13374
3762.44235,0.13070
3764.37082,0.13331
3766.29929,0.13539
3768.22776,0.13526
3770.15623,0.13587
3772.08470,0.13574
3774.01317,0.13522
3775.94163,0.13511
3777.87010,0.13581
3779.79857,0.13711
3781.72704,0.13837
3783.65551,0.14078
3785.58398,0.14035
3787.51245,0.13491
3789.44092,0.13101
3791.36938,0.13287
3793.29785,0.13833
3795.22632,0.14281
3797.15479,0.14384
3799.08326,0.14703
3801.01173,0.15590
3802.94020,0.15528
3804.86866,0.14868
3806.79713,0.14735
3808.72560,0.14168
3810.65407,0.13027
3812.58254,0.12215
3814.51101,0.12426
3816.43948,0.13681
3818.36795,0.14771
3820.29641,0.15668
3822.22488,0.15583
3824.15335,0.14097
3826.08182,0.12757
3828.01029,0.12415
3829.93876,0.13149
3831.86723,0.14169
3833.79569,0.14637
3835.72416,0.15017
3837.65263,0.15735
3839.58110,0.15501
3841.50957,0.14607
3843.43804,0.14296
3845.36651,0.14068
3847.29498,0.13830
3849.22344,0.14421
3851.15191,0.16405
3853.08038,0.18634
3855.00885,0.17362
3856.93732,0.15303
3858.86579,0.14231
3860.79426,0.13785
3862.72272,0.14034
3864.65119,0.14337
3866.57966,0.13908
3868.50813,0.13616
3870.43660,0.13829
3872.36507,0.13769
3874.29354,0.13363
3876.22200,0.13075
3878.15047,0.13311
3880.07894,0.13810
3882.00741,0.13826
3883.93588,0.13546
3885.86435,0.13052
3887.79282,0.12528
3889.72129,0.12794
3891.64975,0.13506
3893.57822,0.13113
3895.50669,0.12330
3897.43516,0.12607
3899.36363,0.13602
3901.29210,0.13633
3903.22057,0.12565
3905.14903,0.11928
3907.07750,0.12011
3909.00597,0.12060
3910.93444,0.11879
3912.86291,0.11890
3914.79138,0.12110
3916.71985,0.12079
3918.64832,0.12148
3920.57678,0.12524
3922.50525,0.12359
3924.43372,0.11539
3926.36219,0.11114
3928.29066,0.11350
3930.21913,0.11578
3932.14760,0.11514
3934.07606,0.11391
3936.00453,0.11379
3937.93300,0.11563
3939.86147,0.12024
3941.78994,0.12380
3943.71841,0.12095
3945.64688,0.11599
3947.57535,0.11693
3949.50381,0.12241
3951.43228,0.12404
3953.36075,0.11962
3955.28922,0.11525
3957.21769,0.11553
3959.14616,0.11866
3961.07463,0.12236
3963.00309,0.12307
3964.93156,0.11854
3966.86003,0.11344
3968.78850,0.11065
3970.71697,0.10855
3972.64544,0.10564
3974.57391,0.10253
3976.50238,0.10289
3978.43084,0.10807
3980.35931,0.11331
3982.28778,0.11461
3984.21625,0.11250
3986.14472,0.10981
3988.07319,0.10723
3990.00166,0.10299
3991.93012,0.09985
3993.85859,0.10124
3995.78706,0.10398
3997.71553,0.10379
3999.64400,0.10330
4001.57247,0.10584
4003.50094,0.10581
4005.42941,0.10002
4007.35787,0.09683
4009.28634,0.10132
4011.21481,0.10690
4013.14328,0.10942
4015.07175,0.10934
4017.00022,0.10474
4018.92869,0.09901
4020.85715,0.09708
4022.78562,0.09741
4024.71409,0.09995
4026.64256,0.10424
4028.57103,0.10417
4030.49950,0.09704
4032.42797,0.09006
4034.35644,0.09156
4036.28490,0.09667
4038.21337,0.09846
4040.14184,0.10096
4042.07031,0.10465
4043.99878,0.10523
4045.92725,0.10291
4047.85572,0.10109
4049.78418,0.10376
4051.71265,0.10810
4053.64112,0.10753
4055.56959,0.10375
4057.49806,0.09949
4059.42653,0.09351
4061.35500,0.09132
4063.28346,0.09695
4065.21193,0.10114
4067.14040,0.09602
4069.06887,0.08816
4070.99734,0.08818
4072.92581,0.09599
4074.85428,0.10231
4076.78275,0.10223
4078.71121,0.09953
4080.63968,0.09596
4082.56815,0.09159
4084.49662,0.08926
4086.42509,0.08818
4088.35356,0.08709
4090.28203,0.08627
4092.21049,0.08499
4094.13896,0.08437
4096.06743,0.08597
4097.99590,0.08903
4099.92437,0.08854
4101.85284,0.08372
4103.78131,0.08343
4105.70978,0.09103
4107.63824,0.09732
4109.56671,0.09570
4111.49518,0.09281
4113.42365,0.09357
4115.35212,0.09300
4117.28059,0.08820
4119.20906,0.08356
4121.13752,0.08304
4123.06599,0.08387
4124.99446,0.08594
4126.92293,0.09009
4128.85140,0.09191
4130.77987,0.09172
4132.70834,0.09252
4134.63681,0.09274
4136.56527,0.08954
4138.49374,0.08585
4140.42221,0.08489
4142.35068,0.08388
4144.27915,0.08259
4146.20762,0.08149
4148.13609,0.08106
4150.06455,0.08566
4151.99302,0.09195
4153.92149,0.09095
4155.84996,0.08433
4157.77843,0.08099
4159.70690,0.08308
4161.63537,0.08421
4163.56384,0.08234
4165.49230,0.08119
4167.42077,0.07972
4169.34924,0.07707
4171.27771,0.07713
4173.20618,0.08037
4175.13465,0.08454
4177.06312,0.08745
4178.99158,0.08507
4180.92005,0.07846
4182.84852,0.07449
4184.77699,0.07547
4186.70546,0.07871
4188.63393,0.08295
4190.56240,0.08746
4192.49087,0.08459
4194.41933,0.07302
4196.34780,0.06614
4198.27627,0.06750
4200.20474,0.07053
4202.13321,0.07336
4204.06168,0.07331
4205.99015,0.07043
4207.91861,0.06790
4209.84708,0.06457
4211.77555,0.06045
4213.70402,0.05844
4215.63249,0.05947
4217.56096,0.06201
4219.48943,0.06460
4221.41789,0.06555
4223.34636,0.06260
4225.27483,0.05973
4227.20330,0.06333
4229.13177,0.06939
4231.06024,0.07119
4232.98871,0.06983
4234.91718,0.06641
4236.84564,0.06080
4238.77411,0.05642
4240.70258,0.05665
4242.63105,0.06165
4244.55952,0.06522
4246.48799,0.06246
4248.41646,0.05808
4250.34492,0.05664
4252.27339,0.05712
4254.20186,0.05660
4256.13033,0.05374
4258.05880,0.05070
4259.98727,0.04830
4261.91574,0.04846
4263.84421,0.05521
4265.77267,0.06291
4267.70114,0.06216
4269.62961,0.05544
4271.55808,0.04992
4273.48655,0.04737
4275.41502,0.04868
4277.34349,0.05251
4279.27195,0.05297
4281.20042,0.04911
4283.12889,0.04607
4285.05736,0.04642
4286.98583,0.04929
4288.91430,0.05384
4290.84277,0.05631
4292.77124,0.05299
4294.69970,0.04971
4296.62817,0.05077
4298.55664,0.05160
4300.48511,0.05005
4302.41358,0.04742
4304.34205,0.04604
4306.27052,0.04644
4308.19898,0.04610
4310.12745,0.04586
4312.05592,0.04559
4313.98439,0.04310
4315.91286,0.04221
4317.84133,0.04578
4319.76980,0.05046
4321.69827,0.05642
4323.62673,0.06332
4325.55520,0.06482
4327.48367,0.06186
4329.41214,0.05655
4331.34061,0.04612
4333.26908,0.03933
4335.19755,0.04144
4337.12601,0.04272
4339.05448,0.04105
4340.98295,0.04120
4342.91142,0.04408
4344.83989,0.04908
4346.76836,0.05242
4348.69683,0.04987
4350.62530,0.04145
4352.55376,0.03238
4354.48223,0.02874
4356.41070,0.03106
4358.33917,0.03578
4360.26764,0.03646
4362.19611,0.03140
4364.12458,0.02836
4366.05304,0.02999
4367.98151,0.03148
4369.90998,0.03129
4371.83845,0.02956
4373.76692,0.02759
4375.69539,0.02817
4377.62386,0.03140
4379.55232,0.03557
4381.48079,0.03713
4383.40926,0.03581
4385.33773,0.03326
4387.26620,0.02911
4389.19467,0.02787
4391.12314,0.02677
4393.05161,0.02373
4394.98007,0.02721
4396.90854,0.03376
4398.83701,0.03417
4400.76548,0.02756
4402.69395,0.02158
4404.62242,0.02230
4406.55089,0.02102
4408.47935,0.01435
4410.40782,0.01446
4412.33629,0.02298
4414.26476,0.02818
4416.19323,0.02607
4418.12170,0.02156
4420.05017,0.02155
4421.97864,0.02590
4423.90710,0.02803
4425.83557,0.02598
4427.76404,0.02114
4429.69251,0.01837
4431.62098,0.02153
4433.54945,0.02589
4435.47792,0.02579
4437.40638,0.02076
4439.33485,0.01606
4441.26332,0.01748
4443.19179,0.02252
4445.12026,0.02455
4447.04873,0.01933
4448.97720,0.01212
4450.90567,0.01240
4452.83413,0.01580
4454.76260,0.01564
4456.69107,0.01285
4458.61954,0.00840
4460.54801,0.00981
4462.47648,0.01887
4464.40495,0.02041
4466.33341,0.01161
4468.26188,0.00702
4470.19035,0.01077
4472.11882,0.01700
4474.04729,0.02021
4475.97576,0.01741
4477.90423,0.01343
4479.83270,0.01419
4481.76116,0.01599
4483.68963,0.01365
4485.61810,0.01103
4487.54657,0.01124
4489.47504,0.01218
4491.40351,0.01236
4493.33198,0.01394
4495.26044,0.01565
4497.18891,0.01269
4499.11738,0.01169
4501.04585,0.01614
4502.97432,0.01798
4504.90279,0.01394
4506.83126,0.00458
4508.75973,-0.00403
4510.68819,-0.00520
4512.61666,-0.00232
4514.54513,0.00061
4516.47360,0.00076
4518.40207,-0.00248
4520.33054,-0.00461
4522.25901,-0.00475
4524.18747,0.00075
4526.11594,0.01226
4528.04441,0.02045
4529.97288,0.02273
4531.90135,0.01819
4533.82982,0.00859
4535.75829,0.00359
4537.68676,0.00113
4539.61522,-0.00042
4541.54369,0.00699
4543.47216,0.01326
4545.40063,0.00888
4547.32910,0.00290
4549.25757,0.00051
4551.18604,0.00102
4553.11450,0.00289
4555.04297,0.00778
4556.97144,0.01748
4558.89991,0.02382
4560.82838,0.02021
4562.75685,0.01481
4564.68532,0.01388
4566.61378,0.01103
4568.54225,0.00521
4570.47072,-0.00081
4572.39919,-0.00619
4574.32766,-0.00694
4576.25613,-0.00127
4578.18460,0.00583
4580.11307,0.00728
4582.04153,0.00576
4583.97000,0.00772
4585.89847,0.00867
4587.82694,0.00070
4589.75541,-0.00958
4591.68388,-0.00879
4593.61235,-0.00142
4595.54081,-0.00030
4597.46928,-0.00257
4599.39775,-0.00115
4601.32622,-0.00230
4603.25469,-0.00980
4605.18316,-0.01031
4607.11163,0.00301
4609.04010,0.01340
4610.96856,0.01301
4612.89703,0.01120
4614.82550,0.01140
4616.75397,0.01393
4618.68244,0.01708
4620.61091,0.01554
4622.53938,0.00977
4624.46784,0.00328
4626.39631,-0.00402
4628.32478,-0.00904
4630.25325,-0.00418
4632.18172,0.00784
4634.11019,0.01229
4636.03866,0.00661
4637.96713,0.00169
4639.89559,0.00128
4641.82406,0.00720
4643.75253,0.01692
4645.68100,0.02191
4647.60947,0.02448
4649.53794,0.02795
4651.46641,0.02688
4653.39487,0.01932
4655.32334,0.00774
4657.25181,-0.00346
4659.18028,-0.00565
4661.10875,0.00463
4663.03722,0.01769
4664.96569,0.01570
4666.89416,-0.00110
4668.82262,-0.01173
4670.75109,-0.00811
4672.67956,0.00562
4674.60803,0.01761
4676.53650,0.01250
4678.46497,-0.00256
4680.39344,-0.01083
4682.32190,-0.01529
4684.25037,-0.02117
4686.17884,-0.01743
4688.10731,-0.00668
4690.03578,-0.00468
4691.96425,-0.00819
4693.89272,-0.00898
4695.82119,-0.00832
4697.74965,-0.00823
4699.67812,-0.00415
4701.60659,0.00878
4703.53506,0.02010
4705.46353,0.02210
4707.39200,0.02371
4709.32047,0.02398
4711.24893,0.01708
4713.17740,0.00940
4715.10587,0.00495
4717.03434,0.00198
4718.96281,-0.00058
4720.89128,-0.00181
4722.81975,-0.00052
4724.74821,-0.00111
4726.67668,-0.00809
4728.60515,-0.01452
4730.53362,-0.00920
4732.46209,0.00263
4734.39056,0.00754
4736.31903,0.00875
4738.24750,0.01372
4740.17596,0.01593
4742.10443,0.00960
4744.03290,0.00260
4745.96137,-0.00264
4747.88984,-0.01289
4749.81831,-0.01675
4751.74678,-0.00494
4753.67524,0.00849
4755.60371,0.01521
4757.53218,0.01500
4759.46065,0.01185
4761.38912,0.00823
4763.31759,-0.00137
4765.24606,-0.00855
4767.17453,-0.00448
4769.10299,0.00344
4771.03146,0.00977
4772.95993,0.01230
4774.88840,0.01035
4776.81687,0.00765
4778.74534,0.00800
4780.67381,0.00971
4782.60227,0.00617
4784.53074,0.00114
4786.45921,0.00375
4788.38768,0.00817
4790.31615,0.00646
4792.24462,0.00533
4794.17309,0.00936
4796.10156,0.00972
4798.03002,0.00153
4799.95849,-0.00735
4801.88696,-0.00862
4803.81543,-0.00343
4805.74390,0.00275
4807.67237,0.00908
4809.60084,0.01498
4811.52930,0.01941
4813.45777,0.02169
4815.38624,0.02047
4817.31471,0.01721
4819.24318,0.01358
4821.17165,0.01446
4823.10012,0.02420
4825.02859,0.03566
4826.95705,0.03788
4828.88552,0.03046
4830.81399,0.01960
4832.74246,0.00757
4834.67093,-0.00025
4836.59940,0.00409
4838.52787,0.01215
4840.45633,0.01459
4842.38480,0.01944
4844.31327,0.02549
4846.24174,0.02309
4848.17021,0.01347
4850.09868,0.00159
4852.02715,-0.00497
4853.95562,-0.00327
4855.88408,-0.00148
4857.81255,-0.00525
4859.74102,-0.01064
4861.66949,-0.01174
4863.59796,-0.00783
4865.52643,0.00180
4867.45490,0.01378
4869.38336,0.01321
4871.31183,-0.00652
4873.24030,-0.02295
4875.16877,-0.02126
4877.09724,-0.02093
4879.02571,-0.02333
4880.95418,-0.01041
4882.88265,0.00754
4884.81111,0.00937
4886.73958,0.00026
4888.66805,-0.00774
4890.59652,-0.00916
4892.52499,0.00055
4894.45346,0.01133
4896.38193,0.01386
4898.31039,0.01558
4900.23886,0.01893
4902.16733,0.01901
4904.09580,0.01882
4906.02427,0.02351
4907.95274,0.02786
4909.88121,0.02567
4911.80967,0.01861
4913.73814,0.00881
4915.66661,0.00307
4917.59508,0.00687
4919.52355,0.01354
4921.45202,0.01647
4923.38049,0.01517
4925.30896,0.01100
4927.23742,0.00313
4929.16589,-0.00116
4931.09436,0.00700
4933.02283,0.01371
4934.95130,0.00360
4936.87977,-0.01452
4938.80824,-0.02453
4940.73670,-0.02256
4942.66517,-0.01229
4944.59364,0.00282
4946.52211,0.01196
4948.45058,0.01314
4950.37905,0.01454
4952.30752,0.01033
4954.23599,0.00101
4956.16445,0.00005
4958.09292,0.00462
4960.02139,0.00468
4961.94986,0.00634
4963.87833,0.01770
4965.80680,0.02607
4967.73527,0.01986
4969.66373,0.00978
4971.59220,0.00754
4973.52067,0.01217
4975.44914,0.01731
4977.37761,0.01869
4979.30608,0.01833
4981.23455,0.02085
4983.16302,0.02141
4985.09148,0.01867
4987.01995,0.02153
4988.94842,0.02465
4990.87689,0.01966
4992.80536,0.01851
4994.73383,0.02109
4996.66230,0.00890
4998.59076,-0.00130
5000.51923,0.01078
5002.44770,0.01670
5004.37617,0.00182
5006.30464,-0.00643
5008.23311,-0.00179
5010.16158,0.00132
5012.09005,-0.00309
5014.01851,-0.00638
5015.94698,0.00612
5017.87545,0.02319
5019.80392,0.02695
5021.73239,0.02458
5023.66086,0.02189
5025.58933,0.01682
5027.51779,0.00587
5029.44626,-0.00765
5031.37473,-0.00000
5033.30320,0.02676
5035.23167,0.04048
5037.16014,0.04068
5039.08861,0.03822
5041.01708,0.02877
5042.94554,0.01510
5044.87401,0.00208
5046.80248,-0.00892
5048.73095,-0.00990
5050.65942,0.00176
5052.58789,0.01248
5054.51636,0.01131
5056.44482,0.00078
5058.37329,-0.00862
5060.30176,-0.00855
5062.23023,0.00443
5064.15870,0.02295
5066.08717,0.03062
5068.01564,0.03215
5069.94410,0.03050
5071.87257,0.01900
5073.80104,0.01630
5075.72951,0.02858
5077.65798,0.03275
5079.58645,0.02038
5081.51492,0.01225
5083.44339,0.01985
5085.37185,0.03018
5087.30032,0.04154
5089.22879,0.05239
5091.15726,0.04518
5093.08573,0.02536
5095.01420,0.01573
5096.94267,0.01126
5098.87113,0.00481
5100.79960,0.00906
5102.72807,0.01661
5104.65654,0.01926
5106.58501,0.02453
5108.51348,0.02371
5110.44195,0.01638
5112.37042,0.01348
5114.29888,0.00280
5116.22735,-0.01005
5118.15582,-0.00218
5120.08429,0.00812
5122.01276,0.00290
5123.94123,-0.00180
5125.86970,0.00165
5127.79816,0.01096
5129.72663,0.02576
5131.65510,0.03235
5133.58357,0.02265
5135.51204,0.02131
5137.44051,0.03868
5139.36898,0.04372
5141.29745,0.02083
5143.22591,-0.00548
5145.15438,-0.00305
5147.08285,0.02445
5149.01132,0.04009
5150.93979,0.03246
5152.86826,0.02135
5154.79673,0.01535
5156.72519,0.01491
5158.65366,0.02612
5160.58213,0.04265
5162.51060,0.04551
5164.43907,0.03067
5166.36754,0.02173
5168.29601,0.03059
5170.22448,0.03475
5172.15294,0.03104
5174.08141,0.04256
5176.00988,0.05342
5177.93835,0.04707
5179.86682,0.04223
5181.79529,0.03998
5183.72376,0.03113
5185.65222,0.01600
5187.58069,0.00063
5189.50916,0.00284
5191.43763,0.02299
5193.36610,0.03695
5195.29457,0.03345
5197.22304,0.02843
5199.15151,0.03152
5201.07997,0.03484
5203.00844,0.03542
5204.93691,0.02849
5206.86538,0.01753
5208.79385,0.01572
5210.72232,0.02111
5212.65079,0.02860
5214.57925,0.03325
5216.50772,0.02961
5218.43619,0.01400
5220.36466,-0.00566
5222.29313,-0.00523
5224.22160,0.02487
5226.15007,0.05962
5228.07854,0.07571
5230.00700,0.08010
5231.93547,0.06945
5233.86394,0.05455
5235.79241,0.05821
5237.72088,0.05672
5239.64935,0.03274
5241.57782,0.01252
5243.50628,0.01408
5245.43475,0.03468
5247.36322,0.05709
5249.29169,0.06224
5251.22016,0.05609
5253.14863,0.05458
5255.07710,0.05427
5257.00556,0.04797
5258.93403,0.04434
5260.86250,0.05147
5262.79097,0.05781
5264.71944,0.05149
5266.64791,0.04653
5268.57638,0.04792
5270.50485,0.04501
5272.43331,0.04861
5274.36178,0.05919
5276.29025,0.05030
5278.21872,0.03008
5280.14719,0.03040
5282.07566,0.04530
5284.00413,0.05757
5285.93259,0.06517
5287.86106,0.06250
5289.78953,0.05302
5291.71800,0.05132
5293.64647,0.05409
5295.57494,0.05028
5297.50341,0.03878
5299.43188,0.02842
5301.36034,0.03496
5303.28881,0.05224
5305.21728,0.06153
5307.14575,0.06728
5309.07422,0.06565
5311.00269,0.05219
5312.93116,0.05124
5314.85962,0.06105
5316.78809,0.06091
5318.71656,0.05748
5320.64503,0.05616
5322.57350,0.05508
5324.50197,0.05432
5326.43044,0.04540
5328.35891,0.03114
5330.28737,0.03162
5332.21584,0.04458
5334.14431,0.05244
5336.07278,0.05787
5338.00125,0.06029
5339.92972,0.05013
5341.85819,0.04154
5343.78665,0.04554
5345.71512,0.05129
5347.64359,0.05482
5349.57206,0.06858
5351.50053,0.08324
5353.42900,0.07343
5355.35747,0.05021
5357.28594,0.04167
5359.21440,0.03578
5361.14287,0.02914
5363.07134,0.03696
5364.99981,0.05135
5366.92828,0.06073
5368.85675,0.05279
5370.78522,0.03080
5372.71368,0.02686
5374.64215,0.04082
5376.57062,0.04935
5378.49909,0.05760
5380.42756,0.07038
5382.35603,0.08388
5384.28450,0.09755
5386.21297,0.10193
5388.14143,0.09329
5390.06990,0.08073
5391.99837,0.06809
5393.92684,0.06246
5395.85531,0.07496
5397.78378,0.10342
5399.71225,0.12523
5401.64071,0.11724
5403.56918,0.08769
5405.49765,0.06953
5407.42612,0.07120
5409.35459,0.07822
5411.28306,0.08909
5413.21153,0.08650
5415.13999,0.05887
5417.06846,0.04821
5418.99693,0.07725
5420.92540,0.11069
5422.85387,0.10199
5424.78234,0.06845
5426.71081,0.04990
5428.63928,0.04558
5430.56774,0.05796
5432.49621,0.08645
5434.42468,0.09850
5436.35315,0.08269
5438.28162,0.06610
5440.21009,0.06508
5442.13856,0.06925
5444.06702,0.06494
5445.99549,0.06132
5447.92396,0.06723
5449.85243,0.07977
5451.78090,0.09028
5453.70937,0.09485
5455.63784,0.09058
5457.56631,0.07122
5459.49477,0.05823
5461.42324,0.06645
5463.35171,0.07763
5465.28018,0.09004
5467.20865,0.10683
5469.13712,0.10578
5471.06559,0.07633
5472.99405,0.04134
5474.92252,0.02638
5476.85099,0.03310
5478.77946,0.04701
5480.70793,0.06977
5482.63640,0.07940
5484.56487,0.04933
5486.49334,0.01154
5488.42180,0.01487
5490.35027,0.06705
5492.27874,0.11592
5494.20721,0.10443
5496.13568,0.06818
5498.06415,0.06144
5499.99262,0.08130
5501.92108,0.09269
5503.84955,0.08484
5505.77802,0.07834
5507.70649,0.08211
5509.63496,0.08678
5511.56343,0.08663
5513.49190,0.08199
5515.42037,0.07764
5517.34883,0.07982
5519.27730,0.08192
5521.20577,0.07228
5523.13424,0.06583
5525.06271,0.07598
5526.99118,0.07798
5528.91965,0.06828
5530.84811,0.07553
5532.77658,0.08719
5534.70505,0.08235
5536.63352,0.08062
5538.56199,0.08702
5540.49046,0.08191
5542.41893,0.06738
5544.34740,0.06119
5546.27586,0.07481
5548.20433,0.09332
5550.13280,0.08478
5552.06127,0.06866
5553.98974,0.07327
5555.91821,0.07904
5557.84668,0.07656
5559.77514,0.07020
5561.70361,0.07519
5563.63208,0.10153
5565.56055,0.11791
5567.48902,0.11486
5569.41749,0.10614
5571.34596,0.09138
5573.27443,0.08790
5575.20289,0.10668
5577.13136,0.11692
5579.05983,0.11352
5580.98830,0.12208
5582.91677,0.12689
5584.84524,0.10333
5586.77371,0.07704
5588.70217,0.07341
5590.63064,0.08365
5592.55911,0.09571
5594.48758,0.09673
5596.41605,0.07251
5598.34452,0.03129
5600.27299,0.01296
5602.20145,0.04025
5604.12992,0.07814
5606.05839,0.09410
5607.98686,0.08006
5609.91533,0.05626
5611.84380,0.06416
5613.77227,0.09388
5615.70074,0.11286
5617.62920,0.12207
5619.55767,0.11122
5621.48614,0.07597
5623.41461,0.05252
5625.34308,0.05790
5627.27155,0.08069
5629.20002,0.10300
5631.12848,0.10057
5633.05695,0.08481
5634.98542,0.07485
5636.91389,0.05930
5638.84236,0.04374
5640.77083,0.04686
5642.69930,0.06619
5644.62777,0.08957
5646.55623,0.09803
5648.48470,0.08311
5650.41317,0.05745
5652.34164,0.04132
5654.27011,0.05651
5656.19858,0.09878
5658.12705,0.12928
5660.05551,0.12816
5661.98398,0.12691
5663.91245,0.14272
5665.84092,0.14840
5667.76939,0.12666
5669.69786,0.09287
5671.62633,0.07467
5673.55480,0.07019
5675.48326,0.07489
5677.41173,0.10522
5679.34020,0.12945
5681.26867,0.10351
5683.19714,0.06620
5685.12561,0.06413
5687.05408,0.07361
5688.98254,0.06780
5690.91101,0.05944
5692.83948,0.06233
5694.76795,0.05754
5696.69642,0.03115
5698.62489,0.01931
5700.55336,0.03969
5702.48183,0.05210
5704.41029,0.04932
5706.33876,0.05262
5708.26723,0.04649
5710.19570,0.02969
5712.12417,0.02571
5714.05264,0.03349
5715.98111,0.04453
5717.90957,0.05374
5719.83804,0.05874
5721.76651,0.06271
5723.69498,0.06273
5725.62345,0.06637
5727.55192,0.08221
5729.48039,0.09173
5731.40886,0.08811
5733.33732,0.08155
5735.26579,0.07673
5737.19426,0.08274
5739.12273,0.09202
5741.05120,0.09065
5742.97967,0.08961
5744.90814,0.10970
5746.83660,0.13326
5748.76507,0.11772
5750.69354,0.07359
5752.62201,0.04811
5754.55048,0.05782
5756.47895,0.08996
5758.40742,0.11367
5760.33588,0.10292
5762.26435,0.08298
5764.19282,0.09390
5766.12129,0.10527
5768.04976,0.08865
5769.97823,0.07524
5771.90670,0.07978
5773.83517,0.08456
5775.76363,0.08412
5777.69210,0.08098
5779.62057,0.07724
5781.54904,0.08364
5783.47751,0.09855
5785.40598,0.09901
5787.33445,0.08655
5789.26291,0.10391
5791.19138,0.15346
5793.11985,0.18199
5795.04832,0.16557
5796.97679,0.13366
5798.90526,0.11559
5800.83373,0.09561
5802.76220,0.06662
5804.69066,0.05221
5806.61913,0.05510
5808.54760,0.06508
5810.47607,0.07183
5812.40454,0.07223
5814.33301,0.07763
5816.26148,0.08362
5818.18994,0.08785
5820.11841,0.10328
5822.04688,0.12378
5823.97535,0.12381
5825.90382,0.09089
5827.83229,0.04934
5829.76076,0.03068
5831.68923,0.03404
5833.61769,0.04470
5835.54616,0.05065
5837.47463,0.05970
5839.40310,0.08041
5841.33157,0.08461
5843.26004,0.07142
5845.18851,0.08410
5847.11697,0.11452
5849.04544,0.12199
5850.97391,0.11754
5852.90238,0.11678
5854.83085,0.10407
5856.75932,0.09152
5858.68779,0.09367
5860.61626,0.09969
5862.54472,0.10457
5864.47319,0.09427
5866.40166,0.07558
5868.33013,0.08711
5870.25860,0.10199
5872.18707,0.07968
5874.11554,0.06690
5876.04400,0.09058
5877.97247,0.07840
5879.90094,0.02169
5881.82941,-0.00600
5883.75788,-0.00290
5885.68635,0.00671
5887.61482,0.01511
5889.54329,0.02084
5891.47175,0.04930
5893.40022,0.08110
5895.32869,0.08025
5897.25716,0.07738
5899.18563,0.09822
5901.11410,0.11400
5903.04257,0.10330
5904.97103,0.08968
5906.89950,0.09638
5908.82797,0.11064
5910.75644,0.12340
5912.68491,0.12565
5914.61338,0.09412
5916.54185,0.05342
5918.47032,0.04372
5920.39878,0.06613
5922.32725,0.09126
5924.25572,0.08574
5926.18419,0.06732
5928.11266,0.06828
5930.04113,0.08400
5931.96960,0.10822
5933.89806,0.11444
5935.82653,0.08381
5937.75500,0.05669
5939.68347,0.04641
5941.61194,0.04797
5943.54041,0.08444
5945.46888,0.11944
5947.39734,0.10192
5949.32581,0.07794
5951.25428,0.10333
5953.18275,0.14392
5955.11122,0.13845
5957.03969,0.08646
5958.96816,0.06329
5960.89663,0.09983
5962.82509,0.12804
5964.75356,0.11420
5966.68203,0.07359
5968.61050,0.04470
5970.53897,0.06026
5972.46744,0.09504
5974.39591,0.11997
5976.32437,0.13191
5978.25284,0.11800
5980.18131,0.08556
5982.10978,0.07602
5984.03825,0.09136
5985.96672,0.09407
5987.89519,0.08364
5989.82366,0.07294
5991.75212,0.08326
5993.68059,0.11269
5995.60906,0.10615
5997.53753,0.10062
5999.46600,0.15271
6001.39447,0.19592
6003.32294,0.16484
6005.25140,0.07616
6007.17987,0.00499
6009.10834,-0.00461
6011.03681,0.01987
6012.96528,0.04878
6014.89375,0.06337
6016.82222,0.05706
6018.75069,0.04524
6020.67915,0.03729
6022.60762,0.05484
6024.53609,0.09859
6026.46456,0.11437
6028.39303,0.08208
6030.32150,0.06447
6032.24997,0.09984
6034.17843,0.13296
6036.10690,0.12124
6038.03537,0.10003
6039.96384,0.08393
6041.89231,0.06020
6043.82078,0.05798
6045.74925,0.07161
6047.67772,0.06423
6049.60618,0.07197
6051.53465,0.11156
6053.46312,0.11299
6055.39159,0.07284
6057.32006,0.07642
6059.24853,0.12663
6061.17700,0.14872
6063.10546,0.11637
6065.03393,0.08430
6066.96240,0.09505
6068.89087,0.11462
6070.81934,0.12516
6072.74781,0.12987
6074.67628,0.10468
6076.60475,0.06044
6078.53321,0.03900
6080.46168,0.04771
6082.39015,0.05928
6084.31862,0.05895
6086.24709,0.05447
6088.17556,0.05758
6090.10403,0.07657
6092.03249,0.10940
6093.96096,0.13858
6095.88943,0.15337
6097.81790,0.15758
6099.74637,0.13733
6101.67484,0.09995
6103.60331,0.08484
6105.53177,0.09272
6107.46024,0.09263
6109.38871,0.07667
6111.31718,0.06020
6113.24565,0.04055
6115.17412,0.02158
6117.10259,0.03880
6119.03106,0.11679
6120.95952,0.18060
6122.88799,0.14777
6124.81646,0.07391
6126.74493,0.04179
6128.67340,0.04217
6130.60187,0.04800
6132.53034,0.05724
6134.45880,0.05403
6136.38727,0.04875
6138.31574,0.05560
6140.24421,0.05439
6142.17268,0.04237
6144.10115,0.02914
6146.02962,0.03963
6147.95809,0.09773
6149.88655,0.14910
6151.81502,0.12337
6153.74349,0.07041
6155.67196,0.10093
6157.60043,0.18366
6159.52890,0.20690
6161.45737,0.19604
6163.38583,0.21502
6165.31430,0.20513
6167.24277,0.14596
6169.17124,0.08446
6171.09971,0.04540
6173.02818,0.05139
6174.95665,0.09053
6176.88512,0.11295
6178.81358,0.10238
6180.74205,0.09044
6182.67052,0.08098
6184.59899,0.03395
6186.52746,-0.02425
6188.45593,-0.01437
6190.38440,0.04651
6192.31286,0.09776
6194.24133,0.11221
6196.16980,0.08033
6198.09827,0.05956
6200.02674,0.08389
6201.95521,0.09749
6203.88368,0.07988
6205.81215,0.06575
6207.74061,0.07917
6209.66908,0.09165
6211.59755,0.05389
6213.52602,0.01973
6215.45449,0.00623
6217.38296,-0.03466
6219.31143,-0.06137
6221.23989,-0.03684
6223.16836,-0.00901
6225.09683,-0.01097
6227.02530,0.00424
6228.95377,0.03563
6230.88224,0.04556
6232.81071,0.06874
6234.73918,0.10424
6236.66764,0.09963
6238.59611,0.06694
6240.52458,0.05513
6242.45305,0.07062
6244.38152,0.10952
6246.30999,0.16783
6248.23846,0.18536
6250.16692,0.12838
6252.09539,0.07742
6254.02386,0.09665
6255.95233,0.11648
6257.88080,0.08650
6259.80927,0.06080
6261.73774,0.06353
6263.66621,0.04996
6265.59467,0.00289
6267.52314,-0.03076
6269.45161,-0.02910
6271.38008,0.00543
6273.30855,0.07424
6275.23702,0.12328
6277.16549,0.09538
6279.09395,0.03359
6281.02242,0.01574
6282.95089,0.02557
6284.87936,0.01770
6286.80783,0.01973
6288.73630,0.05322
6290.66477,0.11713
6292.59323,0.16514
6294.52170,0.13596
6296.45017,0.06986
6298.37864,0.04183
6300.30711,0.07452
6302.23558,0.14348
6304.16405,0.18073
6306.09252,0.16060
6308.02098,0.10570
6309.94945,0.04241
6311.87792,0.03174
6313.80639,0.09564
6315.73486,0.14885
6317.66333,0.12929
6319.59180,0.08612
6321.52026,0.09191
6323.44873,0.11421
6325.37720,0.11209
6327.30567,0.11812
6329.23414,0.13109
6331.16261,0.11505
6333.09108,0.07715
6335.01955,0.06496
6336.94801,0.08670
6338.87648,0.11034
6340.80495,0.10535
6342.73342,0.06720
6344.66189,0.04429
6346.59036,0.06377
6348.51883,0.07622
6350.44729,0.05353
6352.37576,0.05208
6354.30423,0.08583
6356.23270,0.09874
6358.16117,0.09156
6360.08964,0.08023
6362.01811,0.05537
6363.94658,0.05146
6365.87504,0.08565
6367.80351,0.11183
6369.73198,0.13005
6371.66045,0.18232
6373.58892,0.21469
6375.51739,0.13500
6377.44586,0.04418
6379.37432,0.06499
6381.30279,0.12460
6383.23126,0.14325
6385.15973,0.12831
6387.08820,0.07591
6389.01667,0.02617
6390.94514,0.02575
6392.87361,0.05349
6394.80207,0.07119
6396.73054,0.07585
6398.65901,0.08846
6400.58748,0.09220
6402.51595,0.06026
6404.44442,0.01899
6406.37289,0.01179
6408.30135,0.02639
6410.22982,0.00137
6412.15829,-0.02127
6414.08676,0.04434
6416.01523,0.16080
6417.94370,0.21595
6419.87217,0.14232
6421.80064,0.03300
6423.72910,-0.01335
6425.65757,0.00824
6427.58604,0.04450
6429.51451,0.06832
6431.44298,0.09826
6433.37145,0.10949
6435.29992,0.08004
6437.22838,0.07840
6439.15685,0.12206
6441.08532,0.10883
6443.01379,0.03125
6444.94226,0.00064
6446.87073,0.01807
6448.79920,0.00213
6450.72766,-0.01265
6452.65613,0.02942
6454.58460,0.07960
6456.51307,0.09019
6458.44154,0.08199
6460.37001,0.10424
6462.29848,0.12835
6464.22695,0.12447
6466.15541,0.14385
6468.08388,0.17744
6470.01235,0.17104
6471.94082,0.15418
6473.86929,0.18180
6475.79776,0.22336
6477.72623,0.19483
6479.65469,0.09966
6481.58316,0.03992
6483.51163,0.03464
6485.44010,0.01964
6487.36857,0.01411
6489.29704,0.04764
6491.22551,0.09076
6493.15398,0.09393
6495.08244,0.05180
6497.01091,0.03167
6498.93938,0.05059
6500.86785,0.08492
6502.79632,0.13082
6504.72479,0.15631
6506.65326,0.13503
6508.58172,0.10262
6510.51019,0.09737
6512.43866,0.09883
6514.36713,0.10858
6516.29560,0.13693
6518.22407,0.15764
6520.15254,0.14505
6522.08101,0.09885
6524.00947,0.05014
6525.93794,-0.01015
6527.86641,-0.04540
6529.79488,0.01354
6531.72335,0.07565
6533.65182,0.07465
6535.58029,0.08086
6537.50875,0.12934
6539.43722,0.17170
6541.36569,0.16763
6543.29416,0.16378
6545.22263,0.17943
6547.15110,0.16560
6549.07957,0.15708
6551.00804,0.20228
6552.93650,0.22698
6554.86497,0.19279
6556.79344,0.11489
6558.72191,0.03126
6560.65038,0.02660
6562.57885,0.08259
6564.50732,0.12500
6566.43578,0.11848
6568.36425,0.07378
6570.29272,0.04652
6572.22119,0.04013
6574.14966,0.02085
6576.07813,0.00714
6578.00660,0.02505
6579.93507,0.06060
6581.86353,0.09170
6583.79200,0.10580
6585.72047,0.12744
6587.64894,0.16907
6589.57741,0.21433
6591.50588,0.26405
6593.43435,0.26698
6595.36281,0.19048
6597.29128,0.10777
6599.21975,0.04646
6601.14822,0.00773
6603.07669,0.00209
6605.00516,0.00385
6606.93363,-0.00880
6608.86210,-0.00210
6610.79056,0.04922
6612.71903,0.09473
6614.64750,0.10031
6616.57597,0.07833
6618.50444,0.09036
6620.43291,0.15975
6622.36138,0.16814
6624.28984,0.11056
6626.21831,0.11379
6628.14678,0.13337
6630.07525,0.07035
6632.00372,-0.00870
6633.93219,-0.01787
6635.86066,0.01834
6637.78912,0.01819
6639.71759,-0.01553
6641.64606,-0.01996
6643.57453,0.00780
6645.50300,0.05156
6647.43147,0.12155
6649.35994,0.17989
6651.28841,0.18343
6653.21687,0.12629
6655.14534,0.04038
6657.07381,-0.04098
6659.00228,-0.10406
6660.93075,-0.05966
6662.85922,0.07346
6664.78769,0.13900
6666.71615,0.13305
6668.64462,0.10580
6670.57309,0.05175
6672.50156,0.02112
6674.43003,0.03509
6676.35850,0.05762
6678.28697,0.06969
6680.21544,0.02569
6682.14390,-0.03013
6684.07237,-0.01198
6686.00084,0.02445
6687.92931,0.03470
6689.85778,0.04353
6691.78625,0.01575
6693.71472,-0.03379
6695.64318,-0.05552
6697.57165,-0.02706
6699.50012,0.06990
6701.42859,0.16791
6703.35706,0.15521
6705.28553,0.06400
6707.21400,0.00317
6709.14247,0.02363
6711.07093,0.09443
6712.99940,0.13960
6714.92787,0.11914
6716.85634,0.06313
6718.78481,0.00384
6720.71328,-0.02318
6722.64175,0.00807
6724.57021,0.04538
6726.49868,0.05699
6728.42715,0.04788
6730.35562,0.03481
6732.28409,0.01835
6734.21256,-0.03993
6736.14103,-0.10183
6738.06950,-0.09869
6739.99796,-0.06457
6741.92643,-0.04159
6743.85490,-0.00475
6745.78337,0.04851
6747.71184,0.08108
6749.64031,0.10518
6751.56878,0.14817
6753.49724,0.17045
6755.42571,0.15141
6757.35418,0.11311
6759.28265,0.04292
6761.21112,-0.02402
6763.13959,-0.00820
6765.06806,0.04458
6766.99653,0.06042
6768.92499,0.05920
6770.85346,0.06373
6772.78193,0.06747
6774.71040,0.06892
6776.63887,0.04173
6778.56734,0.02226
6780.49581,0.05533
6782.42427,0.08468
6784.35274,0.06607
6786.28121,0.05383
6788.20968,0.08840
6790.13815,0.10897
6792.06662,0.09517
6793.99509,0.10017
6795.92355,0.07651
6797.85202,0.00458
6799.78049,-0.02039
6801.70896,0.05074
6803.63743,0.14087
6805.56590,0.17879
6807.49437,0.15130
6809.42284,0.08037
6811.35130,0.04052
6813.27977,0.06603
6815.20824,0.11670
6817.13671,0.14890
6819.06518,0.11640
6820.99365,0.02727
6822.92212,-0.01588
6824.85058,0.06233
6826.77905,0.13065
6828.70752,0.12297
6830.63599,0.12546
6832.56446,0.15184
6834.49293,0.14885
6836.42140,0.10715
6838.34987,0.03773
6840.27833,-0.02195
6842.20680,-0.05732
6844.13527,-0.05970
6846.06374,-0.01310
6847.99221,0.02286
6849.92068,-0.00491
6851.84915,-0.04203
6853.77761,-0.03936
6855.70608,-0.00348
6857.63455,-0.01461
6859.56302,-0.06290
6861.49149,0.00279
6863.41996,0.17828
6865.34843,0.24339
6867.27690,0.13493
6869.20536,0.00328
6871.13383,-0.03985
6873.06230,0.00465
6874.99077,0.05216
6876.91924,0.06664
6878.84771,0.07211
6880.77618,0.07041
6882.70464,0.07181
6884.63311,0.08261
6886.56158,0.05901
6888.49005,0.00734
6890.41852,-0.00591
6892.34699,-0.00776
6894.27546,-0.07203
6896.20393,-0.13126
6898.13239,-0.09959
6900.06086,-0.02522
6901.98933,0.04802
6903.91780,0.11152
6905.84627,0.09535
6907.77474,0.02919
6909.70321,0.04696
6911.63167,0.12789
6913.56014,0.15724
6915.48861,0.12319
6917.41708,0.07089
6919.34555,-0.00602
6921.27402,-0.05337
6923.20249,0.01245
6925.13096,0.08896
6927.05942,0.07638
6928.98789,0.02611
6930.91636,0.03565
6932.84483,0.07692
6934.77330,0.06108
6936.70177,0.03132
6938.63024,0.00394
6940.55870,0.00065
6942.48717,0.05061
6944.41564,0.04615
6946.34411,-0.03865
6948.27258,-0.08494
6950.20105,-0.02510
6952.12952,0.07545
6954.05799,0.11353
6955.98645,0.04755
6957.91492,0.02212
6959.84339,0.10958
6961.77186,0.14169
6963.70033,0.07306
6965.62880,0.04748
6967.55727,0.08571
6969.48573,0.09849
6971.41420,0.07195
6973.34267,0.06463
6975.27114,0.14328
6977.19961,0.25969
6979.12808,0.28293
6981.05655,0.19772
6982.98501,0.05148
6984.91348,-0.06094
6986.84195,-0.07550
6988.77042,-0.01928
6990.69889,0.07331
6992.62736,0.11893
6994.55583,0.04759
6996.48430,-0.03438
6998.41276,0.02587
7000.34123,0.10962
7002.26970,0.10382
7004.19817,0.11081
7006.12664,0.17608
7008.05511,0.21942
7009.98358,0.15207
7011.91204,0.03500
7013.84051,-0.02158
7015.76898,-0.01120
7017.69745,-0.01925
7019.62592,-0.02445
7021.55439,-0.01824
7023.48286,-0.05739
7025.41133,-0.08342
7027.33979,-0.04307
7029.26826,0.03975
7031.19673,0.09558
7033.12520,0.06824
7035.05367,0.06253
7036.98214,0.10106
7038.91061,0.07780
7040.83907,0.02139
7042.76754,-0.01841
7044.69601,-0.05596
7046.62448,-0.16271
7048.55295,-0.25237
7050.48142,-0.13110
7052.40989,0.07774
7054.33836,0.17525
7056.26682,0.18445
7058.19529,0.16648
7060.12376,0.15456
7062.05223,0.13442
7063.98070,0.02332
7065.90917,-0.12354
7067.83764,-0.12522
7069.76610,0.03544
7071.69457,0.15321
7073.62304,0.18196
7075.55151,0.17989
7077.47998,0.12141
7079.40845,0.03301
7081.33692,0.03128
7083.26539,0.09188
7085.19385,0.07857
7087.12232,0.03938
7089.05079,0.02906
7090.97926,0.00848
7092.90773,-0.00734
7094.83620,0.02388
7096.76467,0.06435
7098.69313,0.05656
7100.62160,0.04040
7102.55007,0.08341
7104.47854,0.18176
7106.40701,0.25870
7108.33548,0.22901
7110.26395,0.12491
7112.19242,0.03100
7114.12088,-0.01986
7116.04935,-0.03410
7117.97782,-0.00714
7119.90629,0.02978
7121.83476,0.08815
7123.76323,0.15609
7125.69170,0.15743
7127.62016,0.12354
7129.54863,0.11865
7131.47710,0.08763
7133.40557,0.03951
7135.33404,0.03787
7137.26251,0.00657
7139.19098,-0.08628
7141.11944,-0.07931
7143.04791,0.11667
7144.97638,0.30377
7146.90485,0.25879
7148.83332,0.17822
7150.76179,0.21441
7152.69026,0.17064
7154.61873,-0.04432
7156.54719,-0.17212
7158.47566,-0.17835
7160.40413,-0.21904
7162.33260,-0.28003
7164.26107,-0.20189
7166.18954,0.03945
7168.11801,0.21658
7170.04647,0.25145
7171.97494,0.32074
7173.90341,0.43689
7175.83188,0.46089
7177.76035,0.43791
7179.68882,0.38000
7181.61729,0.15991
7183.54576,-0.02907
7185.47422,0.03733
7187.40269,0.10834
7189.33116,0.05778
7191.25963,0.01645
7193.18810,0.02021
7195.11657,0.02788
7197.04504,0.09695
7198.97350,0.15491
7200.90197,0.18867
7202.83044,0.18340
7204.75891,0.09288
7206.68738,0.08394
7208.61585,0.10158
7210.54432,0.05843
7212.47279,0.05387
7214.40125,0.08327
7216.32972,0.05406
7218.25819,-0.03154
7220.18666,-0.00548
7222.11513,0.13172
7224.04360,0.23145
7225.97207,0.19695
7227.90053,0.10057
7229.82900,-0.00460
7231.75747,-0.15062
7233.68594,-0.18312
7235.61441,-0.04750
7237.54288,0.10611
7239.47135,0.16678
7241.39982,0.14825
7243.32828,0.13259
7245.25675,0.19181
7247.18522,0.19120
7249.11369,0.06586
7251.04216,-0.02396
7252.97063,0.05387
7254.89910,0.10552
7256.82756,0.09609
7258.75603,0.12593
7260.68450,0.14924
7262.61297,0.19528
7264.54144,0.27029
7266.46991,0.21616
7268.39838,0.11193
7270.32685,0.13821
7272.25531,0.24805
7274.18378,0.16394
7276.11225,-0.01205
7278.04072,-0.10585
7279.96919,-0.12527
7281.89766,-0.18147
7283.82613,-0.22674
7285.75459,-0.20711
7287.68306,-0.18261
7289.61153,-0.19039
7291.54000,-0.14223
7293.46847,-0.02220
7295.39694,-0.01943
7297.32541,-0.14936
7299.25387,-0.18933
7301.18234,-0.10008
7303.11081,0.03672
7305.03928,0.15922
7306.96775,0.19375
7308.89622,0.00985
7310.82469,-0.25965
7312.75316,-0.33329
7314.68162,-0.23278
7316.61009,0.04102
7318.53856,0.24611
7320.46703,0.21371
7322.39550,0.10660
7324.32397,0.12277
7326.25244,0.20753
7328.18090,0.24514
7330.10937,0.18761
7332.03784,0.02703
7333.96631,-0.17092
7335.89478,-0.28398
7337.82325,-0.20090
7339.75172,0.18427
7341.68019,0.46022
7343.60865,0.39405
7345.53712,0.33721
7347.46559,0.32200
7349.39406,0.16712
7351.32253,0.03297
7353.25100,0.06261
7355.17947,0.07473
7357.10793,0.00229
7359.03640,0.06971
7360.96487,0.28212
7362.89334,0.32659
7364.82181,0.17986
7366.75028,0.04972
7368.67875,0.01449
7370.60722,0.02803
7372.53568,0.08205
7374.46415,0.19280
7376.39262,0.26374
7378.32109,0.22329
7380.24956,0.13885
7382.17803,0.07806
7384.10650,0.03347
7386.03496,0.06041
7387.96343,0.16399
7389.89190,0.18681
7391.82037,0.10995
7393.74884,0.00332
7395.67731,-0.08230
7397.60578,-0.06652
7399.53425,0.04274
7401.46271,0.08675
7403.39118,-0.04870
7405.31965,-0.20750
7407.24812,-0.19445
7409.17659,-0.13252
7411.10506,-0.09111
7413.03353,-0.03213
7414.96199,0.06663
7416.89046,0.24544
7418.81893,0.39947
7420.74740,0.31208
7422.67587,0.18182
7424.60434,0.15806
7426.53281,0.13382
7428.46128,0.06821
7430.38974,0.02126
7432.31821,0.03285
7434.24668,0.08658
7436.17515,0.09235
7438.10362,0.04941
7440.03209,0.08187
7441.96056,0.16992
7443.88902,0.21979
7445.81749,0.17187
7447.74596,0.00814
7449.67443,-0.09835
7451.60290,0.02995
7453.53137,0.12284
7455.45984,0.03480
7457.38831,-0.06661
7459.31677,-0.08306
7461.24524,0.01976
7463.17371,0.15322
7465.10218,0.18571
7467.03065,0.09231
7468.95912,0.05555
7470.88759,0.10435
7472.81605,0.12586
7474.74452,0.11603
7476.67299,0.04375
7478.60146,-0.04838
7480.52993,-0.05960
7482.45840,-0.02834
7484.38687,0.08239
7486.31533,0.20474
7488.24380,0.14285
7490.17227,-0.01598
7492.10074,-0.07973
7494.02921,-0.08449
7495.95768,-0.08979
7497.88615,-0.05249
