399.19301,1.36793
401.12148,0.52278
403.04995,-0.00904
404.97842,-0.04743
406.90689,-0.08502
408.83536,-0.21355
410.76382,-0.21667
412.69229,-0.08694
414.62076,-0.04340
416.54923,-0.13631
418.47770,-0.22654
420.40617,-0.28657
422.33464,-0.44030
424.26311,-0.45655
426.19157,-0.27581
428.12004,-0.18839
430.04851,-0.22695
431.97698,-0.20898
433.90545,-0.15871
435.83392,-0.16946
437.76239,-0.14474
439.69085,-0.06544
441.61932,-0.02317
443.54779,0.00549
445.47626,0.09582
447.40473,0.14905
449.33320,0.10192
451.26167,0.06063
453.19013,0.06422
455.11860,0.06582
457.04707,0.10722
458.97554,0.17659
460.90401,0.14626
462.83248,0.09075
464.76095,0.12190
466.68942,0.14169
468.61788,0.11257
470.54635,0.16121
472.47482,0.28928
474.40329,0.31871
476.33176,0.29344
478.26023,0.29477
480.18870,0.24505
482.11716,0.19023
484.04563,0.21706
485.97410,0.25023
487.90257,0.21898
489.83104,0.18265
491.75951,0.17178
493.68798,0.17919
495.61645,0.20865
497.54491,0.22131
499.47338,0.19605
501.40185,0.15981
503.33032,0.14163
505.25879,0.13856
507.18726,0.13043
509.11573,0.14397
511.04419,0.16497
512.97266,0.14728
514.90113,0.12908
516.82960,0.13806
518.75807,0.13230
520.68654,0.13001
522.61501,0.13430
524.54348,0.09815
526.47194,0.07795
528.40041,0.13282
530.32888,0.18736
532.25735,0.18833
534.18582,0.17161
536.11429,0.15291
538.04276,0.12678
539.97122,0.13255
541.89969,0.16426
543.82816,0.16653
545.75663,0.15598
547.68510,0.17360
549.61357,0.16959
551.54204,0.12293
553.47051,0.09426
555.39897,0.07856
557.32744,0.05894
559.25591,0.06858
561.18438,0.08928
563.11285,0.09374
565.04132,0.08834
566.96979,0.08551
568.89825,0.07602
570.82672,0.06556
572.75519,0.05808
574.68366,0.03824
576.61213,0.01839
578.54060,0.01960
580.46907,0.04581
582.39754,0.07707
584.32600,0.08460
586.25447,0.07393
588.18294,0.05870
590.11141,0.04411
592.03988,0.02810
593.96835,0.00092
595.89682,-0.01761
597.82528,-0.00173
599.75375,0.02657
601.68222,0.02320
603.61069,0.00107
605.53916,0.00884
607.46763,0.03278
609.39610,0.04426
611.32456,0.05030
613.25303,0.05119
615.18150,0.04879
617.10997,0.06076
619.03844,0.08252
620.96691,0.09107
622.89538,0.09451
624.82385,0.10463
626.75231,0.10196
628.68078,0.08647
630.60925,0.08612
632.53772,0.10310
634.46619,0.10737
636.39466,0.09772
638.32313,0.10435
640.25159,0.11866
642.18006,0.12555
644.10853,0.13612
646.03700,0.13702
647.96547,0.12733
649.89394,0.13490
651.82241,0.15203
653.75088,0.15933
655.67934,0.16387
657.60781,0.16244
659.53628,0.14640
661.46475,0.13250
663.39322,0.13012
665.32169,0.12902
667.25016,0.13309
669.17862,0.15155
671.10709,0.14935
673.03556,0.13448
674.96403,0.14194
676.89250,0.16383
678.82097,0.16213
680.74944,0.14747
682.67791,0.14957
684.60637,0.16050
686.53484,0.16735
688.46331,0.17311
690.39178,0.16921
692.32025,0.15060
694.24872,0.14052
696.17719,0.14044
698.10565,0.12595
700.03412,0.11295
701.96259,0.12338
703.89106,0.13534
705.81953,0.13242
707.74800,0.13022
709.67647,0.13984
711.60494,0.15205
713.53340,0.15240
715.46187,0.14046
717.39034,0.13200
719.31881,0.13541
721.24728,0.14013
723.17575,0.13585
725.10422,0.13485
727.03268,0.14389
728.96115,0.13984
730.88962,0.11875
732.81809,0.10688
734.74656,0.10606
736.67503,0.09946
738.60350,0.09567
740.53197,0.10736
742.46043,0.11858
744.38890,0.12087
746.31737,0.12276
748.24584,0.12022
750.17431,0.11196
752.10278,0.10978
754.03125,0.11459
755.95971,0.11450
757.88818,0.10992
759.81665,0.10749
761.74512,0.09957
763.67359,0.08580
765.60206,0.08390
767.53053,0.09553
769.45900,0.10289
771.38746,0.10242
773.31593,0.09916
775.24440,0.09173
777.17287,0.08854
779.10134,0.09567
781.02981,0.10288
782.95828,0.10878
784.88674,0.11522
786.81521,0.11382
788.74368,0.10714
790.67215,0.10439
792.60062,0.10380
794.52909,0.10629
796.45756,0.11617
798.38602,0.12406
800.31449,0.12402
802.24296,0.12418
804.17143,0.12690
806.09990,0.12750
808.02837,0.12397
809.95684,0.12053
811.88531,0.11981
813.81377,0.11891
815.74224,0.11790
817.67071,0.11940
819.59918,0.12665
821.52765,0.14251
823.45612,0.15663
825.38459,0.15143
827.31305,0.13878
829.24152,0.14053
831.16999,0.14165
833.09846,0.12925
835.02693,0.12159
836.95540,0.12582
838.88387,0.13185
840.81234,0.14011
842.74080,0.14837
844.66927,0.14873
846.59774,0.14647
848.52621,0.14865
850.45468,0.14665
852.38315,0.13643
854.31162,0.13517
856.24008,0.14887
858.16855,0.16119
860.09702,0.16298
862.02549,0.15697
863.95396,0.14813
865.88243,0.14644
867.81090,0.15501
869.73937,0.15625
871.66783,0.14480
873.59630,0.14009
875.52477,0.14397
877.45324,0.14353
879.38171,0.13781
881.31018,0.12787
883.23865,0.11769
885.16711,0.11994
887.09558,0.13110
889.02405,0.13277
890.95252,0.12785
892.88099,0.12827
894.80946,0.12982
896.73793,0.12921
898.66640,0.13465
900.59486,0.14574
902.52333,0.14419
904.45180,0.12827
906.38027,0.11818
908.30874,0.11643
910.23721,0.11708
912.16568,0.12201
914.09414,0.12522
916.02261,0.12308
917.95108,0.12637
919.87955,0.13386
921.80802,0.13396
923.73649,0.13448
925.66496,0.14241
927.59343,0.14463
929.52189,0.13705
931.45036,0.13201
933.37883,0.12854
935.30730,0.11814
937.23577,0.10992
939.16424,0.11068
941.09271,0.11260
943.02117,0.11407
944.94964,0.11680
946.87811,0.11614
948.80658,0.11453
950.73505,0.12004
952.66352,0.12803
954.59199,0.12952
956.52045,0.12952
958.44892,0.13303
960.37739,0.13415
962.30586,0.13195
964.23433,0.13122
966.16280,0.13142
968.09127,0.13067
970.01974,0.13263
971.94820,0.13787
973.87667,0.14118
975.80514,0.14238
977.73361,0.14317
979.66208,0.14175
981.59055,0.13802
983.51902,0.13432
985.44748,0.13110
987.37595,0.12787
989.30442,0.12679
991.23289,0.13148
993.16136,0.14084
995.08983,0.14897
997.01830,0.15220
998.94677,0.15016
1000.87523,0.14766
1002.80370,0.14964
1004.73217,0.14995
1006.66064,0.14349
1008.58911,0.13868
1010.51758,0.14286
1012.44605,0.15008
1014.37451,0.15228
1016.30298,0.15315
1018.23145,0.16138
1020.15992,0.17272
1022.08839,0.17665
1024.01686,0.17300
1025.94533,0.18181
1027.87380,0.21320
1029.80226,0.22069
1031.73073,0.18373
1033.65920,0.15575
1035.58767,0.15270
1037.51614,0.14917
1039.44461,0.14695
1041.37308,0.15426
1043.30154,0.16160
1045.23001,0.16477
1047.15848,0.16817
1049.08695,0.16638
1051.01542,0.16112
1052.94389,0.16088
1054.87236,0.15864
1056.80083,0.15495
1058.72929,0.16292
1060.65776,0.17242
1062.58623,0.16664
1064.51470,0.15835
1066.44317,0.15899
1068.37164,0.15803
1070.30011,0.15866
1072.22857,0.16881
1074.15704,0.17290
1076.08551,0.15910
1078.01398,0.14233
1079.94245,0.13988
1081.87092,0.14600
1083.79939,0.14912
1085.72786,0.14821
1087.65632,0.14510
1089.58479,0.14108
1091.51326,0.13714
1093.44173,0.13224
1095.37020,0.12901
1097.29867,0.14137
1099.22714,0.16352
1101.15560,0.16681
1103.08407,0.15554
1105.01254,0.15183
1106.94101,0.15022
1108.86948,0.14453
1110.79795,0.14574
1112.72642,0.15035
1114.65489,0.14720
1116.58335,0.14683
1118.51182,0.15250
1120.44029,0.15186
1122.36876,0.14935
1124.29723,0.15251
1126.22570,0.15257
1128.15417,0.14613
1130.08263,0.14333
1132.01110,0.14568
1133.93957,0.14818
1135.86804,0.14979
1137.79651,0.14821
1139.72498,0.14499
1141.65345,0.14512
1143.58191,0.14787
1145.51038,0.15017
1147.43885,0.15306
1149.36732,0.15640
1151.29579,0.15306
1153.22426,0.14460
1155.15273,0.14335
1157.08120,0.15092
1159.00966,0.15914
1160.93813,0.16364
1162.86660,0.16497
1164.79507,0.16362
1166.72354,0.16119
1168.65201,0.16235
1170.58048,0.16614
1172.50894,0.16721
1174.43741,0.16510
1176.36588,0.16270
1178.29435,0.15992
1180.22282,0.15654
1182.15129,0.15565
1184.07976,0.15729
1186.00823,0.15973
1187.93669,0.16298
1189.86516,0.16523
1191.79363,0.16629
1193.72210,0.16756
1195.65057,0.16577
1197.57904,0.16143
1199.50751,0.16100
1201.43597,0.16259
1203.36444,0.16213
1205.29291,0.16309
1207.22138,0.16665
1209.14985,0.16913
1211.07832,0.16819
1213.00679,0.16649
1214.93526,0.16758
1216.86372,0.17025
1218.79219,0.17263
1220.72066,0.17326
1222.64913,0.17256
1224.57760,0.17485
1226.50607,0.17767
1228.43454,0.17394
1230.36300,0.16758
1232.29147,0.16538
1234.21994,0.16504
1236.14841,0.16453
1238.07688,0.16568
1240.00535,0.16697
1241.93382,0.16649
1243.86229,0.16577
1245.79075,0.16517
1247.71922,0.16310
1249.64769,0.16081
1251.57616,0.15995
1253.50463,0.15844
1255.43310,0.15670
1257.36157,0.15765
1259.29003,0.15903
1261.21850,0.15760
1263.14697,0.15661
1265.07544,0.15899
1267.00391,0.16046
1268.93238,0.15933
1270.86085,0.16106
1272.78932,0.16418
1274.71778,0.16239
1276.64625,0.15897
1278.57472,0.15791
1280.50319,0.15721
1282.43166,0.15828
1284.36013,0.16162
1286.28860,0.16205
1288.21706,0.15956
1290.14553,0.15893
1292.07400,0.15970
1294.00247,0.16051
1295.93094,0.16313
1297.85941,0.16550
1299.78788,0.16261
1301.71634,0.15440
1303.64481,0.14652
1305.57328,0.14660
1307.50175,0.15710
1309.43022,0.16918
1311.35869,0.17413
1313.28716,0.17435
1315.21563,0.17579
1317.14409,0.17733
1319.07256,0.17389
1321.00103,0.16982
1322.92950,0.17068
1324.85797,0.17077
1326.78644,0.16801
1328.71491,0.16819
1330.64337,0.16983
1332.57184,0.16823
1334.50031,0.16646
1336.42878,0.16812
1338.35725,0.17153
1340.28572,0.17241
1342.21419,0.16981
1344.14266,0.16760
1346.07112,0.16889
1347.99959,0.17330
1349.92806,0.17596
1351.85653,0.17510
1353.78500,0.17324
1355.71347,0.17121
1357.64194,0.17140
1359.57040,0.17713
1361.49887,0.18597
1363.42734,0.18823
1365.35581,0.18341
1367.28428,0.17967
1369.21275,0.17802
1371.14122,0.17945
1373.06969,0.18619
1374.99815,0.19031
1376.92662,0.18422
1378.85509,0.17817
1380.78356,0.17853
1382.71203,0.17987
1384.64050,0.18176
1386.56897,0.18705
1388.49743,0.18755
1390.42590,0.18217
1392.35437,0.18440
1394.28284,0.19739
1396.21131,0.20821
1398.13978,0.20707
1400.06825,0.19635
1401.99672,0.18761
1403.92518,0.18939
1405.85365,0.19368
1407.78212,0.18998
1409.71059,0.18447
1411.63906,0.18272
1413.56753,0.18328
1415.49600,0.18746
1417.42446,0.19617
1419.35293,0.19730
1421.28140,0.18829
1423.20987,0.18540
1425.13834,0.18625
1427.06681,0.18478
1428.99528,0.18531
1430.92375,0.18832
1432.85221,0.19054
1434.78068,0.19625
1436.70915,0.20231
1438.63762,0.19517
1440.56609,0.18462
1442.49456,0.17974
1444.42303,0.18084
1446.35149,0.18530
1448.27996,0.18638
1450.20843,0.18561
1452.13690,0.19089
1454.06537,0.20421
1455.99384,0.22713
1457.92231,0.23160
1459.85077,0.20315
1461.77924,0.18902
1463.70771,0.19459
1465.63618,0.19722
1467.56465,0.18881
1469.49312,0.19124
1471.42159,0.20989
1473.35006,0.22230
1475.27852,0.21197
1477.20699,0.19578
1479.13546,0.18524
1481.06393,0.18391
1482.99240,0.18695
1484.92087,0.19229
1486.84934,0.20467
1488.77780,0.22032
1490.70627,0.21742
1492.63474,0.20485
1494.56321,0.20711
1496.49168,0.21966
1498.42015,0.21915
1500.34862,0.20442
1502.27709,0.18726
1504.20555,0.18507
1506.13402,0.23139
1508.06249,0.26958
1509.99096,0.24008
1511.91943,0.21889
1513.84790,0.21781
1515.77637,0.23066
1517.70483,0.24379
1519.63330,0.25109
1521.56177,0.25249
1523.49024,0.24103
1525.41871,0.23049
1527.34718,0.22123
1529.27565,0.21213
1531.20412,0.21374
1533.13258,0.22385
1535.06105,0.22414
1536.98952,0.22889
1538.91799,0.26480
1540.84646,0.30163
1542.77493,0.27827
1544.70340,0.24442
1546.63186,0.22220
1548.56033,0.21522
1550.48880,0.21589
1552.41727,0.21894
1554.34574,0.22987
1556.27421,0.25570
1558.20268,0.29787
1560.13115,0.27787
1562.05961,0.23207
1563.98808,0.21371
1565.91655,0.21034
1567.84502,0.21545
1569.77349,0.21691
1571.70196,0.20853
1573.63043,0.20907
1575.55889,0.21977
1577.48736,0.21806
1579.41583,0.20464
1581.34430,0.19510
1583.27277,0.19143
1585.20124,0.19102
1587.12971,0.18935
1589.05818,0.18676
1590.98664,0.18780
1592.91511,0.19143
1594.84358,0.19364
1596.77205,0.19441
1598.70052,0.19549
1600.62899,0.19608
1602.55746,0.19571
1604.48592,0.19583
1606.41439,0.19569
1608.34286,0.19529
1610.27133,0.19517
1612.19980,0.19561
1614.12827,0.20204
1616.05674,0.21564
1617.98521,0.21558
1619.91367,0.20573
1621.84214,0.20693
1623.77061,0.21119
1625.69908,0.20629
1627.62755,0.20079
1629.55602,0.19757
1631.48449,0.19821
1633.41295,0.21045
1635.34142,0.23379
1637.26989,0.23246
1639.19836,0.21298
1641.12683,0.20388
1643.05530,0.20758
1644.98377,0.22304
1646.91223,0.23933
1648.84070,0.23504
1650.76917,0.23320
1652.69764,0.24552
1654.62611,0.23115
1656.55458,0.20575
1658.48305,0.19763
1660.41152,0.20458
1662.33998,0.21418
1664.26845,0.21221
1666.19692,0.21067
1668.12539,0.22170
1670.05386,0.23142
1671.98233,0.22694
1673.91080,0.22544
1675.83926,0.22386
1677.76773,0.21685
1679.69620,0.21664
1681.62467,0.23037
1683.55314,0.24946
1685.48161,0.24268
1687.41008,0.22757
1689.33855,0.21869
1691.26701,0.21103
1693.19548,0.21352
1695.12395,0.23102
1697.05242,0.24944
1698.98089,0.25733
1700.90936,0.24867
1702.83783,0.23194
1704.76629,0.22419
1706.69476,0.21771
1708.62323,0.20886
1710.55170,0.20474
1712.48017,0.21001
1714.40864,0.22670
1716.33711,0.24492
1718.26558,0.23722
1720.19404,0.21347
1722.12251,0.19827
1724.05098,0.19232
1725.97945,0.19149
1727.90792,0.19621
1729.83639,0.20764
1731.76486,0.22438
1733.69332,0.23516
1735.62179,0.22297
1737.55026,0.21555
1739.47873,0.22083
1741.40720,0.22249
1743.33567,0.21899
1745.26414,0.22005
1747.19261,0.22632
1749.12107,0.23015
1751.04954,0.22248
1752.97801,0.21063
1754.90648,0.20597
1756.83495,0.20575
1758.76342,0.20462
1760.69189,0.20538
1762.62035,0.20413
1764.54882,0.19966
1766.47729,0.20169
1768.40576,0.21191
1770.33423,0.22615
1772.26270,0.23170
1774.19117,0.21843
1776.11964,0.20667
1778.04810,0.20495
1779.97657,0.20579
1781.90504,0.20336
1783.83351,0.19989
1785.76198,0.19572
1787.69045,0.19459
1789.61892,0.20470
1791.54738,0.21938
1793.47585,0.21835
1795.40432,0.20947
1797.33279,0.20720
1799.26126,0.20769
1801.18973,0.20437
1803.11820,0.19745
1805.04666,0.19136
1806.97513,0.18977
1808.90360,0.19277
1810.83207,0.19445
1812.76054,0.19142
1814.68901,0.18882
1816.61748,0.18779
1818.54595,0.18713
1820.47441,0.18889
1822.40288,0.19189
1824.33135,0.19363
1826.25982,0.19566
1828.18829,0.20089
1830.11676,0.20336
1832.04523,0.19814
1833.97369,0.19424
1835.90216,0.19349
1837.83063,0.19192
1839.75910,0.19308
1841.68757,0.20184
1843.61604,0.21187
1845.54451,0.21041
1847.47298,0.20183
1849.40144,0.19428
1851.32991,0.18932
1853.25838,0.18768
1855.18685,0.18793
1857.11532,0.18793
1859.04379,0.18853
1860.97226,0.19018
1862.90072,0.19111
1864.82919,0.19479
1866.75766,0.20488
1868.68613,0.21061
1870.61460,0.20220
1872.54307,0.19378
1874.47154,0.19115
1876.40001,0.19101
1878.32847,0.19325
1880.25694,0.19402
1882.18541,0.19098
1884.11388,0.18939
1886.04235,0.19253
1887.97082,0.19890
1889.89929,0.20222
1891.82775,0.19878
1893.75622,0.19477
1895.68469,0.19273
1897.61316,0.19175
1899.54163,0.19276
1901.47010,0.19433
1903.39857,0.19470
1905.32704,0.19472
1907.25550,0.19484
1909.18397,0.19442
1911.11244,0.19399
1913.04091,0.19317
1914.96938,0.19256
1916.89785,0.19492
1918.82632,0.19712
1920.75478,0.19713
1922.68325,0.19690
1924.61172,0.19353
1926.54019,0.18982
1928.46866,0.19015
1930.39713,0.19099
1932.32560,0.19029
1934.25407,0.19018
1936.18253,0.19074
1938.11100,0.19173
1940.03947,0.19578
1941.96794,0.20181
1943.89641,0.20265
1945.82488,0.19792
1947.75335,0.19313
1949.68181,0.18997
1951.61028,0.18848
1953.53875,0.18916
1955.46722,0.19162
1957.39569,0.19396
1959.32416,0.19490
1961.25263,0.19603
1963.18110,0.19737
1965.10956,0.19606
1967.03803,0.19264
1968.96650,0.19027
1970.89497,0.18990
1972.82344,0.19111
1974.75191,0.19240
1976.68038,0.18886
1978.60884,0.18188
1980.53731,0.18256
1982.46578,0.18907
1984.39425,0.19057
1986.32272,0.18900
1988.25119,0.18916
1990.17966,0.19079
1992.10812,0.19280
1994.03659,0.19284
1995.96506,0.18959
1997.89353,0.18570
1999.82200,0.18468
2001.75047,0.18498
2003.67894,0.18397
2005.60741,0.18387
2007.53587,0.18615
2009.46434,0.18754
2011.39281,0.18797
2013.32128,0.19075
2015.24975,0.19435
2017.17822,0.19458
2019.10669,0.19265
2021.03515,0.19340
2022.96362,0.19464
2024.89209,0.19240
2026.82056,0.18991
2028.74903,0.18949
2030.67750,0.18994
2032.60597,0.19064
2034.53444,0.19074
2036.46290,0.19049
2038.39137,0.19170
2040.31984,0.19427
2042.24831,0.19633
2044.17678,0.19737
2046.10525,0.19692
2048.03372,0.19515
2049.96218,0.19465
2051.89065,0.19483
2053.81912,0.19255
2055.74759,0.18964
2057.67606,0.18948
2059.60453,0.19099
2061.53300,0.19206
2063.46147,0.19263
2065.38993,0.19288
2067.31840,0.19354
2069.24687,0.19514
2071.17534,0.19630
2073.10381,0.19600
2075.03228,0.19497
2076.96075,0.19462
2078.88921,0.19473
2080.81768,0.19368
2082.74615,0.19219
2084.67462,0.19199
2086.60309,0.19254
2088.53156,0.19273
2090.46003,0.19349
2092.38850,0.19500
2094.31696,0.19575
2096.24543,0.19546
2098.17390,0.19393
2100.10237,0.19170
2102.03084,0.19138
2103.95931,0.19325
2105.88778,0.19444
2107.81624,0.19502
2109.74471,0.19685
2111.67318,0.19811
2113.60165,0.19669
2115.53012,0.19405
2117.45859,0.19359
2119.38706,0.19580
2121.31553,0.19803
2123.24399,0.19911
2125.17246,0.19851
2127.10093,0.19645
2129.02940,0.19516
2130.95787,0.19539
2132.88634,0.19553
2134.81481,0.19567
2136.74327,0.19617
2138.67174,0.19475
2140.60021,0.19343
2142.52868,0.19536
2144.45715,0.19610
2146.38562,0.19397
2148.31409,0.19365
2150.24255,0.19507
2152.17102,0.19557
2154.09949,0.19578
2156.02796,0.19517
2157.95643,0.19357
2159.88490,0.19422
2161.81337,0.19644
2163.74184,0.19621
2165.67030,0.19484
2167.59877,0.19442
2169.52724,0.19334
2171.45571,0.19181
2173.38418,0.19089
2175.31265,0.18963
2177.24112,0.18890
2179.16958,0.18980
2181.09805,0.18981
2183.02652,0.18821
2184.95499,0.18772
2186.88346,0.18891
2188.81193,0.19034
2190.74040,0.19126
2192.66887,0.19148
2194.59733,0.19106
2196.52580,0.19062
2198.45427,0.19008
2200.38274,0.18866
2202.31121,0.18774
2204.23968,0.18859
2206.16815,0.18982
2208.09661,0.18953
2210.02508,0.18887
2211.95355,0.19026
2213.88202,0.19169
2215.81049,0.19148
2217.73896,0.19270
2219.66743,0.19609
2221.59590,0.19873
2223.52436,0.19830
2225.45283,0.19601
2227.38130,0.19501
2229.30977,0.19484
2231.23824,0.19456
2233.16671,0.19474
2235.09518,0.19467
2237.02364,0.19524
2238.95211,0.19605
2240.88058,0.19535
2242.80905,0.19576
2244.73752,0.19693
2246.66599,0.19451
2248.59446,0.19184
2250.52293,0.19350
2252.45139,0.19485
2254.37986,0.19384
2256.30833,0.19412
2258.23680,0.19426
2260.16527,0.19242
2262.09374,0.19131
2264.02221,0.19211
2265.95067,0.19317
2267.87914,0.19356
2269.80761,0.19355
2271.73608,0.19300
2273.66455,0.19269
2275.59302,0.19282
2277.52149,0.19188
2279.44996,0.19081
2281.37842,0.19194
2283.30689,0.19512
2285.23536,0.19789
2287.16383,0.19868
2289.09230,0.19864
2291.02077,0.19841
2292.94924,0.19751
2294.87770,0.19727
2296.80617,0.19922
2298.73464,0.20295
2300.66311,0.20630
2302.59158,0.20742
2304.52005,0.20730
2306.44852,0.20677
2308.37699,0.20554
2310.30545,0.20469
2312.23392,0.20509
2314.16239,0.20554
2316.09086,0.20387
2318.01933,0.20190
2319.94780,0.20486
2321.87627,0.21057
2323.80473,0.21218
2325.73320,0.20961
2327.66167,0.20835
2329.59014,0.21298
2331.51861,0.21779
2333.44708,0.21598
2335.37555,0.21111
2337.30401,0.20370
2339.23248,0.19190
2341.16095,0.18376
2343.08942,0.18576
2345.01789,0.19059
2346.94636,0.19480
2348.87483,0.19783
2350.80330,0.19795
2352.73176,0.20051
2354.66023,0.20773
2356.58870,0.20898
2358.51717,0.20401
2360.44564,0.18889
2362.37411,0.17365
2364.30258,0.18324
2366.23104,0.19901
2368.15951,0.19871
2370.08798,0.19227
2372.01645,0.19046
2373.94492,0.19368
2375.87339,0.19844
2377.80186,0.20088
2379.73033,0.20049
2381.65879,0.19869
2383.58726,0.19660
2385.51573,0.19531
2387.44420,0.19390
2389.37267,0.19262
2391.30114,0.19316
2393.22961,0.19398
2395.15807,0.19393
2397.08654,0.19324
2399.01501,0.19149
2400.94348,0.19001
2402.87195,0.19048
2404.80042,0.19232
2406.72889,0.19400
2408.65736,0.19545
2410.58582,0.19712
2412.51429,0.19719
2414.44276,0.19473
2416.37123,0.19303
2418.29970,0.19339
2420.22817,0.19362
2422.15664,0.19328
2424.08510,0.19345
2426.01357,0.19486
2427.94204,0.19627
2429.87051,0.19571
2431.79898,0.19434
2433.72745,0.19473
2435.65592,0.19630
2437.58439,0.19690
2439.51285,0.19686
2441.44132,0.19765
2443.36979,0.19822
2445.29826,0.19756
2447.22673,0.19741
2449.15520,0.19850
2451.08367,0.20036
2453.01213,0.20246
2454.94060,0.20325
2456.86907,0.20147
2458.79754,0.19837
2460.72601,0.19678
2462.65448,0.19682
2464.58295,0.19673
2466.51142,0.19769
2468.43988,0.20094
2470.36835,0.20247
2472.29682,0.20008
2474.22529,0.19829
2476.15376,0.19869
2478.08223,0.19723
2480.01070,0.19427
2481.93916,0.19475
2483.86763,0.19828
2485.79610,0.20044
2487.72457,0.20073
2489.65304,0.20044
2491.58151,0.19942
2493.50998,0.19836
2495.43844,0.19809
2497.36691,0.19796
2499.29538,0.19754
2501.22385,0.19667
2503.15232,0.19637
2505.08079,0.19802
2507.00926,0.19925
2508.93773,0.19760
2510.86619,0.19563
2512.79466,0.19620
2514.72313,0.19715
2516.65160,0.19628
2518.58007,0.19579
2520.50854,0.19679
2522.43701,0.19757
2524.36547,0.19703
2526.29394,0.19548
2528.22241,0.19423
2530.15088,0.19456
2532.07935,0.19537
2534.00782,0.19499
2535.93629,0.19507
2537.86476,0.19593
2539.79322,0.19464
2541.72169,0.19273
2543.65016,0.19357
2545.57863,0.19532
2547.50710,0.19591
2549.43557,0.19605
2551.36404,0.19598
2553.29250,0.19550
2555.22097,0.19530
2557.14944,0.19680
2559.07791,0.19849
2561.00638,0.19689
2562.93485,0.19389
2564.86332,0.19291
2566.79179,0.19294
2568.72025,0.19346
2570.64872,0.19587
2572.57719,0.19825
2574.50566,0.19716
2576.43413,0.19420
2578.36260,0.19291
2580.29107,0.19362
2582.21953,0.19502
2584.14800,0.19663
2586.07647,0.19833
2588.00494,0.19929
2589.93341,0.19871
2591.86188,0.19704
2593.79035,0.19669
2595.71882,0.19918
2597.64728,0.20235
2599.57575,0.20294
2601.50422,0.20095
2603.43269,0.19930
2605.36116,0.19906
2607.28963,0.19916
2609.21810,0.20195
2611.14656,0.20878
2613.07503,0.21051
2615.00350,0.20589
2616.93197,0.20457
2618.86044,0.20440
2620.78891,0.20261
2622.71738,0.20206
2624.64585,0.20147
2626.57431,0.20128
2628.50278,0.20220
2630.43125,0.20180
2632.35972,0.19891
2634.28819,0.19613
2636.21666,0.19587
2638.14513,0.19707
2640.07359,0.19847
2642.00206,0.19965
2643.93053,0.20058
2645.85900,0.20107
2647.78747,0.20088
2649.71594,0.20120
2651.64441,0.20256
2653.57288,0.20275
2655.50134,0.20186
2657.42981,0.20290
2659.35828,0.20584
2661.28675,0.20748
2663.21522,0.20518
2665.14369,0.20114
2667.07216,0.20051
2669.00062,0.20342
2670.92909,0.20551
2672.85756,0.20560
2674.78603,0.20553
2676.71450,0.20569
2678.64297,0.20604
2680.57144,0.20691
2682.49990,0.20711
2684.42837,0.20607
2686.35684,0.20468
2688.28531,0.20278
2690.21378,0.20121
2692.14225,0.20149
2694.07072,0.20284
2695.99919,0.20427
2697.92765,0.20439
2699.85612,0.20202
2701.78459,0.19955
2703.71306,0.19979
2705.64153,0.20103
2707.57000,0.20049
2709.49847,0.19985
2711.42693,0.20129
2713.35540,0.20315
2715.28387,0.20307
2717.21234,0.20280
2719.14081,0.20490
2721.06928,0.20650
2722.99775,0.20631
2724.92622,0.20731
2726.85468,0.20885
2728.78315,0.20891
2730.71162,0.20787
2732.64009,0.20573
2734.56856,0.20241
2736.49703,0.20048
2738.42550,0.20174
2740.35396,0.20370
2742.28243,0.20394
2744.21090,0.20341
2746.13937,0.20391
2748.06784,0.20545
2749.99631,0.20587
2751.92478,0.20320
2753.85325,0.19990
2755.78171,0.19994
2757.71018,0.20299
2759.63865,0.20554
2761.56712,0.20587
2763.49559,0.20550
2765.42406,0.20543
2767.35253,0.20637
2769.28099,0.20917
2771.20946,0.21157
2773.13793,0.21090
2775.06640,0.20985
2776.99487,0.21138
2778.92334,0.21095
2780.85181,0.20779
2782.78028,0.20757
2784.70874,0.20880
2786.63721,0.20976
2788.56568,0.21225
2790.49415,0.21389
2792.42262,0.21355
2794.35109,0.21319
2796.27956,0.21312
2798.20802,0.21300
2800.13649,0.21292
2802.06496,0.21324
2803.99343,0.21271
2805.92190,0.21030
2807.85037,0.20857
2809.77884,0.20932
2811.70731,0.21087
2813.63577,0.21060
2815.56424,0.20823
2817.49271,0.20753
2819.42118,0.21054
2821.34965,0.21389
2823.27812,0.21501
2825.20659,0.21397
2827.13505,0.21127
2829.06352,0.20880
2830.99199,0.20959
2832.92046,0.21334
2834.84893,0.21540
2836.77740,0.21434
2838.70587,0.21294
2840.63433,0.21156
2842.56280,0.21025
2844.49127,0.21211
2846.41974,0.21633
2848.34821,0.21678
2850.27668,0.21392
2852.20515,0.21297
2854.13362,0.21276
2856.06208,0.21047
2857.99055,0.20978
2859.91902,0.21279
2861.84749,0.21428
2863.77596,0.21392
2865.70443,0.21419
2867.63290,0.21367
2869.56136,0.21321
2871.48983,0.21332
2873.41830,0.21304
2875.34677,0.21267
2877.27524,0.21320
2879.20371,0.21432
2881.13218,0.21286
2883.06065,0.20986
2884.98911,0.20931
2886.91758,0.20957
2888.84605,0.21005
2890.77452,0.21201
2892.70299,0.21231
2894.63146,0.21051
2896.55993,0.21022
2898.48839,0.21077
2900.41686,0.20935
2902.34533,0.20715
2904.27380,0.20445
2906.20227,0.20045
2908.13074,0.19967
2910.05921,0.20343
2911.98768,0.20647
2913.91614,0.20519
2915.84461,0.20036
2917.77308,0.19636
2919.70155,0.19556
2921.63002,0.19732
2923.55849,0.19934
2925.48696,0.19969
2927.41542,0.20460
2929.34389,0.21348
2931.27236,0.21476
2933.20083,0.21174
2935.12930,0.21117
2937.05777,0.20748
2938.98624,0.20264
2940.91471,0.20341
2942.84317,0.20754
2944.77164,0.20914
2946.70011,0.20682
2948.62858,0.20501
2950.55705,0.20597
2952.48552,0.20830
2954.41399,0.21069
2956.34245,0.20933
2958.27092,0.20489
2960.19939,0.20600
2962.12786,0.21282
2964.05633,0.21646
2965.98480,0.21612
2967.91327,0.21567
2969.84174,0.21461
2971.77020,0.21384
2973.69867,0.21522
2975.62714,0.21466
2977.55561,0.21164
2979.48408,0.21370
2981.41255,0.21849
2983.34102,0.21854
2985.26948,0.21705
2987.19795,0.21777
2989.12642,0.21939
2991.05489,0.22121
2992.98336,0.22343
2994.91183,0.22451
2996.84030,0.22262
2998.76877,0.22024
3000.69723,0.22008
3002.62570,0.22054
3004.55417,0.22072
3006.48264,0.22204
3008.41111,0.22287
3010.33958,0.21993
3012.26805,0.21097
3014.19651,0.19409
3016.12498,0.17886
3018.05345,0.18379
3019.98192,0.20388
3021.91039,0.21612
3023.83886,0.21811
3025.76733,0.21968
3027.69579,0.22204
3029.62426,0.22358
3031.55273,0.22434
3033.48120,0.22465
3035.40967,0.22365
3037.33814,0.22194
3039.26661,0.22108
3041.19508,0.21939
3043.12354,0.21627
3045.05201,0.21366
3046.98048,0.21167
3048.90895,0.21200
3050.83742,0.21597
3052.76589,0.21800
3054.69436,0.21514
3056.62282,0.21298
3058.55129,0.21475
3060.47976,0.21705
3062.40823,0.21908
3064.33670,0.22036
3066.26517,0.21752
3068.19364,0.21431
3070.12211,0.21409
3072.05057,0.21283
3073.97904,0.20845
3075.90751,0.20518
3077.83598,0.20753
3079.76445,0.21099
3081.69292,0.21081
3083.62139,0.20709
3085.54985,0.20167
3087.47832,0.20323
3089.40679,0.21283
3091.33526,0.21727
3093.26373,0.21290
3095.19220,0.21056
3097.12067,0.21397
3099.04914,0.21607
3100.97760,0.21304
3102.90607,0.20861
3104.83454,0.20897
3106.76301,0.21226
3108.69148,0.21221
3110.61995,0.20992
3112.54842,0.21117
3114.47688,0.21792
3116.40535,0.22300
3118.33382,0.21900
3120.26229,0.21058
3122.19076,0.20805
3124.11923,0.21295
3126.04770,0.21861
3127.97617,0.22158
3129.90463,0.22064
3131.83310,0.21790
3133.76157,0.21927
3135.69004,0.22137
3137.61851,0.21780
3139.54698,0.21448
3141.47545,0.21662
3143.40391,0.21894
3145.33238,0.22004
3147.26085,0.22251
3149.18932,0.22425
3151.11779,0.22405
3153.04626,0.22457
3154.97473,0.22597
3156.90320,0.22460
3158.83166,0.22181
3160.76013,0.22186
3162.68860,0.22348
3164.61707,0.22444
3166.54554,0.22344
3168.47401,0.22097
3170.40248,0.22209
3172.33094,0.22677
3174.25941,0.22799
3176.18788,0.22539
3178.11635,0.22468
3180.04482,0.22678
3181.97329,0.22814
3183.90176,0.22759
3185.83022,0.22615
3187.75869,0.22181
3189.68716,0.21700
3191.61563,0.21828
3193.54410,0.22193
3195.47257,0.22085
3197.40104,0.21799
3199.32951,0.21685
3201.25797,0.21468
3203.18644,0.21440
3205.11491,0.21959
3207.04338,0.22416
3208.97185,0.22550
3210.90032,0.22737
3212.82879,0.22858
3214.75725,0.22602
3216.68572,0.22184
3218.61419,0.21845
3220.54266,0.21534
3222.47113,0.21355
3224.39960,0.21427
3226.32807,0.21658
3228.25654,0.21903
3230.18500,0.22071
3232.11347,0.22035
3234.04194,0.21788
3235.97041,0.21743
3237.89888,0.22125
3239.82735,0.22448
3241.75582,0.22392
3243.68428,0.22260
3245.61275,0.22123
3247.54122,0.21821
3249.46969,0.21624
3251.39816,0.21601
3253.32663,0.21396
3255.25510,0.21204
3257.18357,0.21406
3259.11203,0.21518
3261.04050,0.21184
3262.96897,0.20871
3264.89744,0.20873
3266.82591,0.21157
3268.75438,0.21543
3270.68285,0.21733
3272.61131,0.21647
3274.53978,0.21557
3276.46825,0.21670
3278.39672,0.21626
3280.32519,0.21304
3282.25366,0.21230
3284.18213,0.21346
3286.11060,0.21119
3288.03906,0.20701
3289.96753,0.20487
3291.89600,0.20642
3293.82447,0.21147
3295.75294,0.21591
3297.68141,0.21712
3299.60988,0.21704
3301.53834,0.21503
3303.46681,0.20889
3305.39528,0.20484
3307.32375,0.20777
3309.25222,0.20986
3311.18069,0.20877
3313.10916,0.21025
3315.03763,0.21295
3316.96609,0.21522
3318.89456,0.21910
3320.82303,0.22358
3322.75150,0.22363
3324.67997,0.21886
3326.60844,0.21699
3328.53691,0.21948
3330.46537,0.22185
3332.39384,0.22438
3334.32231,0.22693
3336.25078,0.22813
3338.17925,0.22773
3340.10772,0.22554
3342.03619,0.22253
3343.96466,0.22018
3345.89312,0.21956
3347.82159,0.22051
3349.75006,0.22261
3351.67853,0.22575
3353.60700,0.22955
3355.53547,0.23142
3357.46394,0.22886
3359.39240,0.22480
3361.32087,0.22422
3363.24934,0.22974
3365.17781,0.23551
3367.10628,0.23347
3369.03475,0.22914
3370.96322,0.22893
3372.89168,0.22873
3374.82015,0.22695
3376.74862,0.22568
3378.67709,0.22457
3380.60556,0.22398
3382.53403,0.22419
3384.46250,0.22359
3386.39097,0.22128
3388.31943,0.22083
3390.24790,0.22569
3392.17637,0.22998
3394.10484,0.22915
3396.03331,0.22595
3397.96178,0.22035
3399.89025,0.21575
3401.81871,0.21662
3403.74718,0.21750
3405.67565,0.21568
3407.60412,0.21663
3409.53259,0.21870
3411.46106,0.21643
3413.38953,0.21340
3415.31800,0.21455
3417.24646,0.21855
3419.17493,0.22157
3421.10340,0.22173
3423.03187,0.21779
3424.96034,0.21130
3426.88881,0.21017
3428.81728,0.21449
3430.74574,0.21370
3432.67421,0.20603
3434.60268,0.20061
3436.53115,0.20303
3438.45962,0.20814
3440.38809,0.20795
3442.31656,0.20306
3444.24503,0.20145
3446.17349,0.20683
3448.10196,0.21323
3450.03043,0.21473
3451.95890,0.21162
3453.88737,0.20447
3455.81584,0.19547
3457.74431,0.19007
3459.67277,0.19081
3461.60124,0.19588
3463.52971,0.20149
3465.45818,0.20255
3467.38665,0.19806
3469.31512,0.19376
3471.24359,0.19270
3473.17206,0.19399
3475.10052,0.19772
3477.02899,0.20011
3478.95746,0.19932
3480.88593,0.19763
3482.81440,0.19353
3484.74287,0.18948
3486.67134,0.18975
3488.59980,0.19094
3490.52827,0.19071
3492.45674,0.19185
3494.38521,0.19350
3496.31368,0.19333
3498.24215,0.19518
3500.17062,0.20083
3502.09909,0.20316
3504.02755,0.19728
3505.95602,0.19053
3507.88449,0.18839
3509.81296,0.18852
3511.74143,0.18954
3513.66990,0.19101
3515.59837,0.19275
3517.52683,0.19329
3519.45530,0.19081
3521.38377,0.18860
3523.31224,0.18931
3525.24071,0.19164
3527.16918,0.19343
3529.09765,0.19180
3531.02611,0.18741
3532.95458,0.18408
3534.88305,0.18403
3536.81152,0.18640
3538.73999,0.18708
3540.66846,0.18418
3542.59693,0.18152
3544.52540,0.18358
3546.45386,0.18535
3548.38233,0.18083
3550.31080,0.17653
3552.23927,0.17532
3554.16774,0.17372
3556.09621,0.17402
3558.02468,0.17563
3559.95314,0.17363
3561.88161,0.17419
3563.81008,0.18628
3565.73855,0.20292
3567.66702,0.20210
3569.59549,0.18330
3571.52396,0.16877
3573.45243,0.16253
3575.38089,0.16130
3577.30936,0.16301
3579.23783,0.16393
3581.16630,0.16317
3583.09477,0.16659
3585.02324,0.17663
3586.95171,0.18463
3588.88017,0.18117
3590.80864,0.17347
3592.73711,0.16938
3594.66558,0.17051
3596.59405,0.17147
3598.52252,0.16833
3600.45099,0.16410
3602.37946,0.16108
3604.30792,0.16032
3606.23639,0.16351
3608.16486,0.17038
3610.09333,0.17689
3612.02180,0.18164
3613.95027,0.18145
3615.87874,0.17810
3617.80720,0.17946
3619.73567,0.17758
3621.66414,0.16553
3623.59261,0.15760
3625.52108,0.16139
3627.44955,0.17334
3629.37802,0.17571
3631.30649,0.16323
3633.23495,0.15518
3635.16342,0.15140
3637.09189,0.14815
3639.02036,0.14790
3640.94883,0.15067
3642.87730,0.15271
3644.80577,0.15633
3646.73423,0.16899
3648.66270,0.18436
3650.59117,0.17440
3652.51964,0.15686
3654.44811,0.14805
3656.37658,0.14105
3658.30505,0.13678
3660.23352,0.13815
3662.16198,0.13914
3664.09045,0.13961
3666.01892,0.14642
3667.94739,0.16131
3669.87586,0.17235
3671.80433,0.16967
3673.73280,0.17297
3675.66126,0.18059
3677.58973,0.17202
3679.51820,0.15833
3681.44667,0.14822
3683.37514,0.14474
3685.30361,0.14929
3687.23208,0.16029
3689.16055,0.16946
3691.08901,0.16206
3693.01748,0.15005
3694.94595,0.14432
3696.87442,0.14153
3698.80289,0.14273
3700.73136,0.14836
3702.65983,0.14980
3704.58829,0.14614
3706.51676,0.14625
3708.44523,0.15499
3710.37370,0.16821
3712.30217,0.16710
3714.23064,0.15521
3716.15911,0.14994
3718.08757,0.14784
3720.01604,0.14579
3721.94451,0.15116
3723.87298,0.15922
3725.80145,0.15677
3727.72992,0.15115
3729.65839,0.15509
3731.58686,0.16625
3733.51532,0.17810
3735.44379,0.18449
3737.37226,0.17665
3739.30073,0.16382
3741.22920,0.15546
3743.15767,0.15415
3745.08614,0.16299
3747.01460,0.17415
3748.94307,0.18515
3750.87154,0.18819
3752.80001,0.17234
3754.72848,0.16060
3756.65695,0.15913
3758.58542,0.15769
3760.51389,0.14846
3762.44235,0.13934
3764.37082,0.13633
3766.29929,0.13801
3768.22776,0.14144
3770.15623,0.13799
3772.08470,0.12784
3774.01317,0.12654
3775.94163,0.13386
3777.87010,0.13986
3779.79857,0.14069
3781.72704,0.13905
3783.65551,0.13816
3785.58398,0.13622
3787.51245,0.13187
3789.44092,0.12762
3791.36938,0.12589
3793.29785,0.12975
3795.22632,0.13912
3797.15479,0.14662
3799.08326,0.15151
3801.01173,0.15950
3802.94020,0.15871
3804.86866,0.15053
3806.79713,0.14418
3808.72560,0.13595
3810.65407,0.12835
3812.58254,0.12666
3814.51101,0.13335
3816.43948,0.14558
3818.36795,0.15575
3820.29641,0.16049
3822.22488,0.15000
3824.15335,0.13761
3826.08182,0.13264
3828.01029,0.12842
3829.93876,0.12711
3831.86723,0.13086
3833.79569,0.13462
3835.72416,0.13714
3837.65263,0.14217
3839.58110,0.14603
3841.50957,0.14207
3843.43804,0.13590
3845.36651,0.13169
3847.29498,0.12803
3849.22344,0.12929
3851.15191,0.14421
3853.08038,0.16550
3855.00885,0.15368
3856.93732,0.13260
3858.86579,0.12609
3860.79426,0.13157
3862.72272,0.14165
3864.65119,0.14544
3866.57966,0.14203
3868.50813,0.14173
3870.43660,0.14341
3872.36507,0.13872
3874.29354,0.12968
3876.22200,0.12181
3878.15047,0.12185
3880.07894,0.12978
3882.00741,0.13514
3883.93588,0.13509
3885.86435,0.13284
3887.79282,0.12954
3889.72129,0.12975
3891.64975,0.13067
3893.57822,0.12697
3895.50669,0.12563
3897.43516,0.12852
3899.36363,0.13067
3901.29210,0.13267
3903.22057,0.13573
3905.14903,0.13144
3907.07750,0.12377
3909.00597,0.12312
3910.93444,0.12378
3912.86291,0.12023
3914.79138,0.11916
3916.71985,0.12169
3918.64832,0.12157
3920.57678,0.12054
3922.50525,0.12302
3924.43372,0.12447
3926.36219,0.11971
3928.29066,0.11541
3930.21913,0.11602
3932.14760,0.11785
3934.07606,0.11902
3936.00453,0.11965
3937.93300,0.11885
3939.86147,0.11910
3941.78994,0.12265
3943.71841,0.12367
3945.64688,0.12110
3947.57535,0.12043
3949.50381,0.11694
3951.43228,0.10829
3953.36075,0.10262
3955.28922,0.10277
3957.21769,0.10596
3959.14616,0.10984
3961.07463,0.11214
3963.00309,0.11014
3964.93156,0.10646
3966.86003,0.10598
3968.78850,0.10606
3970.71697,0.10540
3972.64544,0.10749
3974.57391,0.10933
3976.50238,0.10839
3978.43084,0.10766
3980.35931,0.10695
3982.28778,0.10585
3984.21625,0.10601
3986.14472,0.10699
3988.07319,0.10853
3990.00166,0.11029
3991.93012,0.10977
3993.85859,0.10693
3995.78706,0.10467
3997.71553,0.10513
3999.64400,0.10630
4001.57247,0.10440
4003.50094,0.10271
4005.42941,0.10662
4007.35787,0.11399
4009.28634,0.11774
4011.21481,0.11433
4013.14328,0.10688
4015.07175,0.10062
4017.00022,0.09901
4018.92869,0.09897
4020.85715,0.09871
4022.78562,0.10144
4024.71409,0.10217
4026.64256,0.09579
4028.57103,0.09019
4030.49950,0.08978
4032.42797,0.08730
4034.35644,0.08501
4036.28490,0.09109
4038.21337,0.09935
4040.14184,0.10197
4042.07031,0.10136
4043.99878,0.10228
4045.92725,0.10440
4047.85572,0.10428
4049.78418,0.10200
4051.71265,0.09845
4053.64112,0.09511
4055.56959,0.09575
4057.49806,0.09781
4059.42653,0.09616
4061.35500,0.09477
4063.28346,0.09546
4065.21193,0.09310
4067.14040,0.09017
4069.06887,0.09188
4070.99734,0.09533
4072.92581,0.09562
4074.85428,0.09559
4076.78275,0.10058
4078.71121,0.10617
4080.63968,0.10689
4082.56815,0.10445
4084.49662,0.09991
4086.42509,0.09572
4088.35356,0.09523
4090.28203,0.09314
4092.21049,0.08566
4094.13896,0.08197
4096.06743,0.08543
4097.99590,0.08820
4099.92437,0.09000
4101.85284,0.09276
4103.78131,0.09331
4105.70978,0.09252
4107.63824,0.09235
4109.56671,0.09116
4111.49518,0.08906
4113.42365,0.08741
4115.35212,0.08745
4117.28059,0.08984
4119.20906,0.08910
4121.13752,0.08408
4123.06599,0.08115
4124.99446,0.07990
4126.92293,0.07896
4128.85140,0.07908
4130.77987,0.07989
4132.70834,0.08138
4134.63681,0.08086
4136.56527,0.07892
4138.49374,0.07890
4140.42221,0.07847
4142.35068,0.07710
4144.27915,0.07883
4146.20762,0.08172
4148.13609,0.08126
4150.06455,0.08048
4151.99302,0.08309
4153.92149,0.08556
4155.84996,0.08267
4157.77843,0.07757
4159.70690,0.07646
4161.63537,0.07543
4163.56384,0.07058
4165.49230,0.06725
4167.42077,0.06754
4169.34924,0.06938
4171.27771,0.07271
4173.20618,0.07617
4175.13465,0.07944
4177.06312,0.08205
4178.99158,0.08005
4180.92005,0.07446
4182.84852,0.07172
4184.77699,0.07442
4186.70546,0.07801
4188.63393,0.07615
4190.56240,0.06836
4192.49087,0.06293
4194.41933,0.06674
4196.34780,0.06905
4198.27627,0.06313
4200.20474,0.06401
4202.13321,0.07333
4204.06168,0.07755
4205.99015,0.07440
4207.91861,0.06920
4209.84708,0.06648
4211.77555,0.06490
4213.70402,0.06283
4215.63249,0.06339
4217.56096,0.06540
4219.48943,0.06489
4221.41789,0.06419
4223.34636,0.06801
4225.27483,0.07228
4227.20330,0.07102
4229.13177,0.06934
4231.06024,0.07201
4232.98871,0.07400
4234.91718,0.07281
4236.84564,0.07131
4238.77411,0.06958
4240.70258,0.06636
4242.63105,0.06366
4244.55952,0.06504
4246.48799,0.06941
4248.41646,0.07350
4250.34492,0.07558
4252.27339,0.07322
4254.20186,0.07023
4256.13033,0.07338
4258.05880,0.07775
4259.98727,0.07483
4261.91574,0.06758
4263.84421,0.06320
4265.77267,0.06316
4267.70114,0.06490
4269.62961,0.06437
4271.55808,0.06027
4273.48655,0.05663
4275.41502,0.05829
4277.34349,0.06234
4279.27195,0.06087
4281.20042,0.05418
4283.12889,0.04974
4285.05736,0.05171
4286.98583,0.05610
4288.91430,0.05672
4290.84277,0.05366
4292.77124,0.05062
4294.69970,0.04921
4296.62817,0.04659
4298.55664,0.04285
4300.48511,0.04279
4302.41358,0.04382
4304.34205,0.04153
4306.27052,0.04141
4308.19898,0.04529
4310.12745,0.04561
4312.05592,0.04293
4313.98439,0.04346
4315.91286,0.04643
4317.84133,0.04870
4319.76980,0.04814
4321.69827,0.04460
4323.62673,0.03994
4325.55520,0.03485
4327.48367,0.03178
4329.41214,0.03320
4331.34061,0.03666
4333.26908,0.03819
4335.19755,0.03596
4337.12601,0.03425
4339.05448,0.03790
4340.98295,0.04305
4342.91142,0.04581
4344.83989,0.04623
4346.76836,0.04465
4348.69683,0.04322
4350.62530,0.04249
4352.55376,0.04187
4354.48223,0.04386
4356.41070,0.04650
4358.33917,0.04350
4360.26764,0.03825
4362.19611,0.03730
4364.12458,0.03708
4366.05304,0.03307
4367.98151,0.02759
4369.90998,0.02546
4371.83845,0.02896
4373.76692,0.03196
4375.69539,0.02913
4377.62386,0.02654
4379.55232,0.02841
4381.48079,0.03163
4383.40926,0.03140
4385.33773,0.02628
4387.26620,0.02398
4389.19467,0.02880
4391.12314,0.03395
4393.05161,0.03483
4394.98007,0.03438
4396.90854,0.03424
4398.83701,0.03263
4400.76548,0.03013
4402.69395,0.02869
4404.62242,0.02789
4406.55089,0.02437
4408.47935,0.01832
4410.40782,0.01803
4412.33629,0.02566
4414.26476,0.03340
4416.19323,0.03849
4418.12170,0.03930
4420.05017,0.03413
4421.97864,0.02888
4423.90710,0.02518
4425.83557,0.02065
4427.76404,0.01778
4429.69251,0.01793
4431.62098,0.01976
4433.54945,0.02137
4435.47792,0.02087
4437.40638,0.02079
4439.33485,0.02559
4441.26332,0.03396
4443.19179,0.03922
4445.12026,0.03761
4447.04873,0.03383
4448.97720,0.03030
4450.90567,0.02370
4452.83413,0.01909
4454.76260,0.02194
4456.69107,0.02620
4458.61954,0.02783
4460.54801,0.02874
4462.47648,0.02695
4464.40495,0.02098
4466.33341,0.01441
4468.26188,0.01079
4470.19035,0.01250
4472.11882,0.01659
4474.04729,0.01726
4475.97576,0.01462
4477.90423,0.00971
4479.83270,0.00328
4481.76116,0.00092
4483.68963,0.00378
4485.61810,0.00832
4487.54657,0.01263
4489.47504,0.01288
4491.40351,0.00954
4493.33198,0.00783
4495.26044,0.00665
4497.18891,0.00655
4499.11738,0.00973
4501.04585,0.00980
4502.97432,0.00716
4504.90279,0.00848
4506.83126,0.01294
4508.75973,0.01603
4510.68819,0.01266
4512.61666,0.00706
4514.54513,0.00628
4516.47360,0.00628
4518.40207,0.00678
4520.33054,0.01236
4522.25901,0.01777
4524.18747,0.01366
4526.11594,0.00183
4528.04441,-0.00479
4529.97288,-0.00054
4531.90135,0.00579
4533.82982,0.00753
4535.75829,0.00628
4537.68676,0.00528
4539.61522,0.00693
4541.54369,0.01221
4543.47216,0.01709
4545.40063,0.01307
4547.32910,0.00297
4549.25757,0.00240
4551.18604,0.01130
4553.11450,0.01244
4555.04297,0.00445
4556.97144,-0.00186
4558.89991,-0.00471
4560.82838,-0.00570
4562.75685,-0.00627
4564.68532,-0.00522
4566.61378,-0.00308
4568.54225,0.00003
4570.47072,0.00582
4572.39919,0.00553
4574.32766,-0.00142
4576.25613,-0.00025
4578.18460,0.00932
4580.11307,0.01090
4582.04153,0.00425
4583.97000,0.00245
4585.89847,0.00458
4587.82694,0.00749
4589.75541,0.01013
4591.68388,0.00909
4593.61235,0.01020
4595.54081,0.01647
4597.46928,0.01743
4599.39775,0.00968
4601.32622,0.00404
4603.25469,0.00405
4605.18316,0.00108
4607.11163,-0.00579
4609.04010,-0.00607
4610.96856,0.00170
4612.89703,0.00675
4614.82550,0.00593
4616.75397,0.00506
4618.68244,0.00558
4620.61091,0.00690
4622.53938,0.00853
4624.46784,0.00822
4626.39631,0.00793
4628.32478,0.01043
4630.25325,0.01356
4632.18172,0.01625
4634.11019,0.01767
4636.03866,0.01506
4637.96713,0.01143
4639.89559,0.00810
4641.82406,0.00082
4643.75253,-0.00397
4645.68100,0.00186
4647.60947,0.01007
4649.53794,0.01036
4651.46641,0.00716
4653.39487,0.00873
4655.32334,0.01195
4657.25181,0.01077
4659.18028,0.00665
4661.10875,0.00078
4663.03722,-0.00627
4664.96569,-0.00958
4666.89416,-0.00816
4668.82262,-0.00488
4670.75109,-0.00121
4672.67956,-0.00094
4674.60803,-0.00168
4676.53650,0.00341
4678.46497,0.00874
4680.39344,0.00929
4682.32190,0.00767
4684.25037,0.00498
4686.17884,0.00530
4688.10731,0.00609
4690.03578,0.00317
4691.96425,0.00499
4693.89272,0.00994
4695.82119,0.00862
4697.74965,0.00276
4699.67812,0.00323
4701.60659,0.00674
4703.53506,0.00101
4705.46353,-0.00623
4707.39200,-0.00631
4709.32047,-0.00574
4711.24893,-0.00254
4713.17740,0.00514
4715.10587,0.01195
4717.03434,0.01602
4718.96281,0.01544
4720.89128,0.01014
4722.81975,0.00448
4724.74821,0.00513
4726.67668,0.01430
4728.60515,0.02151
4730.53362,0.02116
4732.46209,0.01942
4734.39056,0.01463
4736.31903,0.00421
4738.24750,0.00161
4740.17596,0.01355
4742.10443,0.02356
4744.03290,0.02038
4745.96137,0.00929
4747.88984,-0.00207
4749.81831,-0.00115
4751.74678,0.01300
4753.67524,0.01983
4755.60371,0.01120
4757.53218,-0.00111
4759.46065,-0.00429
4761.38912,0.00374
4763.31759,0.01075
4765.24606,0.00987
4767.17453,0.00848
4769.10299,0.00707
4771.03146,0.00006
4772.95993,-0.00381
4774.88840,0.00238
4776.81687,0.00705
4778.74534,0.00442
4780.67381,0.00145
4782.60227,0.00002
4784.53074,-0.00120
4786.45921,0.00060
4788.38768,0.00185
4790.31615,-0.00440
4792.24462,-0.01285
4794.17309,-0.01420
4796.10156,-0.00830
4798.03002,-0.00066
4799.95849,0.00296
4801.88696,-0.00109
4803.81543,-0.00811
4805.74390,-0.01077
4807.67237,-0.00904
4809.60084,-0.00564
4811.52930,-0.00407
4813.45777,-0.00030
4815.38624,0.01115
4817.31471,0.02431
4819.24318,0.03335
4821.17165,0.03091
4823.10012,0.01881
4825.02859,0.01158
4826.95705,0.00850
4828.88552,0.00691
4830.81399,0.00775
4832.74246,0.00130
4834.67093,-0.00917
4836.59940,-0.00985
4838.52787,-0.00280
4840.45633,0.00353
4842.38480,0.00632
4844.31327,0.00412
4846.24174,-0.00293
4848.17021,-0.01141
4850.09868,-0.01464
4852.02715,-0.00939
4853.95562,-0.00099
4855.88408,0.00458
4857.81255,0.00884
4859.74102,0.01354
4861.66949,0.01506
4863.59796,0.01438
4865.52643,0.01656
4867.45490,0.02069
4869.38336,0.02064
4871.31183,0.01357
4873.24030,0.00640
4875.16877,0.00259
4877.09724,-0.00076
4879.02571,0.00351
4880.95418,0.01482
4882.88265,0.01958
4884.81111,0.01679
4886.73958,0.01225
4888.66805,0.01042
4890.59652,0.01191
4892.52499,0.00734
4894.45346,-0.00258
4896.38193,-0.00903
4898.31039,-0.01482
4900.23886,-0.01545
4902.16733,-0.00427
4904.09580,0.00334
4906.02427,0.00115
4907.95274,0.00315
4909.88121,0.01007
4911.80967,0.01067
4913.73814,0.00485
4915.66661,0.00439
4917.59508,0.01174
4919.52355,0.01968
4921.45202,0.02288
4923.38049,0.01705
4925.30896,0.00451
4927.23742,-0.00129
4929.16589,0.00566
4931.09436,0.01210
4933.02283,0.00583
4934.95130,-0.00784
4936.87977,-0.01794
4938.80824,-0.01857
4940.73670,-0.01085
4942.66517,-0.00166
4944.59364,0.00519
4946.52211,0.00993
4948.45058,0.01034
4950.37905,0.00805
4952.30752,0.01022
4954.23599,0.01862
4956.16445,0.02215
4958.09292,0.01109
4960.02139,-0.00075
4961.94986,-0.00004
4963.87833,0.00432
4965.80680,0.00539
4967.73527,0.00512
4969.66373,0.00698
4971.59220,0.00982
4973.52067,0.01142
4975.44914,0.01407
4977.37761,0.01292
4979.30608,0.00417
4981.23455,-0.00586
4983.16302,-0.00670
4985.09148,0.00527
4987.01995,0.01695
4988.94842,0.01884
4990.87689,0.01928
4992.80536,0.02662
4994.73383,0.03974
4996.66230,0.04923
4998.59076,0.04484
5000.51923,0.03009
5002.44770,0.01902
5004.37617,0.02129
5006.30464,0.02817
5008.23311,0.02554
5010.16158,0.01654
5012.09005,0.01214
5014.01851,0.01517
5015.94698,0.02038
5017.87545,0.02219
5019.80392,0.01990
5021.73239,0.01356
5023.66086,0.00563
5025.58933,0.00266
5027.51779,0.00740
5029.44626,0.01468
5031.37473,0.01397
5033.30320,0.00527
5035.23167,0.00676
5037.16014,0.02345
5039.08861,0.03441
5041.01708,0.02821
5042.94554,0.01794
5044.87401,0.01137
5046.80248,0.00540
5048.73095,0.00119
5050.65942,-0.00057
5052.58789,-0.00025
5054.51636,0.00404
5056.44482,0.01030
5058.37329,0.01359
5060.30176,0.01690
5062.23023,0.02886
5064.15870,0.03800
5066.08717,0.02802
5068.01564,0.01369
5069.94410,0.01328
5071.87257,0.02103
5073.80104,0.02681
5075.72951,0.03053
5077.65798,0.03159
5079.58645,0.02557
5081.51492,0.01894
5083.44339,0.02014
5085.37185,0.02654
5087.30032,0.03307
5089.22879,0.03623
5091.15726,0.03256
5093.08573,0.02474
5095.01420,0.02228
5096.94267,0.02568
5098.87113,0.02618
5100.79960,0.02346
5102.72807,0.02187
5104.65654,0.01816
5106.58501,0.01320
5108.51348,0.01417
5110.44195,0.02181
5112.37042,0.03034
5114.29888,0.02514
5116.22735,0.00632
5118.15582,-0.00460
5120.08429,-0.00157
5122.01276,0.00543
5123.94123,0.00796
5125.86970,0.00516
5127.79816,0.00775
5129.72663,0.02150
5131.65510,0.03241
5133.58357,0.03075
5135.51204,0.02572
5137.44051,0.02026
5139.36898,0.00852
5141.29745,0.00120
5143.22591,0.01719
5145.15438,0.04143
5147.08285,0.04069
5149.01132,0.02475
5150.93979,0.02657
5152.86826,0.04128
5154.79673,0.04372
5156.72519,0.03801
5158.65366,0.03683
5160.58213,0.03566
5162.51060,0.02956
5164.43907,0.01792
5166.36754,0.01349
5168.29601,0.02378
5170.22448,0.02934
5172.15294,0.02130
5174.08141,0.01660
5176.00988,0.02208
5177.93835,0.02992
5179.86682,0.03527
5181.79529,0.03894
5183.72376,0.03700
5185.65222,0.02566
5187.58069,0.01759
5189.50916,0.02404
5191.43763,0.03625
5193.36610,0.04718
5195.29457,0.05588
5197.22304,0.04643
5199.15151,0.02514
5201.07997,0.02601
5203.00844,0.04121
5204.93691,0.04528
5206.86538,0.03933
5208.79385,0.03122
5210.72232,0.02571
5212.65079,0.02283
5214.57925,0.01585
5216.50772,0.01003
5218.43619,0.01016
5220.36466,0.01225
5222.29313,0.02028
5224.22160,0.02880
5226.15007,0.03233
5228.07854,0.04227
5230.00700,0.05276
5231.93547,0.05219
5233.86394,0.04525
5235.79241,0.03197
5237.72088,0.01926
5239.64935,0.02472
5241.57782,0.03742
5243.50628,0.03746
5245.43475,0.03666
5247.36322,0.04499
5249.29169,0.04752
5251.22016,0.04827
5253.14863,0.05368
5255.07710,0.04809
5257.00556,0.03830
5258.93403,0.03999
5260.86250,0.04676
5262.79097,0.05306
5264.71944,0.05015
5266.64791,0.03383
5268.57638,0.02587
5270.50485,0.03515
5272.43331,0.03999
5274.36178,0.03132
5276.29025,0.02541
5278.21872,0.02877
5280.14719,0.03186
5282.07566,0.03670
5284.00413,0.05009
5285.93259,0.05713
5287.86106,0.04568
5289.78953,0.03319
5291.71800,0.03474
5293.64647,0.04133
5295.57494,0.04677
5297.50341,0.05431
5299.43188,0.05909
5301.36034,0.05106
5303.28881,0.04005
5305.21728,0.04391
5307.14575,0.05720
5309.07422,0.06162
5311.00269,0.05454
5312.93116,0.04641
5314.85962,0.04282
5316.78809,0.04753
5318.71656,0.05841
5320.64503,0.06483
5322.57350,0.06456
5324.50197,0.06526
5326.43044,0.06801
5328.35891,0.06477
5330.28737,0.05571
5332.21584,0.05265
5334.14431,0.05466
5336.07278,0.04413
5338.00125,0.02542
5339.92972,0.02062
5341.85819,0.03653
5343.78665,0.06241
5345.71512,0.07085
5347.64359,0.06549
5349.57206,0.06503
5351.50053,0.05973
5353.42900,0.04287
5355.35747,0.03465
5357.28594,0.04886
5359.21440,0.07189
5361.14287,0.08969
5363.07134,0.09094
5364.99981,0.07622
5366.92828,0.06602
5368.85675,0.06627
5370.78522,0.06525
5372.71368,0.06813
5374.64215,0.08756
5376.57062,0.10292
5378.49909,0.09350
5380.42756,0.07795
5382.35603,0.07166
5384.28450,0.07279
5386.21297,0.07149
5388.14143,0.06614
5390.06990,0.05910
5391.99837,0.05320
5393.92684,0.05223
5395.85531,0.04734
5397.78378,0.04070
5399.71225,0.04736
5401.64071,0.06136
5403.56918,0.06880
5405.49765,0.06782
5407.42612,0.07392
5409.35459,0.09751
5411.28306,0.11098
5413.21153,0.08441
5415.13999,0.04111
5417.06846,0.02485
5418.99693,0.03791
5420.92540,0.05533
5422.85387,0.05878
5424.78234,0.05631
5426.71081,0.07305
5428.63928,0.09722
5430.56774,0.09293
5432.49621,0.08283
5434.42468,0.09420
5436.35315,0.10805
5438.28162,0.11038
5440.21009,0.10332
5442.13856,0.08636
5444.06702,0.07770
5445.99549,0.08248
5447.92396,0.07589
5449.85243,0.05376
5451.78090,0.04294
5453.70937,0.05172
5455.63784,0.05694
5457.56631,0.05435
5459.49477,0.07177
5461.42324,0.09580
5463.35171,0.09163
5465.28018,0.07745
5467.20865,0.08794
5469.13712,0.11394
5471.06559,0.11970
5472.99405,0.09954
5474.92252,0.07552
5476.85099,0.06357
5478.77946,0.05834
5480.70793,0.05223
5482.63640,0.04697
5484.56487,0.04893
5486.49334,0.06426
5488.42180,0.08391
5490.35027,0.08982
5492.27874,0.08177
5494.20721,0.07172
5496.13568,0.06495
5498.06415,0.06063
5499.99262,0.06345
5501.92108,0.07395
5503.84955,0.08211
5505.77802,0.08420
5507.70649,0.08696
5509.63496,0.08665
5511.56343,0.06601
5513.49190,0.04126
5515.42037,0.04542
5517.34883,0.06694
5519.27730,0.07837
5521.20577,0.07339
5523.13424,0.06318
5525.06271,0.05857
5526.99118,0.05516
5528.91965,0.05271
5530.84811,0.05265
5532.77658,0.05115
5534.70505,0.06327
5536.63352,0.09588
5538.56199,0.12360
5540.49046,0.12679
5542.41893,0.11162
5544.34740,0.10224
5546.27586,0.10299
5548.20433,0.09868
5550.13280,0.09330
5552.06127,0.08751
5553.98974,0.07671
5555.91821,0.07126
5557.84668,0.07426
5559.77514,0.07906
5561.70361,0.08595
5563.63208,0.09062
5565.56055,0.08531
5567.48902,0.07571
5569.41749,0.07299
5571.34596,0.07834
5573.27443,0.08098
5575.20289,0.07479
5577.13136,0.06839
5579.05983,0.06340
5580.98830,0.05864
5582.91677,0.05462
5584.84524,0.04455
5586.77371,0.04096
5588.70217,0.06105
5590.63064,0.07720
5592.55911,0.06379
5594.48758,0.04640
5596.41605,0.04211
5598.34452,0.04069
5600.27299,0.04573
5602.20145,0.05310
5604.12992,0.05176
5606.05839,0.05767
5607.98686,0.07019
5609.91533,0.07027
5611.84380,0.07171
5613.77227,0.08573
5615.70074,0.08666
5617.62920,0.06808
5619.55767,0.05967
5621.48614,0.07054
5623.41461,0.08563
5625.34308,0.10027
5627.27155,0.10956
5629.20002,0.11264
5631.12848,0.11156
5633.05695,0.10085
5634.98542,0.08502
5636.91389,0.07335
5638.84236,0.07016
5640.77083,0.07513
5642.69930,0.08681
5644.62777,0.10726
5646.55623,0.11928
5648.48470,0.10678
5650.41317,0.09272
5652.34164,0.09042
5654.27011,0.08408
5656.19858,0.07885
5658.12705,0.09018
5660.05551,0.09899
5661.98398,0.08544
5663.91245,0.06793
5665.84092,0.06177
5667.76939,0.06120
5669.69786,0.06073
5671.62633,0.06099
5673.55480,0.06467
5675.48326,0.06841
5677.41173,0.06658
5679.34020,0.06789
5681.26867,0.07682
5683.19714,0.08044
5685.12561,0.07874
5687.05408,0.07551
5688.98254,0.07672
5690.91101,0.08972
5692.83948,0.09450
5694.76795,0.09000
5696.69642,0.10266
5698.62489,0.12213
5700.55336,0.12278
5702.48183,0.11135
5704.41029,0.09655
5706.33876,0.08200
5708.26723,0.07836
5710.19570,0.09033
5712.12417,0.11547
5714.05264,0.13785
5715.98111,0.13198
5717.90957,0.09400
5719.83804,0.05816
5721.76651,0.04912
5723.69498,0.05126
5725.62345,0.06278
5727.55192,0.09336
5729.48039,0.11790
5731.40886,0.11752
5733.33732,0.10790
5735.26579,0.08976
5737.19426,0.07033
5739.12273,0.07898
5741.05120,0.09192
5742.97967,0.07800
5744.90814,0.06232
5746.83660,0.06671
5748.76507,0.08645
5750.69354,0.10236
5752.62201,0.10010
5754.55048,0.08635
5756.47895,0.06566
5758.40742,0.04656
5760.33588,0.03969
5762.26435,0.04500
5764.19282,0.05782
5766.12129,0.06841
5768.04976,0.06681
5769.97823,0.05042
5771.90670,0.04069
5773.83517,0.05411
5775.76363,0.06433
5777.69210,0.05972
5779.62057,0.05871
5781.54904,0.06240
5783.47751,0.07107
5785.40598,0.09191
5787.33445,0.10995
5789.26291,0.11085
5791.19138,0.09920
5793.11985,0.09692
5795.04832,0.10601
5796.97679,0.09960
5798.90526,0.08891
5800.83373,0.08793
5802.76220,0.07866
5804.69066,0.05629
5806.61913,0.04628
5808.54760,0.07167
5810.47607,0.10432
5812.40454,0.10342
5814.33301,0.08398
5816.26148,0.07326
5818.18994,0.06234
5820.11841,0.05286
5822.04688,0.05495
5823.97535,0.05348
5825.90382,0.04999
5827.83229,0.06967
5829.76076,0.09832
5831.68923,0.09547
5833.61769,0.07369
5835.54616,0.05656
5837.47463,0.04881
5839.40310,0.05951
5841.33157,0.07549
5843.26004,0.08443
5845.18851,0.09320
5847.11697,0.10291
5849.04544,0.11525
5850.97391,0.13678
5852.90238,0.15054
5854.83085,0.12562
5856.75932,0.07771
5858.68779,0.06117
5860.61626,0.08270
5862.54472,0.10753
5864.47319,0.13154
5866.40166,0.14579
5868.33013,0.13096
5870.25860,0.11771
5872.18707,0.11625
5874.11554,0.10093
5876.04400,0.07911
5877.97247,0.06169
5879.90094,0.04163
5881.82941,0.03226
5883.75788,0.04734
5885.68635,0.04856
5887.61482,0.02021
5889.54329,0.02479
5891.47175,0.06579
5893.40022,0.09794
5895.32869,0.11116
5897.25716,0.10043
5899.18563,0.08216
5901.11410,0.08105
5903.04257,0.09743
5904.97103,0.11146
5906.89950,0.11012
5908.82797,0.10544
5910.75644,0.10812
5912.68491,0.10095
5914.61338,0.07870
5916.54185,0.07786
5918.47032,0.09251
5920.39878,0.08371
5922.32725,0.07100
5924.25572,0.07192
5926.18419,0.06454
5928.11266,0.05805
5930.04113,0.07447
5931.96960,0.11058
5933.89806,0.15093
5935.82653,0.15601
5937.75500,0.11690
5939.68347,0.07535
5941.61194,0.05810
5943.54041,0.05258
5945.46888,0.04894
5947.39734,0.05944
5949.32581,0.07680
5951.25428,0.09351
5953.18275,0.11409
5955.11122,0.12270
5957.03969,0.10726
5958.96816,0.09561
5960.89663,0.10869
5962.82509,0.11273
5964.75356,0.09523
5966.68203,0.07511
5968.61050,0.06464
5970.53897,0.07059
5972.46744,0.08897
5974.39591,0.09609
5976.32437,0.08597
5978.25284,0.08208
5980.18131,0.07778
5982.10978,0.05930
5984.03825,0.06069
5985.96672,0.09323
5987.89519,0.10027
5989.82366,0.07749
5991.75212,0.06702
5993.68059,0.08692
5995.60906,0.13426
5997.53753,0.15069
5999.46600,0.12123
6001.39447,0.09405
6003.32294,0.09174
6005.25140,0.09349
6007.17987,0.07518
6009.10834,0.05752
6011.03681,0.04567
6012.96528,0.03273
6014.89375,0.03881
6016.82222,0.07076
6018.75069,0.10233
6020.67915,0.10524
6022.60762,0.09136
6024.53609,0.08312
6026.46456,0.07667
6028.39303,0.06377
6030.32150,0.06329
6032.24997,0.07060
6034.17843,0.06724
6036.10690,0.07840
6038.03537,0.09490
6039.96384,0.07937
6041.89231,0.06262
6043.82078,0.07840
6045.74925,0.09323
6047.67772,0.08840
6049.60618,0.07492
6051.53465,0.06254
6053.46312,0.07704
6055.39159,0.10905
6057.32006,0.11873
6059.24853,0.11048
6061.17700,0.11318
6063.10546,0.12889
6065.03393,0.13083
6066.96240,0.12498
6068.89087,0.12645
6070.81934,0.12758
6072.74781,0.14033
6074.67628,0.15825
6076.60475,0.13658
6078.53321,0.08807
6080.46168,0.07455
6082.39015,0.08982
6084.31862,0.08839
6086.24709,0.08203
6088.17556,0.09487
6090.10403,0.10464
6092.03249,0.08819
6093.96096,0.05668
6095.88943,0.04337
6097.81790,0.05997
6099.74637,0.08587
6101.67484,0.10151
6103.60331,0.10139
6105.53177,0.09014
6107.46024,0.07808
6109.38871,0.06376
6111.31718,0.06333
6113.24565,0.08677
6115.17412,0.08927
6117.10259,0.07279
6119.03106,0.07406
6120.95952,0.07308
6122.88799,0.07486
6124.81646,0.09761
6126.74493,0.09899
6128.67340,0.05871
6130.60187,0.02659
6132.53034,0.02422
6134.45880,0.02987
6136.38727,0.04328
6138.31574,0.08145
6140.24421,0.12785
6142.17268,0.13695
6144.10115,0.10481
6146.02962,0.07768
6147.95809,0.08082
6149.88655,0.08228
6151.81502,0.05910
6153.74349,0.04417
6155.67196,0.04630
6157.60043,0.05625
6159.52890,0.06424
6161.45737,0.04855
6163.38583,0.04259
6165.31430,0.06651
6167.24277,0.07047
6169.17124,0.05480
6171.09971,0.05975
6173.02818,0.07701
6174.95665,0.08748
6176.88512,0.09844
6178.81358,0.09932
6180.74205,0.08651
6182.67052,0.07876
6184.59899,0.06499
6186.52746,0.04407
6188.45593,0.03353
6190.38440,0.01836
6192.31286,0.02185
6194.24133,0.05830
6196.16980,0.07961
6198.09827,0.07375
6200.02674,0.06297
6201.95521,0.06086
6203.88368,0.05464
6205.81215,0.04462
6207.74061,0.04981
6209.66908,0.06248
6211.59755,0.09950
6213.52602,0.15428
6215.45449,0.17848
6217.38296,0.15835
6219.31143,0.11349
6221.23989,0.06907
6223.16836,0.04068
6225.09683,0.03416
6227.02530,0.04812
6228.95377,0.07625
6230.88224,0.10084
6232.81071,0.10159
6234.73918,0.08739
6236.66764,0.08685
6238.59611,0.11189
6240.52458,0.12829
6242.45305,0.09989
6244.38152,0.06709
6246.30999,0.07169
6248.23846,0.08896
6250.16692,0.10235
6252.09539,0.10182
6254.02386,0.06713
6255.95233,0.02438
6257.88080,0.02479
6259.80927,0.06183
6261.73774,0.08656
6263.66621,0.09468
6265.59467,0.11099
6267.52314,0.11835
6269.45161,0.10063
6271.38008,0.09417
6273.30855,0.11723
6275.23702,0.13467
6277.16549,0.11406
6279.09395,0.07715
6281.02242,0.07549
6282.95089,0.10693
6284.87936,0.13322
6286.80783,0.14355
6288.73630,0.12485
6290.66477,0.07998
6292.59323,0.04302
6294.52170,0.03479
6296.45017,0.04524
6298.37864,0.05612
6300.30711,0.05714
6302.23558,0.04891
6304.16405,0.06028
6306.09252,0.08994
6308.02098,0.08819
6309.94945,0.05718
6311.87792,0.07039
6313.80639,0.11398
6315.73486,0.09561
6317.66333,0.05928
6319.59180,0.07205
6321.52026,0.05624
6323.44873,0.01438
6325.37720,0.04071
6327.30567,0.08599
6329.23414,0.06876
6331.16261,0.02258
6333.09108,0.00708
6335.01955,0.04421
6336.94801,0.09565
6338.87648,0.09209
6340.80495,0.06316
6342.73342,0.07692
6344.66189,0.11291
6346.59036,0.12784
6348.51883,0.14045
6350.44729,0.16382
6352.37576,0.13571
6354.30423,0.05777
6356.23270,-0.00438
6358.16117,-0.01106
6360.08964,0.03484
6362.01811,0.07144
6363.94658,0.08035
6365.87504,0.10247
6367.80351,0.11225
6369.73198,0.06736
6371.66045,0.01124
6373.58892,0.00054
6375.51739,0.00284
6377.44586,-0.02205
6379.37432,-0.02729
6381.30279,0.01393
6383.23126,0.06258
6385.15973,0.07540
6387.08820,0.04862
6389.01667,0.01928
6390.94514,0.01387
6392.87361,0.02230
6394.80207,0.03052
6396.73054,0.03112
6398.65901,0.03366
6400.58748,0.04643
6402.51595,0.05048
6404.44442,0.04120
6406.37289,0.04625
6408.30135,0.05269
6410.22982,0.03985
6412.15829,0.04273
6414.08676,0.06997
6416.01523,0.10453
6417.94370,0.13603
6419.87217,0.15006
6421.80064,0.13404
6423.72910,0.09587
6425.65757,0.07536
6427.58604,0.09024
6429.51451,0.12299
6431.44298,0.13718
6433.37145,0.12942
6435.29992,0.15517
6437.22838,0.19954
6439.15685,0.20701
6441.08532,0.19563
6443.01379,0.15965
6444.94226,0.10014
6446.87073,0.07508
6448.79920,0.07319
6450.72766,0.06354
6452.65613,0.05191
6454.58460,0.04714
6456.51307,0.06123
6458.44154,0.07783
6460.37001,0.07275
6462.29848,0.04876
6464.22695,0.02695
6466.15541,0.05232
6468.08388,0.12255
6470.01235,0.17195
6471.94082,0.16598
6473.86929,0.10267
6475.79776,0.01843
6477.72623,-0.01580
6479.65469,-0.00757
6481.58316,0.01473
6483.51163,0.03259
6485.44010,0.02292
6487.36857,0.00730
6489.29704,-0.00066
6491.22551,0.00917
6493.15398,0.04856
6495.08244,0.06623
6497.01091,0.03556
6498.93938,-0.01487
6500.86785,-0.05355
6502.79632,-0.04061
6504.72479,0.02334
6506.65326,0.07732
6508.58172,0.08464
6510.51019,0.09560
6512.43866,0.12791
6514.36713,0.10854
6516.29560,0.03163
6518.22407,-0.02297
6520.15254,-0.02101
6522.08101,-0.00557
6524.00947,0.01338
6525.93794,0.06433
6527.86641,0.10185
6529.79488,0.08715
6531.72335,0.05649
6533.65182,0.04505
6535.58029,0.05059
6537.50875,0.04985
6539.43722,0.06281
6541.36569,0.10630
6543.29416,0.13201
6545.22263,0.10895
6547.15110,0.06595
6549.07957,0.04776
6551.00804,0.07156
6552.93650,0.11961
6554.86497,0.16214
6556.79344,0.14416
6558.72191,0.06148
6560.65038,-0.01031
6562.57885,-0.02093
6564.50732,0.01850
6566.43578,0.06933
6568.36425,0.07849
6570.29272,0.04040
6572.22119,0.01295
6574.14966,0.04213
6576.07813,0.08724
6578.00660,0.06172
6579.93507,-0.00726
6581.86353,-0.02869
6583.79200,-0.00589
6585.72047,0.00141
6587.64894,-0.02190
6589.57741,-0.03172
6591.50588,-0.00210
6593.43435,0.05419
6595.36281,0.10853
6597.29128,0.11337
6599.21975,0.04623
6601.14822,-0.04580
6603.07669,-0.06584
6605.00516,-0.01388
6606.93363,0.04652
6608.86210,0.07423
6610.79056,0.06052
6612.71903,0.03799
6614.64750,0.03198
6616.57597,0.02984
6618.50444,0.01898
6620.43291,-0.00445
6622.36138,-0.00963
6624.28984,0.02961
6626.21831,0.08039
6628.14678,0.10196
6630.07525,0.09613
6632.00372,0.09713
6633.93219,0.08130
6635.86066,0.00622
6637.78912,-0.05579
6639.71759,-0.03112
6641.64606,0.01476
6643.57453,0.02864
6645.50300,0.04045
6647.43147,0.04992
6649.35994,0.04068
6651.28841,0.03578
6653.21687,0.03618
6655.14534,0.02415
6657.07381,0.00656
6659.00228,0.00897
6660.93075,0.02233
6662.85922,0.02810
6664.78769,0.03220
6666.71615,0.05323
6668.64462,0.10958
6670.57309,0.14471
6672.50156,0.08010
6674.43003,-0.01986
6676.35850,-0.05876
6678.28697,-0.05392
6680.21544,-0.05702
6682.14390,-0.05234
6684.07237,0.00887
6686.00084,0.08877
6687.92931,0.13551
6689.85778,0.14117
6691.78625,0.11322
6693.71472,0.07946
6695.64318,0.04810
6697.57165,0.01041
6699.50012,-0.02331
6701.42859,-0.02238
6703.35706,0.02977
6705.28553,0.09608
6707.21400,0.12780
6709.14247,0.12468
6711.07093,0.09972
6712.99940,0.08375
6714.92787,0.11746
6716.85634,0.13648
6718.78481,0.08547
6720.71328,0.05540
6722.64175,0.06074
6724.57021,0.04246
6726.49868,0.03955
6728.42715,0.04378
6730.35562,-0.00443
6732.28409,-0.06850
6734.21256,-0.08647
6736.14103,-0.05296
6738.06950,0.00647
6739.99796,0.03428
6741.92643,0.00879
6743.85490,-0.02778
6745.78337,-0.05024
6747.71184,-0.00267
6749.64031,0.11631
6751.56878,0.18851
6753.49724,0.17286
6755.42571,0.10008
6757.35418,0.01089
6759.28265,-0.03255
6761.21112,-0.01248
6763.13959,0.02386
6765.06806,0.05889
6766.99653,0.09181
6768.92499,0.12933
6770.85346,0.15072
6772.78193,0.13926
6774.71040,0.13963
6776.63887,0.14527
6778.56734,0.11570
6780.49581,0.05715
6782.42427,-0.01315
6784.35274,-0.06486
6786.28121,-0.06636
6788.20968,-0.03107
6790.13815,-0.01353
6792.06662,-0.03183
6793.99509,-0.06329
6795.92355,-0.06315
6797.85202,-0.01386
6799.78049,0.00016
6801.70896,-0.04231
6803.63743,-0.03705
6805.56590,-0.03884
6807.49437,-0.11094
6809.42284,-0.11239
6811.35130,0.00486
6813.27977,0.10217
6815.20824,0.11295
6817.13671,0.06554
6819.06518,0.00302
6820.99365,-0.03925
6822.92212,-0.04580
6824.85058,-0.00648
6826.77905,0.03067
6828.70752,0.03581
6830.63599,0.05716
6832.56446,0.09955
6834.49293,0.09641
6836.42140,0.04077
6838.34987,0.01064
6840.27833,0.01710
6842.20680,0.03922
6844.13527,0.08386
6846.06374,0.10993
6847.99221,0.07723
6849.92068,0.03289
6851.84915,0.03859
6853.77761,0.08044
6855.70608,0.10403
6857.63455,0.06759
6859.56302,0.04573
6861.49149,0.10118
6863.41996,0.14783
6865.34843,0.10995
6867.27690,0.04440
6869.20536,0.03706
6871.13383,0.07248
6873.06230,0.08440
6874.99077,0.06185
6876.91924,0.03774
6878.84771,0.02512
6880.77618,-0.00160
6882.70464,-0.05581
6884.63311,-0.06951
6886.56158,0.00337
6888.49005,0.08132
6890.41852,0.09753
6892.34699,0.07984
6894.27546,0.05415
6896.20393,0.06646
6898.13239,0.12297
6900.06086,0.17041
6901.98933,0.21783
6903.91780,0.25170
6905.84627,0.22393
6907.77474,0.15846
6909.70321,0.09768
6911.63167,0.03314
6913.56014,-0.04504
6915.48861,-0.08216
6917.41708,-0.02559
6919.34555,0.06595
6921.27402,0.07884
6923.20249,0.05479
6925.13096,0.05502
6927.05942,0.05525
6928.98789,0.05053
6930.91636,0.10034
6932.84483,0.20909
6934.77330,0.24147
6936.70177,0.17361
6938.63024,0.08048
6940.55870,0.01245
6942.48717,0.00942
6944.41564,0.05299
6946.34411,0.10239
6948.27258,0.12746
6950.20105,0.10727
6952.12952,0.04670
6954.05799,-0.01686
6955.98645,-0.02552
6957.91492,-0.01775
6959.84339,-0.01512
6961.77186,0.06433
6963.70033,0.18463
6965.62880,0.22654
6967.55727,0.18157
6969.48573,0.18612
6971.41420,0.23884
6973.34267,0.17307
6975.27114,0.08943
6977.19961,0.11135
6979.12808,0.10652
6981.05655,0.01675
6982.98501,-0.06412
6984.91348,-0.01067
6986.84195,0.11790
6988.77042,0.16981
6990.69889,0.14922
6992.62736,0.12079
6994.55583,0.06279
6996.48430,-0.01673
6998.41276,-0.01702
7000.34123,0.02376
7002.26970,-0.03830
7004.19817,-0.13986
7006.12664,-0.15211
7008.05511,-0.08246
7009.98358,-0.00170
7011.91204,0.06050
7013.84051,0.07657
7015.76898,0.05643
7017.69745,0.03034
7019.62592,-0.00155
7021.55439,-0.01441
7023.48286,0.00542
7025.41133,0.00136
7027.33979,-0.03212
7029.26826,-0.04540
7031.19673,-0.05211
7033.12520,-0.07996
7035.05367,-0.08453
7036.98214,-0.01317
7038.91061,0.03616
7040.83907,-0.01496
7042.76754,-0.08479
7044.69601,-0.09920
7046.62448,-0.09314
7048.55295,-0.01796
7050.48142,0.13753
7052.40989,0.21244
7054.33836,0.17672
7056.26682,0.16215
7058.19529,0.15699
7060.12376,0.10843
7062.05223,0.07643
7063.98070,0.07793
7065.90917,0.06091
7067.83764,0.02927
7069.76610,-0.01216
7071.69457,-0.00366
7073.62304,0.09854
7075.55151,0.15415
7077.47998,0.13201
7079.40845,0.11693
7081.33692,0.13659
7083.26539,0.15486
7085.19385,0.16699
7087.12232,0.15061
7089.05079,0.06830
7090.97926,-0.02222
7092.90773,-0.04434
7094.83620,0.00688
7096.76467,0.09215
7098.69313,0.16134
7100.62160,0.15222
7102.55007,0.09933
7104.47854,0.09286
7106.40701,0.14446
7108.33548,0.13695
7110.26395,0.05345
7112.19242,0.00584
7114.12088,0.03067
7116.04935,0.05338
7117.97782,-0.00388
7119.90629,-0.02906
7121.83476,0.08312
7123.76323,0.19893
7125.69170,0.22344
7127.62016,0.21636
7129.54863,0.21415
7131.47710,0.16233
7133.40557,0.10504
7135.33404,0.08475
7137.26251,0.03311
7139.19098,-0.02914
7141.11944,-0.04624
7143.04791,-0.08422
7144.97638,-0.15112
7146.90485,-0.07099
7148.83332,0.12582
7150.76179,0.18694
7152.69026,0.07677
7154.61873,-0.00949
7156.54719,-0.01707
7158.47566,-0.01655
7160.40413,0.00095
7162.33260,0.01762
7164.26107,-0.01299
7166.18954,-0.06579
7168.11801,-0.08757
7170.04647,-0.06670
7171.97494,-0.02463
7173.90341,-0.00420
7175.83188,0.01597
7177.76035,0.06500
7179.68882,0.07348
7181.61729,0.01150
7183.54576,-0.07049
7185.47422,-0.10938
7187.40269,-0.08835
7189.33116,-0.08163
7191.25963,-0.08909
7193.18810,0.01834
7195.11657,0.15222
7197.04504,0.14503
7198.97350,0.02910
7200.90197,-0.05633
7202.83044,-0.03260
7204.75891,0.08645
7206.68738,0.13606
7208.61585,0.09082
7210.54432,0.07325
7212.47279,0.10807
7214.40125,0.11652
7216.32972,0.06506
7218.25819,0.06133
7220.18666,0.11128
7222.11513,0.09617
7224.04360,0.08578
7225.97207,0.13879
7227.90053,0.13987
7229.82900,0.04051
7231.75747,-0.05303
7233.68594,-0.02177
7235.61441,0.09533
7237.54288,0.15895
7239.47135,0.13391
7241.39982,0.16210
7243.32828,0.19426
7245.25675,0.07316
7247.18522,-0.07800
7249.11369,-0.14455
7251.04216,-0.09829
7252.97063,-0.00087
7254.89910,0.03971
7256.82756,0.05306
7258.75603,0.09670
7260.68450,0.18097
7262.61297,0.17060
7264.54144,-0.01399
7266.46991,-0.12534
7268.39838,-0.03432
7270.32685,0.11193
7272.25531,0.13182
7274.18378,0.06555
7276.11225,0.08380
7278.04072,0.16568
7279.96919,0.17852
7281.89766,0.14437
7283.82613,0.18614
7285.75459,0.22026
7287.68306,0.18763
7289.61153,0.07726
7291.54000,-0.08763
7293.46847,-0.15967
7295.39694,-0.09111
7297.32541,0.02561
7299.25387,0.09555
7301.18234,0.10385
7303.11081,0.15028
7305.03928,0.28867
7306.96775,0.43100
7308.89622,0.46260
7310.82469,0.34103
7312.75316,0.19007
7314.68162,0.07261
7316.61009,0.00963
7318.53856,0.04477
7320.46703,0.07943
7322.39550,0.04801
7324.32397,0.04838
7326.25244,0.10593
7328.18090,0.12129
7330.10937,0.10834
7332.03784,0.11528
7333.96631,0.08084
7335.89478,-0.02526
7337.82325,-0.22413
7339.75172,-0.35165
7341.68019,-0.15370
7343.60865,-0.04480
7345.53712,-0.13850
7347.46559,-0.12763
7349.39406,0.03306
7351.32253,0.09177
7353.25100,0.10011
7355.17947,0.18301
7357.10793,0.22839
7359.03640,0.10517
7360.96487,-0.14092
7362.89334,-0.28029
7364.82181,-0.12915
7366.75028,0.10234
7368.67875,0.12650
7370.60722,0.02743
7372.53568,-0.01628
7374.46415,-0.07244
7376.39262,-0.15472
7378.32109,-0.06597
7380.24956,0.12174
7382.17803,0.20441
7384.10650,0.12139
7386.03496,-0.01011
7387.96343,-0.04693
7389.89190,0.02379
7391.82037,0.10942
7393.74884,0.21526
7395.67731,0.30279
7397.60578,0.22476
7399.53425,0.06662
7401.46271,-0.01997
7403.39118,-0.05896
7405.31965,-0.05125
7407.24812,-0.00660
7409.17659,0.02077
7411.10506,0.06573
7413.03353,0.08648
7414.96199,-0.01454
7416.89046,-0.13516
7418.81893,-0.10296
7420.74740,-0.03153
7422.67587,0.02518
7424.60434,0.09641
7426.53281,0.13635
7428.46128,0.13479
7430.38974,0.02706
7432.31821,-0.11363
7434.24668,-0.08233
7436.17515,0.07560
7438.10362,0.18119
7440.03209,0.22644
7441.96056,0.16788
7443.88902,-0.00467
7445.81749,-0.11303
7447.74596,-0.10970
7449.67443,-0.09113
7451.60290,-0.07740
7453.53137,-0.00177
7455.45984,0.11326
7457.38831,0.17675
7459.31677,0.11420
7461.24524,-0.02640
7463.17371,-0.07874
7465.10218,-0.03342
7467.03065,0.02816
7468.95912,0.07579
7470.88759,0.09615
7472.81605,0.05499
7474.74452,0.03622
7476.67299,0.15121
7478.60146,0.28084
7480.52993,0.21623
7482.45840,0.14606
7484.38687,0.20766
7486.31533,0.16284
7488.24380,-0.03915
7490.17227,-0.14234
7492.10074,-0.04727
7494.02921,0.05922
7495.95768,0.05589
7497.88615,-0.05677
