399.19301,6.41523
401.12148,0.87253
403.04995,0.02694
404.97842,-0.38468
406.90689,-0.42269
408.83536,-0.27841
410.76382,-0.20243
412.69229,-0.12013
414.62076,0.08418
416.54923,0.21050
418.47770,0.09380
420.40617,-0.09317
422.33464,-0.14383
424.26311,-0.10907
426.19157,-0.00556
428.12004,0.02316
430.04851,-0.03740
431.97698,-0.04636
433.90545,-0.02011
435.83392,-0.01163
437.76239,-0.01052
439.69085,-0.07214
441.61932,-0.19376
443.54779,-0.19663
445.47626,-0.04332
447.40473,0.09211
449.33320,0.10852
451.26167,0.06296
453.19013,0.04548
455.11860,0.05112
457.04707,0.04217
458.97554,0.02721
460.90401,0.02074
462.83248,0.03382
464.76095,0.07103
466.68942,0.07412
468.61788,0.02420
470.54635,-0.01130
472.47482,0.03612
474.40329,0.13941
476.33176,0.16556
478.26023,0.14510
480.18870,0.10095
482.11716,0.01701
484.04563,-0.05595
485.97410,-0.05349
487.90257,0.00738
489.83104,0.08039
491.75951,0.12711
493.68798,0.14449
495.61645,0.10369
497.54491,0.02360
499.47338,0.01308
501.40185,0.08245
503.33032,0.14361
505.25879,0.16709
507.18726,0.18461
509.11573,0.17100
511.04419,0.11543
512.97266,0.06755
514.90113,0.04982
516.82960,0.06038
518.75807,0.09561
520.68654,0.12059
522.61501,0.10646
524.54348,0.07270
526.47194,0.05776
528.40041,0.04409
530.32888,0.02737
532.25735,0.05394
534.18582,0.12418
536.11429,0.17676
538.04276,0.16015
539.97122,0.10222
541.89969,0.07093
543.82816,0.07834
545.75663,0.08449
547.68510,0.08259
549.61357,0.07773
551.54204,0.03605
553.47051,-0.03267
555.39897,-0.04325
557.32744,0.01926
559.25591,0.07137
561.18438,0.08360
563.11285,0.08354
565.04132,0.08436
566.96979,0.08666
568.89825,0.08994
570.82672,0.09190
572.75519,0.09856
574.68366,0.11717
576.61213,0.12968
578.54060,0.12454
580.46907,0.11960
582.39754,0.13218
584.32600,0.14307
586.25447,0.13178
588.18294,0.12968
590.11141,0.14315
592.03988,0.14066
593.96835,0.13164
595.89682,0.12042
597.82528,0.09932
599.75375,0.09280
601.68222,0.10205
603.61069,0.10413
605.53916,0.10418
607.46763,0.10039
609.39610,0.08115
611.32456,0.06091
613.25303,0.05851
615.18150,0.07309
617.10997,0.08958
619.03844,0.10117
620.96691,0.10491
622.89538,0.09207
624.82385,0.08410
626.75231,0.10192
628.68078,0.11719
630.60925,0.11807
632.53772,0.12748
634.46619,0.12761
636.39466,0.10216
638.32313,0.08910
640.25159,0.10456
642.18006,0.12339
644.10853,0.13469
646.03700,0.14036
647.96547,0.14050
649.89394,0.12524
651.82241,0.10190
653.75088,0.10075
655.67934,0.10568
657.60781,0.08761
659.53628,0.06949
661.46475,0.06933
663.39322,0.07250
665.32169,0.07169
667.25016,0.07702
669.17862,0.10487
671.10709,0.12713
673.03556,0.13476
674.96403,0.13269
676.89250,0.11400
678.82097,0.09076
680.74944,0.08112
682.67791,0.08280
684.60637,0.09738
686.53484,0.12624
688.46331,0.14464
690.39178,0.13493
692.32025,0.11447
694.24872,0.10494
696.17719,0.10589
698.10565,0.10521
700.03412,0.10503
701.96259,0.11532
703.89106,0.12493
705.81953,0.12165
707.74800,0.11642
709.67647,0.11152
711.60494,0.10326
713.53340,0.10348
715.46187,0.11408
717.39034,0.11969
719.31881,0.11043
721.24728,0.09502
723.17575,0.09072
725.10422,0.09882
727.03268,0.10722
728.96115,0.11423
730.88962,0.12684
732.81809,0.13593
734.74656,0.13004
736.67503,0.11723
738.60350,0.11195
740.53197,0.11662
742.46043,0.11909
744.38890,0.11636
746.31737,0.11633
748.24584,0.11728
750.17431,0.11149
752.10278,0.10417
754.03125,0.10964
755.95971,0.12273
757.88818,0.12678
759.81665,0.11998
761.74512,0.11237
763.67359,0.10962
765.60206,0.10830
767.53053,0.11003
769.45900,0.11506
771.38746,0.12088
773.31593,0.12751
775.24440,0.12252
777.17287,0.10313
779.10134,0.09256
781.02981,0.10196
782.95828,0.11959
784.88674,0.13905
786.81521,0.15603
788.74368,0.15748
790.67215,0.14609
792.60062,0.13007
794.52909,0.11183
796.45756,0.10327
798.38602,0.10919
800.31449,0.12373
802.24296,0.13828
804.17143,0.13746
806.09990,0.11910
808.02837,0.10251
809.95684,0.10058
811.88531,0.10735
813.81377,0.11383
815.74224,0.11154
817.67071,0.10560
819.59918,0.11031
821.52765,0.11381
823.45612,0.10637
825.38459,0.10760
827.31305,0.12242
829.24152,0.13101
831.16999,0.12742
833.09846,0.12505
835.02693,0.12876
836.95540,0.12636
838.88387,0.11967
840.81234,0.12347
842.74080,0.13424
844.66927,0.14091
846.59774,0.14146
848.52621,0.13614
850.45468,0.13122
852.38315,0.13478
854.31162,0.14166
856.24008,0.13885
858.16855,0.12485
860.09702,0.11504
862.02549,0.11889
863.95396,0.12453
865.88243,0.12097
867.81090,0.11631
869.73937,0.11970
871.66783,0.12635
873.59630,0.13046
875.52477,0.13211
877.45324,0.13295
879.38171,0.13667
881.31018,0.14129
883.23865,0.13995
885.16711,0.13478
887.09558,0.12930
889.02405,0.12365
890.95252,0.12313
892.88099,0.12660
894.80946,0.12487
896.73793,0.11739
898.66640,0.11140
900.59486,0.11393
902.52333,0.12098
904.45180,0.12151
906.38027,0.12331
908.30874,0.13412
910.23721,0.14281
912.16568,0.14639
914.09414,0.14539
916.02261,0.13672
917.95108,0.12826
919.87955,0.12478
921.80802,0.12423
923.73649,0.12978
925.66496,0.14180
927.59343,0.14968
929.52189,0.14630
931.45036,0.14082
933.37883,0.13761
935.30730,0.13195
937.23577,0.13022
939.16424,0.13558
941.09271,0.13918
943.02117,0.13662
944.94964,0.12994
946.87811,0.12410
948.80658,0.12225
950.73505,0.12567
952.66352,0.13573
954.59199,0.14514
956.52045,0.14427
958.44892,0.13530
960.37739,0.12721
962.30586,0.12387
964.23433,0.12494
966.16280,0.13186
968.09127,0.14134
970.01974,0.14554
971.94820,0.14093
973.87667,0.13129
975.80514,0.12780
977.73361,0.13467
979.66208,0.14123
981.59055,0.14239
983.51902,0.14122
985.44748,0.13701
987.37595,0.13137
989.30442,0.12886
991.23289,0.13227
993.16136,0.13798
995.08983,0.14224
997.01830,0.14750
998.94677,0.15001
1000.87523,0.14582
1002.80370,0.13889
1004.73217,0.13512
1006.66064,0.14130
1008.58911,0.15513
1010.51758,0.16359
1012.44605,0.15829
1014.37451,0.14529
1016.30298,0.14097
1018.23145,0.14949
1020.15992,0.16006
1022.08839,0.16817
1024.01686,0.17400
1025.94533,0.17562
1027.87380,0.16848
1029.80226,0.15298
1031.73073,0.13946
1033.65920,0.13298
1035.58767,0.13348
1037.51614,0.14207
1039.44461,0.15332
1041.37308,0.15864
1043.30154,0.15845
1045.23001,0.15713
1047.15848,0.15597
1049.08695,0.15865
1051.01542,0.16650
1052.94389,0.17253
1054.87236,0.16680
1056.80083,0.15049
1058.72929,0.13862
1060.65776,0.13864
1062.58623,0.14355
1064.51470,0.14990
1066.44317,0.15791
1068.37164,0.16349
1070.30011,0.16365
1072.22857,0.15907
1074.15704,0.15531
1076.08551,0.15538
1078.01398,0.15712
1079.94245,0.16100
1081.87092,0.16425
1083.79939,0.16113
1085.72786,0.15370
1087.65632,0.15056
1089.58479,0.15079
1091.51326,0.14940
1093.44173,0.15187
1095.37020,0.15918
1097.29867,0.16156
1099.22714,0.15551
1101.15560,0.14959
1103.08407,0.14823
1105.01254,0.14919
1106.94101,0.15403
1108.86948,0.16015
1110.79795,0.16036
1112.72642,0.15368
1114.65489,0.14552
1116.58335,0.14191
1118.51182,0.14503
1120.44029,0.15122
1122.36876,0.15649
1124.29723,0.16257
1126.22570,0.16613
1128.15417,0.15924
1130.08263,0.14664
1132.01110,0.13946
1133.93957,0.14001
1135.86804,0.14456
1137.79651,0.15069
1139.72498,0.15534
1141.65345,0.15419
1143.58191,0.15056
1145.51038,0.15246
1147.43885,0.16138
1149.36732,0.17307
1151.29579,0.17906
1153.22426,0.17280
1155.15273,0.15951
1157.08120,0.15274
1159.00966,0.15953
1160.93813,0.17151
1162.86660,0.17733
1164.79507,0.17525
1166.72354,0.16922
1168.65201,0.16494
1170.58048,0.16407
1172.50894,0.16263
1174.43741,0.16249
1176.36588,0.16649
1178.29435,0.16708
1180.22282,0.16030
1182.15129,0.15292
1184.07976,0.14914
1186.00823,0.14842
1187.93669,0.15171
1189.86516,0.15784
1191.79363,0.16176
1193.72210,0.16052
1195.65057,0.15798
1197.57904,0.16057
1199.50751,0.16411
1201.43597,0.16052
1203.36444,0.15565
1205.29291,0.15616
1207.22138,0.15714
1209.14985,0.15609
1211.07832,0.15612
1213.00679,0.15726
1214.93526,0.15814
1216.86372,0.15858
1218.79219,0.15849
1220.72066,0.15866
1222.64913,0.16240
1224.57760,0.16736
1226.50607,0.16425
1228.43454,0.15726
1230.36300,0.15908
1232.29147,0.16585
1234.21994,0.16443
1236.14841,0.15600
1238.07688,0.15158
1240.00535,0.15129
1241.93382,0.15054
1243.86229,0.15060
1245.79075,0.15120
1247.71922,0.15297
1249.64769,0.15797
1251.57616,0.15997
1253.50463,0.15477
1255.43310,0.15081
1257.36157,0.15207
1259.29003,0.15239
1261.21850,0.15056
1263.14697,0.15002
1265.07544,0.14895
1267.00391,0.14535
1268.93238,0.14302
1270.86085,0.14586
1272.78932,0.15164
1274.71778,0.15457
1276.64625,0.15582
1278.57472,0.15659
1280.50319,0.15151
1282.43166,0.14623
1284.36013,0.14865
1286.28860,0.15114
1288.21706,0.15142
1290.14553,0.15422
1292.07400,0.15412
1294.00247,0.14950
1295.93094,0.14488
1297.85941,0.13783
1299.78788,0.12253
1301.71634,0.09853
1303.64481,0.08004
1305.57328,0.09012
1307.50175,0.12652
1309.43022,0.15503
1311.35869,0.16112
1313.28716,0.16155
1315.21563,0.16507
1317.14409,0.16867
1319.07256,0.16765
1321.00103,0.16215
1322.92950,0.15905
1324.85797,0.15468
1326.78644,0.14976
1328.71491,0.15334
1330.64337,0.15340
1332.57184,0.14668
1334.50031,0.14612
1336.42878,0.14774
1338.35725,0.14782
1340.28572,0.14274
1342.21419,0.13783
1344.14266,0.14237
1346.07112,0.14507
1347.99959,0.14651
1349.92806,0.15041
1351.85653,0.14802
1353.78500,0.14287
1355.71347,0.14290
1357.64194,0.14959
1359.57040,0.16119
1361.49887,0.17232
1363.42734,0.17278
1365.35581,0.16603
1367.28428,0.16312
1369.21275,0.16264
1371.14122,0.16526
1373.06969,0.17548
1374.99815,0.18663
1376.92662,0.18774
1378.85509,0.18254
1380.78356,0.17786
1382.71203,0.17644
1384.64050,0.17870
1386.56897,0.18279
1388.49743,0.18521
1390.42590,0.18642
1392.35437,0.19084
1394.28284,0.19735
1396.21131,0.19951
1398.13978,0.19620
1400.06825,0.18896
1401.99672,0.18333
1403.92518,0.18353
1405.85365,0.18609
1407.78212,0.18808
1409.71059,0.18816
1411.63906,0.18294
1413.56753,0.17745
1415.49600,0.18314
1417.42446,0.19949
1419.35293,0.20377
1421.28140,0.18917
1423.20987,0.17745
1425.13834,0.17563
1427.06681,0.18290
1428.99528,0.19102
1430.92375,0.19044
1432.85221,0.18681
1434.78068,0.19094
1436.70915,0.19623
1438.63762,0.19078
1440.56609,0.18500
1442.49456,0.18280
1444.42303,0.18466
1446.35149,0.19344
1448.27996,0.20013
1450.20843,0.19570
1452.13690,0.19109
1454.06537,0.19988
1455.99384,0.22872
1457.92231,0.24601
1459.85077,0.22424
1461.77924,0.20789
1463.70771,0.20300
1465.63618,0.19745
1467.56465,0.19053
1469.49312,0.19320
1471.42159,0.20993
1473.35006,0.22381
1475.27852,0.21541
1477.20699,0.20101
1479.13546,0.19240
1481.06393,0.19173
1482.99240,0.19440
1484.92087,0.19930
1486.84934,0.21067
1488.77780,0.22197
1490.70627,0.21520
1492.63474,0.20225
1494.56321,0.20288
1496.49168,0.21436
1498.42015,0.21589
1500.34862,0.20616
1502.27709,0.20358
1504.20555,0.21765
1506.13402,0.25332
1508.06249,0.26006
1509.99096,0.22836
1511.91943,0.21008
1513.84790,0.20918
1515.77637,0.21866
1517.70483,0.22971
1519.63330,0.24225
1521.56177,0.24956
1523.49024,0.23777
1525.41871,0.22788
1527.34718,0.22407
1529.27565,0.22093
1531.20412,0.22430
1533.13258,0.22820
1535.06105,0.22248
1536.98952,0.22689
1538.91799,0.25747
1540.84646,0.28381
1542.77493,0.26002
1544.70340,0.22871
1546.63186,0.21189
1548.56033,0.21147
1550.48880,0.21646
1552.41727,0.22214
1554.34574,0.23362
1556.27421,0.25350
1558.20268,0.27718
1560.13115,0.25027
1562.05961,0.21643
1563.98808,0.20541
1565.91655,0.20408
1567.84502,0.21006
1569.77349,0.21430
1571.70196,0.20817
1573.63043,0.20872
1575.55889,0.21670
1577.48736,0.21087
1579.41583,0.19690
1581.34430,0.18904
1583.27277,0.18731
1585.20124,0.18811
1587.12971,0.18716
1589.05818,0.18439
1590.98664,0.18341
1592.91511,0.18576
1594.84358,0.18855
1596.77205,0.18808
1598.70052,0.18694
1600.62899,0.18773
1602.55746,0.18805
1604.48592,0.18843
1606.41439,0.18981
1608.34286,0.19012
1610.27133,0.18976
1612.19980,0.19283
1614.12827,0.20322
1616.05674,0.21527
1617.98521,0.21084
1619.91367,0.20328
1621.84214,0.20686
1623.77061,0.21194
1625.69908,0.21315
1627.62755,0.21220
1629.55602,0.20458
1631.48449,0.19975
1633.41295,0.20887
1635.34142,0.22855
1637.26989,0.22972
1639.19836,0.21620
1641.12683,0.20964
1643.05530,0.21343
1644.98377,0.22776
1646.91223,0.24211
1648.84070,0.23899
1650.76917,0.24442
1652.69764,0.27067
1654.62611,0.25861
1656.55458,0.22392
1658.48305,0.20539
1660.41152,0.20205
1662.33998,0.20743
1664.26845,0.20797
1666.19692,0.20730
1668.12539,0.21557
1670.05386,0.22423
1671.98233,0.22212
1673.91080,0.22009
1675.83926,0.21517
1677.76773,0.20913
1679.69620,0.21582
1681.62467,0.23793
1683.55314,0.26167
1685.48161,0.24722
1687.41008,0.22190
1689.33855,0.21181
1691.26701,0.20869
1693.19548,0.21318
1695.12395,0.23175
1697.05242,0.25220
1698.98089,0.25300
1700.90936,0.23537
1702.83783,0.22328
1704.76629,0.22135
1706.69476,0.21507
1708.62323,0.20587
1710.55170,0.20267
1712.48017,0.20710
1714.40864,0.22069
1716.33711,0.23821
1718.26558,0.23379
1720.19404,0.21280
1722.12251,0.19990
1724.05098,0.19484
1725.97945,0.19381
1727.90792,0.19814
1729.83639,0.20643
1731.76486,0.21713
1733.69332,0.22651
1735.62179,0.21828
1737.55026,0.20779
1739.47873,0.20694
1741.40720,0.21017
1743.33567,0.21254
1745.26414,0.21375
1747.19261,0.21659
1749.12107,0.22099
1751.04954,0.21618
1752.97801,0.20533
1754.90648,0.20069
1756.83495,0.19860
1758.76342,0.19543
1760.69189,0.19802
1762.62035,0.20101
1764.54882,0.19736
1766.47729,0.19793
1768.40576,0.20699
1770.33423,0.21845
1772.26270,0.22274
1774.19117,0.21321
1776.11964,0.20336
1778.04810,0.20156
1779.97657,0.20346
1781.90504,0.20130
1783.83351,0.19575
1785.76198,0.19089
1787.69045,0.18895
1789.61892,0.19481
1791.54738,0.20858
1793.47585,0.21479
1795.40432,0.20987
1797.33279,0.20657
1799.26126,0.20760
1801.18973,0.20570
1803.11820,0.19698
1805.04666,0.18984
1806.97513,0.19036
1808.90360,0.19562
1810.83207,0.19756
1812.76054,0.19309
1814.68901,0.18955
1816.61748,0.18987
1818.54595,0.19167
1820.47441,0.19518
1822.40288,0.20026
1824.33135,0.20493
1826.25982,0.20771
1828.18829,0.21052
1830.11676,0.20880
1832.04523,0.19960
1833.97369,0.19493
1835.90216,0.19651
1837.83063,0.19703
1839.75910,0.19571
1841.68757,0.19771
1843.61604,0.20359
1845.54451,0.20419
1847.47298,0.19780
1849.40144,0.19259
1851.32991,0.19172
1853.25838,0.19217
1855.18685,0.19051
1857.11532,0.18834
1859.04379,0.18843
1860.97226,0.19045
1862.90072,0.19271
1864.82919,0.19622
1866.75766,0.20425
1868.68613,0.21156
1870.61460,0.20540
1872.54307,0.19333
1874.47154,0.18839
1876.40001,0.18979
1878.32847,0.19070
1880.25694,0.19050
1882.18541,0.19218
1884.11388,0.19540
1886.04235,0.19851
1887.97082,0.20067
1889.89929,0.19792
1891.82775,0.19232
1893.75622,0.19420
1895.68469,0.20004
1897.61316,0.19875
1899.54163,0.19437
1901.47010,0.19488
1903.39857,0.19792
1905.32704,0.19859
1907.25550,0.19789
1909.18397,0.19698
1911.11244,0.19424
1913.04091,0.19137
1914.96938,0.19216
1916.89785,0.19602
1918.82632,0.19771
1920.75478,0.19770
1922.68325,0.19823
1924.61172,0.19683
1926.54019,0.19570
1928.46866,0.19671
1930.39713,0.19615
1932.32560,0.19366
1934.25407,0.19283
1936.18253,0.19320
1938.11100,0.19233
1940.03947,0.19254
1941.96794,0.19532
1943.89641,0.19620
1945.82488,0.19463
1947.75335,0.19412
1949.68181,0.19284
1951.61028,0.19014
1953.53875,0.18920
1955.46722,0.18884
1957.39569,0.18832
1959.32416,0.19099
1961.25263,0.19469
1963.18110,0.19614
1965.10956,0.19766
1967.03803,0.19845
1968.96650,0.19511
1970.89497,0.19033
1972.82344,0.18894
1974.75191,0.19053
1976.68038,0.19133
1978.60884,0.19099
1980.53731,0.19055
1982.46578,0.18920
1984.39425,0.18777
1986.32272,0.18860
1988.25119,0.19248
1990.17966,0.19793
1992.10812,0.20094
1994.03659,0.19847
1995.96506,0.19290
1997.89353,0.18896
1999.82200,0.18997
2001.75047,0.19456
2003.67894,0.19803
2005.60741,0.19828
2007.53587,0.19617
2009.46434,0.19320
2011.39281,0.19251
2013.32128,0.19558
2015.24975,0.19899
2017.17822,0.19908
2019.10669,0.19552
2021.03515,0.19098
2022.96362,0.18940
2024.89209,0.19118
2026.82056,0.19251
2028.74903,0.19224
2030.67750,0.19252
2032.60597,0.19422
2034.53444,0.19547
2036.46290,0.19364
2038.39137,0.18983
2040.31984,0.18832
2042.24831,0.18984
2044.17678,0.19292
2046.10525,0.19740
2048.03372,0.19989
2049.96218,0.19821
2051.89065,0.19547
2053.81912,0.19437
2055.74759,0.19425
2057.67606,0.19299
2059.60453,0.19337
2061.53300,0.19711
2063.46147,0.19901
2065.38993,0.19656
2067.31840,0.19221
2069.24687,0.19001
2071.17534,0.19217
2073.10381,0.19595
2075.03228,0.19678
2076.96075,0.19370
2078.88921,0.19053
2080.81768,0.19005
2082.74615,0.19040
2084.67462,0.19028
2086.60309,0.19160
2088.53156,0.19460
2090.46003,0.19618
2092.38850,0.19402
2094.31696,0.19130
2096.24543,0.19147
2098.17390,0.19256
2100.10237,0.19430
2102.03084,0.19751
2103.95931,0.19918
2105.88778,0.19825
2107.81624,0.19643
2109.74471,0.19495
2111.67318,0.19515
2113.60165,0.19616
2115.53012,0.19633
2117.45859,0.19653
2119.38706,0.19599
2121.31553,0.19289
2123.24399,0.18939
2125.17246,0.18836
2127.10093,0.18964
2129.02940,0.19274
2130.95787,0.19610
2132.88634,0.19676
2134.81481,0.19572
2136.74327,0.19528
2138.67174,0.19484
2140.60021,0.19412
2142.52868,0.19424
2144.45715,0.19633
2146.38562,0.19889
2148.31409,0.19898
2150.24255,0.19730
2152.17102,0.19543
2154.09949,0.19418
2156.02796,0.19605
2157.95643,0.20002
2159.88490,0.20199
2161.81337,0.20140
2163.74184,0.19944
2165.67030,0.19695
2167.59877,0.19479
2169.52724,0.19422
2171.45571,0.19509
2173.38418,0.19508
2175.31265,0.19425
2177.24112,0.19465
2179.16958,0.19618
2181.09805,0.19734
2183.02652,0.19778
2184.95499,0.19776
2186.88346,0.19795
2188.81193,0.19841
2190.74040,0.19730
2192.66887,0.19487
2194.59733,0.19350
2196.52580,0.19402
2198.45427,0.19602
2200.38274,0.19816
2202.31121,0.19843
2204.23968,0.19678
2206.16815,0.19538
2208.09661,0.19520
2210.02508,0.19585
2211.95355,0.19704
2213.88202,0.19743
2215.81049,0.19545
2217.73896,0.19296
2219.66743,0.19268
2221.59590,0.19367
2223.52436,0.19407
2225.45283,0.19425
2227.38130,0.19600
2229.30977,0.19910
2231.23824,0.19997
2233.16671,0.19802
2235.09518,0.19680
2237.02364,0.19668
2238.95211,0.19640
2240.88058,0.19644
2242.80905,0.19687
2244.73752,0.19708
2246.66599,0.19680
2248.59446,0.19748
2250.52293,0.19950
2252.45139,0.20075
2254.37986,0.20059
2256.30833,0.19997
2258.23680,0.19909
2260.16527,0.19683
2262.09374,0.19465
2264.02221,0.19655
2265.95067,0.20018
2267.87914,0.19944
2269.80761,0.19601
2271.73608,0.19525
2273.66455,0.19693
2275.59302,0.19806
2277.52149,0.19743
2279.44996,0.19542
2281.37842,0.19323
2283.30689,0.19289
2285.23536,0.19451
2287.16383,0.19517
2289.09230,0.19375
2291.02077,0.19262
2292.94924,0.19388
2294.87770,0.19537
2296.80617,0.19459
2298.73464,0.19303
2300.66311,0.19145
2302.59158,0.19005
2304.52005,0.19037
2306.44852,0.19264
2308.37699,0.19469
2310.30545,0.19460
2312.23392,0.19492
2314.16239,0.19474
2316.09086,0.18911
2318.01933,0.18487
2319.94780,0.19159
2321.87627,0.20145
2323.80473,0.20047
2325.73320,0.19062
2327.66167,0.18588
2329.59014,0.19242
2331.51861,0.19764
2333.44708,0.19732
2335.37555,0.20359
2337.30401,0.20741
2339.23248,0.19671
2341.16095,0.18702
2343.08942,0.18676
2345.01789,0.18656
2346.94636,0.19022
2348.87483,0.19997
2350.80330,0.20563
2352.73176,0.19833
2354.66023,0.18809
2356.58870,0.19021
2358.51717,0.18819
2360.44564,0.16981
2362.37411,0.16080
2364.30258,0.17674
2366.23104,0.19075
2368.15951,0.18847
2370.08798,0.18739
2372.01645,0.19173
2373.94492,0.19265
2375.87339,0.19093
2377.80186,0.19233
2379.73033,0.19630
2381.65879,0.19815
2383.58726,0.19524
2385.51573,0.19015
2387.44420,0.18983
2389.37267,0.19541
2391.30114,0.19982
2393.22961,0.20121
2395.15807,0.20178
2397.08654,0.19925
2399.01501,0.19434
2400.94348,0.19103
2402.87195,0.18976
2404.80042,0.18985
2406.72889,0.19065
2408.65736,0.19221
2410.58582,0.19562
2412.51429,0.19860
2414.44276,0.19834
2416.37123,0.19668
2418.29970,0.19644
2420.22817,0.19747
2422.15664,0.19759
2424.08510,0.19680
2426.01357,0.19739
2427.94204,0.19910
2429.87051,0.19978
2431.79898,0.19903
2433.72745,0.19804
2435.65592,0.19835
2437.58439,0.19922
2439.51285,0.19773
2441.44132,0.19541
2443.36979,0.19573
2445.29826,0.19703
2447.22673,0.19699
2449.15520,0.19632
2451.08367,0.19761
2453.01213,0.20371
2454.94060,0.20991
2456.86907,0.20743
2458.79754,0.20092
2460.72601,0.19873
2462.65448,0.19767
2464.58295,0.19534
2466.51142,0.19497
2468.43988,0.19752
2470.36835,0.19861
2472.29682,0.19651
2474.22529,0.19636
2476.15376,0.19934
2478.08223,0.20204
2480.01070,0.20237
2481.93916,0.20013
2483.86763,0.19711
2485.79610,0.19484
2487.72457,0.19397
2489.65304,0.19440
2491.58151,0.19426
2493.50998,0.19391
2495.43844,0.19570
2497.36691,0.19780
2499.29538,0.19822
2501.22385,0.19769
2503.15232,0.19654
2505.08079,0.19706
2507.00926,0.20089
2508.93773,0.20447
2510.86619,0.20491
2512.79466,0.20340
2514.72313,0.20043
2516.65160,0.19753
2518.58007,0.19773
2520.50854,0.19914
2522.43701,0.19805
2524.36547,0.19606
2526.29394,0.19564
2528.22241,0.19462
2530.15088,0.19301
2532.07935,0.19378
2534.00782,0.19549
2535.93629,0.19525
2537.86476,0.19427
2539.79322,0.19494
2541.72169,0.19669
2543.65016,0.19845
2545.57863,0.19974
2547.50710,0.19881
2549.43557,0.19615
2551.36404,0.19544
2553.29250,0.19706
2555.22097,0.19757
2557.14944,0.19599
2559.07791,0.19447
2561.00638,0.19445
2562.93485,0.19487
2564.86332,0.19474
2566.79179,0.19509
2568.72025,0.19668
2570.64872,0.19852
2572.57719,0.19922
2574.50566,0.19947
2576.43413,0.20027
2578.36260,0.20075
2580.29107,0.20042
2582.21953,0.19960
2584.14800,0.19935
2586.07647,0.20012
2588.00494,0.20059
2589.93341,0.20112
2591.86188,0.20259
2593.79035,0.20233
2595.71882,0.20004
2597.64728,0.19863
2599.57575,0.19682
2601.50422,0.19456
2603.43269,0.19589
2605.36116,0.19979
2607.28963,0.20224
2609.21810,0.20265
2611.14656,0.20248
2613.07503,0.20253
2615.00350,0.20070
2616.93197,0.19776
2618.86044,0.19879
2620.78891,0.20207
2622.71738,0.20233
2624.64585,0.20066
2626.57431,0.19974
2628.50278,0.20012
2630.43125,0.20193
2632.35972,0.20324
2634.28819,0.20284
2636.21666,0.20273
2638.14513,0.20200
2640.07359,0.19998
2642.00206,0.19911
2643.93053,0.19943
2645.85900,0.20097
2647.78747,0.20402
2649.71594,0.20589
2651.64441,0.20507
2653.57288,0.20380
2655.50134,0.20336
2657.42981,0.20355
2659.35828,0.20509
2661.28675,0.20619
2663.21522,0.20559
2665.14369,0.20620
2667.07216,0.20743
2669.00062,0.20515
2670.92909,0.20098
2672.85756,0.20054
2674.78603,0.20366
2676.71450,0.20504
2678.64297,0.20354
2680.57144,0.20244
2682.49990,0.20285
2684.42837,0.20364
2686.35684,0.20364
2688.28531,0.20368
2690.21378,0.20527
2692.14225,0.20619
2694.07072,0.20463
2695.99919,0.20246
2697.92765,0.20130
2699.85612,0.20159
2701.78459,0.20268
2703.71306,0.20370
2705.64153,0.20483
2707.57000,0.20428
2709.49847,0.20161
2711.42693,0.20053
2713.35540,0.20301
2715.28387,0.20804
2717.21234,0.21203
2719.14081,0.21200
2721.06928,0.20959
2722.99775,0.20674
2724.92622,0.20313
2726.85468,0.20059
2728.78315,0.20202
2730.71162,0.20634
2732.64009,0.21000
2734.56856,0.21043
2736.49703,0.20986
2738.42550,0.21018
2740.35396,0.20958
2742.28243,0.21031
2744.21090,0.21210
2746.13937,0.21117
2748.06784,0.20976
2749.99631,0.21008
2751.92478,0.20903
2753.85325,0.20583
2755.78171,0.20404
2757.71018,0.20553
2759.63865,0.20947
2761.56712,0.21246
2763.49559,0.21190
2765.42406,0.20975
2767.35253,0.20901
2769.28099,0.21031
2771.20946,0.21144
2773.13793,0.21255
2775.06640,0.21465
2776.99487,0.21343
2778.92334,0.20764
2780.85181,0.20349
2782.78028,0.20455
2784.70874,0.20842
2786.63721,0.21200
2788.56568,0.21296
2790.49415,0.21116
2792.42262,0.21083
2794.35109,0.21240
2796.27956,0.21067
2798.20802,0.20866
2800.13649,0.21049
2802.06496,0.21065
2803.99343,0.20743
2805.92190,0.20606
2807.85037,0.20919
2809.77884,0.21375
2811.70731,0.21572
2813.63577,0.21522
2815.56424,0.21405
2817.49271,0.21341
2819.42118,0.21282
2821.34965,0.21011
2823.27812,0.20655
2825.20659,0.20655
2827.13505,0.20967
2829.06352,0.21244
2830.99199,0.21451
2832.92046,0.21685
2834.84893,0.21834
2836.77740,0.21709
2838.70587,0.21460
2840.63433,0.21382
2842.56280,0.21447
2844.49127,0.21431
2846.41974,0.21369
2848.34821,0.21409
2850.27668,0.21294
2852.20515,0.20903
2854.13362,0.20866
2856.06208,0.21356
2857.99055,0.21588
2859.91902,0.21352
2861.84749,0.21176
2863.77596,0.21213
2865.70443,0.21246
2867.63290,0.21131
2869.56136,0.21000
2871.48983,0.20994
2873.41830,0.21132
2875.34677,0.21568
2877.27524,0.21979
2879.20371,0.21751
2881.13218,0.21151
2883.06065,0.20656
2884.98911,0.20372
2886.91758,0.20581
2888.84605,0.21140
2890.77452,0.21353
2892.70299,0.20956
2894.63146,0.20347
2896.55993,0.20153
2898.48839,0.20546
2900.41686,0.21101
2902.34533,0.21327
2904.27380,0.20761
2906.20227,0.19697
2908.13074,0.19501
2910.05921,0.20391
2911.98768,0.21115
2913.91614,0.20773
2915.84461,0.19607
2917.77308,0.19183
2919.70155,0.20145
2921.63002,0.21132
2923.55849,0.20847
2925.48696,0.19287
2927.41542,0.18398
2929.34389,0.19361
2931.27236,0.20560
2933.20083,0.20726
2935.12930,0.19449
2937.05777,0.17652
2938.98624,0.18133
2940.91471,0.20303
2942.84317,0.21125
2944.77164,0.20062
2946.70011,0.18189
2948.62858,0.17834
2950.55705,0.19623
2952.48552,0.20978
2954.41399,0.20698
2956.34245,0.18980
2958.27092,0.17518
2960.19939,0.18535
2962.12786,0.20586
2964.05633,0.21459
2965.98480,0.20744
2967.91327,0.19525
2969.84174,0.20045
2971.77020,0.21558
2973.69867,0.21774
2975.62714,0.20433
2977.55561,0.18502
2979.48408,0.18305
2981.41255,0.20358
2983.34102,0.21962
2985.26948,0.21626
2987.19795,0.20235
2989.12642,0.19798
2991.05489,0.21024
2992.98336,0.22150
2994.91183,0.22109
2996.84030,0.21352
2998.76877,0.20633
3000.69723,0.20701
3002.62570,0.21136
3004.55417,0.20933
3006.48264,0.19995
3008.41111,0.18732
3010.33958,0.16715
3012.26805,0.13038
3014.19651,0.08539
3016.12498,0.06312
3018.05345,0.09119
3019.98192,0.15224
3021.91039,0.19880
3023.83886,0.21553
3025.76733,0.21575
3027.69579,0.21119
3029.62426,0.21144
3031.55273,0.21644
3033.48120,0.21889
3035.40967,0.21572
3037.33814,0.20958
3039.26661,0.20875
3041.19508,0.21347
3043.12354,0.21466
3045.05201,0.20655
3046.98048,0.19566
3048.90895,0.19887
3050.83742,0.21327
3052.76589,0.21950
3054.69436,0.20954
3056.62282,0.19301
3058.55129,0.19221
3060.47976,0.20644
3062.40823,0.21310
3064.33670,0.20323
3066.26517,0.18657
3068.19364,0.18493
3070.12211,0.19995
3072.05057,0.20773
3073.97904,0.19776
3075.90751,0.18588
3077.83598,0.19227
3079.76445,0.20837
3081.69292,0.21130
3083.62139,0.19579
3085.54985,0.18045
3087.47832,0.18929
3089.40679,0.21004
3091.33526,0.21495
3093.26373,0.20332
3095.19220,0.19650
3097.12067,0.20672
3099.04914,0.21831
3100.97760,0.21534
3102.90607,0.19932
3104.83454,0.19104
3106.76301,0.20166
3108.69148,0.21123
3110.61995,0.20306
3112.54842,0.18793
3114.47688,0.19056
3116.40535,0.20781
3118.33382,0.21634
3120.26229,0.21003
3122.19076,0.20092
3124.11923,0.20485
3126.04770,0.21522
3127.97617,0.21480
3129.90463,0.20498
3131.83310,0.20205
3133.76157,0.21098
3135.69004,0.21863
3137.61851,0.21831
3139.54698,0.21454
3141.47545,0.21403
3143.40391,0.21710
3145.33238,0.21873
3147.26085,0.21806
3149.18932,0.21905
3151.11779,0.22476
3153.04626,0.23092
3154.97473,0.22904
3156.90320,0.21824
3158.83166,0.21147
3160.76013,0.21658
3162.68860,0.22183
3164.61707,0.21819
3166.54554,0.21489
3168.47401,0.21779
3170.40248,0.22027
3172.33094,0.22064
3174.25941,0.22067
3176.18788,0.22159
3178.11635,0.22518
3180.04482,0.22679
3181.97329,0.22305
3183.90176,0.22056
3185.83022,0.22211
3187.75869,0.22299
3189.68716,0.22180
3191.61563,0.21938
3193.54410,0.21881
3195.47257,0.22108
3197.40104,0.22230
3199.32951,0.22218
3201.25797,0.22084
3203.18644,0.21756
3205.11491,0.21419
3207.04338,0.21218
3208.97185,0.21205
3210.90032,0.21472
3212.82879,0.21935
3214.75725,0.22377
3216.68572,0.22749
3218.61419,0.22758
3220.54266,0.22371
3222.47113,0.22256
3224.39960,0.22363
3226.32807,0.22193
3228.25654,0.21845
3230.18500,0.21663
3232.11347,0.21986
3234.04194,0.22603
3235.97041,0.22829
3237.89888,0.22661
3239.82735,0.22644
3241.75582,0.22757
3243.68428,0.22292
3245.61275,0.21082
3247.54122,0.20454
3249.46969,0.21421
3251.39816,0.22844
3253.32663,0.23281
3255.25510,0.22719
3257.18357,0.21797
3259.11203,0.21119
3261.04050,0.21096
3262.96897,0.21694
3264.89744,0.22241
3266.82591,0.22306
3268.75438,0.22099
3270.68285,0.21796
3272.61131,0.21589
3274.53978,0.21733
3276.46825,0.22240
3278.39672,0.22616
3280.32519,0.22544
3282.25366,0.22487
3284.18213,0.22688
3286.11060,0.22564
3288.03906,0.21907
3289.96753,0.21553
3291.89600,0.21705
3293.82447,0.21845
3295.75294,0.22076
3297.68141,0.22235
3299.60988,0.22145
3301.53834,0.22380
3303.46681,0.22704
3305.39528,0.22533
3307.32375,0.22364
3309.25222,0.22372
3311.18069,0.22016
3313.10916,0.21441
3315.03763,0.21380
3316.96609,0.22011
3318.89456,0.22555
3320.82303,0.22410
3322.75150,0.21933
3324.67997,0.21766
3326.60844,0.22067
3328.53691,0.22327
3330.46537,0.22286
3332.39384,0.22385
3334.32231,0.22751
3336.25078,0.22751
3338.17925,0.22377
3340.10772,0.22515
3342.03619,0.23014
3343.96466,0.23228
3345.89312,0.23283
3347.82159,0.23247
3349.75006,0.22972
3351.67853,0.22520
3353.60700,0.22165
3355.53547,0.21954
3357.46394,0.21700
3359.39240,0.21561
3361.32087,0.21781
3363.24934,0.22312
3365.17781,0.22954
3367.10628,0.23370
3369.03475,0.23298
3370.96322,0.22896
3372.89168,0.22538
3374.82015,0.22362
3376.74862,0.22153
3378.67709,0.22018
3380.60556,0.22183
3382.53403,0.22087
3384.46250,0.21585
3386.39097,0.21465
3388.31943,0.22000
3390.24790,0.22648
3392.17637,0.22710
3394.10484,0.22225
3396.03331,0.21981
3397.96178,0.21928
3399.89025,0.21730
3401.81871,0.22000
3403.74718,0.22552
3405.67565,0.22557
3407.60412,0.22260
3409.53259,0.22089
3411.46106,0.21962
3413.38953,0.21918
3415.31800,0.22192
3417.24646,0.22406
3419.17493,0.22146
3421.10340,0.21849
3423.03187,0.21529
3424.96034,0.21046
3426.88881,0.20971
3428.81728,0.21302
3430.74574,0.21464
3432.67421,0.21532
3434.60268,0.21796
3436.53115,0.21987
3438.45962,0.21702
3440.38809,0.21295
3442.31656,0.21426
3444.24503,0.22012
3446.17349,0.22575
3448.10196,0.22386
3450.03043,0.21486
3451.95890,0.20777
3453.88737,0.20288
3455.81584,0.19993
3457.74431,0.20100
3459.67277,0.20389
3461.60124,0.20754
3463.52971,0.20773
3465.45818,0.20097
3467.38665,0.19503
3469.31512,0.19467
3471.24359,0.19630
3473.17206,0.19884
3475.10052,0.20056
3477.02899,0.20083
3478.95746,0.20270
3480.88593,0.20438
3482.81440,0.20181
3484.74287,0.19932
3486.67134,0.20145
3488.59980,0.20122
3490.52827,0.19438
3492.45674,0.18878
3494.38521,0.18915
3496.31368,0.19178
3498.24215,0.19343
3500.17062,0.19435
3502.09909,0.19550
3504.02755,0.19419
3505.95602,0.18728
3507.88449,0.18276
3509.81296,0.18772
3511.74143,0.19322
3513.66990,0.18810
3515.59837,0.17733
3517.52683,0.17335
3519.45530,0.17690
3521.38377,0.18283
3523.31224,0.18971
3525.24071,0.19509
3527.16918,0.19699
3529.09765,0.19291
3531.02611,0.18428
3532.95458,0.17828
3534.88305,0.17705
3536.81152,0.17740
3538.73999,0.17643
3540.66846,0.17528
3542.59693,0.17839
3544.52540,0.18265
3546.45386,0.17769
3548.38233,0.16743
3550.31080,0.16451
3552.23927,0.16775
3554.16774,0.16858
3556.09621,0.16789
3558.02468,0.16887
3559.95314,0.16856
3561.88161,0.16738
3563.81008,0.17371
3565.73855,0.18914
3567.66702,0.19427
3569.59549,0.18338
3571.52396,0.17250
3573.45243,0.16351
3575.38089,0.15724
3577.30936,0.15575
3579.23783,0.15855
3581.16630,0.16392
3583.09477,0.16986
3585.02324,0.17848
3586.95171,0.18526
3588.88017,0.17624
3590.80864,0.16708
3592.73711,0.17058
3594.66558,0.17441
3596.59405,0.17165
3598.52252,0.17179
3600.45099,0.17215
3602.37946,0.16296
3604.30792,0.15641
3606.23639,0.16426
3608.16486,0.17234
3610.09333,0.16932
3612.02180,0.16833
3613.95027,0.17382
3615.87874,0.18025
3617.80720,0.18310
3619.73567,0.17570
3621.66414,0.16394
3623.59261,0.16014
3625.52108,0.16408
3627.44955,0.17321
3629.37802,0.17448
3631.30649,0.15934
3633.23495,0.14749
3635.16342,0.14486
3637.09189,0.14722
3639.02036,0.15119
3640.94883,0.15448
3642.87730,0.15456
3644.80577,0.15666
3646.73423,0.16809
3648.66270,0.18346
3650.59117,0.17742
3652.51964,0.16048
3654.44811,0.15380
3656.37658,0.15173
3658.30505,0.14466
3660.23352,0.13770
3662.16198,0.13530
3664.09045,0.13787
3666.01892,0.14500
3667.94739,0.15624
3669.87586,0.16441
3671.80433,0.16488
3673.73280,0.17158
3675.66126,0.17566
3677.58973,0.16297
3679.51820,0.15237
3681.44667,0.14786
3683.37514,0.14534
3685.30361,0.14411
3687.23208,0.14612
3689.16055,0.15036
3691.08901,0.14607
3693.01748,0.13670
3694.94595,0.13345
3696.87442,0.13323
3698.80289,0.13396
3700.73136,0.13836
3702.65983,0.14018
3704.58829,0.13718
3706.51676,0.13680
3708.44523,0.14445
3710.37370,0.15986
3712.30217,0.16261
3714.23064,0.14879
3716.15911,0.13995
3718.08757,0.12929
3720.01604,0.10355
3721.94451,0.08939
3723.87298,0.11786
3725.80145,0.15298
3727.72992,0.15393
3729.65839,0.14626
3731.58686,0.15538
3733.51532,0.17274
3735.44379,0.17989
3737.37226,0.17058
3739.30073,0.16020
3741.22920,0.15829
3743.15767,0.16336
3745.08614,0.16828
3747.01460,0.16631
3748.94307,0.16410
3750.87154,0.16098
3752.80001,0.15483
3754.72848,0.15207
3756.65695,0.15235
3758.58542,0.15272
3760.51389,0.15084
3762.44235,0.14814
3764.37082,0.14821
3766.29929,0.14878
3768.22776,0.14678
3770.15623,0.14319
3772.08470,0.13622
3774.01317,0.12893
3775.94163,0.12655
3777.87010,0.13207
3779.79857,0.14012
3781.72704,0.14007
3783.65551,0.13632
3785.58398,0.13428
3787.51245,0.13254
3789.44092,0.13044
3791.36938,0.12856
3793.29785,0.12755
3795.22632,0.13055
3797.15479,0.13897
3799.08326,0.14724
3801.01173,0.14808
3802.94020,0.14028
3804.86866,0.13845
3806.79713,0.14156
3808.72560,0.13948
3810.65407,0.13466
3812.58254,0.13256
3814.51101,0.13393
3816.43948,0.13663
3818.36795,0.14357
3820.29641,0.15599
3822.22488,0.15772
3824.15335,0.15020
3826.08182,0.14519
3828.01029,0.13946
3829.93876,0.13607
3831.86723,0.13713
3833.79569,0.13864
3835.72416,0.14568
3837.65263,0.15863
3839.58110,0.16040
3841.50957,0.15264
3843.43804,0.14455
3845.36651,0.13497
3847.29498,0.13038
3849.22344,0.13443
3851.15191,0.14300
3853.08038,0.15270
3855.00885,0.14794
3856.93732,0.13470
3858.86579,0.12704
3860.79426,0.12711
3862.72272,0.13418
3864.65119,0.13811
3866.57966,0.13761
3868.50813,0.14352
3870.43660,0.14691
3872.36507,0.13892
3874.29354,0.12880
3876.22200,0.12201
3878.15047,0.12375
3880.07894,0.13065
3882.00741,0.13205
3883.93588,0.13063
3885.86435,0.13026
3887.79282,0.12765
3889.72129,0.12650
3891.64975,0.12953
3893.57822,0.12689
3895.50669,0.12021
3897.43516,0.12243
3899.36363,0.13382
3901.29210,0.14189
3903.22057,0.13877
3905.14903,0.12831
3907.07750,0.12202
3909.00597,0.12077
3910.93444,0.11810
3912.86291,0.11443
3914.79138,0.11567
3916.71985,0.12242
3918.64832,0.12650
3920.57678,0.12561
3922.50525,0.12509
3924.43372,0.12128
3926.36219,0.11458
3928.29066,0.11620
3930.21913,0.12437
3932.14760,0.12723
3934.07606,0.12232
3936.00453,0.11645
3937.93300,0.11403
3939.86147,0.11445
3941.78994,0.11386
3943.71841,0.11310
3945.64688,0.11659
3947.57535,0.12292
3949.50381,0.12616
3951.43228,0.12416
3953.36075,0.11987
3955.28922,0.11411
3957.21769,0.10860
3959.14616,0.10620
3961.07463,0.10697
3963.00309,0.10838
3964.93156,0.10823
3966.86003,0.10765
3968.78850,0.10750
3970.71697,0.10815
3972.64544,0.10858
3974.57391,0.10624
3976.50238,0.10202
3978.43084,0.09901
3980.35931,0.10116
3982.28778,0.10715
3984.21625,0.10817
3986.14472,0.10306
3988.07319,0.10034
3990.00166,0.10329
3991.93012,0.10716
3993.85859,0.10791
3995.78706,0.10515
3997.71553,0.10031
3999.64400,0.09829
4001.57247,0.10254
4003.50094,0.10684
4005.42941,0.10629
4007.35787,0.10319
4009.28634,0.09949
4011.21481,0.09843
4013.14328,0.10001
4015.07175,0.10082
4017.00022,0.10057
4018.92869,0.10072
4020.85715,0.10246
4022.78562,0.10461
4024.71409,0.10503
4026.64256,0.10258
4028.57103,0.09926
4030.49950,0.09848
4032.42797,0.09763
4034.35644,0.09511
4036.28490,0.09627
4038.21337,0.10066
4040.14184,0.10170
4042.07031,0.09950
4043.99878,0.09776
4045.92725,0.09721
4047.85572,0.09801
4049.78418,0.09987
4051.71265,0.09977
4053.64112,0.09697
4055.56959,0.09455
4057.49806,0.09445
4059.42653,0.09549
4061.35500,0.09454
4063.28346,0.09326
4065.21193,0.09375
4067.14040,0.09364
4069.06887,0.09543
4070.99734,0.09989
4072.92581,0.10099
4074.85428,0.09717
4076.78275,0.09214
4078.71121,0.08854
4080.63968,0.08621
4082.56815,0.08500
4084.49662,0.08750
4086.42509,0.09438
4088.35356,0.09998
4090.28203,0.10068
4092.21049,0.09985
4094.13896,0.09674
4096.06743,0.08856
4097.99590,0.08309
4099.92437,0.08537
4101.85284,0.09099
4103.78131,0.09701
4105.70978,0.09773
4107.63824,0.09245
4109.56671,0.09030
4111.49518,0.09116
4113.42365,0.08938
4115.35212,0.08749
4117.28059,0.08833
4119.20906,0.08887
4121.13752,0.08860
4123.06599,0.08990
4124.99446,0.09028
4126.92293,0.08671
4128.85140,0.08273
4130.77987,0.08368
4132.70834,0.08620
4134.63681,0.08464
4136.56527,0.08077
4138.49374,0.07941
4140.42221,0.08570
4142.35068,0.09219
4144.27915,0.08662
4146.20762,0.07716
4148.13609,0.07375
4150.06455,0.07294
4151.99302,0.07257
4153.92149,0.07433
4155.84996,0.08075
4157.77843,0.09009
4159.70690,0.09248
4161.63537,0.08397
4163.56384,0.07520
4165.49230,0.07346
4167.42077,0.07513
4169.34924,0.07732
4171.27771,0.07980
4173.20618,0.08245
4175.13465,0.08266
4177.06312,0.07741
4178.99158,0.07096
4180.92005,0.06856
4182.84852,0.06988
4184.77699,0.07206
4186.70546,0.07203
4188.63393,0.07005
4190.56240,0.06883
4192.49087,0.07059
4194.41933,0.07590
4196.34780,0.08361
4198.27627,0.08796
4200.20474,0.08049
4202.13321,0.06803
4204.06168,0.06340
4205.99015,0.06447
4207.91861,0.06570
4209.84708,0.06762
4211.77555,0.07080
4213.70402,0.07100
4215.63249,0.06511
4217.56096,0.05783
4219.48943,0.05544
4221.41789,0.05789
4223.34636,0.06110
4225.27483,0.06386
4227.20330,0.06789
4229.13177,0.07370
4231.06024,0.07588
4232.98871,0.07042
4234.91718,0.06327
4236.84564,0.05957
4238.77411,0.05898
4240.70258,0.05831
4242.63105,0.05729
4244.55952,0.06243
4246.48799,0.06869
4248.41646,0.06531
4250.34492,0.06084
4252.27339,0.06213
4254.20186,0.06317
4256.13033,0.06459
4258.05880,0.06700
4259.98727,0.06544
4261.91574,0.05926
4263.84421,0.05226
4265.77267,0.04853
4267.70114,0.04998
4269.62961,0.05524
4271.55808,0.06155
4273.48655,0.06526
4275.41502,0.06437
4277.34349,0.06315
4279.27195,0.06405
4281.20042,0.06374
4283.12889,0.06183
4285.05736,0.05863
4286.98583,0.05434
4288.91430,0.05267
4290.84277,0.05405
4292.77124,0.05807
4294.69970,0.06405
4296.62817,0.06347
4298.55664,0.05455
4300.48511,0.04875
4302.41358,0.05126
4304.34205,0.05641
4306.27052,0.05760
4308.19898,0.05186
4310.12745,0.04276
4312.05592,0.03591
4313.98439,0.03186
4315.91286,0.03260
4317.84133,0.03873
4319.76980,0.04612
4321.69827,0.05129
4323.62673,0.04972
4325.55520,0.04698
4327.48367,0.04974
4329.41214,0.04754
4331.34061,0.03957
4333.26908,0.03865
4335.19755,0.04279
4337.12601,0.04347
4339.05448,0.04282
4340.98295,0.04676
4342.91142,0.05336
4344.83989,0.05283
4346.76836,0.04433
4348.69683,0.03607
4350.62530,0.03334
4352.55376,0.03934
4354.48223,0.04623
4356.41070,0.04296
4358.33917,0.03678
4360.26764,0.03830
4362.19611,0.04198
4364.12458,0.03889
4366.05304,0.03354
4367.98151,0.03501
4369.90998,0.04184
4371.83845,0.04506
4373.76692,0.04171
4375.69539,0.03744
4377.62386,0.03670
4379.55232,0.03526
4381.48079,0.02916
4383.40926,0.02502
4385.33773,0.02627
4387.26620,0.02702
4389.19467,0.02363
4391.12314,0.02069
4393.05161,0.02593
4394.98007,0.03470
4396.90854,0.03411
4398.83701,0.02644
4400.76548,0.02535
4402.69395,0.03065
4404.62242,0.03220
4406.55089,0.02953
4408.47935,0.02591
4410.40782,0.02295
4412.33629,0.02557
4414.26476,0.03238
4416.19323,0.03312
4418.12170,0.02625
4420.05017,0.01770
4421.97864,0.01175
4423.90710,0.01156
4425.83557,0.01310
4427.76404,0.01190
4429.69251,0.01203
4431.62098,0.01342
4433.54945,0.01426
4435.47792,0.02199
4437.40638,0.03280
4439.33485,0.03374
4441.26332,0.02574
4443.19179,0.01616
4445.12026,0.01200
4447.04873,0.01537
4448.97720,0.02230
4450.90567,0.02979
4452.83413,0.03427
4454.76260,0.03253
4456.69107,0.02453
4458.61954,0.01605
4460.54801,0.01324
4462.47648,0.01358
4464.40495,0.01437
4466.33341,0.01837
4468.26188,0.02236
4470.19035,0.02139
4472.11882,0.01887
4474.04729,0.01596
4475.97576,0.01252
4477.90423,0.01364
4479.83270,0.01829
4481.76116,0.01897
4483.68963,0.01601
4485.61810,0.01546
4487.54657,0.01800
4489.47504,0.02167
4491.40351,0.02248
4493.33198,0.01713
4495.26044,0.00926
4497.18891,0.00243
4499.11738,-0.00491
4501.04585,-0.01175
4502.97432,-0.01210
4504.90279,-0.00715
4506.83126,-0.00050
4508.75973,0.00747
4510.68819,0.00961
4512.61666,0.00362
4514.54513,-0.00188
4516.47360,-0.00179
4518.40207,0.00180
4520.33054,0.00883
4522.25901,0.01872
4524.18747,0.01869
4526.11594,0.00624
4528.04441,-0.00247
4529.97288,-0.00232
4531.90135,0.00118
4533.82982,0.00459
4535.75829,0.00501
4537.68676,0.00579
4539.61522,0.00925
4541.54369,0.00839
4543.47216,0.00243
4545.40063,-0.00196
4547.32910,-0.00159
4549.25757,0.00336
4551.18604,0.00806
4553.11450,0.00766
4555.04297,0.00618
4556.97144,0.00877
4558.89991,0.01193
4560.82838,0.01494
4562.75685,0.01791
4564.68532,0.01562
4566.61378,0.00764
4568.54225,-0.00080
4570.47072,-0.00275
4572.39919,0.00291
4574.32766,0.00739
4576.25613,0.00641
4578.18460,0.00288
4580.11307,-0.00282
4582.04153,-0.00666
4583.97000,-0.00204
4585.89847,0.00637
4587.82694,0.00407
4589.75541,-0.01025
4591.68388,-0.01606
4593.61235,-0.01087
4595.54081,-0.01071
4597.46928,-0.01056
4599.39775,-0.00037
4601.32622,0.01212
4603.25469,0.01642
4605.18316,0.01162
4607.11163,0.00581
4609.04010,0.00537
4610.96856,0.00754
4612.89703,0.00687
4614.82550,0.00613
4616.75397,0.00916
4618.68244,0.01026
4620.61091,0.00305
4622.53938,-0.00818
4624.46784,-0.01592
4626.39631,-0.01237
4628.32478,-0.00240
4630.25325,-0.00139
4632.18172,-0.00290
4634.11019,-0.00128
4636.03866,-0.00873
4637.96713,-0.01793
4639.89559,-0.01396
4641.82406,-0.00212
4643.75253,0.01159
4645.68100,0.02457
4647.60947,0.02878
4649.53794,0.01790
4651.46641,-0.00047
4653.39487,-0.01129
4655.32334,-0.01193
4657.25181,-0.00709
4659.18028,0.00018
4661.10875,0.00252
4663.03722,-0.00258
4664.96569,-0.00188
4666.89416,0.00818
4668.82262,0.01528
4670.75109,0.01957
4672.67956,0.02344
4674.60803,0.02323
4676.53650,0.02059
4678.46497,0.01185
4680.39344,-0.00202
4682.32190,-0.00843
4684.25037,-0.00290
4686.17884,0.00665
4688.10731,0.01165
4690.03578,0.01156
4691.96425,0.00940
4693.89272,0.00645
4695.82119,0.00419
4697.74965,0.00597
4699.67812,0.01114
4701.60659,0.01467
4703.53506,0.01174
4705.46353,0.00300
4707.39200,0.00076
4709.32047,0.00622
4711.24893,0.00726
4713.17740,0.00808
4715.10587,0.01517
4717.03434,0.01908
4718.96281,0.01404
4720.89128,0.00657
4722.81975,0.00012
4724.74821,-0.00508
4726.67668,-0.00422
4728.60515,0.00128
4730.53362,0.00649
4732.46209,0.01251
4734.39056,0.01489
4736.31903,0.01129
4738.24750,0.00689
4740.17596,-0.00065
4742.10443,-0.01077
4744.03290,-0.01198
4745.96137,-0.00282
4747.88984,0.00292
4749.81831,-0.00098
4751.74678,-0.00391
4753.67524,0.00181
4755.60371,0.01142
4757.53218,0.01766
4759.46065,0.01377
4761.38912,-0.00089
4763.31759,-0.01245
4765.24606,-0.01004
4767.17453,0.00293
4769.10299,0.01515
4771.03146,0.01350
4772.95993,0.00389
4774.88840,-0.00009
4776.81687,-0.00678
4778.74534,-0.02123
4780.67381,-0.02796
4782.60227,-0.02083
4784.53074,-0.00706
4786.45921,0.00214
4788.38768,-0.00164
4790.31615,-0.00761
4792.24462,-0.00566
4794.17309,-0.00354
4796.10156,-0.00183
4798.03002,0.00365
4799.95849,0.01196
4801.88696,0.01732
4803.81543,0.01347
4805.74390,0.00236
4807.67237,-0.01077
4809.60084,-0.01612
4811.52930,-0.00788
4813.45777,0.00101
4815.38624,0.00439
4817.31471,0.00932
4819.24318,0.00975
4821.17165,0.00386
4823.10012,0.00399
4825.02859,0.01187
4826.95705,0.01135
4828.88552,0.00008
4830.81399,-0.00444
4832.74246,0.00083
4834.67093,0.00427
4836.59940,0.00644
4838.52787,0.00863
4840.45633,0.01336
4842.38480,0.02301
4844.31327,0.01888
4846.24174,-0.00371
4848.17021,-0.01978
4850.09868,-0.01693
4852.02715,-0.00714
4853.95562,0.00381
4855.88408,0.01600
4857.81255,0.02003
4859.74102,0.01192
4861.66949,0.00083
4863.59796,-0.00439
4865.52643,-0.00522
4867.45490,-0.00058
4869.38336,0.01002
4871.31183,0.01496
4873.24030,0.00606
4875.16877,-0.00659
4877.09724,-0.00482
4879.02571,0.00727
4880.95418,0.00911
4882.88265,0.00575
4884.81111,0.01032
4886.73958,0.00887
4888.66805,-0.00112
4890.59652,-0.00032
4892.52499,0.01116
4894.45346,0.01467
4896.38193,-0.00011
4898.31039,-0.01354
4900.23886,-0.00532
4902.16733,0.00560
4904.09580,0.00093
4906.02427,-0.00392
4907.95274,0.00513
4909.88121,0.01662
4911.80967,0.01808
4913.73814,0.01376
4915.66661,0.00657
4917.59508,-0.00038
4919.52355,0.00728
4921.45202,0.02167
4923.38049,0.01583
4925.30896,0.00025
4927.23742,0.00173
4929.16589,0.00362
4931.09436,-0.00831
4933.02283,-0.01052
4934.95130,-0.00098
4936.87977,0.00550
4938.80824,0.00894
4940.73670,0.00639
4942.66517,0.00030
4944.59364,-0.00057
4946.52211,0.00224
4948.45058,0.00636
4950.37905,0.01650
4952.30752,0.03173
4954.23599,0.03694
4956.16445,0.02657
4958.09292,0.01315
4960.02139,0.00271
4961.94986,0.00395
4963.87833,0.01828
4965.80680,0.02022
4967.73527,0.00790
4969.66373,0.00804
4971.59220,0.01544
4973.52067,0.01142
4975.44914,0.00461
4977.37761,-0.00140
4979.30608,-0.00879
4981.23455,-0.00852
4983.16302,-0.00456
4985.09148,-0.00590
4987.01995,-0.00377
4988.94842,0.01070
4990.87689,0.02262
4992.80536,0.02031
4994.73383,0.01234
4996.66230,0.00610
4998.59076,0.00711
5000.51923,0.01658
5002.44770,0.02904
5004.37617,0.03204
5006.30464,0.01800
5008.23311,0.00776
5010.16158,0.01435
5012.09005,0.01188
5014.01851,-0.00421
5015.94698,-0.00279
5017.87545,0.01482
5019.80392,0.02074
5021.73239,0.01211
5023.66086,0.00443
5025.58933,0.00164
5027.51779,0.00365
5029.44626,0.00819
5031.37473,0.00960
5033.30320,0.01186
5035.23167,0.01098
5037.16014,0.00742
5039.08861,0.01038
5041.01708,0.01233
5042.94554,0.00828
5044.87401,0.00063
5046.80248,-0.00483
5048.73095,0.00226
5050.65942,0.01826
5052.58789,0.02301
5054.51636,0.01446
5056.44482,0.01391
5058.37329,0.02244
5060.30176,0.02407
5062.23023,0.01427
5064.15870,0.00822
5066.08717,0.02036
5068.01564,0.04113
5069.94410,0.05326
5071.87257,0.04787
5073.80104,0.03342
5075.72951,0.01957
5077.65798,0.00428
5079.58645,0.00004
5081.51492,0.01495
5083.44339,0.02848
5085.37185,0.02862
5087.30032,0.02490
5089.22879,0.02361
5091.15726,0.02463
5093.08573,0.02294
5095.01420,0.01337
5096.94267,0.00295
5098.87113,0.00005
5100.79960,-0.00046
5102.72807,-0.00523
5104.65654,-0.00521
5106.58501,0.00470
5108.51348,0.01595
5110.44195,0.02248
5112.37042,0.02043
5114.29888,0.01629
5116.22735,0.01725
5118.15582,0.01191
5120.08429,-0.00380
5122.01276,-0.00937
5123.94123,0.00824
5125.86970,0.02747
5127.79816,0.02778
5129.72663,0.02208
5131.65510,0.02271
5133.58357,0.02596
5135.51204,0.02448
5137.44051,0.02183
5139.36898,0.02877
5141.29745,0.03881
5143.22591,0.04912
5145.15438,0.05203
5147.08285,0.03790
5149.01132,0.03502
5150.93979,0.04513
5152.86826,0.04213
5154.79673,0.03700
5156.72519,0.03377
5158.65366,0.03060
5160.58213,0.04901
5162.51060,0.07749
5164.43907,0.08320
5166.36754,0.07046
5168.29601,0.05746
5170.22448,0.04447
5172.15294,0.03581
5174.08141,0.04364
5176.00988,0.05617
5177.93835,0.05710
5179.86682,0.05299
5181.79529,0.04825
5183.72376,0.03447
5185.65222,0.01703
5187.58069,0.01318
5189.50916,0.01670
5191.43763,0.02415
5193.36610,0.04748
5195.29457,0.07013
5197.22304,0.06275
5199.15151,0.03362
5201.07997,0.01278
5203.00844,0.00429
5204.93691,0.00292
5206.86538,0.01658
5208.79385,0.03950
5210.72232,0.03977
5212.65079,0.01431
5214.57925,-0.00117
5216.50772,0.00255
5218.43619,0.01149
5220.36466,0.02180
5222.29313,0.01655
5224.22160,-0.00508
5226.15007,-0.01009
5228.07854,0.00780
5230.00700,0.02042
5231.93547,0.01848
5233.86394,0.01540
5235.79241,0.02230
5237.72088,0.03011
5239.64935,0.02830
5241.57782,0.02441
5243.50628,0.02409
5245.43475,0.02880
5247.36322,0.04655
5249.29169,0.06772
5251.22016,0.07321
5253.14863,0.07234
5255.07710,0.07419
5257.00556,0.07100
5258.93403,0.07130
5260.86250,0.08896
5262.79097,0.10919
5264.71944,0.10124
5266.64791,0.06648
5268.57638,0.04406
5270.50485,0.05039
5272.43331,0.05512
5274.36178,0.04513
5276.29025,0.04163
5278.21872,0.04402
5280.14719,0.03770
5282.07566,0.03563
5284.00413,0.04611
5285.93259,0.04757
5287.86106,0.03945
5289.78953,0.03820
5291.71800,0.03748
5293.64647,0.03404
5295.57494,0.03552
5297.50341,0.04060
5299.43188,0.04484
5301.36034,0.04774
5303.28881,0.05140
5305.21728,0.05858
5307.14575,0.06936
5309.07422,0.07898
5311.00269,0.07604
5312.93116,0.05413
5314.85962,0.03490
5316.78809,0.03856
5318.71656,0.04889
5320.64503,0.05217
5322.57350,0.05767
5324.50197,0.07050
5326.43044,0.06161
5328.35891,0.02242
5330.28737,0.01299
5332.21584,0.04583
5334.14431,0.07317
5336.07278,0.07764
5338.00125,0.06460
5339.92972,0.05226
5341.85819,0.05940
5343.78665,0.05890
5345.71512,0.03817
5347.64359,0.04405
5349.57206,0.06658
5351.50053,0.05606
5353.42900,0.02340
5355.35747,0.01093
5357.28594,0.01552
5359.21440,0.02624
5361.14287,0.04535
5363.07134,0.06250
5364.99981,0.06139
5366.92828,0.05448
5368.85675,0.06151
5370.78522,0.07377
5372.71368,0.08486
5374.64215,0.09606
5376.57062,0.09124
5378.49909,0.06892
5380.42756,0.04921
5382.35603,0.03381
5384.28450,0.02875
5386.21297,0.05788
5388.14143,0.09765
5390.06990,0.09858
5391.99837,0.06385
5393.92684,0.03519
5395.85531,0.03183
5397.78378,0.03466
5399.71225,0.05643
5401.64071,0.09516
5403.56918,0.10188
5405.49765,0.08121
5407.42612,0.07714
5409.35459,0.08504
5411.28306,0.09120
5413.21153,0.10271
5415.13999,0.10848
5417.06846,0.08705
5418.99693,0.04619
5420.92540,0.03014
5422.85387,0.05218
5424.78234,0.06918
5426.71081,0.07386
5428.63928,0.08717
5430.56774,0.08408
5432.49621,0.05507
5434.42468,0.03844
5436.35315,0.05474
5438.28162,0.08499
5440.21009,0.09961
5442.13856,0.09121
5444.06702,0.08356
5445.99549,0.08071
5447.92396,0.08034
5449.85243,0.08259
5451.78090,0.07672
5453.70937,0.06401
5455.63784,0.04868
5457.56631,0.04134
5459.49477,0.05328
5461.42324,0.06959
5463.35171,0.07698
5465.28018,0.07586
5467.20865,0.05916
5469.13712,0.04205
5471.06559,0.05459
5472.99405,0.07987
5474.92252,0.07426
5476.85099,0.04083
5478.77946,0.04020
5480.70793,0.06942
5482.63640,0.07803
5484.56487,0.06503
5486.49334,0.06345
5488.42180,0.08494
5490.35027,0.10519
5492.27874,0.09342
5494.20721,0.06158
5496.13568,0.04825
5498.06415,0.06406
5499.99262,0.08329
5501.92108,0.07727
5503.84955,0.06338
5505.77802,0.05952
5507.70649,0.04081
5509.63496,0.00810
5511.56343,0.00461
5513.49190,0.03916
5515.42037,0.07854
5517.34883,0.10442
5519.27730,0.11824
5521.20577,0.11232
5523.13424,0.08757
5525.06271,0.06933
5526.99118,0.07955
5528.91965,0.10892
5530.84811,0.12604
5532.77658,0.12758
5534.70505,0.12901
5536.63352,0.12092
5538.56199,0.09721
5540.49046,0.07194
5542.41893,0.06290
5544.34740,0.07703
5546.27586,0.09445
5548.20433,0.09365
5550.13280,0.07583
5552.06127,0.05554
5553.98974,0.05472
5555.91821,0.07776
5557.84668,0.09880
5559.77514,0.10446
5561.70361,0.10466
5563.63208,0.09739
5565.56055,0.08781
5567.48902,0.09967
5569.41749,0.11389
5571.34596,0.09426
5573.27443,0.06208
5575.20289,0.05000
5577.13136,0.05946
5579.05983,0.08142
5580.98830,0.09225
5582.91677,0.08553
5584.84524,0.08103
5586.77371,0.08499
5588.70217,0.08967
5590.63064,0.08060
5592.55911,0.07040
5594.48758,0.07401
5596.41605,0.06626
5598.34452,0.05121
5600.27299,0.05372
5602.20145,0.05334
5604.12992,0.04629
5606.05839,0.05733
5607.98686,0.08666
5609.91533,0.11321
5611.84380,0.12300
5613.77227,0.11865
5615.70074,0.10043
5617.62920,0.08047
5619.55767,0.07591
5621.48614,0.08213
5623.41461,0.09147
5625.34308,0.09289
5627.27155,0.08254
5629.20002,0.07670
5631.12848,0.08077
5633.05695,0.07722
5634.98542,0.05832
5636.91389,0.04851
5638.84236,0.06445
5640.77083,0.08577
5642.69930,0.08446
5644.62777,0.06994
5646.55623,0.07269
5648.48470,0.08310
5650.41317,0.07789
5652.34164,0.07057
5654.27011,0.07694
5656.19858,0.08754
5658.12705,0.09752
5660.05551,0.09953
5661.98398,0.08347
5663.91245,0.07139
5665.84092,0.06112
5667.76939,0.03694
5669.69786,0.03632
5671.62633,0.06394
5673.55480,0.07413
5675.48326,0.07146
5677.41173,0.08397
5679.34020,0.10680
5681.26867,0.12790
5683.19714,0.12983
5685.12561,0.09647
5687.05408,0.05483
5688.98254,0.03928
5690.91101,0.04235
5692.83948,0.06392
5694.76795,0.10583
5696.69642,0.13061
5698.62489,0.11540
5700.55336,0.09700
5702.48183,0.11078
5704.41029,0.11693
5706.33876,0.08156
5708.26723,0.05229
5710.19570,0.05918
5712.12417,0.07008
5714.05264,0.06973
5715.98111,0.07531
5717.90957,0.08909
5719.83804,0.09703
5721.76651,0.08564
5723.69498,0.06777
5725.62345,0.06909
5727.55192,0.07894
5729.48039,0.07190
5731.40886,0.05027
5733.33732,0.04176
5735.26579,0.05777
5737.19426,0.07567
5739.12273,0.09254
5741.05120,0.11995
5742.97967,0.13103
5744.90814,0.10247
5746.83660,0.07816
5748.76507,0.09525
5750.69354,0.12411
5752.62201,0.14226
5754.55048,0.14027
5756.47895,0.11834
5758.40742,0.10426
5760.33588,0.09042
5762.26435,0.04964
5764.19282,0.01723
5766.12129,0.04360
5768.04976,0.09772
5769.97823,0.12437
5771.90670,0.11317
5773.83517,0.07105
5775.76363,0.02582
5777.69210,0.03015
5779.62057,0.07061
5781.54904,0.09397
5783.47751,0.09736
5785.40598,0.07889
5787.33445,0.04976
5789.26291,0.05556
5791.19138,0.10233
5793.11985,0.14292
5795.04832,0.13756
5796.97679,0.10008
5798.90526,0.06675
5800.83373,0.05294
5802.76220,0.06373
5804.69066,0.09351
5806.61913,0.11751
5808.54760,0.10798
5810.47607,0.07660
5812.40454,0.07278
5814.33301,0.09019
5816.26148,0.08415
5818.18994,0.07217
5820.11841,0.06974
5822.04688,0.07389
5823.97535,0.09967
5825.90382,0.11710
5827.83229,0.10295
5829.76076,0.09094
5831.68923,0.10041
5833.61769,0.11391
5835.54616,0.13623
5837.47463,0.16819
5839.40310,0.16645
5841.33157,0.11214
5843.26004,0.04402
5845.18851,0.02127
5847.11697,0.05110
5849.04544,0.08785
5850.97391,0.11144
5852.90238,0.11805
5854.83085,0.10414
5856.75932,0.08596
5858.68779,0.06714
5860.61626,0.04392
5862.54472,0.04381
5864.47319,0.08718
5866.40166,0.12168
5868.33013,0.09206
5870.25860,0.04370
5872.18707,0.03567
5874.11554,0.05373
5876.04400,0.07375
5877.97247,0.08132
5879.90094,0.07045
5881.82941,0.07236
5883.75788,0.08608
5885.68635,0.08234
5887.61482,0.07444
5889.54329,0.08096
5891.47175,0.09230
5893.40022,0.09639
5895.32869,0.09900
5897.25716,0.10623
5899.18563,0.10957
5901.11410,0.09835
5903.04257,0.06796
5904.97103,0.04669
5906.89950,0.06588
5908.82797,0.10146
5910.75644,0.10241
5912.68491,0.05078
5914.61338,-0.00522
5916.54185,-0.00793
5918.47032,0.03831
5920.39878,0.10843
5922.32725,0.16505
5924.25572,0.18133
5926.18419,0.16920
5928.11266,0.15430
5930.04113,0.14832
5931.96960,0.12095
5933.89806,0.07296
5935.82653,0.05941
5937.75500,0.07691
5939.68347,0.07659
5941.61194,0.06093
5943.54041,0.06346
5945.46888,0.07575
5947.39734,0.08479
5949.32581,0.07880
5951.25428,0.05998
5953.18275,0.07059
5955.11122,0.08592
5957.03969,0.07702
5958.96816,0.07517
5960.89663,0.06941
5962.82509,0.04792
5964.75356,0.05617
5966.68203,0.09976
5968.61050,0.12230
5970.53897,0.11101
5972.46744,0.08729
5974.39591,0.04356
5976.32437,0.00951
5978.25284,0.03340
5980.18131,0.08635
5982.10978,0.12152
5984.03825,0.13964
5985.96672,0.14008
5987.89519,0.13578
5989.82366,0.14792
5991.75212,0.13077
5993.68059,0.05484
5995.60906,0.00193
5997.53753,0.01182
5999.46600,0.02027
6001.39447,0.03138
6003.32294,0.05246
6005.25140,0.05684
6007.17987,0.07322
6009.10834,0.09874
6011.03681,0.09411
6012.96528,0.06831
6014.89375,0.06005
6016.82222,0.08085
6018.75069,0.08784
6020.67915,0.06471
6022.60762,0.04689
6024.53609,0.03895
6026.46456,0.03982
6028.39303,0.06647
6030.32150,0.10748
6032.24997,0.13082
6034.17843,0.12418
6036.10690,0.10575
6038.03537,0.10518
6039.96384,0.11799
6041.89231,0.12668
6043.82078,0.12648
6045.74925,0.10941
6047.67772,0.07880
6049.60618,0.04884
6051.53465,0.02409
6053.46312,0.01389
6055.39159,0.03329
6057.32006,0.07512
6059.24853,0.11636
6061.17700,0.14779
6063.10546,0.14535
6065.03393,0.09430
6066.96240,0.03532
6068.89087,0.00091
6070.81934,0.01754
6072.74781,0.08195
6074.67628,0.12110
6076.60475,0.10105
6078.53321,0.07000
6080.46168,0.05432
6082.39015,0.05049
6084.31862,0.06038
6086.24709,0.06564
6088.17556,0.05408
6090.10403,0.05543
6092.03249,0.08625
6093.96096,0.13030
6095.88943,0.15777
6097.81790,0.13505
6099.74637,0.07690
6101.67484,0.05472
6103.60331,0.08425
6105.53177,0.11973
6107.46024,0.12387
6109.38871,0.08568
6111.31718,0.05047
6113.24565,0.05008
6115.17412,0.07096
6117.10259,0.11224
6119.03106,0.14491
6120.95952,0.13107
6122.88799,0.09475
6124.81646,0.06306
6126.74493,0.04431
6128.67340,0.03550
6130.60187,0.03611
6132.53034,0.04449
6134.45880,0.04072
6136.38727,0.03908
6138.31574,0.07024
6140.24421,0.10431
6142.17268,0.09537
6144.10115,0.06154
6146.02962,0.03685
6147.95809,0.02781
6149.88655,0.05355
6151.81502,0.11889
6153.74349,0.14518
6155.67196,0.08634
6157.60043,0.02242
6159.52890,0.01439
6161.45737,0.04922
6163.38583,0.07754
6165.31430,0.05642
6167.24277,0.00650
6169.17124,-0.02039
6171.09971,0.02525
6173.02818,0.10814
6174.95665,0.12888
6176.88512,0.07298
6178.81358,0.00802
6180.74205,-0.00838
6182.67052,0.01896
6184.59899,0.07700
6186.52746,0.14943
6188.45593,0.17740
6190.38440,0.13904
6192.31286,0.08477
6194.24133,0.06804
6196.16980,0.10551
6198.09827,0.15732
6200.02674,0.17766
6201.95521,0.17534
6203.88368,0.16790
6205.81215,0.14975
6207.74061,0.11771
6209.66908,0.07604
6211.59755,0.03451
6213.52602,0.00808
6215.45449,0.01745
6217.38296,0.05545
6219.31143,0.08559
6221.23989,0.07880
6223.16836,0.04061
6225.09683,0.03606
6227.02530,0.07746
6228.95377,0.10593
6230.88224,0.10460
6232.81071,0.07480
6234.73918,0.02835
6236.66764,0.00771
6238.59611,0.03488
6240.52458,0.08240
6242.45305,0.08437
6244.38152,0.03089
6246.30999,0.00788
6248.23846,0.03788
6250.16692,0.06663
6252.09539,0.09419
6254.02386,0.15177
6255.95233,0.20385
6257.88080,0.18114
6259.80927,0.11483
6261.73774,0.06386
6263.66621,0.01902
6265.59467,0.00890
6267.52314,0.05265
6269.45161,0.09017
6271.38008,0.11179
6273.30855,0.12365
6275.23702,0.10090
6277.16549,0.04933
6279.09395,0.00590
6281.02242,-0.01161
6282.95089,-0.02116
6284.87936,-0.01876
6286.80783,0.01888
6288.73630,0.07097
6290.66477,0.09241
6292.59323,0.07538
6294.52170,0.06780
6296.45017,0.09516
6298.37864,0.12852
6300.30711,0.11627
6302.23558,0.05174
6304.16405,0.02331
6306.09252,0.04538
6308.02098,0.04288
6309.94945,0.01449
6311.87792,0.02629
6313.80639,0.07810
6315.73486,0.09154
6317.66333,0.05514
6319.59180,0.03085
6321.52026,0.02650
6323.44873,0.01950
6325.37720,0.03872
6327.30567,0.10254
6329.23414,0.16404
6331.16261,0.16244
6333.09108,0.11009
6335.01955,0.08033
6336.94801,0.08844
6338.87648,0.08470
6340.80495,0.05213
6342.73342,0.02398
6344.66189,0.01880
6346.59036,0.01547
6348.51883,0.02955
6350.44729,0.10027
6352.37576,0.16345
6354.30423,0.11662
6356.23270,-0.00632
6358.16117,-0.06041
6360.08964,0.00344
6362.01811,0.07324
6363.94658,0.10083
6365.87504,0.11667
6367.80351,0.12177
6369.73198,0.10856
6371.66045,0.07414
6373.58892,0.03589
6375.51739,0.01944
6377.44586,0.03858
6379.37432,0.07359
6381.30279,0.08633
6383.23126,0.09348
6385.15973,0.10863
6387.08820,0.10172
6389.01667,0.08861
6390.94514,0.08601
6392.87361,0.08021
6394.80207,0.09051
6396.73054,0.11968
6398.65901,0.14072
6400.58748,0.15191
6402.51595,0.14165
6404.44442,0.12905
6406.37289,0.14399
6408.30135,0.14014
6410.22982,0.09838
6412.15829,0.07635
6414.08676,0.11494
6416.01523,0.16205
6417.94370,0.15343
6419.87217,0.14279
6421.80064,0.16073
6423.72910,0.15516
6425.65757,0.12207
6427.58604,0.09628
6429.51451,0.10035
6431.44298,0.10016
6433.37145,0.08790
6435.29992,0.11532
6437.22838,0.12448
6439.15685,0.06902
6441.08532,0.02168
6443.01379,-0.02073
6444.94226,-0.03321
6446.87073,0.04458
6448.79920,0.12021
6450.72766,0.10601
6452.65613,0.04129
6454.58460,-0.01794
6456.51307,-0.00950
6458.44154,0.07555
6460.37001,0.12561
6462.29848,0.07800
6464.22695,0.00242
6466.15541,-0.02015
6468.08388,-0.00153
6470.01235,0.02683
6471.94082,0.06814
6473.86929,0.07929
6475.79776,0.05210
6477.72623,0.04808
6479.65469,0.05047
6481.58316,0.03746
6483.51163,0.04794
6485.44010,0.08044
6487.36857,0.09770
6489.29704,0.06920
6491.22551,0.01926
6493.15398,0.02789
6495.08244,0.08638
6497.01091,0.09712
6498.93938,0.06928
6500.86785,0.08173
6502.79632,0.12186
6504.72479,0.13491
6506.65326,0.13358
6508.58172,0.12358
6510.51019,0.08126
6512.43866,0.04798
6514.36713,0.05986
6516.29560,0.08457
6518.22407,0.10300
6520.15254,0.11719
6522.08101,0.14482
6524.00947,0.13951
6525.93794,0.04131
6527.86641,-0.04609
6529.79488,-0.02998
6531.72335,0.04188
6533.65182,0.08454
6535.58029,0.06633
6537.50875,0.02954
6539.43722,0.04439
6541.36569,0.11697
6543.29416,0.16448
6545.22263,0.14176
6547.15110,0.09978
6549.07957,0.07186
6551.00804,0.03333
6552.93650,-0.03086
6554.86497,-0.06342
6556.79344,-0.02505
6558.72191,0.02546
6560.65038,0.03995
6562.57885,0.05830
6564.50732,0.10086
6566.43578,0.12669
6568.36425,0.12245
6570.29272,0.07942
6572.22119,-0.00229
6574.14966,-0.05334
6576.07813,-0.06071
6578.00660,-0.06943
6579.93507,-0.05130
6581.86353,0.00221
6583.79200,0.03140
6585.72047,0.02378
6587.64894,0.01326
6589.57741,0.03517
6591.50588,0.11373
6593.43435,0.20470
6595.36281,0.19621
6597.29128,0.12971
6599.21975,0.13229
6601.14822,0.15499
6603.07669,0.10343
6605.00516,0.05646
6606.93363,0.06367
6608.86210,0.08758
6610.79056,0.10254
6612.71903,0.08987
6614.64750,0.08001
6616.57597,0.10793
6618.50444,0.10013
6620.43291,0.05352
6622.36138,0.05351
6624.28984,0.09550
6626.21831,0.12634
6628.14678,0.14005
6630.07525,0.13486
6632.00372,0.08225
6633.93219,0.02957
6635.86066,0.03535
6637.78912,0.03954
6639.71759,0.03065
6641.64606,0.02822
6643.57453,0.03612
6645.50300,0.10213
6647.43147,0.12912
6649.35994,0.05057
6651.28841,0.03071
6653.21687,0.10136
6655.14534,0.11969
6657.07381,0.07527
6659.00228,0.09856
6660.93075,0.17397
6662.85922,0.17623
6664.78769,0.11465
6666.71615,0.05967
6668.64462,-0.01984
6670.57309,-0.10298
6672.50156,-0.07707
6674.43003,0.01340
6676.35850,0.04041
6678.28697,0.01668
6680.21544,0.00972
6682.14390,0.00435
6684.07237,-0.03656
6686.00084,-0.05747
6687.92931,0.00465
6689.85778,0.07704
6691.78625,0.07895
6693.71472,0.06463
6695.64318,0.06048
6697.57165,0.04381
6699.50012,0.06125
6701.42859,0.15223
6703.35706,0.19997
6705.28553,0.11785
6707.21400,0.02926
6709.14247,0.06631
6711.07093,0.16198
6712.99940,0.18498
6714.92787,0.14220
6716.85634,0.12559
6718.78481,0.13876
6720.71328,0.15718
6722.64175,0.14842
6724.57021,0.09840
6726.49868,0.10450
6728.42715,0.13546
6730.35562,0.08034
6732.28409,0.01509
6734.21256,0.01067
6736.14103,0.00685
6738.06950,-0.02318
6739.99796,-0.05669
6741.92643,-0.07742
6743.85490,-0.06967
6745.78337,-0.03693
6747.71184,-0.00504
6749.64031,-0.01032
6751.56878,-0.01154
6753.49724,0.05850
6755.42571,0.12135
6757.35418,0.14763
6759.28265,0.18967
6761.21112,0.19821
6763.13959,0.14121
6765.06806,0.05230
6766.99653,-0.03066
6768.92499,-0.08984
6770.85346,-0.07807
6772.78193,0.06045
6774.71040,0.17596
6776.63887,0.11047
6778.56734,0.01541
6780.49581,0.00336
6782.42427,0.02249
6784.35274,0.05054
6786.28121,0.05409
6788.20968,-0.00227
6790.13815,-0.04158
6792.06662,0.04597
6793.99509,0.16933
6795.92355,0.20012
6797.85202,0.15987
6799.78049,0.09655
6801.70896,0.05080
6803.63743,0.04199
6805.56590,0.03792
6807.49437,-0.00787
6809.42284,-0.07853
6811.35130,-0.06110
6813.27977,0.02121
6815.20824,0.04617
6817.13671,0.04797
6819.06518,0.03264
6820.99365,-0.01746
6822.92212,-0.03678
6824.85058,-0.01337
6826.77905,0.01137
6828.70752,0.02654
6830.63599,0.01598
6832.56446,0.02354
6834.49293,0.05576
6836.42140,0.06517
6838.34987,0.07400
6840.27833,0.10746
6842.20680,0.10228
6844.13527,0.03424
6846.06374,-0.02250
6847.99221,-0.05120
6849.92068,-0.04464
6851.84915,-0.00660
6853.77761,0.00271
6855.70608,0.03679
6857.63455,0.09266
6859.56302,0.13221
6861.49149,0.17349
6863.41996,0.18664
6865.34843,0.09404
6867.27690,-0.06901
6869.20536,-0.11647
6871.13383,-0.08937
6873.06230,-0.10244
6874.99077,-0.09033
6876.91924,-0.05839
6878.84771,-0.04015
6880.77618,0.00414
6882.70464,0.02428
6884.63311,0.01100
6886.56158,0.05441
6888.49005,0.12209
6890.41852,0.08959
6892.34699,-0.03270
6894.27546,-0.07568
6896.20393,0.03522
6898.13239,0.13477
6900.06086,0.07158
6901.98933,-0.04441
6903.91780,-0.07614
6905.84627,-0.01450
6907.77474,0.04472
6909.70321,0.07018
6911.63167,0.09594
6913.56014,0.14736
6915.48861,0.18255
6917.41708,0.22188
6919.34555,0.33489
6921.27402,0.37489
6923.20249,0.23449
6925.13096,0.06499
6927.05942,-0.01455
6928.98789,-0.01909
6930.91636,-0.00024
6932.84483,-0.00289
6934.77330,-0.03485
6936.70177,-0.04198
6938.63024,0.01664
6940.55870,0.10225
6942.48717,0.12952
6944.41564,0.12255
6946.34411,0.10978
6948.27258,0.09898
6950.20105,0.09943
6952.12952,0.07759
6954.05799,0.05596
6955.98645,0.09720
6957.91492,0.14415
6959.84339,0.12333
6961.77186,0.09176
6963.70033,0.10524
6965.62880,0.12650
6967.55727,0.13893
6969.48573,0.14724
6971.41420,0.16443
6973.34267,0.26633
6975.27114,0.39870
6977.19961,0.38592
6979.12808,0.27851
6981.05655,0.15785
6982.98501,0.04884
6984.91348,0.00768
6986.84195,0.01071
6988.77042,-0.00426
6990.69889,-0.03577
6992.62736,-0.00862
6994.55583,0.09846
6996.48430,0.18168
6998.41276,0.12313
7000.34123,-0.02385
7002.26970,-0.09258
7004.19817,-0.09718
7006.12664,-0.13311
7008.05511,-0.18217
7009.98358,-0.21348
7011.91204,-0.17094
7013.84051,-0.04027
7015.76898,0.03843
7017.69745,0.07277
7019.62592,0.13285
7021.55439,0.20369
7023.48286,0.23826
7025.41133,0.17609
7027.33979,0.09041
7029.26826,0.05100
7031.19673,0.03592
7033.12520,0.10375
7035.05367,0.23626
7036.98214,0.24389
7038.91061,0.11257
7040.83907,-0.02805
7042.76754,-0.08376
7044.69601,-0.00184
7046.62448,0.08251
7048.55295,0.05567
7050.48142,0.04396
7052.40989,0.08126
7054.33836,0.04625
7056.26682,-0.09309
7058.19529,-0.17113
7060.12376,-0.06424
7062.05223,0.06587
7063.98070,0.04773
7065.90917,-0.04777
7067.83764,-0.07672
7069.76610,-0.02344
7071.69457,0.06745
7073.62304,0.16185
7075.55151,0.24186
7077.47998,0.23764
7079.40845,0.10990
7081.33692,-0.02806
7083.26539,-0.03591
7085.19385,0.00984
7087.12232,0.03017
7089.05079,0.04331
7090.97926,0.05427
7092.90773,0.02895
7094.83620,-0.02716
7096.76467,-0.08012
7098.69313,-0.06895
7100.62160,0.03491
7102.55007,0.13722
7104.47854,0.14900
7106.40701,0.07025
7108.33548,-0.00518
7110.26395,0.00213
7112.19242,0.06175
7114.12088,0.07544
7116.04935,0.08229
7117.97782,0.19184
7119.90629,0.28301
7121.83476,0.27152
7123.76323,0.22563
7125.69170,0.11366
7127.62016,-0.04086
7129.54863,-0.10699
7131.47710,-0.07559
7133.40557,-0.00647
7135.33404,0.06211
7137.26251,0.07765
7139.19098,0.03091
7141.11944,-0.01538
7143.04791,-0.06310
7144.97638,-0.12000
7146.90485,-0.12732
7148.83332,-0.15159
7150.76179,-0.22234
7152.69026,-0.22589
7154.61873,-0.09116
7156.54719,0.03654
7158.47566,0.05681
7160.40413,0.06233
7162.33260,0.06038
7164.26107,0.03736
7166.18954,0.11154
7168.11801,0.27692
7170.04647,0.37575
7171.97494,0.27940
7173.90341,0.07834
7175.83188,-0.02682
7177.76035,0.00182
7179.68882,-0.01354
7181.61729,-0.10560
7183.54576,-0.04687
7185.47422,0.13951
7187.40269,0.20927
7189.33116,0.18770
7191.25963,0.21100
7193.18810,0.25947
7195.11657,0.14724
7197.04504,-0.09250
7198.97350,-0.17943
7200.90197,-0.08495
7202.83044,0.00601
7204.75891,0.02139
7206.68738,-0.01504
7208.61585,-0.08912
7210.54432,-0.13287
7212.47279,-0.07856
7214.40125,0.00001
7216.32972,-0.03278
7218.25819,-0.14101
7220.18666,-0.08048
7222.11513,0.09476
7224.04360,0.16479
7225.97207,0.10885
7227.90053,0.13190
7229.82900,0.18456
7231.75747,0.07960
7233.68594,-0.02471
7235.61441,0.01862
7237.54288,0.14674
7239.47135,0.23858
7241.39982,0.17444
7243.32828,0.03011
7245.25675,0.07010
7247.18522,0.20588
7249.11369,0.25562
7251.04216,0.19976
7252.97063,0.15001
7254.89910,0.14996
7256.82756,0.12546
7258.75603,0.09610
7260.68450,0.14411
7262.61297,0.22366
7264.54144,0.15201
7266.46991,0.06889
7268.39838,0.10711
7270.32685,0.12337
7272.25531,0.00290
7274.18378,-0.11255
7276.11225,-0.09696
7278.04072,0.02554
7279.96919,0.21604
7281.89766,0.27016
7283.82613,0.18318
7285.75459,0.12795
7287.68306,0.11243
7289.61153,0.05688
7291.54000,-0.02900
7293.46847,-0.06526
7295.39694,-0.04984
7297.32541,0.01000
7299.25387,0.03344
7301.18234,-0.04013
7303.11081,-0.05268
7305.03928,0.06047
7306.96775,0.11318
7308.89622,0.13165
7310.82469,0.28769
7312.75316,0.40383
7314.68162,0.25737
7316.61009,0.00294
7318.53856,0.04114
7320.46703,0.14438
7322.39550,0.06354
7324.32397,0.06899
7326.25244,0.26186
7328.18090,0.38210
7330.10937,0.21116
7332.03784,-0.07744
7333.96631,-0.24855
7335.89478,-0.28522
7337.82325,-0.20990
7339.75172,0.05335
7341.68019,0.19216
7343.60865,0.07772
7345.53712,0.06530
7347.46559,0.15506
7349.39406,0.22861
7351.32253,0.30402
7353.25100,0.30940
7355.17947,0.29555
7357.10793,0.37338
7359.03640,0.43815
7360.96487,0.30851
7362.89334,0.10492
7364.82181,0.05249
7366.75028,0.06220
7368.67875,-0.03314
7370.60722,-0.08668
7372.53568,-0.00836
7374.46415,0.10525
7376.39262,0.15475
7378.32109,0.20383
7380.24956,0.33427
7382.17803,0.43802
7384.10650,0.42003
7386.03496,0.32789
7387.96343,0.17446
7389.89190,0.11842
7391.82037,0.26669
7393.74884,0.43573
7395.67731,0.44756
7397.60578,0.36813
7399.53425,0.28647
7401.46271,0.19095
7403.39118,0.05776
7405.31965,-0.00583
7407.24812,0.11732
7409.17659,0.28731
7411.10506,0.32380
7413.03353,0.28364
7414.96199,0.22135
7416.89046,0.03656
7418.81893,-0.22257
7420.74740,-0.29011
7422.67587,-0.21035
7424.60434,-0.17846
7426.53281,-0.21489
7428.46128,-0.22108
7430.38974,-0.12111
7432.31821,-0.02522
7434.24668,-0.00240
7436.17515,0.07849
7438.10362,0.23880
7440.03209,0.27929
7441.96056,0.17933
7443.88902,0.09499
7445.81749,0.08009
7447.74596,0.14062
7449.67443,0.23256
7451.60290,0.20980
7453.53137,0.07468
7455.45984,0.01041
7457.38831,0.06309
7459.31677,0.20992
7461.24524,0.30566
7463.17371,0.22148
7465.10218,0.08296
7467.03065,-0.01957
7468.95912,-0.04483
7470.88759,0.06849
7472.81605,0.19209
7474.74452,0.21241
7476.67299,0.16408
7478.60146,0.06029
7480.52993,-0.01159
7482.45840,-0.01255
7484.38687,-0.01009
7486.31533,-0.05135
7488.24380,-0.06688
7490.17227,0.00962
7492.10074,0.08156
7494.02921,0.12332
7495.95768,0.23560
7497.88615,0.41209
