399.19301,1.72463
401.12148,0.91275
403.04995,0.44338
404.97842,0.14586
406.90689,-0.07670
408.83536,-0.20771
410.76382,-0.20731
412.69229,-0.16241
414.62076,-0.10272
416.54923,-0.00524
418.47770,0.16962
420.40617,0.38136
422.33464,0.54352
424.26311,0.54096
426.19157,0.29364
428.12004,0.04992
430.04851,-0.02683
431.97698,0.03787
433.90545,0.09700
435.83392,0.06239
437.76239,0.00923
439.69085,0.01027
441.61932,0.03638
443.54779,0.10023
445.47626,0.20582
447.40473,0.23478
449.33320,0.16428
451.26167,0.09183
453.19013,0.06536
455.11860,0.04469
457.04707,0.02231
458.97554,0.04794
460.90401,0.10754
462.83248,0.16423
464.76095,0.19710
466.68942,0.21418
468.61788,0.23720
470.54635,0.28625
472.47482,0.35059
474.40329,0.26114
476.33176,0.07409
478.26023,-0.01158
480.18870,-0.04796
482.11716,-0.05645
484.04563,0.00209
485.97410,0.06466
487.90257,0.05665
489.83104,0.05381
491.75951,0.09340
493.68798,0.12013
495.61645,0.11588
497.54491,0.08727
499.47338,0.02629
501.40185,-0.07994
503.33032,-0.14308
505.25879,-0.06595
507.18726,0.06411
509.11573,0.12047
511.04419,0.11288
512.97266,0.09168
514.90113,0.07656
516.82960,0.06302
518.75807,0.07516
520.68654,0.12090
522.61501,0.15424
524.54348,0.12856
526.47194,0.04352
528.40041,-0.00832
530.32888,0.00249
532.25735,0.02635
534.18582,0.06391
536.11429,0.12084
538.04276,0.15811
539.97122,0.17096
541.89969,0.16733
543.82816,0.13834
545.75663,0.10513
547.68510,0.08035
549.61357,0.02167
551.54204,-0.16007
553.47051,-0.34658
555.39897,-0.27520
557.32744,-0.06691
559.25591,0.01458
561.18438,0.04417
563.11285,0.11038
565.04132,0.15023
566.96979,0.15156
568.89825,0.15204
570.82672,0.13187
572.75519,0.09932
574.68366,0.09656
576.61213,0.09304
578.54060,0.06271
580.46907,0.03758
582.39754,0.04517
584.32600,0.06952
586.25447,0.08613
588.18294,0.10639
590.11141,0.14948
592.03988,0.18095
593.96835,0.16201
595.89682,0.13529
597.82528,0.13458
599.75375,0.14262
601.68222,0.13410
603.61069,0.10373
605.53916,0.07802
607.46763,0.06735
609.39610,0.06346
611.32456,0.07545
613.25303,0.10564
615.18150,0.13213
617.10997,0.13804
619.03844,0.12275
620.96691,0.09632
622.89538,0.07497
624.82385,0.07738
626.75231,0.10667
628.68078,0.12514
630.60925,0.09785
632.53772,0.05570
634.46619,0.05297
636.39466,0.08302
638.32313,0.10719
640.25159,0.10686
642.18006,0.09309
644.10853,0.09269
646.03700,0.10650
647.96547,0.11616
649.89394,0.11202
651.82241,0.09915
653.75088,0.08678
655.67934,0.08194
657.60781,0.09531
659.53628,0.12253
661.46475,0.14322
663.39322,0.14822
665.32169,0.14024
667.25016,0.12803
669.17862,0.11750
671.10709,0.10581
673.03556,0.09720
674.96403,0.08776
676.89250,0.07883
678.82097,0.08266
680.74944,0.08994
682.67791,0.09685
684.60637,0.11267
686.53484,0.12595
688.46331,0.13262
690.39178,0.14159
692.32025,0.14644
694.24872,0.14401
696.17719,0.13157
698.10565,0.10619
700.03412,0.08946
701.96259,0.09330
703.89106,0.10377
705.81953,0.11321
707.74800,0.12329
709.67647,0.13368
711.60494,0.13901
713.53340,0.13467
715.46187,0.12896
717.39034,0.12750
719.31881,0.12434
721.24728,0.12039
723.17575,0.11809
725.10422,0.11356
727.03268,0.10823
728.96115,0.11154
730.88962,0.12345
732.81809,0.12602
734.74656,0.11464
736.67503,0.11126
738.60350,0.12464
740.53197,0.13756
742.46043,0.13814
744.38890,0.12561
746.31737,0.10613
748.24584,0.09148
750.17431,0.08514
752.10278,0.08980
754.03125,0.10631
755.95971,0.12372
757.88818,0.13092
759.81665,0.13027
761.74512,0.12858
763.67359,0.13026
765.60206,0.13628
767.53053,0.13958
769.45900,0.13875
771.38746,0.13358
773.31593,0.12038
775.24440,0.10269
777.17287,0.09246
779.10134,0.10280
781.02981,0.12351
782.95828,0.13603
784.88674,0.14257
786.81521,0.14857
788.74368,0.14743
790.67215,0.13745
792.60062,0.12972
794.52909,0.12705
796.45756,0.12261
798.38602,0.12148
800.31449,0.12601
802.24296,0.12498
804.17143,0.11927
806.09990,0.11588
808.02837,0.11503
809.95684,0.12289
811.88531,0.13504
813.81377,0.13377
815.74224,0.12265
817.67071,0.11235
819.59918,0.09615
821.52765,0.08119
823.45612,0.08567
825.38459,0.10446
827.31305,0.11946
829.24152,0.12625
831.16999,0.12768
833.09846,0.12520
835.02693,0.12716
836.95540,0.13634
838.88387,0.14799
840.81234,0.15976
842.74080,0.15841
844.66927,0.13677
846.59774,0.11680
848.52621,0.11068
850.45468,0.10812
852.38315,0.10738
854.31162,0.11015
856.24008,0.11536
858.16855,0.12612
860.09702,0.14288
862.02549,0.15899
863.95396,0.16179
865.88243,0.14702
867.81090,0.14613
869.73937,0.17452
871.66783,0.17788
873.59630,0.14456
875.52477,0.12987
877.45324,0.13866
879.38171,0.14248
881.31018,0.13442
883.23865,0.12694
885.16711,0.12926
887.09558,0.13266
889.02405,0.13175
890.95252,0.12845
892.88099,0.12406
894.80946,0.11873
896.73793,0.11303
898.66640,0.10982
900.59486,0.11428
902.52333,0.12942
904.45180,0.14526
906.38027,0.15036
908.30874,0.15044
910.23721,0.15407
912.16568,0.15601
914.09414,0.15240
916.02261,0.14511
917.95108,0.13643
919.87955,0.13336
921.80802,0.13536
923.73649,0.13585
925.66496,0.13769
927.59343,0.14163
929.52189,0.14136
931.45036,0.13774
933.37883,0.13566
935.30730,0.13563
937.23577,0.13830
939.16424,0.14608
941.09271,0.15054
943.02117,0.14382
944.94964,0.13828
946.87811,0.13598
948.80658,0.12834
950.73505,0.12701
952.66352,0.13686
954.59199,0.14338
956.52045,0.14268
958.44892,0.14140
960.37739,0.14034
962.30586,0.14184
964.23433,0.14415
966.16280,0.13849
968.09127,0.12953
970.01974,0.12584
971.94820,0.12606
973.87667,0.12902
975.80514,0.13235
977.73361,0.13483
979.66208,0.14118
981.59055,0.14947
983.51902,0.15349
985.44748,0.15776
987.37595,0.16215
989.30442,0.15451
991.23289,0.13895
993.16136,0.13214
995.08983,0.13512
997.01830,0.13907
998.94677,0.14293
1000.87523,0.15063
1002.80370,0.15876
1004.73217,0.16180
1006.66064,0.16297
1008.58911,0.16507
1010.51758,0.16015
1012.44605,0.14600
1014.37451,0.13786
1016.30298,0.14270
1018.23145,0.15083
1020.15992,0.15617
1022.08839,0.15687
1024.01686,0.15015
1025.94533,0.15387
1027.87380,0.18320
1029.80226,0.19793
1031.73073,0.17711
1033.65920,0.16252
1035.58767,0.16153
1037.51614,0.15080
1039.44461,0.13661
1041.37308,0.13509
1043.30154,0.14404
1045.23001,0.15022
1047.15848,0.15068
1049.08695,0.15240
1051.01542,0.15445
1052.94389,0.15676
1054.87236,0.16576
1056.80083,0.17161
1058.72929,0.16919
1060.65776,0.16811
1062.58623,0.16349
1064.51470,0.15209
1066.44317,0.14288
1068.37164,0.14097
1070.30011,0.14813
1072.22857,0.15806
1074.15704,0.15558
1076.08551,0.14525
1078.01398,0.14530
1079.94245,0.15082
1081.87092,0.14927
1083.79939,0.14438
1085.72786,0.14634
1087.65632,0.15060
1089.58479,0.14612
1091.51326,0.14248
1093.44173,0.15062
1095.37020,0.15887
1097.29867,0.15414
1099.22714,0.14689
1101.15560,0.15217
1103.08407,0.16275
1105.01254,0.17055
1106.94101,0.18085
1108.86948,0.18673
1110.79795,0.17847
1112.72642,0.16496
1114.65489,0.15245
1116.58335,0.14086
1118.51182,0.13629
1120.44029,0.14035
1122.36876,0.14549
1124.29723,0.14858
1126.22570,0.15520
1128.15417,0.15890
1130.08263,0.14916
1132.01110,0.14036
1133.93957,0.14431
1135.86804,0.15132
1137.79651,0.15561
1139.72498,0.15950
1141.65345,0.16247
1143.58191,0.16139
1145.51038,0.16123
1147.43885,0.16786
1149.36732,0.17104
1151.29579,0.16657
1153.22426,0.16543
1155.15273,0.16849
1157.08120,0.16740
1159.00966,0.16080
1160.93813,0.15600
1162.86660,0.15824
1164.79507,0.16034
1166.72354,0.15540
1168.65201,0.14909
1170.58048,0.14694
1172.50894,0.14849
1174.43741,0.15298
1176.36588,0.16046
1178.29435,0.16976
1180.22282,0.17465
1182.15129,0.17133
1184.07976,0.16644
1186.00823,0.16421
1187.93669,0.16239
1189.86516,0.16034
1191.79363,0.15724
1193.72210,0.15561
1195.65057,0.15949
1197.57904,0.16550
1199.50751,0.16867
1201.43597,0.17036
1203.36444,0.17281
1205.29291,0.17148
1207.22138,0.16466
1209.14985,0.15834
1211.07832,0.15651
1213.00679,0.15993
1214.93526,0.16479
1216.86372,0.16353
1218.79219,0.15620
1220.72066,0.15200
1222.64913,0.15540
1224.57760,0.15979
1226.50607,0.15903
1228.43454,0.15662
1230.36300,0.15775
1232.29147,0.16107
1234.21994,0.16054
1236.14841,0.15457
1238.07688,0.14964
1240.00535,0.14961
1241.93382,0.15257
1243.86229,0.15511
1245.79075,0.15419
1247.71922,0.15216
1249.64769,0.15243
1251.57616,0.15104
1253.50463,0.14763
1255.43310,0.14945
1257.36157,0.15193
1259.29003,0.14551
1261.21850,0.13562
1263.14697,0.13185
1265.07544,0.13408
1267.00391,0.13649
1268.93238,0.13874
1270.86085,0.14541
1272.78932,0.15266
1274.71778,0.15485
1276.64625,0.15779
1278.57472,0.16423
1280.50319,0.16408
1282.43166,0.15632
1284.36013,0.15064
1286.28860,0.14697
1288.21706,0.14514
1290.14553,0.14819
1292.07400,0.14931
1294.00247,0.14548
1295.93094,0.14067
1297.85941,0.13447
1299.78788,0.12454
1301.71634,0.10475
1303.64481,0.08144
1305.57328,0.08640
1307.50175,0.12485
1309.43022,0.15748
1311.35869,0.16823
1313.28716,0.17024
1315.21563,0.16660
1317.14409,0.16331
1319.07256,0.16518
1321.00103,0.16400
1322.92950,0.16012
1324.85797,0.15501
1326.78644,0.14964
1328.71491,0.15005
1330.64337,0.14862
1332.57184,0.14599
1334.50031,0.14830
1336.42878,0.14768
1338.35725,0.14703
1340.28572,0.14257
1342.21419,0.13307
1344.14266,0.13048
1346.07112,0.13080
1347.99959,0.13700
1349.92806,0.14909
1351.85653,0.15432
1353.78500,0.15302
1355.71347,0.15212
1357.64194,0.15611
1359.57040,0.16512
1361.49887,0.17296
1363.42734,0.17224
1365.35581,0.16893
1367.28428,0.16947
1369.21275,0.16913
1371.14122,0.17007
1373.06969,0.17660
1374.99815,0.18201
1376.92662,0.18167
1378.85509,0.18034
1380.78356,0.17928
1382.71203,0.17890
1384.64050,0.18323
1386.56897,0.19041
1388.49743,0.19006
1390.42590,0.18316
1392.35437,0.18247
1394.28284,0.19295
1396.21131,0.20341
1398.13978,0.20281
1400.06825,0.19476
1401.99672,0.18886
1403.92518,0.18725
1405.85365,0.18164
1407.78212,0.17286
1409.71059,0.17064
1411.63906,0.17590
1413.56753,0.18332
1415.49600,0.19125
1417.42446,0.19976
1419.35293,0.20007
1421.28140,0.19332
1423.20987,0.19048
1425.13834,0.18845
1427.06681,0.18647
1428.99528,0.18642
1430.92375,0.18459
1432.85221,0.18330
1434.78068,0.18914
1436.70915,0.19380
1438.63762,0.18551
1440.56609,0.17857
1442.49456,0.17826
1444.42303,0.18072
1446.35149,0.18773
1448.27996,0.19630
1450.20843,0.19720
1452.13690,0.19372
1454.06537,0.19613
1455.99384,0.21246
1457.92231,0.22215
1459.85077,0.20439
1461.77924,0.19181
1463.70771,0.19166
1465.63618,0.19369
1467.56465,0.19232
1469.49312,0.20058
1471.42159,0.22407
1473.35006,0.23766
1475.27852,0.22299
1477.20699,0.20611
1479.13546,0.19712
1481.06393,0.19301
1482.99240,0.19105
1484.92087,0.19498
1486.84934,0.20784
1488.77780,0.22226
1490.70627,0.21949
1492.63474,0.20894
1494.56321,0.21209
1496.49168,0.22538
1498.42015,0.22650
1500.34862,0.22686
1502.27709,0.25470
1504.20555,0.30436
1506.13402,0.32891
1508.06249,0.26495
1509.99096,0.21732
1511.91943,0.20082
1513.84790,0.19935
1515.77637,0.21291
1517.70483,0.23127
1519.63330,0.24621
1521.56177,0.25337
1523.49024,0.24419
1525.41871,0.23166
1527.34718,0.21853
1529.27565,0.20972
1531.20412,0.21333
1533.13258,0.21907
1535.06105,0.21521
1536.98952,0.22053
1538.91799,0.24816
1540.84646,0.27006
1542.77493,0.25435
1544.70340,0.23143
1546.63186,0.21398
1548.56033,0.20954
1550.48880,0.21147
1552.41727,0.21304
1554.34574,0.21705
1556.27421,0.22814
1558.20268,0.24883
1560.13115,0.23634
1562.05961,0.21271
1563.98808,0.20576
1565.91655,0.20711
1567.84502,0.21536
1569.77349,0.22045
1571.70196,0.21028
1573.63043,0.20510
1575.55889,0.21183
1577.48736,0.21186
1579.41583,0.20353
1581.34430,0.19603
1583.27277,0.18868
1585.20124,0.18434
1587.12971,0.18349
1589.05818,0.18291
1590.98664,0.18454
1592.91511,0.18973
1594.84358,0.19367
1596.77205,0.19248
1598.70052,0.18939
1600.62899,0.18867
1602.55746,0.18969
1604.48592,0.19092
1606.41439,0.19077
1608.34286,0.18793
1610.27133,0.18660
1612.19980,0.19097
1614.12827,0.20148
1616.05674,0.21609
1617.98521,0.21837
1619.91367,0.21231
1621.84214,0.21397
1623.77061,0.21803
1625.69908,0.21766
1627.62755,0.21278
1629.55602,0.20148
1631.48449,0.19482
1633.41295,0.20470
1635.34142,0.22908
1637.26989,0.23241
1639.19836,0.21729
1641.12683,0.20987
1643.05530,0.21388
1644.98377,0.22982
1646.91223,0.24628
1648.84070,0.24266
1650.76917,0.24633
1652.69764,0.26936
1654.62611,0.25446
1656.55458,0.22303
1658.48305,0.20942
1660.41152,0.20967
1662.33998,0.21481
1664.26845,0.21092
1666.19692,0.20946
1668.12539,0.22360
1670.05386,0.23696
1671.98233,0.23269
1673.91080,0.22853
1675.83926,0.22321
1677.76773,0.21580
1679.69620,0.21596
1681.62467,0.22492
1683.55314,0.23745
1685.48161,0.23050
1687.41008,0.21582
1689.33855,0.20965
1691.26701,0.20711
1693.19548,0.21182
1695.12395,0.23132
1697.05242,0.25254
1698.98089,0.25445
1700.90936,0.24042
1702.83783,0.22997
1704.76629,0.22671
1706.69476,0.21679
1708.62323,0.20362
1710.55170,0.19966
1712.48017,0.20594
1714.40864,0.22143
1716.33711,0.23877
1718.26558,0.23233
1720.19404,0.21290
1722.12251,0.20288
1724.05098,0.19731
1725.97945,0.19264
1727.90792,0.19392
1729.83639,0.20208
1731.76486,0.21498
1733.69332,0.22364
1735.62179,0.21270
1737.55026,0.20461
1739.47873,0.20930
1741.40720,0.21482
1743.33567,0.21432
1745.26414,0.21478
1747.19261,0.21957
1749.12107,0.22201
1751.04954,0.21375
1752.97801,0.20125
1754.90648,0.19574
1756.83495,0.19728
1758.76342,0.20068
1760.69189,0.20518
1762.62035,0.20617
1764.54882,0.20288
1766.47729,0.20503
1768.40576,0.21440
1770.33423,0.22621
1772.26270,0.22847
1774.19117,0.21405
1776.11964,0.20214
1778.04810,0.19983
1779.97657,0.20009
1781.90504,0.19807
1783.83351,0.19633
1785.76198,0.19422
1787.69045,0.19280
1789.61892,0.19876
1791.54738,0.20960
1793.47585,0.21205
1795.40432,0.20813
1797.33279,0.20513
1799.26126,0.20315
1801.18973,0.20037
1803.11820,0.19459
1805.04666,0.18971
1806.97513,0.18962
1808.90360,0.19302
1810.83207,0.19549
1812.76054,0.19507
1814.68901,0.19508
1816.61748,0.19429
1818.54595,0.18873
1820.47441,0.18335
1822.40288,0.18739
1824.33135,0.19771
1826.25982,0.20301
1828.18829,0.20629
1830.11676,0.20789
1832.04523,0.20040
1833.97369,0.19367
1835.90216,0.19440
1837.83063,0.19674
1839.75910,0.19739
1841.68757,0.20230
1843.61604,0.20985
1845.54451,0.20721
1847.47298,0.19841
1849.40144,0.19329
1851.32991,0.19225
1853.25838,0.19183
1855.18685,0.18985
1857.11532,0.18845
1859.04379,0.18845
1860.97226,0.18959
1862.90072,0.19216
1864.82919,0.19764
1866.75766,0.20796
1868.68613,0.21413
1870.61460,0.20625
1872.54307,0.19511
1874.47154,0.18841
1876.40001,0.18543
1878.32847,0.18444
1880.25694,0.18491
1882.18541,0.18702
1884.11388,0.19024
1886.04235,0.19391
1887.97082,0.19787
1889.89929,0.20039
1891.82775,0.19984
1893.75622,0.19785
1895.68469,0.19576
1897.61316,0.19449
1899.54163,0.19321
1901.47010,0.19076
1903.39857,0.18960
1905.32704,0.19167
1907.25550,0.19483
1909.18397,0.19497
1911.11244,0.19225
1913.04091,0.19142
1914.96938,0.19421
1916.89785,0.19726
1918.82632,0.19688
1920.75478,0.19767
1922.68325,0.19994
1924.61172,0.19540
1926.54019,0.18767
1928.46866,0.18415
1930.39713,0.18489
1932.32560,0.18828
1934.25407,0.19064
1936.18253,0.19039
1938.11100,0.19077
1940.03947,0.19488
1941.96794,0.20077
1943.89641,0.20151
1945.82488,0.19710
1947.75335,0.19294
1949.68181,0.19137
1951.61028,0.19231
1953.53875,0.19324
1955.46722,0.19172
1957.39569,0.18794
1959.32416,0.18623
1961.25263,0.18950
1963.18110,0.19437
1965.10956,0.19756
1967.03803,0.19775
1968.96650,0.19563
1970.89497,0.19432
1972.82344,0.19296
1974.75191,0.18568
1976.68038,0.17343
1978.60884,0.16711
1980.53731,0.17140
1982.46578,0.18058
1984.39425,0.18811
1986.32272,0.19281
1988.25119,0.19689
1990.17966,0.19914
1992.10812,0.19704
1994.03659,0.19227
1995.96506,0.19021
1997.89353,0.19227
1999.82200,0.19362
2001.75047,0.19134
2003.67894,0.18724
2005.60741,0.18564
2007.53587,0.18909
2009.46434,0.19430
2011.39281,0.19716
2013.32128,0.19767
2015.24975,0.19825
2017.17822,0.19845
2019.10669,0.19580
2021.03515,0.19218
2022.96362,0.19007
2024.89209,0.18907
2026.82056,0.18951
2028.74903,0.19132
2030.67750,0.19246
2032.60597,0.19204
2034.53444,0.19257
2036.46290,0.19505
2038.39137,0.19688
2040.31984,0.19715
2042.24831,0.19677
2044.17678,0.19650
2046.10525,0.19574
2048.03372,0.19379
2049.96218,0.19130
2051.89065,0.18958
2053.81912,0.19102
2055.74759,0.19397
2057.67606,0.19454
2059.60453,0.19517
2061.53300,0.19791
2063.46147,0.19976
2065.38993,0.20028
2067.31840,0.20013
2069.24687,0.19776
2071.17534,0.19379
2073.10381,0.19050
2075.03228,0.18842
2076.96075,0.18823
2078.88921,0.19077
2080.81768,0.19443
2082.74615,0.19730
2084.67462,0.19831
2086.60309,0.19759
2088.53156,0.19692
2090.46003,0.19592
2092.38850,0.19374
2094.31696,0.19302
2096.24543,0.19442
2098.17390,0.19440
2100.10237,0.19243
2102.03084,0.19123
2103.95931,0.19202
2105.88778,0.19449
2107.81624,0.19714
2109.74471,0.19882
2111.67318,0.19919
2113.60165,0.19811
2115.53012,0.19763
2117.45859,0.19894
2119.38706,0.19901
2121.31553,0.19655
2123.24399,0.19431
2125.17246,0.19365
2127.10093,0.19344
2129.02940,0.19301
2130.95787,0.19338
2132.88634,0.19525
2134.81481,0.19801
2136.74327,0.19943
2138.67174,0.19832
2140.60021,0.19702
2142.52868,0.19616
2144.45715,0.19501
2146.38562,0.19456
2148.31409,0.19436
2150.24255,0.19336
2152.17102,0.19259
2154.09949,0.19311
2156.02796,0.19423
2157.95643,0.19500
2159.88490,0.19525
2161.81337,0.19449
2163.74184,0.19304
2165.67030,0.19302
2167.59877,0.19428
2169.52724,0.19463
2171.45571,0.19417
2173.38418,0.19385
2175.31265,0.19372
2177.24112,0.19417
2179.16958,0.19600
2181.09805,0.19928
2183.02652,0.20091
2184.95499,0.19761
2186.88346,0.19252
2188.81193,0.19118
2190.74040,0.19379
2192.66887,0.19613
2194.59733,0.19514
2196.52580,0.19230
2198.45427,0.19049
2200.38274,0.19095
2202.31121,0.19396
2204.23968,0.19807
2206.16815,0.20035
2208.09661,0.19988
2210.02508,0.19799
2211.95355,0.19530
2213.88202,0.19252
2215.81049,0.19101
2217.73896,0.19141
2219.66743,0.19244
2221.59590,0.19228
2223.52436,0.19176
2225.45283,0.19341
2227.38130,0.19720
2229.30977,0.20043
2231.23824,0.20170
2233.16671,0.20055
2235.09518,0.19827
2237.02364,0.19687
2238.95211,0.19533
2240.88058,0.19409
2242.80905,0.19498
2244.73752,0.19603
2246.66599,0.19560
2248.59446,0.19522
2250.52293,0.19595
2252.45139,0.19810
2254.37986,0.20078
2256.30833,0.20127
2258.23680,0.19948
2260.16527,0.19857
2262.09374,0.19911
2264.02221,0.19807
2265.95067,0.19532
2267.87914,0.19332
2269.80761,0.19310
2271.73608,0.19488
2273.66455,0.19665
2275.59302,0.19601
2277.52149,0.19433
2279.44996,0.19474
2281.37842,0.19753
2283.30689,0.20033
2285.23536,0.20058
2287.16383,0.19877
2289.09230,0.19787
2291.02077,0.19859
2292.94924,0.19877
2294.87770,0.19718
2296.80617,0.19667
2298.73464,0.19741
2300.66311,0.19673
2302.59158,0.19810
2304.52005,0.20287
2306.44852,0.20542
2308.37699,0.20312
2310.30545,0.19928
2312.23392,0.19642
2314.16239,0.19498
2316.09086,0.19566
2318.01933,0.19565
2319.94780,0.19164
2321.87627,0.18655
2323.80473,0.18530
2325.73320,0.18703
2327.66167,0.18955
2329.59014,0.19392
2331.51861,0.19739
2333.44708,0.19591
2335.37555,0.19333
2337.30401,0.19635
2339.23248,0.20282
2341.16095,0.20157
2343.08942,0.18914
2345.01789,0.17887
2346.94636,0.18108
2348.87483,0.18936
2350.80330,0.19918
2352.73176,0.20976
2354.66023,0.21273
2356.58870,0.19973
2358.51717,0.18384
2360.44564,0.17409
2362.37411,0.16924
2364.30258,0.17907
2366.23104,0.19483
2368.15951,0.19704
2370.08798,0.18764
2372.01645,0.17788
2373.94492,0.17472
2375.87339,0.18135
2377.80186,0.19245
2379.73033,0.19844
2381.65879,0.19788
2383.58726,0.19720
2385.51573,0.19922
2387.44420,0.19952
2389.37267,0.19667
2391.30114,0.19538
2393.22961,0.19658
2395.15807,0.19571
2397.08654,0.19202
2399.01501,0.19086
2400.94348,0.19333
2402.87195,0.19462
2404.80042,0.19350
2406.72889,0.19351
2408.65736,0.19563
2410.58582,0.19616
2412.51429,0.19319
2414.44276,0.19068
2416.37123,0.19164
2418.29970,0.19345
2420.22817,0.19357
2422.15664,0.19285
2424.08510,0.19320
2426.01357,0.19440
2427.94204,0.19596
2429.87051,0.19814
2431.79898,0.19857
2433.72745,0.19641
2435.65592,0.19399
2437.58439,0.19294
2439.51285,0.19351
2441.44132,0.19455
2443.36979,0.19502
2445.29826,0.19578
2447.22673,0.19726
2449.15520,0.19792
2451.08367,0.19819
2453.01213,0.19912
2454.94060,0.19972
2456.86907,0.19940
2458.79754,0.19803
2460.72601,0.19709
2462.65448,0.19650
2464.58295,0.19448
2466.51142,0.19249
2468.43988,0.19227
2470.36835,0.19406
2472.29682,0.19764
2474.22529,0.20068
2476.15376,0.20037
2478.08223,0.19781
2480.01070,0.19559
2481.93916,0.19382
2483.86763,0.19311
2485.79610,0.19455
2487.72457,0.19590
2489.65304,0.19582
2491.58151,0.19640
2493.50998,0.19769
2495.43844,0.19826
2497.36691,0.19932
2499.29538,0.20114
2501.22385,0.20142
2503.15232,0.20077
2505.08079,0.20147
2507.00926,0.20279
2508.93773,0.20289
2510.86619,0.20104
2512.79466,0.19798
2514.72313,0.19544
2516.65160,0.19563
2518.58007,0.19758
2520.50854,0.19783
2522.43701,0.19805
2524.36547,0.19913
2526.29394,0.19829
2528.22241,0.19775
2530.15088,0.19939
2532.07935,0.20145
2534.00782,0.20264
2535.93629,0.20146
2537.86476,0.19841
2539.79322,0.19569
2541.72169,0.19515
2543.65016,0.19709
2545.57863,0.20027
2547.50710,0.20466
2549.43557,0.20770
2551.36404,0.20528
2553.29250,0.20051
2555.22097,0.19890
2557.14944,0.19942
2559.07791,0.19920
2561.00638,0.19906
2562.93485,0.20063
2564.86332,0.20164
2566.79179,0.19925
2568.72025,0.19751
2570.64872,0.20023
2572.57719,0.20451
2574.50566,0.20681
2576.43413,0.20641
2578.36260,0.20512
2580.29107,0.20462
2582.21953,0.20317
2584.14800,0.19983
2586.07647,0.19786
2588.00494,0.19744
2589.93341,0.19606
2591.86188,0.19582
2593.79035,0.19737
2595.71882,0.19658
2597.64728,0.19320
2599.57575,0.19211
2601.50422,0.19448
2603.43269,0.19630
2605.36116,0.19550
2607.28963,0.19465
2609.21810,0.19615
2611.14656,0.19904
2613.07503,0.20209
2615.00350,0.20392
2616.93197,0.20223
2618.86044,0.19828
2620.78891,0.19584
2622.71738,0.19672
2624.64585,0.20062
2626.57431,0.20423
2628.50278,0.20431
2630.43125,0.20258
2632.35972,0.20093
2634.28819,0.19902
2636.21666,0.19923
2638.14513,0.20372
2640.07359,0.20816
2642.00206,0.20686
2643.93053,0.20221
2645.85900,0.20077
2647.78747,0.20318
2649.71594,0.20610
2651.64441,0.20788
2653.57288,0.20807
2655.50134,0.20714
2657.42981,0.20618
2659.35828,0.20681
2661.28675,0.20869
2663.21522,0.20720
2665.14369,0.20191
2667.07216,0.19936
2669.00062,0.20117
2670.92909,0.20218
2672.85756,0.20184
2674.78603,0.20239
2676.71450,0.20393
2678.64297,0.20557
2680.57144,0.20391
2682.49990,0.19937
2684.42837,0.19705
2686.35684,0.19926
2688.28531,0.20359
2690.21378,0.20543
2692.14225,0.20557
2694.07072,0.20634
2695.99919,0.20553
2697.92765,0.20401
2699.85612,0.20561
2701.78459,0.20904
2703.71306,0.20992
2705.64153,0.20785
2707.57000,0.20598
2709.49847,0.20478
2711.42693,0.20271
2713.35540,0.20184
2715.28387,0.20525
2717.21234,0.21009
2719.14081,0.21234
2721.06928,0.21263
2722.99775,0.21094
2724.92622,0.20741
2726.85468,0.20505
2728.78315,0.20377
2730.71162,0.20188
2732.64009,0.20185
2734.56856,0.20502
2736.49703,0.20743
2738.42550,0.20657
2740.35396,0.20498
2742.28243,0.20645
2744.21090,0.20950
2746.13937,0.21010
2748.06784,0.20959
2749.99631,0.20898
2751.92478,0.20636
2753.85325,0.20336
2755.78171,0.20419
2757.71018,0.20856
2759.63865,0.21053
2761.56712,0.20811
2763.49559,0.20724
2765.42406,0.21097
2767.35253,0.21362
2769.28099,0.21197
2771.20946,0.21139
2773.13793,0.21444
2775.06640,0.21599
2776.99487,0.21387
2778.92334,0.21186
2780.85181,0.21075
2782.78028,0.20881
2784.70874,0.20762
2786.63721,0.20824
2788.56568,0.20905
2790.49415,0.21075
2792.42262,0.21387
2794.35109,0.21568
2796.27956,0.21416
2798.20802,0.20998
2800.13649,0.20659
2802.06496,0.20622
2803.99343,0.20693
2805.92190,0.20638
2807.85037,0.20532
2809.77884,0.20548
2811.70731,0.20664
2813.63577,0.20873
2815.56424,0.21184
2817.49271,0.21567
2819.42118,0.21886
2821.34965,0.21805
2823.27812,0.21444
2825.20659,0.21255
2827.13505,0.21176
2829.06352,0.21037
2830.99199,0.21066
2832.92046,0.21291
2834.84893,0.21519
2836.77740,0.21760
2838.70587,0.21867
2840.63433,0.21630
2842.56280,0.21255
2844.49127,0.21134
2846.41974,0.21129
2848.34821,0.20962
2850.27668,0.21071
2852.20515,0.21426
2854.13362,0.21298
2856.06208,0.21000
2857.99055,0.21135
2859.91902,0.21308
2861.84749,0.21234
2863.77596,0.21197
2865.70443,0.21405
2867.63290,0.21796
2869.56136,0.22046
2871.48983,0.21893
2873.41830,0.21423
2875.34677,0.21102
2877.27524,0.21258
2879.20371,0.21615
2881.13218,0.21497
2883.06065,0.20721
2884.98911,0.20261
2886.91758,0.20608
2888.84605,0.21085
2890.77452,0.21320
2892.70299,0.20939
2894.63146,0.20070
2896.55993,0.20059
2898.48839,0.20848
2900.41686,0.21254
2902.34533,0.21146
2904.27380,0.20470
2906.20227,0.19638
2908.13074,0.19684
2910.05921,0.20355
2911.98768,0.20742
2913.91614,0.20298
2915.84461,0.19361
2917.77308,0.19350
2919.70155,0.20234
2921.63002,0.20740
2923.55849,0.20461
2925.48696,0.19430
2927.41542,0.18998
2929.34389,0.19989
2931.27236,0.20845
2933.20083,0.20827
2935.12930,0.19749
2937.05777,0.18245
2938.98624,0.18623
2940.91471,0.20354
2942.84317,0.21035
2944.77164,0.19991
2946.70011,0.18121
2948.62858,0.17991
2950.55705,0.20010
2952.48552,0.21335
2954.41399,0.20675
2956.34245,0.18501
2958.27092,0.16972
2960.19939,0.18223
2962.12786,0.20510
2964.05633,0.21458
2965.98480,0.20639
2967.91327,0.18977
2969.84174,0.18789
2971.77020,0.20296
2973.69867,0.21388
2975.62714,0.20806
2977.55561,0.19047
2979.48408,0.18507
2981.41255,0.19841
2983.34102,0.20944
2985.26948,0.20916
2987.19795,0.20172
2989.12642,0.19993
2991.05489,0.21264
2992.98336,0.22532
2994.91183,0.22656
2996.84030,0.21848
2998.76877,0.20822
3000.69723,0.20647
3002.62570,0.21038
3004.55417,0.20981
3006.48264,0.20471
3008.41111,0.19548
3010.33958,0.17236
3012.26805,0.12910
3014.19651,0.08077
3016.12498,0.05789
3018.05345,0.08707
3019.98192,0.15271
3021.91039,0.20298
3023.83886,0.21803
3025.76733,0.21423
3027.69579,0.20834
3029.62426,0.21146
3031.55273,0.21920
3033.48120,0.22023
3035.40967,0.21491
3037.33814,0.20870
3039.26661,0.20832
3041.19508,0.21337
3043.12354,0.21582
3045.05201,0.21154
3046.98048,0.20242
3048.90895,0.20039
3050.83742,0.20947
3052.76589,0.21678
3054.69436,0.21256
3056.62282,0.20030
3058.55129,0.19843
3060.47976,0.21009
3062.40823,0.21589
3064.33670,0.20565
3066.26517,0.18890
3068.19364,0.18648
3070.12211,0.19882
3072.05057,0.20819
3073.97904,0.20401
3075.90751,0.19087
3077.83598,0.19017
3079.76445,0.20358
3081.69292,0.20884
3083.62139,0.19615
3085.54985,0.18091
3087.47832,0.18316
3089.40679,0.19452
3091.33526,0.19682
3093.26373,0.18752
3095.19220,0.18293
3097.12067,0.19799
3099.04914,0.21613
3100.97760,0.21362
3102.90607,0.19162
3104.83454,0.18099
3106.76301,0.19752
3108.69148,0.21495
3110.61995,0.21061
3112.54842,0.19502
3114.47688,0.19434
3116.40535,0.20953
3118.33382,0.21695
3120.26229,0.20766
3122.19076,0.19874
3124.11923,0.20442
3126.04770,0.21229
3127.97617,0.20981
3129.90463,0.20139
3131.83310,0.20175
3133.76157,0.21531
3135.69004,0.22416
3137.61851,0.21780
3139.54698,0.20853
3141.47545,0.21306
3143.40391,0.22702
3145.33238,0.23190
3147.26085,0.22353
3149.18932,0.21410
3151.11779,0.21282
3153.04626,0.21557
3154.97473,0.21557
3156.90320,0.21504
3158.83166,0.21921
3160.76013,0.22427
3162.68860,0.22728
3164.61707,0.23038
3166.54554,0.23065
3168.47401,0.22685
3170.40248,0.22255
3172.33094,0.21982
3174.25941,0.21959
3176.18788,0.22268
3178.11635,0.22740
3180.04482,0.23037
3181.97329,0.23140
3183.90176,0.23128
3185.83022,0.22895
3187.75869,0.22713
3189.68716,0.22824
3191.61563,0.22967
3193.54410,0.23003
3195.47257,0.22862
3197.40104,0.22655
3199.32951,0.22527
3201.25797,0.22259
3203.18644,0.22127
3205.11491,0.22675
3207.04338,0.23190
3208.97185,0.22894
3210.90032,0.22788
3212.82879,0.23276
3214.75725,0.23211
3216.68572,0.22634
3218.61419,0.22471
3220.54266,0.22546
3222.47113,0.22433
3224.39960,0.22335
3226.32807,0.22286
3228.25654,0.22310
3230.18500,0.22556
3232.11347,0.22833
3234.04194,0.23153
3235.97041,0.23537
3237.89888,0.23712
3239.82735,0.23587
3241.75582,0.23243
3243.68428,0.23018
3245.61275,0.22987
3247.54122,0.22562
3249.46969,0.21804
3251.39816,0.21861
3253.32663,0.23057
3255.25510,0.24015
3257.18357,0.23874
3259.11203,0.23210
3261.04050,0.22559
3262.96897,0.21941
3264.89744,0.21396
3266.82591,0.21233
3268.75438,0.21569
3270.68285,0.22221
3272.61131,0.22733
3274.53978,0.22749
3276.46825,0.22639
3278.39672,0.22703
3280.32519,0.22858
3282.25366,0.22917
3284.18213,0.22686
3286.11060,0.22510
3288.03906,0.22691
3289.96753,0.22818
3291.89600,0.22620
3293.82447,0.22378
3295.75294,0.22147
3297.68141,0.21885
3299.60988,0.21724
3301.53834,0.21600
3303.46681,0.21489
3305.39528,0.21488
3307.32375,0.21584
3309.25222,0.21763
3311.18069,0.21985
3313.10916,0.22057
3315.03763,0.21939
3316.96609,0.21894
3318.89456,0.21971
3320.82303,0.21928
3322.75150,0.21869
3324.67997,0.22048
3326.60844,0.22325
3328.53691,0.22545
3330.46537,0.22634
3332.39384,0.22508
3334.32231,0.22369
3336.25078,0.22314
3338.17925,0.22044
3340.10772,0.21595
3342.03619,0.21506
3343.96466,0.21965
3345.89312,0.22339
3347.82159,0.22142
3349.75006,0.21877
3351.67853,0.21896
3353.60700,0.22171
3355.53547,0.22792
3357.46394,0.23152
3359.39240,0.23007
3361.32087,0.23143
3363.24934,0.23520
3365.17781,0.23357
3367.10628,0.22669
3369.03475,0.22188
3370.96322,0.22210
3372.89168,0.22301
3374.82015,0.22153
3376.74862,0.21951
3378.67709,0.21816
3380.60556,0.21853
3382.53403,0.22250
3384.46250,0.22663
3386.39097,0.22612
3388.31943,0.22336
3390.24790,0.22329
3392.17637,0.22551
3394.10484,0.22729
3396.03331,0.22829
3397.96178,0.22692
3399.89025,0.22415
3401.81871,0.22341
3403.74718,0.22355
3405.67565,0.22638
3407.60412,0.23378
3409.53259,0.23850
3411.46106,0.23474
3413.38953,0.22550
3415.31800,0.21779
3417.24646,0.21725
3419.17493,0.22202
3421.10340,0.22438
3423.03187,0.22140
3424.96034,0.21812
3426.88881,0.21871
3428.81728,0.22077
3430.74574,0.22057
3432.67421,0.21894
3434.60268,0.21864
3436.53115,0.21759
3438.45962,0.21139
3440.38809,0.20662
3442.31656,0.21181
3444.24503,0.21884
3446.17349,0.21717
3448.10196,0.21003
3450.03043,0.20743
3451.95890,0.21023
3453.88737,0.21113
3455.81584,0.20859
3457.74431,0.20726
3459.67277,0.20963
3461.60124,0.21193
3463.52971,0.20924
3465.45818,0.20440
3467.38665,0.20212
3469.31512,0.20135
3471.24359,0.20036
3473.17206,0.20310
3475.10052,0.20824
3477.02899,0.20560
3478.95746,0.19932
3480.88593,0.20060
3482.81440,0.20500
3484.74287,0.20547
3486.67134,0.20232
3488.59980,0.19907
3490.52827,0.19623
3492.45674,0.18957
3494.38521,0.18474
3496.31368,0.18857
3498.24215,0.19411
3500.17062,0.19830
3502.09909,0.20358
3504.02755,0.20478
3505.95602,0.20344
3507.88449,0.20391
3509.81296,0.19860
3511.74143,0.19043
3513.66990,0.18991
3515.59837,0.19137
3517.52683,0.18715
3519.45530,0.18186
3521.38377,0.18262
3523.31224,0.18770
3525.24071,0.19372
3527.16918,0.19804
3529.09765,0.19496
3531.02611,0.18719
3532.95458,0.18211
3534.88305,0.18076
3536.81152,0.18035
3538.73999,0.17780
3540.66846,0.17447
3542.59693,0.17677
3544.52540,0.18432
3546.45386,0.18466
3548.38233,0.17770
3550.31080,0.17638
3552.23927,0.17829
3554.16774,0.17406
3556.09621,0.16983
3558.02468,0.17087
3559.95314,0.17043
3561.88161,0.16975
3563.81008,0.17924
3565.73855,0.19679
3567.66702,0.19851
3569.59549,0.18234
3571.52396,0.17195
3573.45243,0.16922
3575.38089,0.16920
3577.30936,0.16894
3579.23783,0.16799
3581.16630,0.16710
3583.09477,0.16606
3585.02324,0.16964
3586.95171,0.17861
3588.88017,0.17839
3590.80864,0.17205
3592.73711,0.16973
3594.66558,0.16691
3596.59405,0.16381
3598.52252,0.16381
3600.45099,0.16262
3602.37946,0.15953
3604.30792,0.16123
3606.23639,0.17244
3608.16486,0.18450
3610.09333,0.18375
3612.02180,0.17720
3613.95027,0.17227
3615.87874,0.16872
3617.80720,0.16994
3619.73567,0.17331
3621.66414,0.16874
3623.59261,0.16219
3625.52108,0.16359
3627.44955,0.17518
3629.37802,0.18202
3631.30649,0.17240
3633.23495,0.16092
3635.16342,0.15290
3637.09189,0.15129
3639.02036,0.15156
3640.94883,0.14931
3642.87730,0.14978
3644.80577,0.15985
3646.73423,0.18193
3648.66270,0.20170
3650.59117,0.18800
3652.51964,0.16520
3654.44811,0.15519
3656.37658,0.15317
3658.30505,0.15131
3660.23352,0.14692
3662.16198,0.14243
3664.09045,0.14178
3666.01892,0.14609
3667.94739,0.15672
3669.87586,0.17107
3671.80433,0.17766
3673.73280,0.18627
3675.66126,0.19630
3677.58973,0.18283
3679.51820,0.16097
3681.44667,0.14649
3683.37514,0.14207
3685.30361,0.14522
3687.23208,0.15270
3689.16055,0.16038
3691.08901,0.15743
3693.01748,0.14909
3694.94595,0.14496
3696.87442,0.14439
3698.80289,0.14666
3700.73136,0.15009
3702.65983,0.14800
3704.58829,0.14165
3706.51676,0.14064
3708.44523,0.14683
3710.37370,0.15353
3712.30217,0.15178
3714.23064,0.14723
3716.15911,0.14703
3718.08757,0.14763
3720.01604,0.14924
3721.94451,0.15395
3723.87298,0.15381
3725.80145,0.14743
3727.72992,0.14511
3729.65839,0.15172
3731.58686,0.16711
3733.51532,0.18535
3735.44379,0.18430
3737.37226,0.16264
3739.30073,0.14904
3741.22920,0.14742
3743.15767,0.15225
3745.08614,0.16125
3747.01460,0.17031
3748.94307,0.17898
3750.87154,0.17867
3752.80001,0.16253
3754.72848,0.15050
3756.65695,0.14706
3758.58542,0.14507
3760.51389,0.13939
3762.44235,0.13446
3764.37082,0.13420
3766.29929,0.13727
3768.22776,0.14031
3770.15623,0.13780
3772.08470,0.13059
3774.01317,0.12973
3775.94163,0.13676
3777.87010,0.14600
3779.79857,0.14983
3781.72704,0.14642
3783.65551,0.14256
3785.58398,0.13585
3787.51245,0.12559
3789.44092,0.12200
3791.36938,0.12714
3793.29785,0.13399
3795.22632,0.13935
3797.15479,0.14326
3799.08326,0.14826
3801.01173,0.15451
3802.94020,0.15222
3804.86866,0.14797
3806.79713,0.14911
3808.72560,0.14597
3810.65407,0.13611
3812.58254,0.12920
3814.51101,0.13287
3816.43948,0.14251
3818.36795,0.14764
3820.29641,0.15257
3822.22488,0.15313
3824.15335,0.15016
3826.08182,0.14896
3828.01029,0.14330
3829.93876,0.13430
3831.86723,0.12926
3833.79569,0.13311
3835.72416,0.14643
3837.65263,0.16039
3839.58110,0.16273
3841.50957,0.15740
3843.43804,0.14878
3845.36651,0.13888
3847.29498,0.13393
3849.22344,0.13767
3851.15191,0.15323
3853.08038,0.17821
3855.00885,0.17310
3856.93732,0.14685
3858.86579,0.12935
3860.79426,0.12355
3862.72272,0.12840
3864.65119,0.13600
3866.57966,0.13768
3868.50813,0.14328
3870.43660,0.15413
3872.36507,0.15362
3874.29354,0.14147
3876.22200,0.12893
3878.15047,0.12503
3880.07894,0.12997
3882.00741,0.13316
3883.93588,0.12991
3885.86435,0.12628
3887.79282,0.12571
3889.72129,0.12958
3891.64975,0.13341
3893.57822,0.13124
3895.50669,0.12851
3897.43516,0.12913
3899.36363,0.13374
3901.29210,0.13786
3903.22057,0.13602
3905.14903,0.12854
3907.07750,0.11796
3909.00597,0.11136
3910.93444,0.11236
3912.86291,0.11604
3914.79138,0.11898
3916.71985,0.12246
3918.64832,0.12574
3920.57678,0.13041
3922.50525,0.13472
3924.43372,0.13023
3926.36219,0.11935
3928.29066,0.11213
3930.21913,0.10935
3932.14760,0.10947
3934.07606,0.11157
3936.00453,0.11426
3937.93300,0.11599
3939.86147,0.11692
3941.78994,0.12202
3943.71841,0.12820
3945.64688,0.12795
3947.57535,0.12493
3949.50381,0.12004
3951.43228,0.11089
3953.36075,0.10233
3955.28922,0.09932
3957.21769,0.10150
3959.14616,0.10702
3961.07463,0.11398
3963.00309,0.11840
3964.93156,0.11785
3966.86003,0.11631
3968.78850,0.11730
3970.71697,0.11811
3972.64544,0.11715
3974.57391,0.11514
3976.50238,0.11125
3978.43084,0.10700
3980.35931,0.10648
3982.28778,0.10856
3984.21625,0.10589
3986.14472,0.09781
3988.07319,0.09292
3990.00166,0.09495
3991.93012,0.09990
3993.85859,0.10642
3995.78706,0.11333
3997.71553,0.11693
3999.64400,0.11611
4001.57247,0.11178
4003.50094,0.10746
4005.42941,0.10385
4007.35787,0.10024
4009.28634,0.10075
4011.21481,0.10320
4013.14328,0.10199
4015.07175,0.09945
4017.00022,0.09780
4018.92869,0.09699
4020.85715,0.09858
4022.78562,0.10235
4024.71409,0.10626
4026.64256,0.10500
4028.57103,0.09656
4030.49950,0.09163
4032.42797,0.09561
4034.35644,0.09762
4036.28490,0.09332
4038.21337,0.09355
4040.14184,0.10281
4042.07031,0.10960
4043.99878,0.10580
4045.92725,0.10157
4047.85572,0.10326
4049.78418,0.10327
4051.71265,0.10016
4053.64112,0.09486
4055.56959,0.09010
4057.49806,0.09188
4059.42653,0.09705
4061.35500,0.10117
4063.28346,0.10333
4065.21193,0.10384
4067.14040,0.10560
4069.06887,0.10730
4070.99734,0.10575
4072.92581,0.10006
4074.85428,0.09191
4076.78275,0.08852
4078.71121,0.09239
4080.63968,0.09533
4082.56815,0.09378
4084.49662,0.09325
4086.42509,0.09679
4088.35356,0.10028
4090.28203,0.10003
4092.21049,0.09948
4094.13896,0.09949
4096.06743,0.09490
4097.99590,0.08919
4099.92437,0.09181
4101.85284,0.09898
4103.78131,0.09963
4105.70978,0.09289
4107.63824,0.08505
4109.56671,0.08142
4111.49518,0.08174
4113.42365,0.08452
4115.35212,0.09143
4117.28059,0.09604
4119.20906,0.09181
4121.13752,0.08652
4123.06599,0.08644
4124.99446,0.08563
4126.92293,0.08077
4128.85140,0.07729
4130.77987,0.07649
4132.70834,0.07460
4134.63681,0.07235
4136.56527,0.07344
4138.49374,0.07920
4140.42221,0.08721
4142.35068,0.09305
4144.27915,0.09297
4146.20762,0.08602
4148.13609,0.07949
4150.06455,0.08004
4151.99302,0.08132
4153.92149,0.07933
4155.84996,0.07883
4157.77843,0.07991
4159.70690,0.08142
4161.63537,0.08450
4163.56384,0.08545
4165.49230,0.08241
4167.42077,0.08203
4169.34924,0.08683
4171.27771,0.08954
4173.20618,0.08673
4175.13465,0.08231
4177.06312,0.07955
4178.99158,0.07938
4180.92005,0.07955
4182.84852,0.08066
4184.77699,0.08461
4186.70546,0.08419
4188.63393,0.07821
4190.56240,0.07558
4192.49087,0.07709
4194.41933,0.07781
4196.34780,0.07473
4198.27627,0.06896
4200.20474,0.06533
4202.13321,0.06543
4204.06168,0.06588
4205.99015,0.06460
4207.91861,0.06422
4209.84708,0.06765
4211.77555,0.07108
4213.70402,0.06881
4215.63249,0.06450
4217.56096,0.06344
4219.48943,0.06370
4221.41789,0.06550
4223.34636,0.07048
4225.27483,0.07264
4227.20330,0.06586
4229.13177,0.05479
4231.06024,0.05126
4232.98871,0.05813
4234.91718,0.06497
4236.84564,0.06650
4238.77411,0.06834
4240.70258,0.07151
4242.63105,0.07235
4244.55952,0.07356
4246.48799,0.07322
4248.41646,0.06548
4250.34492,0.05797
4252.27339,0.05897
4254.20186,0.06542
4256.13033,0.06980
4258.05880,0.06695
4259.98727,0.05880
4261.91574,0.05122
4263.84421,0.04753
4265.77267,0.04897
4267.70114,0.05472
4269.62961,0.06022
4271.55808,0.06346
4273.48655,0.06154
4275.41502,0.05205
4277.34349,0.04482
4279.27195,0.04570
4281.20042,0.04929
4283.12889,0.05450
4285.05736,0.05941
4286.98583,0.06065
4288.91430,0.06009
4290.84277,0.05686
4292.77124,0.05257
4294.69970,0.05190
4296.62817,0.05104
4298.55664,0.04743
4300.48511,0.04432
4302.41358,0.04154
4304.34205,0.03639
4306.27052,0.03289
4308.19898,0.03948
4310.12745,0.05159
4312.05592,0.05387
4313.98439,0.04526
4315.91286,0.04207
4317.84133,0.04761
4319.76980,0.04810
4321.69827,0.04403
4323.62673,0.04406
4325.55520,0.04451
4327.48367,0.04047
4329.41214,0.03203
4331.34061,0.02551
4333.26908,0.02859
4335.19755,0.03545
4337.12601,0.03961
4339.05448,0.04483
4340.98295,0.04812
4342.91142,0.04176
4344.83989,0.03118
4346.76836,0.02713
4348.69683,0.02858
4350.62530,0.02925
4352.55376,0.02923
4354.48223,0.02997
4356.41070,0.03083
4358.33917,0.03221
4360.26764,0.03328
4362.19611,0.03456
4364.12458,0.03548
4366.05304,0.03261
4367.98151,0.02989
4369.90998,0.02873
4371.83845,0.02618
4373.76692,0.02662
4375.69539,0.03050
4377.62386,0.03583
4379.55232,0.04027
4381.48079,0.03556
4383.40926,0.02603
4385.33773,0.02369
4387.26620,0.02817
4389.19467,0.03644
4391.12314,0.04480
4393.05161,0.04418
4394.98007,0.03386
4396.90854,0.02108
4398.83701,0.00961
4400.76548,0.00592
4402.69395,0.01504
4404.62242,0.02711
4406.55089,0.03046
4408.47935,0.02686
4410.40782,0.02210
4412.33629,0.01798
4414.26476,0.02020
4416.19323,0.03071
4418.12170,0.03721
4420.05017,0.03359
4421.97864,0.02696
4423.90710,0.02082
4425.83557,0.01477
4427.76404,0.01094
4429.69251,0.01296
4431.62098,0.02033
4433.54945,0.02675
4435.47792,0.02832
4437.40638,0.02927
4439.33485,0.03499
4441.26332,0.03881
4443.19179,0.03209
4445.12026,0.02277
4447.04873,0.01968
4448.97720,0.02075
4450.90567,0.02371
4452.83413,0.02408
4454.76260,0.01816
4456.69107,0.01127
4458.61954,0.01206
4460.54801,0.02200
4462.47648,0.02963
4464.40495,0.02791
4466.33341,0.02136
4468.26188,0.01230
4470.19035,0.00505
4472.11882,0.00455
4474.04729,0.00996
4475.97576,0.01932
4477.90423,0.02791
4479.83270,0.02907
4481.76116,0.02332
4483.68963,0.01918
4485.61810,0.01612
4487.54657,0.00700
4489.47504,-0.00170
4491.40351,-0.00078
4493.33198,0.00540
4495.26044,0.01122
4497.18891,0.01785
4499.11738,0.02128
4501.04585,0.01979
4502.97432,0.02165
4504.90279,0.02589
4506.83126,0.02238
4508.75973,0.01634
4510.68819,0.01820
4512.61666,0.01759
4514.54513,0.00559
4516.47360,-0.00396
4518.40207,0.00015
4520.33054,0.00850
4522.25901,0.01154
4524.18747,0.01330
4526.11594,0.01325
4528.04441,0.00948
4529.97288,0.00802
4531.90135,0.01263
4533.82982,0.02130
4535.75829,0.02538
4537.68676,0.02018
4539.61522,0.01239
4541.54369,0.00849
4543.47216,0.01055
4545.40063,0.01526
4547.32910,0.01567
4549.25757,0.01422
4551.18604,0.01585
4553.11450,0.01406
4555.04297,0.00701
4556.97144,0.00502
4558.89991,0.00877
4560.82838,0.00705
4562.75685,-0.00058
4564.68532,-0.00508
4566.61378,-0.00564
4568.54225,-0.00592
4570.47072,-0.00310
4572.39919,0.00904
4574.32766,0.02559
4576.25613,0.02968
4578.18460,0.01722
4580.11307,0.00386
4582.04153,0.00057
4583.97000,0.00408
4585.89847,0.00654
4587.82694,0.00204
4589.75541,-0.00520
4591.68388,-0.00552
4593.61235,0.00301
4595.54081,0.01322
4597.46928,0.01956
4599.39775,0.02115
4601.32622,0.01635
4603.25469,0.00906
4605.18316,0.00897
4607.11163,0.01505
4609.04010,0.01307
4610.96856,0.00132
4612.89703,-0.00543
4614.82550,-0.00602
4616.75397,-0.00756
4618.68244,-0.00789
4620.61091,-0.00641
4622.53938,-0.00501
4624.46784,-0.00143
4626.39631,0.00217
4628.32478,-0.00066
4630.25325,-0.00396
4632.18172,0.00137
4634.11019,0.00836
4636.03866,0.00936
4637.96713,0.00644
4639.89559,-0.00050
4641.82406,-0.00852
4643.75253,-0.00765
4645.68100,0.00720
4647.60947,0.02460
4649.53794,0.02495
4651.46641,0.00971
4653.39487,-0.00261
4655.32334,-0.00358
4657.25181,0.00369
4659.18028,0.01324
4661.10875,0.01843
4663.03722,0.01484
4664.96569,0.00527
4666.89416,-0.00252
4668.82262,-0.00026
4670.75109,0.01118
4672.67956,0.01860
4674.60803,0.01683
4676.53650,0.01268
4678.46497,0.00878
4680.39344,0.00563
4682.32190,0.00738
4684.25037,0.00817
4686.17884,-0.00063
4688.10731,-0.00854
4690.03578,-0.00422
4691.96425,0.00552
4693.89272,0.01207
4695.82119,0.01450
4697.74965,0.01006
4699.67812,-0.00088
4701.60659,-0.00530
4703.53506,0.00300
4705.46353,0.01021
4707.39200,0.01022
4709.32047,0.01315
4711.24893,0.01721
4713.17740,0.01082
4715.10587,0.00136
4717.03434,0.00109
4718.96281,0.00523
4720.89128,0.01101
4722.81975,0.01682
4724.74821,0.01992
4726.67668,0.02168
4728.60515,0.01657
4730.53362,0.00877
4732.46209,0.00760
4734.39056,0.00564
4736.31903,0.00021
4738.24750,0.00236
4740.17596,0.01218
4742.10443,0.01768
4744.03290,0.01614
4745.96137,0.01502
4747.88984,0.02072
4749.81831,0.02637
4751.74678,0.02217
4753.67524,0.01486
4755.60371,0.00971
4757.53218,0.00353
4759.46065,-0.00340
4761.38912,-0.01122
4763.31759,-0.01790
4765.24606,-0.01445
4767.17453,-0.00209
4769.10299,0.00964
4771.03146,0.01636
4772.95993,0.01371
4774.88840,0.00684
4776.81687,0.00670
4778.74534,0.01771
4780.67381,0.02957
4782.60227,0.02139
4784.53074,0.00428
4786.45921,0.00196
4788.38768,0.00484
4790.31615,0.00149
4792.24462,-0.00254
4794.17309,-0.00171
4796.10156,0.00571
4798.03002,0.01067
4799.95849,0.00451
4801.88696,0.00108
4803.81543,0.01197
4805.74390,0.02086
4807.67237,0.01405
4809.60084,0.00263
4811.52930,-0.00072
4813.45777,0.00407
4815.38624,0.01166
4817.31471,0.01242
4819.24318,0.00387
4821.17165,-0.00502
4823.10012,-0.00695
4825.02859,0.00338
4826.95705,0.02162
4828.88552,0.03147
4830.81399,0.03276
4832.74246,0.03395
4834.67093,0.02700
4836.59940,0.01232
4838.52787,0.00343
4840.45633,0.00064
4842.38480,0.00330
4844.31327,0.01261
4846.24174,0.02181
4848.17021,0.02387
4850.09868,0.01737
4852.02715,0.00986
4853.95562,0.00557
4855.88408,0.00083
4857.81255,-0.00078
4859.74102,0.00353
4861.66949,0.00629
4863.59796,0.00296
4865.52643,0.00034
4867.45490,0.01014
4869.38336,0.02365
4871.31183,0.02178
4873.24030,0.01156
4875.16877,0.00607
4877.09724,0.00631
4879.02571,0.00729
4880.95418,0.00424
4882.88265,0.00222
4884.81111,0.00175
4886.73958,-0.00391
4888.66805,-0.00831
4890.59652,0.00147
4892.52499,0.01633
4894.45346,0.01941
4896.38193,0.01285
4898.31039,0.00388
4900.23886,0.00201
4902.16733,0.01079
4904.09580,0.02129
4906.02427,0.02794
4907.95274,0.02120
4909.88121,-0.00091
4911.80967,-0.01326
4913.73814,-0.00975
4915.66661,-0.01230
4917.59508,-0.01798
4919.52355,-0.01630
4921.45202,-0.01524
4923.38049,-0.00859
4925.30896,0.00464
4927.23742,0.00359
4929.16589,-0.00516
4931.09436,-0.00512
4933.02283,-0.00304
4934.95130,-0.00311
4936.87977,0.00049
4938.80824,0.00650
4940.73670,0.00227
4942.66517,-0.00932
4944.59364,-0.00290
4946.52211,0.01538
4948.45058,0.01870
4950.37905,0.01353
4952.30752,0.00888
4954.23599,0.00209
4956.16445,0.00504
4958.09292,0.01668
4960.02139,0.01626
4961.94986,0.00572
4963.87833,0.00444
4965.80680,0.01053
4967.73527,0.01203
4969.66373,0.01260
4971.59220,0.01224
4973.52067,0.00539
4975.44914,0.00530
4977.37761,0.02102
4979.30608,0.03160
4981.23455,0.02645
4983.16302,0.02104
4985.09148,0.02026
4987.01995,0.01931
4988.94842,0.01279
4990.87689,-0.00105
4992.80536,-0.00488
4994.73383,0.00652
4996.66230,0.01518
4998.59076,0.02014
5000.51923,0.02563
5002.44770,0.02672
5004.37617,0.03021
5006.30464,0.03001
5008.23311,0.00935
5010.16158,-0.01449
5012.09005,-0.01975
5014.01851,-0.01032
5015.94698,0.00553
5017.87545,0.02273
5019.80392,0.03378
5021.73239,0.03096
5023.66086,0.02407
5025.58933,0.02607
5027.51779,0.02744
5029.44626,0.02150
5031.37473,0.01094
5033.30320,-0.00753
5035.23167,-0.02057
5037.16014,-0.01141
5039.08861,0.00648
5041.01708,0.01536
5042.94554,0.02228
5044.87401,0.04103
5046.80248,0.06181
5048.73095,0.06221
5050.65942,0.03868
5052.58789,0.01298
5054.51636,0.01028
5056.44482,0.02257
5058.37329,0.02628
5060.30176,0.01871
5062.23023,0.00911
5064.15870,0.00249
5066.08717,-0.00036
5068.01564,0.00396
5069.94410,0.01416
5071.87257,0.01797
5073.80104,0.01195
5075.72951,0.01508
5077.65798,0.03521
5079.58645,0.04558
5081.51492,0.03294
5083.44339,0.02014
5085.37185,0.01736
5087.30032,0.01223
5089.22879,0.00181
5091.15726,-0.00228
5093.08573,0.00978
5095.01420,0.03126
5096.94267,0.04499
5098.87113,0.04819
5100.79960,0.04423
5102.72807,0.02788
5104.65654,0.00821
5106.58501,-0.00065
5108.51348,0.00108
5110.44195,0.01543
5112.37042,0.03509
5114.29888,0.03546
5116.22735,0.02401
5118.15582,0.02902
5120.08429,0.03902
5122.01276,0.03180
5123.94123,0.02357
5125.86970,0.03394
5127.79816,0.04599
5129.72663,0.04075
5131.65510,0.02641
5133.58357,0.01618
5135.51204,0.01696
5137.44051,0.01974
5139.36898,0.01590
5141.29745,0.01591
5143.22591,0.01990
5145.15438,0.01498
5147.08285,0.00927
5149.01132,0.01555
5150.93979,0.01915
5152.86826,0.01311
5154.79673,0.00922
5156.72519,0.01221
5158.65366,0.02016
5160.58213,0.02258
5162.51060,0.01817
5164.43907,0.02149
5166.36754,0.03551
5168.29601,0.05386
5170.22448,0.06536
5172.15294,0.05272
5174.08141,0.03326
5176.00988,0.03347
5177.93835,0.03933
5179.86682,0.03610
5181.79529,0.02781
5183.72376,0.02447
5185.65222,0.03111
5187.58069,0.03754
5189.50916,0.03449
5191.43763,0.01783
5193.36610,-0.00192
5195.29457,-0.00298
5197.22304,0.01341
5199.15151,0.01935
5201.07997,0.00776
5203.00844,0.00103
5204.93691,0.00830
5206.86538,0.02422
5208.79385,0.04126
5210.72232,0.04667
5212.65079,0.03340
5214.57925,0.01585
5216.50772,0.01606
5218.43619,0.03415
5220.36466,0.05262
5222.29313,0.06599
5224.22160,0.07492
5226.15007,0.07082
5228.07854,0.05312
5230.00700,0.03558
5231.93547,0.03138
5233.86394,0.03128
5235.79241,0.02394
5237.72088,0.02144
5239.64935,0.02345
5241.57782,0.01898
5243.50628,0.01680
5245.43475,0.02992
5247.36322,0.03998
5249.29169,0.02177
5251.22016,-0.00740
5253.14863,-0.01907
5255.07710,-0.01371
5257.00556,-0.00078
5258.93403,0.02600
5260.86250,0.06657
5262.79097,0.09569
5264.71944,0.09027
5266.64791,0.06865
5268.57638,0.05733
5270.50485,0.04763
5272.43331,0.04163
5274.36178,0.04909
5276.29025,0.04954
5278.21872,0.03596
5280.14719,0.03071
5282.07566,0.04589
5284.00413,0.06700
5285.93259,0.07054
5287.86106,0.06299
5289.78953,0.06620
5291.71800,0.07142
5293.64647,0.06762
5295.57494,0.06068
5297.50341,0.05253
5299.43188,0.04865
5301.36034,0.04405
5303.28881,0.03712
5305.21728,0.03317
5307.14575,0.02725
5309.07422,0.03666
5311.00269,0.06515
5312.93116,0.08637
5314.85962,0.08918
5316.78809,0.07942
5318.71656,0.06955
5320.64503,0.05619
5322.57350,0.03720
5324.50197,0.03360
5326.43044,0.05309
5328.35891,0.07585
5330.28737,0.08363
5332.21584,0.07458
5334.14431,0.06210
5336.07278,0.06298
5338.00125,0.07118
5339.92972,0.06846
5341.85819,0.06351
5343.78665,0.06893
5345.71512,0.05942
5347.64359,0.03400
5349.57206,0.03121
5351.50053,0.05079
5353.42900,0.06713
5355.35747,0.06455
5357.28594,0.05036
5359.21440,0.04073
5361.14287,0.04121
5363.07134,0.04871
5364.99981,0.05221
5366.92828,0.04668
5368.85675,0.04680
5370.78522,0.06162
5372.71368,0.08134
5374.64215,0.09365
5376.57062,0.08696
5378.49909,0.07097
5380.42756,0.07053
5382.35603,0.08122
5384.28450,0.08858
5386.21297,0.08946
5388.14143,0.08311
5390.06990,0.07037
5391.99837,0.05648
5393.92684,0.05292
5395.85531,0.05750
5397.78378,0.05297
5399.71225,0.04717
5401.64071,0.05234
5403.56918,0.06312
5405.49765,0.06743
5407.42612,0.06070
5409.35459,0.06107
5411.28306,0.07349
5413.21153,0.07119
5415.13999,0.05761
5417.06846,0.05683
5418.99693,0.06023
5420.92540,0.06123
5422.85387,0.06243
5424.78234,0.05631
5426.71081,0.05783
5428.63928,0.08304
5430.56774,0.10226
5432.49621,0.09407
5434.42468,0.06519
5436.35315,0.03277
5438.28162,0.01631
5440.21009,0.02079
5442.13856,0.04516
5444.06702,0.07840
5445.99549,0.08959
5447.92396,0.07072
5449.85243,0.06265
5451.78090,0.06881
5453.70937,0.06552
5455.63784,0.07068
5457.56631,0.09466
5459.49477,0.11419
5461.42324,0.12338
5463.35171,0.11893
5465.28018,0.11734
5467.20865,0.13243
5469.13712,0.12035
5471.06559,0.07391
5472.99405,0.04874
5474.92252,0.05039
5476.85099,0.04741
5478.77946,0.04370
5480.70793,0.04577
5482.63640,0.05357
5484.56487,0.07583
5486.49334,0.10211
5488.42180,0.11349
5490.35027,0.10977
5492.27874,0.10413
5494.20721,0.09895
5496.13568,0.07983
5498.06415,0.04245
5499.99262,0.01637
5501.92108,0.02364
5503.84955,0.03499
5505.77802,0.03494
5507.70649,0.04429
5509.63496,0.06569
5511.56343,0.08555
5513.49190,0.09850
5515.42037,0.09133
5517.34883,0.07697
5519.27730,0.08122
5521.20577,0.08536
5523.13424,0.08047
5525.06271,0.08545
5526.99118,0.10546
5528.91965,0.13173
5530.84811,0.14929
5532.77658,0.14031
5534.70505,0.10538
5536.63352,0.07628
5538.56199,0.07030
5540.49046,0.07121
5542.41893,0.07230
5544.34740,0.08762
5546.27586,0.10377
5548.20433,0.08677
5550.13280,0.05726
5552.06127,0.04175
5553.98974,0.03440
5555.91821,0.05091
5557.84668,0.09099
5559.77514,0.11150
5561.70361,0.10583
5563.63208,0.09042
5565.56055,0.06786
5567.48902,0.05284
5569.41749,0.05003
5571.34596,0.03975
5573.27443,0.02162
5575.20289,0.01730
5577.13136,0.03027
5579.05983,0.05172
5580.98830,0.06994
5582.91677,0.07309
5584.84524,0.06549
5586.77371,0.05028
5588.70217,0.04039
5590.63064,0.05337
5592.55911,0.06746
5594.48758,0.05719
5596.41605,0.04746
5598.34452,0.05899
5600.27299,0.06769
5602.20145,0.06833
5604.12992,0.07627
5606.05839,0.09059
5607.98686,0.09299
5609.91533,0.07363
5611.84380,0.06115
5613.77227,0.07873
5615.70074,0.11044
5617.62920,0.12945
5619.55767,0.11471
5621.48614,0.07863
5623.41461,0.06214
5625.34308,0.07468
5627.27155,0.08806
5629.20002,0.09140
5631.12848,0.09351
5633.05695,0.09052
5634.98542,0.08141
5636.91389,0.07141
5638.84236,0.05560
5640.77083,0.03648
5642.69930,0.02975
5644.62777,0.04509
5646.55623,0.06444
5648.48470,0.06698
5650.41317,0.07084
5652.34164,0.08628
5654.27011,0.08812
5656.19858,0.07203
5658.12705,0.07150
5660.05551,0.09296
5661.98398,0.10719
5663.91245,0.09921
5665.84092,0.06700
5667.76939,0.02425
5669.69786,0.00168
5671.62633,0.00607
5673.55480,0.00851
5675.48326,0.01323
5677.41173,0.05336
5679.34020,0.09759
5681.26867,0.10379
5683.19714,0.09632
5685.12561,0.10133
5687.05408,0.10468
5688.98254,0.10042
5690.91101,0.10533
5692.83948,0.11405
5694.76795,0.10996
5696.69642,0.09942
5698.62489,0.09265
5700.55336,0.09132
5702.48183,0.09629
5704.41029,0.10963
5706.33876,0.12730
5708.26723,0.12864
5710.19570,0.11244
5712.12417,0.10491
5714.05264,0.11062
5715.98111,0.10574
5717.90957,0.08004
5719.83804,0.06260
5721.76651,0.07335
5723.69498,0.09010
5725.62345,0.09925
5727.55192,0.09779
5729.48039,0.07238
5731.40886,0.05620
5733.33732,0.08286
5735.26579,0.10907
5737.19426,0.08549
5739.12273,0.02843
5741.05120,-0.01048
5742.97967,-0.00788
5744.90814,0.01619
5746.83660,0.05120
5748.76507,0.08245
5750.69354,0.07350
5752.62201,0.03959
5754.55048,0.04836
5756.47895,0.09353
5758.40742,0.11727
5760.33588,0.10746
5762.26435,0.07611
5764.19282,0.03300
5766.12129,-0.00245
5768.04976,-0.00825
5769.97823,0.00957
5771.90670,0.03234
5773.83517,0.06616
5775.76363,0.11318
5777.69210,0.14069
5779.62057,0.12563
5781.54904,0.09692
5783.47751,0.08689
5785.40598,0.09671
5787.33445,0.11454
5789.26291,0.12122
5791.19138,0.10741
5793.11985,0.08441
5795.04832,0.07451
5796.97679,0.07609
5798.90526,0.06422
5800.83373,0.05156
5802.76220,0.05582
5804.69066,0.05836
5806.61913,0.05513
5808.54760,0.07258
5810.47607,0.10300
5812.40454,0.09150
5814.33301,0.04695
5816.26148,0.04605
5818.18994,0.09120
5820.11841,0.11741
5822.04688,0.11285
5823.97535,0.11031
5825.90382,0.10554
5827.83229,0.08131
5829.76076,0.05641
5831.68923,0.05415
5833.61769,0.05576
5835.54616,0.04982
5837.47463,0.04897
5839.40310,0.04832
5841.33157,0.04934
5843.26004,0.06626
5845.18851,0.09359
5847.11697,0.10668
5849.04544,0.10303
5850.97391,0.10578
5852.90238,0.12179
5854.83085,0.13400
5856.75932,0.11642
5858.68779,0.08374
5860.61626,0.06245
5862.54472,0.04554
5864.47319,0.03227
5866.40166,0.02441
5868.33013,0.03521
5870.25860,0.08218
5872.18707,0.13442
5874.11554,0.14796
5876.04400,0.11523
5877.97247,0.07251
5879.90094,0.04092
5881.82941,0.00247
5883.75788,-0.01337
5885.68635,0.01925
5887.61482,0.04732
5889.54329,0.05615
5891.47175,0.08693
5893.40022,0.12725
5895.32869,0.12863
5897.25716,0.10132
5899.18563,0.10048
5901.11410,0.11909
5903.04257,0.12195
5904.97103,0.11931
5906.89950,0.12029
5908.82797,0.10954
5910.75644,0.08480
5912.68491,0.06658
5914.61338,0.05894
5916.54185,0.05569
5918.47032,0.06324
5920.39878,0.07538
5922.32725,0.09610
5924.25572,0.11883
5926.18419,0.11861
5928.11266,0.11632
5930.04113,0.11360
5931.96960,0.09139
5933.89806,0.07787
5935.82653,0.07845
5937.75500,0.07026
5939.68347,0.07670
5941.61194,0.10659
5943.54041,0.10242
5945.46888,0.05608
5947.39734,0.02783
5949.32581,0.03589
5951.25428,0.05734
5953.18275,0.07851
5955.11122,0.09700
5957.03969,0.10161
5958.96816,0.06872
5960.89663,0.01156
5962.82509,-0.00991
5964.75356,0.01283
5966.68203,0.03151
5968.61050,0.04036
5970.53897,0.08370
5972.46744,0.13793
5974.39591,0.13863
5976.32437,0.10555
5978.25284,0.07460
5980.18131,0.04809
5982.10978,0.04073
5984.03825,0.05210
5985.96672,0.04800
5987.89519,0.01912
5989.82366,0.01308
5991.75212,0.04127
5993.68059,0.05781
5995.60906,0.06320
5997.53753,0.08079
5999.46600,0.08827
6001.39447,0.06548
6003.32294,0.04657
6005.25140,0.07652
6007.17987,0.10855
6009.10834,0.09123
6011.03681,0.06126
6012.96528,0.05379
6014.89375,0.07739
6016.82222,0.12182
6018.75069,0.16254
6020.67915,0.17771
6022.60762,0.13522
6024.53609,0.06860
6026.46456,0.04630
6028.39303,0.05614
6030.32150,0.07781
6032.24997,0.12848
6034.17843,0.18348
6036.10690,0.19085
6038.03537,0.14219
6039.96384,0.08872
6041.89231,0.07348
6043.82078,0.06576
6045.74925,0.05412
6047.67772,0.08197
6049.60618,0.10984
6051.53465,0.08253
6053.46312,0.05503
6055.39159,0.06387
6057.32006,0.07462
6059.24853,0.05774
6061.17700,0.01463
6063.10546,0.00003
6065.03393,0.04420
6066.96240,0.07793
6068.89087,0.06777
6070.81934,0.03465
6072.74781,-0.00405
6074.67628,-0.02047
6076.60475,0.00514
6078.53321,0.04570
6080.46168,0.05257
6082.39015,0.03624
6084.31862,0.03859
6086.24709,0.06245
6088.17556,0.08988
6090.10403,0.11956
6092.03249,0.15895
6093.96096,0.19017
6095.88943,0.19981
6097.81790,0.18648
6099.74637,0.15725
6101.67484,0.14363
6103.60331,0.15341
6105.53177,0.17198
6107.46024,0.17404
6109.38871,0.12562
6111.31718,0.05806
6113.24565,0.03830
6115.17412,0.06275
6117.10259,0.09222
6119.03106,0.09378
6120.95952,0.06738
6122.88799,0.06763
6124.81646,0.08789
6126.74493,0.09174
6128.67340,0.10883
6130.60187,0.11730
6132.53034,0.08658
6134.45880,0.06400
6136.38727,0.05852
6138.31574,0.06784
6140.24421,0.09252
6142.17268,0.10429
6144.10115,0.11886
6146.02962,0.14514
6147.95809,0.16431
6149.88655,0.17025
6151.81502,0.12873
6153.74349,0.06598
6155.67196,0.06148
6157.60043,0.08365
6159.52890,0.08417
6161.45737,0.10623
6163.38583,0.15338
6165.31430,0.15136
6167.24277,0.13168
6169.17124,0.16120
6171.09971,0.16050
6173.02818,0.07599
6174.95665,0.01518
6176.88512,0.03432
6178.81358,0.07031
6180.74205,0.06711
6182.67052,0.04647
6184.59899,0.03965
6186.52746,0.02230
6188.45593,-0.01591
6190.38440,-0.02598
6192.31286,0.00814
6194.24133,0.04664
6196.16980,0.07658
6198.09827,0.11340
6200.02674,0.13928
6201.95521,0.13662
6203.88368,0.11352
6205.81215,0.08833
6207.74061,0.08271
6209.66908,0.08202
6211.59755,0.04956
6213.52602,0.02687
6215.45449,0.05625
6217.38296,0.08546
6219.31143,0.06335
6221.23989,0.00842
6223.16836,-0.03101
6225.09683,-0.00740
6227.02530,0.06529
6228.95377,0.11489
6230.88224,0.11634
6232.81071,0.09054
6234.73918,0.05281
6236.66764,0.02743
6238.59611,0.03225
6240.52458,0.06850
6242.45305,0.09127
6244.38152,0.04301
6246.30999,-0.03234
6248.23846,-0.04472
6250.16692,0.02097
6252.09539,0.06871
6254.02386,0.03517
6255.95233,0.01032
6257.88080,0.05102
6259.80927,0.07823
6261.73774,0.06577
6263.66621,0.06770
6265.59467,0.08426
6267.52314,0.09284
6269.45161,0.09983
6271.38008,0.12339
6273.30855,0.16686
6275.23702,0.16831
6277.16549,0.08044
6279.09395,-0.02701
6281.02242,-0.06289
6282.95089,-0.02146
6284.87936,0.04562
6286.80783,0.09365
6288.73630,0.09461
6290.66477,0.05238
6292.59323,0.02559
6294.52170,0.03834
6296.45017,0.04360
6298.37864,0.05449
6300.30711,0.11428
6302.23558,0.15939
6304.16405,0.14400
6306.09252,0.12483
6308.02098,0.10334
6309.94945,0.06996
6311.87792,0.06290
6313.80639,0.08077
6315.73486,0.12271
6317.66333,0.17270
6319.59180,0.17818
6321.52026,0.14181
6323.44873,0.07869
6325.37720,0.01715
6327.30567,0.00901
6329.23414,0.03168
6331.16261,0.03896
6333.09108,0.07709
6335.01955,0.13108
6336.94801,0.12142
6338.87648,0.08150
6340.80495,0.07433
6342.73342,0.13018
6344.66189,0.20256
6346.59036,0.19277
6348.51883,0.14409
6350.44729,0.13015
6352.37576,0.12292
6354.30423,0.08814
6356.23270,0.02454
6358.16117,-0.02174
6360.08964,-0.00250
6362.01811,0.04450
6363.94658,0.06502
6365.87504,0.06208
6367.80351,0.02623
6369.73198,0.00244
6371.66045,0.04126
6373.58892,0.06164
6375.51739,0.05958
6377.44586,0.08241
6379.37432,0.08547
6381.30279,0.07263
6383.23126,0.08074
6385.15973,0.09729
6387.08820,0.08177
6389.01667,0.03171
6390.94514,0.01394
6392.87361,0.06231
6394.80207,0.11969
6396.73054,0.13659
6398.65901,0.12666
6400.58748,0.11609
6402.51595,0.08955
6404.44442,0.04490
6406.37289,0.03540
6408.30135,0.07597
6410.22982,0.10829
6412.15829,0.10479
6414.08676,0.10177
6416.01523,0.11242
6417.94370,0.11836
6419.87217,0.10076
6421.80064,0.08941
6423.72910,0.12066
6425.65757,0.13960
6427.58604,0.10815
6429.51451,0.09648
6431.44298,0.11435
6433.37145,0.10273
6435.29992,0.07991
6437.22838,0.07316
6439.15685,0.06679
6441.08532,0.06888
6443.01379,0.09178
6444.94226,0.10783
6446.87073,0.11419
6448.79920,0.13207
6450.72766,0.13397
6452.65613,0.09661
6454.58460,0.05659
6456.51307,0.05248
6458.44154,0.07139
6460.37001,0.08656
6462.29848,0.10517
6464.22695,0.10343
6466.15541,0.06866
6468.08388,0.03383
6470.01235,0.01295
6471.94082,0.02633
6473.86929,0.06232
6475.79776,0.08047
6477.72623,0.08939
6479.65469,0.08113
6481.58316,0.04686
6483.51163,0.04787
6485.44010,0.07805
6487.36857,0.07937
6489.29704,0.05331
6491.22551,0.01767
6493.15398,-0.02578
6495.08244,-0.07456
6497.01091,-0.09284
6498.93938,-0.04263
6500.86785,0.06308
6502.79632,0.16801
6504.72479,0.21028
6506.65326,0.20319
6508.58172,0.19305
6510.51019,0.15958
6512.43866,0.08963
6514.36713,0.07105
6516.29560,0.12408
6518.22407,0.14274
6520.15254,0.12588
6522.08101,0.15273
6524.00947,0.18761
6525.93794,0.15519
6527.86641,0.10384
6529.79488,0.10224
6531.72335,0.12980
6533.65182,0.16138
6535.58029,0.18698
6537.50875,0.17414
6539.43722,0.13392
6541.36569,0.09207
6543.29416,0.00990
6545.22263,-0.08687
6547.15110,-0.10025
6549.07957,-0.03267
6551.00804,0.00990
6552.93650,-0.01677
6554.86497,-0.01667
6556.79344,0.02804
6558.72191,0.02793
6560.65038,0.01512
6562.57885,0.06916
6564.50732,0.09779
6566.43578,0.02196
6568.36425,-0.04155
6570.29272,-0.02192
6572.22119,-0.01392
6574.14966,-0.06198
6576.07813,-0.04717
6578.00660,0.07464
6579.93507,0.16359
6581.86353,0.13311
6583.79200,0.04727
6585.72047,-0.01957
6587.64894,-0.05972
6589.57741,-0.06997
6591.50588,-0.06571
6593.43435,-0.06421
6595.36281,-0.05721
6597.29128,-0.05929
6599.21975,-0.05179
6601.14822,0.02569
6603.07669,0.12094
6605.00516,0.11660
6606.93363,0.03851
6608.86210,0.04011
6610.79056,0.14260
6612.71903,0.15753
6614.64750,0.03821
6616.57597,-0.05981
6618.50444,-0.04974
6620.43291,0.04338
6622.36138,0.12179
6624.28984,0.12063
6626.21831,0.10493
6628.14678,0.10918
6630.07525,0.08786
6632.00372,0.03468
6633.93219,0.01974
6635.86066,0.08388
6637.78912,0.16118
6639.71759,0.15714
6641.64606,0.06247
6643.57453,-0.01590
6645.50300,0.00253
6647.43147,0.03822
6649.35994,0.03976
6651.28841,0.05248
6653.21687,0.08962
6655.14534,0.11663
6657.07381,0.10899
6659.00228,0.10001
6660.93075,0.08959
6662.85922,0.03741
6664.78769,0.00264
6666.71615,0.05275
6668.64462,0.15245
6670.57309,0.22865
6672.50156,0.22823
6674.43003,0.14129
6676.35850,0.03925
6678.28697,0.01382
6680.21544,0.06667
6682.14390,0.11691
6684.07237,0.12293
6686.00084,0.10798
6687.92931,0.07545
6689.85778,0.00544
6691.78625,-0.03681
6693.71472,-0.02243
6695.64318,-0.01293
6697.57165,-0.00931
6699.50012,0.05281
6701.42859,0.16239
6703.35706,0.22439
6705.28553,0.18979
6707.21400,0.14165
6709.14247,0.13032
6711.07093,0.12217
6712.99940,0.09823
6714.92787,0.02611
6716.85634,-0.04738
6718.78481,-0.02638
6720.71328,0.03609
6722.64175,0.05921
6724.57021,0.04428
6726.49868,-0.01322
6728.42715,-0.03678
6730.35562,0.04692
6732.28409,0.14388
6734.21256,0.19542
6736.14103,0.23065
6738.06950,0.22956
6739.99796,0.17098
6741.92643,0.08468
6743.85490,0.04924
6745.78337,0.07065
6747.71184,0.05461
6749.64031,-0.03096
6751.56878,-0.06726
6753.49724,0.00345
6755.42571,0.10465
6757.35418,0.18975
6759.28265,0.27428
6761.21112,0.28606
6763.13959,0.14549
6765.06806,0.01819
6766.99653,0.00814
6768.92499,-0.04083
6770.85346,-0.11801
6772.78193,-0.07174
6774.71040,0.05589
6776.63887,0.15894
6778.56734,0.17511
6780.49581,0.10965
6782.42427,0.02604
6784.35274,-0.00444
6786.28121,0.02523
6788.20968,0.06846
6790.13815,0.09393
6792.06662,0.09024
6793.99509,0.09809
6795.92355,0.14314
6797.85202,0.17005
6799.78049,0.16043
6801.70896,0.12626
6803.63743,0.07709
6805.56590,0.06944
6807.49437,0.11387
6809.42284,0.14166
6811.35130,0.12088
6813.27977,0.07305
6815.20824,0.02710
6817.13671,0.02257
6819.06518,0.02529
6820.99365,-0.06025
6822.92212,-0.18645
6824.85058,-0.15218
6826.77905,0.01984
6828.70752,0.17358
6830.63599,0.23224
6832.56446,0.20266
6834.49293,0.12737
6836.42140,0.07457
6838.34987,0.05046
6840.27833,-0.00951
6842.20680,-0.08045
6844.13527,-0.10546
6846.06374,-0.08219
6847.99221,-0.05302
6849.92068,-0.03945
6851.84915,0.02051
6853.77761,0.11940
6855.70608,0.19786
6857.63455,0.23703
6859.56302,0.24413
6861.49149,0.20632
6863.41996,0.10604
6865.34843,-0.01376
6867.27690,-0.08364
6869.20536,-0.07493
6871.13383,-0.04771
6873.06230,-0.07162
6874.99077,-0.04978
6876.91924,0.10007
6878.84771,0.23870
6880.77618,0.22451
6882.70464,0.12462
6884.63311,0.03695
6886.56158,0.03349
6888.49005,0.10441
6890.41852,0.11381
6892.34699,0.03921
6894.27546,-0.02276
6896.20393,-0.01632
6898.13239,0.02994
6900.06086,0.03403
6901.98933,-0.00878
6903.91780,-0.07192
6905.84627,-0.13320
6907.77474,-0.14248
6909.70321,-0.06959
6911.63167,-0.02925
6913.56014,-0.10849
6915.48861,-0.14696
6917.41708,-0.02534
6919.34555,0.14489
6921.27402,0.18619
6923.20249,0.13338
6925.13096,0.10507
6927.05942,0.10645
6928.98789,0.09869
6930.91636,0.10223
6932.84483,0.11936
6934.77330,0.06187
6936.70177,-0.02434
6938.63024,-0.02541
6940.55870,0.05229
6942.48717,0.10830
6944.41564,0.13016
6946.34411,0.13690
6948.27258,0.13331
6950.20105,0.14886
6952.12952,0.16507
6954.05799,0.17178
6955.98645,0.15751
6957.91492,0.11596
6959.84339,0.08876
6961.77186,0.05229
6963.70033,0.01489
6965.62880,-0.00162
6967.55727,-0.03180
6969.48573,-0.04842
6971.41420,0.03800
6973.34267,0.22527
6975.27114,0.32059
6977.19961,0.24214
6979.12808,0.16020
6981.05655,0.13961
6982.98501,0.11775
6984.91348,0.04706
6986.84195,-0.01562
6988.77042,-0.05010
6990.69889,-0.13721
6992.62736,-0.22469
6994.55583,-0.20808
6996.48430,-0.06398
6998.41276,0.12090
7000.34123,0.16945
7002.26970,0.11549
7004.19817,0.07957
7006.12664,0.09403
7008.05511,0.16366
7009.98358,0.19000
7011.91204,0.14353
7013.84051,0.10317
7015.76898,0.08450
7017.69745,0.07278
7019.62592,0.09399
7021.55439,0.12115
7023.48286,0.10906
7025.41133,0.10881
7027.33979,0.14186
7029.26826,0.10428
7031.19673,-0.03567
7033.12520,-0.19211
7035.05367,-0.22755
7036.98214,-0.14540
7038.91061,-0.13996
7040.83907,-0.19032
7042.76754,-0.13049
7044.69601,0.01263
7046.62448,0.14964
7048.55295,0.21513
7050.48142,0.14983
7052.40989,0.05984
7054.33836,0.04906
7056.26682,0.11681
7058.19529,0.18981
7060.12376,0.12215
7062.05223,-0.03695
7063.98070,-0.08021
7065.90917,0.01128
7067.83764,0.10550
7069.76610,0.12886
7071.69457,0.09124
7073.62304,0.10715
7075.55151,0.16310
7077.47998,0.17176
7079.40845,0.11290
7081.33692,-0.00107
7083.26539,-0.08620
7085.19385,-0.05359
7087.12232,0.05040
7089.05079,0.08298
7090.97926,0.02539
7092.90773,-0.05689
7094.83620,-0.07561
7096.76467,0.04863
7098.69313,0.22996
7100.62160,0.33462
7102.55007,0.36240
7104.47854,0.31615
7106.40701,0.21720
7108.33548,0.16129
7110.26395,0.17307
7112.19242,0.11803
7114.12088,-0.05556
7116.04935,-0.12820
7117.97782,0.05915
7119.90629,0.21400
7121.83476,0.16893
7123.76323,0.09552
7125.69170,0.05330
7127.62016,0.05554
7129.54863,0.11626
7131.47710,0.13405
7133.40557,0.06902
7135.33404,0.01715
7137.26251,0.01383
7139.19098,0.02224
7141.11944,0.01783
7143.04791,0.01009
7144.97638,0.02651
7146.90485,0.07510
7148.83332,0.15562
7150.76179,0.23411
7152.69026,0.22616
7154.61873,0.06727
7156.54719,-0.10027
7158.47566,-0.08944
7160.40413,0.01825
7162.33260,0.00311
7164.26107,-0.19985
7166.18954,-0.37349
7168.11801,-0.27268
7170.04647,-0.01619
7171.97494,0.14278
7173.90341,0.14528
7175.83188,0.08790
7177.76035,0.08513
7179.68882,0.16476
7181.61729,0.32900
7183.54576,0.42281
7185.47422,0.26728
7187.40269,0.06375
7189.33116,-0.03915
7191.25963,0.00644
7193.18810,0.20058
7195.11657,0.33575
7197.04504,0.28124
7198.97350,0.15802
7200.90197,0.07294
7202.83044,0.02055
7204.75891,-0.00213
7206.68738,0.01696
7208.61585,0.05429
7210.54432,0.03863
7212.47279,-0.02215
7214.40125,-0.00793
7216.32972,0.08403
7218.25819,0.06516
7220.18666,-0.03186
7222.11513,-0.04793
7224.04360,-0.05202
7225.97207,-0.12538
7227.90053,-0.20791
7229.82900,-0.19854
7231.75747,-0.08855
7233.68594,-0.00164
7235.61441,0.03235
7237.54288,0.06386
7239.47135,0.07402
7241.39982,0.10982
7243.32828,0.17924
7245.25675,0.16354
7247.18522,0.15768
7249.11369,0.21808
7251.04216,0.26405
7252.97063,0.24372
7254.89910,0.16340
7256.82756,0.07258
7258.75603,0.02209
7260.68450,0.06228
7262.61297,0.13136
7264.54144,0.20503
7266.46991,0.25608
7268.39838,0.15982
7270.32685,-0.02625
7272.25531,-0.15291
7274.18378,-0.16938
7276.11225,-0.13751
7278.04072,-0.16134
7279.96919,-0.16868
7281.89766,0.01405
7283.82613,0.13723
7285.75459,0.10955
7287.68306,0.06564
7289.61153,0.06538
7291.54000,0.14368
7293.46847,0.14778
7295.39694,0.00096
7297.32541,-0.07218
7299.25387,-0.01079
7301.18234,0.08916
7303.11081,0.13092
7305.03928,0.04998
7306.96775,-0.01094
7308.89622,0.10019
7310.82469,0.19739
7312.75316,0.16418
7314.68162,0.09036
7316.61009,0.01865
7318.53856,0.00473
7320.46703,-0.02357
7322.39550,-0.14115
7324.32397,-0.27632
7326.25244,-0.31097
7328.18090,-0.13686
7330.10937,0.22803
7332.03784,0.44733
7333.96631,0.38422
7335.89478,0.17459
7337.82325,-0.06217
7339.75172,-0.24665
7341.68019,-0.19486
7343.60865,-0.07776
7345.53712,-0.12512
7347.46559,-0.31429
7349.39406,-0.35162
7351.32253,-0.15981
7353.25100,0.04181
7355.17947,0.19723
7357.10793,0.32368
7359.03640,0.36236
7360.96487,0.36274
7362.89334,0.38113
7364.82181,0.37982
7366.75028,0.35427
7368.67875,0.33124
7370.60722,0.26249
7372.53568,0.17850
7374.46415,0.18932
7376.39262,0.24753
7378.32109,0.18806
7380.24956,0.06232
7382.17803,0.01328
7384.10650,0.08971
7386.03496,0.08533
7387.96343,0.00220
7389.89190,0.05216
7391.82037,0.19325
7393.74884,0.23148
7395.67731,0.05612
7397.60578,-0.10660
7399.53425,-0.11056
7401.46271,-0.10080
7403.39118,-0.03028
7405.31965,0.20996
7407.24812,0.34300
7409.17659,0.23796
7411.10506,0.09008
7413.03353,0.01943
7414.96199,-0.03171
7416.89046,-0.09597
7418.81893,-0.15290
7420.74740,-0.14371
7422.67587,-0.05623
7424.60434,0.02921
7426.53281,0.06442
7428.46128,0.10175
7430.38974,0.08146
7432.31821,-0.08468
7434.24668,-0.22864
7436.17515,-0.17830
7438.10362,0.01612
7440.03209,0.12719
7441.96056,0.17694
7443.88902,0.32559
7445.81749,0.43445
7447.74596,0.27866
7449.67443,-0.14319
7451.60290,-0.44356
7453.53137,-0.30931
7455.45984,-0.04928
7457.38831,0.09731
7459.31677,0.16077
7461.24524,0.22244
7463.17371,0.29274
7465.10218,0.27174
7467.03065,0.13061
7468.95912,0.06357
7470.88759,0.13382
7472.81605,0.14052
7474.74452,-0.02823
7476.67299,-0.20607
7478.60146,-0.23412
7480.52993,-0.12721
7482.45840,0.07960
7484.38687,0.25339
7486.31533,0.25704
7488.24380,0.12408
7490.17227,0.00692
7492.10074,0.01712
7494.02921,0.08461
7495.95768,0.10756
7497.88615,0.05035
