399.19301,0.59963
401.12148,0.36608
403.04995,0.13021
404.97842,0.07596
406.90689,0.08094
408.83536,0.04745
410.76382,0.05379
412.69229,0.06754
414.62076,0.02641
416.54923,-0.01961
418.47770,-0.02803
420.40617,0.02739
422.33464,0.10043
424.26311,0.08306
426.19157,-0.04293
428.12004,-0.14794
430.04851,-0.13460
431.97698,-0.01227
433.90545,0.08982
435.83392,0.13011
437.76239,0.15494
439.69085,0.16708
441.61932,0.15060
443.54779,0.16848
445.47626,0.20612
447.40473,0.16984
449.33320,0.04676
451.26167,-0.04941
453.19013,-0.01156
455.11860,0.08354
457.04707,0.14001
458.97554,0.15185
460.90401,0.11888
462.83248,0.05968
464.76095,0.02742
466.68942,0.04981
468.61788,0.10685
470.54635,0.15427
472.47482,0.11530
474.40329,0.02116
476.33176,0.03516
478.26023,0.08129
480.18870,0.09927
482.11716,0.07833
484.04563,0.03975
485.97410,0.03773
487.90257,0.03830
489.83104,0.00900
491.75951,0.03189
493.68798,0.09284
495.61645,0.10745
497.54491,0.09533
499.47338,0.10315
501.40185,0.10391
503.33032,0.08884
505.25879,0.10013
507.18726,0.10056
509.11573,0.06977
511.04419,0.05930
512.97266,0.07395
514.90113,0.08879
516.82960,0.08145
518.75807,0.05349
520.68654,0.06108
522.61501,0.12837
524.54348,0.17337
526.47194,0.11241
528.40041,0.02770
530.32888,0.01403
532.25735,0.03357
534.18582,0.05825
536.11429,0.08510
538.04276,0.08578
539.97122,0.07495
541.89969,0.08934
543.82816,0.11901
545.75663,0.12433
547.68510,0.09987
549.61357,0.19900
551.54204,0.91221
553.47051,1.75974
555.39897,1.45760
557.32744,0.49382
559.25591,0.11174
561.18438,0.11333
563.11285,0.09696
565.04132,0.07458
566.96979,0.07643
568.89825,0.08287
570.82672,0.07586
572.75519,0.09215
574.68366,0.12630
576.61213,0.13800
578.54060,0.11384
580.46907,0.08363
582.39754,0.07850
584.32600,0.10175
586.25447,0.12187
588.18294,0.11694
590.11141,0.09939
592.03988,0.07801
593.96835,0.07023
595.89682,0.09033
597.82528,0.11583
599.75375,0.10017
601.68222,0.04946
603.61069,0.02536
605.53916,0.04913
607.46763,0.08278
609.39610,0.09738
611.32456,0.09373
613.25303,0.08016
615.18150,0.07529
617.10997,0.07985
619.03844,0.07558
620.96691,0.06580
622.89538,0.06735
624.82385,0.08792
626.75231,0.11528
628.68078,0.12204
630.60925,0.11054
632.53772,0.10706
634.46619,0.10853
636.39466,0.09883
638.32313,0.08059
640.25159,0.07615
642.18006,0.09022
644.10853,0.09857
646.03700,0.09384
647.96547,0.08573
649.89394,0.08875
651.82241,0.10860
653.75088,0.12533
655.67934,0.12150
657.60781,0.10807
659.53628,0.09701
661.46475,0.09557
663.39322,0.10666
665.32169,0.11588
667.25016,0.12118
669.17862,0.13510
671.10709,0.13959
673.03556,0.12964
674.96403,0.11915
676.89250,0.11572
678.82097,0.11491
680.74944,0.11371
682.67791,0.11804
684.60637,0.13505
686.53484,0.14839
688.46331,0.14204
690.39178,0.13261
692.32025,0.12292
694.24872,0.10941
696.17719,0.10785
698.10565,0.11547
700.03412,0.12102
701.96259,0.12511
703.89106,0.12594
705.81953,0.12775
707.74800,0.13550
709.67647,0.14570
711.60494,0.14943
713.53340,0.14152
715.46187,0.13420
717.39034,0.13520
719.31881,0.13596
721.24728,0.13013
723.17575,0.11920
725.10422,0.11191
727.03268,0.11034
728.96115,0.10620
730.88962,0.10437
732.81809,0.11100
734.74656,0.11847
736.67503,0.12359
738.60350,0.12473
740.53197,0.11994
742.46043,0.11035
744.38890,0.10374
746.31737,0.11518
748.24584,0.13613
750.17431,0.14245
752.10278,0.13480
754.03125,0.12774
755.95971,0.12073
757.88818,0.11381
759.81665,0.11779
761.74512,0.12570
763.67359,0.12429
765.60206,0.11874
767.53053,0.11777
769.45900,0.12568
771.38746,0.13412
773.31593,0.12770
775.24440,0.11396
777.17287,0.11076
779.10134,0.11471
781.02981,0.11439
782.95828,0.11119
784.88674,0.11574
786.81521,0.12799
788.74368,0.13321
790.67215,0.12896
792.60062,0.12168
794.52909,0.11731
796.45756,0.12181
798.38602,0.12675
800.31449,0.12640
802.24296,0.12921
804.17143,0.13298
806.09990,0.12778
808.02837,0.12212
809.95684,0.12719
811.88531,0.13471
813.81377,0.13294
815.74224,0.12210
817.67071,0.11456
819.59918,0.11905
821.52765,0.12797
823.45612,0.12698
825.38459,0.11200
827.31305,0.10026
829.24152,0.10844
831.16999,0.12263
833.09846,0.12499
835.02693,0.12208
836.95540,0.12131
838.88387,0.12169
840.81234,0.12433
842.74080,0.12643
844.66927,0.12713
846.59774,0.12992
848.52621,0.13637
850.45468,0.14539
852.38315,0.14702
854.31162,0.13732
856.24008,0.12571
858.16855,0.11713
860.09702,0.11957
862.02549,0.13266
863.95396,0.13846
865.88243,0.13317
867.81090,0.12470
869.73937,0.11991
871.66783,0.12784
873.59630,0.14296
875.52477,0.14858
877.45324,0.14079
879.38171,0.13000
881.31018,0.12982
883.23865,0.13719
885.16711,0.13576
887.09558,0.12727
889.02405,0.12518
890.95252,0.13103
892.88099,0.13708
894.80946,0.13835
896.73793,0.13659
898.66640,0.13417
900.59486,0.13058
902.52333,0.12726
904.45180,0.12794
906.38027,0.13186
908.30874,0.13491
910.23721,0.13627
912.16568,0.14013
914.09414,0.14173
916.02261,0.13375
917.95108,0.12653
919.87955,0.12401
921.80802,0.11673
923.73649,0.10984
925.66496,0.11260
927.59343,0.12110
929.52189,0.12851
931.45036,0.13015
933.37883,0.12600
935.30730,0.12161
937.23577,0.11957
939.16424,0.11930
941.09271,0.11845
943.02117,0.11666
944.94964,0.12051
946.87811,0.13120
948.80658,0.14156
950.73505,0.14863
952.66352,0.15149
954.59199,0.14863
956.52045,0.14246
958.44892,0.13939
960.37739,0.14288
962.30586,0.14599
964.23433,0.14539
966.16280,0.14653
968.09127,0.14730
970.01974,0.14579
971.94820,0.14592
973.87667,0.14360
975.80514,0.14027
977.73361,0.14562
979.66208,0.14952
981.59055,0.14081
983.51902,0.13343
985.44748,0.13503
987.37595,0.13526
989.30442,0.13121
991.23289,0.13063
993.16136,0.13442
995.08983,0.13652
997.01830,0.13736
998.94677,0.14178
1000.87523,0.14893
1002.80370,0.15366
1004.73217,0.15207
1006.66064,0.14442
1008.58911,0.13631
1010.51758,0.13262
1012.44605,0.13323
1014.37451,0.13592
1016.30298,0.13709
1018.23145,0.13731
1020.15992,0.14045
1022.08839,0.14203
1024.01686,0.13893
1025.94533,0.12701
1027.87380,0.10554
1029.80226,0.10643
1031.73073,0.13557
1033.65920,0.15239
1035.58767,0.15087
1037.51614,0.14906
1039.44461,0.15070
1041.37308,0.15164
1043.30154,0.14893
1045.23001,0.14894
1047.15848,0.15417
1049.08695,0.15641
1051.01542,0.15122
1052.94389,0.14518
1054.87236,0.14469
1056.80083,0.14700
1058.72929,0.14470
1060.65776,0.13810
1062.58623,0.13624
1064.51470,0.13750
1066.44317,0.13650
1068.37164,0.14083
1070.30011,0.15256
1072.22857,0.15862
1074.15704,0.15819
1076.08551,0.15961
1078.01398,0.15460
1079.94245,0.14523
1081.87092,0.14797
1083.79939,0.15415
1085.72786,0.14719
1087.65632,0.13717
1089.58479,0.13984
1091.51326,0.15015
1093.44173,0.15783
1095.37020,0.16572
1097.29867,0.17448
1099.22714,0.17619
1101.15560,0.17299
1103.08407,0.17285
1105.01254,0.17156
1106.94101,0.16320
1108.86948,0.15463
1110.79795,0.15273
1112.72642,0.15625
1114.65489,0.15866
1116.58335,0.15399
1118.51182,0.14846
1120.44029,0.14767
1122.36876,0.14746
1124.29723,0.14630
1126.22570,0.14699
1128.15417,0.15156
1130.08263,0.15611
1132.01110,0.15606
1133.93957,0.15592
1135.86804,0.15775
1137.79651,0.15659
1139.72498,0.15380
1141.65345,0.15152
1143.58191,0.14998
1145.51038,0.15112
1147.43885,0.15137
1149.36732,0.15108
1151.29579,0.15575
1153.22426,0.16134
1155.15273,0.16220
1157.08120,0.16167
1159.00966,0.16190
1160.93813,0.15926
1162.86660,0.15670
1164.79507,0.15871
1166.72354,0.15943
1168.65201,0.15695
1170.58048,0.15805
1172.50894,0.16143
1174.43741,0.16272
1176.36588,0.16483
1178.29435,0.16793
1180.22282,0.16846
1182.15129,0.16693
1184.07976,0.16157
1186.00823,0.15256
1187.93669,0.15131
1189.86516,0.15679
1191.79363,0.15617
1193.72210,0.15493
1195.65057,0.16050
1197.57904,0.16494
1199.50751,0.16306
1201.43597,0.15844
1203.36444,0.15741
1205.29291,0.16213
1207.22138,0.16568
1209.14985,0.16395
1211.07832,0.16206
1213.00679,0.16267
1214.93526,0.16350
1216.86372,0.16271
1218.79219,0.16040
1220.72066,0.15835
1222.64913,0.15882
1224.57760,0.16195
1226.50607,0.16283
1228.43454,0.15835
1230.36300,0.15591
1232.29147,0.16058
1234.21994,0.16480
1236.14841,0.16335
1238.07688,0.16041
1240.00535,0.15949
1241.93382,0.15999
1243.86229,0.16050
1245.79075,0.15989
1247.71922,0.15888
1249.64769,0.15966
1251.57616,0.16079
1253.50463,0.16143
1255.43310,0.16322
1257.36157,0.16360
1259.29003,0.16208
1261.21850,0.16173
1263.14697,0.16228
1265.07544,0.16261
1267.00391,0.16274
1268.93238,0.16319
1270.86085,0.16378
1272.78932,0.16353
1274.71778,0.16427
1276.64625,0.16654
1278.57472,0.16651
1280.50319,0.16522
1282.43166,0.16752
1284.36013,0.17007
1286.28860,0.16774
1288.21706,0.16432
1290.14553,0.16350
1292.07400,0.16306
1294.00247,0.16279
1295.93094,0.16396
1297.85941,0.16503
1299.78788,0.16297
1301.71634,0.15533
1303.64481,0.14694
1305.57328,0.14810
1307.50175,0.15803
1309.43022,0.16689
1311.35869,0.17177
1313.28716,0.17398
1315.21563,0.17449
1317.14409,0.17556
1319.07256,0.17629
1321.00103,0.17466
1322.92950,0.17253
1324.85797,0.17045
1326.78644,0.16779
1328.71491,0.16618
1330.64337,0.16445
1332.57184,0.16352
1334.50031,0.16715
1336.42878,0.17200
1338.35725,0.17468
1340.28572,0.17422
1342.21419,0.17227
1344.14266,0.17330
1346.07112,0.17384
1347.99959,0.17158
1349.92806,0.17112
1351.85653,0.17086
1353.78500,0.16692
1355.71347,0.16355
1357.64194,0.16691
1359.57040,0.17597
1361.49887,0.18343
1363.42734,0.18178
1365.35581,0.17629
1367.28428,0.17591
1369.21275,0.17913
1371.14122,0.18331
1373.06969,0.18831
1374.99815,0.18745
1376.92662,0.18007
1378.85509,0.17545
1380.78356,0.17433
1382.71203,0.17532
1384.64050,0.18032
1386.56897,0.18727
1388.49743,0.18773
1390.42590,0.18287
1392.35437,0.18460
1394.28284,0.19541
1396.21131,0.20343
1398.13978,0.20136
1400.06825,0.19445
1401.99672,0.18942
1403.92518,0.18728
1405.85365,0.18336
1407.78212,0.17815
1409.71059,0.17668
1411.63906,0.17698
1413.56753,0.17687
1415.49600,0.18121
1417.42446,0.19121
1419.35293,0.19379
1421.28140,0.18674
1423.20987,0.18261
1425.13834,0.17926
1427.06681,0.18002
1428.99528,0.18842
1430.92375,0.19227
1432.85221,0.18941
1434.78068,0.19286
1436.70915,0.19707
1438.63762,0.18805
1440.56609,0.17947
1442.49456,0.17843
1444.42303,0.18181
1446.35149,0.18585
1448.27996,0.18543
1450.20843,0.18221
1452.13690,0.18505
1454.06537,0.20114
1455.99384,0.23388
1457.92231,0.24657
1459.85077,0.21775
1461.77924,0.19995
1463.70771,0.20024
1465.63618,0.20155
1467.56465,0.19522
1469.49312,0.19812
1471.42159,0.21905
1473.35006,0.23461
1475.27852,0.22083
1477.20699,0.20193
1479.13546,0.19266
1481.06393,0.19173
1482.99240,0.19322
1484.92087,0.19681
1486.84934,0.20516
1488.77780,0.21454
1490.70627,0.21325
1492.63474,0.20521
1494.56321,0.20418
1496.49168,0.21108
1498.42015,0.21190
1500.34862,0.20142
1502.27709,0.19354
1504.20555,0.20713
1506.13402,0.25710
1508.06249,0.26764
1509.99096,0.22749
1511.91943,0.20935
1513.84790,0.21209
1515.77637,0.22608
1517.70483,0.23735
1519.63330,0.24504
1521.56177,0.25031
1523.49024,0.23837
1525.41871,0.22519
1527.34718,0.21755
1529.27565,0.21248
1531.20412,0.21589
1533.13258,0.22273
1535.06105,0.22051
1536.98952,0.22856
1538.91799,0.26796
1540.84646,0.30072
1542.77493,0.26993
1544.70340,0.23452
1546.63186,0.21410
1548.56033,0.20752
1550.48880,0.20883
1552.41727,0.21474
1554.34574,0.22634
1556.27421,0.24891
1558.20268,0.27998
1560.13115,0.24947
1562.05961,0.21082
1563.98808,0.20178
1565.91655,0.20336
1567.84502,0.20922
1569.77349,0.21212
1571.70196,0.20447
1573.63043,0.20289
1575.55889,0.21049
1577.48736,0.20705
1579.41583,0.19524
1581.34430,0.18731
1583.27277,0.18334
1585.20124,0.18341
1587.12971,0.18504
1589.05818,0.18629
1590.98664,0.18643
1592.91511,0.18502
1594.84358,0.18445
1596.77205,0.18422
1598.70052,0.18321
1600.62899,0.18403
1602.55746,0.18730
1604.48592,0.19023
1606.41439,0.19178
1608.34286,0.19337
1610.27133,0.19349
1612.19980,0.19339
1614.12827,0.19955
1616.05674,0.21100
1617.98521,0.20979
1619.91367,0.20127
1621.84214,0.20332
1623.77061,0.20953
1625.69908,0.20871
1627.62755,0.20675
1629.55602,0.20328
1631.48449,0.20175
1633.41295,0.21346
1635.34142,0.23270
1637.26989,0.22498
1639.19836,0.20842
1641.12683,0.20384
1643.05530,0.21015
1644.98377,0.23025
1646.91223,0.24999
1648.84070,0.24085
1650.76917,0.23781
1652.69764,0.25777
1654.62611,0.24479
1656.55458,0.21536
1658.48305,0.20702
1660.41152,0.21819
1662.33998,0.23092
1664.26845,0.22348
1666.19692,0.21753
1668.12539,0.22916
1670.05386,0.24061
1671.98233,0.23649
1673.91080,0.23206
1675.83926,0.22601
1677.76773,0.21798
1679.69620,0.21976
1681.62467,0.23547
1683.55314,0.25298
1685.48161,0.24187
1687.41008,0.22573
1689.33855,0.21722
1691.26701,0.21054
1693.19548,0.21496
1695.12395,0.23603
1697.05242,0.25812
1698.98089,0.26243
1700.90936,0.24676
1702.83783,0.23039
1704.76629,0.22299
1706.69476,0.21277
1708.62323,0.20206
1710.55170,0.19972
1712.48017,0.20802
1714.40864,0.22782
1716.33711,0.24798
1718.26558,0.23769
1720.19404,0.21327
1722.12251,0.20179
1724.05098,0.19820
1725.97945,0.19721
1727.90792,0.20151
1729.83639,0.21094
1731.76486,0.22433
1733.69332,0.23272
1735.62179,0.22075
1737.55026,0.21303
1739.47873,0.21482
1741.40720,0.21425
1743.33567,0.21360
1745.26414,0.21717
1747.19261,0.22381
1749.12107,0.22841
1751.04954,0.21961
1752.97801,0.20507
1754.90648,0.19942
1756.83495,0.19986
1758.76342,0.20057
1760.69189,0.20378
1762.62035,0.20398
1764.54882,0.19959
1766.47729,0.20236
1768.40576,0.21462
1770.33423,0.23049
1772.26270,0.23561
1774.19117,0.22055
1776.11964,0.20722
1778.04810,0.20538
1779.97657,0.20709
1781.90504,0.20344
1783.83351,0.19757
1785.76198,0.19438
1787.69045,0.19470
1789.61892,0.20120
1791.54738,0.21226
1793.47585,0.21538
1795.40432,0.20844
1797.33279,0.20122
1799.26126,0.20027
1801.18973,0.20374
1803.11820,0.20212
1805.04666,0.19690
1806.97513,0.19454
1808.90360,0.19624
1810.83207,0.19815
1812.76054,0.19591
1814.68901,0.19316
1816.61748,0.19339
1818.54595,0.19374
1820.47441,0.19326
1822.40288,0.19562
1824.33135,0.20010
1826.25982,0.20350
1828.18829,0.20812
1830.11676,0.20885
1832.04523,0.20058
1833.97369,0.19425
1835.90216,0.19263
1837.83063,0.19111
1839.75910,0.19052
1841.68757,0.19414
1843.61604,0.20030
1845.54451,0.20096
1847.47298,0.19636
1849.40144,0.19261
1851.32991,0.19049
1853.25838,0.18950
1855.18685,0.18976
1857.11532,0.19068
1859.04379,0.19116
1860.97226,0.19165
1862.90072,0.19295
1864.82919,0.19646
1866.75766,0.20464
1868.68613,0.21046
1870.61460,0.20190
1872.54307,0.18910
1874.47154,0.18405
1876.40001,0.18618
1878.32847,0.19036
1880.25694,0.19262
1882.18541,0.19193
1884.11388,0.19012
1886.04235,0.19054
1887.97082,0.19619
1889.89929,0.20154
1891.82775,0.20021
1893.75622,0.19814
1895.68469,0.19619
1897.61316,0.19161
1899.54163,0.18965
1901.47010,0.19146
1903.39857,0.19229
1905.32704,0.19184
1907.25550,0.19266
1909.18397,0.19402
1911.11244,0.19413
1913.04091,0.19440
1914.96938,0.19689
1916.89785,0.19882
1918.82632,0.19615
1920.75478,0.19485
1922.68325,0.19740
1924.61172,0.19597
1926.54019,0.19206
1928.46866,0.19127
1930.39713,0.19060
1932.32560,0.18884
1934.25407,0.18880
1936.18253,0.18895
1938.11100,0.18901
1940.03947,0.19356
1941.96794,0.20048
1943.89641,0.20119
1945.82488,0.19602
1947.75335,0.19121
1949.68181,0.18869
1951.61028,0.18762
1953.53875,0.18802
1955.46722,0.18896
1957.39569,0.18827
1959.32416,0.18775
1961.25263,0.18991
1963.18110,0.19344
1965.10956,0.19679
1967.03803,0.19718
1968.96650,0.19324
1970.89497,0.19010
1972.82344,0.19036
1974.75191,0.19233
1976.68038,0.19729
1978.60884,0.20220
1980.53731,0.20013
1982.46578,0.19582
1984.39425,0.19535
1986.32272,0.19579
1988.25119,0.19610
1990.17966,0.19747
1992.10812,0.19829
1994.03659,0.19692
1995.96506,0.19545
1997.89353,0.19500
1999.82200,0.19287
2001.75047,0.18912
2003.67894,0.18745
2005.60741,0.18869
2007.53587,0.19018
2009.46434,0.19162
2011.39281,0.19301
2013.32128,0.19295
2015.24975,0.19331
2017.17822,0.19474
2019.10669,0.19423
2021.03515,0.19143
2022.96362,0.18762
2024.89209,0.18427
2026.82056,0.18360
2028.74903,0.18604
2030.67750,0.19036
2032.60597,0.19365
2034.53444,0.19352
2036.46290,0.19178
2038.39137,0.19137
2040.31984,0.19263
2042.24831,0.19254
2044.17678,0.18961
2046.10525,0.18667
2048.03372,0.18637
2049.96218,0.18846
2051.89065,0.19010
2053.81912,0.19094
2055.74759,0.19253
2057.67606,0.19364
2059.60453,0.19381
2061.53300,0.19405
2063.46147,0.19481
2065.38993,0.19508
2067.31840,0.19333
2069.24687,0.19192
2071.17534,0.19328
2073.10381,0.19422
2075.03228,0.19171
2076.96075,0.18888
2078.88921,0.18963
2080.81768,0.19285
2082.74615,0.19487
2084.67462,0.19482
2086.60309,0.19490
2088.53156,0.19566
2090.46003,0.19656
2092.38850,0.19686
2094.31696,0.19572
2096.24543,0.19426
2098.17390,0.19341
2100.10237,0.19262
2102.03084,0.19135
2103.95931,0.19028
2105.88778,0.19112
2107.81624,0.19377
2109.74471,0.19538
2111.67318,0.19446
2113.60165,0.19385
2115.53012,0.19534
2117.45859,0.19738
2119.38706,0.19897
2121.31553,0.19845
2123.24399,0.19450
2125.17246,0.19094
2127.10093,0.19201
2129.02940,0.19512
2130.95787,0.19592
2132.88634,0.19408
2134.81481,0.18999
2136.74327,0.18666
2138.67174,0.18863
2140.60021,0.19331
2142.52868,0.19639
2144.45715,0.19729
2146.38562,0.19658
2148.31409,0.19607
2150.24255,0.19596
2152.17102,0.19564
2154.09949,0.19608
2156.02796,0.19719
2157.95643,0.19706
2159.88490,0.19383
2161.81337,0.18987
2163.74184,0.18965
2165.67030,0.19312
2167.59877,0.19606
2169.52724,0.19599
2171.45571,0.19529
2173.38418,0.19601
2175.31265,0.19678
2177.24112,0.19628
2179.16958,0.19477
2181.09805,0.19403
2183.02652,0.19452
2184.95499,0.19459
2186.88346,0.19445
2188.81193,0.19460
2190.74040,0.19418
2192.66887,0.19362
2194.59733,0.19295
2196.52580,0.19131
2198.45427,0.19093
2200.38274,0.19327
2202.31121,0.19541
2204.23968,0.19631
2206.16815,0.19716
2208.09661,0.19646
2210.02508,0.19366
2211.95355,0.19217
2213.88202,0.19303
2215.81049,0.19327
2217.73896,0.19266
2219.66743,0.19343
2221.59590,0.19563
2223.52436,0.19807
2225.45283,0.19988
2227.38130,0.20029
2229.30977,0.19932
2231.23824,0.19677
2233.16671,0.19408
2235.09518,0.19393
2237.02364,0.19481
2238.95211,0.19464
2240.88058,0.19367
2242.80905,0.19279
2244.73752,0.19440
2246.66599,0.19806
2248.59446,0.19905
2250.52293,0.19643
2252.45139,0.19432
2254.37986,0.19401
2256.30833,0.19381
2258.23680,0.19397
2260.16527,0.19499
2262.09374,0.19620
2264.02221,0.19759
2265.95067,0.20050
2267.87914,0.20401
2269.80761,0.20464
2271.73608,0.20170
2273.66455,0.19753
2275.59302,0.19532
2277.52149,0.19478
2279.44996,0.19303
2281.37842,0.19181
2283.30689,0.19355
2285.23536,0.19578
2287.16383,0.19578
2289.09230,0.19468
2291.02077,0.19766
2292.94924,0.20893
2294.87770,0.21786
2296.80617,0.21041
2298.73464,0.19789
2300.66311,0.19699
2302.59158,0.20286
2304.52005,0.20513
2306.44852,0.20314
2308.37699,0.20249
2310.30545,0.20582
2312.23392,0.20918
2314.16239,0.20629
2316.09086,0.19976
2318.01933,0.19821
2319.94780,0.20069
2321.87627,0.20232
2323.80473,0.20470
2325.73320,0.21075
2327.66167,0.21458
2329.59014,0.21212
2331.51861,0.21180
2333.44708,0.21058
2335.37555,0.20213
2337.30401,0.20028
2339.23248,0.21355
2341.16095,0.22355
2343.08942,0.21497
2345.01789,0.20269
2346.94636,0.20479
2348.87483,0.21628
2350.80330,0.22869
2352.73176,0.23929
2354.66023,0.24590
2356.58870,0.24384
2358.51717,0.23584
2360.44564,0.22336
2362.37411,0.20171
2364.30258,0.19083
2366.23104,0.20583
2368.15951,0.21939
2370.08798,0.21355
2372.01645,0.20484
2373.94492,0.20057
2375.87339,0.19621
2377.80186,0.19416
2379.73033,0.19444
2381.65879,0.19509
2383.58726,0.19708
2385.51573,0.19801
2387.44420,0.19560
2389.37267,0.19160
2391.30114,0.18896
2393.22961,0.19041
2395.15807,0.19341
2397.08654,0.19263
2399.01501,0.18950
2400.94348,0.18868
2402.87195,0.19063
2404.80042,0.19266
2406.72889,0.19305
2408.65736,0.19221
2410.58582,0.19177
2412.51429,0.19242
2414.44276,0.19266
2416.37123,0.19245
2418.29970,0.19347
2420.22817,0.19536
2422.15664,0.19603
2424.08510,0.19506
2426.01357,0.19539
2427.94204,0.19713
2429.87051,0.19634
2431.79898,0.19382
2433.72745,0.19309
2435.65592,0.19447
2437.58439,0.19673
2439.51285,0.19634
2441.44132,0.19187
2443.36979,0.18856
2445.29826,0.19019
2447.22673,0.19410
2449.15520,0.19717
2451.08367,0.19957
2453.01213,0.20099
2454.94060,0.20015
2456.86907,0.19734
2458.79754,0.19431
2460.72601,0.19309
2462.65448,0.19289
2464.58295,0.19225
2466.51142,0.19280
2468.43988,0.19412
2470.36835,0.19304
2472.29682,0.19120
2474.22529,0.19237
2476.15376,0.19566
2478.08223,0.19811
2480.01070,0.19748
2481.93916,0.19422
2483.86763,0.19189
2485.79610,0.19274
2487.72457,0.19472
2489.65304,0.19489
2491.58151,0.19451
2493.50998,0.19619
2495.43844,0.19770
2497.36691,0.19631
2499.29538,0.19433
2501.22385,0.19367
2503.15232,0.19389
2505.08079,0.19523
2507.00926,0.19689
2508.93773,0.19718
2510.86619,0.19602
2512.79466,0.19499
2514.72313,0.19498
2516.65160,0.19520
2518.58007,0.19512
2520.50854,0.19522
2522.43701,0.19520
2524.36547,0.19535
2526.29394,0.19707
2528.22241,0.19788
2530.15088,0.19593
2532.07935,0.19503
2534.00782,0.19644
2535.93629,0.19686
2537.86476,0.19624
2539.79322,0.19610
2541.72169,0.19412
2543.65016,0.19209
2545.57863,0.19553
2547.50710,0.20008
2549.43557,0.19972
2551.36404,0.19927
2553.29250,0.20192
2555.22097,0.20313
2557.14944,0.20185
2559.07791,0.20094
2561.00638,0.19950
2562.93485,0.19691
2564.86332,0.19548
2566.79179,0.19548
2568.72025,0.19571
2570.64872,0.19615
2572.57719,0.19842
2574.50566,0.20240
2576.43413,0.20354
2578.36260,0.20051
2580.29107,0.19745
2582.21953,0.19738
2584.14800,0.19984
2586.07647,0.20150
2588.00494,0.19971
2589.93341,0.19647
2591.86188,0.19559
2593.79035,0.19755
2595.71882,0.19906
2597.64728,0.19853
2599.57575,0.19871
2601.50422,0.19930
2603.43269,0.19804
2605.36116,0.19702
2607.28963,0.19968
2609.21810,0.20689
2611.14656,0.21355
2613.07503,0.21369
2615.00350,0.20869
2616.93197,0.20423
2618.86044,0.20317
2620.78891,0.20298
2622.71738,0.20184
2624.64585,0.20178
2626.57431,0.20372
2628.50278,0.20632
2630.43125,0.20832
2632.35972,0.20760
2634.28819,0.20424
2636.21666,0.20197
2638.14513,0.20254
2640.07359,0.20459
2642.00206,0.20508
2643.93053,0.20339
2645.85900,0.20141
2647.78747,0.19925
2649.71594,0.19760
2651.64441,0.19692
2653.57288,0.19674
2655.50134,0.19748
2657.42981,0.19942
2659.35828,0.20337
2661.28675,0.20667
2663.21522,0.20415
2665.14369,0.19892
2667.07216,0.19697
2669.00062,0.19629
2670.92909,0.19461
2672.85756,0.19513
2674.78603,0.19838
2676.71450,0.20043
2678.64297,0.19999
2680.57144,0.19834
2682.49990,0.19694
2684.42837,0.19691
2686.35684,0.19689
2688.28531,0.19554
2690.21378,0.19442
2692.14225,0.19580
2694.07072,0.19870
2695.99919,0.20084
2697.92765,0.20346
2699.85612,0.20794
2701.78459,0.21092
2703.71306,0.20910
2705.64153,0.20516
2707.57000,0.20411
2709.49847,0.20674
2711.42693,0.20899
2713.35540,0.20868
2715.28387,0.20732
2717.21234,0.20478
2719.14081,0.20265
2721.06928,0.20471
2722.99775,0.20791
2724.92622,0.20803
2726.85468,0.20810
2728.78315,0.20844
2730.71162,0.20726
2732.64009,0.20862
2734.56856,0.21130
2736.49703,0.21014
2738.42550,0.20821
2740.35396,0.20766
2742.28243,0.20664
2744.21090,0.20580
2746.13937,0.20432
2748.06784,0.20268
2749.99631,0.20375
2751.92478,0.20596
2753.85325,0.20668
2755.78171,0.20689
2757.71018,0.20693
2759.63865,0.20611
2761.56712,0.20611
2763.49559,0.20745
2765.42406,0.20964
2767.35253,0.21260
2769.28099,0.21231
2771.20946,0.20712
2773.13793,0.20419
2775.06640,0.20599
2776.99487,0.20629
2778.92334,0.20551
2780.85181,0.20792
2782.78028,0.21264
2784.70874,0.21635
2786.63721,0.21680
2788.56568,0.21581
2790.49415,0.21413
2792.42262,0.21025
2794.35109,0.20660
2796.27956,0.20617
2798.20802,0.20817
2800.13649,0.21001
2802.06496,0.21008
2803.99343,0.20883
2805.92190,0.20806
2807.85037,0.20899
2809.77884,0.21143
2811.70731,0.21247
2813.63577,0.20969
2815.56424,0.20746
2817.49271,0.20918
2819.42118,0.20990
2821.34965,0.20894
2823.27812,0.21076
2825.20659,0.21417
2827.13505,0.21788
2829.06352,0.22069
2830.99199,0.22008
2832.92046,0.21860
2834.84893,0.21755
2836.77740,0.21535
2838.70587,0.21480
2840.63433,0.21670
2842.56280,0.21666
2844.49127,0.21462
2846.41974,0.21358
2848.34821,0.21402
2850.27668,0.21462
2852.20515,0.21380
2854.13362,0.21233
2856.06208,0.21056
2857.99055,0.20848
2859.91902,0.20905
2861.84749,0.21368
2863.77596,0.21762
2865.70443,0.21653
2867.63290,0.21315
2869.56136,0.21126
2871.48983,0.21109
2873.41830,0.21070
2875.34677,0.20798
2877.27524,0.20573
2879.20371,0.20828
2881.13218,0.21122
2883.06065,0.20935
2884.98911,0.20788
2886.91758,0.20976
2888.84605,0.21130
2890.77452,0.21169
2892.70299,0.21202
2894.63146,0.21131
2896.55993,0.20811
2898.48839,0.20462
2900.41686,0.20422
2902.34533,0.20657
2904.27380,0.20808
2906.20227,0.20745
2908.13074,0.20753
2910.05921,0.20970
2911.98768,0.21217
2913.91614,0.21136
2915.84461,0.20753
2917.77308,0.20751
2919.70155,0.21191
2921.63002,0.21441
2923.55849,0.21312
2925.48696,0.20734
2927.41542,0.20013
2929.34389,0.20182
2931.27236,0.21094
2933.20083,0.21229
2935.12930,0.20463
2937.05777,0.20085
2938.98624,0.20390
2940.91471,0.20774
2942.84317,0.20987
2944.77164,0.21106
2946.70011,0.21246
2948.62858,0.21353
2950.55705,0.21256
2952.48552,0.21124
2954.41399,0.21095
2956.34245,0.20796
2958.27092,0.20486
2960.19939,0.20916
2962.12786,0.21595
2964.05633,0.21643
2965.98480,0.21149
2967.91327,0.20734
2969.84174,0.20921
2971.77020,0.21427
2973.69867,0.21656
2975.62714,0.21346
2977.55561,0.20594
2979.48408,0.20331
2981.41255,0.20990
2983.34102,0.21625
2985.26948,0.21571
2987.19795,0.21135
2989.12642,0.20942
2991.05489,0.21180
2992.98336,0.21504
2994.91183,0.21652
2996.84030,0.21662
2998.76877,0.21731
3000.69723,0.21996
3002.62570,0.22233
3004.55417,0.21968
3006.48264,0.21279
3008.41111,0.20883
3010.33958,0.20852
3012.26805,0.20193
3014.19651,0.18344
3016.12498,0.16610
3018.05345,0.17136
3019.98192,0.19492
3021.91039,0.21281
3023.83886,0.22200
3025.76733,0.22778
3027.69579,0.22759
3029.62426,0.22306
3031.55273,0.21778
3033.48120,0.21594
3035.40967,0.21650
3037.33814,0.21460
3039.26661,0.21333
3041.19508,0.21575
3043.12354,0.21728
3045.05201,0.21545
3046.98048,0.21305
3048.90895,0.21178
3050.83742,0.21158
3052.76589,0.21036
3054.69436,0.20675
3056.62282,0.20531
3058.55129,0.20986
3060.47976,0.21588
3062.40823,0.21747
3064.33670,0.21298
3066.26517,0.20621
3068.19364,0.20507
3070.12211,0.20794
3072.05057,0.20829
3073.97904,0.20658
3075.90751,0.20592
3077.83598,0.21015
3079.76445,0.21619
3081.69292,0.21477
3083.62139,0.20546
3085.54985,0.19936
3087.47832,0.20362
3089.40679,0.21180
3091.33526,0.21534
3093.26373,0.21282
3095.19220,0.21111
3097.12067,0.21363
3099.04914,0.21543
3100.97760,0.21304
3102.90607,0.20443
3104.83454,0.19849
3106.76301,0.20403
3108.69148,0.21073
3110.61995,0.20998
3112.54842,0.20737
3114.47688,0.21038
3116.40535,0.21660
3118.33382,0.21927
3120.26229,0.21967
3122.19076,0.22054
3124.11923,0.22004
3126.04770,0.21729
3127.97617,0.21265
3129.90463,0.20802
3131.83310,0.20993
3133.76157,0.21769
3135.69004,0.22158
3137.61851,0.21824
3139.54698,0.21338
3141.47545,0.21412
3143.40391,0.21758
3145.33238,0.21771
3147.26085,0.21685
3149.18932,0.21849
3151.11779,0.22334
3153.04626,0.22861
3154.97473,0.22926
3156.90320,0.22639
3158.83166,0.22546
3160.76013,0.22567
3162.68860,0.22425
3164.61707,0.22251
3166.54554,0.21989
3168.47401,0.21644
3170.40248,0.21560
3172.33094,0.21964
3174.25941,0.22560
3176.18788,0.22877
3178.11635,0.23015
3180.04482,0.23044
3181.97329,0.22761
3183.90176,0.22400
3185.83022,0.22245
3187.75869,0.22294
3189.68716,0.22452
3191.61563,0.22480
3193.54410,0.22448
3195.47257,0.22682
3197.40104,0.22887
3199.32951,0.22582
3201.25797,0.22119
3203.18644,0.21880
3205.11491,0.21684
3207.04338,0.21816
3208.97185,0.22377
3210.90032,0.22723
3212.82879,0.22967
3214.75725,0.23107
3216.68572,0.22777
3218.61419,0.22667
3220.54266,0.22954
3222.47113,0.23082
3224.39960,0.23142
3226.32807,0.23053
3228.25654,0.22471
3230.18500,0.21763
3232.11347,0.21641
3234.04194,0.22097
3235.97041,0.22494
3237.89888,0.22630
3239.82735,0.22721
3241.75582,0.22631
3243.68428,0.22322
3245.61275,0.22235
3247.54122,0.22496
3249.46969,0.22718
3251.39816,0.22588
3253.32663,0.22198
3255.25510,0.21790
3257.18357,0.21615
3259.11203,0.21832
3261.04050,0.22073
3262.96897,0.22108
3264.89744,0.22244
3266.82591,0.22519
3268.75438,0.22528
3270.68285,0.22171
3272.61131,0.22002
3274.53978,0.22080
3276.46825,0.21951
3278.39672,0.21799
3280.32519,0.21899
3282.25366,0.22077
3284.18213,0.22110
3286.11060,0.21999
3288.03906,0.21821
3289.96753,0.21556
3291.89600,0.21335
3293.82447,0.21336
3295.75294,0.21424
3297.68141,0.21480
3299.60988,0.21665
3301.53834,0.21990
3303.46681,0.22313
3305.39528,0.22411
3307.32375,0.22089
3309.25222,0.21678
3311.18069,0.21401
3313.10916,0.21223
3315.03763,0.21383
3316.96609,0.21645
3318.89456,0.21557
3320.82303,0.21219
3322.75150,0.21089
3324.67997,0.21488
3326.60844,0.21885
3328.53691,0.21856
3330.46537,0.21871
3332.39384,0.22054
3334.32231,0.22155
3336.25078,0.22189
3338.17925,0.22230
3340.10772,0.22423
3342.03619,0.22821
3343.96466,0.23038
3345.89312,0.22780
3347.82159,0.22314
3349.75006,0.22079
3351.67853,0.22275
3353.60700,0.22663
3355.53547,0.22838
3357.46394,0.22741
3359.39240,0.22477
3361.32087,0.22011
3363.24934,0.21701
3365.17781,0.21989
3367.10628,0.22460
3369.03475,0.22539
3370.96322,0.22146
3372.89168,0.21686
3374.82015,0.21747
3376.74862,0.22137
3378.67709,0.22257
3380.60556,0.22065
3382.53403,0.21799
3384.46250,0.21662
3386.39097,0.21637
3388.31943,0.21745
3390.24790,0.22078
3392.17637,0.22168
3394.10484,0.21944
3396.03331,0.21863
3397.96178,0.21698
3399.89025,0.21835
3401.81871,0.22624
3403.74718,0.22641
3405.67565,0.21556
3407.60412,0.21040
3409.53259,0.21459
3411.46106,0.21691
3413.38953,0.21498
3415.31800,0.21423
3417.24646,0.21598
3419.17493,0.21837
3421.10340,0.21868
3423.03187,0.21457
3424.96034,0.20886
3426.88881,0.20737
3428.81728,0.21082
3430.74574,0.21434
3432.67421,0.21461
3434.60268,0.21319
3436.53115,0.21343
3438.45962,0.21591
3440.38809,0.21771
3442.31656,0.21549
3444.24503,0.21080
3446.17349,0.20806
3448.10196,0.20541
3450.03043,0.20019
3451.95890,0.19642
3453.88737,0.19742
3455.81584,0.20006
3457.74431,0.20063
3459.67277,0.20026
3461.60124,0.19768
3463.52971,0.19129
3465.45818,0.18624
3467.38665,0.18573
3469.31512,0.18812
3471.24359,0.19203
3473.17206,0.19502
3475.10052,0.19659
3477.02899,0.19854
3478.95746,0.19851
3480.88593,0.19727
3482.81440,0.19917
3484.74287,0.20035
3486.67134,0.19596
3488.59980,0.18948
3490.52827,0.18586
3492.45674,0.18409
3494.38521,0.18441
3496.31368,0.18801
3498.24215,0.19146
3500.17062,0.19510
3502.09909,0.19981
3504.02755,0.19910
3505.95602,0.19293
3507.88449,0.19078
3509.81296,0.19287
3511.74143,0.19115
3513.66990,0.18552
3515.59837,0.18055
3517.52683,0.17810
3519.45530,0.18032
3521.38377,0.18780
3523.31224,0.19398
3525.24071,0.19492
3527.16918,0.19384
3529.09765,0.19060
3531.02611,0.18618
3532.95458,0.18221
3534.88305,0.18064
3536.81152,0.18365
3538.73999,0.18578
3540.66846,0.18412
3542.59693,0.18393
3544.52540,0.18816
3546.45386,0.19068
3548.38233,0.18617
3550.31080,0.18192
3552.23927,0.18157
3554.16774,0.17875
3556.09621,0.17400
3558.02468,0.17253
3559.95314,0.17223
3561.88161,0.17297
3563.81008,0.18228
3565.73855,0.20054
3567.66702,0.20254
3569.59549,0.17965
3571.52396,0.16420
3573.45243,0.16333
3575.38089,0.16377
3577.30936,0.16025
3579.23783,0.16011
3581.16630,0.16623
3583.09477,0.17321
3585.02324,0.17915
3586.95171,0.18160
3588.88017,0.17312
3590.80864,0.16553
3592.73711,0.16860
3594.66558,0.17509
3596.59405,0.17705
3598.52252,0.17556
3600.45099,0.17116
3602.37946,0.16470
3604.30792,0.16317
3606.23639,0.17088
3608.16486,0.18067
3610.09333,0.18500
3612.02180,0.18750
3613.95027,0.18509
3615.87874,0.17802
3617.80720,0.17594
3619.73567,0.17547
3621.66414,0.16741
3623.59261,0.15858
3625.52108,0.15767
3627.44955,0.16732
3629.37802,0.17388
3631.30649,0.16791
3633.23495,0.16283
3635.16342,0.15593
3637.09189,0.14753
3639.02036,0.14430
3640.94883,0.14605
3642.87730,0.14917
3644.80577,0.15594
3646.73423,0.17365
3648.66270,0.19531
3650.59117,0.18440
3652.51964,0.15986
3654.44811,0.15022
3656.37658,0.14954
3658.30505,0.14668
3660.23352,0.14296
3662.16198,0.14175
3664.09045,0.14287
3666.01892,0.14766
3667.94739,0.15898
3669.87586,0.17044
3671.80433,0.17070
3673.73280,0.17202
3675.66126,0.17404
3677.58973,0.16310
3679.51820,0.14991
3681.44667,0.14190
3683.37514,0.13940
3685.30361,0.14332
3687.23208,0.15592
3689.16055,0.16844
3691.08901,0.16201
3693.01748,0.14880
3694.94595,0.14079
3696.87442,0.13734
3698.80289,0.14079
3700.73136,0.14691
3702.65983,0.14568
3704.58829,0.14253
3706.51676,0.14560
3708.44523,0.15494
3710.37370,0.16873
3712.30217,0.17373
3714.23064,0.16260
3716.15911,0.15125
3718.08757,0.14836
3720.01604,0.15143
3721.94451,0.15303
3723.87298,0.14930
3725.80145,0.14250
3727.72992,0.13742
3729.65839,0.13773
3731.58686,0.14705
3733.51532,0.16709
3735.44379,0.18044
3737.37226,0.16974
3739.30073,0.15827
3741.22920,0.16054
3743.15767,0.17184
3745.08614,0.17868
3747.01460,0.17971
3748.94307,0.19020
3750.87154,0.19913
3752.80001,0.18086
3754.72848,0.15997
3756.65695,0.15282
3758.58542,0.15119
3760.51389,0.14373
3762.44235,0.13662
3764.37082,0.13654
3766.29929,0.13973
3768.22776,0.14187
3770.15623,0.14165
3772.08470,0.13777
3774.01317,0.13394
3775.94163,0.13515
3777.87010,0.13963
3779.79857,0.13920
3781.72704,0.13497
3783.65551,0.13308
3785.58398,0.13311
3787.51245,0.13297
3789.44092,0.13072
3791.36938,0.12893
3793.29785,0.13173
3795.22632,0.13882
3797.15479,0.14409
3799.08326,0.14408
3801.01173,0.14161
3802.94020,0.13792
3804.86866,0.13878
3806.79713,0.14255
3808.72560,0.13933
3810.65407,0.13013
3812.58254,0.12625
3814.51101,0.13455
3816.43948,0.14261
3818.36795,0.14125
3820.29641,0.14484
3822.22488,0.14582
3824.15335,0.13785
3826.08182,0.13245
3828.01029,0.13394
3829.93876,0.14027
3831.86723,0.14575
3833.79569,0.14740
3835.72416,0.14951
3837.65263,0.15313
3839.58110,0.14921
3841.50957,0.14022
3843.43804,0.13168
3845.36651,0.12220
3847.29498,0.11677
3849.22344,0.12226
3851.15191,0.14088
3853.08038,0.16283
3855.00885,0.15627
3856.93732,0.13946
3858.86579,0.13291
3860.79426,0.13755
3862.72272,0.14843
3864.65119,0.15160
3866.57966,0.14564
3868.50813,0.14491
3870.43660,0.14728
3872.36507,0.14404
3874.29354,0.13892
3876.22200,0.13471
3878.15047,0.13577
3880.07894,0.14059
3882.00741,0.14180
3883.93588,0.14120
3885.86435,0.13559
3887.79282,0.12953
3889.72129,0.13546
3891.64975,0.14234
3893.57822,0.13353
3895.50669,0.12148
3897.43516,0.11796
3899.36363,0.12302
3901.29210,0.13124
3903.22057,0.13594
3905.14903,0.13184
3907.07750,0.12368
3909.00597,0.11837
3910.93444,0.11678
3912.86291,0.11923
3914.79138,0.12476
3916.71985,0.12869
3918.64832,0.12642
3920.57678,0.12370
3922.50525,0.12641
3924.43372,0.12585
3926.36219,0.11536
3928.29066,0.10818
3930.21913,0.11279
3932.14760,0.11914
3934.07606,0.11798
3936.00453,0.11550
3937.93300,0.11615
3939.86147,0.11591
3941.78994,0.11334
3943.71841,0.11082
3945.64688,0.11017
3947.57535,0.11269
3949.50381,0.11443
3951.43228,0.11260
3953.36075,0.11172
3955.28922,0.11211
3957.21769,0.11026
3959.14616,0.10827
3961.07463,0.10914
3963.00309,0.10998
3964.93156,0.10844
3966.86003,0.10612
3968.78850,0.10666
3970.71697,0.11099
3972.64544,0.11540
3974.57391,0.11702
3976.50238,0.11528
3978.43084,0.11233
3980.35931,0.10989
3982.28778,0.10679
3984.21625,0.10327
3986.14472,0.10167
3988.07319,0.10227
3990.00166,0.10349
3991.93012,0.10663
3993.85859,0.11195
3995.78706,0.11485
3997.71553,0.11392
3999.64400,0.11136
4001.57247,0.10680
4003.50094,0.10199
4005.42941,0.10184
4007.35787,0.10530
4009.28634,0.10739
4011.21481,0.10624
4013.14328,0.10326
4015.07175,0.10083
4017.00022,0.09757
4018.92869,0.09277
4020.85715,0.09198
4022.78562,0.09667
4024.71409,0.10080
4026.64256,0.10098
4028.57103,0.09989
4030.49950,0.09799
4032.42797,0.09348
4034.35644,0.09111
4036.28490,0.09490
4038.21337,0.09759
4040.14184,0.09401
4042.07031,0.09196
4043.99878,0.09744
4045.92725,0.10401
4047.85572,0.10270
4049.78418,0.09780
4051.71265,0.09865
4053.64112,0.10015
4055.56959,0.09655
4057.49806,0.09362
4059.42653,0.09309
4061.35500,0.09271
4063.28346,0.09400
4065.21193,0.09578
4067.14040,0.09410
4069.06887,0.09131
4070.99734,0.09212
4072.92581,0.09406
4074.85428,0.09362
4076.78275,0.09284
4078.71121,0.09416
4080.63968,0.09601
4082.56815,0.09539
4084.49662,0.09253
4086.42509,0.09087
4088.35356,0.09075
4090.28203,0.09063
4092.21049,0.09466
4094.13896,0.10090
4096.06743,0.09877
4097.99590,0.08991
4099.92437,0.08413
4101.85284,0.08526
4103.78131,0.09208
4105.70978,0.09836
4107.63824,0.09849
4109.56671,0.09384
4111.49518,0.08893
4113.42365,0.08660
4115.35212,0.08750
4117.28059,0.08993
4119.20906,0.09166
4121.13752,0.09235
4123.06599,0.09060
4124.99446,0.08643
4126.92293,0.08368
4128.85140,0.08291
4130.77987,0.08141
4132.70834,0.07981
4134.63681,0.08349
4136.56527,0.09183
4138.49374,0.09464
4140.42221,0.09021
4142.35068,0.08714
4144.27915,0.08807
4146.20762,0.08709
4148.13609,0.08296
4150.06455,0.08378
4151.99302,0.08913
4153.92149,0.08769
4155.84996,0.07851
4157.77843,0.07132
4159.70690,0.07169
4161.63537,0.07918
4163.56384,0.08662
4165.49230,0.08564
4167.42077,0.08097
4169.34924,0.07986
4171.27771,0.07893
4173.20618,0.07553
4175.13465,0.07222
4177.06312,0.06988
4178.99158,0.06795
4180.92005,0.06821
4182.84852,0.07240
4184.77699,0.07820
4186.70546,0.07883
4188.63393,0.07306
4190.56240,0.06892
4192.49087,0.06658
4194.41933,0.06338
4196.34780,0.06554
4198.27627,0.07292
4200.20474,0.07887
4202.13321,0.08219
4204.06168,0.08259
4205.99015,0.07853
4207.91861,0.07311
4209.84708,0.06883
4211.77555,0.06402
4213.70402,0.06165
4215.63249,0.06301
4217.56096,0.06315
4219.48943,0.06165
4221.41789,0.06124
4223.34636,0.06459
4225.27483,0.07195
4227.20330,0.07395
4229.13177,0.06530
4231.06024,0.05768
4232.98871,0.05985
4234.91718,0.06556
4236.84564,0.06601
4238.77411,0.06221
4240.70258,0.06349
4242.63105,0.06794
4244.55952,0.06548
4246.48799,0.05963
4248.41646,0.05894
4250.34492,0.06195
4252.27339,0.06431
4254.20186,0.06344
4256.13033,0.05824
4258.05880,0.05268
4259.98727,0.04950
4261.91574,0.05030
4263.84421,0.05809
4265.77267,0.06726
4267.70114,0.06912
4269.62961,0.06436
4271.55808,0.05872
4273.48655,0.05508
4275.41502,0.05218
4277.34349,0.04967
4279.27195,0.05157
4281.20042,0.05700
4283.12889,0.05941
4285.05736,0.05887
4286.98583,0.05810
4288.91430,0.05651
4290.84277,0.05518
4292.77124,0.05484
4294.69970,0.05458
4296.62817,0.05488
4298.55664,0.05533
4300.48511,0.05730
4302.41358,0.05947
4304.34205,0.05442
4306.27052,0.04804
4308.19898,0.05017
4310.12745,0.05384
4312.05592,0.05319
4313.98439,0.05169
4315.91286,0.04931
4317.84133,0.04408
4319.76980,0.04167
4321.69827,0.04521
4323.62673,0.04661
4325.55520,0.04368
4327.48367,0.04395
4329.41214,0.04540
4331.34061,0.04247
4333.26908,0.04216
4335.19755,0.04505
4337.12601,0.04435
4339.05448,0.04300
4340.98295,0.04180
4342.91142,0.03955
4344.83989,0.04143
4346.76836,0.04726
4348.69683,0.04810
4350.62530,0.04297
4352.55376,0.03904
4354.48223,0.03709
4356.41070,0.03616
4358.33917,0.03643
4360.26764,0.03843
4362.19611,0.04271
4364.12458,0.04459
4366.05304,0.04376
4367.98151,0.04434
4369.90998,0.04476
4371.83845,0.04309
4373.76692,0.04010
4375.69539,0.03589
4377.62386,0.03219
4379.55232,0.03115
4381.48079,0.03010
4383.40926,0.02686
4385.33773,0.02235
4387.26620,0.01798
4389.19467,0.01722
4391.12314,0.02296
4393.05161,0.03258
4394.98007,0.03876
4396.90854,0.03880
4398.83701,0.03656
4400.76548,0.03534
4402.69395,0.03777
4404.62242,0.04062
4406.55089,0.03679
4408.47935,0.03064
4410.40782,0.02940
4412.33629,0.02878
4414.26476,0.02542
4416.19323,0.02313
4418.12170,0.02139
4420.05017,0.01631
4421.97864,0.01197
4423.90710,0.01532
4425.83557,0.02370
4427.76404,0.02919
4429.69251,0.02940
4431.62098,0.02628
4433.54945,0.01963
4435.47792,0.01223
4437.40638,0.01088
4439.33485,0.01381
4441.26332,0.01403
4443.19179,0.01455
4445.12026,0.02121
4447.04873,0.02781
4448.97720,0.02881
4450.90567,0.02734
4452.83413,0.02359
4454.76260,0.01699
4456.69107,0.01074
4458.61954,0.00921
4460.54801,0.01131
4462.47648,0.01044
4464.40495,0.00738
4466.33341,0.00764
4468.26188,0.01057
4470.19035,0.01255
4472.11882,0.01593
4474.04729,0.02240
4475.97576,0.02592
4477.90423,0.02717
4479.83270,0.02977
4481.76116,0.02853
4483.68963,0.02304
4485.61810,0.01778
4487.54657,0.01348
4489.47504,0.01120
4491.40351,0.01101
4493.33198,0.01184
4495.26044,0.01421
4497.18891,0.01594
4499.11738,0.01266
4501.04585,0.00846
4502.97432,0.00980
4504.90279,0.00826
4506.83126,-0.00197
4508.75973,-0.00775
4510.68819,-0.00156
4512.61666,0.00999
4514.54513,0.01692
4516.47360,0.01391
4518.40207,0.00796
4520.33054,0.00604
4522.25901,0.00436
4524.18747,-0.00067
4526.11594,-0.00611
4528.04441,-0.00901
4529.97288,-0.00772
4531.90135,-0.00283
4533.82982,0.00194
4535.75829,0.00580
4537.68676,0.01049
4539.61522,0.01465
4541.54369,0.01545
4543.47216,0.01132
4545.40063,0.00507
4547.32910,0.00664
4549.25757,0.01557
4551.18604,0.01749
4553.11450,0.01375
4555.04297,0.01704
4556.97144,0.02147
4558.89991,0.01445
4560.82838,0.00156
4562.75685,-0.00615
4564.68532,-0.00714
4566.61378,-0.00341
4568.54225,0.00066
4570.47072,0.00119
4572.39919,0.00179
4574.32766,0.00280
4576.25613,0.00000
4578.18460,-0.00208
4580.11307,-0.00040
4582.04153,0.00104
4583.97000,0.00191
4585.89847,0.00439
4587.82694,0.00737
4589.75541,0.00663
4591.68388,0.00367
4593.61235,0.00264
4595.54081,0.00461
4597.46928,0.00906
4599.39775,0.00922
4601.32622,0.00117
4603.25469,-0.00505
4605.18316,-0.00146
4607.11163,0.00429
4609.04010,0.00658
4610.96856,0.00773
4612.89703,0.00946
4614.82550,0.00958
4616.75397,0.00501
4618.68244,0.00026
4620.61091,-0.00264
4622.53938,-0.00442
4624.46784,-0.00023
4626.39631,0.01003
4628.32478,0.02160
4630.25325,0.02829
4632.18172,0.02550
4634.11019,0.01827
4636.03866,0.01134
4637.96713,0.00449
4639.89559,0.00099
4641.82406,0.00142
4643.75253,0.00229
4645.68100,0.00171
4647.60947,0.00006
4649.53794,0.00062
4651.46641,-0.00042
4653.39487,-0.00498
4655.32334,-0.00245
4657.25181,0.00678
4659.18028,0.01179
4661.10875,0.00964
4663.03722,0.00210
4664.96569,-0.00236
4666.89416,0.00637
4668.82262,0.02144
4670.75109,0.02639
4672.67956,0.02030
4674.60803,0.01395
4676.53650,0.01036
4678.46497,0.00895
4680.39344,0.01167
4682.32190,0.01517
4684.25037,0.01512
4686.17884,0.01183
4688.10731,0.00617
4690.03578,0.00100
4691.96425,-0.00021
4693.89272,0.00199
4695.82119,0.00342
4697.74965,0.00360
4699.67812,0.00647
4701.60659,0.00944
4703.53506,0.01135
4705.46353,0.01739
4707.39200,0.02152
4709.32047,0.01418
4711.24893,0.00182
4713.17740,-0.00345
4715.10587,-0.00193
4717.03434,0.00248
4718.96281,0.00711
4720.89128,0.00475
4722.81975,-0.00291
4724.74821,-0.00264
4726.67668,0.00992
4728.60515,0.02150
4730.53362,0.02080
4732.46209,0.00993
4734.39056,-0.00646
4736.31903,-0.01757
4738.24750,-0.01470
4740.17596,-0.00443
4742.10443,0.00266
4744.03290,0.00258
4745.96137,-0.00235
4747.88984,-0.00754
4749.81831,-0.00842
4751.74678,-0.00737
4753.67524,-0.00396
4755.60371,0.00619
4757.53218,0.01363
4759.46065,0.01082
4761.38912,0.00480
4763.31759,0.00527
4765.24606,0.01100
4767.17453,0.01087
4769.10299,0.00247
4771.03146,-0.00286
4772.95993,-0.00039
4774.88840,-0.00132
4776.81687,-0.00437
4778.74534,0.00167
4780.67381,0.00860
4782.60227,0.00627
4784.53074,0.00015
4786.45921,-0.00167
4788.38768,0.00172
4790.31615,0.00229
4792.24462,0.00101
4794.17309,0.00141
4796.10156,-0.00139
4798.03002,-0.00444
4799.95849,-0.00385
4801.88696,-0.00122
4803.81543,0.00554
4805.74390,0.01210
4807.67237,0.01130
4809.60084,0.00822
4811.52930,0.00915
4813.45777,0.01022
4815.38624,0.00992
4817.31471,0.01502
4819.24318,0.02003
4821.17165,0.01562
4823.10012,0.01117
4825.02859,0.01003
4826.95705,0.00431
4828.88552,-0.00226
4830.81399,-0.00844
4832.74246,-0.01418
4834.67093,-0.01474
4836.59940,-0.01337
4838.52787,-0.00886
4840.45633,0.00326
4842.38480,0.01759
4844.31327,0.02366
4846.24174,0.02013
4848.17021,0.01724
4850.09868,0.01672
4852.02715,0.01261
4853.95562,0.00525
4855.88408,0.00172
4857.81255,0.00360
4859.74102,0.00467
4861.66949,0.00127
4863.59796,-0.00562
4865.52643,-0.00613
4867.45490,0.00220
4869.38336,0.00578
4871.31183,0.00175
4873.24030,-0.00243
4875.16877,-0.00225
4877.09724,0.00175
4879.02571,0.00149
4880.95418,-0.00710
4882.88265,-0.01076
4884.81111,-0.00355
4886.73958,0.00023
4888.66805,-0.00074
4890.59652,0.00662
4892.52499,0.01738
4894.45346,0.01969
4896.38193,0.01753
4898.31039,0.01492
4900.23886,0.01083
4902.16733,0.00610
4904.09580,-0.00162
4906.02427,-0.00766
4907.95274,-0.00065
4909.88121,0.01851
4911.80967,0.03184
4913.73814,0.02902
4915.66661,0.02478
4917.59508,0.02651
4919.52355,0.02300
4921.45202,0.00868
4923.38049,-0.00392
4925.30896,-0.00177
4927.23742,0.00168
4929.16589,-0.00436
4931.09436,-0.00520
4933.02283,0.00289
4934.95130,0.00848
4936.87977,0.01044
4938.80824,0.01020
4940.73670,0.00842
4942.66517,0.01056
4944.59364,0.01462
4946.52211,0.01581
4948.45058,0.01505
4950.37905,0.01162
4952.30752,0.00977
4954.23599,0.01246
4956.16445,0.01227
4958.09292,0.00824
4960.02139,0.01043
4961.94986,0.02055
4963.87833,0.02157
4965.80680,0.00717
4967.73527,-0.00348
4969.66373,-0.00070
4971.59220,0.00741
4973.52067,0.01724
4975.44914,0.02601
4977.37761,0.03188
4979.30608,0.03591
4981.23455,0.02760
4983.16302,0.00897
4985.09148,0.00440
4987.01995,0.01687
4988.94842,0.02488
4990.87689,0.02160
4992.80536,0.02056
4994.73383,0.02676
4996.66230,0.02436
4998.59076,0.00642
5000.51923,-0.00454
5002.44770,-0.00030
5004.37617,0.00135
5006.30464,-0.00028
5008.23311,0.00322
5010.16158,0.00471
5012.09005,-0.00211
5014.01851,-0.00895
5015.94698,-0.01133
5017.87545,-0.01187
5019.80392,-0.00462
5021.73239,0.01063
5023.66086,0.01962
5025.58933,0.01715
5027.51779,0.01546
5029.44626,0.01400
5031.37473,0.00201
5033.30320,-0.00741
5035.23167,-0.00234
5037.16014,0.00253
5039.08861,-0.00303
5041.01708,-0.00699
5042.94554,-0.00231
5044.87401,-0.00152
5046.80248,-0.00747
5048.73095,-0.00376
5050.65942,0.00945
5052.58789,0.01320
5054.51636,0.00864
5056.44482,0.00747
5058.37329,0.00315
5060.30176,-0.00560
5062.23023,-0.00398
5064.15870,0.00583
5066.08717,0.01480
5068.01564,0.02746
5069.94410,0.03925
5071.87257,0.03917
5073.80104,0.02845
5075.72951,0.01412
5077.65798,0.00366
5079.58645,0.00274
5081.51492,0.00427
5083.44339,0.00166
5085.37185,0.00620
5087.30032,0.02161
5089.22879,0.03260
5091.15726,0.02794
5093.08573,0.01712
5095.01420,0.02071
5096.94267,0.03825
5098.87113,0.04083
5100.79960,0.02015
5102.72807,0.01271
5104.65654,0.02999
5106.58501,0.04065
5108.51348,0.03518
5110.44195,0.02938
5112.37042,0.03491
5114.29888,0.04801
5116.22735,0.05450
5118.15582,0.04925
5120.08429,0.03271
5122.01276,0.01232
5123.94123,0.00387
5125.86970,0.01005
5127.79816,0.02181
5129.72663,0.03284
5131.65510,0.03750
5133.58357,0.03428
5135.51204,0.02940
5137.44051,0.03162
5139.36898,0.03934
5141.29745,0.03070
5143.22591,0.00844
5145.15438,0.00794
5147.08285,0.02500
5149.01132,0.03090
5150.93979,0.02504
5152.86826,0.01626
5154.79673,0.01251
5156.72519,0.01983
5158.65366,0.02657
5160.58213,0.02174
5162.51060,0.02020
5164.43907,0.03025
5166.36754,0.03436
5168.29601,0.02982
5170.22448,0.02370
5172.15294,0.02045
5174.08141,0.03285
5176.00988,0.04608
5177.93835,0.03732
5179.86682,0.02860
5181.79529,0.03539
5183.72376,0.03885
5185.65222,0.03690
5187.58069,0.04179
5189.50916,0.05069
5191.43763,0.05130
5193.36610,0.03755
5195.29457,0.01859
5197.22304,0.00802
5199.15151,0.01330
5201.07997,0.02582
5203.00844,0.03215
5204.93691,0.03454
5206.86538,0.03789
5208.79385,0.04213
5210.72232,0.05074
5212.65079,0.05639
5214.57925,0.04824
5216.50772,0.03961
5218.43619,0.04829
5220.36466,0.05970
5222.29313,0.05582
5224.22160,0.04979
5226.15007,0.05287
5228.07854,0.04548
5230.00700,0.02574
5231.93547,0.02310
5233.86394,0.03499
5235.79241,0.03368
5237.72088,0.02689
5239.64935,0.03342
5241.57782,0.03988
5243.50628,0.02688
5245.43475,0.00472
5247.36322,-0.00033
5249.29169,0.01716
5251.22016,0.03598
5253.14863,0.04433
5255.07710,0.05407
5257.00556,0.06510
5258.93403,0.06337
5260.86250,0.05037
5262.79097,0.03874
5264.71944,0.04092
5266.64791,0.05106
5268.57638,0.05017
5270.50485,0.03742
5272.43331,0.03031
5274.36178,0.03801
5276.29025,0.04933
5278.21872,0.05693
5280.14719,0.06017
5282.07566,0.05654
5284.00413,0.05079
5285.93259,0.04439
5287.86106,0.04437
5289.78953,0.06581
5291.71800,0.09562
5293.64647,0.10248
5295.57494,0.08246
5297.50341,0.05412
5299.43188,0.03939
5301.36034,0.03272
5303.28881,0.02433
5305.21728,0.03051
5307.14575,0.04961
5309.07422,0.05616
5311.00269,0.04402
5312.93116,0.03726
5314.85962,0.04795
5316.78809,0.05850
5318.71656,0.06021
5320.64503,0.06311
5322.57350,0.06950
5324.50197,0.06728
5326.43044,0.06113
5328.35891,0.05776
5330.28737,0.05033
5332.21584,0.05437
5334.14431,0.06619
5336.07278,0.06117
5338.00125,0.04671
5339.92972,0.04404
5341.85819,0.05316
5343.78665,0.05307
5345.71512,0.03253
5347.64359,0.02353
5349.57206,0.04784
5351.50053,0.08531
5353.42900,0.09814
5355.35747,0.07615
5357.28594,0.05127
5359.21440,0.04858
5361.14287,0.07375
5363.07134,0.09573
5364.99981,0.08418
5366.92828,0.07123
5368.85675,0.07388
5370.78522,0.06114
5372.71368,0.03492
5374.64215,0.02659
5376.57062,0.03247
5378.49909,0.03825
5380.42756,0.04853
5382.35603,0.05055
5384.28450,0.03969
5386.21297,0.03740
5388.14143,0.04582
5390.06990,0.05638
5391.99837,0.07088
5393.92684,0.07558
5395.85531,0.06994
5397.78378,0.07306
5399.71225,0.07660
5401.64071,0.06854
5403.56918,0.05271
5405.49765,0.04099
5407.42612,0.03877
5409.35459,0.03912
5411.28306,0.04454
5413.21153,0.06682
5415.13999,0.08386
5417.06846,0.06768
5418.99693,0.04186
5420.92540,0.03112
5422.85387,0.02711
5424.78234,0.03947
5426.71081,0.07970
5428.63928,0.10678
5430.56774,0.09694
5432.49621,0.08501
5434.42468,0.08261
5436.35315,0.07607
5438.28162,0.05052
5440.21009,0.01911
5442.13856,0.02125
5444.06702,0.05532
5445.99549,0.08765
5447.92396,0.09172
5449.85243,0.07093
5451.78090,0.05644
5453.70937,0.05424
5455.63784,0.06131
5457.56631,0.07285
5459.49477,0.06566
5461.42324,0.05216
5463.35171,0.05871
5465.28018,0.07585
5467.20865,0.08685
5469.13712,0.08270
5471.06559,0.07055
5472.99405,0.06135
5474.92252,0.05163
5476.85099,0.04840
5478.77946,0.05952
5480.70793,0.07029
5482.63640,0.06897
5484.56487,0.06469
5486.49334,0.07309
5488.42180,0.09743
5490.35027,0.11037
5492.27874,0.07819
5494.20721,0.02932
5496.13568,0.02171
5498.06415,0.04980
5499.99262,0.07190
5501.92108,0.07359
5503.84955,0.06966
5505.77802,0.07104
5507.70649,0.07443
5509.63496,0.07614
5511.56343,0.09224
5513.49190,0.11505
5515.42037,0.11472
5517.34883,0.09414
5519.27730,0.07200
5521.20577,0.05610
5523.13424,0.05129
5525.06271,0.05791
5526.99118,0.06494
5528.91965,0.07767
5530.84811,0.09460
5532.77658,0.08737
5534.70505,0.06901
5536.63352,0.07122
5538.56199,0.07906
5540.49046,0.07608
5542.41893,0.07431
5544.34740,0.06734
5546.27586,0.05489
5548.20433,0.06221
5550.13280,0.08239
5552.06127,0.08982
5553.98974,0.07541
5555.91821,0.06227
5557.84668,0.06853
5559.77514,0.07236
5561.70361,0.06849
5563.63208,0.06473
5565.56055,0.05997
5567.48902,0.05505
5569.41749,0.05865
5571.34596,0.08390
5573.27443,0.10980
5575.20289,0.09980
5577.13136,0.06317
5579.05983,0.04288
5580.98830,0.05972
5582.91677,0.08438
5584.84524,0.08992
5586.77371,0.07760
5588.70217,0.05987
5590.63064,0.05934
5592.55911,0.07105
5594.48758,0.07160
5596.41605,0.06084
5598.34452,0.04664
5600.27299,0.03535
5602.20145,0.04154
5604.12992,0.06549
5606.05839,0.08494
5607.98686,0.09046
5609.91533,0.08789
5611.84380,0.07449
5613.77227,0.05980
5615.70074,0.06159
5617.62920,0.06989
5619.55767,0.06389
5621.48614,0.04841
5623.41461,0.03946
5625.34308,0.04121
5627.27155,0.05410
5629.20002,0.06767
5631.12848,0.07606
5633.05695,0.07725
5634.98542,0.05896
5636.91389,0.04059
5638.84236,0.05375
5640.77083,0.07855
5642.69930,0.08279
5644.62777,0.07435
5646.55623,0.07826
5648.48470,0.10221
5650.41317,0.11260
5652.34164,0.08680
5654.27011,0.06741
5656.19858,0.06560
5658.12705,0.05526
5660.05551,0.05438
5661.98398,0.07057
5663.91245,0.07791
5665.84092,0.07830
5667.76939,0.07984
5669.69786,0.08022
5671.62633,0.07654
5673.55480,0.05619
5675.48326,0.03881
5677.41173,0.04899
5679.34020,0.06388
5681.26867,0.07109
5683.19714,0.07847
5685.12561,0.08083
5687.05408,0.06970
5688.98254,0.06432
5690.91101,0.08482
5692.83948,0.10580
5694.76795,0.09225
5696.69642,0.05358
5698.62489,0.03615
5700.55336,0.05648
5702.48183,0.08785
5704.41029,0.09742
5706.33876,0.09523
5708.26723,0.10642
5710.19570,0.10686
5712.12417,0.09487
5714.05264,0.09895
5715.98111,0.10466
5717.90957,0.08923
5719.83804,0.06155
5721.76651,0.05989
5723.69498,0.08467
5725.62345,0.08636
5727.55192,0.05846
5729.48039,0.03506
5731.40886,0.03223
5733.33732,0.04468
5735.26579,0.04595
5737.19426,0.02625
5739.12273,0.03003
5741.05120,0.07138
5742.97967,0.10669
5744.90814,0.10931
5746.83660,0.08752
5748.76507,0.06717
5750.69354,0.06060
5752.62201,0.06006
5754.55048,0.06722
5756.47895,0.07785
5758.40742,0.09397
5760.33588,0.12238
5762.26435,0.12944
5764.19282,0.10243
5766.12129,0.08161
5768.04976,0.06884
5769.97823,0.05406
5771.90670,0.06296
5773.83517,0.09506
5775.76363,0.11631
5777.69210,0.11714
5779.62057,0.11562
5781.54904,0.10530
5783.47751,0.08882
5785.40598,0.10032
5787.33445,0.12428
5789.26291,0.12623
5791.19138,0.10309
5793.11985,0.06850
5795.04832,0.05785
5796.97679,0.07975
5798.90526,0.09723
5800.83373,0.09828
5802.76220,0.10663
5804.69066,0.11417
5806.61913,0.09888
5808.54760,0.07615
5810.47607,0.06195
5812.40454,0.06585
5814.33301,0.07430
5816.26148,0.06163
5818.18994,0.05098
5820.11841,0.06279
5822.04688,0.08066
5823.97535,0.10246
5825.90382,0.11538
5827.83229,0.11037
5829.76076,0.10865
5831.68923,0.11114
5833.61769,0.09975
5835.54616,0.08265
5837.47463,0.08744
5839.40310,0.10434
5841.33157,0.10850
5843.26004,0.11061
5845.18851,0.11284
5847.11697,0.10784
5849.04544,0.08762
5850.97391,0.05080
5852.90238,0.03266
5854.83085,0.05095
5856.75932,0.09342
5858.68779,0.12897
5860.61626,0.12188
5862.54472,0.09450
5864.47319,0.09063
5866.40166,0.09333
5868.33013,0.07041
5870.25860,0.04070
5872.18707,0.03620
5874.11554,0.04388
5876.04400,0.03286
5877.97247,0.02676
5879.90094,0.05874
5881.82941,0.07904
5883.75788,0.05582
5885.68635,0.03952
5887.61482,0.04593
5889.54329,0.05346
5891.47175,0.05941
5893.40022,0.05682
5895.32869,0.05032
5897.25716,0.05438
5899.18563,0.06337
5901.11410,0.07209
5903.04257,0.07917
5904.97103,0.07758
5906.89950,0.08669
5908.82797,0.11074
5910.75644,0.10282
5912.68491,0.06972
5914.61338,0.06328
5916.54185,0.08328
5918.47032,0.09786
5920.39878,0.10055
5922.32725,0.10673
5924.25572,0.10911
5926.18419,0.11016
5928.11266,0.09712
5930.04113,0.04662
5931.96960,0.02991
5933.89806,0.07556
5935.82653,0.09408
5937.75500,0.05934
5939.68347,0.02903
5941.61194,0.03999
5943.54041,0.05581
5945.46888,0.04594
5947.39734,0.05581
5949.32581,0.09580
5951.25428,0.11999
5953.18275,0.11930
5955.11122,0.11797
5957.03969,0.12560
5958.96816,0.13317
5960.89663,0.13999
5962.82509,0.14451
5964.75356,0.13394
5966.68203,0.10977
5968.61050,0.09345
5970.53897,0.11240
5972.46744,0.14002
5974.39591,0.11782
5976.32437,0.06592
5978.25284,0.03735
5980.18131,0.05533
5982.10978,0.10093
5984.03825,0.12463
5985.96672,0.12550
5987.89519,0.11527
5989.82366,0.07916
5991.75212,0.04800
5993.68059,0.05650
5995.60906,0.06854
5997.53753,0.04489
5999.46600,0.03574
6001.39447,0.08045
6003.32294,0.12710
6005.25140,0.11792
6007.17987,0.06100
6009.10834,-0.00128
6011.03681,-0.02626
6012.96528,0.00811
6014.89375,0.06161
6016.82222,0.07112
6018.75069,0.06063
6020.67915,0.08012
6022.60762,0.09760
6024.53609,0.08834
6026.46456,0.08120
6028.39303,0.10033
6030.32150,0.13438
6032.24997,0.15354
6034.17843,0.13745
6036.10690,0.11190
6038.03537,0.10350
6039.96384,0.09473
6041.89231,0.07539
6043.82078,0.05253
6045.74925,0.04534
6047.67772,0.06383
6049.60618,0.09096
6051.53465,0.09526
6053.46312,0.07816
6055.39159,0.07294
6057.32006,0.08504
6059.24853,0.08898
6061.17700,0.07935
6063.10546,0.06822
6065.03393,0.05064
6066.96240,0.03673
6068.89087,0.05059
6070.81934,0.08069
6072.74781,0.11379
6074.67628,0.14766
6076.60475,0.14692
6078.53321,0.09769
6080.46168,0.05864
6082.39015,0.04423
6084.31862,0.01299
6086.24709,0.00441
6088.17556,0.06311
6090.10403,0.11285
6092.03249,0.10091
6093.96096,0.07919
6095.88943,0.07023
6097.81790,0.04435
6099.74637,0.02676
6101.67484,0.05592
6103.60331,0.09066
6105.53177,0.09707
6107.46024,0.09159
6109.38871,0.06518
6111.31718,0.02935
6113.24565,0.02556
6115.17412,0.05407
6117.10259,0.08025
6119.03106,0.06127
6120.95952,0.02063
6122.88799,0.02340
6124.81646,0.07221
6126.74493,0.11902
6128.67340,0.11872
6130.60187,0.08084
6132.53034,0.06258
6134.45880,0.08414
6136.38727,0.11776
6138.31574,0.13712
6140.24421,0.13423
6142.17268,0.11427
6144.10115,0.07633
6146.02962,0.04940
6147.95809,0.06428
6149.88655,0.10458
6151.81502,0.16142
6153.74349,0.21166
6155.67196,0.22379
6157.60043,0.21504
6159.52890,0.19927
6161.45737,0.18653
6163.38583,0.18494
6165.31430,0.17143
6167.24277,0.13810
6169.17124,0.11199
6171.09971,0.09104
6173.02818,0.05862
6174.95665,0.04455
6176.88512,0.05793
6178.81358,0.08470
6180.74205,0.10497
6182.67052,0.08990
6184.59899,0.07218
6186.52746,0.08457
6188.45593,0.10256
6190.38440,0.10476
6192.31286,0.10938
6194.24133,0.09064
6196.16980,0.02345
6198.09827,-0.01123
6200.02674,0.01978
6201.95521,0.06630
6203.88368,0.10367
6205.81215,0.12873
6207.74061,0.13567
6209.66908,0.11236
6211.59755,0.09045
6213.52602,0.09738
6215.45449,0.10817
6217.38296,0.10321
6219.31143,0.09242
6221.23989,0.08906
6223.16836,0.09555
6225.09683,0.11858
6227.02530,0.12934
6228.95377,0.09979
6230.88224,0.05995
6232.81071,0.04309
6234.73918,0.04784
6236.66764,0.06014
6238.59611,0.07841
6240.52458,0.09200
6242.45305,0.07311
6244.38152,0.02571
6246.30999,-0.02287
6248.23846,-0.05763
6250.16692,-0.04811
6252.09539,0.01398
6254.02386,0.07657
6255.95233,0.11345
6257.88080,0.12428
6259.80927,0.10802
6261.73774,0.09873
6263.66621,0.12138
6265.59467,0.13540
6267.52314,0.11346
6269.45161,0.07218
6271.38008,0.03189
6273.30855,0.03043
6275.23702,0.05842
6277.16549,0.06212
6279.09395,0.06252
6281.02242,0.07211
6282.95089,0.05706
6284.87936,0.04180
6286.80783,0.06916
6288.73630,0.10399
6290.66477,0.09787
6292.59323,0.05747
6294.52170,0.01378
6296.45017,0.01713
6298.37864,0.07000
6300.30711,0.09958
6302.23558,0.08416
6304.16405,0.06620
6306.09252,0.06240
6308.02098,0.09334
6309.94945,0.15565
6311.87792,0.16907
6313.80639,0.10433
6315.73486,0.04647
6317.66333,0.04792
6319.59180,0.08343
6321.52026,0.12938
6323.44873,0.15660
6325.37720,0.14528
6327.30567,0.13231
6329.23414,0.11017
6331.16261,0.05298
6333.09108,0.02303
6335.01955,0.04012
6336.94801,0.05802
6338.87648,0.06982
6340.80495,0.09697
6342.73342,0.14881
6344.66189,0.21726
6346.59036,0.26200
6348.51883,0.22379
6350.44729,0.13628
6352.37576,0.09694
6354.30423,0.08199
6356.23270,0.03722
6358.16117,0.01198
6360.08964,0.04436
6362.01811,0.09484
6363.94658,0.12176
6365.87504,0.11616
6367.80351,0.09166
6369.73198,0.05867
6371.66045,0.02382
6373.58892,-0.01447
6375.51739,-0.03453
6377.44586,0.00480
6379.37432,0.06227
6381.30279,0.05277
6383.23126,-0.01093
6385.15973,-0.01707
6387.08820,0.04248
6389.01667,0.10174
6390.94514,0.14106
6392.87361,0.15795
6394.80207,0.13116
6396.73054,0.07777
6398.65901,0.05507
6400.58748,0.07115
6402.51595,0.09085
6404.44442,0.09076
6406.37289,0.08547
6408.30135,0.10621
6410.22982,0.09724
6412.15829,0.03468
6414.08676,0.01579
6416.01523,0.04137
6417.94370,0.07871
6419.87217,0.13238
6421.80064,0.12820
6423.72910,0.05015
6425.65757,-0.00943
6427.58604,0.00328
6429.51451,0.03742
6431.44298,0.03247
6433.37145,0.01438
6435.29992,0.01440
6437.22838,0.03435
6439.15685,0.07139
6441.08532,0.08252
6443.01379,0.05702
6444.94226,0.05622
6446.87073,0.08467
6448.79920,0.08935
6450.72766,0.10196
6452.65613,0.15192
6454.58460,0.18419
6456.51307,0.16628
6458.44154,0.11469
6460.37001,0.07004
6462.29848,0.07733
6464.22695,0.12562
6466.15541,0.12978
6468.08388,0.09871
6470.01235,0.12969
6471.94082,0.18348
6473.86929,0.17392
6475.79776,0.13646
6477.72623,0.11135
6479.65469,0.04879
6481.58316,-0.04054
6483.51163,-0.04127
6485.44010,0.04697
6487.36857,0.12468
6489.29704,0.12135
6491.22551,0.02744
6493.15398,-0.07194
6495.08244,-0.06237
6497.01091,0.02212
6498.93938,0.06782
6500.86785,0.06067
6502.79632,0.07408
6504.72479,0.09763
6506.65326,0.07610
6508.58172,0.02313
6510.51019,-0.03281
6512.43866,-0.05765
6514.36713,-0.00761
6516.29560,0.06749
6518.22407,0.09062
6520.15254,0.07288
6522.08101,0.05016
6524.00947,0.03519
6525.93794,0.01527
6527.86641,-0.00371
6529.79488,0.01154
6531.72335,0.06265
6533.65182,0.13341
6535.58029,0.15497
6537.50875,0.09096
6539.43722,0.04383
6541.36569,0.06442
6543.29416,0.08416
6545.22263,0.08233
6547.15110,0.09546
6549.07957,0.13297
6551.00804,0.14948
6552.93650,0.10323
6554.86497,0.03891
6556.79344,0.00028
6558.72191,-0.02740
6560.65038,-0.05968
6562.57885,-0.08264
6564.50732,-0.04173
6566.43578,0.03824
6568.36425,0.04954
6570.29272,0.03451
6572.22119,0.08940
6574.14966,0.16644
6576.07813,0.17461
6578.00660,0.10529
6579.93507,0.03539
6581.86353,0.03913
6583.79200,0.09614
6585.72047,0.13063
6587.64894,0.14075
6589.57741,0.14752
6591.50588,0.13338
6593.43435,0.12070
6595.36281,0.11619
6597.29128,0.10717
6599.21975,0.14195
6601.14822,0.16948
6603.07669,0.12740
6605.00516,0.11218
6606.93363,0.14535
6608.86210,0.16523
6610.79056,0.15899
6612.71903,0.11798
6614.64750,0.04552
6616.57597,0.03015
6618.50444,0.06647
6620.43291,0.03369
6622.36138,-0.02371
6624.28984,-0.01099
6626.21831,0.04496
6628.14678,0.08664
6630.07525,0.07554
6632.00372,0.03595
6633.93219,0.00711
6635.86066,0.02967
6637.78912,0.10272
6639.71759,0.13559
6641.64606,0.12660
6643.57453,0.09279
6645.50300,0.03367
6647.43147,0.02838
6649.35994,0.05661
6651.28841,0.01947
6653.21687,-0.02877
6655.14534,0.00202
6657.07381,0.07553
6659.00228,0.12798
6660.93075,0.15623
6662.85922,0.15843
6664.78769,0.14226
6666.71615,0.11950
6668.64462,0.09990
6670.57309,0.10802
6672.50156,0.12569
6674.43003,0.10267
6676.35850,0.06611
6678.28697,0.03859
6680.21544,0.02787
6682.14390,0.08015
6684.07237,0.17545
6686.00084,0.21736
6687.92931,0.17004
6689.85778,0.10295
6691.78625,0.06678
6693.71472,0.03309
6695.64318,0.02476
6697.57165,0.06546
6699.50012,0.08317
6701.42859,0.05253
6703.35706,0.02230
6705.28553,0.04422
6707.21400,0.12547
6709.14247,0.14538
6711.07093,0.06929
6712.99940,0.02506
6714.92787,0.05136
6716.85634,0.07047
6718.78481,0.06559
6720.71328,0.08200
6722.64175,0.08524
6724.57021,0.05084
6726.49868,0.01781
6728.42715,0.00488
6730.35562,0.00439
6732.28409,-0.00076
6734.21256,0.02203
6736.14103,0.08665
6738.06950,0.14307
6739.99796,0.15127
6741.92643,0.07240
6743.85490,-0.04860
6745.78337,-0.10355
6747.71184,-0.06624
6749.64031,-0.01126
6751.56878,0.01830
6753.49724,0.04102
6755.42571,0.01515
6757.35418,-0.06582
6759.28265,-0.11273
6761.21112,-0.05075
6763.13959,0.03895
6765.06806,0.06208
6766.99653,0.03292
6768.92499,0.00778
6770.85346,0.03883
6772.78193,0.11404
6774.71040,0.15552
6776.63887,0.12468
6778.56734,0.07454
6780.49581,0.05476
6782.42427,0.09813
6784.35274,0.14213
6786.28121,0.06343
6788.20968,-0.03020
6790.13815,0.02624
6792.06662,0.12584
6793.99509,0.11227
6795.92355,0.06041
6797.85202,0.03912
6799.78049,-0.00115
6801.70896,-0.06927
6803.63743,-0.06576
6805.56590,0.04076
6807.49437,0.11774
6809.42284,0.07839
6811.35130,-0.00572
6813.27977,-0.00697
6815.20824,0.02627
6817.13671,0.00505
6819.06518,0.00142
6820.99365,0.02057
6822.92212,-0.01489
6824.85058,-0.05871
6826.77905,-0.02681
6828.70752,0.04138
6830.63599,0.03203
6832.56446,-0.04067
6834.49293,-0.07738
6836.42140,-0.09333
6838.34987,-0.10779
6840.27833,-0.06586
6842.20680,0.01025
6844.13527,0.06107
6846.06374,0.06822
6847.99221,0.04356
6849.92068,0.04451
6851.84915,0.09006
6853.77761,0.13817
6855.70608,0.14425
6857.63455,0.07592
6859.56302,-0.02716
6861.49149,-0.09171
6863.41996,-0.08837
6865.34843,-0.07784
6867.27690,-0.09328
6869.20536,-0.10318
6871.13383,-0.05413
6873.06230,0.06144
6874.99077,0.12355
6876.91924,0.10321
6878.84771,0.08626
6880.77618,0.12994
6882.70464,0.19776
6884.63311,0.22389
6886.56158,0.24359
6888.49005,0.25927
6890.41852,0.16129
6892.34699,-0.00522
6894.27546,-0.05946
6896.20393,0.02865
6898.13239,0.10292
6900.06086,0.05714
6901.98933,0.01387
6903.91780,0.03900
6905.84627,0.08235
6907.77474,0.12346
6909.70321,0.17172
6911.63167,0.21024
6913.56014,0.21747
6915.48861,0.21612
6917.41708,0.21062
6919.34555,0.12904
6921.27402,0.00565
6923.20249,-0.02717
6925.13096,0.04076
6927.05942,0.10353
6928.98789,0.06851
6930.91636,0.01796
6932.84483,0.04594
6934.77330,0.09063
6936.70177,0.11002
6938.63024,0.09931
6940.55870,0.10090
6942.48717,0.13097
6944.41564,0.15354
6946.34411,0.15547
6948.27258,0.10348
6950.20105,0.01644
6952.12952,-0.03813
6954.05799,-0.05741
6955.98645,-0.10397
6957.91492,-0.14200
6959.84339,-0.15638
6961.77186,-0.18777
6963.70033,-0.13707
6965.62880,0.01635
6967.55727,0.13691
6969.48573,0.16080
6971.41420,0.14630
6973.34267,0.12556
6975.27114,0.09123
6977.19961,0.03545
6979.12808,-0.00225
6981.05655,0.00706
6982.98501,0.00797
6984.91348,0.02290
6986.84195,0.10915
6988.77042,0.15564
6990.69889,0.11785
6992.62736,0.09751
6994.55583,0.13510
6996.48430,0.20086
6998.41276,0.22056
7000.34123,0.12480
7002.26970,-0.01823
7004.19817,-0.06277
7006.12664,0.07561
7008.05511,0.21481
7009.98358,0.18139
7011.91204,0.03629
7013.84051,-0.06292
7015.76898,-0.08385
7017.69745,-0.06002
7019.62592,-0.00544
7021.55439,0.06299
7023.48286,0.05811
7025.41133,-0.06340
7027.33979,-0.17118
7029.26826,-0.17165
7031.19673,-0.06428
7033.12520,0.05708
7035.05367,0.08213
7036.98214,0.07082
7038.91061,0.00960
7040.83907,-0.02651
7042.76754,0.04897
7044.69601,0.11330
7046.62448,0.07990
7048.55295,0.09810
7050.48142,0.14672
7052.40989,0.06434
7054.33836,-0.08871
7056.26682,-0.11247
7058.19529,0.03100
7060.12376,0.14715
7062.05223,0.12651
7063.98070,0.08467
7065.90917,0.08534
7067.83764,0.04138
7069.76610,0.00021
7071.69457,0.05354
7073.62304,0.08380
7075.55151,0.05192
7077.47998,0.03136
7079.40845,0.03624
7081.33692,0.01208
7083.26539,-0.07905
7085.19385,-0.12347
7087.12232,-0.03146
7089.05079,0.07437
7090.97926,0.07062
7092.90773,0.04117
7094.83620,0.05701
7096.76467,0.08659
7098.69313,0.06537
7100.62160,0.00543
7102.55007,-0.02794
7104.47854,-0.05080
7106.40701,-0.09109
7108.33548,-0.06508
7110.26395,0.05414
7112.19242,0.13593
7114.12088,0.09128
7116.04935,0.02957
7117.97782,0.05830
7119.90629,0.08420
7121.83476,0.02091
7123.76323,-0.07432
7125.69170,-0.08064
7127.62016,0.02464
7129.54863,0.12323
7131.47710,0.13387
7133.40557,0.06422
7135.33404,0.01620
7137.26251,0.01831
7139.19098,0.00727
7141.11944,-0.00249
7143.04791,0.02819
7144.97638,0.04314
7146.90485,-0.00941
7148.83332,-0.01698
7150.76179,0.02781
7152.69026,0.03219
7154.61873,0.05081
7156.54719,0.12177
7158.47566,0.16501
7160.40413,0.16016
7162.33260,0.14624
7164.26107,0.14417
7166.18954,0.13830
7168.11801,0.15203
7170.04647,0.19382
7171.97494,0.21120
7173.90341,0.20343
7175.83188,0.14557
7177.76035,-0.01587
7179.68882,-0.15196
7181.61729,-0.08514
7183.54576,0.16501
7185.47422,0.33178
7187.40269,0.29122
7189.33116,0.13282
7191.25963,0.04663
7193.18810,0.09794
7195.11657,0.13839
7197.04504,0.17446
7198.97350,0.19813
7200.90197,0.13980
7202.83044,0.00396
7204.75891,-0.16940
7206.68738,-0.20406
7208.61585,-0.15879
7210.54432,-0.14596
7212.47279,-0.09636
7214.40125,-0.03654
7216.32972,-0.06608
7218.25819,-0.11647
7220.18666,0.00047
7222.11513,0.17423
7224.04360,0.29650
7225.97207,0.31559
7227.90053,0.15349
7229.82900,-0.01244
7231.75747,0.05687
7233.68594,0.13173
7235.61441,0.04144
7237.54288,-0.04198
7239.47135,-0.00431
7241.39982,0.07978
7243.32828,0.11725
7245.25675,0.10691
7247.18522,0.09217
7249.11369,0.06125
7251.04216,0.03837
7252.97063,0.05463
7254.89910,0.05695
7256.82756,0.06545
7258.75603,0.07822
7260.68450,0.04480
7262.61297,0.00475
7264.54144,-0.03957
7266.46991,-0.06367
7268.39838,-0.01017
7270.32685,0.05474
7272.25531,0.01120
7274.18378,-0.10238
7276.11225,-0.12491
7278.04072,-0.09627
7279.96919,-0.10880
7281.89766,-0.08434
7283.82613,0.01595
7285.75459,0.05394
7287.68306,0.02530
7289.61153,0.05502
7291.54000,0.11235
7293.46847,0.10276
7295.39694,0.08957
7297.32541,0.10077
7299.25387,0.04484
7301.18234,-0.05316
7303.11081,-0.03242
7305.03928,0.06195
7306.96775,0.07720
7308.89622,0.12200
7310.82469,0.22114
7312.75316,0.21686
7314.68162,0.15224
7316.61009,0.08831
7318.53856,-0.00366
7320.46703,-0.06285
7322.39550,0.00815
7324.32397,0.08598
7326.25244,0.07118
7328.18090,0.03846
7330.10937,0.00558
7332.03784,0.03739
7333.96631,0.11334
7335.89478,0.17974
7337.82325,0.24269
7339.75172,0.19710
7341.68019,0.04936
7343.60865,-0.06310
7345.53712,-0.10930
7347.46559,0.02234
7349.39406,0.16475
7351.32253,0.11627
7353.25100,0.05485
7355.17947,0.12866
7357.10793,0.21250
7359.03640,0.17400
7360.96487,0.03911
7362.89334,-0.11130
7364.82181,-0.08483
7366.75028,0.06605
7368.67875,0.10988
7370.60722,0.11243
7372.53568,0.12898
7374.46415,0.05037
7376.39262,0.01685
7378.32109,0.12228
7380.24956,0.11656
7382.17803,-0.01557
7384.10650,-0.07542
7386.03496,-0.04792
7387.96343,0.04385
7389.89190,0.22423
7391.82037,0.32967
7393.74884,0.24307
7395.67731,0.16493
7397.60578,0.18798
7399.53425,0.17740
7401.46271,0.16854
7403.39118,0.19066
7405.31965,0.21130
7407.24812,0.17675
7409.17659,-0.00352
7411.10506,-0.18379
7413.03353,-0.20906
7414.96199,-0.20504
7416.89046,-0.17719
7418.81893,0.01655
7420.74740,0.14109
7422.67587,0.01861
7424.60434,-0.06947
7426.53281,-0.01140
7428.46128,0.06055
7430.38974,0.04335
7432.31821,-0.05304
7434.24668,-0.15198
7436.17515,-0.09113
7438.10362,0.07002
7440.03209,0.14503
7441.96056,0.11483
7443.88902,0.01997
7445.81749,0.00693
7447.74596,0.13742
7449.67443,0.28105
7451.60290,0.30414
7453.53137,0.27457
7455.45984,0.27061
7457.38831,0.24500
7459.31677,0.21623
7461.24524,0.18663
7463.17371,0.07647
7465.10218,-0.02077
7467.03065,-0.01829
7468.95912,-0.03131
7470.88759,-0.04472
7472.81605,0.02944
7474.74452,0.01835
7476.67299,-0.06030
7478.60146,0.04706
7480.52993,0.19008
7482.45840,0.18318
7484.38687,0.17872
7486.31533,0.11929
7488.24380,0.00219
7490.17227,-0.03449
7492.10074,0.00706
7494.02921,0.07977
7495.95768,0.14700
7497.88615,0.14466
