399.19301,1.66695
401.12148,-0.03038
403.04995,-0.25022
404.97842,-0.13925
406.90689,-0.05055
408.83536,0.02944
410.76382,0.12731
412.69229,0.14894
414.62076,0.12946
416.54923,0.15324
418.47770,0.25711
420.40617,0.30481
422.33464,0.17550
424.26311,0.03029
426.19157,0.01953
428.12004,0.06500
430.04851,0.06410
431.97698,0.03011
433.90545,-0.00634
435.83392,-0.02982
437.76239,-0.04158
439.69085,-0.03095
441.61932,0.05348
443.54779,0.12310
445.47626,0.05331
447.40473,-0.02832
449.33320,-0.01439
451.26167,0.06080
453.19013,0.13066
455.11860,0.14043
457.04707,0.09758
458.97554,0.04532
460.90401,0.00384
462.83248,-0.00722
464.76095,0.02042
466.68942,0.05483
468.61788,0.08467
470.54635,0.11495
472.47482,0.16049
474.40329,0.23634
476.33176,0.23006
478.26023,0.17115
480.18870,0.13823
482.11716,0.13375
484.04563,0.15387
485.97410,0.18065
487.90257,0.17996
489.83104,0.16861
491.75951,0.16714
493.68798,0.17021
495.61645,0.15684
497.54491,0.09297
499.47338,0.01269
501.40185,-0.01932
503.33032,-0.00485
505.25879,0.01723
507.18726,0.02776
509.11573,0.02405
511.04419,0.03632
512.97266,0.07184
514.90113,0.09276
516.82960,0.09058
518.75807,0.08865
520.68654,0.09632
522.61501,0.12139
524.54348,0.14135
526.47194,0.12810
528.40041,0.11989
530.32888,0.14175
532.25735,0.16539
534.18582,0.16181
536.11429,0.13973
538.04276,0.11737
539.97122,0.08691
541.89969,0.06810
543.82816,0.08857
545.75663,0.10740
547.68510,0.10489
549.61357,0.09273
551.54204,0.00702
553.47051,-0.10655
555.39897,-0.07564
557.32744,0.03916
559.25591,0.07347
561.18438,0.07330
563.11285,0.08025
565.04132,0.06515
566.96979,0.07248
568.89825,0.12118
570.82672,0.14343
572.75519,0.13289
574.68366,0.14072
576.61213,0.15520
578.54060,0.14881
580.46907,0.13143
582.39754,0.11554
584.32600,0.10000
586.25447,0.08572
588.18294,0.07904
590.11141,0.06611
592.03988,0.05727
593.96835,0.06831
595.89682,0.07363
597.82528,0.08225
599.75375,0.10839
601.68222,0.12117
603.61069,0.11736
605.53916,0.12096
607.46763,0.12315
609.39610,0.11097
611.32456,0.09038
613.25303,0.06844
615.18150,0.05515
617.10997,0.06467
619.03844,0.08541
620.96691,0.09539
622.89538,0.09638
624.82385,0.09399
626.75231,0.09173
628.68078,0.09528
630.60925,0.09994
632.53772,0.09780
634.46619,0.10037
636.39466,0.11867
638.32313,0.13596
640.25159,0.13478
642.18006,0.12324
644.10853,0.11679
646.03700,0.11766
647.96547,0.12157
649.89394,0.12468
651.82241,0.12635
653.75088,0.12360
655.67934,0.11760
657.60781,0.11092
659.53628,0.09676
661.46475,0.09404
663.39322,0.11277
665.32169,0.11574
667.25016,0.09715
669.17862,0.11110
671.10709,0.13023
673.03556,0.12939
674.96403,0.12982
676.89250,0.11978
678.82097,0.10014
680.74944,0.09675
682.67791,0.10783
684.60637,0.11462
686.53484,0.11288
688.46331,0.11269
690.39178,0.11635
692.32025,0.11883
694.24872,0.12252
696.17719,0.12334
698.10565,0.11487
700.03412,0.10446
701.96259,0.10340
703.89106,0.11484
705.81953,0.12848
707.74800,0.13010
709.67647,0.12759
711.60494,0.14115
713.53340,0.15309
715.46187,0.14100
717.39034,0.12711
719.31881,0.12478
721.24728,0.12570
723.17575,0.12422
725.10422,0.11961
727.03268,0.12098
728.96115,0.12449
730.88962,0.11673
732.81809,0.10891
734.74656,0.11249
736.67503,0.11433
738.60350,0.11045
740.53197,0.11081
742.46043,0.11532
744.38890,0.11704
746.31737,0.11880
748.24584,0.12367
750.17431,0.12093
752.10278,0.11600
754.03125,0.12639
755.95971,0.13620
757.88818,0.12657
759.81665,0.11869
761.74512,0.12711
763.67359,0.13398
765.60206,0.13172
767.53053,0.12881
769.45900,0.12552
771.38746,0.12079
773.31593,0.11766
775.24440,0.11859
777.17287,0.12284
779.10134,0.12317
781.02981,0.11943
782.95828,0.11781
784.88674,0.11456
786.81521,0.11105
788.74368,0.11987
790.67215,0.13627
792.60062,0.13778
794.52909,0.12324
796.45756,0.11863
798.38602,0.12595
800.31449,0.12604
802.24296,0.12295
804.17143,0.12336
806.09990,0.11999
808.02837,0.12260
809.95684,0.12976
811.88531,0.12047
813.81377,0.10989
815.74224,0.11380
817.67071,0.11496
819.59918,0.11725
821.52765,0.12805
823.45612,0.13200
825.38459,0.12975
827.31305,0.12849
829.24152,0.12615
831.16999,0.12935
833.09846,0.13683
835.02693,0.14019
836.95540,0.14308
838.88387,0.14455
840.81234,0.13919
842.74080,0.12995
844.66927,0.12779
846.59774,0.13620
848.52621,0.13673
850.45468,0.12269
852.38315,0.11532
854.31162,0.12395
856.24008,0.13588
858.16855,0.14084
860.09702,0.14023
862.02549,0.14117
863.95396,0.14168
865.88243,0.13000
867.81090,0.10175
869.73937,0.07163
871.66783,0.06914
873.59630,0.09783
875.52477,0.12337
877.45324,0.12605
879.38171,0.11799
881.31018,0.11450
883.23865,0.11929
885.16711,0.12600
887.09558,0.12916
889.02405,0.12986
890.95252,0.12781
892.88099,0.11870
894.80946,0.11061
896.73793,0.11376
898.66640,0.12120
900.59486,0.13153
902.52333,0.14219
904.45180,0.13992
906.38027,0.12961
908.30874,0.12496
910.23721,0.12855
912.16568,0.13352
914.09414,0.13037
916.02261,0.12254
917.95108,0.12343
919.87955,0.13040
921.80802,0.13027
923.73649,0.12542
925.66496,0.12335
927.59343,0.12481
929.52189,0.12855
931.45036,0.13112
933.37883,0.13097
935.30730,0.13104
937.23577,0.13508
939.16424,0.13996
941.09271,0.14034
943.02117,0.13726
944.94964,0.13337
946.87811,0.13552
948.80658,0.14653
950.73505,0.15375
952.66352,0.15090
954.59199,0.14729
956.52045,0.14840
958.44892,0.14897
960.37739,0.14177
962.30586,0.13036
964.23433,0.12847
966.16280,0.13565
968.09127,0.13824
970.01974,0.13461
971.94820,0.13247
973.87667,0.13483
975.80514,0.13991
977.73361,0.14299
979.66208,0.14118
981.59055,0.13702
983.51902,0.13153
985.44748,0.12932
987.37595,0.13467
989.30442,0.13931
991.23289,0.14074
993.16136,0.14190
995.08983,0.13839
997.01830,0.13416
998.94677,0.13798
1000.87523,0.14619
1002.80370,0.14850
1004.73217,0.14383
1006.66064,0.13957
1008.58911,0.14006
1010.51758,0.14265
1012.44605,0.14040
1014.37451,0.13484
1016.30298,0.13216
1018.23145,0.12976
1020.15992,0.12697
1022.08839,0.13114
1024.01686,0.14100
1025.94533,0.14033
1027.87380,0.12790
1029.80226,0.12619
1031.73073,0.13871
1033.65920,0.14752
1035.58767,0.14900
1037.51614,0.14636
1039.44461,0.13766
1041.37308,0.13044
1043.30154,0.13519
1045.23001,0.14734
1047.15848,0.15638
1049.08695,0.15832
1051.01542,0.15474
1052.94389,0.15025
1054.87236,0.15384
1056.80083,0.16395
1058.72929,0.16400
1060.65776,0.15347
1062.58623,0.14305
1064.51470,0.13548
1066.44317,0.13596
1068.37164,0.14428
1070.30011,0.14871
1072.22857,0.14688
1074.15704,0.14960
1076.08551,0.15837
1078.01398,0.16784
1079.94245,0.17520
1081.87092,0.17250
1083.79939,0.15904
1085.72786,0.14694
1087.65632,0.14172
1089.58479,0.13899
1091.51326,0.13995
1093.44173,0.14888
1095.37020,0.15877
1097.29867,0.16124
1099.22714,0.15985
1101.15560,0.15749
1103.08407,0.15479
1105.01254,0.15495
1106.94101,0.15253
1108.86948,0.14294
1110.79795,0.13520
1112.72642,0.13813
1114.65489,0.14914
1116.58335,0.15706
1118.51182,0.15551
1120.44029,0.15177
1122.36876,0.15148
1124.29723,0.15036
1126.22570,0.15016
1128.15417,0.15571
1130.08263,0.15935
1132.01110,0.15450
1133.93957,0.14758
1135.86804,0.14520
1137.79651,0.14503
1139.72498,0.14452
1141.65345,0.14845
1143.58191,0.15864
1145.51038,0.16499
1147.43885,0.16153
1149.36732,0.15495
1151.29579,0.14955
1153.22426,0.14751
1155.15273,0.14863
1157.08120,0.14933
1159.00966,0.15221
1160.93813,0.15673
1162.86660,0.15846
1164.79507,0.15777
1166.72354,0.15670
1168.65201,0.15757
1170.58048,0.15971
1172.50894,0.16086
1174.43741,0.16137
1176.36588,0.16153
1178.29435,0.16094
1180.22282,0.15931
1182.15129,0.15613
1184.07976,0.15259
1186.00823,0.15159
1187.93669,0.15331
1189.86516,0.15536
1191.79363,0.15824
1193.72210,0.16194
1195.65057,0.16250
1197.57904,0.16074
1199.50751,0.15901
1201.43597,0.15725
1203.36444,0.15912
1205.29291,0.16277
1207.22138,0.16249
1209.14985,0.15965
1211.07832,0.15882
1213.00679,0.16229
1214.93526,0.16575
1216.86372,0.16348
1218.79219,0.15760
1220.72066,0.15588
1222.64913,0.16164
1224.57760,0.16911
1226.50607,0.17076
1228.43454,0.16545
1230.36300,0.15984
1232.29147,0.15861
1234.21994,0.15896
1236.14841,0.15973
1238.07688,0.16228
1240.00535,0.16497
1241.93382,0.16555
1243.86229,0.16334
1245.79075,0.16070
1247.71922,0.16073
1249.64769,0.16094
1251.57616,0.15887
1253.50463,0.15691
1255.43310,0.15716
1257.36157,0.16012
1259.29003,0.16380
1261.21850,0.16533
1263.14697,0.16573
1265.07544,0.16507
1267.00391,0.16102
1268.93238,0.15744
1270.86085,0.16052
1272.78932,0.16680
1274.71778,0.16967
1276.64625,0.17052
1278.57472,0.17139
1280.50319,0.17027
1282.43166,0.16941
1284.36013,0.17104
1286.28860,0.17120
1288.21706,0.16874
1290.14553,0.16789
1292.07400,0.17012
1294.00247,0.17024
1295.93094,0.16588
1297.85941,0.16113
1299.78788,0.15772
1301.71634,0.15382
1303.64481,0.14915
1305.57328,0.15032
1307.50175,0.16061
1309.43022,0.17001
1311.35869,0.17183
1313.28716,0.16949
1315.21563,0.16827
1317.14409,0.17255
1319.07256,0.17786
1321.00103,0.17806
1322.92950,0.17593
1324.85797,0.17148
1326.78644,0.16695
1328.71491,0.16657
1330.64337,0.16501
1332.57184,0.16153
1334.50031,0.16295
1336.42878,0.17196
1338.35725,0.18395
1340.28572,0.18455
1342.21419,0.17415
1344.14266,0.16906
1346.07112,0.16855
1347.99959,0.16610
1349.92806,0.16445
1351.85653,0.16431
1353.78500,0.16513
1355.71347,0.16744
1357.64194,0.16995
1359.57040,0.17570
1361.49887,0.18593
1363.42734,0.18820
1365.35581,0.17982
1367.28428,0.17437
1369.21275,0.17345
1371.14122,0.17478
1373.06969,0.18148
1374.99815,0.18786
1376.92662,0.18385
1378.85509,0.17574
1380.78356,0.17078
1382.71203,0.16966
1384.64050,0.17644
1386.56897,0.18963
1388.49743,0.19481
1390.42590,0.19262
1392.35437,0.19562
1394.28284,0.20091
1396.21131,0.19706
1398.13978,0.18746
1400.06825,0.17894
1401.99672,0.17317
1403.92518,0.17219
1405.85365,0.17406
1407.78212,0.17639
1409.71059,0.18112
1411.63906,0.18699
1413.56753,0.19033
1415.49600,0.19537
1417.42446,0.20818
1419.35293,0.21237
1421.28140,0.19829
1423.20987,0.18812
1425.13834,0.18510
1427.06681,0.18569
1428.99528,0.18765
1430.92375,0.18669
1432.85221,0.18875
1434.78068,0.19808
1436.70915,0.20226
1438.63762,0.19468
1440.56609,0.18921
1442.49456,0.18629
1444.42303,0.18465
1446.35149,0.18846
1448.27996,0.19375
1450.20843,0.19250
1452.13690,0.19074
1454.06537,0.20112
1455.99384,0.23115
1457.92231,0.24396
1459.85077,0.21381
1461.77924,0.19539
1463.70771,0.19643
1465.63618,0.19925
1467.56465,0.19711
1469.49312,0.20404
1471.42159,0.22306
1473.35006,0.23255
1475.27852,0.21815
1477.20699,0.20191
1479.13546,0.19350
1481.06393,0.18917
1482.99240,0.18596
1484.92087,0.19101
1486.84934,0.20990
1488.77780,0.22872
1490.70627,0.22105
1492.63474,0.20566
1494.56321,0.20692
1496.49168,0.21906
1498.42015,0.21834
1500.34862,0.20531
1502.27709,0.20053
1504.20555,0.21539
1506.13402,0.25859
1508.06249,0.27250
1509.99096,0.24079
1511.91943,0.22166
1513.84790,0.21919
1515.77637,0.22782
1517.70483,0.23758
1519.63330,0.24946
1521.56177,0.26131
1523.49024,0.25332
1525.41871,0.24049
1527.34718,0.22905
1529.27565,0.21797
1531.20412,0.21793
1533.13258,0.22589
1535.06105,0.22546
1536.98952,0.23033
1538.91799,0.26029
1540.84646,0.28239
1542.77493,0.25391
1544.70340,0.22496
1546.63186,0.20974
1548.56033,0.20744
1550.48880,0.21042
1552.41727,0.21594
1554.34574,0.22949
1556.27421,0.25213
1558.20268,0.27945
1560.13115,0.25553
1562.05961,0.22028
1563.98808,0.20848
1565.91655,0.20713
1567.84502,0.21369
1569.77349,0.21961
1571.70196,0.21250
1573.63043,0.21134
1575.55889,0.21944
1577.48736,0.20994
1579.41583,0.19287
1581.34430,0.18761
1583.27277,0.18850
1585.20124,0.18917
1587.12971,0.18857
1589.05818,0.18703
1590.98664,0.18561
1592.91511,0.18544
1594.84358,0.18662
1596.77205,0.18758
1598.70052,0.18829
1600.62899,0.18920
1602.55746,0.19029
1604.48592,0.19193
1606.41439,0.19338
1608.34286,0.19419
1610.27133,0.19369
1612.19980,0.19381
1614.12827,0.20068
1616.05674,0.21343
1617.98521,0.21273
1619.91367,0.20721
1621.84214,0.21569
1623.77061,0.22578
1625.69908,0.22258
1627.62755,0.21241
1629.55602,0.19944
1631.48449,0.19376
1633.41295,0.20441
1635.34142,0.22805
1637.26989,0.23072
1639.19836,0.21640
1641.12683,0.20795
1643.05530,0.20952
1644.98377,0.22841
1646.91223,0.25360
1648.84070,0.24916
1650.76917,0.24705
1652.69764,0.26612
1654.62611,0.24656
1656.55458,0.21294
1658.48305,0.20211
1660.41152,0.20763
1662.33998,0.21703
1664.26845,0.21457
1666.19692,0.21061
1668.12539,0.21910
1670.05386,0.22594
1671.98233,0.21823
1673.91080,0.21465
1675.83926,0.21365
1677.76773,0.21158
1679.69620,0.21797
1681.62467,0.23733
1683.55314,0.26059
1685.48161,0.25310
1687.41008,0.23466
1689.33855,0.22291
1691.26701,0.21277
1693.19548,0.21246
1695.12395,0.22709
1697.05242,0.24775
1698.98089,0.25959
1700.90936,0.25106
1702.83783,0.23676
1704.76629,0.23150
1706.69476,0.22062
1708.62323,0.20401
1710.55170,0.19708
1712.48017,0.20520
1714.40864,0.22862
1716.33711,0.25314
1718.26558,0.23925
1720.19404,0.20902
1722.12251,0.19674
1724.05098,0.19425
1725.97945,0.19283
1727.90792,0.19602
1729.83639,0.20528
1731.76486,0.21705
1733.69332,0.22333
1735.62179,0.21254
1737.55026,0.20460
1739.47873,0.20679
1741.40720,0.20984
1743.33567,0.21176
1745.26414,0.21640
1747.19261,0.22415
1749.12107,0.22876
1751.04954,0.21738
1752.97801,0.20105
1754.90648,0.19753
1756.83495,0.20163
1758.76342,0.20270
1760.69189,0.20328
1762.62035,0.20194
1764.54882,0.19816
1766.47729,0.20147
1768.40576,0.21157
1770.33423,0.22249
1772.26270,0.22563
1774.19117,0.21481
1776.11964,0.20488
1778.04810,0.20275
1779.97657,0.20339
1781.90504,0.20103
1783.83351,0.19759
1785.76198,0.19449
1787.69045,0.19283
1789.61892,0.19801
1791.54738,0.20864
1793.47585,0.21164
1795.40432,0.20665
1797.33279,0.20502
1799.26126,0.20891
1801.18973,0.21011
1803.11820,0.20345
1805.04666,0.19661
1806.97513,0.19533
1808.90360,0.19764
1810.83207,0.19848
1812.76054,0.19655
1814.68901,0.19471
1816.61748,0.19517
1818.54595,0.19837
1820.47441,0.20135
1822.40288,0.20312
1824.33135,0.20315
1826.25982,0.20090
1828.18829,0.20234
1830.11676,0.20412
1832.04523,0.19858
1833.97369,0.19340
1835.90216,0.19261
1837.83063,0.19214
1839.75910,0.19267
1841.68757,0.19979
1843.61604,0.20848
1845.54451,0.20559
1847.47298,0.19710
1849.40144,0.19175
1851.32991,0.18941
1853.25838,0.18972
1855.18685,0.19137
1857.11532,0.19190
1859.04379,0.19070
1860.97226,0.18924
1862.90072,0.18910
1864.82919,0.19353
1866.75766,0.20334
1868.68613,0.20948
1870.61460,0.20470
1872.54307,0.19714
1874.47154,0.19209
1876.40001,0.19004
1878.32847,0.19003
1880.25694,0.19042
1882.18541,0.19115
1884.11388,0.19166
1886.04235,0.19142
1887.97082,0.19248
1889.89929,0.19299
1891.82775,0.19000
1893.75622,0.18877
1895.68469,0.19068
1897.61316,0.19169
1899.54163,0.19251
1901.47010,0.19305
1903.39857,0.19205
1905.32704,0.19263
1907.25550,0.19646
1909.18397,0.19890
1911.11244,0.19540
1913.04091,0.18931
1914.96938,0.18777
1916.89785,0.19187
1918.82632,0.19478
1920.75478,0.19489
1922.68325,0.19442
1924.61172,0.19155
1926.54019,0.18892
1928.46866,0.18822
1930.39713,0.18809
1932.32560,0.18973
1934.25407,0.19269
1936.18253,0.19306
1938.11100,0.19122
1940.03947,0.19449
1941.96794,0.20221
1943.89641,0.20249
1945.82488,0.19524
1947.75335,0.18966
1949.68181,0.18777
1951.61028,0.18780
1953.53875,0.19002
1955.46722,0.19355
1957.39569,0.19466
1959.32416,0.19412
1961.25263,0.19454
1963.18110,0.19531
1965.10956,0.19642
1967.03803,0.19613
1968.96650,0.19331
1970.89497,0.19100
1972.82344,0.19042
1974.75191,0.19154
1976.68038,0.19354
1978.60884,0.19247
1980.53731,0.18757
1982.46578,0.18545
1984.39425,0.18965
1986.32272,0.19454
1988.25119,0.19571
1990.17966,0.19554
1992.10812,0.19491
1994.03659,0.19195
1995.96506,0.18988
1997.89353,0.19103
1999.82200,0.19175
2001.75047,0.19007
2003.67894,0.18791
2005.60741,0.18765
2007.53587,0.18843
2009.46434,0.18819
2011.39281,0.18890
2013.32128,0.19213
2015.24975,0.19643
2017.17822,0.19830
2019.10669,0.19619
2021.03515,0.19429
2022.96362,0.19483
2024.89209,0.19433
2026.82056,0.19097
2028.74903,0.18857
2030.67750,0.18932
2032.60597,0.19041
2034.53444,0.19087
2036.46290,0.19196
2038.39137,0.19181
2040.31984,0.18976
2042.24831,0.18869
2044.17678,0.18898
2046.10525,0.19043
2048.03372,0.19242
2049.96218,0.19228
2051.89065,0.19015
2053.81912,0.18932
2055.74759,0.19206
2057.67606,0.19584
2059.60453,0.19609
2061.53300,0.19398
2063.46147,0.19378
2065.38993,0.19417
2067.31840,0.19254
2069.24687,0.19165
2071.17534,0.19395
2073.10381,0.19733
2075.03228,0.19830
2076.96075,0.19662
2078.88921,0.19469
2080.81768,0.19327
2082.74615,0.19236
2084.67462,0.19318
2086.60309,0.19438
2088.53156,0.19236
2090.46003,0.18851
2092.38850,0.18844
2094.31696,0.19253
2096.24543,0.19588
2098.17390,0.19646
2100.10237,0.19477
2102.03084,0.19207
2103.95931,0.19100
2105.88778,0.19241
2107.81624,0.19436
2109.74471,0.19458
2111.67318,0.19394
2113.60165,0.19443
2115.53012,0.19462
2117.45859,0.19352
2119.38706,0.19367
2121.31553,0.19463
2123.24399,0.19286
2125.17246,0.19077
2127.10093,0.19196
2129.02940,0.19365
2130.95787,0.19343
2132.88634,0.19332
2134.81481,0.19496
2136.74327,0.19649
2138.67174,0.19624
2140.60021,0.19608
2142.52868,0.19648
2144.45715,0.19520
2146.38562,0.19399
2148.31409,0.19535
2150.24255,0.19687
2152.17102,0.19722
2154.09949,0.19802
2156.02796,0.19818
2157.95643,0.19568
2159.88490,0.19273
2161.81337,0.19151
2163.74184,0.19128
2165.67030,0.19138
2167.59877,0.19133
2169.52724,0.19164
2171.45571,0.19266
2173.38418,0.19345
2175.31265,0.19422
2177.24112,0.19431
2179.16958,0.19401
2181.09805,0.19624
2183.02652,0.19902
2184.95499,0.19840
2186.88346,0.19685
2188.81193,0.19707
2190.74040,0.19753
2192.66887,0.19763
2194.59733,0.19769
2196.52580,0.19653
2198.45427,0.19382
2200.38274,0.19097
2202.31121,0.19037
2204.23968,0.19317
2206.16815,0.19592
2208.09661,0.19530
2210.02508,0.19333
2211.95355,0.19320
2213.88202,0.19405
2215.81049,0.19348
2217.73896,0.19314
2219.66743,0.19491
2221.59590,0.19654
2223.52436,0.19611
2225.45283,0.19370
2227.38130,0.19122
2229.30977,0.19204
2231.23824,0.19588
2233.16671,0.19844
2235.09518,0.19767
2237.02364,0.19511
2238.95211,0.19261
2240.88058,0.19176
2242.80905,0.19252
2244.73752,0.19213
2246.66599,0.19087
2248.59446,0.19133
2250.52293,0.19251
2252.45139,0.19335
2254.37986,0.19454
2256.30833,0.19557
2258.23680,0.19603
2260.16527,0.19590
2262.09374,0.19503
2264.02221,0.19437
2265.95067,0.19489
2267.87914,0.19627
2269.80761,0.19691
2271.73608,0.19660
2273.66455,0.19722
2275.59302,0.19704
2277.52149,0.19445
2279.44996,0.19341
2281.37842,0.19452
2283.30689,0.19493
2285.23536,0.19563
2287.16383,0.19726
2289.09230,0.19799
2291.02077,0.19736
2292.94924,0.19564
2294.87770,0.19358
2296.80617,0.19369
2298.73464,0.19601
2300.66311,0.19661
2302.59158,0.19589
2304.52005,0.19710
2306.44852,0.19897
2308.37699,0.20092
2310.30545,0.20274
2312.23392,0.20236
2314.16239,0.20245
2316.09086,0.20471
2318.01933,0.20476
2319.94780,0.20168
2321.87627,0.19911
2323.80473,0.19876
2325.73320,0.20181
2327.66167,0.20515
2329.59014,0.20441
2331.51861,0.20416
2333.44708,0.20872
2335.37555,0.21540
2337.30401,0.21738
2339.23248,0.21283
2341.16095,0.21194
2343.08942,0.21441
2345.01789,0.20820
2346.94636,0.20124
2348.87483,0.19983
2350.80330,0.19646
2352.73176,0.19035
2354.66023,0.19257
2356.58870,0.20431
2358.51717,0.21584
2360.44564,0.22361
2362.37411,0.22323
2364.30258,0.21775
2366.23104,0.21744
2368.15951,0.21731
2370.08798,0.21095
2372.01645,0.20491
2373.94492,0.20269
2375.87339,0.20068
2377.80186,0.19784
2379.73033,0.19605
2381.65879,0.19663
2383.58726,0.19900
2385.51573,0.19941
2387.44420,0.19691
2389.37267,0.19458
2391.30114,0.19307
2393.22961,0.19252
2395.15807,0.19320
2397.08654,0.19427
2399.01501,0.19544
2400.94348,0.19568
2402.87195,0.19517
2404.80042,0.19571
2406.72889,0.19724
2408.65736,0.19854
2410.58582,0.19822
2412.51429,0.19643
2414.44276,0.19537
2416.37123,0.19580
2418.29970,0.19670
2420.22817,0.19627
2422.15664,0.19418
2424.08510,0.19305
2426.01357,0.19355
2427.94204,0.19430
2429.87051,0.19507
2431.79898,0.19567
2433.72745,0.19650
2435.65592,0.19777
2437.58439,0.19796
2439.51285,0.19650
2441.44132,0.19510
2443.36979,0.19480
2445.29826,0.19437
2447.22673,0.19227
2449.15520,0.18948
2451.08367,0.18980
2453.01213,0.19425
2454.94060,0.19745
2456.86907,0.19685
2458.79754,0.19592
2460.72601,0.19562
2462.65448,0.19562
2464.58295,0.19707
2466.51142,0.19775
2468.43988,0.19531
2470.36835,0.19332
2472.29682,0.19397
2474.22529,0.19434
2476.15376,0.19481
2478.08223,0.19622
2480.01070,0.19615
2481.93916,0.19569
2483.86763,0.19658
2485.79610,0.19699
2487.72457,0.19686
2489.65304,0.19799
2491.58151,0.19917
2493.50998,0.19829
2495.43844,0.19622
2497.36691,0.19459
2499.29538,0.19386
2501.22385,0.19401
2503.15232,0.19342
2505.08079,0.19148
2507.00926,0.19208
2508.93773,0.19683
2510.86619,0.20097
2512.79466,0.20182
2514.72313,0.20176
2516.65160,0.20216
2518.58007,0.20245
2520.50854,0.20242
2522.43701,0.20206
2524.36547,0.20065
2526.29394,0.19765
2528.22241,0.19584
2530.15088,0.19783
2532.07935,0.20111
2534.00782,0.20192
2535.93629,0.19984
2537.86476,0.19773
2539.79322,0.19733
2541.72169,0.19736
2543.65016,0.19707
2545.57863,0.19646
2547.50710,0.19691
2549.43557,0.19893
2551.36404,0.19813
2553.29250,0.19490
2555.22097,0.19565
2557.14944,0.19899
2559.07791,0.19956
2561.00638,0.19792
2562.93485,0.19683
2564.86332,0.19636
2566.79179,0.19528
2568.72025,0.19543
2570.64872,0.19825
2572.57719,0.20061
2574.50566,0.20036
2576.43413,0.19866
2578.36260,0.19686
2580.29107,0.19672
2582.21953,0.19882
2584.14800,0.20024
2586.07647,0.19978
2588.00494,0.19938
2589.93341,0.19947
2591.86188,0.19933
2593.79035,0.19898
2595.71882,0.19912
2597.64728,0.19964
2599.57575,0.19954
2601.50422,0.19907
2603.43269,0.19891
2605.36116,0.19928
2607.28963,0.20023
2609.21810,0.20065
2611.14656,0.20002
2613.07503,0.19932
2615.00350,0.19883
2616.93197,0.19892
2618.86044,0.20001
2620.78891,0.20140
2622.71738,0.20317
2624.64585,0.20565
2626.57431,0.20689
2628.50278,0.20448
2630.43125,0.20021
2632.35972,0.19806
2634.28819,0.19751
2636.21666,0.19665
2638.14513,0.19744
2640.07359,0.20032
2642.00206,0.20201
2643.93053,0.20096
2645.85900,0.19937
2647.78747,0.20024
2649.71594,0.20302
2651.64441,0.20356
2653.57288,0.20159
2655.50134,0.20196
2657.42981,0.20488
2659.35828,0.20482
2661.28675,0.20067
2663.21522,0.19709
2665.14369,0.19688
2667.07216,0.19886
2669.00062,0.19978
2670.92909,0.19821
2672.85756,0.19824
2674.78603,0.20196
2676.71450,0.20443
2678.64297,0.20411
2680.57144,0.20366
2682.49990,0.20355
2684.42837,0.20513
2686.35684,0.20791
2688.28531,0.20873
2690.21378,0.20768
2692.14225,0.20648
2694.07072,0.20524
2695.99919,0.20406
2697.92765,0.20382
2699.85612,0.20347
2701.78459,0.20195
2703.71306,0.20116
2705.64153,0.20252
2707.57000,0.20427
2709.49847,0.20298
2711.42693,0.19969
2713.35540,0.19981
2715.28387,0.20404
2717.21234,0.20621
2719.14081,0.20309
2721.06928,0.20002
2722.99775,0.20072
2724.92622,0.20239
2726.85468,0.20399
2728.78315,0.20623
2730.71162,0.20733
2732.64009,0.20641
2734.56856,0.20522
2736.49703,0.20481
2738.42550,0.20490
2740.35396,0.20518
2742.28243,0.20494
2744.21090,0.20469
2746.13937,0.20558
2748.06784,0.20566
2749.99631,0.20348
2751.92478,0.20164
2753.85325,0.20221
2755.78171,0.20364
2757.71018,0.20437
2759.63865,0.20547
2761.56712,0.20650
2763.49559,0.20540
2765.42406,0.20454
2767.35253,0.20846
2769.28099,0.21535
2771.20946,0.21690
2773.13793,0.21100
2775.06640,0.20568
2776.99487,0.20617
2778.92334,0.21024
2780.85181,0.21362
2782.78028,0.21279
2784.70874,0.20896
2786.63721,0.20638
2788.56568,0.20667
2790.49415,0.20768
2792.42262,0.20708
2794.35109,0.20754
2796.27956,0.21071
2798.20802,0.21210
2800.13649,0.20966
2802.06496,0.20578
2803.99343,0.20392
2805.92190,0.20654
2807.85037,0.21074
2809.77884,0.21094
2811.70731,0.20789
2813.63577,0.20710
2815.56424,0.20850
2817.49271,0.20871
2819.42118,0.20945
2821.34965,0.21253
2823.27812,0.21499
2825.20659,0.21489
2827.13505,0.21364
2829.06352,0.21337
2830.99199,0.21449
2832.92046,0.21478
2834.84893,0.21378
2836.77740,0.21354
2838.70587,0.21303
2840.63433,0.21039
2842.56280,0.20791
2844.49127,0.20808
2846.41974,0.20944
2848.34821,0.20940
2850.27668,0.20885
2852.20515,0.20870
2854.13362,0.20762
2856.06208,0.20744
2857.99055,0.20913
2859.91902,0.21091
2861.84749,0.21275
2863.77596,0.21345
2865.70443,0.21285
2867.63290,0.21258
2869.56136,0.21166
2871.48983,0.21079
2873.41830,0.21114
2875.34677,0.21115
2877.27524,0.21138
2879.20371,0.21354
2881.13218,0.21487
2883.06065,0.21272
2884.98911,0.21055
2886.91758,0.21135
2888.84605,0.21334
2890.77452,0.21388
2892.70299,0.21128
2894.63146,0.20753
2896.55993,0.20567
2898.48839,0.20589
2900.41686,0.20794
2902.34533,0.20962
2904.27380,0.20888
2906.20227,0.20873
2908.13074,0.21002
2910.05921,0.20811
2911.98768,0.20386
2913.91614,0.20176
2915.84461,0.20070
2917.77308,0.19970
2919.70155,0.20120
2921.63002,0.20558
2923.55849,0.20926
2925.48696,0.21106
2927.41542,0.21585
2929.34389,0.22094
2931.27236,0.21675
2933.20083,0.20755
2935.12930,0.20213
2937.05777,0.19951
2938.98624,0.20059
2940.91471,0.20565
2942.84317,0.20960
2944.77164,0.21022
2946.70011,0.20777
2948.62858,0.20497
2950.55705,0.20645
2952.48552,0.21240
2954.41399,0.21457
2956.34245,0.20629
2958.27092,0.19887
2960.19939,0.20244
2962.12786,0.20698
2964.05633,0.20613
2965.98480,0.20485
2967.91327,0.20549
2969.84174,0.20951
2971.77020,0.21449
2973.69867,0.21648
2975.62714,0.21504
2977.55561,0.21078
2979.48408,0.20940
2981.41255,0.21171
2983.34102,0.21159
2985.26948,0.21041
2987.19795,0.21091
2989.12642,0.21155
2991.05489,0.21178
2992.98336,0.21251
2994.91183,0.21361
2996.84030,0.21406
2998.76877,0.21503
3000.69723,0.21914
3002.62570,0.22542
3004.55417,0.22744
3006.48264,0.22139
3008.41111,0.21168
3010.33958,0.20260
3012.26805,0.19319
3014.19651,0.17999
3016.12498,0.16724
3018.05345,0.17091
3019.98192,0.19289
3021.91039,0.21358
3023.83886,0.22236
3025.76733,0.22279
3027.69579,0.22036
3029.62426,0.22023
3031.55273,0.22188
3033.48120,0.22062
3035.40967,0.21700
3037.33814,0.21605
3039.26661,0.22031
3041.19508,0.22262
3043.12354,0.21649
3045.05201,0.20934
3046.98048,0.20754
3048.90895,0.20851
3050.83742,0.21068
3052.76589,0.21480
3054.69436,0.21734
3056.62282,0.21478
3058.55129,0.21209
3060.47976,0.21117
3062.40823,0.20930
3064.33670,0.20732
3066.26517,0.20489
3068.19364,0.20463
3070.12211,0.20991
3072.05057,0.21544
3073.97904,0.21368
3075.90751,0.20839
3077.83598,0.21038
3079.76445,0.21727
3081.69292,0.21811
3083.62139,0.20943
3085.54985,0.20067
3087.47832,0.20297
3089.40679,0.21090
3091.33526,0.21483
3093.26373,0.21298
3095.19220,0.21008
3097.12067,0.21280
3099.04914,0.21770
3100.97760,0.21849
3102.90607,0.21535
3104.83454,0.21329
3106.76301,0.21522
3108.69148,0.21748
3110.61995,0.21664
3112.54842,0.21433
3114.47688,0.21501
3116.40535,0.21763
3118.33382,0.21692
3120.26229,0.21471
3122.19076,0.21745
3124.11923,0.22342
3126.04770,0.22473
3127.97617,0.22189
3129.90463,0.22100
3131.83310,0.22184
3133.76157,0.22079
3135.69004,0.21965
3137.61851,0.22058
3139.54698,0.22113
3141.47545,0.22082
3143.40391,0.22004
3145.33238,0.21663
3147.26085,0.21294
3149.18932,0.21317
3151.11779,0.21560
3153.04626,0.22033
3154.97473,0.22544
3156.90320,0.22510
3158.83166,0.22395
3160.76013,0.22616
3162.68860,0.22661
3164.61707,0.22579
3166.54554,0.22698
3168.47401,0.22730
3170.40248,0.22427
3172.33094,0.22101
3174.25941,0.22181
3176.18788,0.22357
3178.11635,0.22175
3180.04482,0.22030
3181.97329,0.22360
3183.90176,0.22893
3185.83022,0.23191
3187.75869,0.23115
3189.68716,0.22747
3191.61563,0.22494
3193.54410,0.22553
3195.47257,0.22602
3197.40104,0.22638
3199.32951,0.22736
3201.25797,0.22692
3203.18644,0.22488
3205.11491,0.22451
3207.04338,0.22614
3208.97185,0.22657
3210.90032,0.22709
3212.82879,0.22884
3214.75725,0.22852
3216.68572,0.22387
3218.61419,0.21798
3220.54266,0.21523
3222.47113,0.21595
3224.39960,0.21900
3226.32807,0.22182
3228.25654,0.22120
3230.18500,0.21824
3232.11347,0.21791
3234.04194,0.21949
3235.97041,0.21628
3237.89888,0.21124
3239.82735,0.21225
3241.75582,0.21844
3243.68428,0.22421
3245.61275,0.22501
3247.54122,0.21990
3249.46969,0.21190
3251.39816,0.20764
3253.32663,0.21091
3255.25510,0.21732
3257.18357,0.22294
3259.11203,0.22544
3261.04050,0.22449
3262.96897,0.22423
3264.89744,0.22423
3266.82591,0.22125
3268.75438,0.21776
3270.68285,0.21772
3272.61131,0.21946
3274.53978,0.21991
3276.46825,0.22003
3278.39672,0.22057
3280.32519,0.22220
3282.25366,0.22314
3284.18213,0.21854
3286.11060,0.21284
3288.03906,0.21295
3289.96753,0.21483
3291.89600,0.21459
3293.82447,0.21359
3295.75294,0.21205
3297.68141,0.20928
3299.60988,0.20732
3301.53834,0.21005
3303.46681,0.21504
3305.39528,0.21639
3307.32375,0.21563
3309.25222,0.21734
3311.18069,0.22139
3313.10916,0.22271
3315.03763,0.21990
3316.96609,0.21929
3318.89456,0.22112
3320.82303,0.22024
3322.75150,0.21748
3324.67997,0.21564
3326.60844,0.21590
3328.53691,0.21768
3330.46537,0.22075
3332.39384,0.22459
3334.32231,0.22661
3336.25078,0.22655
3338.17925,0.22463
3340.10772,0.21966
3342.03619,0.21511
3343.96466,0.21575
3345.89312,0.21805
3347.82159,0.21839
3349.75006,0.22013
3351.67853,0.22294
3353.60700,0.22327
3355.53547,0.22075
3357.46394,0.21711
3359.39240,0.21826
3361.32087,0.22433
3363.24934,0.22522
3365.17781,0.21943
3367.10628,0.21559
3369.03475,0.21786
3370.96322,0.22174
3372.89168,0.22188
3374.82015,0.22164
3376.74862,0.22589
3378.67709,0.23167
3380.60556,0.23201
3382.53403,0.22516
3384.46250,0.21736
3386.39097,0.21480
3388.31943,0.21889
3390.24790,0.22697
3392.17637,0.23134
3394.10484,0.23038
3396.03331,0.22969
3397.96178,0.22823
3399.89025,0.22640
3401.81871,0.22413
3403.74718,0.22017
3405.67565,0.22035
3407.60412,0.22252
3409.53259,0.22116
3411.46106,0.21912
3413.38953,0.21942
3415.31800,0.22168
3417.24646,0.22499
3419.17493,0.22936
3421.10340,0.23170
3423.03187,0.22846
3424.96034,0.21999
3426.88881,0.21128
3428.81728,0.20882
3430.74574,0.20997
3432.67421,0.20756
3434.60268,0.20181
3436.53115,0.19911
3438.45962,0.20392
3440.38809,0.21153
3442.31656,0.21239
3444.24503,0.20686
3446.17349,0.20456
3448.10196,0.20703
3450.03043,0.20830
3451.95890,0.20680
3453.88737,0.20313
3455.81584,0.19895
3457.74431,0.19881
3459.67277,0.20390
3461.60124,0.20840
3463.52971,0.20830
3465.45818,0.20510
3467.38665,0.20117
3469.31512,0.19872
3471.24359,0.19782
3473.17206,0.19862
3475.10052,0.20135
3477.02899,0.20220
3478.95746,0.20236
3480.88593,0.20517
3482.81440,0.20464
3484.74287,0.19944
3486.67134,0.19505
3488.59980,0.19145
3490.52827,0.18960
3492.45674,0.19051
3494.38521,0.19141
3496.31368,0.19111
3498.24215,0.18978
3500.17062,0.18888
3502.09909,0.19008
3504.02755,0.19095
3505.95602,0.19019
3507.88449,0.19161
3509.81296,0.19347
3511.74143,0.18834
3513.66990,0.17874
3515.59837,0.17410
3517.52683,0.17596
3519.45530,0.18046
3521.38377,0.18593
3523.31224,0.19100
3525.24071,0.19650
3527.16918,0.20100
3529.09765,0.19617
3531.02611,0.18504
3532.95458,0.17828
3534.88305,0.17530
3536.81152,0.17246
3538.73999,0.17147
3540.66846,0.17415
3542.59693,0.17901
3544.52540,0.18379
3546.45386,0.18525
3548.38233,0.17981
3550.31080,0.17250
3552.23927,0.16979
3554.16774,0.16905
3556.09621,0.16733
3558.02468,0.16872
3559.95314,0.17345
3561.88161,0.17638
3563.81008,0.18274
3565.73855,0.19664
3567.66702,0.19774
3569.59549,0.18079
3571.52396,0.16924
3573.45243,0.16827
3575.38089,0.16885
3577.30936,0.16456
3579.23783,0.16075
3581.16630,0.16149
3583.09477,0.16693
3585.02324,0.17860
3586.95171,0.19109
3588.88017,0.19137
3590.80864,0.18456
3592.73711,0.17961
3594.66558,0.17574
3596.59405,0.17216
3598.52252,0.16938
3600.45099,0.16771
3602.37946,0.16782
3604.30792,0.17074
3606.23639,0.17751
3608.16486,0.18323
3610.09333,0.18278
3612.02180,0.18307
3613.95027,0.18433
3615.87874,0.18229
3617.80720,0.18065
3619.73567,0.17799
3621.66414,0.17100
3623.59261,0.16574
3625.52108,0.16812
3627.44955,0.17836
3629.37802,0.17924
3631.30649,0.16757
3633.23495,0.16310
3635.16342,0.16020
3637.09189,0.15343
3639.02036,0.14948
3640.94883,0.15164
3642.87730,0.15417
3644.80577,0.15568
3646.73423,0.16450
3648.66270,0.18541
3650.59117,0.18689
3652.51964,0.16686
3654.44811,0.15623
3656.37658,0.15233
3658.30505,0.14555
3660.23352,0.14157
3662.16198,0.13995
3664.09045,0.13895
3666.01892,0.14276
3667.94739,0.15331
3669.87586,0.16454
3671.80433,0.16810
3673.73280,0.17688
3675.66126,0.18662
3677.58973,0.17385
3679.51820,0.15613
3681.44667,0.14554
3683.37514,0.14278
3685.30361,0.14862
3687.23208,0.16246
3689.16055,0.17499
3691.08901,0.16909
3693.01748,0.15415
3694.94595,0.14349
3696.87442,0.13751
3698.80289,0.13668
3700.73136,0.14211
3702.65983,0.14673
3704.58829,0.14473
3706.51676,0.14535
3708.44523,0.15607
3710.37370,0.16811
3712.30217,0.16238
3714.23064,0.14781
3716.15911,0.14001
3718.08757,0.13946
3720.01604,0.14464
3721.94451,0.15218
3723.87298,0.15659
3725.80145,0.15740
3727.72992,0.15660
3729.65839,0.15606
3731.58686,0.16063
3733.51532,0.17182
3735.44379,0.17784
3737.37226,0.17169
3739.30073,0.16438
3741.22920,0.16132
3743.15767,0.16362
3745.08614,0.16578
3747.01460,0.16331
3748.94307,0.16830
3750.87154,0.17903
3752.80001,0.17105
3754.72848,0.15608
3756.65695,0.14910
3758.58542,0.14364
3760.51389,0.13567
3762.44235,0.13396
3764.37082,0.13832
3766.29929,0.14068
3768.22776,0.13991
3770.15623,0.13952
3772.08470,0.13728
3774.01317,0.13444
3775.94163,0.13375
3777.87010,0.13687
3779.79857,0.14363
3781.72704,0.14732
3783.65551,0.14571
3785.58398,0.13935
3787.51245,0.13054
3789.44092,0.12529
3791.36938,0.12612
3793.29785,0.13195
3795.22632,0.13898
3797.15479,0.14276
3799.08326,0.14752
3801.01173,0.15443
3802.94020,0.15156
3804.86866,0.14774
3806.79713,0.14828
3808.72560,0.14383
3810.65407,0.13817
3812.58254,0.13713
3814.51101,0.14148
3816.43948,0.14729
3818.36795,0.15282
3820.29641,0.16256
3822.22488,0.15825
3824.15335,0.14182
3826.08182,0.13201
3828.01029,0.12744
3829.93876,0.12775
3831.86723,0.13157
3833.79569,0.13403
3835.72416,0.13836
3837.65263,0.14745
3839.58110,0.15389
3841.50957,0.15198
3843.43804,0.14349
3845.36651,0.13600
3847.29498,0.13502
3849.22344,0.13939
3851.15191,0.15036
3853.08038,0.16743
3855.00885,0.16448
3856.93732,0.14603
3858.86579,0.13484
3860.79426,0.13562
3862.72272,0.14058
3864.65119,0.13706
3866.57966,0.13121
3868.50813,0.13742
3870.43660,0.14709
3872.36507,0.14479
3874.29354,0.14088
3876.22200,0.13805
3878.15047,0.13480
3880.07894,0.13537
3882.00741,0.13809
3883.93588,0.13746
3885.86435,0.13281
3887.79282,0.13016
3889.72129,0.13392
3891.64975,0.13627
3893.57822,0.12781
3895.50669,0.12010
3897.43516,0.12241
3899.36363,0.13140
3901.29210,0.14089
3903.22057,0.14638
3905.14903,0.13943
3907.07750,0.12542
3909.00597,0.11705
3910.93444,0.11632
3912.86291,0.12121
3914.79138,0.12837
3916.71985,0.13294
3918.64832,0.13167
3920.57678,0.12655
3922.50525,0.12177
3924.43372,0.11782
3926.36219,0.11493
3928.29066,0.11526
3930.21913,0.11730
3932.14760,0.11818
3934.07606,0.11706
3936.00453,0.11502
3937.93300,0.11444
3939.86147,0.11770
3941.78994,0.12363
3943.71841,0.12546
3945.64688,0.12356
3947.57535,0.12436
3949.50381,0.12394
3951.43228,0.11906
3953.36075,0.11523
3955.28922,0.11303
3957.21769,0.11097
3959.14616,0.11171
3961.07463,0.11495
3963.00309,0.11615
3964.93156,0.11382
3966.86003,0.11124
3968.78850,0.10905
3970.71697,0.10423
3972.64544,0.10011
3974.57391,0.10257
3976.50238,0.10883
3978.43084,0.11272
3980.35931,0.11362
3982.28778,0.11369
3984.21625,0.11214
3986.14472,0.10856
3988.07319,0.10621
3990.00166,0.10626
3991.93012,0.10592
3993.85859,0.10441
3995.78706,0.10290
3997.71553,0.10215
3999.64400,0.10420
4001.57247,0.10784
4003.50094,0.11023
4005.42941,0.11181
4007.35787,0.11140
4009.28634,0.10791
4011.21481,0.10442
4013.14328,0.10075
4015.07175,0.09485
4017.00022,0.09073
4018.92869,0.09124
4020.85715,0.09544
4022.78562,0.10169
4024.71409,0.10528
4026.64256,0.10461
4028.57103,0.10144
4030.49950,0.09774
4032.42797,0.09810
4034.35644,0.10134
4036.28490,0.10121
4038.21337,0.09902
4040.14184,0.09876
4042.07031,0.09859
4043.99878,0.09793
4045.92725,0.09896
4047.85572,0.10061
4049.78418,0.10220
4051.71265,0.10381
4053.64112,0.10342
4055.56959,0.10134
4057.49806,0.09906
4059.42653,0.09685
4061.35500,0.09662
4063.28346,0.09974
4065.21193,0.10239
4067.14040,0.09963
4069.06887,0.09371
4070.99734,0.09161
4072.92581,0.09386
4074.85428,0.09613
4076.78275,0.09782
4078.71121,0.09980
4080.63968,0.10147
4082.56815,0.10278
4084.49662,0.10330
4086.42509,0.10193
4088.35356,0.09929
4090.28203,0.09526
4092.21049,0.09093
4094.13896,0.09091
4096.06743,0.09330
4097.99590,0.09194
4099.92437,0.08970
4101.85284,0.09062
4103.78131,0.09006
4105.70978,0.08729
4107.63824,0.08734
4109.56671,0.09036
4111.49518,0.09376
4113.42365,0.09344
4115.35212,0.08958
4117.28059,0.08603
4119.20906,0.08376
4121.13752,0.08520
4123.06599,0.09000
4124.99446,0.09457
4126.92293,0.09603
4128.85140,0.09332
4130.77987,0.09051
4132.70834,0.09044
4134.63681,0.09234
4136.56527,0.09185
4138.49374,0.08584
4140.42221,0.08029
4142.35068,0.07916
4144.27915,0.07884
4146.20762,0.07850
4148.13609,0.08083
4150.06455,0.08411
4151.99302,0.08470
4153.92149,0.08278
4155.84996,0.07921
4157.77843,0.07727
4159.70690,0.07939
4161.63537,0.08200
4163.56384,0.08375
4165.49230,0.08528
4167.42077,0.08663
4169.34924,0.08733
4171.27771,0.08487
4173.20618,0.08082
4175.13465,0.07999
4177.06312,0.07903
4178.99158,0.07573
4180.92005,0.07776
4182.84852,0.08256
4184.77699,0.08130
4186.70546,0.07716
4188.63393,0.07330
4190.56240,0.06959
4192.49087,0.06988
4194.41933,0.07379
4196.34780,0.07631
4198.27627,0.07498
4200.20474,0.07406
4202.13321,0.07867
4204.06168,0.08169
4205.99015,0.07773
4207.91861,0.07322
4209.84708,0.07112
4211.77555,0.07011
4213.70402,0.06865
4215.63249,0.06522
4217.56096,0.06045
4219.48943,0.05749
4221.41789,0.06009
4223.34636,0.06783
4225.27483,0.07484
4227.20330,0.07575
4229.13177,0.07399
4231.06024,0.07410
4232.98871,0.07299
4234.91718,0.06837
4236.84564,0.06360
4238.77411,0.06354
4240.70258,0.06461
4242.63105,0.06051
4244.55952,0.05827
4246.48799,0.06243
4248.41646,0.06518
4250.34492,0.06442
4252.27339,0.06454
4254.20186,0.06671
4256.13033,0.06751
4258.05880,0.06484
4259.98727,0.06022
4261.91574,0.05537
4263.84421,0.05410
4265.77267,0.05533
4267.70114,0.05475
4269.62961,0.05613
4271.55808,0.05867
4273.48655,0.05616
4275.41502,0.05485
4277.34349,0.05955
4279.27195,0.06150
4281.20042,0.05959
4283.12889,0.06053
4285.05736,0.06124
4286.98583,0.05737
4288.91430,0.05458
4290.84277,0.05459
4292.77124,0.05018
4294.69970,0.04538
4296.62817,0.04990
4298.55664,0.05867
4300.48511,0.06158
4302.41358,0.05659
4304.34205,0.04903
4306.27052,0.04440
4308.19898,0.04302
4310.12745,0.04319
4312.05592,0.04086
4313.98439,0.03584
4315.91286,0.03667
4317.84133,0.04536
4319.76980,0.05228
4321.69827,0.05379
4323.62673,0.05518
4325.55520,0.05526
4327.48367,0.05209
4329.41214,0.04805
4331.34061,0.04350
4333.26908,0.04122
4335.19755,0.04030
4337.12601,0.03826
4339.05448,0.03913
4340.98295,0.04163
4342.91142,0.04162
4344.83989,0.03986
4346.76836,0.04011
4348.69683,0.04541
4350.62530,0.04852
4352.55376,0.04351
4354.48223,0.03840
4356.41070,0.03670
4358.33917,0.03416
4360.26764,0.03311
4362.19611,0.03444
4364.12458,0.03490
4366.05304,0.03597
4367.98151,0.03570
4369.90998,0.02865
4371.83845,0.02138
4373.76692,0.02305
4375.69539,0.02863
4377.62386,0.03101
4379.55232,0.03137
4381.48079,0.03149
4383.40926,0.02979
4385.33773,0.02594
4387.26620,0.02394
4389.19467,0.02507
4391.12314,0.02777
4393.05161,0.03072
4394.98007,0.03113
4396.90854,0.03104
4398.83701,0.03322
4400.76548,0.03208
4402.69395,0.02442
4404.62242,0.01882
4406.55089,0.01923
4408.47935,0.01799
4410.40782,0.01488
4412.33629,0.01475
4414.26476,0.01600
4416.19323,0.01888
4418.12170,0.02383
4420.05017,0.02899
4421.97864,0.03527
4423.90710,0.03579
4425.83557,0.02461
4427.76404,0.01537
4429.69251,0.01825
4431.62098,0.02548
4433.54945,0.02868
4435.47792,0.02892
4437.40638,0.03038
4439.33485,0.02949
4441.26332,0.02350
4443.19179,0.01705
4445.12026,0.01187
4447.04873,0.00930
4448.97720,0.01113
4450.90567,0.01332
4452.83413,0.01386
4454.76260,0.01372
4456.69107,0.01311
4458.61954,0.01404
4460.54801,0.01818
4462.47648,0.02376
4464.40495,0.02209
4466.33341,0.01194
4468.26188,0.00618
4470.19035,0.00890
4472.11882,0.01483
4474.04729,0.02045
4475.97576,0.02159
4477.90423,0.02046
4479.83270,0.02076
4481.76116,0.01653
4483.68963,0.00852
4485.61810,0.00718
4487.54657,0.01352
4489.47504,0.01981
4491.40351,0.02000
4493.33198,0.01346
4495.26044,0.00513
4497.18891,0.00212
4499.11738,0.00407
4501.04585,0.00295
4502.97432,0.00177
4504.90279,0.00645
4506.83126,0.01120
4508.75973,0.01263
4510.68819,0.01012
4512.61666,0.00615
4514.54513,0.00859
4516.47360,0.01160
4518.40207,0.00652
4520.33054,-0.00056
4522.25901,-0.00214
4524.18747,0.00273
4526.11594,0.00838
4528.04441,0.00816
4529.97288,0.00323
4531.90135,-0.00082
4533.82982,-0.00084
4535.75829,0.00449
4537.68676,0.01126
4539.61522,0.01154
4541.54369,0.00727
4543.47216,0.00617
4545.40063,0.00503
4547.32910,-0.00019
4549.25757,-0.00028
4551.18604,0.00738
4553.11450,0.01180
4555.04297,0.00961
4556.97144,0.00724
4558.89991,0.00780
4560.82838,0.00865
4562.75685,0.01005
4564.68532,0.01355
4566.61378,0.01744
4568.54225,0.02162
4570.47072,0.02231
4572.39919,0.01401
4574.32766,0.00156
4576.25613,-0.00606
4578.18460,-0.00468
4580.11307,0.00347
4582.04153,0.00978
4583.97000,0.00982
4585.89847,0.00702
4587.82694,0.00413
4589.75541,0.00341
4591.68388,0.00378
4593.61235,0.00097
4595.54081,-0.00285
4597.46928,-0.00374
4599.39775,-0.00192
4601.32622,0.00028
4603.25469,-0.00032
4605.18316,-0.00339
4607.11163,-0.00376
4609.04010,-0.00165
4610.96856,-0.00033
4612.89703,-0.00051
4614.82550,-0.00328
4616.75397,-0.00496
4618.68244,-0.00109
4620.61091,0.00153
4622.53938,-0.00120
4624.46784,-0.00130
4626.39631,0.00569
4628.32478,0.01553
4630.25325,0.01958
4632.18172,0.01405
4634.11019,0.00893
4636.03866,0.01035
4637.96713,0.01147
4639.89559,0.00971
4641.82406,0.00768
4643.75253,0.00541
4645.68100,0.00410
4647.60947,0.00464
4649.53794,0.00534
4651.46641,0.00373
4653.39487,-0.00125
4655.32334,-0.00330
4657.25181,-0.00129
4659.18028,-0.00084
4661.10875,0.00140
4663.03722,0.00430
4664.96569,0.00110
4666.89416,-0.00200
4668.82262,-0.00108
4670.75109,-0.00032
4672.67956,0.00299
4674.60803,0.00552
4676.53650,0.00141
4678.46497,-0.00435
4680.39344,-0.00915
4682.32190,-0.00995
4684.25037,-0.00535
4686.17884,-0.00113
4688.10731,0.00437
4690.03578,0.01060
4691.96425,0.00881
4693.89272,0.00310
4695.82119,0.00280
4697.74965,0.00513
4699.67812,0.00536
4701.60659,0.00156
4703.53506,-0.00491
4705.46353,-0.00500
4707.39200,0.00261
4709.32047,0.00503
4711.24893,-0.00058
4713.17740,-0.00285
4715.10587,0.00015
4717.03434,0.00005
4718.96281,-0.00100
4720.89128,0.00296
4722.81975,0.00242
4724.74821,-0.00370
4726.67668,-0.00224
4728.60515,0.00529
4730.53362,0.00912
4732.46209,0.00884
4734.39056,0.01129
4736.31903,0.01480
4738.24750,0.01281
4740.17596,0.01107
4742.10443,0.01143
4744.03290,0.00775
4745.96137,0.00655
4747.88984,0.01398
4749.81831,0.01916
4751.74678,0.01373
4753.67524,0.00625
4755.60371,0.00654
4757.53218,0.00742
4759.46065,-0.00091
4761.38912,-0.00737
4763.31759,-0.00306
4765.24606,0.00041
4767.17453,0.00117
4769.10299,0.00938
4771.03146,0.01940
4772.95993,0.01991
4774.88840,0.00969
4776.81687,-0.00578
4778.74534,-0.01525
4780.67381,-0.01126
4782.60227,0.00065
4784.53074,0.00902
4786.45921,0.00866
4788.38768,0.00375
4790.31615,0.00101
4792.24462,0.00316
4794.17309,0.00983
4796.10156,0.01586
4798.03002,0.01283
4799.95849,0.00246
4801.88696,-0.00878
4803.81543,-0.01457
4805.74390,-0.00802
4807.67237,0.00134
4809.60084,0.00337
4811.52930,0.00681
4813.45777,0.01353
4815.38624,0.01523
4817.31471,0.00979
4819.24318,-0.00134
4821.17165,-0.00920
4823.10012,-0.00455
4825.02859,0.00836
4826.95705,0.02112
4828.88552,0.02946
4830.81399,0.03145
4832.74246,0.02358
4834.67093,0.00967
4836.59940,0.00055
4838.52787,-0.00439
4840.45633,-0.00971
4842.38480,-0.00869
4844.31327,-0.00323
4846.24174,-0.00461
4848.17021,-0.00258
4850.09868,0.00933
4852.02715,0.01398
4853.95562,0.00730
4855.88408,0.00214
4857.81255,0.00358
4859.74102,0.00650
4861.66949,0.00476
4863.59796,-0.00248
4865.52643,-0.00551
4867.45490,0.00099
4869.38336,0.00958
4871.31183,0.01025
4873.24030,-0.00060
4875.16877,-0.00836
4877.09724,-0.00422
4879.02571,0.00176
4880.95418,0.00506
4882.88265,0.00810
4884.81111,0.01032
4886.73958,0.00835
4888.66805,0.00415
4890.59652,0.00263
4892.52499,0.00063
4894.45346,-0.00505
4896.38193,-0.00921
4898.31039,-0.01201
4900.23886,-0.00999
4902.16733,0.00911
4904.09580,0.02879
4906.02427,0.02293
4907.95274,0.00605
4909.88121,-0.00079
4911.80967,0.00263
4913.73814,0.01336
4915.66661,0.01987
4917.59508,0.01195
4919.52355,0.00526
4921.45202,0.01275
4923.38049,0.01994
4925.30896,0.01566
4927.23742,0.01193
4929.16589,0.01636
4931.09436,0.01713
4933.02283,0.00737
4934.95130,-0.00298
4936.87977,-0.00193
4938.80824,0.01154
4940.73670,0.02527
4942.66517,0.02500
4944.59364,0.01576
4946.52211,0.01563
4948.45058,0.01936
4950.37905,0.00814
4952.30752,-0.01174
4954.23599,-0.01739
4956.16445,-0.00500
4958.09292,0.00298
4960.02139,-0.00626
4961.94986,-0.01357
4963.87833,-0.00665
4965.80680,-0.00438
4967.73527,-0.01057
4969.66373,-0.00229
4971.59220,0.01269
4973.52067,0.00804
4975.44914,-0.00469
4977.37761,0.00068
4979.30608,0.01943
4981.23455,0.02705
4983.16302,0.02323
4985.09148,0.01841
4987.01995,0.00686
4988.94842,-0.00924
4990.87689,-0.01748
4992.80536,-0.01167
4994.73383,-0.00445
4996.66230,-0.00749
4998.59076,-0.00650
5000.51923,0.00746
5002.44770,0.02554
5004.37617,0.03397
5006.30464,0.02579
5008.23311,0.00820
5010.16158,-0.00760
5012.09005,-0.01483
5014.01851,-0.01332
5015.94698,-0.00508
5017.87545,0.00596
5019.80392,0.01188
5021.73239,0.01240
5023.66086,0.01662
5025.58933,0.02428
5027.51779,0.02911
5029.44626,0.02658
5031.37473,0.01902
5033.30320,0.02081
5035.23167,0.02884
5037.16014,0.02721
5039.08861,0.01302
5041.01708,-0.00612
5042.94554,-0.01613
5044.87401,-0.01462
5046.80248,-0.00188
5048.73095,0.02132
5050.65942,0.03236
5052.58789,0.02543
5054.51636,0.02561
5056.44482,0.03387
5058.37329,0.03004
5060.30176,0.01960
5062.23023,0.02188
5064.15870,0.03146
5066.08717,0.02928
5068.01564,0.01768
5069.94410,0.01306
5071.87257,0.01897
5073.80104,0.02728
5075.72951,0.02727
5077.65798,0.01906
5079.58645,0.01089
5081.51492,0.00876
5083.44339,0.01359
5085.37185,0.01466
5087.30032,0.00869
5089.22879,0.00484
5091.15726,0.00723
5093.08573,0.01684
5095.01420,0.03103
5096.94267,0.03743
5098.87113,0.02689
5100.79960,0.01281
5102.72807,0.01143
5104.65654,0.01589
5106.58501,0.01263
5108.51348,0.00998
5110.44195,0.01838
5112.37042,0.02263
5114.29888,0.01868
5116.22735,0.02096
5118.15582,0.02310
5120.08429,0.01446
5122.01276,0.00455
5123.94123,0.00662
5125.86970,0.02014
5127.79816,0.02990
5129.72663,0.03341
5131.65510,0.04415
5133.58357,0.05448
5135.51204,0.04634
5137.44051,0.02620
5139.36898,0.01690
5141.29745,0.01783
5143.22591,0.01472
5145.15438,0.02126
5147.08285,0.03913
5149.01132,0.04794
5150.93979,0.05009
5152.86826,0.05043
5154.79673,0.05053
5156.72519,0.05465
5158.65366,0.05178
5160.58213,0.03882
5162.51060,0.02421
5164.43907,0.01025
5166.36754,0.00197
5168.29601,-0.00227
5170.22448,-0.00841
5172.15294,-0.00361
5174.08141,0.01777
5176.00988,0.03005
5177.93835,0.02016
5179.86682,0.00872
5181.79529,0.00549
5183.72376,0.00506
5185.65222,0.01287
5187.58069,0.02397
5189.50916,0.02219
5191.43763,0.01547
5193.36610,0.02208
5195.29457,0.03395
5197.22304,0.04021
5199.15151,0.04751
5201.07997,0.04938
5203.00844,0.04604
5204.93691,0.05784
5206.86538,0.07546
5208.79385,0.07190
5210.72232,0.05477
5212.65079,0.04076
5214.57925,0.03739
5216.50772,0.03713
5218.43619,0.03484
5220.36466,0.04440
5222.29313,0.06271
5224.22160,0.06416
5226.15007,0.04178
5228.07854,0.02365
5230.00700,0.02878
5231.93547,0.04425
5233.86394,0.04606
5235.79241,0.03717
5237.72088,0.03750
5239.64935,0.03813
5241.57782,0.02980
5243.50628,0.02515
5245.43475,0.03473
5247.36322,0.05548
5249.29169,0.06288
5251.22016,0.04827
5253.14863,0.03906
5255.07710,0.04281
5257.00556,0.04266
5258.93403,0.03775
5260.86250,0.02938
5262.79097,0.01301
5264.71944,0.00415
5266.64791,0.01216
5268.57638,0.02577
5270.50485,0.03244
5272.43331,0.02812
5274.36178,0.02191
5276.29025,0.01793
5278.21872,0.01997
5280.14719,0.03327
5282.07566,0.05182
5284.00413,0.06430
5285.93259,0.06505
5287.86106,0.06232
5289.78953,0.06132
5291.71800,0.05460
5293.64647,0.04797
5295.57494,0.04650
5297.50341,0.04138
5299.43188,0.04218
5301.36034,0.05931
5303.28881,0.07360
5305.21728,0.06938
5307.14575,0.05306
5309.07422,0.03964
5311.00269,0.03569
5312.93116,0.03196
5314.85962,0.02536
5316.78809,0.03410
5318.71656,0.06197
5320.64503,0.07712
5322.57350,0.06910
5324.50197,0.05945
5326.43044,0.05720
5328.35891,0.06311
5330.28737,0.06573
5332.21584,0.04521
5334.14431,0.02060
5336.07278,0.01864
5338.00125,0.02634
5339.92972,0.02708
5341.85819,0.03056
5343.78665,0.04557
5345.71512,0.05835
5347.64359,0.05560
5349.57206,0.05386
5351.50053,0.07089
5353.42900,0.08883
5355.35747,0.08328
5357.28594,0.06257
5359.21440,0.03819
5361.14287,0.03092
5363.07134,0.05447
5364.99981,0.08415
5366.92828,0.09343
5368.85675,0.08744
5370.78522,0.07641
5372.71368,0.06802
5374.64215,0.06558
5376.57062,0.05826
5378.49909,0.04834
5380.42756,0.04533
5382.35603,0.04502
5384.28450,0.04356
5386.21297,0.04560
5388.14143,0.05094
5390.06990,0.04904
5391.99837,0.03911
5393.92684,0.03598
5395.85531,0.04290
5397.78378,0.03979
5399.71225,0.04112
5401.64071,0.06173
5403.56918,0.07635
5405.49765,0.07843
5407.42612,0.07518
5409.35459,0.06256
5411.28306,0.04751
5413.21153,0.05222
5415.13999,0.07477
5417.06846,0.07781
5418.99693,0.05725
5420.92540,0.04250
5422.85387,0.03915
5424.78234,0.03524
5426.71081,0.04204
5428.63928,0.06168
5430.56774,0.06746
5432.49621,0.04804
5434.42468,0.02778
5436.35315,0.03812
5438.28162,0.05699
5440.21009,0.06393
5442.13856,0.07032
5444.06702,0.06990
5445.99549,0.05822
5447.92396,0.04963
5449.85243,0.04672
5451.78090,0.05235
5453.70937,0.06742
5455.63784,0.07377
5457.56631,0.06601
5459.49477,0.05740
5461.42324,0.04930
5463.35171,0.05068
5465.28018,0.06774
5467.20865,0.08125
5469.13712,0.07873
5471.06559,0.06809
5472.99405,0.05947
5474.92252,0.06943
5476.85099,0.09109
5478.77946,0.09765
5480.70793,0.09797
5482.63640,0.08596
5484.56487,0.05677
5486.49334,0.05396
5488.42180,0.09520
5490.35027,0.14212
5492.27874,0.15929
5494.20721,0.13721
5496.13568,0.09850
5498.06415,0.07200
5499.99262,0.06226
5501.92108,0.06078
5503.84955,0.06705
5505.77802,0.07371
5507.70649,0.07788
5509.63496,0.08953
5511.56343,0.09519
5513.49190,0.08124
5515.42037,0.05964
5517.34883,0.04263
5519.27730,0.03964
5521.20577,0.04949
5523.13424,0.05157
5525.06271,0.04153
5526.99118,0.03977
5528.91965,0.03760
5530.84811,0.01722
5532.77658,0.00240
5534.70505,0.01466
5536.63352,0.04093
5538.56199,0.05904
5540.49046,0.06705
5542.41893,0.06607
5544.34740,0.04672
5546.27586,0.02527
5548.20433,0.02615
5550.13280,0.04344
5552.06127,0.06987
5553.98974,0.09449
5555.91821,0.09667
5557.84668,0.08157
5559.77514,0.06348
5561.70361,0.05262
5563.63208,0.06061
5565.56055,0.06697
5567.48902,0.05971
5569.41749,0.06260
5571.34596,0.07303
5573.27443,0.07224
5575.20289,0.06011
5577.13136,0.04677
5579.05983,0.03696
5580.98830,0.02413
5582.91677,0.02569
5584.84524,0.05521
5586.77371,0.07886
5588.70217,0.08009
5590.63064,0.07157
5592.55911,0.06115
5594.48758,0.05113
5596.41605,0.04148
5598.34452,0.04234
5600.27299,0.06385
5602.20145,0.09256
5604.12992,0.10140
5606.05839,0.08518
5607.98686,0.06740
5609.91533,0.06134
5611.84380,0.06304
5613.77227,0.07829
5615.70074,0.09185
5617.62920,0.08310
5619.55767,0.08108
5621.48614,0.10314
5623.41461,0.12236
5625.34308,0.10882
5627.27155,0.06293
5629.20002,0.02199
5631.12848,0.00803
5633.05695,0.02473
5634.98542,0.06337
5636.91389,0.08968
5638.84236,0.08425
5640.77083,0.07281
5642.69930,0.08056
5644.62777,0.09595
5646.55623,0.10023
5648.48470,0.08700
5650.41317,0.06777
5652.34164,0.06027
5654.27011,0.05768
5656.19858,0.05498
5658.12705,0.07190
5660.05551,0.09955
5661.98398,0.10302
5663.91245,0.08164
5665.84092,0.05468
5667.76939,0.02770
5669.69786,-0.00306
5671.62633,-0.01015
5673.55480,0.03770
5675.48326,0.10429
5677.41173,0.12652
5679.34020,0.09304
5681.26867,0.05547
5683.19714,0.05022
5685.12561,0.05527
5687.05408,0.05703
5688.98254,0.05806
5690.91101,0.05249
5692.83948,0.05742
5694.76795,0.08226
5696.69642,0.09849
5698.62489,0.10120
5700.55336,0.11232
5702.48183,0.11624
5704.41029,0.09398
5706.33876,0.07595
5708.26723,0.08562
5710.19570,0.09444
5712.12417,0.08704
5714.05264,0.08321
5715.98111,0.07525
5717.90957,0.05922
5719.83804,0.06754
5721.76651,0.09085
5723.69498,0.09643
5725.62345,0.09462
5727.55192,0.08282
5729.48039,0.04452
5731.40886,0.01941
5733.33732,0.03331
5735.26579,0.06304
5737.19426,0.08653
5739.12273,0.09057
5741.05120,0.08425
5742.97967,0.08421
5744.90814,0.09559
5746.83660,0.12076
5748.76507,0.14746
5750.69354,0.16871
5752.62201,0.17712
5754.55048,0.15750
5756.47895,0.11920
5758.40742,0.09988
5760.33588,0.11499
5762.26435,0.12256
5764.19282,0.10292
5766.12129,0.09263
5768.04976,0.09966
5769.97823,0.09327
5771.90670,0.06883
5773.83517,0.06232
5775.76363,0.07540
5777.69210,0.08377
5779.62057,0.08455
5781.54904,0.07944
5783.47751,0.07998
5785.40598,0.08649
5787.33445,0.08233
5789.26291,0.08331
5791.19138,0.10106
5793.11985,0.12130
5795.04832,0.14669
5796.97679,0.16441
5798.90526,0.15344
5800.83373,0.13222
5802.76220,0.11363
5804.69066,0.09724
5806.61913,0.08858
5808.54760,0.08733
5810.47607,0.09947
5812.40454,0.11293
5814.33301,0.10143
5816.26148,0.07024
5818.18994,0.04307
5820.11841,0.03884
5822.04688,0.04017
5823.97535,0.03288
5825.90382,0.04481
5827.83229,0.07422
5829.76076,0.09466
5831.68923,0.10336
5833.61769,0.10163
5835.54616,0.08787
5837.47463,0.07661
5839.40310,0.08386
5841.33157,0.11266
5843.26004,0.14702
5845.18851,0.15992
5847.11697,0.15564
5849.04544,0.14982
5850.97391,0.13044
5852.90238,0.09490
5854.83085,0.05766
5856.75932,0.03939
5858.68779,0.05329
5860.61626,0.07776
5862.54472,0.08627
5864.47319,0.07858
5866.40166,0.06159
5868.33013,0.05080
5870.25860,0.06329
5872.18707,0.07962
5874.11554,0.08957
5876.04400,0.11903
5877.97247,0.15556
5879.90094,0.16452
5881.82941,0.15325
5883.75788,0.14365
5885.68635,0.13907
5887.61482,0.12719
5889.54329,0.10377
5891.47175,0.08801
5893.40022,0.09159
5895.32869,0.09470
5897.25716,0.09159
5899.18563,0.08880
5901.11410,0.07570
5903.04257,0.05916
5904.97103,0.04508
5906.89950,0.04001
5908.82797,0.06482
5910.75644,0.10615
5912.68491,0.12736
5914.61338,0.10656
5916.54185,0.08467
5918.47032,0.11164
5920.39878,0.14205
5922.32725,0.12403
5924.25572,0.08238
5926.18419,0.06406
5928.11266,0.09034
5930.04113,0.11672
5931.96960,0.09443
5933.89806,0.06268
5935.82653,0.07008
5937.75500,0.08827
5939.68347,0.08260
5941.61194,0.06379
5943.54041,0.06190
5945.46888,0.08055
5947.39734,0.11012
5949.32581,0.13733
5951.25428,0.12092
5953.18275,0.06929
5955.11122,0.04870
5957.03969,0.05909
5958.96816,0.07365
5960.89663,0.10658
5962.82509,0.13594
5964.75356,0.12443
5966.68203,0.09606
5968.61050,0.09374
5970.53897,0.10039
5972.46744,0.08023
5974.39591,0.05264
5976.32437,0.05909
5978.25284,0.10215
5980.18131,0.14593
5982.10978,0.15090
5984.03825,0.11512
5985.96672,0.09944
5987.89519,0.13212
5989.82366,0.15723
5991.75212,0.15107
5993.68059,0.13877
5995.60906,0.12265
5997.53753,0.07922
5999.46600,0.04029
6001.39447,0.05047
6003.32294,0.08279
6005.25140,0.08961
6007.17987,0.04843
6009.10834,-0.00620
6011.03681,-0.02148
6012.96528,-0.01421
6014.89375,-0.00270
6016.82222,0.03449
6018.75069,0.09892
6020.67915,0.14384
6022.60762,0.13625
6024.53609,0.12037
6026.46456,0.13321
6028.39303,0.16994
6030.32150,0.22641
6032.24997,0.23946
6034.17843,0.16112
6036.10690,0.07843
6038.03537,0.07784
6039.96384,0.11992
6041.89231,0.14141
6043.82078,0.13461
6045.74925,0.10940
6047.67772,0.07823
6049.60618,0.06199
6051.53465,0.06251
6053.46312,0.07882
6055.39159,0.09498
6057.32006,0.08272
6059.24853,0.06255
6061.17700,0.06389
6063.10546,0.07878
6065.03393,0.08509
6066.96240,0.05986
6068.89087,0.00170
6070.81934,-0.03119
6072.74781,0.01807
6074.67628,0.10241
6076.60475,0.12209
6078.53321,0.08095
6080.46168,0.05374
6082.39015,0.05998
6084.31862,0.07445
6086.24709,0.08221
6088.17556,0.07602
6090.10403,0.06654
6092.03249,0.07328
6093.96096,0.06632
6095.88943,0.03250
6097.81790,0.01543
6099.74637,-0.00502
6101.67484,-0.06031
6103.60331,-0.07109
6105.53177,0.00304
6107.46024,0.06480
6109.38871,0.05829
6111.31718,0.05892
6113.24565,0.11300
6115.17412,0.15728
6117.10259,0.14807
6119.03106,0.13333
6120.95952,0.12629
6122.88799,0.10585
6124.81646,0.10015
6126.74493,0.10876
6128.67340,0.11273
6130.60187,0.12039
6132.53034,0.11535
6134.45880,0.08911
6136.38727,0.06913
6138.31574,0.05892
6140.24421,0.04893
6142.17268,0.04723
6144.10115,0.06698
6146.02962,0.09932
6147.95809,0.11761
6149.88655,0.11748
6151.81502,0.10217
6153.74349,0.07473
6155.67196,0.04405
6157.60043,0.02229
6159.52890,0.03830
6161.45737,0.07347
6163.38583,0.07813
6165.31430,0.07019
6167.24277,0.06064
6169.17124,0.04326
6171.09971,0.04060
6173.02818,0.04747
6174.95665,0.07597
6176.88512,0.13649
6178.81358,0.17946
6180.74205,0.19000
6182.67052,0.16123
6184.59899,0.09108
6186.52746,0.02348
6188.45593,-0.01599
6190.38440,-0.01989
6192.31286,0.01104
6194.24133,0.04902
6196.16980,0.08451
6198.09827,0.10406
6200.02674,0.07436
6201.95521,0.03788
6203.88368,0.04405
6205.81215,0.05451
6207.74061,0.05610
6209.66908,0.06429
6211.59755,0.05109
6213.52602,0.02694
6215.45449,0.03700
6217.38296,0.06094
6219.31143,0.04676
6221.23989,0.01504
6223.16836,0.00332
6225.09683,0.01208
6227.02530,0.05598
6228.95377,0.12861
6230.88224,0.17161
6232.81071,0.14999
6234.73918,0.08908
6236.66764,0.03112
6238.59611,0.00177
6240.52458,0.00662
6242.45305,0.02406
6244.38152,0.01616
6246.30999,0.00365
6248.23846,0.02982
6250.16692,0.03706
6252.09539,-0.01456
6254.02386,-0.02716
6255.95233,0.04470
6257.88080,0.11066
6259.80927,0.10594
6261.73774,0.09000
6263.66621,0.11785
6265.59467,0.12571
6267.52314,0.08710
6269.45161,0.09918
6271.38008,0.14028
6273.30855,0.12185
6275.23702,0.06397
6277.16549,0.03901
6279.09395,0.04050
6281.02242,0.05153
6282.95089,0.09420
6284.87936,0.12237
6286.80783,0.08151
6288.73630,0.00903
6290.66477,-0.02138
6292.59323,0.02440
6294.52170,0.09059
6296.45017,0.11976
6298.37864,0.10695
6300.30711,0.06859
6302.23558,0.05144
6304.16405,0.07168
6306.09252,0.07346
6308.02098,0.06584
6309.94945,0.11870
6311.87792,0.18937
6313.80639,0.16421
6315.73486,0.06347
6317.66333,0.02437
6319.59180,0.09298
6321.52026,0.16337
6323.44873,0.14925
6325.37720,0.07290
6327.30567,-0.00795
6329.23414,-0.02562
6331.16261,0.01656
6333.09108,0.05303
6335.01955,0.08253
6336.94801,0.10179
6338.87648,0.11629
6340.80495,0.14445
6342.73342,0.14903
6344.66189,0.12742
6346.59036,0.12388
6348.51883,0.14293
6350.44729,0.12274
6352.37576,0.06875
6354.30423,0.05993
6356.23270,0.06447
6358.16117,0.03503
6360.08964,0.00739
6362.01811,0.01533
6363.94658,0.04263
6365.87504,0.04277
6367.80351,-0.01650
6369.73198,-0.06656
6371.66045,-0.02679
6373.58892,0.05524
6375.51739,0.07545
6377.44586,0.03545
6379.37432,-0.00901
6381.30279,-0.04387
6383.23126,-0.05301
6385.15973,-0.03592
6387.08820,-0.04378
6389.01667,-0.06500
6390.94514,-0.05113
6392.87361,-0.00324
6394.80207,0.04080
6396.73054,0.07535
6398.65901,0.11519
6400.58748,0.15000
6402.51595,0.15980
6404.44442,0.15607
6406.37289,0.15059
6408.30135,0.10780
6410.22982,0.04569
6412.15829,0.04072
6414.08676,0.09100
6416.01523,0.13274
6417.94370,0.10523
6419.87217,0.02302
6421.80064,-0.02692
6423.72910,-0.01747
6425.65757,0.02179
6427.58604,0.04758
6429.51451,0.06471
6431.44298,0.06866
6433.37145,0.04211
6435.29992,0.03821
6437.22838,0.06092
6439.15685,0.09387
6441.08532,0.15970
6443.01379,0.17812
6444.94226,0.09742
6446.87073,0.02834
6448.79920,0.02552
6450.72766,0.05510
6452.65613,0.07218
6454.58460,0.08606
6456.51307,0.10763
6458.44154,0.08262
6460.37001,0.02745
6462.29848,0.02284
6464.22695,0.05071
6466.15541,0.05757
6468.08388,0.07897
6470.01235,0.15122
6471.94082,0.19526
6473.86929,0.14509
6475.79776,0.05597
6477.72623,-0.00290
6479.65469,-0.01287
6481.58316,-0.00669
6483.51163,-0.04809
6485.44010,-0.11736
6487.36857,-0.12428
6489.29704,-0.04084
6491.22551,0.05400
6493.15398,0.06891
6495.08244,0.02786
6497.01091,0.00847
6498.93938,0.01204
6500.86785,0.00833
6502.79632,0.02180
6504.72479,0.05596
6506.65326,0.04999
6508.58172,0.00297
6510.51019,-0.00098
6512.43866,0.07717
6514.36713,0.14859
6516.29560,0.13923
6518.22407,0.06536
6520.15254,-0.03134
6522.08101,-0.08087
6524.00947,-0.03598
6525.93794,0.04234
6527.86641,0.09664
6529.79488,0.12536
6531.72335,0.12043
6533.65182,0.07284
6535.58029,0.01807
6537.50875,0.01903
6539.43722,0.04914
6541.36569,0.06570
6543.29416,0.07455
6545.22263,0.04465
6547.15110,0.00090
6549.07957,0.00987
6551.00804,0.03895
6552.93650,0.02143
6554.86497,0.01020
6556.79344,0.05435
6558.72191,0.09413
6560.65038,0.05599
6562.57885,-0.01689
6564.50732,-0.03092
6566.43578,-0.00647
6568.36425,-0.01796
6570.29272,-0.04882
6572.22119,-0.02401
6574.14966,0.03086
6576.07813,0.03153
6578.00660,0.02630
6579.93507,0.06578
6581.86353,0.07381
6583.79200,0.03114
6585.72047,-0.00497
6587.64894,-0.02040
6589.57741,-0.00426
6591.50588,0.04624
6593.43435,0.08851
6595.36281,0.06087
6597.29128,-0.00024
6599.21975,-0.01863
6601.14822,0.02547
6603.07669,0.09860
6605.00516,0.12289
6606.93363,0.08951
6608.86210,0.04125
6610.79056,-0.01429
6612.71903,-0.04222
6614.64750,-0.03992
6616.57597,-0.05297
6618.50444,-0.01918
6620.43291,0.04867
6622.36138,0.06840
6624.28984,0.06499
6626.21831,0.05091
6628.14678,0.00828
6630.07525,0.01323
6632.00372,0.09717
6633.93219,0.13949
6635.86066,0.08038
6637.78912,-0.01044
6639.71759,-0.09280
6641.64606,-0.11028
6643.57453,0.00041
6645.50300,0.13602
6647.43147,0.19033
6649.35994,0.17689
6651.28841,0.10387
6653.21687,0.03843
6655.14534,0.07609
6657.07381,0.14847
6659.00228,0.12360
6660.93075,0.05984
6662.85922,0.05672
6664.78769,0.09138
6666.71615,0.11235
6668.64462,0.10338
6670.57309,0.07083
6672.50156,0.03527
6674.43003,0.03518
6676.35850,0.06728
6678.28697,0.06270
6680.21544,0.00718
6682.14390,-0.02249
6684.07237,0.00664
6686.00084,0.04322
6687.92931,0.06275
6689.85778,0.06649
6691.78625,0.05313
6693.71472,0.05195
6695.64318,0.06333
6697.57165,0.08193
6699.50012,0.10972
6701.42859,0.07896
6703.35706,-0.00429
6705.28553,-0.02155
6707.21400,0.04958
6709.14247,0.09953
6711.07093,0.07320
6712.99940,0.02355
6714.92787,-0.00678
6716.85634,-0.02538
6718.78481,-0.03779
6720.71328,-0.03471
6722.64175,-0.03190
6724.57021,-0.00771
6726.49868,0.02893
6728.42715,0.01332
6730.35562,-0.01858
6732.28409,0.00610
6734.21256,0.07314
6736.14103,0.13218
6738.06950,0.12268
6739.99796,0.04808
6741.92643,0.04700
6743.85490,0.14498
6745.78337,0.17529
6747.71184,0.12923
6749.64031,0.12353
6751.56878,0.14326
6753.49724,0.11616
6755.42571,0.05904
6757.35418,0.01695
6759.28265,0.01791
6761.21112,0.06467
6763.13959,0.12082
6765.06806,0.13344
6766.99653,0.09075
6768.92499,0.04537
6770.85346,0.03255
6772.78193,0.03976
6774.71040,0.03824
6776.63887,0.01291
6778.56734,-0.00180
6780.49581,0.02459
6782.42427,0.09406
6784.35274,0.18584
6786.28121,0.23037
6788.20968,0.19642
6790.13815,0.12285
6792.06662,0.05320
6793.99509,0.02443
6795.92355,0.02301
6797.85202,0.00119
6799.78049,-0.02299
6801.70896,0.01214
6803.63743,0.05533
6805.56590,0.03147
6807.49437,-0.00429
6809.42284,-0.00741
6811.35130,0.01959
6813.27977,0.05884
6815.20824,0.10603
6817.13671,0.11013
6819.06518,0.05811
6820.99365,0.06279
6822.92212,0.15856
6824.85058,0.22143
6826.77905,0.18296
6828.70752,0.10700
6830.63599,0.05525
6832.56446,0.00592
6834.49293,-0.02334
6836.42140,0.01422
6838.34987,0.06510
6840.27833,0.07800
6842.20680,0.09096
6844.13527,0.11654
6846.06374,0.09419
6847.99221,0.00732
6849.92068,-0.03978
6851.84915,0.00961
6853.77761,0.08864
6855.70608,0.13894
6857.63455,0.13674
6859.56302,0.10049
6861.49149,0.07656
6863.41996,0.12914
6865.34843,0.19371
6867.27690,0.15827
6869.20536,0.07811
6871.13383,0.02921
6873.06230,0.02393
6874.99077,0.04447
6876.91924,0.01766
6878.84771,-0.00669
6880.77618,0.08996
6882.70464,0.16601
6884.63311,0.11359
6886.56158,0.04178
6888.49005,0.00312
6890.41852,-0.01845
6892.34699,0.01832
6894.27546,0.12718
6896.20393,0.18651
6898.13239,0.08959
6900.06086,-0.01893
6901.98933,-0.00861
6903.91780,0.05793
6905.84627,0.08223
6907.77474,0.06744
6909.70321,0.05598
6911.63167,0.03709
6913.56014,0.01063
6915.48861,0.01377
6917.41708,0.10187
6919.34555,0.21184
6921.27402,0.20971
6923.20249,0.16661
6925.13096,0.11958
6927.05942,0.02825
6928.98789,-0.03976
6930.91636,-0.01665
6932.84483,0.04778
6934.77330,0.07047
6936.70177,0.03485
6938.63024,-0.01416
6940.55870,-0.07622
6942.48717,-0.15270
6944.41564,-0.13082
6946.34411,-0.03686
6948.27258,-0.01285
6950.20105,0.00155
6952.12952,0.05782
6954.05799,0.02933
6955.98645,-0.07467
6957.91492,-0.10050
6959.84339,-0.02905
6961.77186,0.06149
6963.70033,0.08806
6965.62880,0.08261
6967.55727,0.10539
6969.48573,0.18005
6971.41420,0.30750
6973.34267,0.40681
6975.27114,0.37324
6977.19961,0.25636
6979.12808,0.18862
6981.05655,0.16948
6982.98501,0.11798
6984.91348,0.04693
6986.84195,0.01839
6988.77042,-0.00613
6990.69889,-0.04406
6992.62736,-0.00644
6994.55583,0.08664
6996.48430,0.11788
6998.41276,0.11002
7000.34123,0.10324
7002.26970,0.05439
7004.19817,0.03367
7006.12664,0.07306
7008.05511,0.08985
7009.98358,0.06839
7011.91204,0.09633
7013.84051,0.14505
7015.76898,0.09753
7017.69745,0.01555
7019.62592,-0.01374
7021.55439,-0.00226
7023.48286,0.00904
7025.41133,0.03198
7027.33979,0.10939
7029.26826,0.17178
7031.19673,0.16878
7033.12520,0.15182
7035.05367,0.10409
7036.98214,0.06964
7038.91061,0.07251
7040.83907,0.05499
7042.76754,0.04636
7044.69601,0.09792
7046.62448,0.15572
7048.55295,0.17120
7050.48142,0.15783
7052.40989,0.16005
7054.33836,0.17507
7056.26682,0.15858
7058.19529,0.07261
7060.12376,-0.02017
7062.05223,-0.01515
7063.98070,0.05297
7065.90917,0.07935
7067.83764,0.03376
7069.76610,-0.08687
7071.69457,-0.10692
7073.62304,0.05933
7075.55151,0.11381
7077.47998,-0.00682
7079.40845,-0.08720
7081.33692,0.01585
7083.26539,0.14817
7085.19385,0.12365
7087.12232,-0.03134
7089.05079,-0.09742
7090.97926,0.02916
7092.90773,0.10894
7094.83620,0.01101
7096.76467,-0.09740
7098.69313,-0.06659
7100.62160,0.06174
7102.55007,0.14383
7104.47854,0.13408
7106.40701,0.09129
7108.33548,0.08217
7110.26395,0.10762
7112.19242,0.13165
7114.12088,0.10813
7116.04935,0.02526
7117.97782,-0.06786
7119.90629,-0.11088
7121.83476,-0.12115
7123.76323,-0.11078
7125.69170,-0.05293
7127.62016,0.02874
7129.54863,0.06672
7131.47710,0.07256
7133.40557,0.07765
7135.33404,0.08919
7137.26251,0.13564
7139.19098,0.20631
7141.11944,0.27504
7143.04791,0.34522
7144.97638,0.32558
7146.90485,0.22661
7148.83332,0.15125
7150.76179,0.03711
7152.69026,-0.08964
7154.61873,-0.15519
7156.54719,-0.17256
7158.47566,-0.13251
7160.40413,-0.03464
7162.33260,0.10391
7164.26107,0.20054
7166.18954,0.16007
7168.11801,0.10328
7170.04647,0.17080
7171.97494,0.26166
7173.90341,0.28235
7175.83188,0.27083
7177.76035,0.26094
7179.68882,0.25896
7181.61729,0.24618
7183.54576,0.16196
7185.47422,0.06019
7187.40269,0.02079
7189.33116,0.00064
7191.25963,0.07242
7193.18810,0.22157
7195.11657,0.17702
7197.04504,-0.04732
7198.97350,-0.20405
7200.90197,-0.22438
7202.83044,-0.08298
7204.75891,0.18479
7206.68738,0.25123
7208.61585,0.18778
7210.54432,0.13555
7212.47279,0.06698
7214.40125,0.04562
7216.32972,0.01914
7218.25819,-0.07613
7220.18666,-0.06981
7222.11513,-0.01357
7224.04360,0.02242
7225.97207,0.10925
7227.90053,0.20825
7229.82900,0.18386
7231.75747,0.06880
7233.68594,0.04507
7235.61441,0.10215
7237.54288,0.15289
7239.47135,0.12873
7241.39982,0.01596
7243.32828,-0.05073
7245.25675,-0.02367
7247.18522,-0.02417
7249.11369,-0.05448
7251.04216,-0.10224
7252.97063,-0.12070
7254.89910,-0.08899
7256.82756,-0.06861
7258.75603,0.05653
7260.68450,0.33638
7262.61297,0.44674
7264.54144,0.25994
7266.46991,0.05979
7268.39838,-0.04667
7270.32685,-0.11917
7272.25531,-0.23663
7274.18378,-0.28274
7276.11225,-0.12331
7278.04072,0.04800
7279.96919,0.00431
7281.89766,-0.11461
7283.82613,-0.05837
7285.75459,0.10191
7287.68306,0.21589
7289.61153,0.25266
7291.54000,0.24210
7293.46847,0.20383
7295.39694,0.18018
7297.32541,0.15021
7299.25387,0.07363
7301.18234,-0.01539
7303.11081,-0.03201
7305.03928,0.06437
7306.96775,0.11982
7308.89622,0.08053
7310.82469,0.11756
7312.75316,0.11914
7314.68162,0.02959
7316.61009,0.03895
7318.53856,0.17155
7320.46703,0.18591
7322.39550,0.11400
7324.32397,0.16074
7326.25244,0.24559
7328.18090,0.11715
7330.10937,-0.14234
7332.03784,-0.16766
7333.96631,-0.03074
7335.89478,0.09338
7337.82325,0.19471
7339.75172,0.27765
7341.68019,0.28381
7343.60865,0.26473
7345.53712,0.30784
7347.46559,0.32010
7349.39406,0.17972
7351.32253,0.08184
7353.25100,0.13365
7355.17947,0.14075
7357.10793,0.06238
7359.03640,0.08616
7360.96487,0.15311
7362.89334,0.14075
7364.82181,0.17750
7366.75028,0.19677
7368.67875,0.13579
7370.60722,0.12521
7372.53568,0.14564
7374.46415,0.13047
7376.39262,0.07031
7378.32109,-0.01391
7380.24956,-0.06084
7382.17803,-0.04293
7384.10650,-0.01843
7386.03496,-0.01950
7387.96343,-0.00819
7389.89190,-0.01991
7391.82037,-0.08634
7393.74884,-0.10288
7395.67731,-0.01410
7397.60578,0.06230
7399.53425,0.07348
7401.46271,0.06170
7403.39118,0.05243
7405.31965,0.03888
7407.24812,0.01146
7409.17659,0.00778
7411.10506,0.03567
7413.03353,0.08523
7414.96199,0.17071
7416.89046,0.26684
7418.81893,0.29301
7420.74740,0.19179
7422.67587,0.07031
7424.60434,0.02504
7426.53281,0.07807
7428.46128,0.19914
7430.38974,0.26368
7432.31821,0.20743
7434.24668,0.14940
7436.17515,0.09712
7438.10362,-0.01160
7440.03209,-0.06646
7441.96056,0.05432
7443.88902,0.22737
7445.81749,0.29440
7447.74596,0.23117
7449.67443,0.08178
7451.60290,-0.00905
7453.53137,0.06270
7455.45984,0.17545
7457.38831,0.19184
7459.31677,0.04911
7461.24524,-0.14027
7463.17371,-0.21971
7465.10218,-0.17462
7467.03065,-0.07283
7468.95912,-0.03252
7470.88759,-0.05583
7472.81605,-0.08041
7474.74452,-0.09463
7476.67299,-0.11974
7478.60146,-0.05855
7480.52993,0.07319
7482.45840,0.05771
7484.38687,0.02834
7486.31533,0.10638
7488.24380,0.12938
7490.17227,0.08412
7492.10074,0.12713
7494.02921,0.20899
7495.95768,0.24001
7497.88615,0.26114
