399.19301,0.32326
401.12148,0.06245
403.04995,0.24541
404.97842,0.15999
406.90689,-0.10608
408.83536,-0.13574
410.76382,0.13273
412.69229,0.22007
414.62076,0.08165
416.54923,-0.00125
418.47770,-0.03623
420.40617,-0.02642
422.33464,0.07938
424.26311,0.17428
426.19157,0.12544
428.12004,-0.03387
430.04851,-0.09160
431.97698,0.01879
433.90545,0.03465
435.83392,0.01813
437.76239,0.13177
439.69085,0.22898
441.61932,0.12201
443.54779,-0.11440
445.47626,-0.14820
447.40473,0.05115
449.33320,0.19530
451.26167,0.21098
453.19013,0.20922
455.11860,0.16731
457.04707,0.05823
458.97554,0.01937
460.90401,0.05810
462.83248,0.06057
464.76095,0.04292
466.68942,0.05169
468.61788,0.08528
470.54635,0.07831
472.47482,0.00954
474.40329,0.06530
476.33176,0.18559
478.26023,0.12975
480.18870,0.04491
482.11716,0.07809
484.04563,0.14350
485.97410,0.11278
487.90257,0.04567
489.83104,0.04920
491.75951,0.08601
493.68798,0.07438
495.61645,0.05614
497.54491,0.06234
499.47338,0.04430
501.40185,0.01034
503.33032,0.02729
505.25879,0.06964
507.18726,0.05626
509.11573,0.02565
511.04419,0.04807
512.97266,0.07659
514.90113,0.06694
516.82960,0.06991
518.75807,0.13662
520.68654,0.18212
522.61501,0.12708
524.54348,0.05122
526.47194,0.06225
528.40041,0.10058
530.32888,0.08176
532.25735,0.05985
534.18582,0.10041
536.11429,0.12079
538.04276,0.07774
539.97122,0.08394
541.89969,0.13182
543.82816,0.10610
545.75663,0.05253
547.68510,0.05959
549.61357,0.09222
551.54204,0.14472
553.47051,0.22307
555.39897,0.23599
557.32744,0.15086
559.25591,0.07065
561.18438,0.06870
563.11285,0.11762
565.04132,0.14347
566.96979,0.12483
568.89825,0.12110
570.82672,0.12328
572.75519,0.07653
574.68366,0.04610
576.61213,0.09718
578.54060,0.14342
580.46907,0.12825
582.39754,0.11983
584.32600,0.14177
586.25447,0.12966
588.18294,0.09695
590.11141,0.11092
592.03988,0.13968
593.96835,0.11858
595.89682,0.08497
597.82528,0.09891
599.75375,0.14075
601.68222,0.14703
603.61069,0.11531
605.53916,0.10250
607.46763,0.11170
609.39610,0.10567
611.32456,0.10059
613.25303,0.11740
615.18150,0.12033
617.10997,0.10376
619.03844,0.10572
620.96691,0.12373
622.89538,0.12269
624.82385,0.10198
626.75231,0.09865
628.68078,0.10886
630.60925,0.09955
632.53772,0.08723
634.46619,0.09806
636.39466,0.10359
638.32313,0.07691
640.25159,0.05731
642.18006,0.08345
644.10853,0.11242
646.03700,0.10136
647.96547,0.08425
649.89394,0.09980
651.82241,0.11948
653.75088,0.11619
655.67934,0.11262
657.60781,0.11966
659.53628,0.11306
661.46475,0.09592
663.39322,0.09684
665.32169,0.11498
667.25016,0.13175
669.17862,0.13580
671.10709,0.13405
673.03556,0.12571
674.96403,0.10742
676.89250,0.09665
678.82097,0.10047
680.74944,0.09803
682.67791,0.09795
684.60637,0.12318
686.53484,0.15469
688.46331,0.16506
690.39178,0.15791
692.32025,0.14628
694.24872,0.13359
696.17719,0.12251
698.10565,0.11567
700.03412,0.11639
701.96259,0.12142
703.89106,0.12110
705.81953,0.12250
707.74800,0.13113
709.67647,0.13931
711.60494,0.14176
713.53340,0.13323
715.46187,0.11783
717.39034,0.10731
719.31881,0.11140
721.24728,0.13393
723.17575,0.15154
725.10422,0.13234
727.03268,0.09481
728.96115,0.08636
730.88962,0.10242
732.81809,0.11140
734.74656,0.11679
736.67503,0.12217
738.60350,0.11128
740.53197,0.09778
742.46043,0.11575
744.38890,0.14684
746.31737,0.14535
748.24584,0.12787
750.17431,0.13218
752.10278,0.13812
754.03125,0.12402
755.95971,0.11438
757.88818,0.11772
759.81665,0.11707
761.74512,0.11383
763.67359,0.11614
765.60206,0.11931
767.53053,0.11151
769.45900,0.10198
771.38746,0.11731
773.31593,0.14404
775.24440,0.14709
777.17287,0.13355
779.10134,0.13399
781.02981,0.14306
782.95828,0.13013
784.88674,0.11077
786.81521,0.12243
788.74368,0.14155
790.67215,0.13125
792.60062,0.11362
794.52909,0.12124
796.45756,0.13642
798.38602,0.13591
800.31449,0.13654
802.24296,0.14514
804.17143,0.13519
806.09990,0.10483
808.02837,0.09436
809.95684,0.11495
811.88531,0.12767
813.81377,0.12008
815.74224,0.11470
817.67071,0.11192
819.59918,0.10391
821.52765,0.10625
823.45612,0.12768
825.38459,0.14749
827.31305,0.14445
829.24152,0.12865
831.16999,0.12316
833.09846,0.12927
835.02693,0.13548
836.95540,0.13945
838.88387,0.13629
840.81234,0.12172
842.74080,0.11122
844.66927,0.11828
846.59774,0.12703
848.52621,0.12523
850.45468,0.13076
852.38315,0.14809
854.31162,0.15013
856.24008,0.13184
858.16855,0.12536
860.09702,0.13474
862.02549,0.13116
863.95396,0.11973
865.88243,0.11888
867.81090,0.11948
869.73937,0.11123
871.66783,0.10249
873.59630,0.10962
875.52477,0.13007
877.45324,0.14212
879.38171,0.14226
881.31018,0.14340
883.23865,0.13840
885.16711,0.12025
887.09558,0.11230
889.02405,0.12429
890.95252,0.13191
892.88099,0.12646
894.80946,0.12749
896.73793,0.13611
898.66640,0.13246
900.59486,0.12342
902.52333,0.12837
904.45180,0.13634
906.38027,0.13128
908.30874,0.12509
910.23721,0.13239
912.16568,0.14277
914.09414,0.14178
916.02261,0.13823
917.95108,0.14057
919.87955,0.13669
921.80802,0.12762
923.73649,0.13302
925.66496,0.14871
927.59343,0.15099
929.52189,0.13994
931.45036,0.13483
933.37883,0.13675
935.30730,0.13269
937.23577,0.12850
939.16424,0.13742
941.09271,0.14655
943.02117,0.14304
944.94964,0.13843
946.87811,0.13661
948.80658,0.12758
950.73505,0.11821
952.66352,0.12599
954.59199,0.14373
956.52045,0.14549
958.44892,0.13426
960.37739,0.13659
962.30586,0.14828
964.23433,0.14664
966.16280,0.13756
968.09127,0.13958
970.01974,0.14891
971.94820,0.14806
973.87667,0.14248
975.80514,0.14781
977.73361,0.15295
979.66208,0.14438
981.59055,0.13572
983.51902,0.13956
985.44748,0.14214
987.37595,0.13891
989.30442,0.14497
991.23289,0.15721
993.16136,0.16196
995.08983,0.16376
997.01830,0.16687
998.94677,0.15974
1000.87523,0.14605
1002.80370,0.14507
1004.73217,0.15590
1006.66064,0.16251
1008.58911,0.15783
1010.51758,0.15030
1012.44605,0.14985
1014.37451,0.15235
1016.30298,0.15259
1018.23145,0.15258
1020.15992,0.15005
1022.08839,0.13855
1024.01686,0.13694
1025.94533,0.17073
1027.87380,0.20983
1029.80226,0.20915
1031.73073,0.17576
1033.65920,0.14666
1035.58767,0.13745
1037.51614,0.13390
1039.44461,0.13354
1041.37308,0.14034
1043.30154,0.14508
1045.23001,0.14700
1047.15848,0.15148
1049.08695,0.15641
1051.01542,0.15594
1052.94389,0.15630
1054.87236,0.16365
1056.80083,0.16785
1058.72929,0.16187
1060.65776,0.15530
1062.58623,0.15529
1064.51470,0.15347
1066.44317,0.15093
1068.37164,0.15861
1070.30011,0.16999
1072.22857,0.16661
1074.15704,0.15323
1076.08551,0.15273
1078.01398,0.15948
1079.94245,0.15480
1081.87092,0.14599
1083.79939,0.14760
1085.72786,0.15600
1087.65632,0.16009
1089.58479,0.15850
1091.51326,0.15558
1093.44173,0.15001
1095.37020,0.14052
1097.29867,0.13908
1099.22714,0.15004
1101.15560,0.15548
1103.08407,0.14752
1105.01254,0.14533
1106.94101,0.15689
1108.86948,0.15955
1110.79795,0.14819
1112.72642,0.14742
1114.65489,0.15717
1116.58335,0.15792
1118.51182,0.15714
1120.44029,0.16502
1122.36876,0.16719
1124.29723,0.15815
1126.22570,0.15047
1128.15417,0.14866
1130.08263,0.14719
1132.01110,0.14586
1133.93957,0.15078
1135.86804,0.15841
1137.79651,0.15556
1139.72498,0.14703
1141.65345,0.14723
1143.58191,0.14894
1145.51038,0.14296
1147.43885,0.14331
1149.36732,0.15745
1151.29579,0.16606
1153.22426,0.16177
1155.15273,0.15930
1157.08120,0.16402
1159.00966,0.16680
1160.93813,0.16130
1162.86660,0.15660
1164.79507,0.16008
1166.72354,0.16180
1168.65201,0.15769
1170.58048,0.15875
1172.50894,0.16527
1174.43741,0.16479
1176.36588,0.15912
1178.29435,0.15834
1180.22282,0.15723
1182.15129,0.15129
1184.07976,0.15213
1186.00823,0.16178
1187.93669,0.16537
1189.86516,0.16041
1191.79363,0.15823
1193.72210,0.15990
1195.65057,0.15832
1197.57904,0.15670
1199.50751,0.15987
1201.43597,0.16140
1203.36444,0.15814
1205.29291,0.15629
1207.22138,0.15849
1209.14985,0.15941
1211.07832,0.15622
1213.00679,0.15397
1214.93526,0.15607
1216.86372,0.15789
1218.79219,0.15713
1220.72066,0.15863
1222.64913,0.16148
1224.57760,0.16172
1226.50607,0.16379
1228.43454,0.17069
1230.36300,0.17421
1232.29147,0.16619
1234.21994,0.15526
1236.14841,0.15494
1238.07688,0.15988
1240.00535,0.16125
1241.93382,0.16197
1243.86229,0.16252
1245.79075,0.16046
1247.71922,0.15856
1249.64769,0.16025
1251.57616,0.16286
1253.50463,0.16085
1255.43310,0.15625
1257.36157,0.15348
1259.29003,0.15002
1261.21850,0.14584
1263.14697,0.14899
1265.07544,0.15962
1267.00391,0.16687
1268.93238,0.16667
1270.86085,0.16664
1272.78932,0.17136
1274.71778,0.17325
1276.64625,0.17064
1278.57472,0.17122
1280.50319,0.17083
1282.43166,0.16449
1284.36013,0.16044
1286.28860,0.16347
1288.21706,0.16863
1290.14553,0.17179
1292.07400,0.17313
1294.00247,0.17244
1295.93094,0.16868
1297.85941,0.16423
1299.78788,0.16266
1301.71634,0.15949
1303.64481,0.14948
1305.57328,0.14448
1307.50175,0.15590
1309.43022,0.17147
1311.35869,0.17755
1313.28716,0.17714
1315.21563,0.17736
1317.14409,0.17821
1319.07256,0.17375
1321.00103,0.16697
1322.92950,0.16708
1324.85797,0.16940
1326.78644,0.16695
1328.71491,0.16467
1330.64337,0.16369
1332.57184,0.16057
1334.50031,0.15948
1336.42878,0.16686
1338.35725,0.17929
1340.28572,0.17832
1342.21419,0.16508
1344.14266,0.16052
1346.07112,0.16305
1347.99959,0.16256
1349.92806,0.16020
1351.85653,0.16232
1353.78500,0.16864
1355.71347,0.17042
1357.64194,0.16947
1359.57040,0.17560
1361.49887,0.18373
1363.42734,0.18102
1365.35581,0.17386
1367.28428,0.17206
1369.21275,0.17246
1371.14122,0.17509
1373.06969,0.18407
1374.99815,0.19067
1376.92662,0.18360
1378.85509,0.17393
1380.78356,0.17232
1382.71203,0.17487
1384.64050,0.17717
1386.56897,0.18105
1388.49743,0.18531
1390.42590,0.18643
1392.35437,0.18820
1394.28284,0.19423
1396.21131,0.20097
1398.13978,0.20174
1400.06825,0.19541
1401.99672,0.19206
1403.92518,0.19375
1405.85365,0.18761
1407.78212,0.17608
1409.71059,0.17405
1411.63906,0.17882
1413.56753,0.18102
1415.49600,0.18569
1417.42446,0.19944
1419.35293,0.20509
1421.28140,0.19568
1423.20987,0.19240
1425.13834,0.19365
1427.06681,0.19365
1428.99528,0.19313
1430.92375,0.19041
1432.85221,0.18948
1434.78068,0.19304
1436.70915,0.19467
1438.63762,0.19038
1440.56609,0.18621
1442.49456,0.18407
1444.42303,0.18549
1446.35149,0.18935
1448.27996,0.18712
1450.20843,0.18232
1452.13690,0.18993
1454.06537,0.21098
1455.99384,0.23735
1457.92231,0.24030
1459.85077,0.21700
1461.77924,0.20494
1463.70771,0.20319
1465.63618,0.19865
1467.56465,0.19485
1469.49312,0.20382
1471.42159,0.21978
1473.35006,0.22114
1475.27852,0.21019
1477.20699,0.20032
1479.13546,0.19099
1481.06393,0.18716
1482.99240,0.18879
1484.92087,0.19246
1486.84934,0.20103
1488.77780,0.21495
1490.70627,0.21654
1492.63474,0.20738
1494.56321,0.20928
1496.49168,0.22045
1498.42015,0.21512
1500.34862,0.19445
1502.27709,0.18194
1504.20555,0.19259
1506.13402,0.24269
1508.06249,0.26983
1509.99096,0.24088
1511.91943,0.22351
1513.84790,0.22211
1515.77637,0.23038
1517.70483,0.23976
1519.63330,0.24887
1521.56177,0.25322
1523.49024,0.23882
1525.41871,0.22658
1527.34718,0.21957
1529.27565,0.21006
1531.20412,0.20903
1533.13258,0.21860
1535.06105,0.22054
1536.98952,0.22378
1538.91799,0.25120
1540.84646,0.28219
1542.77493,0.26574
1544.70340,0.23473
1546.63186,0.21504
1548.56033,0.21207
1550.48880,0.21286
1552.41727,0.21436
1554.34574,0.22919
1556.27421,0.26019
1558.20268,0.28811
1560.13115,0.25104
1562.05961,0.21700
1563.98808,0.20657
1565.91655,0.20081
1567.84502,0.20340
1569.77349,0.21159
1571.70196,0.20840
1573.63043,0.20644
1575.55889,0.21518
1577.48736,0.21378
1579.41583,0.19843
1581.34430,0.18688
1583.27277,0.18401
1585.20124,0.18586
1587.12971,0.18520
1589.05818,0.18249
1590.98664,0.18226
1592.91511,0.18417
1594.84358,0.18456
1596.77205,0.18370
1598.70052,0.18625
1600.62899,0.19099
1602.55746,0.19152
1604.48592,0.18947
1606.41439,0.19045
1608.34286,0.19104
1610.27133,0.18856
1612.19980,0.18984
1614.12827,0.20048
1616.05674,0.21421
1617.98521,0.21078
1619.91367,0.20408
1621.84214,0.21085
1623.77061,0.21849
1625.69908,0.21795
1627.62755,0.21608
1629.55602,0.21047
1631.48449,0.20757
1633.41295,0.22138
1635.34142,0.24790
1637.26989,0.24183
1639.19836,0.21813
1641.12683,0.20929
1643.05530,0.21459
1644.98377,0.23246
1646.91223,0.25132
1648.84070,0.24764
1650.76917,0.24716
1652.69764,0.25613
1654.62611,0.23389
1656.55458,0.21215
1658.48305,0.20625
1660.41152,0.20696
1662.33998,0.20893
1664.26845,0.20781
1666.19692,0.20930
1668.12539,0.21936
1670.05386,0.22899
1671.98233,0.22855
1673.91080,0.22639
1675.83926,0.22087
1677.76773,0.21563
1679.69620,0.21773
1681.62467,0.22917
1683.55314,0.25130
1685.48161,0.25423
1687.41008,0.23592
1689.33855,0.21941
1691.26701,0.20836
1693.19548,0.21245
1695.12395,0.23371
1697.05242,0.25176
1698.98089,0.25501
1700.90936,0.24664
1702.83783,0.23251
1704.76629,0.22252
1706.69476,0.21190
1708.62323,0.20160
1710.55170,0.19682
1712.48017,0.20175
1714.40864,0.22139
1716.33711,0.24645
1718.26558,0.23844
1720.19404,0.21106
1722.12251,0.19875
1724.05098,0.19620
1725.97945,0.19360
1727.90792,0.19530
1729.83639,0.20566
1731.76486,0.21978
1733.69332,0.22854
1735.62179,0.21987
1737.55026,0.21093
1739.47873,0.20945
1741.40720,0.20879
1743.33567,0.21008
1745.26414,0.21603
1747.19261,0.22238
1749.12107,0.22276
1751.04954,0.21350
1752.97801,0.20207
1754.90648,0.19807
1756.83495,0.20133
1758.76342,0.20442
1760.69189,0.20475
1762.62035,0.20060
1764.54882,0.19680
1766.47729,0.20097
1768.40576,0.20820
1770.33423,0.21577
1772.26270,0.22172
1774.19117,0.21513
1776.11964,0.20510
1778.04810,0.20256
1779.97657,0.20475
1781.90504,0.20265
1783.83351,0.19859
1785.76198,0.19831
1787.69045,0.20125
1789.61892,0.20787
1791.54738,0.21252
1793.47585,0.20694
1795.40432,0.20001
1797.33279,0.19819
1799.26126,0.20068
1801.18973,0.20297
1803.11820,0.19997
1805.04666,0.19484
1806.97513,0.19341
1808.90360,0.19802
1810.83207,0.20160
1812.76054,0.19682
1814.68901,0.19287
1816.61748,0.19520
1818.54595,0.19480
1820.47441,0.19139
1822.40288,0.19641
1824.33135,0.20741
1826.25982,0.21211
1828.18829,0.21285
1830.11676,0.21057
1832.04523,0.20132
1833.97369,0.19211
1835.90216,0.18784
1837.83063,0.18832
1839.75910,0.19133
1841.68757,0.19886
1843.61604,0.21007
1845.54451,0.21208
1847.47298,0.20372
1849.40144,0.19497
1851.32991,0.19175
1853.25838,0.19382
1855.18685,0.19458
1857.11532,0.19238
1859.04379,0.19103
1860.97226,0.19029
1862.90072,0.18951
1864.82919,0.19384
1866.75766,0.20703
1868.68613,0.21646
1870.61460,0.20751
1872.54307,0.19535
1874.47154,0.19049
1876.40001,0.18981
1878.32847,0.18991
1880.25694,0.18982
1882.18541,0.19085
1884.11388,0.19155
1886.04235,0.19204
1887.97082,0.19703
1889.89929,0.20103
1891.82775,0.19693
1893.75622,0.19259
1895.68469,0.19270
1897.61316,0.19340
1899.54163,0.19188
1901.47010,0.18936
1903.39857,0.18846
1905.32704,0.18952
1907.25550,0.19175
1909.18397,0.19288
1911.11244,0.19155
1913.04091,0.19044
1914.96938,0.19246
1916.89785,0.19799
1918.82632,0.20169
1920.75478,0.20170
1922.68325,0.20097
1924.61172,0.19767
1926.54019,0.19248
1928.46866,0.18856
1930.39713,0.18817
1932.32560,0.19076
1934.25407,0.19076
1936.18253,0.18634
1938.11100,0.18436
1940.03947,0.19025
1941.96794,0.19903
1943.89641,0.20120
1945.82488,0.19673
1947.75335,0.19082
1949.68181,0.18580
1951.61028,0.18522
1953.53875,0.19024
1955.46722,0.19417
1957.39569,0.19330
1959.32416,0.19337
1961.25263,0.19527
1963.18110,0.19433
1965.10956,0.19358
1967.03803,0.19644
1968.96650,0.19847
1970.89497,0.19624
1972.82344,0.19278
1974.75191,0.19356
1976.68038,0.19665
1978.60884,0.19654
1980.53731,0.19611
1982.46578,0.19695
1984.39425,0.19525
1986.32272,0.19220
1988.25119,0.19272
1990.17966,0.19767
1992.10812,0.19896
1994.03659,0.19224
1995.96506,0.18717
1997.89353,0.18890
1999.82200,0.19139
2001.75047,0.19091
2003.67894,0.19165
2005.60741,0.19419
2007.53587,0.19318
2009.46434,0.19106
2011.39281,0.19373
2013.32128,0.19720
2015.24975,0.19652
2017.17822,0.19501
2019.10669,0.19534
2021.03515,0.19500
2022.96362,0.19343
2024.89209,0.19357
2026.82056,0.19537
2028.74903,0.19517
2030.67750,0.19314
2032.60597,0.19243
2034.53444,0.19189
2036.46290,0.18985
2038.39137,0.18864
2040.31984,0.18854
2042.24831,0.18836
2044.17678,0.18854
2046.10525,0.18910
2048.03372,0.19049
2049.96218,0.19077
2051.89065,0.18834
2053.81912,0.18771
2055.74759,0.19061
2057.67606,0.19301
2059.60453,0.19382
2061.53300,0.19559
2063.46147,0.19760
2065.38993,0.19575
2067.31840,0.19191
2069.24687,0.19052
2071.17534,0.19059
2073.10381,0.19162
2075.03228,0.19365
2076.96075,0.19520
2078.88921,0.19576
2080.81768,0.19449
2082.74615,0.19227
2084.67462,0.19167
2086.60309,0.19224
2088.53156,0.19191
2090.46003,0.19183
2092.38850,0.19341
2094.31696,0.19469
2096.24543,0.19474
2098.17390,0.19507
2100.10237,0.19479
2102.03084,0.19210
2103.95931,0.18988
2105.88778,0.19167
2107.81624,0.19440
2109.74471,0.19372
2111.67318,0.19295
2113.60165,0.19487
2115.53012,0.19523
2117.45859,0.19301
2119.38706,0.19159
2121.31553,0.19234
2123.24399,0.19286
2125.17246,0.19151
2127.10093,0.19175
2129.02940,0.19435
2130.95787,0.19522
2132.88634,0.19423
2134.81481,0.19509
2136.74327,0.19651
2138.67174,0.19463
2140.60021,0.19191
2142.52868,0.19200
2144.45715,0.19343
2146.38562,0.19489
2148.31409,0.19745
2150.24255,0.19991
2152.17102,0.20016
2154.09949,0.19932
2156.02796,0.19872
2157.95643,0.19728
2159.88490,0.19451
2161.81337,0.19260
2163.74184,0.19365
2165.67030,0.19512
2167.59877,0.19322
2169.52724,0.19073
2171.45571,0.19099
2173.38418,0.19061
2175.31265,0.18832
2177.24112,0.18843
2179.16958,0.19164
2181.09805,0.19293
2183.02652,0.19189
2184.95499,0.19384
2186.88346,0.19766
2188.81193,0.19759
2190.74040,0.19431
2192.66887,0.19340
2194.59733,0.19608
2196.52580,0.19833
2198.45427,0.19857
2200.38274,0.19845
2202.31121,0.19800
2204.23968,0.19699
2206.16815,0.19624
2208.09661,0.19580
2210.02508,0.19516
2211.95355,0.19542
2213.88202,0.19780
2215.81049,0.19963
2217.73896,0.19721
2219.66743,0.19253
2221.59590,0.19081
2223.52436,0.19194
2225.45283,0.19223
2227.38130,0.19328
2229.30977,0.19736
2231.23824,0.19921
2233.16671,0.19545
2235.09518,0.19121
2237.02364,0.19081
2238.95211,0.19301
2240.88058,0.19396
2242.80905,0.19301
2244.73752,0.19318
2246.66599,0.19282
2248.59446,0.19105
2250.52293,0.19229
2252.45139,0.19534
2254.37986,0.19575
2256.30833,0.19370
2258.23680,0.19260
2260.16527,0.19497
2262.09374,0.19755
2264.02221,0.19746
2265.95067,0.19631
2267.87914,0.19403
2269.80761,0.19195
2271.73608,0.19437
2273.66455,0.19955
2275.59302,0.20041
2277.52149,0.19681
2279.44996,0.19552
2281.37842,0.19725
2283.30689,0.19628
2285.23536,0.19333
2287.16383,0.19400
2289.09230,0.19601
2291.02077,0.19478
2292.94924,0.19361
2294.87770,0.19589
2296.80617,0.19850
2298.73464,0.19778
2300.66311,0.19589
2302.59158,0.19745
2304.52005,0.20082
2306.44852,0.20067
2308.37699,0.20029
2310.30545,0.20348
2312.23392,0.20335
2314.16239,0.20076
2316.09086,0.20388
2318.01933,0.20788
2319.94780,0.20523
2321.87627,0.20122
2323.80473,0.20239
2325.73320,0.20530
2327.66167,0.20788
2329.59014,0.21509
2331.51861,0.22430
2333.44708,0.21737
2335.37555,0.19891
2337.30401,0.19712
2339.23248,0.20678
2341.16095,0.20455
2343.08942,0.19693
2345.01789,0.19908
2346.94636,0.20510
2348.87483,0.20477
2350.80330,0.20131
2352.73176,0.20408
2354.66023,0.20924
2356.58870,0.19932
2358.51717,0.19691
2360.44564,0.22039
2362.37411,0.22949
2364.30258,0.21623
2366.23104,0.20489
2368.15951,0.19724
2370.08798,0.19159
2372.01645,0.19313
2373.94492,0.19964
2375.87339,0.20257
2377.80186,0.20078
2379.73033,0.19954
2381.65879,0.20078
2383.58726,0.20001
2385.51573,0.19540
2387.44420,0.19278
2389.37267,0.19388
2391.30114,0.19402
2393.22961,0.19304
2395.15807,0.19454
2397.08654,0.19752
2399.01501,0.19766
2400.94348,0.19538
2402.87195,0.19429
2404.80042,0.19410
2406.72889,0.19280
2408.65736,0.19197
2410.58582,0.19399
2412.51429,0.19622
2414.44276,0.19468
2416.37123,0.19211
2418.29970,0.19311
2420.22817,0.19517
2422.15664,0.19594
2424.08510,0.19720
2426.01357,0.19740
2427.94204,0.19347
2429.87051,0.18766
2431.79898,0.18670
2433.72745,0.19093
2435.65592,0.19390
2437.58439,0.19485
2439.51285,0.19645
2441.44132,0.19650
2443.36979,0.19265
2445.29826,0.18973
2447.22673,0.19264
2449.15520,0.19610
2451.08367,0.19534
2453.01213,0.19454
2454.94060,0.19500
2456.86907,0.19491
2458.79754,0.19574
2460.72601,0.19799
2462.65448,0.19881
2464.58295,0.19526
2466.51142,0.19096
2468.43988,0.19023
2470.36835,0.19023
2472.29682,0.19028
2474.22529,0.19223
2476.15376,0.19428
2478.08223,0.19412
2480.01070,0.19277
2481.93916,0.19346
2483.86763,0.19514
2485.79610,0.19414
2487.72457,0.19184
2489.65304,0.19194
2491.58151,0.19279
2493.50998,0.19201
2495.43844,0.19279
2497.36691,0.19593
2499.29538,0.19800
2501.22385,0.19720
2503.15232,0.19493
2505.08079,0.19512
2507.00926,0.19810
2508.93773,0.19878
2510.86619,0.19631
2512.79466,0.19415
2514.72313,0.19213
2516.65160,0.19092
2518.58007,0.19337
2520.50854,0.19732
2522.43701,0.19750
2524.36547,0.19410
2526.29394,0.19355
2528.22241,0.19627
2530.15088,0.19710
2532.07935,0.19805
2534.00782,0.20180
2535.93629,0.20372
2537.86476,0.20054
2539.79322,0.19598
2541.72169,0.19530
2543.65016,0.19787
2545.57863,0.19972
2547.50710,0.20074
2549.43557,0.20093
2551.36404,0.19792
2553.29250,0.19445
2555.22097,0.19506
2557.14944,0.19657
2559.07791,0.19459
2561.00638,0.19288
2562.93485,0.19581
2564.86332,0.19876
2566.79179,0.19678
2568.72025,0.19453
2570.64872,0.19559
2572.57719,0.19619
2574.50566,0.19479
2576.43413,0.19362
2578.36260,0.19418
2580.29107,0.19522
2582.21953,0.19439
2584.14800,0.19310
2586.07647,0.19430
2588.00494,0.19677
2589.93341,0.19833
2591.86188,0.19990
2593.79035,0.20079
2595.71882,0.19941
2597.64728,0.19819
2599.57575,0.19899
2601.50422,0.20011
2603.43269,0.20074
2605.36116,0.20057
2607.28963,0.20027
2609.21810,0.20660
2611.14656,0.21811
2613.07503,0.21957
2615.00350,0.20972
2616.93197,0.20148
2618.86044,0.19917
2620.78891,0.20090
2622.71738,0.20312
2624.64585,0.20159
2626.57431,0.20040
2628.50278,0.20313
2630.43125,0.20232
2632.35972,0.19688
2634.28819,0.19600
2636.21666,0.19976
2638.14513,0.20159
2640.07359,0.20180
2642.00206,0.20290
2643.93053,0.20273
2645.85900,0.19917
2647.78747,0.19721
2649.71594,0.20346
2651.64441,0.21246
2653.57288,0.21400
2655.50134,0.21005
2657.42981,0.20857
2659.35828,0.20824
2661.28675,0.20413
2663.21522,0.19961
2665.14369,0.19819
2667.07216,0.19690
2669.00062,0.19459
2670.92909,0.19424
2672.85756,0.19750
2674.78603,0.20208
2676.71450,0.20482
2678.64297,0.20479
2680.57144,0.20325
2682.49990,0.20205
2684.42837,0.20251
2686.35684,0.20547
2688.28531,0.20825
2690.21378,0.20727
2692.14225,0.20622
2694.07072,0.20871
2695.99919,0.20926
2697.92765,0.20589
2699.85612,0.20536
2701.78459,0.20679
2703.71306,0.20342
2705.64153,0.19992
2707.57000,0.20343
2709.49847,0.20848
2711.42693,0.20802
2713.35540,0.20546
2715.28387,0.20539
2717.21234,0.20583
2719.14081,0.20571
2721.06928,0.20700
2722.99775,0.20950
2724.92622,0.21073
2726.85468,0.20964
2728.78315,0.20836
2730.71162,0.20810
2732.64009,0.20687
2734.56856,0.20481
2736.49703,0.20619
2738.42550,0.21031
2740.35396,0.21043
2742.28243,0.20745
2744.21090,0.20752
2746.13937,0.20751
2748.06784,0.20398
2749.99631,0.20283
2751.92478,0.20620
2753.85325,0.20883
2755.78171,0.20968
2757.71018,0.21220
2759.63865,0.21455
2761.56712,0.21248
2763.49559,0.20848
2765.42406,0.20775
2767.35253,0.20844
2769.28099,0.20491
2771.20946,0.20172
2773.13793,0.20547
2775.06640,0.21026
2776.99487,0.21034
2778.92334,0.20940
2780.85181,0.20964
2782.78028,0.20689
2784.70874,0.20278
2786.63721,0.20531
2788.56568,0.21207
2790.49415,0.21375
2792.42262,0.21079
2794.35109,0.21007
2796.27956,0.21091
2798.20802,0.20784
2800.13649,0.20327
2802.06496,0.20394
2803.99343,0.20818
2805.92190,0.21007
2807.85037,0.21025
2809.77884,0.21221
2811.70731,0.21407
2813.63577,0.21221
2815.56424,0.21145
2817.49271,0.21591
2819.42118,0.21755
2821.34965,0.21314
2823.27812,0.21102
2825.20659,0.21209
2827.13505,0.21094
2829.06352,0.21089
2830.99199,0.21428
2832.92046,0.21478
2834.84893,0.21335
2836.77740,0.21706
2838.70587,0.22215
2840.63433,0.22008
2842.56280,0.21315
2844.49127,0.20896
2846.41974,0.20861
2848.34821,0.20918
2850.27668,0.20952
2852.20515,0.21096
2854.13362,0.21338
2856.06208,0.21422
2857.99055,0.21355
2859.91902,0.21402
2861.84749,0.21515
2863.77596,0.21301
2865.70443,0.20847
2867.63290,0.20767
2869.56136,0.21109
2871.48983,0.21371
2873.41830,0.21469
2875.34677,0.21601
2877.27524,0.21457
2879.20371,0.21014
2881.13218,0.21022
2883.06065,0.21439
2884.98911,0.21573
2886.91758,0.21589
2888.84605,0.21733
2890.77452,0.21600
2892.70299,0.21108
2894.63146,0.20831
2896.55993,0.21158
2898.48839,0.21627
2900.41686,0.21702
2902.34533,0.21586
2904.27380,0.21450
2906.20227,0.21125
2908.13074,0.20809
2910.05921,0.20944
2911.98768,0.21268
2913.91614,0.21030
2915.84461,0.20477
2917.77308,0.20500
2919.70155,0.20786
2921.63002,0.20560
2923.55849,0.20101
2925.48696,0.19731
2927.41542,0.19409
2929.34389,0.19414
2931.27236,0.20017
2933.20083,0.21015
2935.12930,0.21407
2937.05777,0.20800
2938.98624,0.20309
2940.91471,0.20388
2942.84317,0.20508
2944.77164,0.20414
2946.70011,0.20277
2948.62858,0.20478
2950.55705,0.20739
2952.48552,0.20668
2954.41399,0.20623
2956.34245,0.20660
2958.27092,0.20573
2960.19939,0.20633
2962.12786,0.20913
2964.05633,0.21001
2965.98480,0.20647
2967.91327,0.20297
2969.84174,0.20669
2971.77020,0.21503
2973.69867,0.22085
2975.62714,0.22127
2977.55561,0.21693
2979.48408,0.21520
2981.41255,0.21889
2983.34102,0.22134
2985.26948,0.21710
2987.19795,0.20816
2989.12642,0.20561
2991.05489,0.21269
2992.98336,0.21812
2994.91183,0.21727
2996.84030,0.21701
2998.76877,0.22012
3000.69723,0.22164
3002.62570,0.21876
3004.55417,0.21554
3006.48264,0.21389
3008.41111,0.21016
3010.33958,0.20402
3012.26805,0.19474
3014.19651,0.17555
3016.12498,0.15296
3018.05345,0.15410
3019.98192,0.18389
3021.91039,0.21112
3023.83886,0.21865
3025.76733,0.21590
3027.69579,0.21380
3029.62426,0.21468
3031.55273,0.21371
3033.48120,0.21166
3035.40967,0.21238
3037.33814,0.21347
3039.26661,0.21521
3041.19508,0.21853
3043.12354,0.21877
3045.05201,0.21350
3046.98048,0.20804
3048.90895,0.21059
3050.83742,0.21801
3052.76589,0.21858
3054.69436,0.21132
3056.62282,0.20616
3058.55129,0.21081
3060.47976,0.21892
3062.40823,0.22003
3064.33670,0.21417
3066.26517,0.20592
3068.19364,0.20425
3070.12211,0.21172
3072.05057,0.21615
3073.97904,0.21124
3075.90751,0.20745
3077.83598,0.21382
3079.76445,0.21946
3081.69292,0.21537
3083.62139,0.20584
3085.54985,0.19582
3087.47832,0.19643
3089.40679,0.20922
3091.33526,0.21711
3093.26373,0.21217
3095.19220,0.20524
3097.12067,0.20666
3099.04914,0.21367
3100.97760,0.21615
3102.90607,0.21130
3104.83454,0.20953
3106.76301,0.21454
3108.69148,0.21686
3110.61995,0.21049
3112.54842,0.20406
3114.47688,0.20922
3116.40535,0.21845
3118.33382,0.22063
3120.26229,0.21688
3122.19076,0.21031
3124.11923,0.20568
3126.04770,0.20644
3127.97617,0.21042
3129.90463,0.21443
3131.83310,0.21764
3133.76157,0.21937
3135.69004,0.21943
3137.61851,0.21786
3139.54698,0.21514
3141.47545,0.21571
3143.40391,0.21937
3145.33238,0.21927
3147.26085,0.21376
3149.18932,0.21112
3151.11779,0.21725
3153.04626,0.22391
3154.97473,0.22426
3156.90320,0.22328
3158.83166,0.22256
3160.76013,0.22012
3162.68860,0.21939
3164.61707,0.22247
3166.54554,0.22505
3168.47401,0.22259
3170.40248,0.22083
3172.33094,0.22628
3174.25941,0.23080
3176.18788,0.23002
3178.11635,0.23073
3180.04482,0.23144
3181.97329,0.22866
3183.90176,0.22755
3185.83022,0.22902
3187.75869,0.22740
3189.68716,0.22168
3191.61563,0.21815
3193.54410,0.22370
3195.47257,0.23163
3197.40104,0.22795
3199.32951,0.21656
3201.25797,0.21068
3203.18644,0.21247
3205.11491,0.21799
3207.04338,0.22359
3208.97185,0.22550
3210.90032,0.22352
3212.82879,0.22288
3214.75725,0.22622
3216.68572,0.22709
3218.61419,0.22076
3220.54266,0.21371
3222.47113,0.21346
3224.39960,0.21945
3226.32807,0.22646
3228.25654,0.23166
3230.18500,0.23467
3232.11347,0.23128
3234.04194,0.22031
3235.97041,0.21285
3237.89888,0.21703
3239.82735,0.22248
3241.75582,0.21936
3243.68428,0.21578
3245.61275,0.21785
3247.54122,0.21820
3249.46969,0.21645
3251.39816,0.22043
3253.32663,0.22760
3255.25510,0.22842
3257.18357,0.22176
3259.11203,0.21453
3261.04050,0.21260
3262.96897,0.21394
3264.89744,0.21384
3266.82591,0.21586
3268.75438,0.22032
3270.68285,0.22149
3272.61131,0.22179
3274.53978,0.22287
3276.46825,0.22205
3278.39672,0.22109
3280.32519,0.22270
3282.25366,0.22331
3284.18213,0.21799
3286.11060,0.21333
3288.03906,0.21618
3289.96753,0.22004
3291.89600,0.21979
3293.82447,0.21878
3295.75294,0.21908
3297.68141,0.21961
3299.60988,0.21833
3301.53834,0.21462
3303.46681,0.21322
3305.39528,0.21788
3307.32375,0.22496
3309.25222,0.22854
3311.18069,0.22690
3313.10916,0.22268
3315.03763,0.21951
3316.96609,0.21990
3318.89456,0.22097
3320.82303,0.21852
3322.75150,0.21496
3324.67997,0.21247
3326.60844,0.20942
3328.53691,0.20903
3330.46537,0.21612
3332.39384,0.22694
3334.32231,0.23123
3336.25078,0.22577
3338.17925,0.21999
3340.10772,0.22082
3342.03619,0.22335
3343.96466,0.22284
3345.89312,0.22052
3347.82159,0.21663
3349.75006,0.21251
3351.67853,0.21436
3353.60700,0.22136
3355.53547,0.22387
3357.46394,0.22074
3359.39240,0.22155
3361.32087,0.22836
3363.24934,0.23130
3365.17781,0.22656
3367.10628,0.22247
3369.03475,0.22314
3370.96322,0.22330
3372.89168,0.22192
3374.82015,0.22403
3376.74862,0.22751
3378.67709,0.22648
3380.60556,0.22361
3382.53403,0.22356
3384.46250,0.22479
3386.39097,0.22437
3388.31943,0.22314
3390.24790,0.22212
3392.17637,0.21912
3394.10484,0.21608
3396.03331,0.22046
3397.96178,0.22836
3399.89025,0.22715
3401.81871,0.21996
3403.74718,0.21802
3405.67565,0.22010
3407.60412,0.21891
3409.53259,0.21704
3411.46106,0.21893
3413.38953,0.21581
3415.31800,0.20627
3417.24646,0.20458
3419.17493,0.21392
3421.10340,0.22012
3423.03187,0.21471
3424.96034,0.20623
3426.88881,0.20351
3428.81728,0.20485
3430.74574,0.20622
3432.67421,0.21017
3434.60268,0.21407
3436.53115,0.20930
3438.45962,0.20274
3440.38809,0.20519
3442.31656,0.21076
3444.24503,0.21077
3446.17349,0.20938
3448.10196,0.21129
3450.03043,0.20846
3451.95890,0.19957
3453.88737,0.19807
3455.81584,0.20316
3457.74431,0.20121
3459.67277,0.19533
3461.60124,0.19478
3463.52971,0.19933
3465.45818,0.20226
3467.38665,0.19855
3469.31512,0.19423
3471.24359,0.19433
3473.17206,0.19631
3475.10052,0.19869
3477.02899,0.20141
3478.95746,0.20250
3480.88593,0.19817
3482.81440,0.19286
3484.74287,0.19380
3486.67134,0.19500
3488.59980,0.19119
3490.52827,0.18801
3492.45674,0.18763
3494.38521,0.18496
3496.31368,0.18080
3498.24215,0.18331
3500.17062,0.19070
3502.09909,0.19514
3504.02755,0.19718
3505.95602,0.19796
3507.88449,0.19340
3509.81296,0.18431
3511.74143,0.18138
3513.66990,0.18501
3515.59837,0.18447
3517.52683,0.18181
3519.45530,0.18486
3521.38377,0.19110
3523.31224,0.19163
3525.24071,0.18535
3527.16918,0.18156
3529.09765,0.18109
3531.02611,0.17690
3532.95458,0.17248
3534.88305,0.17624
3536.81152,0.18404
3538.73999,0.18665
3540.66846,0.18757
3542.59693,0.19131
3544.52540,0.19394
3546.45386,0.19147
3548.38233,0.18847
3550.31080,0.18951
3552.23927,0.18824
3554.16774,0.18203
3556.09621,0.17913
3558.02468,0.17812
3559.95314,0.17245
3561.88161,0.17021
3563.81008,0.18358
3565.73855,0.20388
3567.66702,0.20212
3569.59549,0.18331
3571.52396,0.17417
3573.45243,0.17004
3575.38089,0.16436
3577.30936,0.16357
3579.23783,0.16673
3581.16630,0.16665
3583.09477,0.16853
3585.02324,0.18014
3586.95171,0.19225
3588.88017,0.18314
3590.80864,0.16702
3592.73711,0.16483
3594.66558,0.16913
3596.59405,0.16567
3598.52252,0.16179
3600.45099,0.16662
3602.37946,0.16952
3604.30792,0.16488
3606.23639,0.16449
3608.16486,0.16983
3610.09333,0.17034
3612.02180,0.17097
3613.95027,0.17696
3615.87874,0.18361
3617.80720,0.18531
3619.73567,0.17616
3621.66414,0.16502
3623.59261,0.16157
3625.52108,0.16473
3627.44955,0.17535
3629.37802,0.18223
3631.30649,0.17184
3633.23495,0.15978
3635.16342,0.15375
3637.09189,0.15162
3639.02036,0.14739
3640.94883,0.14420
3642.87730,0.14659
3644.80577,0.15193
3646.73423,0.16179
3648.66270,0.17596
3650.59117,0.17581
3652.51964,0.16498
3654.44811,0.15916
3656.37658,0.15536
3658.30505,0.14812
3660.23352,0.14183
3662.16198,0.13877
3664.09045,0.14069
3666.01892,0.14969
3667.94739,0.16474
3669.87586,0.17597
3671.80433,0.17495
3673.73280,0.17923
3675.66126,0.18162
3677.58973,0.16492
3679.51820,0.15243
3681.44667,0.14675
3683.37514,0.14125
3685.30361,0.13911
3687.23208,0.14442
3689.16055,0.15406
3691.08901,0.15630
3693.01748,0.15145
3694.94595,0.14680
3696.87442,0.14123
3698.80289,0.13610
3700.73136,0.13709
3702.65983,0.14193
3704.58829,0.14580
3706.51676,0.15135
3708.44523,0.16199
3710.37370,0.17252
3712.30217,0.16288
3714.23064,0.14597
3716.15911,0.14494
3718.08757,0.15107
3720.01604,0.15212
3721.94451,0.15543
3723.87298,0.16473
3725.80145,0.16351
3727.72992,0.15406
3729.65839,0.15443
3731.58686,0.16719
3733.51532,0.18186
3735.44379,0.18343
3737.37226,0.17501
3739.30073,0.16650
3741.22920,0.15894
3743.15767,0.15963
3745.08614,0.17216
3747.01460,0.17557
3748.94307,0.17054
3750.87154,0.16776
3752.80001,0.16358
3754.72848,0.15629
3756.65695,0.15195
3758.58542,0.15247
3760.51389,0.14948
3762.44235,0.14015
3764.37082,0.13304
3766.29929,0.13300
3768.22776,0.13898
3770.15623,0.14326
3772.08470,0.13891
3774.01317,0.13193
3775.94163,0.12984
3777.87010,0.13604
3779.79857,0.14538
3781.72704,0.14858
3783.65551,0.14474
3785.58398,0.13437
3787.51245,0.12672
3789.44092,0.12873
3791.36938,0.13079
3793.29785,0.12984
3795.22632,0.13828
3797.15479,0.15319
3799.08326,0.15852
3801.01173,0.15674
3802.94020,0.15203
3804.86866,0.14914
3806.79713,0.14404
3808.72560,0.13087
3810.65407,0.12365
3812.58254,0.12685
3814.51101,0.13414
3816.43948,0.14020
3818.36795,0.14632
3820.29641,0.15626
3822.22488,0.15900
3824.15335,0.15507
3826.08182,0.15303
3828.01029,0.14755
3829.93876,0.14296
3831.86723,0.14475
3833.79569,0.14578
3835.72416,0.14397
3837.65263,0.14698
3839.58110,0.15449
3841.50957,0.15389
3843.43804,0.14432
3845.36651,0.13468
3847.29498,0.12877
3849.22344,0.12804
3851.15191,0.13806
3853.08038,0.15585
3855.00885,0.15308
3856.93732,0.14089
3858.86579,0.13273
3860.79426,0.12845
3862.72272,0.12957
3864.65119,0.13046
3866.57966,0.12905
3868.50813,0.13311
3870.43660,0.13764
3872.36507,0.13364
3874.29354,0.12786
3876.22200,0.12502
3878.15047,0.12679
3880.07894,0.13072
3882.00741,0.13265
3883.93588,0.13735
3885.86435,0.13964
3887.79282,0.13427
3889.72129,0.13519
3891.64975,0.13989
3893.57822,0.13374
3895.50669,0.12786
3897.43516,0.13008
3899.36363,0.13114
3901.29210,0.12963
3903.22057,0.13542
3905.14903,0.13511
3907.07750,0.12252
3909.00597,0.11402
3910.93444,0.11227
3912.86291,0.11274
3914.79138,0.11532
3916.71985,0.11881
3918.64832,0.12183
3920.57678,0.12452
3922.50525,0.12575
3924.43372,0.12407
3926.36219,0.12007
3928.29066,0.11708
3930.21913,0.11739
3932.14760,0.11988
3934.07606,0.11952
3936.00453,0.11549
3937.93300,0.11273
3939.86147,0.11406
3941.78994,0.11521
3943.71841,0.11098
3945.64688,0.10810
3947.57535,0.11360
3949.50381,0.12027
3951.43228,0.11883
3953.36075,0.11441
3955.28922,0.11547
3957.21769,0.11689
3959.14616,0.11075
3961.07463,0.10581
3963.00309,0.10978
3964.93156,0.11396
3966.86003,0.11095
3968.78850,0.10776
3970.71697,0.11151
3972.64544,0.11337
3974.57391,0.10726
3976.50238,0.10206
3978.43084,0.10267
3980.35931,0.10549
3982.28778,0.10794
3984.21625,0.10828
3986.14472,0.10633
3988.07319,0.10342
3990.00166,0.09920
3991.93012,0.09730
3993.85859,0.09840
3995.78706,0.09919
3997.71553,0.10387
3999.64400,0.10917
4001.57247,0.10730
4003.50094,0.10498
4005.42941,0.10853
4007.35787,0.10987
4009.28634,0.10294
4011.21481,0.09516
4013.14328,0.09511
4015.07175,0.10017
4017.00022,0.10238
4018.92869,0.10337
4020.85715,0.10636
4022.78562,0.10574
4024.71409,0.10142
4026.64256,0.10022
4028.57103,0.10099
4030.49950,0.09839
4032.42797,0.09704
4034.35644,0.10278
4036.28490,0.10906
4038.21337,0.10781
4040.14184,0.10351
4042.07031,0.10207
4043.99878,0.09959
4045.92725,0.09665
4047.85572,0.09955
4049.78418,0.10465
4051.71265,0.10268
4053.64112,0.09388
4055.56959,0.08910
4057.49806,0.09185
4059.42653,0.09400
4061.35500,0.09403
4063.28346,0.09587
4065.21193,0.09825
4067.14040,0.09724
4069.06887,0.09296
4070.99734,0.09233
4072.92581,0.09490
4074.85428,0.09507
4076.78275,0.09793
4078.71121,0.10326
4080.63968,0.10118
4082.56815,0.09417
4084.49662,0.09152
4086.42509,0.09092
4088.35356,0.08578
4090.28203,0.08019
4092.21049,0.08303
4094.13896,0.08873
4096.06743,0.08493
4097.99590,0.07786
4099.92437,0.07941
4101.85284,0.08696
4103.78131,0.09293
4105.70978,0.09565
4107.63824,0.09525
4109.56671,0.08927
4111.49518,0.08333
4113.42365,0.08639
4115.35212,0.09200
4117.28059,0.08978
4119.20906,0.08601
4121.13752,0.08934
4123.06599,0.09227
4124.99446,0.08889
4126.92293,0.08447
4128.85140,0.08137
4130.77987,0.08026
4132.70834,0.08060
4134.63681,0.07984
4136.56527,0.08157
4138.49374,0.08464
4140.42221,0.08364
4142.35068,0.08254
4144.27915,0.08196
4146.20762,0.07815
4148.13609,0.07498
4150.06455,0.07530
4151.99302,0.07649
4153.92149,0.07817
4155.84996,0.07932
4157.77843,0.07729
4159.70690,0.07441
4161.63537,0.07281
4163.56384,0.07364
4165.49230,0.07825
4167.42077,0.08207
4169.34924,0.08188
4171.27771,0.07982
4173.20618,0.07735
4175.13465,0.07371
4177.06312,0.06892
4178.99158,0.06886
4180.92005,0.07312
4182.84852,0.07287
4184.77699,0.07000
4186.70546,0.07082
4188.63393,0.07400
4190.56240,0.07332
4192.49087,0.06785
4194.41933,0.06686
4196.34780,0.07255
4198.27627,0.07659
4200.20474,0.07633
4202.13321,0.07586
4204.06168,0.07368
4205.99015,0.06747
4207.91861,0.06657
4209.84708,0.07394
4211.77555,0.07523
4213.70402,0.06890
4215.63249,0.06821
4217.56096,0.06883
4219.48943,0.06218
4221.41789,0.05764
4223.34636,0.05975
4225.27483,0.06269
4227.20330,0.06595
4229.13177,0.07037
4231.06024,0.07346
4232.98871,0.07322
4234.91718,0.07078
4236.84564,0.07019
4238.77411,0.07038
4240.70258,0.06584
4242.63105,0.05790
4244.55952,0.05224
4246.48799,0.05422
4248.41646,0.06314
4250.34492,0.07006
4252.27339,0.07037
4254.20186,0.06760
4256.13033,0.06520
4258.05880,0.06439
4259.98727,0.06637
4261.91574,0.06596
4263.84421,0.06118
4265.77267,0.06018
4267.70114,0.06194
4269.62961,0.06103
4271.55808,0.05901
4273.48655,0.05934
4275.41502,0.06100
4277.34349,0.05546
4279.27195,0.04559
4281.20042,0.04554
4283.12889,0.05235
4285.05736,0.05391
4286.98583,0.05097
4288.91430,0.04939
4290.84277,0.05015
4292.77124,0.05075
4294.69970,0.05058
4296.62817,0.05133
4298.55664,0.05148
4300.48511,0.04768
4302.41358,0.04296
4304.34205,0.04406
4306.27052,0.04692
4308.19898,0.04794
4310.12745,0.05347
4312.05592,0.05950
4313.98439,0.05827
4315.91286,0.05321
4317.84133,0.04892
4319.76980,0.04539
4321.69827,0.04162
4323.62673,0.03897
4325.55520,0.03920
4327.48367,0.03993
4329.41214,0.03913
4331.34061,0.04007
4333.26908,0.04369
4335.19755,0.04533
4337.12601,0.04534
4339.05448,0.04682
4340.98295,0.04552
4342.91142,0.03731
4344.83989,0.02860
4346.76836,0.03059
4348.69683,0.03881
4350.62530,0.03876
4352.55376,0.03477
4354.48223,0.03661
4356.41070,0.03858
4358.33917,0.03686
4360.26764,0.03835
4362.19611,0.04546
4364.12458,0.04901
4366.05304,0.04502
4367.98151,0.04284
4369.90998,0.04246
4371.83845,0.03633
4373.76692,0.03344
4375.69539,0.04076
4377.62386,0.04506
4379.55232,0.03910
4381.48079,0.03292
4383.40926,0.03453
4385.33773,0.03543
4387.26620,0.02839
4389.19467,0.02630
4391.12314,0.03332
4393.05161,0.03547
4394.98007,0.03266
4396.90854,0.03454
4398.83701,0.03831
4400.76548,0.03442
4402.69395,0.02541
4404.62242,0.01962
4406.55089,0.01398
4408.47935,0.01007
4410.40782,0.01688
4412.33629,0.03026
4414.26476,0.03765
4416.19323,0.03436
4418.12170,0.03024
4420.05017,0.03280
4421.97864,0.03096
4423.90710,0.02120
4425.83557,0.01754
4427.76404,0.02282
4429.69251,0.02648
4431.62098,0.02438
4433.54945,0.02485
4435.47792,0.02771
4437.40638,0.02326
4439.33485,0.02157
4441.26332,0.02859
4443.19179,0.02821
4445.12026,0.01831
4447.04873,0.01260
4448.97720,0.01487
4450.90567,0.01966
4452.83413,0.02350
4454.76260,0.02282
4456.69107,0.01532
4458.61954,0.00829
4460.54801,0.00898
4462.47648,0.01340
4464.40495,0.01536
4466.33341,0.01352
4468.26188,0.01166
4470.19035,0.01352
4472.11882,0.01525
4474.04729,0.01615
4475.97576,0.02322
4477.90423,0.03164
4479.83270,0.02840
4481.76116,0.02050
4483.68963,0.02072
4485.61810,0.02017
4487.54657,0.01046
4489.47504,0.00256
4491.40351,0.00794
4493.33198,0.01668
4495.26044,0.01422
4497.18891,0.00672
4499.11738,0.00411
4501.04585,0.00868
4502.97432,0.01561
4504.90279,0.01483
4506.83126,0.00925
4508.75973,0.00878
4510.68819,0.00895
4512.61666,0.00623
4514.54513,0.00641
4516.47360,0.00735
4518.40207,0.00793
4520.33054,0.01337
4522.25901,0.01804
4524.18747,0.01482
4526.11594,0.01163
4528.04441,0.01284
4529.97288,0.00963
4531.90135,0.00268
4533.82982,0.00229
4535.75829,0.00878
4537.68676,0.01393
4539.61522,0.01436
4541.54369,0.01497
4543.47216,0.01566
4545.40063,0.00839
4547.32910,-0.00316
4549.25757,-0.00701
4551.18604,-0.00408
4553.11450,0.00009
4555.04297,0.00606
4556.97144,0.01367
4558.89991,0.01818
4560.82838,0.01109
4562.75685,-0.00406
4564.68532,-0.00610
4566.61378,0.00558
4568.54225,0.00983
4570.47072,0.00803
4572.39919,0.01292
4574.32766,0.01734
4576.25613,0.01143
4578.18460,0.00696
4580.11307,0.01229
4582.04153,0.01225
4583.97000,0.00133
4585.89847,-0.00717
4587.82694,-0.00681
4589.75541,-0.00162
4591.68388,0.00529
4593.61235,0.01338
4595.54081,0.01880
4597.46928,0.01780
4599.39775,0.01384
4601.32622,0.00959
4603.25469,0.00288
4605.18316,-0.00356
4607.11163,-0.00397
4609.04010,0.00198
4610.96856,0.00673
4612.89703,0.00792
4614.82550,0.01254
4616.75397,0.01447
4618.68244,0.00616
4620.61091,0.00202
4622.53938,0.00801
4624.46784,0.01018
4626.39631,0.00951
4628.32478,0.01564
4630.25325,0.02209
4632.18172,0.01759
4634.11019,0.00367
4636.03866,-0.00356
4637.96713,0.00223
4639.89559,0.00822
4641.82406,0.00835
4643.75253,0.00908
4645.68100,0.00866
4647.60947,0.00505
4649.53794,0.00253
4651.46641,-0.00059
4653.39487,-0.00328
4655.32334,-0.00409
4657.25181,-0.00171
4659.18028,0.00629
4661.10875,0.01239
4663.03722,0.01441
4664.96569,0.01731
4666.89416,0.01586
4668.82262,0.00516
4670.75109,-0.00805
4672.67956,-0.01445
4674.60803,-0.01047
4676.53650,-0.00141
4678.46497,0.00485
4680.39344,0.01045
4682.32190,0.01663
4684.25037,0.01510
4686.17884,0.00547
4688.10731,0.00340
4690.03578,0.01211
4691.96425,0.01181
4693.89272,0.00368
4695.82119,0.00611
4697.74965,0.01015
4699.67812,-0.00020
4701.60659,-0.01231
4703.53506,-0.00823
4705.46353,0.00364
4707.39200,0.01173
4709.32047,0.02082
4711.24893,0.02523
4713.17740,0.01261
4715.10587,-0.00386
4717.03434,-0.00307
4718.96281,0.00811
4720.89128,0.01313
4722.81975,0.01115
4724.74821,0.00527
4726.67668,-0.00010
4728.60515,-0.00167
4730.53362,-0.00345
4732.46209,-0.00174
4734.39056,0.00162
4736.31903,-0.00932
4738.24750,-0.02294
4740.17596,-0.01729
4742.10443,-0.00742
4744.03290,-0.00828
4745.96137,-0.00958
4747.88984,-0.00588
4749.81831,-0.00294
4751.74678,0.00089
4753.67524,0.01121
4755.60371,0.01889
4757.53218,0.01517
4759.46065,0.01265
4761.38912,0.01740
4763.31759,0.01487
4765.24606,0.00660
4767.17453,0.00732
4769.10299,0.01310
4771.03146,0.01272
4772.95993,0.00246
4774.88840,-0.00759
4776.81687,-0.00400
4778.74534,0.00669
4780.67381,0.00900
4782.60227,0.00685
4784.53074,0.01116
4786.45921,0.01659
4788.38768,0.02285
4790.31615,0.02900
4792.24462,0.02517
4794.17309,0.01491
4796.10156,0.00622
4798.03002,0.00014
4799.95849,-0.00618
4801.88696,-0.01307
4803.81543,-0.01016
4805.74390,0.00074
4807.67237,-0.00289
4809.60084,-0.01560
4811.52930,-0.01123
4813.45777,0.00298
4815.38624,0.00696
4817.31471,0.00690
4819.24318,0.01733
4821.17165,0.02820
4823.10012,0.02325
4825.02859,0.00906
4826.95705,0.00266
4828.88552,0.00965
4830.81399,0.01628
4832.74246,0.00856
4834.67093,-0.00306
4836.59940,-0.00814
4838.52787,-0.01318
4840.45633,-0.01302
4842.38480,-0.00672
4844.31327,-0.00606
4846.24174,-0.00739
4848.17021,-0.00779
4850.09868,-0.00785
4852.02715,-0.00400
4853.95562,0.00139
4855.88408,0.00403
4857.81255,0.00805
4859.74102,0.01255
4861.66949,0.00399
4863.59796,-0.00793
4865.52643,-0.00515
4867.45490,-0.00357
4869.38336,-0.01371
4871.31183,-0.01258
4873.24030,0.00796
4875.16877,0.02287
4877.09724,0.02017
4879.02571,0.01560
4880.95418,0.02230
4882.88265,0.02485
4884.81111,0.00604
4886.73958,-0.00726
4888.66805,0.00814
4890.59652,0.02820
4892.52499,0.03131
4894.45346,0.02301
4896.38193,0.01334
4898.31039,0.00495
4900.23886,-0.00276
4902.16733,-0.00497
4904.09580,-0.00061
4906.02427,0.00011
4907.95274,-0.00513
4909.88121,-0.00324
4911.80967,0.00945
4913.73814,0.02019
4915.66661,0.02257
4917.59508,0.01774
4919.52355,0.00862
4921.45202,0.00759
4923.38049,0.02027
4925.30896,0.02871
4927.23742,0.02021
4929.16589,0.00447
4931.09436,-0.00381
4933.02283,0.00417
4934.95130,0.01611
4936.87977,0.01417
4938.80824,0.00539
4940.73670,0.00281
4942.66517,0.00100
4944.59364,-0.00505
4946.52211,-0.00322
4948.45058,0.01010
4950.37905,0.02076
4952.30752,0.02332
4954.23599,0.02545
4956.16445,0.03198
4958.09292,0.03367
4960.02139,0.02705
4961.94986,0.02702
4963.87833,0.02748
4965.80680,0.01351
4967.73527,0.00037
4969.66373,-0.00004
4971.59220,0.00471
4973.52067,0.00696
4975.44914,0.01080
4977.37761,0.01437
4979.30608,0.00921
4981.23455,0.00453
4983.16302,0.01112
4985.09148,0.02428
4987.01995,0.03048
4988.94842,0.01926
4990.87689,0.00600
4992.80536,0.00952
4994.73383,0.01077
4996.66230,-0.00723
4998.59076,-0.01625
5000.51923,-0.00298
5002.44770,0.00529
5004.37617,-0.00020
5006.30464,-0.00161
5008.23311,0.00213
5010.16158,0.00476
5012.09005,0.01459
5014.01851,0.03307
5015.94698,0.03708
5017.87545,0.01231
5019.80392,-0.01262
5021.73239,-0.01397
5023.66086,-0.01255
5025.58933,-0.01815
5027.51779,-0.00779
5029.44626,0.01375
5031.37473,0.01617
5033.30320,0.00406
5035.23167,0.00404
5037.16014,0.01553
5039.08861,0.02147
5041.01708,0.01916
5042.94554,0.01728
5044.87401,0.01825
5046.80248,0.01695
5048.73095,0.01216
5050.65942,0.01355
5052.58789,0.02315
5054.51636,0.02743
5056.44482,0.02229
5058.37329,0.01567
5060.30176,0.00676
5062.23023,-0.00215
5064.15870,-0.00316
5066.08717,-0.00333
5068.01564,-0.00534
5069.94410,-0.00207
5071.87257,0.00665
5073.80104,0.01429
5075.72951,0.01021
5077.65798,-0.00089
5079.58645,-0.00337
5081.51492,-0.00004
5083.44339,0.00042
5085.37185,0.00158
5087.30032,0.00206
5089.22879,0.00462
5091.15726,0.01305
5093.08573,0.01396
5095.01420,0.01114
5096.94267,0.01335
5098.87113,0.01619
5100.79960,0.02221
5102.72807,0.02754
5104.65654,0.02561
5106.58501,0.02252
5108.51348,0.02936
5110.44195,0.03968
5112.37042,0.03630
5114.29888,0.02828
5116.22735,0.03005
5118.15582,0.02733
5120.08429,0.01646
5122.01276,0.01917
5123.94123,0.03403
5125.86970,0.04010
5127.79816,0.03409
5129.72663,0.03505
5131.65510,0.05479
5133.58357,0.06980
5135.51204,0.05992
5137.44051,0.03829
5139.36898,0.01584
5141.29745,0.00369
5143.22591,0.01910
5145.15438,0.04358
5147.08285,0.04074
5149.01132,0.01775
5150.93979,0.00858
5152.86826,0.01548
5154.79673,0.01860
5156.72519,0.01641
5158.65366,0.01505
5160.58213,0.01222
5162.51060,0.01000
5164.43907,0.01178
5166.36754,0.01221
5168.29601,0.01306
5170.22448,0.01502
5172.15294,0.01687
5174.08141,0.02523
5176.00988,0.02645
5177.93835,0.01448
5179.86682,0.01196
5181.79529,0.02558
5183.72376,0.03890
5185.65222,0.04142
5187.58069,0.03753
5189.50916,0.03321
5191.43763,0.03394
5193.36610,0.04251
5195.29457,0.05518
5197.22304,0.06411
5199.15151,0.06141
5201.07997,0.05563
5203.00844,0.06092
5204.93691,0.06870
5206.86538,0.06098
5208.79385,0.05299
5210.72232,0.05385
5212.65079,0.04306
5214.57925,0.02311
5216.50772,0.01544
5218.43619,0.01852
5220.36466,0.01437
5222.29313,0.00953
5224.22160,0.01697
5226.15007,0.02706
5228.07854,0.02619
5230.00700,0.02431
5231.93547,0.03060
5233.86394,0.03305
5235.79241,0.02737
5237.72088,0.02525
5239.64935,0.03077
5241.57782,0.02777
5243.50628,0.01721
5245.43475,0.02942
5247.36322,0.06220
5249.29169,0.08180
5251.22016,0.07750
5253.14863,0.07294
5255.07710,0.07323
5257.00556,0.05630
5258.93403,0.03473
5260.86250,0.04187
5262.79097,0.06276
5264.71944,0.05395
5266.64791,0.03123
5268.57638,0.02249
5270.50485,0.01424
5272.43331,0.00681
5274.36178,0.02047
5276.29025,0.04975
5278.21872,0.05750
5280.14719,0.03060
5282.07566,0.01134
5284.00413,0.02469
5285.93259,0.04496
5287.86106,0.05999
5289.78953,0.06410
5291.71800,0.04209
5293.64647,0.01990
5295.57494,0.02108
5297.50341,0.04044
5299.43188,0.06025
5301.36034,0.06365
5303.28881,0.05938
5305.21728,0.06024
5307.14575,0.06073
5309.07422,0.05393
5311.00269,0.04859
5312.93116,0.05060
5314.85962,0.05293
5316.78809,0.05038
5318.71656,0.04441
5320.64503,0.04455
5322.57350,0.05347
5324.50197,0.06319
5326.43044,0.07412
5328.35891,0.07908
5330.28737,0.05973
5332.21584,0.03435
5334.14431,0.03737
5336.07278,0.05188
5338.00125,0.04876
5339.92972,0.04336
5341.85819,0.04733
5343.78665,0.04722
5345.71512,0.04858
5347.64359,0.06114
5349.57206,0.07664
5351.50053,0.08730
5353.42900,0.08074
5355.35747,0.06578
5357.28594,0.06025
5359.21440,0.05769
5361.14287,0.07072
5363.07134,0.10361
5364.99981,0.11634
5366.92828,0.09628
5368.85675,0.07584
5370.78522,0.06231
5372.71368,0.04157
5374.64215,0.04026
5376.57062,0.08323
5378.49909,0.11320
5380.42756,0.09751
5382.35603,0.06707
5384.28450,0.05556
5386.21297,0.05767
5388.14143,0.05005
5390.06990,0.05090
5391.99837,0.05871
5393.92684,0.05003
5395.85531,0.03786
5397.78378,0.03856
5399.71225,0.04420
5401.64071,0.04882
5403.56918,0.05426
5405.49765,0.06574
5407.42612,0.07272
5409.35459,0.05658
5411.28306,0.03449
5413.21153,0.03416
5415.13999,0.04898
5417.06846,0.06374
5418.99693,0.07106
5420.92540,0.07246
5422.85387,0.06963
5424.78234,0.06391
5426.71081,0.07526
5428.63928,0.11037
5430.56774,0.12716
5432.49621,0.10777
5434.42468,0.08220
5436.35315,0.05787
5438.28162,0.03343
5440.21009,0.03780
5442.13856,0.07239
5444.06702,0.09375
5445.99549,0.07754
5447.92396,0.04046
5449.85243,0.03158
5451.78090,0.06052
5453.70937,0.08565
5455.63784,0.09183
5457.56631,0.08797
5459.49477,0.07564
5461.42324,0.06618
5463.35171,0.07491
5465.28018,0.09396
5467.20865,0.10042
5469.13712,0.08620
5471.06559,0.08285
5472.99405,0.10440
5474.92252,0.11364
5476.85099,0.10004
5478.77946,0.08774
5480.70793,0.07365
5482.63640,0.05818
5484.56487,0.05503
5486.49334,0.06829
5488.42180,0.08353
5490.35027,0.09413
5492.27874,0.10582
5494.20721,0.09670
5496.13568,0.07536
5498.06415,0.08429
5499.99262,0.11029
5501.92108,0.11322
5503.84955,0.09550
5505.77802,0.07599
5507.70649,0.06732
5509.63496,0.06385
5511.56343,0.06560
5513.49190,0.09217
5515.42037,0.11802
5517.34883,0.09387
5519.27730,0.04182
5521.20577,0.01982
5523.13424,0.03140
5525.06271,0.04585
5526.99118,0.05478
5528.91965,0.06953
5530.84811,0.08274
5532.77658,0.07583
5534.70505,0.06379
5536.63352,0.06948
5538.56199,0.08285
5540.49046,0.08605
5542.41893,0.08444
5544.34740,0.08598
5546.27586,0.08764
5548.20433,0.09766
5550.13280,0.11188
5552.06127,0.10961
5553.98974,0.09080
5555.91821,0.07529
5557.84668,0.08577
5559.77514,0.10819
5561.70361,0.10200
5563.63208,0.08334
5565.56055,0.09741
5567.48902,0.12281
5569.41749,0.11393
5571.34596,0.09186
5573.27443,0.09086
5575.20289,0.08281
5577.13136,0.05487
5579.05983,0.04743
5580.98830,0.06471
5582.91677,0.06053
5584.84524,0.03082
5586.77371,0.02349
5588.70217,0.03870
5590.63064,0.03653
5592.55911,0.02705
5594.48758,0.04740
5596.41605,0.08676
5598.34452,0.09592
5600.27299,0.08365
5602.20145,0.09448
5604.12992,0.11489
5606.05839,0.12208
5607.98686,0.12950
5609.91533,0.13551
5611.84380,0.10540
5613.77227,0.04570
5615.70074,0.00108
5617.62920,-0.01729
5619.55767,-0.01918
5621.48614,-0.00667
5623.41461,0.03241
5625.34308,0.06838
5627.27155,0.05217
5629.20002,0.03411
5631.12848,0.05876
5633.05695,0.07329
5634.98542,0.05749
5636.91389,0.05545
5638.84236,0.07257
5640.77083,0.07412
5642.69930,0.07278
5644.62777,0.09858
5646.55623,0.11345
5648.48470,0.08148
5650.41317,0.05186
5652.34164,0.07195
5654.27011,0.11537
5656.19858,0.12355
5658.12705,0.09809
5660.05551,0.08775
5661.98398,0.09154
5663.91245,0.08278
5665.84092,0.07281
5667.76939,0.07677
5669.69786,0.09246
5671.62633,0.10342
5673.55480,0.09937
5675.48326,0.09593
5677.41173,0.09118
5679.34020,0.07871
5681.26867,0.06789
5683.19714,0.04746
5685.12561,0.03330
5687.05408,0.06052
5688.98254,0.10626
5690.91101,0.11786
5692.83948,0.08877
5694.76795,0.06565
5696.69642,0.09009
5698.62489,0.11936
5700.55336,0.08976
5702.48183,0.04446
5704.41029,0.04583
5706.33876,0.07150
5708.26723,0.09026
5710.19570,0.10970
5712.12417,0.11878
5714.05264,0.10335
5715.98111,0.09226
5717.90957,0.09178
5719.83804,0.08272
5721.76651,0.08006
5723.69498,0.10199
5725.62345,0.11945
5727.55192,0.09546
5729.48039,0.05334
5731.40886,0.04093
5733.33732,0.05914
5735.26579,0.06485
5737.19426,0.04406
5739.12273,0.04044
5741.05120,0.05498
5742.97967,0.06611
5744.90814,0.07740
5746.83660,0.08476
5748.76507,0.08131
5750.69354,0.06597
5752.62201,0.04902
5754.55048,0.04232
5756.47895,0.03190
5758.40742,0.01702
5760.33588,0.03325
5762.26435,0.07605
5764.19282,0.09058
5766.12129,0.06815
5768.04976,0.04858
5769.97823,0.05405
5771.90670,0.06510
5773.83517,0.05272
5775.76363,0.02251
5777.69210,0.00481
5779.62057,0.00877
5781.54904,0.01667
5783.47751,0.04119
5785.40598,0.08670
5787.33445,0.11965
5789.26291,0.13259
5791.19138,0.12170
5793.11985,0.09406
5795.04832,0.08923
5796.97679,0.11641
5798.90526,0.14145
5800.83373,0.12731
5802.76220,0.08655
5804.69066,0.07457
5806.61913,0.09856
5808.54760,0.11312
5810.47607,0.09721
5812.40454,0.07225
5814.33301,0.05663
5816.26148,0.04713
5818.18994,0.06275
5820.11841,0.09870
5822.04688,0.09688
5823.97535,0.05653
5825.90382,0.02880
5827.83229,0.03381
5829.76076,0.04979
5831.68923,0.04434
5833.61769,0.05042
5835.54616,0.10003
5837.47463,0.13379
5839.40310,0.12239
5841.33157,0.11266
5843.26004,0.11935
5845.18851,0.10766
5847.11697,0.08249
5849.04544,0.06757
5850.97391,0.03961
5852.90238,0.01313
5854.83085,0.03324
5856.75932,0.07046
5858.68779,0.06913
5860.61626,0.04236
5862.54472,0.04279
5864.47319,0.06217
5866.40166,0.05463
5868.33013,0.04937
5870.25860,0.09139
5872.18707,0.12636
5874.11554,0.09954
5876.04400,0.06291
5877.97247,0.06112
5879.90094,0.05809
5881.82941,0.05461
5883.75788,0.08069
5885.68635,0.12083
5887.61482,0.13188
5889.54329,0.10648
5891.47175,0.09414
5893.40022,0.10654
5895.32869,0.10465
5897.25716,0.08083
5899.18563,0.05578
5901.11410,0.03511
5903.04257,0.02434
5904.97103,0.04170
5906.89950,0.07530
5908.82797,0.08503
5910.75644,0.06066
5912.68491,0.06234
5914.61338,0.11357
5916.54185,0.13011
5918.47032,0.10376
5920.39878,0.10271
5922.32725,0.10849
5924.25572,0.09062
5926.18419,0.07037
5928.11266,0.06652
5930.04113,0.07306
5931.96960,0.07919
5933.89806,0.10348
5935.82653,0.13959
5937.75500,0.12624
5939.68347,0.07576
5941.61194,0.05574
5943.54041,0.06867
5945.46888,0.06911
5947.39734,0.04250
5949.32581,0.01957
5951.25428,0.00824
5953.18275,-0.00187
5955.11122,0.02939
5957.03969,0.10175
5958.96816,0.12847
5960.89663,0.09315
5962.82509,0.08966
5964.75356,0.12782
5966.68203,0.15424
5968.61050,0.13250
5970.53897,0.08045
5972.46744,0.07117
5974.39591,0.06609
5976.32437,0.01179
5978.25284,-0.01295
5980.18131,-0.00028
5982.10978,-0.00371
5984.03825,0.00789
5985.96672,0.06029
5987.89519,0.11122
5989.82366,0.13601
5991.75212,0.13162
5993.68059,0.10524
5995.60906,0.08011
5997.53753,0.06336
5999.46600,0.06215
6001.39447,0.07977
6003.32294,0.08984
6005.25140,0.07640
6007.17987,0.06232
6009.10834,0.06222
6011.03681,0.04787
6012.96528,0.01737
6014.89375,0.02404
6016.82222,0.07490
6018.75069,0.11400
6020.67915,0.10875
6022.60762,0.08816
6024.53609,0.08407
6026.46456,0.07708
6028.39303,0.07483
6030.32150,0.11265
6032.24997,0.14169
6034.17843,0.11850
6036.10690,0.08839
6038.03537,0.08486
6039.96384,0.08661
6041.89231,0.08493
6043.82078,0.08652
6045.74925,0.09844
6047.67772,0.12685
6049.60618,0.15256
6051.53465,0.15013
6053.46312,0.12082
6055.39159,0.09126
6057.32006,0.09574
6059.24853,0.11647
6061.17700,0.11143
6063.10546,0.09609
6065.03393,0.11159
6066.96240,0.13125
6068.89087,0.11406
6070.81934,0.09020
6072.74781,0.09370
6074.67628,0.09836
6076.60475,0.08661
6078.53321,0.07322
6080.46168,0.07485
6082.39015,0.08401
6084.31862,0.06257
6086.24709,0.04476
6088.17556,0.09145
6090.10403,0.13595
6092.03249,0.13544
6093.96096,0.13300
6095.88943,0.12500
6097.81790,0.08454
6099.74637,0.02754
6101.67484,0.01477
6103.60331,0.05627
6105.53177,0.08897
6107.46024,0.12247
6109.38871,0.17053
6111.31718,0.16656
6113.24565,0.12138
6115.17412,0.09247
6117.10259,0.08430
6119.03106,0.08910
6120.95952,0.09583
6122.88799,0.08382
6124.81646,0.06732
6126.74493,0.06457
6128.67340,0.05093
6130.60187,0.03629
6132.53034,0.05038
6134.45880,0.07665
6136.38727,0.09858
6138.31574,0.11681
6140.24421,0.12439
6142.17268,0.09467
6144.10115,0.04344
6146.02962,0.02995
6147.95809,0.03776
6149.88655,0.03123
6151.81502,0.05550
6153.74349,0.10643
6155.67196,0.09330
6157.60043,0.04204
6159.52890,0.04118
6161.45737,0.07926
6163.38583,0.10511
6165.31430,0.10807
6167.24277,0.09274
6169.17124,0.09211
6171.09971,0.11508
6173.02818,0.10980
6174.95665,0.09101
6176.88512,0.09175
6178.81358,0.07273
6180.74205,0.05031
6182.67052,0.06458
6184.59899,0.08989
6186.52746,0.10732
6188.45593,0.10842
6190.38440,0.08678
6192.31286,0.06960
6194.24133,0.08298
6196.16980,0.10857
6198.09827,0.10765
6200.02674,0.08500
6201.95521,0.08082
6203.88368,0.10809
6205.81215,0.10270
6207.74061,0.02456
6209.66908,-0.04131
6211.59755,-0.00391
6213.52602,0.06404
6215.45449,0.06360
6217.38296,0.03442
6219.31143,0.04026
6221.23989,0.05039
6223.16836,0.06064
6225.09683,0.12029
6227.02530,0.18946
6228.95377,0.18311
6230.88224,0.12936
6232.81071,0.09803
6234.73918,0.09120
6236.66764,0.08217
6238.59611,0.06623
6240.52458,0.07124
6242.45305,0.08317
6244.38152,0.05792
6246.30999,0.03269
6248.23846,0.04874
6250.16692,0.07662
6252.09539,0.06826
6254.02386,0.04796
6255.95233,0.07114
6257.88080,0.09299
6259.80927,0.08596
6261.73774,0.10993
6263.66621,0.14422
6265.59467,0.13360
6267.52314,0.10536
6269.45161,0.10842
6271.38008,0.13535
6273.30855,0.13481
6275.23702,0.11975
6277.16549,0.13380
6279.09395,0.13980
6281.02242,0.11240
6282.95089,0.08089
6284.87936,0.09464
6286.80783,0.13387
6288.73630,0.12316
6290.66477,0.07815
6292.59323,0.06497
6294.52170,0.06830
6296.45017,0.08578
6298.37864,0.12948
6300.30711,0.14502
6302.23558,0.10702
6304.16405,0.06383
6306.09252,0.05736
6308.02098,0.09552
6309.94945,0.13083
6311.87792,0.12001
6313.80639,0.08388
6315.73486,0.03311
6317.66333,-0.00983
6319.59180,0.01706
6321.52026,0.08041
6323.44873,0.06955
6325.37720,0.01000
6327.30567,0.01618
6329.23414,0.07561
6331.16261,0.08860
6333.09108,0.05713
6335.01955,0.04548
6336.94801,0.05962
6338.87648,0.05408
6340.80495,0.03383
6342.73342,0.04639
6344.66189,0.07093
6346.59036,0.06260
6348.51883,0.03593
6350.44729,0.01458
6352.37576,0.01214
6354.30423,0.03115
6356.23270,0.05855
6358.16117,0.08890
6360.08964,0.08303
6362.01811,0.00675
6363.94658,-0.07424
6365.87504,-0.06158
6367.80351,0.02792
6369.73198,0.10502
6371.66045,0.15291
6373.58892,0.16695
6375.51739,0.15490
6377.44586,0.15622
6379.37432,0.16006
6381.30279,0.12984
6383.23126,0.09210
6385.15973,0.09919
6387.08820,0.10591
6389.01667,0.09633
6390.94514,0.10846
6392.87361,0.10345
6394.80207,0.04918
6396.73054,-0.00782
6398.65901,-0.02862
6400.58748,0.02884
6402.51595,0.10588
6404.44442,0.07468
6406.37289,0.00171
6408.30135,0.02314
6410.22982,0.07563
6412.15829,0.07447
6414.08676,0.05258
6416.01523,0.04997
6417.94370,0.07109
6419.87217,0.11499
6421.80064,0.16463
6423.72910,0.14807
6425.65757,0.06096
6427.58604,0.03722
6429.51451,0.10974
6431.44298,0.15992
6433.37145,0.14851
6435.29992,0.14694
6437.22838,0.15735
6439.15685,0.13421
6441.08532,0.08703
6443.01379,0.05607
6444.94226,0.05700
6446.87073,0.04605
6448.79920,0.01771
6450.72766,0.01710
6452.65613,0.02159
6454.58460,-0.00466
6456.51307,-0.00212
6458.44154,0.04432
6460.37001,0.05395
6462.29848,0.04654
6464.22695,0.06757
6466.15541,0.07955
6468.08388,0.07584
6470.01235,0.05961
6471.94082,0.02880
6473.86929,0.03144
6475.79776,0.05698
6477.72623,0.03485
6479.65469,0.01419
6481.58316,0.05782
6483.51163,0.06411
6485.44010,0.01054
6487.36857,0.01660
6489.29704,0.08900
6491.22551,0.12987
6493.15398,0.12474
6495.08244,0.10513
6497.01091,0.08001
6498.93938,0.09247
6500.86785,0.16285
6502.79632,0.21730
6504.72479,0.18973
6506.65326,0.12469
6508.58172,0.10528
6510.51019,0.12896
6512.43866,0.12199
6514.36713,0.09944
6516.29560,0.14084
6518.22407,0.18902
6520.15254,0.14072
6522.08101,0.06448
6524.00947,0.05454
6525.93794,0.05071
6527.86641,0.00193
6529.79488,-0.00092
6531.72335,0.06509
6533.65182,0.08664
6535.58029,0.03674
6537.50875,0.00199
6539.43722,-0.01663
6541.36569,-0.04090
6543.29416,-0.00643
6545.22263,0.06755
6547.15110,0.08364
6549.07957,0.04450
6551.00804,0.01323
6552.93650,0.01499
6554.86497,0.03220
6556.79344,0.05257
6558.72191,0.08280
6560.65038,0.10566
6562.57885,0.06952
6564.50732,0.01667
6566.43578,0.04718
6568.36425,0.11054
6570.29272,0.13108
6572.22119,0.12540
6574.14966,0.10211
6576.07813,0.08687
6578.00660,0.11036
6579.93507,0.15109
6581.86353,0.18005
6583.79200,0.12904
6585.72047,0.00887
6587.64894,-0.03561
6589.57741,0.01109
6591.50588,0.05484
6593.43435,0.07356
6595.36281,0.08880
6597.29128,0.11608
6599.21975,0.13662
6601.14822,0.12824
6603.07669,0.12060
6605.00516,0.12529
6606.93363,0.13069
6608.86210,0.13772
6610.79056,0.13390
6612.71903,0.10813
6614.64750,0.06719
6616.57597,0.02893
6618.50444,0.03485
6620.43291,0.07285
6622.36138,0.07990
6624.28984,0.06319
6626.21831,0.06729
6628.14678,0.05843
6630.07525,0.01397
6632.00372,0.04139
6633.93219,0.13251
6635.86066,0.11277
6637.78912,0.03984
6639.71759,0.06262
6641.64606,0.08783
6643.57453,0.06989
6645.50300,0.05533
6647.43147,0.00867
6649.35994,-0.07007
6651.28841,-0.05753
6653.21687,0.03928
6655.14534,0.08530
6657.07381,0.06482
6659.00228,0.02445
6660.93075,-0.01854
6662.85922,-0.04961
6664.78769,-0.06566
6666.71615,-0.03037
6668.64462,0.05200
6670.57309,0.07424
6672.50156,0.01494
6674.43003,0.00143
6676.35850,0.06186
6678.28697,0.11511
6680.21544,0.10258
6682.14390,0.05923
6684.07237,0.06030
6686.00084,0.08493
6687.92931,0.05067
6689.85778,-0.00439
6691.78625,0.02329
6693.71472,0.06513
6695.64318,0.04296
6697.57165,0.02373
6699.50012,0.06140
6701.42859,0.02671
6703.35706,-0.08787
6705.28553,-0.08799
6707.21400,-0.01052
6709.14247,-0.03436
6711.07093,-0.07707
6712.99940,-0.03258
6714.92787,0.02938
6716.85634,0.04560
6718.78481,0.05341
6720.71328,0.08309
6722.64175,0.07410
6724.57021,-0.01978
6726.49868,-0.07403
6728.42715,-0.03538
6730.35562,-0.02053
6732.28409,-0.03773
6734.21256,-0.00418
6736.14103,0.04988
6738.06950,0.04092
6739.99796,-0.02374
6741.92643,-0.02467
6743.85490,0.02227
6745.78337,0.00724
6747.71184,0.04265
6749.64031,0.22583
6751.56878,0.37697
6753.49724,0.33083
6755.42571,0.18180
6757.35418,0.09170
6759.28265,0.03705
6761.21112,-0.00927
6763.13959,0.04449
6765.06806,0.14935
6766.99653,0.15728
6768.92499,0.07286
6770.85346,0.00760
6772.78193,0.00392
6774.71040,0.04970
6776.63887,0.13405
6778.56734,0.18168
6780.49581,0.13229
6782.42427,0.03502
6784.35274,-0.02424
6786.28121,-0.00411
6788.20968,0.02778
6790.13815,0.01418
6792.06662,0.03389
6793.99509,0.06613
6795.92355,0.05055
6797.85202,0.03291
6799.78049,0.00870
6801.70896,-0.03015
6803.63743,-0.03428
6805.56590,0.00644
6807.49437,0.02983
6809.42284,-0.00851
6811.35130,-0.04120
6813.27977,0.03023
6815.20824,0.09704
6817.13671,0.03658
6819.06518,-0.03945
6820.99365,-0.02304
6822.92212,0.03837
6824.85058,0.00426
6826.77905,-0.08559
6828.70752,-0.08088
6830.63599,-0.00090
6832.56446,0.05077
6834.49293,0.07445
6836.42140,0.04548
6838.34987,-0.04561
6840.27833,-0.12722
6842.20680,-0.11554
6844.13527,-0.00843
6846.06374,0.06391
6847.99221,0.04707
6849.92068,0.05334
6851.84915,0.13914
6853.77761,0.22411
6855.70608,0.22796
6857.63455,0.15701
6859.56302,0.06541
6861.49149,0.01069
6863.41996,0.04828
6865.34843,0.13962
6867.27690,0.16286
6869.20536,0.07072
6871.13383,0.01155
6873.06230,0.05159
6874.99077,0.08524
6876.91924,0.10768
6878.84771,0.14769
6880.77618,0.16565
6882.70464,0.13419
6884.63311,0.07616
6886.56158,0.08080
6888.49005,0.18203
6890.41852,0.24579
6892.34699,0.20827
6894.27546,0.19175
6896.20393,0.22344
6898.13239,0.19412
6900.06086,0.10766
6901.98933,0.07500
6903.91780,0.08280
6905.84627,0.05446
6907.77474,0.02119
6909.70321,0.01555
6911.63167,0.02646
6913.56014,0.07565
6915.48861,0.14273
6917.41708,0.13732
6919.34555,0.07511
6921.27402,0.10352
6923.20249,0.17799
6925.13096,0.15518
6927.05942,0.03638
6928.98789,-0.03149
6930.91636,0.03997
6932.84483,0.11204
6934.77330,0.12826
6936.70177,0.14072
6938.63024,0.07976
6940.55870,-0.08281
6942.48717,-0.16304
6944.41564,-0.08700
6946.34411,0.01193
6948.27258,-0.02040
6950.20105,-0.08309
6952.12952,0.02413
6954.05799,0.16264
6955.98645,0.12092
6957.91492,0.09721
6959.84339,0.20605
6961.77186,0.22031
6963.70033,0.05255
6965.62880,-0.09087
6967.55727,-0.07144
6969.48573,-0.01897
6971.41420,-0.08596
6973.34267,-0.10432
6975.27114,0.02283
6977.19961,0.06631
6979.12808,0.04290
6981.05655,0.06550
6982.98501,0.06593
6984.91348,0.04107
6986.84195,0.03585
6988.77042,0.01468
6990.69889,-0.00991
6992.62736,-0.00288
6994.55583,0.01764
6996.48430,0.01648
6998.41276,-0.00230
7000.34123,0.00423
7002.26970,0.05126
7004.19817,0.12627
7006.12664,0.19561
7008.05511,0.21615
7009.98358,0.16435
7011.91204,0.06245
7013.84051,-0.02072
7015.76898,0.01030
7017.69745,0.10952
7019.62592,0.11559
7021.55439,0.03329
7023.48286,-0.01261
7025.41133,-0.03558
7027.33979,-0.11026
7029.26826,-0.18435
7031.19673,-0.11067
7033.12520,0.03648
7035.05367,0.05933
7036.98214,-0.00226
7038.91061,0.07430
7040.83907,0.27017
7042.76754,0.33285
7044.69601,0.19645
7046.62448,0.10947
7048.55295,0.08084
7050.48142,0.00875
7052.40989,-0.00979
7054.33836,0.08600
7056.26682,0.17819
7058.19529,0.19287
7060.12376,0.13006
7062.05223,0.05065
7063.98070,-0.05017
7065.90917,-0.18141
7067.83764,-0.19983
7069.76610,-0.11843
7071.69457,-0.09946
7073.62304,-0.05472
7075.55151,0.06821
7077.47998,0.10744
7079.40845,0.04154
7081.33692,0.06065
7083.26539,0.17217
7085.19385,0.21902
7087.12232,0.22805
7089.05079,0.24112
7090.97926,0.20605
7092.90773,0.07004
7094.83620,-0.07271
7096.76467,-0.06822
7098.69313,0.04939
7100.62160,0.07470
7102.55007,0.01183
7104.47854,0.00657
7106.40701,0.08211
7108.33548,0.14948
7110.26395,0.17915
7112.19242,0.16257
7114.12088,0.08182
7116.04935,0.00396
7117.97782,0.06789
7119.90629,0.16882
7121.83476,0.06894
7123.76323,-0.10166
7125.69170,-0.11324
7127.62016,0.00436
7129.54863,0.09548
7131.47710,0.12801
7133.40557,0.15146
7135.33404,0.17855
7137.26251,0.15665
7139.19098,0.07631
7141.11944,0.01411
7143.04791,0.00260
7144.97638,0.00256
7146.90485,-0.01493
7148.83332,0.00494
7150.76179,0.08560
7152.69026,0.11701
7154.61873,0.04801
7156.54719,-0.00557
7158.47566,-0.01843
7160.40413,0.00394
7162.33260,0.09038
7164.26107,0.14156
7166.18954,0.07741
7168.11801,0.05727
7170.04647,0.15676
7171.97494,0.15747
7173.90341,0.01395
7175.83188,-0.07362
7177.76035,-0.04424
7179.68882,0.00486
7181.61729,0.12205
7183.54576,0.34304
7185.47422,0.40707
7187.40269,0.27785
7189.33116,0.17570
7191.25963,0.15058
7193.18810,0.09948
7195.11657,0.03020
7197.04504,0.00766
7198.97350,0.05796
7200.90197,0.12614
7202.83044,0.19540
7204.75891,0.22067
7206.68738,0.07689
7208.61585,-0.04087
7210.54432,-0.00795
7212.47279,0.06671
7214.40125,0.06475
7216.32972,0.00594
7218.25819,0.04897
7220.18666,0.14289
7222.11513,0.14669
7224.04360,0.04993
7225.97207,-0.11141
7227.90053,-0.20904
7229.82900,-0.23591
7231.75747,-0.23386
7233.68594,-0.13260
7235.61441,0.05367
7237.54288,0.16946
7239.47135,0.15330
7241.39982,0.06464
7243.32828,-0.07698
7245.25675,-0.08267
7247.18522,0.07633
7249.11369,0.22507
7251.04216,0.21560
7252.97063,0.06932
7254.89910,-0.00489
7256.82756,0.01117
7258.75603,0.04701
7260.68450,0.04180
7262.61297,0.03121
7264.54144,0.15010
7266.46991,0.22659
7268.39838,0.13156
7270.32685,0.02332
7272.25531,0.05661
7274.18378,0.15014
7276.11225,0.22446
7278.04072,0.24119
7279.96919,0.12068
7281.89766,0.03994
7283.82613,0.04978
7285.75459,-0.01077
7287.68306,-0.07370
7289.61153,0.01250
7291.54000,0.21876
7293.46847,0.28318
7295.39694,0.13021
7297.32541,-0.01258
7299.25387,-0.06183
7301.18234,-0.08874
7303.11081,-0.08078
7305.03928,-0.03277
7306.96775,-0.00369
7308.89622,-0.04320
7310.82469,-0.08990
7312.75316,-0.05957
7314.68162,-0.01879
7316.61009,-0.10981
7318.53856,-0.26341
7320.46703,-0.24505
7322.39550,-0.03586
7324.32397,0.17390
7326.25244,0.20128
7328.18090,0.07734
7330.10937,0.06966
7332.03784,0.25960
7333.96631,0.31101
7335.89478,0.20320
7337.82325,0.12716
7339.75172,0.06073
7341.68019,-0.03892
7343.60865,0.01319
7345.53712,0.16724
7347.46559,0.20892
7349.39406,0.20310
7351.32253,0.25750
7353.25100,0.21653
7355.17947,0.07478
7357.10793,0.05205
7359.03640,0.14938
7360.96487,0.13313
7362.89334,0.10068
7364.82181,0.11579
7366.75028,0.05436
7368.67875,-0.02107
7370.60722,0.04148
7372.53568,0.10004
7374.46415,-0.08942
7376.39262,-0.25569
7378.32109,-0.02856
7380.24956,0.22197
7382.17803,0.21539
7384.10650,0.07284
7386.03496,0.02591
7387.96343,0.03829
7389.89190,-0.00452
7391.82037,-0.04444
7393.74884,-0.02056
7395.67731,-0.01768
7397.60578,-0.12259
7399.53425,-0.17668
7401.46271,-0.07549
7403.39118,0.05166
7405.31965,0.12704
7407.24812,0.22260
7409.17659,0.29258
7411.10506,0.23034
7413.03353,0.13029
7414.96199,0.08672
7416.89046,0.02685
7418.81893,-0.06756
7420.74740,-0.09947
7422.67587,-0.06527
7424.60434,-0.03254
7426.53281,-0.01229
7428.46128,0.05966
7430.38974,0.18334
7432.31821,0.26276
7434.24668,0.26628
7436.17515,0.19712
7438.10362,0.06520
7440.03209,-0.09210
7441.96056,-0.12954
7443.88902,0.00066
7445.81749,0.11969
7447.74596,0.12803
7449.67443,0.07937
7451.60290,-0.00458
7453.53137,-0.10486
7455.45984,-0.12242
7457.38831,-0.04593
7459.31677,0.09916
7461.24524,0.20238
7463.17371,0.14938
7465.10218,0.08592
7467.03065,0.14646
7468.95912,0.21434
7470.88759,0.18662
7472.81605,0.11429
7474.74452,0.09723
7476.67299,0.20584
7478.60146,0.38948
7480.52993,0.40928
7482.45840,0.22844
7484.38687,0.17086
7486.31533,0.25434
7488.24380,0.27938
7490.17227,0.25803
7492.10074,0.18530
7494.02921,0.02121
7495.95768,-0.10719
7497.88615,-0.13624
