399.19301,1.42703
401.12148,-0.28717
403.04995,-0.18744
404.97842,0.10141
406.90689,0.24772
408.83536,0.28789
410.76382,0.15421
412.69229,0.01706
414.62076,0.04350
416.54923,0.13923
418.47770,0.09542
420.40617,-0.11218
422.33464,-0.11344
424.26311,0.01234
426.19157,0.06105
428.12004,0.10390
430.04851,0.20645
431.97698,0.22162
433.90545,0.15913
435.83392,0.13420
437.76239,0.14669
439.69085,0.21949
441.61932,0.31923
443.54779,0.32121
445.47626,0.21931
447.40473,0.09973
449.33320,0.03093
451.26167,0.07887
453.19013,0.17636
455.11860,0.22260
457.04707,0.24686
458.97554,0.25248
460.90401,0.22221
462.83248,0.17157
464.76095,0.11410
466.68942,0.11422
468.61788,0.15064
470.54635,0.15789
472.47482,0.17140
474.40329,0.20972
476.33176,0.17276
478.26023,0.12601
480.18870,0.11701
482.11716,0.11400
484.04563,0.09476
485.97410,0.06993
487.90257,0.04172
489.83104,0.01704
491.75951,0.02553
493.68798,0.06685
495.61645,0.08326
497.54491,0.06178
499.47338,0.05801
501.40185,0.07153
503.33032,0.05768
505.25879,0.04984
507.18726,0.10347
509.11573,0.15854
511.04419,0.17724
512.97266,0.20481
514.90113,0.21076
516.82960,0.15478
518.75807,0.09752
520.68654,0.07319
522.61501,0.05322
524.54348,0.04673
526.47194,0.04446
528.40041,0.02491
530.32888,0.02231
532.25735,0.04137
534.18582,0.07379
536.11429,0.12453
538.04276,0.15318
539.97122,0.12424
541.89969,0.07398
543.82816,0.06973
545.75663,0.11210
547.68510,0.15739
549.61357,0.20172
551.54204,0.29561
553.47051,0.40296
555.39897,0.36907
557.32744,0.21353
559.25591,0.11812
561.18438,0.10779
563.11285,0.12250
565.04132,0.13817
566.96979,0.12279
568.89825,0.08899
570.82672,0.09336
572.75519,0.12929
574.68366,0.14641
576.61213,0.13244
578.54060,0.10230
580.46907,0.06657
582.39754,0.06018
584.32600,0.08491
586.25447,0.09002
588.18294,0.07444
590.11141,0.07779
592.03988,0.10669
593.96835,0.13751
595.89682,0.14907
597.82528,0.13811
599.75375,0.11657
601.68222,0.11236
603.61069,0.13242
605.53916,0.13890
607.46763,0.11644
609.39610,0.09375
611.32456,0.09217
613.25303,0.10472
615.18150,0.11148
617.10997,0.10964
619.03844,0.10576
620.96691,0.08845
622.89538,0.06126
624.82385,0.05281
626.75231,0.06952
628.68078,0.08945
630.60925,0.09974
632.53772,0.11177
634.46619,0.13074
636.39466,0.14085
638.32313,0.13252
640.25159,0.11080
642.18006,0.09414
644.10853,0.09798
646.03700,0.11225
647.96547,0.12592
649.89394,0.14229
651.82241,0.16060
653.75088,0.16241
655.67934,0.13921
657.60781,0.12402
659.53628,0.12775
661.46475,0.12879
663.39322,0.13200
665.32169,0.14411
667.25016,0.15640
669.17862,0.14800
671.10709,0.13359
673.03556,0.13558
674.96403,0.14373
676.89250,0.14452
678.82097,0.13584
680.74944,0.12161
682.67791,0.10761
684.60637,0.10298
686.53484,0.11131
688.46331,0.11854
690.39178,0.11140
692.32025,0.10517
694.24872,0.11586
696.17719,0.12742
698.10565,0.12531
700.03412,0.11870
701.96259,0.11292
703.89106,0.11483
705.81953,0.13345
707.74800,0.15507
709.67647,0.15734
711.60494,0.13452
713.53340,0.10602
715.46187,0.09597
717.39034,0.10238
719.31881,0.11164
721.24728,0.11715
723.17575,0.11720
725.10422,0.11798
727.03268,0.12943
728.96115,0.14274
730.88962,0.14245
732.81809,0.12998
734.74656,0.11372
736.67503,0.10713
738.60350,0.11436
740.53197,0.11690
742.46043,0.10575
744.38890,0.09449
746.31737,0.09304
748.24584,0.09798
750.17431,0.10253
752.10278,0.10758
754.03125,0.11790
755.95971,0.12973
757.88818,0.13676
759.81665,0.13804
761.74512,0.13090
763.67359,0.11508
765.60206,0.10501
767.53053,0.10914
769.45900,0.11542
771.38746,0.11203
773.31593,0.10656
775.24440,0.11634
777.17287,0.13254
779.10134,0.13873
781.02981,0.14172
782.95828,0.14189
784.88674,0.13207
786.81521,0.11409
788.74368,0.09698
790.67215,0.09264
792.60062,0.09757
794.52909,0.10356
796.45756,0.11885
798.38602,0.13346
800.31449,0.12984
802.24296,0.12001
804.17143,0.11130
806.09990,0.10789
808.02837,0.11257
809.95684,0.11167
811.88531,0.11240
813.81377,0.12748
815.74224,0.13627
817.67071,0.12317
819.59918,0.10763
821.52765,0.10333
823.45612,0.10704
825.38459,0.11638
827.31305,0.12359
829.24152,0.12539
831.16999,0.12601
833.09846,0.12558
835.02693,0.12513
836.95540,0.12831
838.88387,0.12844
840.81234,0.12323
842.74080,0.12414
844.66927,0.12634
846.59774,0.12317
848.52621,0.12252
850.45468,0.12585
852.38315,0.13119
854.31162,0.13628
856.24008,0.14224
858.16855,0.15034
860.09702,0.15207
862.02549,0.14260
863.95396,0.13028
865.88243,0.12432
867.81090,0.12285
869.73937,0.12514
871.66783,0.13253
873.59630,0.13503
875.52477,0.12844
877.45324,0.12278
879.38171,0.12436
881.31018,0.13139
883.23865,0.13993
885.16711,0.14138
887.09558,0.13243
889.02405,0.12780
890.95252,0.13152
892.88099,0.13241
894.80946,0.13115
896.73793,0.13350
898.66640,0.13614
900.59486,0.13106
902.52333,0.12498
904.45180,0.12558
906.38027,0.12343
908.30874,0.12165
910.23721,0.12715
912.16568,0.13144
914.09414,0.13392
916.02261,0.14106
917.95108,0.14771
919.87955,0.14694
921.80802,0.14274
923.73649,0.14142
925.66496,0.14188
927.59343,0.14034
929.52189,0.13813
931.45036,0.13821
933.37883,0.14140
935.30730,0.14367
937.23577,0.14069
939.16424,0.13710
941.09271,0.13531
943.02117,0.13186
944.94964,0.12887
946.87811,0.13014
948.80658,0.13169
950.73505,0.12805
952.66352,0.12337
954.59199,0.12760
956.52045,0.14042
958.44892,0.14722
960.37739,0.14192
962.30586,0.13328
964.23433,0.12771
966.16280,0.12833
968.09127,0.13457
970.01974,0.14105
971.94820,0.14712
973.87667,0.15196
975.80514,0.14915
977.73361,0.14216
979.66208,0.14282
981.59055,0.14741
983.51902,0.14465
985.44748,0.14171
987.37595,0.14615
989.30442,0.14949
991.23289,0.14948
993.16136,0.15131
995.08983,0.15137
997.01830,0.14817
998.94677,0.14735
1000.87523,0.14734
1002.80370,0.14385
1004.73217,0.14102
1006.66064,0.14633
1008.58911,0.15759
1010.51758,0.16149
1012.44605,0.15737
1014.37451,0.15769
1016.30298,0.15811
1018.23145,0.14782
1020.15992,0.13641
1022.08839,0.13889
1024.01686,0.14923
1025.94533,0.14962
1027.87380,0.13955
1029.80226,0.13333
1031.73073,0.13611
1033.65920,0.14100
1035.58767,0.14242
1037.51614,0.14331
1039.44461,0.14613
1041.37308,0.14707
1043.30154,0.14621
1045.23001,0.14251
1047.15848,0.13704
1049.08695,0.13906
1051.01542,0.14347
1052.94389,0.14099
1054.87236,0.14119
1056.80083,0.14697
1058.72929,0.14603
1060.65776,0.13995
1062.58623,0.14212
1064.51470,0.15165
1066.44317,0.15945
1068.37164,0.16225
1070.30011,0.15765
1072.22857,0.15251
1074.15704,0.15671
1076.08551,0.16393
1078.01398,0.16583
1079.94245,0.16377
1081.87092,0.15829
1083.79939,0.14704
1085.72786,0.13621
1087.65632,0.13519
1089.58479,0.14179
1091.51326,0.14478
1093.44173,0.13950
1095.37020,0.13856
1097.29867,0.14612
1099.22714,0.14863
1101.15560,0.14693
1103.08407,0.14960
1105.01254,0.15329
1106.94101,0.15531
1108.86948,0.15834
1110.79795,0.15955
1112.72642,0.16061
1114.65489,0.16724
1116.58335,0.16773
1118.51182,0.15421
1120.44029,0.14261
1122.36876,0.14629
1124.29723,0.15580
1126.22570,0.15683
1128.15417,0.15274
1130.08263,0.14914
1132.01110,0.14566
1133.93957,0.14585
1135.86804,0.14951
1137.79651,0.15137
1139.72498,0.15154
1141.65345,0.15358
1143.58191,0.15437
1145.51038,0.15150
1147.43885,0.15120
1149.36732,0.15434
1151.29579,0.15653
1153.22426,0.15613
1155.15273,0.15419
1157.08120,0.15715
1159.00966,0.16278
1160.93813,0.16348
1162.86660,0.16441
1164.79507,0.16591
1166.72354,0.16209
1168.65201,0.15799
1170.58048,0.15884
1172.50894,0.16066
1174.43741,0.15894
1176.36588,0.15504
1178.29435,0.15072
1180.22282,0.14878
1182.15129,0.15469
1184.07976,0.16414
1186.00823,0.16797
1187.93669,0.16536
1189.86516,0.16186
1191.79363,0.16312
1193.72210,0.16505
1195.65057,0.16194
1197.57904,0.15846
1199.50751,0.15884
1201.43597,0.16224
1203.36444,0.16427
1205.29291,0.16173
1207.22138,0.15971
1209.14985,0.16201
1211.07832,0.16457
1213.00679,0.16501
1214.93526,0.16586
1216.86372,0.16630
1218.79219,0.16438
1220.72066,0.16389
1222.64913,0.16502
1224.57760,0.16315
1226.50607,0.16253
1228.43454,0.16680
1230.36300,0.16865
1232.29147,0.16637
1234.21994,0.16389
1236.14841,0.16205
1238.07688,0.16152
1240.00535,0.16129
1241.93382,0.16075
1243.86229,0.16172
1245.79075,0.16347
1247.71922,0.16451
1249.64769,0.16523
1251.57616,0.16501
1253.50463,0.16562
1255.43310,0.16765
1257.36157,0.16550
1259.29003,0.16070
1261.21850,0.15956
1263.14697,0.16154
1265.07544,0.16344
1267.00391,0.16273
1268.93238,0.16088
1270.86085,0.16166
1272.78932,0.16397
1274.71778,0.16393
1276.64625,0.16211
1278.57472,0.16158
1280.50319,0.16341
1282.43166,0.16631
1284.36013,0.16823
1286.28860,0.16853
1288.21706,0.16771
1290.14553,0.16690
1292.07400,0.16652
1294.00247,0.16599
1295.93094,0.16544
1297.85941,0.16481
1299.78788,0.16138
1301.71634,0.15317
1303.64481,0.14519
1305.57328,0.14477
1307.50175,0.15350
1309.43022,0.16435
1311.35869,0.16995
1313.28716,0.17199
1315.21563,0.17466
1317.14409,0.17709
1319.07256,0.17584
1321.00103,0.17061
1322.92950,0.16552
1324.85797,0.16262
1326.78644,0.16200
1328.71491,0.16507
1330.64337,0.16766
1332.57184,0.16572
1334.50031,0.16393
1336.42878,0.16665
1338.35725,0.17216
1340.28572,0.17157
1342.21419,0.16236
1344.14266,0.15046
1346.07112,0.14557
1347.99959,0.15553
1349.92806,0.16648
1351.85653,0.16774
1353.78500,0.16611
1355.71347,0.16516
1357.64194,0.16699
1359.57040,0.17153
1361.49887,0.17641
1363.42734,0.17839
1365.35581,0.17713
1367.28428,0.17703
1369.21275,0.17811
1371.14122,0.18073
1373.06969,0.18631
1374.99815,0.18955
1376.92662,0.18641
1378.85509,0.18162
1380.78356,0.17795
1382.71203,0.17789
1384.64050,0.18354
1386.56897,0.18830
1388.49743,0.18462
1390.42590,0.18033
1392.35437,0.18508
1394.28284,0.19617
1396.21131,0.20119
1398.13978,0.19837
1400.06825,0.19176
1401.99672,0.18614
1403.92518,0.18837
1405.85365,0.19259
1407.78212,0.18967
1409.71059,0.18393
1411.63906,0.18164
1413.56753,0.18586
1415.49600,0.19597
1417.42446,0.20822
1419.35293,0.20943
1421.28140,0.19789
1423.20987,0.18863
1425.13834,0.18330
1427.06681,0.18455
1428.99528,0.19234
1430.92375,0.19645
1432.85221,0.19414
1434.78068,0.19403
1436.70915,0.19537
1438.63762,0.19032
1440.56609,0.18437
1442.49456,0.18108
1444.42303,0.18143
1446.35149,0.18609
1448.27996,0.18782
1450.20843,0.18434
1452.13690,0.18553
1454.06537,0.19842
1455.99384,0.22537
1457.92231,0.23529
1459.85077,0.20907
1461.77924,0.19359
1463.70771,0.19669
1465.63618,0.20170
1467.56465,0.19731
1469.49312,0.19736
1471.42159,0.21086
1473.35006,0.22629
1475.27852,0.22409
1477.20699,0.21302
1479.13546,0.20269
1481.06393,0.19391
1482.99240,0.18694
1484.92087,0.18983
1486.84934,0.20764
1488.77780,0.22638
1490.70627,0.22122
1492.63474,0.20935
1494.56321,0.21093
1496.49168,0.21773
1498.42015,0.21407
1500.34862,0.20221
1502.27709,0.19451
1504.20555,0.20657
1506.13402,0.25342
1508.06249,0.27188
1509.99096,0.23835
1511.91943,0.21885
1513.84790,0.22113
1515.77637,0.23391
1517.70483,0.24060
1519.63330,0.24924
1521.56177,0.26020
1523.49024,0.25019
1525.41871,0.23643
1527.34718,0.22363
1529.27565,0.21033
1531.20412,0.20990
1533.13258,0.21969
1535.06105,0.22104
1536.98952,0.22624
1538.91799,0.25594
1540.84646,0.28337
1542.77493,0.26471
1544.70340,0.23794
1546.63186,0.22011
1548.56033,0.21588
1550.48880,0.21449
1552.41727,0.21156
1554.34574,0.21989
1556.27421,0.24578
1558.20268,0.28335
1560.13115,0.26388
1562.05961,0.22458
1563.98808,0.20855
1565.91655,0.20410
1567.84502,0.20711
1569.77349,0.20848
1571.70196,0.20227
1573.63043,0.20308
1575.55889,0.21134
1577.48736,0.20833
1579.41583,0.19681
1581.34430,0.18940
1583.27277,0.18644
1585.20124,0.18612
1587.12971,0.18696
1589.05818,0.18876
1590.98664,0.19095
1592.91511,0.19208
1594.84358,0.19099
1596.77205,0.18794
1598.70052,0.18660
1600.62899,0.18815
1602.55746,0.18851
1604.48592,0.18667
1606.41439,0.18610
1608.34286,0.18715
1610.27133,0.18655
1612.19980,0.18718
1614.12827,0.19600
1616.05674,0.21024
1617.98521,0.21168
1619.91367,0.20659
1621.84214,0.21195
1623.77061,0.22051
1625.69908,0.21742
1627.62755,0.20728
1629.55602,0.19815
1631.48449,0.19865
1633.41295,0.21431
1635.34142,0.23759
1637.26989,0.23203
1639.19836,0.21302
1641.12683,0.20810
1643.05530,0.21574
1644.98377,0.23391
1646.91223,0.25165
1648.84070,0.24446
1650.76917,0.24136
1652.69764,0.25695
1654.62611,0.24155
1656.55458,0.21403
1658.48305,0.20376
1660.41152,0.20619
1662.33998,0.21222
1664.26845,0.20987
1666.19692,0.20963
1668.12539,0.22305
1670.05386,0.23340
1671.98233,0.22523
1673.91080,0.21936
1675.83926,0.21710
1677.76773,0.21363
1679.69620,0.21708
1681.62467,0.23286
1683.55314,0.25262
1685.48161,0.24190
1687.41008,0.22165
1689.33855,0.21374
1691.26701,0.21104
1693.19548,0.21407
1695.12395,0.22837
1697.05242,0.24816
1698.98089,0.25605
1700.90936,0.24372
1702.83783,0.23191
1704.76629,0.23067
1706.69476,0.22480
1708.62323,0.21358
1710.55170,0.20816
1712.48017,0.21144
1714.40864,0.22397
1716.33711,0.23884
1718.26558,0.23165
1720.19404,0.21125
1722.12251,0.19981
1724.05098,0.19504
1725.97945,0.19414
1727.90792,0.20012
1729.83639,0.21143
1731.76486,0.22545
1733.69332,0.23321
1735.62179,0.21824
1737.55026,0.20670
1739.47873,0.20732
1741.40720,0.20873
1743.33567,0.21018
1745.26414,0.21670
1747.19261,0.22668
1749.12107,0.23342
1751.04954,0.22378
1752.97801,0.20410
1754.90648,0.19500
1756.83495,0.19682
1758.76342,0.19931
1760.69189,0.20180
1762.62035,0.20263
1764.54882,0.19958
1766.47729,0.19935
1768.40576,0.20605
1770.33423,0.22038
1772.26270,0.22921
1774.19117,0.21730
1776.11964,0.20354
1778.04810,0.19929
1779.97657,0.20024
1781.90504,0.19979
1783.83351,0.19656
1785.76198,0.19111
1787.69045,0.18834
1789.61892,0.19587
1791.54738,0.20884
1793.47585,0.21118
1795.40432,0.20590
1797.33279,0.20372
1799.26126,0.20440
1801.18973,0.20191
1803.11820,0.19497
1805.04666,0.19109
1806.97513,0.19125
1808.90360,0.19163
1810.83207,0.19224
1812.76054,0.19247
1814.68901,0.19236
1816.61748,0.19144
1818.54595,0.19204
1820.47441,0.19611
1822.40288,0.19662
1824.33135,0.19502
1826.25982,0.19812
1828.18829,0.20392
1830.11676,0.20547
1832.04523,0.19777
1833.97369,0.19088
1835.90216,0.19021
1837.83063,0.19058
1839.75910,0.19042
1841.68757,0.19588
1843.61604,0.20691
1845.54451,0.21021
1847.47298,0.20318
1849.40144,0.19357
1851.32991,0.18556
1853.25838,0.18234
1855.18685,0.18483
1857.11532,0.19037
1859.04379,0.19371
1860.97226,0.19249
1862.90072,0.19031
1864.82919,0.19462
1866.75766,0.20654
1868.68613,0.21160
1870.61460,0.19997
1872.54307,0.18800
1874.47154,0.18406
1876.40001,0.18387
1878.32847,0.18420
1880.25694,0.18623
1882.18541,0.18972
1884.11388,0.19065
1886.04235,0.19001
1887.97082,0.19317
1889.89929,0.19523
1891.82775,0.19093
1893.75622,0.18931
1895.68469,0.19251
1897.61316,0.19325
1899.54163,0.19132
1901.47010,0.19157
1903.39857,0.19584
1905.32704,0.20052
1907.25550,0.20167
1909.18397,0.19740
1911.11244,0.19017
1913.04091,0.18804
1914.96938,0.19370
1916.89785,0.20071
1918.82632,0.20101
1920.75478,0.19808
1922.68325,0.19772
1924.61172,0.19641
1926.54019,0.19335
1928.46866,0.19126
1930.39713,0.18979
1932.32560,0.18919
1934.25407,0.18990
1936.18253,0.19036
1938.11100,0.19048
1940.03947,0.19212
1941.96794,0.19481
1943.89641,0.19677
1945.82488,0.19713
1947.75335,0.19453
1949.68181,0.19064
1951.61028,0.18875
1953.53875,0.18906
1955.46722,0.19097
1957.39569,0.19234
1959.32416,0.19160
1961.25263,0.19102
1963.18110,0.19231
1965.10956,0.19424
1967.03803,0.19435
1968.96650,0.19241
1970.89497,0.19048
1972.82344,0.18959
1974.75191,0.18909
1976.68038,0.18620
1978.60884,0.18233
1980.53731,0.18346
1982.46578,0.18733
1984.39425,0.18871
1986.32272,0.18975
1988.25119,0.19245
1990.17966,0.19569
1992.10812,0.19633
1994.03659,0.19287
1995.96506,0.18975
1997.89353,0.18981
1999.82200,0.19072
2001.75047,0.18967
2003.67894,0.18778
2005.60741,0.18757
2007.53587,0.18872
2009.46434,0.19063
2011.39281,0.19405
2013.32128,0.19860
2015.24975,0.20218
2017.17822,0.20223
2019.10669,0.19880
2021.03515,0.19544
2022.96362,0.19457
2024.89209,0.19434
2026.82056,0.19275
2028.74903,0.19242
2030.67750,0.19525
2032.60597,0.19886
2034.53444,0.20036
2036.46290,0.19883
2038.39137,0.19704
2040.31984,0.19633
2042.24831,0.19490
2044.17678,0.19334
2046.10525,0.19152
2048.03372,0.18854
2049.96218,0.18692
2051.89065,0.18808
2053.81912,0.19032
2055.74759,0.19215
2057.67606,0.19282
2059.60453,0.19202
2061.53300,0.19107
2063.46147,0.19207
2065.38993,0.19463
2067.31840,0.19516
2069.24687,0.19317
2071.17534,0.19214
2073.10381,0.19249
2075.03228,0.19321
2076.96075,0.19435
2078.88921,0.19491
2080.81768,0.19550
2082.74615,0.19648
2084.67462,0.19524
2086.60309,0.19230
2088.53156,0.19094
2090.46003,0.19122
2092.38850,0.19209
2094.31696,0.19263
2096.24543,0.19147
2098.17390,0.19053
2100.10237,0.19308
2102.03084,0.19682
2103.95931,0.19667
2105.88778,0.19320
2107.81624,0.19062
2109.74471,0.19053
2111.67318,0.19216
2113.60165,0.19335
2115.53012,0.19313
2117.45859,0.19384
2119.38706,0.19628
2121.31553,0.19695
2123.24399,0.19448
2125.17246,0.19230
2127.10093,0.19244
2129.02940,0.19457
2130.95787,0.19729
2132.88634,0.19783
2134.81481,0.19584
2136.74327,0.19441
2138.67174,0.19525
2140.60021,0.19568
2142.52868,0.19395
2144.45715,0.19222
2146.38562,0.19137
2148.31409,0.19046
2150.24255,0.19066
2152.17102,0.19397
2154.09949,0.19817
2156.02796,0.19928
2157.95643,0.19788
2159.88490,0.19669
2161.81337,0.19567
2163.74184,0.19497
2165.67030,0.19466
2167.59877,0.19317
2169.52724,0.19164
2171.45571,0.19113
2173.38418,0.19114
2175.31265,0.19060
2177.24112,0.18829
2179.16958,0.18705
2181.09805,0.18796
2183.02652,0.18841
2184.95499,0.18914
2186.88346,0.19176
2188.81193,0.19517
2190.74040,0.19602
2192.66887,0.19352
2194.59733,0.19201
2196.52580,0.19291
2198.45427,0.19280
2200.38274,0.19087
2202.31121,0.18961
2204.23968,0.18995
2206.16815,0.19098
2208.09661,0.19321
2210.02508,0.19535
2211.95355,0.19534
2213.88202,0.19529
2215.81049,0.19536
2217.73896,0.19313
2219.66743,0.19010
2221.59590,0.18964
2223.52436,0.19225
2225.45283,0.19520
2227.38130,0.19599
2229.30977,0.19499
2231.23824,0.19390
2233.16671,0.19332
2235.09518,0.19351
2237.02364,0.19468
2238.95211,0.19544
2240.88058,0.19381
2242.80905,0.19143
2244.73752,0.19109
2246.66599,0.19074
2248.59446,0.18985
2250.52293,0.19227
2252.45139,0.19678
2254.37986,0.19773
2256.30833,0.19514
2258.23680,0.19362
2260.16527,0.19482
2262.09374,0.19724
2264.02221,0.19808
2265.95067,0.19637
2267.87914,0.19457
2269.80761,0.19405
2271.73608,0.19483
2273.66455,0.19754
2275.59302,0.20016
2277.52149,0.19967
2279.44996,0.19751
2281.37842,0.19614
2283.30689,0.19436
2285.23536,0.19171
2287.16383,0.19089
2289.09230,0.19243
2291.02077,0.19557
2292.94924,0.19994
2294.87770,0.20220
2296.80617,0.20029
2298.73464,0.19679
2300.66311,0.19560
2302.59158,0.19677
2304.52005,0.19660
2306.44852,0.19580
2308.37699,0.19744
2310.30545,0.20014
2312.23392,0.20295
2314.16239,0.20560
2316.09086,0.20469
2318.01933,0.20072
2319.94780,0.19867
2321.87627,0.19901
2323.80473,0.19644
2325.73320,0.18951
2327.66167,0.18601
2329.59014,0.19223
2331.51861,0.19901
2333.44708,0.20049
2335.37555,0.20414
2337.30401,0.20269
2339.23248,0.19225
2341.16095,0.18643
2343.08942,0.18822
2345.01789,0.19207
2346.94636,0.19589
2348.87483,0.20115
2350.80330,0.20852
2352.73176,0.21643
2354.66023,0.22328
2356.58870,0.22770
2358.51717,0.22278
2360.44564,0.20693
2362.37411,0.19408
2364.30258,0.19206
2366.23104,0.19787
2368.15951,0.20624
2370.08798,0.21169
2372.01645,0.21310
2373.94492,0.20886
2375.87339,0.19930
2377.80186,0.19260
2379.73033,0.19318
2381.65879,0.19589
2383.58726,0.19722
2385.51573,0.19678
2387.44420,0.19399
2389.37267,0.19217
2391.30114,0.19411
2393.22961,0.19576
2395.15807,0.19471
2397.08654,0.19388
2399.01501,0.19431
2400.94348,0.19524
2402.87195,0.19682
2404.80042,0.19742
2406.72889,0.19519
2408.65736,0.19285
2410.58582,0.19326
2412.51429,0.19461
2414.44276,0.19553
2416.37123,0.19594
2418.29970,0.19548
2420.22817,0.19479
2422.15664,0.19487
2424.08510,0.19703
2426.01357,0.19968
2427.94204,0.20033
2429.87051,0.19935
2431.79898,0.19711
2433.72745,0.19516
2435.65592,0.19431
2437.58439,0.19309
2439.51285,0.19223
2441.44132,0.19210
2443.36979,0.19162
2445.29826,0.19123
2447.22673,0.19181
2449.15520,0.19379
2451.08367,0.19575
2453.01213,0.19533
2454.94060,0.19412
2456.86907,0.19436
2458.79754,0.19461
2460.72601,0.19430
2462.65448,0.19491
2464.58295,0.19485
2466.51142,0.19293
2468.43988,0.19318
2470.36835,0.19632
2472.29682,0.19706
2474.22529,0.19436
2476.15376,0.19232
2478.08223,0.19262
2480.01070,0.19461
2481.93916,0.19666
2483.86763,0.19649
2485.79610,0.19504
2487.72457,0.19431
2489.65304,0.19504
2491.58151,0.19667
2493.50998,0.19651
2495.43844,0.19511
2497.36691,0.19596
2499.29538,0.19919
2501.22385,0.20011
2503.15232,0.19638
2505.08079,0.19346
2507.00926,0.19447
2508.93773,0.19618
2510.86619,0.19685
2512.79466,0.19681
2514.72313,0.19628
2516.65160,0.19645
2518.58007,0.19828
2520.50854,0.20021
2522.43701,0.20111
2524.36547,0.20099
2526.29394,0.19900
2528.22241,0.19610
2530.15088,0.19450
2532.07935,0.19588
2534.00782,0.19915
2535.93629,0.19957
2537.86476,0.19812
2539.79322,0.19918
2541.72169,0.19958
2543.65016,0.19776
2545.57863,0.19668
2547.50710,0.19610
2549.43557,0.19622
2551.36404,0.19752
2553.29250,0.19792
2555.22097,0.19584
2557.14944,0.19266
2559.07791,0.19027
2561.00638,0.19074
2562.93485,0.19500
2564.86332,0.19859
2566.79179,0.19949
2568.72025,0.19965
2570.64872,0.19901
2572.57719,0.19920
2574.50566,0.20139
2576.43413,0.20254
2578.36260,0.20139
2580.29107,0.20041
2582.21953,0.20000
2584.14800,0.19950
2586.07647,0.19981
2588.00494,0.20049
2589.93341,0.20079
2591.86188,0.20182
2593.79035,0.20368
2595.71882,0.20346
2597.64728,0.19978
2599.57575,0.19542
2601.50422,0.19290
2603.43269,0.19308
2605.36116,0.19672
2607.28963,0.20106
2609.21810,0.20226
2611.14656,0.20248
2613.07503,0.20298
2615.00350,0.20230
2616.93197,0.20252
2618.86044,0.20402
2620.78891,0.20363
2622.71738,0.20148
2624.64585,0.20088
2626.57431,0.20114
2628.50278,0.19950
2630.43125,0.19817
2632.35972,0.19932
2634.28819,0.19959
2636.21666,0.19734
2638.14513,0.19680
2640.07359,0.20011
2642.00206,0.20262
2643.93053,0.20113
2645.85900,0.19920
2647.78747,0.19907
2649.71594,0.19877
2651.64441,0.19825
2653.57288,0.19881
2655.50134,0.19929
2657.42981,0.19880
2659.35828,0.19895
2661.28675,0.19943
2663.21522,0.19978
2665.14369,0.20177
2667.07216,0.20418
2669.00062,0.20499
2670.92909,0.20380
2672.85756,0.19947
2674.78603,0.19477
2676.71450,0.19478
2678.64297,0.19794
2680.57144,0.20073
2682.49990,0.20355
2684.42837,0.20438
2686.35684,0.20195
2688.28531,0.20023
2690.21378,0.20065
2692.14225,0.20300
2694.07072,0.20654
2695.99919,0.20657
2697.92765,0.20404
2699.85612,0.20485
2701.78459,0.20707
2703.71306,0.20670
2705.64153,0.20576
2707.57000,0.20606
2709.49847,0.20590
2711.42693,0.20420
2713.35540,0.20145
2715.28387,0.19848
2717.21234,0.19782
2719.14081,0.20136
2721.06928,0.20542
2722.99775,0.20529
2724.92622,0.20279
2726.85468,0.20187
2728.78315,0.20255
2730.71162,0.20371
2732.64009,0.20434
2734.56856,0.20287
2736.49703,0.20044
2738.42550,0.20114
2740.35396,0.20545
2742.28243,0.20960
2744.21090,0.21156
2746.13937,0.21131
2748.06784,0.20972
2749.99631,0.20726
2751.92478,0.20483
2753.85325,0.20670
2755.78171,0.21244
2757.71018,0.21351
2759.63865,0.20885
2761.56712,0.20618
2763.49559,0.20548
2765.42406,0.20302
2767.35253,0.20141
2769.28099,0.20293
2771.20946,0.20695
2773.13793,0.21046
2775.06640,0.20990
2776.99487,0.20808
2778.92334,0.20814
2780.85181,0.20727
2782.78028,0.20610
2784.70874,0.20885
2786.63721,0.21396
2788.56568,0.21532
2790.49415,0.21142
2792.42262,0.20694
2794.35109,0.20488
2796.27956,0.20552
2798.20802,0.20774
2800.13649,0.21006
2802.06496,0.21286
2803.99343,0.21557
2805.92190,0.21733
2807.85037,0.21669
2809.77884,0.21281
2811.70731,0.20944
2813.63577,0.20936
2815.56424,0.21116
2817.49271,0.21298
2819.42118,0.21400
2821.34965,0.21413
2823.27812,0.21420
2825.20659,0.21617
2827.13505,0.21884
2829.06352,0.21753
2830.99199,0.21347
2832.92046,0.21167
2834.84893,0.21164
2836.77740,0.21187
2838.70587,0.21393
2840.63433,0.21677
2842.56280,0.21475
2844.49127,0.20762
2846.41974,0.20329
2848.34821,0.20491
2850.27668,0.20784
2852.20515,0.20873
2854.13362,0.20872
2856.06208,0.20924
2857.99055,0.21141
2859.91902,0.21394
2861.84749,0.21372
2863.77596,0.21195
2865.70443,0.20912
2867.63290,0.20628
2869.56136,0.20780
2871.48983,0.21203
2873.41830,0.21336
2875.34677,0.21185
2877.27524,0.21283
2879.20371,0.21750
2881.13218,0.21934
2883.06065,0.21437
2884.98911,0.20885
2886.91758,0.20871
2888.84605,0.21161
2890.77452,0.21408
2892.70299,0.21440
2894.63146,0.21283
2896.55993,0.21168
2898.48839,0.21201
2900.41686,0.21330
2902.34533,0.21351
2904.27380,0.21167
2906.20227,0.21142
2908.13074,0.21280
2910.05921,0.21148
2911.98768,0.21011
2913.91614,0.21015
2915.84461,0.20864
2917.77308,0.20718
2919.70155,0.20816
2921.63002,0.21200
2923.55849,0.21320
2925.48696,0.20821
2927.41542,0.20815
2929.34389,0.21677
2931.27236,0.22067
2933.20083,0.21561
2935.12930,0.20747
2937.05777,0.19989
2938.98624,0.19878
2940.91471,0.20406
2942.84317,0.20742
2944.77164,0.20376
2946.70011,0.19730
2948.62858,0.19885
2950.55705,0.20636
2952.48552,0.20862
2954.41399,0.20624
2956.34245,0.20522
2958.27092,0.20821
2960.19939,0.21451
2962.12786,0.21755
2964.05633,0.21307
2965.98480,0.20653
2967.91327,0.20601
2969.84174,0.21236
2971.77020,0.21746
2973.69867,0.21856
2975.62714,0.21734
2977.55561,0.20969
2979.48408,0.20162
2981.41255,0.20371
2983.34102,0.21158
2985.26948,0.21658
2987.19795,0.21602
2989.12642,0.21482
2991.05489,0.21836
2992.98336,0.22056
2994.91183,0.21579
2996.84030,0.21076
2998.76877,0.21272
3000.69723,0.21834
3002.62570,0.21995
3004.55417,0.21739
3006.48264,0.21531
3008.41111,0.21437
3010.33958,0.20945
3012.26805,0.19540
3014.19651,0.17346
3016.12498,0.15575
3018.05345,0.16260
3019.98192,0.19191
3021.91039,0.21676
3023.83886,0.22610
3025.76733,0.22556
3027.69579,0.21964
3029.62426,0.21554
3031.55273,0.21775
3033.48120,0.22337
3035.40967,0.22817
3037.33814,0.22690
3039.26661,0.22133
3041.19508,0.21846
3043.12354,0.21782
3045.05201,0.21605
3046.98048,0.21275
3048.90895,0.21168
3050.83742,0.21372
3052.76589,0.21401
3054.69436,0.21079
3056.62282,0.20731
3058.55129,0.20964
3060.47976,0.21400
3062.40823,0.21385
3064.33670,0.21079
3066.26517,0.20457
3068.19364,0.20000
3070.12211,0.20151
3072.05057,0.20483
3073.97904,0.20576
3075.90751,0.20474
3077.83598,0.20789
3079.76445,0.21458
3081.69292,0.21788
3083.62139,0.21178
3085.54985,0.20007
3087.47832,0.19692
3089.40679,0.20304
3091.33526,0.20802
3093.26373,0.20469
3095.19220,0.19908
3097.12067,0.20319
3099.04914,0.21017
3100.97760,0.20807
3102.90607,0.20071
3104.83454,0.20200
3106.76301,0.21271
3108.69148,0.21740
3110.61995,0.21150
3112.54842,0.20634
3114.47688,0.20958
3116.40535,0.21541
3118.33382,0.21707
3120.26229,0.21587
3122.19076,0.21630
3124.11923,0.22034
3126.04770,0.22367
3127.97617,0.22130
3129.90463,0.21533
3131.83310,0.21302
3133.76157,0.21722
3135.69004,0.22435
3137.61851,0.22583
3139.54698,0.21957
3141.47545,0.21611
3143.40391,0.21596
3145.33238,0.21375
3147.26085,0.21652
3149.18932,0.22669
3151.11779,0.23411
3153.04626,0.23371
3154.97473,0.22809
3156.90320,0.22093
3158.83166,0.21885
3160.76013,0.22229
3162.68860,0.22365
3164.61707,0.22264
3166.54554,0.22318
3168.47401,0.22304
3170.40248,0.22061
3172.33094,0.21728
3174.25941,0.21546
3176.18788,0.21737
3178.11635,0.21977
3180.04482,0.21900
3181.97329,0.21680
3183.90176,0.21789
3185.83022,0.22285
3187.75869,0.22685
3189.68716,0.22803
3191.61563,0.22656
3193.54410,0.22625
3195.47257,0.22983
3197.40104,0.22818
3199.32951,0.21930
3201.25797,0.21628
3203.18644,0.22222
3205.11491,0.22763
3207.04338,0.22855
3208.97185,0.22678
3210.90032,0.22438
3212.82879,0.22570
3214.75725,0.23062
3216.68572,0.23334
3218.61419,0.23196
3220.54266,0.22789
3222.47113,0.22502
3224.39960,0.22527
3226.32807,0.22444
3228.25654,0.22179
3230.18500,0.21837
3232.11347,0.21580
3234.04194,0.21918
3235.97041,0.22551
3237.89888,0.22510
3239.82735,0.21861
3241.75582,0.21503
3243.68428,0.21410
3245.61275,0.21204
3247.54122,0.21181
3249.46969,0.21262
3251.39816,0.21504
3253.32663,0.22173
3255.25510,0.22580
3257.18357,0.22346
3259.11203,0.21861
3261.04050,0.21363
3262.96897,0.21235
3264.89744,0.21677
3266.82591,0.22266
3268.75438,0.22387
3270.68285,0.22004
3272.61131,0.21959
3274.53978,0.22475
3276.46825,0.22718
3278.39672,0.22307
3280.32519,0.21717
3282.25366,0.21462
3284.18213,0.21588
3286.11060,0.21800
3288.03906,0.22032
3289.96753,0.22342
3291.89600,0.22309
3293.82447,0.21841
3295.75294,0.21365
3297.68141,0.21216
3299.60988,0.21648
3301.53834,0.22117
3303.46681,0.22044
3305.39528,0.21831
3307.32375,0.21895
3309.25222,0.21997
3311.18069,0.21661
3313.10916,0.21093
3315.03763,0.20828
3316.96609,0.20840
3318.89456,0.21164
3320.82303,0.21801
3322.75150,0.22104
3324.67997,0.21981
3326.60844,0.21815
3328.53691,0.21701
3330.46537,0.21852
3332.39384,0.22144
3334.32231,0.22357
3336.25078,0.22530
3338.17925,0.22625
3340.10772,0.22522
3342.03619,0.22384
3343.96466,0.22573
3345.89312,0.22493
3347.82159,0.21715
3349.75006,0.21289
3351.67853,0.21706
3353.60700,0.22088
3355.53547,0.22124
3357.46394,0.22328
3359.39240,0.22783
3361.32087,0.23139
3363.24934,0.23077
3365.17781,0.22971
3367.10628,0.23235
3369.03475,0.23342
3370.96322,0.23159
3372.89168,0.23078
3374.82015,0.22843
3376.74862,0.22301
3378.67709,0.21932
3380.60556,0.21788
3382.53403,0.21518
3384.46250,0.20999
3386.39097,0.20501
3388.31943,0.20809
3390.24790,0.21843
3392.17637,0.22399
3394.10484,0.22444
3396.03331,0.22669
3397.96178,0.22893
3399.89025,0.22987
3401.81871,0.22712
3403.74718,0.21994
3405.67565,0.21602
3407.60412,0.21672
3409.53259,0.21631
3411.46106,0.21366
3413.38953,0.21222
3415.31800,0.21187
3417.24646,0.21143
3419.17493,0.21360
3421.10340,0.21409
3423.03187,0.20820
3424.96034,0.20259
3426.88881,0.20299
3428.81728,0.20691
3430.74574,0.20788
3432.67421,0.20388
3434.60268,0.19906
3436.53115,0.19646
3438.45962,0.19791
3440.38809,0.20317
3442.31656,0.20688
3444.24503,0.20887
3446.17349,0.21340
3448.10196,0.21506
3450.03043,0.21097
3451.95890,0.20860
3453.88737,0.20863
3455.81584,0.20664
3457.74431,0.20138
3459.67277,0.19557
3461.60124,0.19518
3463.52971,0.19902
3465.45818,0.20075
3467.38665,0.19977
3469.31512,0.19772
3471.24359,0.19493
3473.17206,0.19100
3475.10052,0.18767
3477.02899,0.18965
3478.95746,0.19631
3480.88593,0.20146
3482.81440,0.20110
3484.74287,0.19813
3486.67134,0.19836
3488.59980,0.19697
3490.52827,0.18988
3492.45674,0.18839
3494.38521,0.19450
3496.31368,0.19647
3498.24215,0.19006
3500.17062,0.18219
3502.09909,0.18238
3504.02755,0.18820
3505.95602,0.18989
3507.88449,0.18983
3509.81296,0.18906
3511.74143,0.18320
3513.66990,0.17762
3515.59837,0.17774
3517.52683,0.18111
3519.45530,0.18525
3521.38377,0.18811
3523.31224,0.18766
3525.24071,0.18659
3527.16918,0.18643
3529.09765,0.18458
3531.02611,0.18185
3532.95458,0.17836
3534.88305,0.17480
3536.81152,0.17460
3538.73999,0.17596
3540.66846,0.17699
3542.59693,0.18150
3544.52540,0.18954
3546.45386,0.19192
3548.38233,0.18656
3550.31080,0.18420
3552.23927,0.18645
3554.16774,0.18696
3556.09621,0.18454
3558.02468,0.18001
3559.95314,0.17601
3561.88161,0.17680
3563.81008,0.18446
3565.73855,0.19707
3567.66702,0.19781
3569.59549,0.18298
3571.52396,0.17090
3573.45243,0.16305
3575.38089,0.15796
3577.30936,0.15725
3579.23783,0.15785
3581.16630,0.15868
3583.09477,0.16453
3585.02324,0.17532
3586.95171,0.18131
3588.88017,0.17529
3590.80864,0.16917
3592.73711,0.17050
3594.66558,0.17345
3596.59405,0.17064
3598.52252,0.16561
3600.45099,0.16153
3602.37946,0.15836
3604.30792,0.16059
3606.23639,0.17108
3608.16486,0.18172
3610.09333,0.18091
3612.02180,0.17533
3613.95027,0.17145
3615.87874,0.17170
3617.80720,0.17899
3619.73567,0.17947
3621.66414,0.16719
3623.59261,0.15807
3625.52108,0.15748
3627.44955,0.16718
3629.37802,0.17396
3631.30649,0.16492
3633.23495,0.15716
3635.16342,0.15118
3637.09189,0.14521
3639.02036,0.14291
3640.94883,0.14344
3642.87730,0.14471
3644.80577,0.15212
3646.73423,0.17314
3648.66270,0.19820
3650.59117,0.18956
3652.51964,0.16573
3654.44811,0.15568
3656.37658,0.15281
3658.30505,0.14505
3660.23352,0.13721
3662.16198,0.13439
3664.09045,0.13475
3666.01892,0.13996
3667.94739,0.15594
3669.87586,0.17254
3671.80433,0.16902
3673.73280,0.16797
3675.66126,0.17720
3677.58973,0.17235
3679.51820,0.15791
3681.44667,0.14455
3683.37514,0.13788
3685.30361,0.14161
3687.23208,0.15321
3689.16055,0.16180
3691.08901,0.15517
3693.01748,0.14331
3694.94595,0.13848
3696.87442,0.14061
3698.80289,0.14274
3700.73136,0.14212
3702.65983,0.13972
3704.58829,0.13819
3706.51676,0.14054
3708.44523,0.15031
3710.37370,0.16612
3712.30217,0.16670
3714.23064,0.15279
3716.15911,0.14558
3718.08757,0.14521
3720.01604,0.14497
3721.94451,0.14329
3723.87298,0.14322
3725.80145,0.14421
3727.72992,0.14532
3729.65839,0.14948
3731.58686,0.15930
3733.51532,0.17432
3735.44379,0.18279
3737.37226,0.17184
3739.30073,0.15913
3741.22920,0.15913
3743.15767,0.16966
3745.08614,0.17783
3747.01460,0.17849
3748.94307,0.18214
3750.87154,0.18202
3752.80001,0.16932
3754.72848,0.15673
3756.65695,0.14979
3758.58542,0.14891
3760.51389,0.14936
3762.44235,0.14600
3764.37082,0.14192
3766.29929,0.14134
3768.22776,0.14419
3770.15623,0.14377
3772.08470,0.13567
3774.01317,0.13027
3775.94163,0.13394
3777.87010,0.14010
3779.79857,0.14008
3781.72704,0.13599
3783.65551,0.13476
3785.58398,0.13536
3787.51245,0.13202
3789.44092,0.12770
3791.36938,0.12834
3793.29785,0.13009
3795.22632,0.13056
3797.15479,0.13325
3799.08326,0.14003
3801.01173,0.14886
3802.94020,0.14572
3804.86866,0.13906
3806.79713,0.13951
3808.72560,0.13642
3810.65407,0.13169
3812.58254,0.13122
3814.51101,0.13166
3816.43948,0.13420
3818.36795,0.14728
3820.29641,0.16142
3822.22488,0.15244
3824.15335,0.13845
3826.08182,0.13458
3828.01029,0.13127
3829.93876,0.12928
3831.86723,0.13218
3833.79569,0.13784
3835.72416,0.14727
3837.65263,0.15993
3839.58110,0.16435
3841.50957,0.15854
3843.43804,0.15047
3845.36651,0.14155
3847.29498,0.13427
3849.22344,0.13578
3851.15191,0.15105
3853.08038,0.16832
3855.00885,0.15756
3856.93732,0.14085
3858.86579,0.13224
3860.79426,0.13180
3862.72272,0.13745
3864.65119,0.13899
3866.57966,0.13702
3868.50813,0.14250
3870.43660,0.14959
3872.36507,0.14411
3874.29354,0.13173
3876.22200,0.12303
3878.15047,0.12175
3880.07894,0.12361
3882.00741,0.12412
3883.93588,0.12721
3885.86435,0.13272
3887.79282,0.13381
3889.72129,0.13285
3891.64975,0.13223
3893.57822,0.12734
3895.50669,0.12162
3897.43516,0.12361
3899.36363,0.13305
3901.29210,0.14160
3903.22057,0.14421
3905.14903,0.13497
3907.07750,0.12065
3909.00597,0.11430
3910.93444,0.11589
3912.86291,0.11906
3914.79138,0.12166
3916.71985,0.12382
3918.64832,0.12262
3920.57678,0.12231
3922.50525,0.12708
3924.43372,0.12948
3926.36219,0.12513
3928.29066,0.12093
3930.21913,0.12060
3932.14760,0.12042
3934.07606,0.11738
3936.00453,0.11335
3937.93300,0.11002
3939.86147,0.10908
3941.78994,0.11219
3943.71841,0.11544
3945.64688,0.11504
3947.57535,0.11580
3949.50381,0.12004
3951.43228,0.12369
3953.36075,0.12396
3955.28922,0.11951
3957.21769,0.11348
3959.14616,0.11032
3961.07463,0.10732
3963.00309,0.10441
3964.93156,0.10503
3966.86003,0.10553
3968.78850,0.10469
3970.71697,0.10535
3972.64544,0.10615
3974.57391,0.10776
3976.50238,0.10895
3978.43084,0.10533
3980.35931,0.10258
3982.28778,0.10608
3984.21625,0.10863
3986.14472,0.10496
3988.07319,0.10111
3990.00166,0.10329
3991.93012,0.10907
3993.85859,0.11101
3995.78706,0.10657
3997.71553,0.10256
3999.64400,0.10436
4001.57247,0.10811
4003.50094,0.10893
4005.42941,0.10713
4007.35787,0.10515
4009.28634,0.10364
4011.21481,0.10240
4013.14328,0.10281
4015.07175,0.10482
4017.00022,0.10619
4018.92869,0.10863
4020.85715,0.11198
4022.78562,0.11107
4024.71409,0.10869
4026.64256,0.10847
4028.57103,0.10574
4030.49950,0.10071
4032.42797,0.09926
4034.35644,0.10214
4036.28490,0.10581
4038.21337,0.10657
4040.14184,0.10289
4042.07031,0.09964
4043.99878,0.10061
4045.92725,0.10321
4047.85572,0.10497
4049.78418,0.10466
4051.71265,0.10206
4053.64112,0.09908
4055.56959,0.09696
4057.49806,0.09334
4059.42653,0.08895
4061.35500,0.08850
4063.28346,0.08962
4065.21193,0.08873
4067.14040,0.08844
4069.06887,0.09081
4070.99734,0.09378
4072.92581,0.09409
4074.85428,0.09209
4076.78275,0.09130
4078.71121,0.09261
4080.63968,0.09296
4082.56815,0.09260
4084.49662,0.09321
4086.42509,0.09214
4088.35356,0.09183
4090.28203,0.09468
4092.21049,0.09639
4094.13896,0.09505
4096.06743,0.08914
4097.99590,0.08369
4099.92437,0.08710
4101.85284,0.09578
4103.78131,0.09943
4105.70978,0.09305
4107.63824,0.08430
4109.56671,0.08152
4111.49518,0.08302
4113.42365,0.08541
4115.35212,0.08750
4117.28059,0.08862
4119.20906,0.08776
4121.13752,0.08540
4123.06599,0.08248
4124.99446,0.08001
4126.92293,0.07912
4128.85140,0.08019
4130.77987,0.08263
4132.70834,0.08245
4134.63681,0.08044
4136.56527,0.08038
4138.49374,0.07931
4140.42221,0.07806
4142.35068,0.07946
4144.27915,0.07957
4146.20762,0.07790
4148.13609,0.07971
4150.06455,0.08632
4151.99302,0.09178
4153.92149,0.09072
4155.84996,0.08611
4157.77843,0.08372
4159.70690,0.08459
4161.63537,0.08426
4163.56384,0.08227
4165.49230,0.08173
4167.42077,0.08005
4169.34924,0.07730
4171.27771,0.07736
4173.20618,0.07847
4175.13465,0.07755
4177.06312,0.07491
4178.99158,0.07147
4180.92005,0.06833
4182.84852,0.06640
4184.77699,0.06618
4186.70546,0.06898
4188.63393,0.07391
4190.56240,0.07847
4192.49087,0.08043
4194.41933,0.07858
4196.34780,0.07678
4198.27627,0.07884
4200.20474,0.07939
4202.13321,0.07485
4204.06168,0.07177
4205.99015,0.07114
4207.91861,0.07182
4209.84708,0.07705
4211.77555,0.08081
4213.70402,0.07572
4215.63249,0.06760
4217.56096,0.06647
4219.48943,0.06952
4221.41789,0.06810
4223.34636,0.06508
4225.27483,0.06697
4227.20330,0.07254
4229.13177,0.07644
4231.06024,0.07466
4232.98871,0.06904
4234.91718,0.06753
4236.84564,0.07199
4238.77411,0.07278
4240.70258,0.06664
4242.63105,0.06252
4244.55952,0.06220
4246.48799,0.06057
4248.41646,0.05915
4250.34492,0.05765
4252.27339,0.05331
4254.20186,0.05263
4256.13033,0.06094
4258.05880,0.06927
4259.98727,0.06638
4261.91574,0.05533
4263.84421,0.05016
4265.77267,0.05482
4267.70114,0.05835
4269.62961,0.05794
4271.55808,0.06041
4273.48655,0.06145
4275.41502,0.05619
4277.34349,0.05226
4279.27195,0.05249
4281.20042,0.05167
4283.12889,0.04910
4285.05736,0.04785
4286.98583,0.05039
4288.91430,0.05462
4290.84277,0.05724
4292.77124,0.05727
4294.69970,0.05570
4296.62817,0.05402
4298.55664,0.05007
4300.48511,0.04774
4302.41358,0.05069
4304.34205,0.05561
4306.27052,0.06389
4308.19898,0.07022
4310.12745,0.06773
4312.05592,0.06138
4313.98439,0.05621
4315.91286,0.05576
4317.84133,0.05955
4319.76980,0.06029
4321.69827,0.05502
4323.62673,0.04629
4325.55520,0.03564
4327.48367,0.02931
4329.41214,0.03464
4331.34061,0.04493
4333.26908,0.04900
4335.19755,0.04891
4337.12601,0.04959
4339.05448,0.04933
4340.98295,0.04872
4342.91142,0.04923
4344.83989,0.04904
4346.76836,0.04558
4348.69683,0.03918
4350.62530,0.03558
4352.55376,0.03381
4354.48223,0.02891
4356.41070,0.02794
4358.33917,0.03595
4360.26764,0.03946
4362.19611,0.02955
4364.12458,0.02147
4366.05304,0.02528
4367.98151,0.02897
4369.90998,0.02755
4371.83845,0.02818
4373.76692,0.03047
4375.69539,0.03027
4377.62386,0.02920
4379.55232,0.02845
4381.48079,0.02843
4383.40926,0.03276
4385.33773,0.03857
4387.26620,0.03541
4389.19467,0.02466
4391.12314,0.01805
4393.05161,0.01956
4394.98007,0.02595
4396.90854,0.02860
4398.83701,0.02553
4400.76548,0.02754
4402.69395,0.03497
4404.62242,0.03721
4406.55089,0.03351
4408.47935,0.03022
4410.40782,0.02835
4412.33629,0.02654
4414.26476,0.02401
4416.19323,0.02140
4418.12170,0.02262
4420.05017,0.02341
4421.97864,0.01726
4423.90710,0.01041
4425.83557,0.01316
4427.76404,0.02372
4429.69251,0.02692
4431.62098,0.01690
4433.54945,0.00742
4435.47792,0.00876
4437.40638,0.01526
4439.33485,0.02370
4441.26332,0.03163
4443.19179,0.03221
4445.12026,0.02887
4447.04873,0.02597
4448.97720,0.02480
4450.90567,0.02672
4452.83413,0.02661
4454.76260,0.02262
4456.69107,0.01872
4458.61954,0.01642
4460.54801,0.01279
4462.47648,0.00935
4464.40495,0.01060
4466.33341,0.01264
4468.26188,0.00851
4470.19035,0.00118
4472.11882,0.00150
4474.04729,0.01045
4475.97576,0.02217
4477.90423,0.02967
4479.83270,0.02458
4481.76116,0.01205
4483.68963,0.00595
4485.61810,0.00882
4487.54657,0.01034
4489.47504,0.00617
4491.40351,0.00469
4493.33198,0.00633
4495.26044,0.00620
4497.18891,0.01086
4499.11738,0.02005
4501.04585,0.01948
4502.97432,0.00779
4504.90279,0.00049
4506.83126,0.00294
4508.75973,0.00959
4510.68819,0.01817
4512.61666,0.01785
4514.54513,0.00647
4516.47360,0.00293
4518.40207,0.01024
4520.33054,0.01529
4522.25901,0.01168
4524.18747,0.00401
4526.11594,0.00323
4528.04441,0.01199
4529.97288,0.01950
4531.90135,0.02074
4533.82982,0.02047
4535.75829,0.01344
4537.68676,-0.00041
4539.61522,-0.00657
4541.54369,-0.00403
4543.47216,0.00083
4545.40063,0.00759
4547.32910,0.01143
4549.25757,0.01109
4551.18604,0.01464
4553.11450,0.01926
4555.04297,0.01341
4556.97144,0.00409
4558.89991,0.00356
4560.82838,0.00409
4562.75685,-0.00041
4564.68532,0.00011
4566.61378,0.00807
4568.54225,0.01397
4570.47072,0.01791
4572.39919,0.02253
4574.32766,0.02113
4576.25613,0.01123
4578.18460,-0.00060
4580.11307,-0.00551
4582.04153,-0.00180
4583.97000,0.00157
4585.89847,0.00128
4587.82694,0.00161
4589.75541,0.00080
4591.68388,-0.00061
4593.61235,0.00063
4595.54081,0.00499
4597.46928,0.01555
4599.39775,0.02358
4601.32622,0.02105
4603.25469,0.01460
4605.18316,0.00514
4607.11163,-0.00378
4609.04010,-0.00563
4610.96856,-0.00937
4612.89703,-0.01435
4614.82550,-0.00865
4616.75397,0.00019
4618.68244,0.00584
4620.61091,0.01270
4622.53938,0.01483
4624.46784,0.01004
4626.39631,0.00657
4628.32478,0.00675
4630.25325,0.00589
4632.18172,0.00646
4634.11019,0.00653
4636.03866,-0.00398
4637.96713,-0.01869
4639.89559,-0.01988
4641.82406,-0.01025
4643.75253,-0.00747
4645.68100,-0.01362
4647.60947,-0.01873
4649.53794,-0.01561
4651.46641,-0.00424
4653.39487,0.00479
4655.32334,0.00458
4657.25181,0.00100
4659.18028,0.00322
4661.10875,0.01377
4663.03722,0.01907
4664.96569,0.00914
4666.89416,0.00112
4668.82262,0.00536
4670.75109,0.00977
4672.67956,0.00675
4674.60803,0.00047
4676.53650,-0.00005
4678.46497,0.00501
4680.39344,0.00855
4682.32190,0.00985
4684.25037,0.00589
4686.17884,-0.00400
4688.10731,-0.01337
4690.03578,-0.01810
4691.96425,-0.01365
4693.89272,-0.00060
4695.82119,0.00760
4697.74965,0.00374
4699.67812,0.00172
4701.60659,0.00795
4703.53506,0.00878
4705.46353,0.00562
4707.39200,0.00552
4709.32047,0.00195
4711.24893,-0.00129
4713.17740,0.00254
4715.10587,0.01134
4717.03434,0.02334
4718.96281,0.02542
4720.89128,0.00958
4722.81975,-0.00235
4724.74821,0.00411
4726.67668,0.01164
4728.60515,0.00677
4730.53362,-0.00256
4732.46209,-0.00121
4734.39056,0.01243
4736.31903,0.02157
4738.24750,0.01321
4740.17596,-0.00227
4742.10443,-0.00310
4744.03290,0.00961
4745.96137,0.01387
4747.88984,0.00815
4749.81831,0.01054
4751.74678,0.01557
4753.67524,0.01263
4755.60371,0.01192
4757.53218,0.00903
4759.46065,-0.00127
4761.38912,-0.00456
4763.31759,0.00164
4765.24606,0.01377
4767.17453,0.02391
4769.10299,0.01871
4771.03146,0.00710
4772.95993,0.00379
4774.88840,0.00353
4776.81687,-0.00148
4778.74534,-0.00688
4780.67381,-0.00818
4782.60227,-0.00775
4784.53074,-0.00581
4786.45921,0.00204
4788.38768,0.01253
4790.31615,0.01542
4792.24462,0.01349
4794.17309,0.01588
4796.10156,0.01718
4798.03002,0.00934
4799.95849,0.00258
4801.88696,0.00499
4803.81543,0.00474
4805.74390,-0.00421
4807.67237,-0.01192
4809.60084,-0.01113
4811.52930,-0.00405
4813.45777,0.00311
4815.38624,0.00754
4817.31471,0.00909
4819.24318,0.00463
4821.17165,-0.00648
4823.10012,-0.01716
4825.02859,-0.01626
4826.95705,-0.00218
4828.88552,0.01680
4830.81399,0.03111
4832.74246,0.03250
4834.67093,0.02436
4836.59940,0.01882
4838.52787,0.01800
4840.45633,0.01284
4842.38480,0.00314
4844.31327,-0.00377
4846.24174,-0.00471
4848.17021,0.00777
4850.09868,0.02417
4852.02715,0.02247
4853.95562,0.00810
4855.88408,-0.00733
4857.81255,-0.02257
4859.74102,-0.02527
4861.66949,-0.00560
4863.59796,0.01411
4865.52643,0.01436
4867.45490,0.01132
4869.38336,0.01842
4871.31183,0.02252
4873.24030,0.01169
4875.16877,-0.00009
4877.09724,0.00245
4879.02571,0.00775
4880.95418,0.00436
4882.88265,-0.00234
4884.81111,-0.01098
4886.73958,-0.01763
4888.66805,-0.01571
4890.59652,-0.00827
4892.52499,0.00565
4894.45346,0.02139
4896.38193,0.02406
4898.31039,0.01635
4900.23886,0.01472
4902.16733,0.01642
4904.09580,0.00929
4906.02427,0.00101
4907.95274,0.00089
4909.88121,0.00095
4911.80967,-0.00474
4913.73814,-0.00861
4915.66661,-0.00777
4917.59508,-0.00588
4919.52355,-0.00672
4921.45202,-0.01434
4923.38049,-0.02170
4925.30896,-0.02014
4927.23742,-0.00894
4929.16589,0.00651
4931.09436,0.01211
4933.02283,0.00392
4934.95130,-0.00128
4936.87977,0.00190
4938.80824,0.00356
4940.73670,0.00386
4942.66517,0.00542
4944.59364,0.00418
4946.52211,0.00248
4948.45058,0.00945
4950.37905,0.02265
4952.30752,0.03117
4954.23599,0.03077
4956.16445,0.02163
4958.09292,0.01356
4960.02139,0.01734
4961.94986,0.02560
4963.87833,0.02026
4965.80680,0.00130
4967.73527,-0.00723
4969.66373,0.00137
4971.59220,0.00930
4973.52067,0.00585
4975.44914,-0.00774
4977.37761,-0.02204
4979.30608,-0.02124
4981.23455,-0.00165
4983.16302,0.01782
4985.09148,0.01808
4987.01995,0.00844
4988.94842,0.00763
4990.87689,0.01700
4992.80536,0.02542
4994.73383,0.02142
4996.66230,0.00602
4998.59076,-0.00837
5000.51923,-0.00615
5002.44770,0.01270
5004.37617,0.02992
5006.30464,0.03403
5008.23311,0.02347
5010.16158,0.00685
5012.09005,0.00106
5014.01851,0.00366
5015.94698,0.00131
5017.87545,0.00456
5019.80392,0.01860
5021.73239,0.02600
5023.66086,0.02142
5025.58933,0.01456
5027.51779,0.01411
5029.44626,0.01135
5031.37473,0.00102
5033.30320,0.00060
5035.23167,0.01454
5037.16014,0.02407
5039.08861,0.02067
5041.01708,0.01421
5042.94554,0.01255
5044.87401,0.01555
5046.80248,0.01855
5048.73095,0.01898
5050.65942,0.01822
5052.58789,0.01767
5054.51636,0.01639
5056.44482,0.01419
5058.37329,0.01810
5060.30176,0.02803
5062.23023,0.03410
5064.15870,0.03144
5066.08717,0.02995
5068.01564,0.03382
5069.94410,0.03233
5071.87257,0.03182
5073.80104,0.03269
5075.72951,0.02365
5077.65798,0.01351
5079.58645,0.01547
5081.51492,0.02681
5083.44339,0.02893
5085.37185,0.02086
5087.30032,0.01830
5089.22879,0.01435
5091.15726,0.00734
5093.08573,0.01098
5095.01420,0.01558
5096.94267,0.00954
5098.87113,-0.00375
5100.79960,-0.02034
5102.72807,-0.02555
5104.65654,-0.01112
5106.58501,0.00365
5108.51348,0.00570
5110.44195,0.01033
5112.37042,0.02151
5114.29888,0.02397
5116.22735,0.02217
5118.15582,0.02431
5120.08429,0.02913
5122.01276,0.03749
5123.94123,0.03965
5125.86970,0.03114
5127.79816,0.02033
5129.72663,0.00764
5131.65510,0.00296
5133.58357,0.01876
5135.51204,0.03722
5137.44051,0.04211
5139.36898,0.04030
5141.29745,0.03801
5143.22591,0.03445
5145.15438,0.02271
5147.08285,0.00687
5149.01132,0.00004
5150.93979,-0.00417
5152.86826,-0.00771
5154.79673,0.00198
5156.72519,0.01772
5158.65366,0.02974
5160.58213,0.04110
5162.51060,0.03933
5164.43907,0.02439
5166.36754,0.01808
5168.29601,0.02240
5170.22448,0.03386
5172.15294,0.04576
5174.08141,0.04228
5176.00988,0.03019
5177.93835,0.02494
5179.86682,0.02521
5181.79529,0.02941
5183.72376,0.03345
5185.65222,0.02638
5187.58069,0.01162
5189.50916,0.00330
5191.43763,0.00867
5193.36610,0.02031
5195.29457,0.02957
5197.22304,0.03520
5199.15151,0.03081
5201.07997,0.02075
5203.00844,0.02018
5204.93691,0.02931
5206.86538,0.03083
5208.79385,0.01974
5210.72232,0.01308
5212.65079,0.01430
5214.57925,0.01638
5216.50772,0.01886
5218.43619,0.02097
5220.36466,0.02185
5222.29313,0.03023
5224.22160,0.04798
5226.15007,0.05849
5228.07854,0.04339
5230.00700,0.00760
5231.93547,-0.02013
5233.86394,-0.01061
5235.79241,0.02402
5237.72088,0.04199
5239.64935,0.03437
5241.57782,0.02415
5243.50628,0.02728
5245.43475,0.04920
5247.36322,0.06878
5249.29169,0.06251
5251.22016,0.04756
5253.14863,0.04838
5255.07710,0.06522
5257.00556,0.08447
5258.93403,0.09244
5260.86250,0.08271
5262.79097,0.06036
5264.71944,0.04080
5266.64791,0.02818
5268.57638,0.01490
5270.50485,0.01190
5272.43331,0.02998
5274.36178,0.05094
5276.29025,0.05829
5278.21872,0.05840
5280.14719,0.05362
5282.07566,0.03775
5284.00413,0.02558
5285.93259,0.03232
5287.86106,0.04504
5289.78953,0.05036
5291.71800,0.05526
5293.64647,0.06727
5295.57494,0.06989
5297.50341,0.05252
5299.43188,0.03434
5301.36034,0.03060
5303.28881,0.04165
5305.21728,0.05964
5307.14575,0.06881
5309.07422,0.07302
5311.00269,0.07305
5312.93116,0.05568
5314.85962,0.04291
5316.78809,0.05720
5318.71656,0.07819
5320.64503,0.08391
5322.57350,0.08434
5324.50197,0.09194
5326.43044,0.08803
5328.35891,0.07582
5330.28737,0.07680
5332.21584,0.06208
5334.14431,0.02540
5336.07278,0.01943
5338.00125,0.05862
5339.92972,0.08818
5341.85819,0.08152
5343.78665,0.06290
5345.71512,0.04076
5347.64359,0.02087
5349.57206,0.01612
5351.50053,0.01963
5353.42900,0.02557
5355.35747,0.04414
5357.28594,0.06654
5359.21440,0.07908
5361.14287,0.08531
5363.07134,0.09126
5364.99981,0.08943
5366.92828,0.07079
5368.85675,0.04730
5370.78522,0.03753
5372.71368,0.04656
5374.64215,0.06918
5376.57062,0.08370
5378.49909,0.07177
5380.42756,0.05418
5382.35603,0.05584
5384.28450,0.07331
5386.21297,0.08786
5388.14143,0.09621
5390.06990,0.09273
5391.99837,0.07300
5393.92684,0.04101
5395.85531,0.01112
5397.78378,0.01347
5399.71225,0.05033
5401.64071,0.09403
5403.56918,0.10816
5405.49765,0.07755
5407.42612,0.05243
5409.35459,0.07717
5411.28306,0.10762
5413.21153,0.09282
5415.13999,0.06151
5417.06846,0.04900
5418.99693,0.05056
5420.92540,0.05220
5422.85387,0.05700
5424.78234,0.07411
5426.71081,0.09767
5428.63928,0.12170
5430.56774,0.12768
5432.49621,0.11395
5434.42468,0.10117
5436.35315,0.09064
5438.28162,0.08334
5440.21009,0.07546
5442.13856,0.05912
5444.06702,0.05004
5445.99549,0.04676
5447.92396,0.03829
5449.85243,0.04612
5451.78090,0.07352
5453.70937,0.09685
5455.63784,0.09773
5457.56631,0.07137
5459.49477,0.05386
5461.42324,0.07425
5463.35171,0.09871
5465.28018,0.09634
5467.20865,0.09597
5469.13712,0.11171
5471.06559,0.11200
5472.99405,0.08679
5474.92252,0.05123
5476.85099,0.04219
5478.77946,0.07658
5480.70793,0.10852
5482.63640,0.09979
5484.56487,0.06973
5486.49334,0.05231
5488.42180,0.05416
5490.35027,0.07236
5492.27874,0.09348
5494.20721,0.09097
5496.13568,0.08123
5498.06415,0.08352
5499.99262,0.07906
5501.92108,0.07221
5503.84955,0.08495
5505.77802,0.10167
5507.70649,0.10034
5509.63496,0.08927
5511.56343,0.06717
5513.49190,0.03428
5515.42037,0.02622
5517.34883,0.04928
5519.27730,0.06992
5521.20577,0.07638
5523.13424,0.07728
5525.06271,0.07668
5526.99118,0.08203
5528.91965,0.09355
5530.84811,0.09048
5532.77658,0.05918
5534.70505,0.01983
5536.63352,0.00834
5538.56199,0.02413
5540.49046,0.04165
5542.41893,0.04714
5544.34740,0.03859
5546.27586,0.03706
5548.20433,0.05397
5550.13280,0.06842
5552.06127,0.06720
5553.98974,0.05590
5555.91821,0.03214
5557.84668,0.00320
5559.77514,0.00371
5561.70361,0.03640
5563.63208,0.06440
5565.56055,0.07028
5567.48902,0.06934
5569.41749,0.07283
5571.34596,0.08220
5573.27443,0.09135
5575.20289,0.08377
5577.13136,0.06889
5579.05983,0.06641
5580.98830,0.07502
5582.91677,0.08077
5584.84524,0.06866
5586.77371,0.05612
5588.70217,0.06684
5590.63064,0.07454
5592.55911,0.06454
5594.48758,0.05876
5596.41605,0.06581
5598.34452,0.08683
5600.27299,0.09713
5602.20145,0.07298
5604.12992,0.04752
5606.05839,0.05004
5607.98686,0.06824
5609.91533,0.08556
5611.84380,0.10195
5613.77227,0.11087
5615.70074,0.09054
5617.62920,0.05402
5619.55767,0.03582
5621.48614,0.02933
5623.41461,0.03526
5625.34308,0.07084
5627.27155,0.09242
5629.20002,0.06612
5631.12848,0.03856
5633.05695,0.03769
5634.98542,0.03957
5636.91389,0.03595
5638.84236,0.04190
5640.77083,0.05146
5642.69930,0.06135
5644.62777,0.07720
5646.55623,0.08503
5648.48470,0.07867
5650.41317,0.07745
5652.34164,0.08046
5654.27011,0.07476
5656.19858,0.07612
5658.12705,0.08192
5660.05551,0.07068
5661.98398,0.04990
5663.91245,0.04059
5665.84092,0.05912
5667.76939,0.08937
5669.69786,0.10449
5671.62633,0.10432
5673.55480,0.09839
5675.48326,0.10200
5677.41173,0.10346
5679.34020,0.07705
5681.26867,0.04388
5683.19714,0.03039
5685.12561,0.03636
5687.05408,0.05812
5688.98254,0.07550
5690.91101,0.07342
5692.83948,0.08952
5694.76795,0.12739
5696.69642,0.13684
5698.62489,0.11581
5700.55336,0.09702
5702.48183,0.08805
5704.41029,0.07460
5706.33876,0.05404
5708.26723,0.04627
5710.19570,0.06269
5712.12417,0.08875
5714.05264,0.09504
5715.98111,0.08962
5717.90957,0.10136
5719.83804,0.10075
5721.76651,0.06895
5723.69498,0.05517
5725.62345,0.07744
5727.55192,0.09325
5729.48039,0.07386
5731.40886,0.05484
5733.33732,0.07014
5735.26579,0.08811
5737.19426,0.07193
5739.12273,0.04115
5741.05120,0.03231
5742.97967,0.05561
5744.90814,0.08287
5746.83660,0.08224
5748.76507,0.05006
5750.69354,0.02497
5752.62201,0.06008
5754.55048,0.12892
5756.47895,0.16192
5758.40742,0.15314
5760.33588,0.12246
5762.26435,0.08343
5764.19282,0.06391
5766.12129,0.07313
5768.04976,0.09368
5769.97823,0.10800
5771.90670,0.09788
5773.83517,0.06466
5775.76363,0.05292
5777.69210,0.07656
5779.62057,0.09072
5781.54904,0.09798
5783.47751,0.12103
5785.40598,0.13558
5787.33445,0.12395
5789.26291,0.08988
5791.19138,0.06467
5793.11985,0.08033
5795.04832,0.09870
5796.97679,0.06647
5798.90526,0.03064
5800.83373,0.04707
5802.76220,0.06006
5804.69066,0.04191
5806.61913,0.03698
5808.54760,0.03687
5810.47607,0.03436
5812.40454,0.03375
5814.33301,0.02303
5816.26148,0.02541
5818.18994,0.05353
5820.11841,0.09093
5822.04688,0.12264
5823.97535,0.12418
5825.90382,0.11871
5827.83229,0.14488
5829.76076,0.15955
5831.68923,0.12910
5833.61769,0.09175
5835.54616,0.06447
5837.47463,0.03416
5839.40310,0.00621
5841.33157,0.00434
5843.26004,0.03222
5845.18851,0.05850
5847.11697,0.07173
5849.04544,0.09722
5850.97391,0.13138
5852.90238,0.14679
5854.83085,0.14341
5856.75932,0.12429
5858.68779,0.10013
5860.61626,0.09062
5862.54472,0.08491
5864.47319,0.06895
5866.40166,0.07583
5868.33013,0.11409
5870.25860,0.12601
5872.18707,0.10249
5874.11554,0.08002
5876.04400,0.06768
5877.97247,0.06822
5879.90094,0.08015
5881.82941,0.09204
5883.75788,0.09190
5885.68635,0.08362
5887.61482,0.09228
5889.54329,0.11864
5891.47175,0.11855
5893.40022,0.08099
5895.32869,0.06236
5897.25716,0.07187
5899.18563,0.06138
5901.11410,0.03687
5903.04257,0.03098
5904.97103,0.03208
5906.89950,0.02403
5908.82797,0.03026
5910.75644,0.05875
5912.68491,0.08498
5914.61338,0.10134
5916.54185,0.11207
5918.47032,0.11530
5920.39878,0.10068
5922.32725,0.06819
5924.25572,0.05726
5926.18419,0.09289
5928.11266,0.12321
5930.04113,0.10327
5931.96960,0.05627
5933.89806,0.02220
5935.82653,0.02491
5937.75500,0.04361
5939.68347,0.04795
5941.61194,0.05907
5943.54041,0.08475
5945.46888,0.09341
5947.39734,0.09386
5949.32581,0.10161
5951.25428,0.11250
5953.18275,0.09187
5955.11122,0.01767
5957.03969,-0.03161
5958.96816,-0.00280
5960.89663,0.05530
5962.82509,0.08589
5964.75356,0.08715
5966.68203,0.08161
5968.61050,0.06447
5970.53897,0.04415
5972.46744,0.05075
5974.39591,0.07864
5976.32437,0.11149
5978.25284,0.12584
5980.18131,0.11243
5982.10978,0.10753
5984.03825,0.10824
5985.96672,0.08978
5987.89519,0.07544
5989.82366,0.07767
5991.75212,0.09683
5993.68059,0.13519
5995.60906,0.16943
5997.53753,0.16629
5999.46600,0.13568
6001.39447,0.10887
6003.32294,0.12116
6005.25140,0.18143
6007.17987,0.19550
6009.10834,0.12644
6011.03681,0.05989
6012.96528,0.01502
6014.89375,-0.01208
6016.82222,0.03124
6018.75069,0.11586
6020.67915,0.14610
6022.60762,0.12521
6024.53609,0.08828
6026.46456,0.06487
6028.39303,0.07504
6030.32150,0.07727
6032.24997,0.06628
6034.17843,0.08531
6036.10690,0.11137
6038.03537,0.11065
6039.96384,0.10184
6041.89231,0.08684
6043.82078,0.05894
6045.74925,0.04356
6047.67772,0.06904
6049.60618,0.11592
6051.53465,0.13073
6053.46312,0.12207
6055.39159,0.12435
6057.32006,0.12482
6059.24853,0.13169
6061.17700,0.18997
6063.10546,0.25551
6065.03393,0.24348
6066.96240,0.18207
6068.89087,0.12265
6070.81934,0.07580
6072.74781,0.05144
6074.67628,0.04482
6076.60475,0.02944
6078.53321,0.01250
6080.46168,0.02328
6082.39015,0.05382
6084.31862,0.07983
6086.24709,0.08279
6088.17556,0.06242
6090.10403,0.05226
6092.03249,0.05949
6093.96096,0.05022
6095.88943,0.02019
6097.81790,-0.00603
6099.74637,-0.00622
6101.67484,0.03993
6103.60331,0.09471
6105.53177,0.10280
6107.46024,0.08388
6109.38871,0.09095
6111.31718,0.12468
6113.24565,0.12735
6115.17412,0.09100
6117.10259,0.07735
6119.03106,0.07985
6120.95952,0.05368
6122.88799,0.04110
6124.81646,0.03643
6126.74493,-0.00879
6128.67340,-0.04002
6130.60187,-0.00516
6132.53034,0.05845
6134.45880,0.09967
6136.38727,0.10434
6138.31574,0.11590
6140.24421,0.12711
6142.17268,0.09782
6144.10115,0.08359
6146.02962,0.11302
6147.95809,0.12471
6149.88655,0.09003
6151.81502,0.04991
6153.74349,0.05247
6155.67196,0.08262
6157.60043,0.09622
6159.52890,0.07416
6161.45737,0.04192
6163.38583,0.07928
6165.31430,0.17029
6167.24277,0.17702
6169.17124,0.11138
6171.09971,0.07529
6173.02818,0.07331
6174.95665,0.07381
6176.88512,0.08838
6178.81358,0.11201
6180.74205,0.10830
6182.67052,0.09618
6184.59899,0.09858
6186.52746,0.08868
6188.45593,0.05376
6190.38440,0.02545
6192.31286,0.04916
6194.24133,0.10586
6196.16980,0.13715
6198.09827,0.12320
6200.02674,0.08987
6201.95521,0.07344
6203.88368,0.06393
6205.81215,0.04452
6207.74061,0.04127
6209.66908,0.06722
6211.59755,0.10171
6213.52602,0.11564
6215.45449,0.10064
6217.38296,0.06859
6219.31143,0.02585
6221.23989,0.00583
6223.16836,0.04321
6225.09683,0.07124
6227.02530,0.04149
6228.95377,0.03111
6230.88224,0.09495
6232.81071,0.15092
6234.73918,0.14176
6236.66764,0.15264
6238.59611,0.17723
6240.52458,0.15345
6242.45305,0.10017
6244.38152,0.03409
6246.30999,-0.00277
6248.23846,0.04848
6250.16692,0.13582
6252.09539,0.16215
6254.02386,0.13455
6255.95233,0.08654
6257.88080,0.02643
6259.80927,-0.00983
6261.73774,-0.00423
6263.66621,0.02996
6265.59467,0.05339
6267.52314,0.03319
6269.45161,0.01330
6271.38008,0.02656
6273.30855,0.04026
6275.23702,0.03352
6277.16549,0.02600
6279.09395,0.01231
6281.02242,0.00849
6282.95089,0.05125
6284.87936,0.08222
6286.80783,0.04799
6288.73630,-0.00979
6290.66477,-0.04699
6292.59323,-0.04006
6294.52170,-0.00472
6296.45017,0.00556
6298.37864,0.00249
6300.30711,0.04328
6302.23558,0.09458
6304.16405,0.08824
6306.09252,0.05685
6308.02098,0.04850
6309.94945,0.05698
6311.87792,0.04507
6313.80639,0.02106
6315.73486,0.03299
6317.66333,0.06522
6319.59180,0.07100
6321.52026,0.06504
6323.44873,0.07910
6325.37720,0.10358
6327.30567,0.12205
6329.23414,0.14486
6331.16261,0.15920
6333.09108,0.11939
6335.01955,0.06904
6336.94801,0.05948
6338.87648,0.07504
6340.80495,0.11648
6342.73342,0.13235
6344.66189,0.08303
6346.59036,0.04603
6348.51883,0.07093
6350.44729,0.10530
6352.37576,0.10110
6354.30423,0.08016
6356.23270,0.08091
6358.16117,0.09121
6360.08964,0.08058
6362.01811,0.06662
6363.94658,0.09411
6365.87504,0.14073
6367.80351,0.13543
6369.73198,0.10489
6371.66045,0.09661
6373.58892,0.10927
6375.51739,0.14756
6377.44586,0.18349
6379.37432,0.19961
6381.30279,0.20708
6383.23126,0.17239
6385.15973,0.07418
6387.08820,0.00911
6389.01667,0.03909
6390.94514,0.09901
6392.87361,0.10404
6394.80207,0.07405
6396.73054,0.08690
6398.65901,0.12705
6400.58748,0.13448
6402.51595,0.10621
6404.44442,0.08152
6406.37289,0.07847
6408.30135,0.08184
6410.22982,0.07618
6412.15829,0.06862
6414.08676,0.06904
6416.01523,0.03914
6417.94370,-0.01309
6419.87217,0.00299
6421.80064,0.03788
6423.72910,0.04502
6425.65757,0.07370
6427.58604,0.09537
6429.51451,0.06730
6431.44298,0.01040
6433.37145,-0.03255
6435.29992,-0.02785
6437.22838,0.02604
6439.15685,0.07811
6441.08532,0.10763
6443.01379,0.14246
6444.94226,0.15095
6446.87073,0.11409
6448.79920,0.07207
6450.72766,0.03827
6452.65613,0.00657
6454.58460,0.01928
6456.51307,0.10516
6458.44154,0.16946
6460.37001,0.13331
6462.29848,0.06497
6464.22695,0.05790
6466.15541,0.09386
6468.08388,0.08944
6470.01235,0.04213
6471.94082,0.02098
6473.86929,0.03539
6475.79776,0.03475
6477.72623,0.02807
6479.65469,0.09030
6481.58316,0.15400
6483.51163,0.10030
6485.44010,0.02861
6487.36857,0.04245
6489.29704,0.06455
6491.22551,0.03070
6493.15398,-0.00629
6495.08244,-0.04226
6497.01091,-0.07257
6498.93938,-0.03743
6500.86785,0.03612
6502.79632,0.07317
6504.72479,0.08975
6506.65326,0.11048
6508.58172,0.08463
6510.51019,0.01157
6512.43866,-0.01445
6514.36713,0.00985
6516.29560,0.00661
6518.22407,-0.01927
6520.15254,0.00613
6522.08101,0.06043
6524.00947,0.02610
6525.93794,-0.06895
6527.86641,-0.05772
6529.79488,0.00427
6531.72335,-0.03622
6533.65182,-0.10017
6535.58029,-0.07167
6537.50875,-0.01843
6539.43722,-0.01175
6541.36569,-0.01806
6543.29416,0.02159
6545.22263,0.07441
6547.15110,0.10059
6549.07957,0.14219
6551.00804,0.19351
6552.93650,0.19063
6554.86497,0.12665
6556.79344,0.06930
6558.72191,0.04639
6560.65038,0.00283
6562.57885,-0.03020
6564.50732,0.04047
6566.43578,0.15768
6568.36425,0.19776
6570.29272,0.14249
6572.22119,0.06224
6574.14966,0.04338
6576.07813,0.06026
6578.00660,0.05893
6579.93507,0.08483
6581.86353,0.17982
6583.79200,0.24444
6585.72047,0.16663
6587.64894,0.05637
6589.57741,0.03836
6591.50588,0.05625
6593.43435,0.06693
6595.36281,0.07519
6597.29128,0.05864
6599.21975,0.05362
6601.14822,0.09463
6603.07669,0.12221
6605.00516,0.11428
6606.93363,0.11251
6608.86210,0.10530
6610.79056,0.06653
6612.71903,0.04519
6614.64750,0.09186
6616.57597,0.14703
6618.50444,0.12700
6620.43291,0.04427
6622.36138,-0.04963
6624.28984,-0.08033
6626.21831,-0.02827
6628.14678,0.06996
6630.07525,0.15164
6632.00372,0.15752
6633.93219,0.14188
6635.86066,0.10617
6637.78912,0.02161
6639.71759,-0.03777
6641.64606,-0.05817
6643.57453,-0.03105
6645.50300,0.07060
6647.43147,0.13622
6649.35994,0.09975
6651.28841,0.07590
6653.21687,0.10368
6655.14534,0.12353
6657.07381,0.11232
6659.00228,0.11131
6660.93075,0.11102
6662.85922,0.06091
6664.78769,0.02186
6666.71615,0.02686
6668.64462,0.02544
6670.57309,0.03741
6672.50156,0.10312
6674.43003,0.15469
6676.35850,0.13892
6678.28697,0.11030
6680.21544,0.11031
6682.14390,0.10926
6684.07237,0.08294
6686.00084,0.03970
6687.92931,0.02265
6689.85778,0.09056
6691.78625,0.13207
6693.71472,0.07158
6695.64318,0.01115
6697.57165,-0.01708
6699.50012,-0.03915
6701.42859,-0.00934
6703.35706,0.04730
6705.28553,0.07446
6707.21400,0.08515
6709.14247,0.09458
6711.07093,0.08925
6712.99940,0.03852
6714.92787,0.00262
6716.85634,0.10085
6718.78481,0.20835
6720.71328,0.17975
6722.64175,0.15918
6724.57021,0.17942
6726.49868,0.14814
6728.42715,0.11253
6730.35562,0.10737
6732.28409,0.06877
6734.21256,0.01401
6736.14103,0.03353
6738.06950,0.07614
6739.99796,0.03842
6741.92643,-0.04871
6743.85490,-0.05804
6745.78337,-0.01211
6747.71184,-0.00418
6749.64031,-0.00711
6751.56878,0.00260
6753.49724,-0.01246
6755.42571,-0.03271
6757.35418,-0.02834
6759.28265,0.00306
6761.21112,0.04193
6763.13959,0.05481
6765.06806,0.04363
6766.99653,0.01621
6768.92499,-0.03908
6770.85346,-0.09898
6772.78193,-0.09440
6774.71040,-0.01420
6776.63887,0.07411
6778.56734,0.10408
6780.49581,0.07429
6782.42427,0.00058
6784.35274,-0.10457
6786.28121,-0.17954
6788.20968,-0.11781
6790.13815,0.07097
6792.06662,0.23312
6793.99509,0.31488
6795.92355,0.33286
6797.85202,0.26981
6799.78049,0.19088
6801.70896,0.16219
6803.63743,0.19910
6805.56590,0.23358
6807.49437,0.18435
6809.42284,0.09072
6811.35130,0.03024
6813.27977,0.03638
6815.20824,0.06058
6817.13671,0.05817
6819.06518,0.06007
6820.99365,0.07322
6822.92212,0.04198
6824.85058,-0.03310
6826.77905,-0.07113
6828.70752,-0.06796
6830.63599,-0.04387
6832.56446,0.01178
6834.49293,0.03763
6836.42140,0.00730
6838.34987,0.03603
6840.27833,0.11885
6842.20680,0.11523
6844.13527,0.02632
6846.06374,-0.01081
6847.99221,0.03694
6849.92068,0.10724
6851.84915,0.16658
6853.77761,0.17393
6855.70608,0.13048
6857.63455,0.09805
6859.56302,0.06263
6861.49149,-0.00099
6863.41996,-0.04692
6865.34843,-0.01839
6867.27690,0.05900
6869.20536,0.09709
6871.13383,0.08921
6873.06230,0.02961
6874.99077,-0.08779
6876.91924,-0.15608
6878.84771,-0.09627
6880.77618,0.00076
6882.70464,0.00857
6884.63311,-0.05207
6886.56158,-0.09894
6888.49005,-0.04486
6890.41852,0.08506
6892.34699,0.13364
6894.27546,0.05095
6896.20393,-0.00989
6898.13239,0.06909
6900.06086,0.15439
6901.98933,0.13122
6903.91780,0.09711
6905.84627,0.12855
6907.77474,0.12135
6909.70321,0.05364
6911.63167,0.02911
6913.56014,0.03847
6915.48861,0.06549
6917.41708,0.16219
6919.34555,0.24151
6921.27402,0.15748
6923.20249,0.02240
6925.13096,-0.01419
6927.05942,0.03938
6928.98789,0.08011
6930.91636,0.04238
6932.84483,-0.01375
6934.77330,-0.01170
6936.70177,0.05137
6938.63024,0.12440
6940.55870,0.09334
6942.48717,-0.01856
6944.41564,-0.02152
6946.34411,0.09343
6948.27258,0.16917
6950.20105,0.14544
6952.12952,0.06453
6954.05799,-0.03152
6955.98645,-0.06552
6957.91492,-0.03560
6959.84339,-0.00151
6961.77186,0.02656
6963.70033,0.01741
6965.62880,-0.02043
6967.55727,-0.05335
6969.48573,-0.13019
6971.41420,-0.17897
6973.34267,-0.11510
6975.27114,-0.08495
6977.19961,-0.07652
6979.12808,-0.00827
6981.05655,0.04165
6982.98501,0.02301
6984.91348,0.02491
6986.84195,0.06828
6988.77042,0.03487
6990.69889,-0.06874
6992.62736,-0.13466
6994.55583,-0.11252
6996.48430,-0.05581
6998.41276,-0.05273
7000.34123,-0.03580
7002.26970,0.04457
7004.19817,0.07745
7006.12664,0.04379
7008.05511,0.07704
7009.98358,0.16805
7011.91204,0.14088
7013.84051,-0.00048
7015.76898,-0.01810
7017.69745,0.06723
7019.62592,0.10159
7021.55439,0.12659
7023.48286,0.14853
7025.41133,0.08421
7027.33979,0.00854
7029.26826,0.01526
7031.19673,0.05828
7033.12520,0.06614
7035.05367,-0.00483
7036.98214,-0.05883
7038.91061,0.00044
7040.83907,0.15131
7042.76754,0.32446
7044.69601,0.35146
7046.62448,0.25996
7048.55295,0.23820
7050.48142,0.23154
7052.40989,0.15565
7054.33836,0.12548
7056.26682,0.16566
7058.19529,0.11455
7060.12376,-0.01615
7062.05223,-0.08728
7063.98070,-0.04893
7065.90917,0.05146
7067.83764,0.13123
7069.76610,0.14165
7071.69457,0.08345
7073.62304,0.04023
7075.55151,0.01077
7077.47998,-0.04475
7079.40845,-0.00739
7081.33692,0.14276
7083.26539,0.11888
7085.19385,-0.00137
7087.12232,0.03290
7089.05079,0.14095
7090.97926,0.10709
7092.90773,0.05415
7094.83620,0.11234
7096.76467,0.11380
7098.69313,0.01154
7100.62160,-0.05080
7102.55007,-0.07540
7104.47854,-0.09587
7106.40701,-0.06697
7108.33548,0.02303
7110.26395,0.07709
7112.19242,0.08225
7114.12088,0.09784
7116.04935,0.08899
7117.97782,0.03426
7119.90629,0.01390
7121.83476,0.02724
7123.76323,0.06325
7125.69170,0.13583
7127.62016,0.20258
7129.54863,0.18085
7131.47710,0.04401
7133.40557,-0.10007
7135.33404,-0.14595
7137.26251,-0.10200
7139.19098,-0.00879
7141.11944,0.04986
7143.04791,0.04147
7144.97638,0.03868
7146.90485,0.09770
7148.83332,0.13826
7150.76179,0.09447
7152.69026,0.06128
7154.61873,0.15986
7156.54719,0.26307
7158.47566,0.19449
7160.40413,0.02903
7162.33260,-0.06307
7164.26107,-0.09594
7166.18954,-0.10260
7168.11801,-0.00574
7170.04647,0.13564
7171.97494,0.20381
7173.90341,0.21464
7175.83188,0.16942
7177.76035,0.12863
7179.68882,0.13764
7181.61729,0.09892
7183.54576,0.03249
7185.47422,0.02064
7187.40269,0.04653
7189.33116,0.12709
7191.25963,0.18984
7193.18810,0.07125
7195.11657,-0.16323
7197.04504,-0.34157
7198.97350,-0.35253
7200.90197,-0.20216
7202.83044,0.00808
7204.75891,0.10736
7206.68738,0.00528
7208.61585,-0.08256
7210.54432,-0.03273
7212.47279,0.07923
7214.40125,0.14027
7216.32972,0.14840
7218.25819,0.15462
7220.18666,0.12715
7222.11513,0.08363
7224.04360,0.09504
7225.97207,0.13595
7227.90053,0.11596
7229.82900,0.08026
7231.75747,0.15108
7233.68594,0.24084
7235.61441,0.18699
7237.54288,0.05626
7239.47135,0.06051
7241.39982,0.16177
7243.32828,0.11912
7245.25675,0.00966
7247.18522,0.02857
7249.11369,0.09677
7251.04216,0.17118
7252.97063,0.25811
7254.89910,0.15687
7256.82756,-0.04459
7258.75603,-0.13250
7260.68450,-0.03496
7262.61297,0.15795
7264.54144,0.27879
7266.46991,0.28299
7268.39838,0.20163
7270.32685,0.07557
7272.25531,0.04205
7274.18378,0.11889
7276.11225,0.15379
7278.04072,0.17529
7279.96919,0.15717
7281.89766,-0.02742
7283.82613,-0.19310
7285.75459,-0.17438
7287.68306,-0.05899
7289.61153,0.11338
7291.54000,0.30122
7293.46847,0.32636
7295.39694,0.21985
7297.32541,0.11112
7299.25387,0.07081
7301.18234,0.14919
7303.11081,0.23352
7305.03928,0.15592
7306.96775,0.02485
7308.89622,0.02478
7310.82469,0.04260
7312.75316,0.02480
7314.68162,0.05900
7316.61009,0.06945
7318.53856,-0.03336
7320.46703,-0.10162
7322.39550,-0.02974
7324.32397,0.03427
7326.25244,0.03477
7328.18090,0.17923
7330.10937,0.28174
7332.03784,0.07519
7333.96631,-0.03357
7335.89478,0.07068
7337.82325,0.15537
7339.75172,0.17074
7341.68019,0.19860
7343.60865,0.04097
7345.53712,-0.27333
7347.46559,-0.24591
7349.39406,0.15074
7351.32253,0.37893
7353.25100,0.26614
7355.17947,0.04343
7357.10793,-0.00434
7359.03640,0.18736
7360.96487,0.23434
7362.89334,0.07002
7364.82181,0.06343
7366.75028,0.17150
7368.67875,0.14306
7370.60722,0.02838
7372.53568,-0.03441
7374.46415,0.00119
7376.39262,0.01682
7378.32109,-0.08102
7380.24956,-0.11767
7382.17803,-0.00159
7384.10650,0.16819
7386.03496,0.23586
7387.96343,0.18748
7389.89190,0.14793
7391.82037,0.12449
7393.74884,0.15919
7395.67731,0.32613
7397.60578,0.48674
7399.53425,0.53507
7401.46271,0.49656
7403.39118,0.45780
7405.31965,0.45460
7407.24812,0.34536
7409.17659,0.14356
7411.10506,0.02153
7413.03353,-0.02121
7414.96199,-0.06111
7416.89046,-0.04837
7418.81893,0.00954
7420.74740,-0.03062
7422.67587,-0.13734
7424.60434,-0.19153
7426.53281,-0.14703
7428.46128,0.04574
7430.38974,0.31010
7432.31821,0.35585
7434.24668,0.20312
7436.17515,0.08743
7438.10362,0.10557
7440.03209,0.05760
7441.96056,-0.06189
7443.88902,-0.09643
7445.81749,-0.09399
7447.74596,-0.05956
7449.67443,0.02189
7451.60290,0.10487
7453.53137,0.16080
7455.45984,0.12091
7457.38831,0.03101
7459.31677,0.03883
7461.24524,0.15058
7463.17371,0.29490
7465.10218,0.38185
7467.03065,0.19874
7468.95912,-0.11532
7470.88759,-0.29214
7472.81605,-0.28168
7474.74452,-0.19878
7476.67299,-0.01174
7478.60146,0.24543
7480.52993,0.32748
7482.45840,0.19349
7484.38687,0.08473
7486.31533,0.09245
7488.24380,0.16131
7490.17227,0.22412
7492.10074,0.19285
7494.02921,0.10771
7495.95768,0.04874
7497.88615,0.00789
