399.19301,1.27442
401.12148,1.36621
403.04995,0.82548
404.97842,0.29803
406.90689,-0.01533
408.83536,-0.13676
410.76382,-0.11908
412.69229,-0.02513
414.62076,0.02804
416.54923,0.08135
418.47770,0.23670
420.40617,0.26842
422.33464,0.15701
424.26311,0.09769
426.19157,0.01047
428.12004,-0.11441
430.04851,-0.09652
431.97698,0.05032
433.90545,0.08957
435.83392,0.09669
437.76239,0.13316
439.69085,0.12891
441.61932,0.11759
443.54779,0.15615
445.47626,0.15008
447.40473,0.06671
449.33320,0.02214
451.26167,0.05946
453.19013,0.09889
455.11860,0.09963
457.04707,0.08386
458.97554,0.08734
460.90401,0.09421
462.83248,0.06100
464.76095,0.04456
466.68942,0.07984
468.61788,0.08357
470.54635,0.03317
472.47482,0.00791
474.40329,0.10148
476.33176,0.20525
478.26023,0.23911
480.18870,0.21641
482.11716,0.16362
484.04563,0.13619
485.97410,0.15186
487.90257,0.16380
489.83104,0.13044
491.75951,0.09661
493.68798,0.08689
495.61645,0.08762
497.54491,0.09682
499.47338,0.09394
501.40185,0.08378
503.33032,0.07967
505.25879,0.06649
507.18726,0.05117
509.11573,0.05273
511.04419,0.06165
512.97266,0.09164
514.90113,0.13983
516.82960,0.15217
518.75807,0.11976
520.68654,0.08994
522.61501,0.07389
524.54348,0.06603
526.47194,0.07041
528.40041,0.08491
530.32888,0.09791
532.25735,0.09637
534.18582,0.10467
536.11429,0.11928
538.04276,0.09409
539.97122,0.05177
541.89969,0.03797
543.82816,0.05167
545.75663,0.07445
547.68510,0.08870
549.61357,0.14546
551.54204,0.50624
553.47051,0.97664
555.39897,0.89434
557.32744,0.42000
559.25591,0.17599
561.18438,0.13707
563.11285,0.10591
565.04132,0.06564
566.96979,0.04458
568.89825,0.04795
570.82672,0.06023
572.75519,0.06656
574.68366,0.04614
576.61213,0.03319
578.54060,0.06420
580.46907,0.11682
582.39754,0.14861
584.32600,0.14284
586.25447,0.11957
588.18294,0.11280
590.11141,0.12621
592.03988,0.13229
593.96835,0.12660
595.89682,0.12337
597.82528,0.12237
599.75375,0.11599
601.68222,0.11499
603.61069,0.11971
605.53916,0.10301
607.46763,0.07288
609.39610,0.07073
611.32456,0.09668
613.25303,0.11303
615.18150,0.11667
617.10997,0.11517
619.03844,0.10524
620.96691,0.10556
622.89538,0.11673
624.82385,0.12842
626.75231,0.13660
628.68078,0.11806
630.60925,0.08272
632.53772,0.07631
634.46619,0.09292
636.39466,0.10440
638.32313,0.11524
640.25159,0.11957
642.18006,0.11092
644.10853,0.11124
646.03700,0.12471
647.96547,0.12587
649.89394,0.11798
651.82241,0.12031
653.75088,0.12007
655.67934,0.11583
657.60781,0.11771
659.53628,0.11841
661.46475,0.11970
663.39322,0.12589
665.32169,0.12794
667.25016,0.12678
669.17862,0.13220
671.10709,0.12614
673.03556,0.11527
674.96403,0.11167
676.89250,0.10801
678.82097,0.10952
680.74944,0.11407
682.67791,0.10492
684.60637,0.08891
686.53484,0.08311
688.46331,0.08951
690.39178,0.09119
692.32025,0.08844
694.24872,0.10169
696.17719,0.12630
698.10565,0.13401
700.03412,0.12156
701.96259,0.11209
703.89106,0.11170
705.81953,0.11096
707.74800,0.11625
709.67647,0.14740
711.60494,0.18187
713.53340,0.17458
715.46187,0.14811
717.39034,0.13761
719.31881,0.12611
721.24728,0.10813
723.17575,0.10310
725.10422,0.11031
727.03268,0.11620
728.96115,0.11496
730.88962,0.11184
732.81809,0.11502
734.74656,0.11499
736.67503,0.10807
738.60350,0.10997
740.53197,0.11944
742.46043,0.12512
744.38890,0.12037
746.31737,0.10676
748.24584,0.10338
750.17431,0.11614
752.10278,0.12845
754.03125,0.13433
755.95971,0.13596
757.88818,0.13048
759.81665,0.12394
761.74512,0.12347
763.67359,0.12537
765.60206,0.12318
767.53053,0.11419
769.45900,0.10648
771.38746,0.11241
773.31593,0.12845
775.24440,0.13365
777.17287,0.12072
779.10134,0.11137
781.02981,0.11767
782.95828,0.12698
784.88674,0.13026
786.81521,0.13003
788.74368,0.12847
790.67215,0.12702
792.60062,0.12475
794.52909,0.11784
796.45756,0.11324
798.38602,0.11753
800.31449,0.11991
802.24296,0.11537
804.17143,0.11594
806.09990,0.12304
808.02837,0.12655
809.95684,0.12375
811.88531,0.11983
813.81377,0.12033
815.74224,0.12097
817.67071,0.11961
819.59918,0.12290
821.52765,0.12386
823.45612,0.11696
825.38459,0.11097
827.31305,0.10698
829.24152,0.10643
831.16999,0.11474
833.09846,0.12319
835.02693,0.12760
836.95540,0.13495
838.88387,0.13667
840.81234,0.12571
842.74080,0.11840
844.66927,0.12581
846.59774,0.13248
848.52621,0.13032
850.45468,0.13222
852.38315,0.13937
854.31162,0.14415
856.24008,0.14924
858.16855,0.15226
860.09702,0.14669
862.02549,0.14127
863.95396,0.13777
865.88243,0.12517
867.81090,0.11589
869.73937,0.12343
871.66783,0.13443
873.59630,0.13456
875.52477,0.12665
877.45324,0.12489
879.38171,0.13113
881.31018,0.13328
883.23865,0.12943
885.16711,0.12742
887.09558,0.12936
889.02405,0.12931
890.95252,0.12685
892.88099,0.13025
894.80946,0.13780
896.73793,0.13991
898.66640,0.13959
900.59486,0.13869
902.52333,0.13179
904.45180,0.12623
906.38027,0.12843
908.30874,0.13118
910.23721,0.13150
912.16568,0.13420
914.09414,0.13997
916.02261,0.14093
917.95108,0.13298
919.87955,0.12769
921.80802,0.13359
923.73649,0.14097
925.66496,0.14364
927.59343,0.14678
929.52189,0.14841
931.45036,0.14305
933.37883,0.13490
935.30730,0.13287
937.23577,0.13803
939.16424,0.14114
941.09271,0.13734
943.02117,0.13270
944.94964,0.13329
946.87811,0.13543
948.80658,0.13353
950.73505,0.13378
952.66352,0.14237
954.59199,0.15364
956.52045,0.15778
958.44892,0.15319
960.37739,0.14727
962.30586,0.14332
964.23433,0.13808
966.16280,0.13141
968.09127,0.12884
970.01974,0.12951
971.94820,0.13081
973.87667,0.13952
975.80514,0.15195
977.73361,0.15650
979.66208,0.15139
981.59055,0.14296
983.51902,0.14134
985.44748,0.14522
987.37595,0.14665
989.30442,0.14719
991.23289,0.15016
993.16136,0.15298
995.08983,0.14941
997.01830,0.14122
998.94677,0.14006
1000.87523,0.14557
1002.80370,0.14571
1004.73217,0.14391
1006.66064,0.15179
1008.58911,0.16170
1010.51758,0.15974
1012.44605,0.15209
1014.37451,0.15089
1016.30298,0.14907
1018.23145,0.13906
1020.15992,0.13485
1022.08839,0.14496
1024.01686,0.15718
1025.94533,0.17352
1027.87380,0.19929
1029.80226,0.20393
1031.73073,0.17440
1033.65920,0.14747
1035.58767,0.14466
1037.51614,0.15305
1039.44461,0.15728
1041.37308,0.15650
1043.30154,0.15674
1045.23001,0.15648
1047.15848,0.15333
1049.08695,0.15028
1051.01542,0.14604
1052.94389,0.13960
1054.87236,0.13971
1056.80083,0.14870
1058.72929,0.15601
1060.65776,0.15846
1062.58623,0.16100
1064.51470,0.16246
1066.44317,0.15766
1068.37164,0.15079
1070.30011,0.14982
1072.22857,0.14989
1074.15704,0.15035
1076.08551,0.15700
1078.01398,0.16032
1079.94245,0.15642
1081.87092,0.15358
1083.79939,0.15161
1085.72786,0.15110
1087.65632,0.15259
1089.58479,0.14795
1091.51326,0.14082
1093.44173,0.14261
1095.37020,0.14904
1097.29867,0.15138
1099.22714,0.15173
1101.15560,0.15213
1103.08407,0.14828
1105.01254,0.14285
1106.94101,0.14359
1108.86948,0.15074
1110.79795,0.15817
1112.72642,0.16182
1114.65489,0.16499
1116.58335,0.16761
1118.51182,0.16437
1120.44029,0.15508
1122.36876,0.14554
1124.29723,0.14025
1126.22570,0.13656
1128.15417,0.13676
1130.08263,0.14385
1132.01110,0.14757
1133.93957,0.14472
1135.86804,0.14333
1137.79651,0.14386
1139.72498,0.14439
1141.65345,0.14748
1143.58191,0.15217
1145.51038,0.15340
1147.43885,0.15220
1149.36732,0.15560
1151.29579,0.16303
1153.22426,0.16665
1155.15273,0.16420
1157.08120,0.16245
1159.00966,0.16571
1160.93813,0.16829
1162.86660,0.16520
1164.79507,0.15992
1166.72354,0.15962
1168.65201,0.16563
1170.58048,0.17138
1172.50894,0.17118
1174.43741,0.16464
1176.36588,0.15743
1178.29435,0.15412
1180.22282,0.15157
1182.15129,0.14751
1184.07976,0.14229
1186.00823,0.13792
1187.93669,0.14218
1189.86516,0.15410
1191.79363,0.15978
1193.72210,0.15546
1195.65057,0.15264
1197.57904,0.15790
1199.50751,0.16403
1201.43597,0.16322
1203.36444,0.15687
1205.29291,0.15280
1207.22138,0.15471
1209.14985,0.15593
1211.07832,0.15467
1213.00679,0.15779
1214.93526,0.16187
1216.86372,0.15916
1218.79219,0.15548
1220.72066,0.15652
1222.64913,0.15836
1224.57760,0.15877
1226.50607,0.15945
1228.43454,0.16216
1230.36300,0.16612
1232.29147,0.16778
1234.21994,0.16603
1236.14841,0.16366
1238.07688,0.16150
1240.00535,0.15912
1241.93382,0.15677
1243.86229,0.15382
1245.79075,0.15241
1247.71922,0.15541
1249.64769,0.16089
1251.57616,0.16450
1253.50463,0.16490
1255.43310,0.16379
1257.36157,0.16058
1259.29003,0.15498
1261.21850,0.15148
1263.14697,0.15418
1265.07544,0.16065
1267.00391,0.16396
1268.93238,0.16216
1270.86085,0.16202
1272.78932,0.16605
1274.71778,0.16687
1276.64625,0.16476
1278.57472,0.16683
1280.50319,0.16895
1282.43166,0.16668
1284.36013,0.16515
1286.28860,0.16477
1288.21706,0.16318
1290.14553,0.16314
1292.07400,0.16446
1294.00247,0.16468
1295.93094,0.16379
1297.85941,0.16290
1299.78788,0.16171
1301.71634,0.15421
1303.64481,0.14125
1305.57328,0.13984
1307.50175,0.15452
1309.43022,0.16782
1311.35869,0.17261
1313.28716,0.17587
1315.21563,0.17844
1317.14409,0.17732
1319.07256,0.17400
1321.00103,0.17132
1322.92950,0.16963
1324.85797,0.16624
1326.78644,0.16060
1328.71491,0.15742
1330.64337,0.15663
1332.57184,0.15711
1334.50031,0.15996
1336.42878,0.16287
1338.35725,0.16531
1340.28572,0.16364
1342.21419,0.15917
1344.14266,0.15812
1346.07112,0.15697
1347.99959,0.15795
1349.92806,0.16408
1351.85653,0.16680
1353.78500,0.16546
1355.71347,0.16798
1357.64194,0.17352
1359.57040,0.17765
1361.49887,0.18052
1363.42734,0.18016
1365.35581,0.17518
1367.28428,0.16955
1369.21275,0.16768
1371.14122,0.17290
1373.06969,0.18203
1374.99815,0.18652
1376.92662,0.18533
1378.85509,0.18309
1380.78356,0.18015
1382.71203,0.17861
1384.64050,0.18075
1386.56897,0.18377
1388.49743,0.18391
1390.42590,0.18436
1392.35437,0.19078
1394.28284,0.20155
1396.21131,0.20535
1398.13978,0.19681
1400.06825,0.18390
1401.99672,0.17963
1403.92518,0.18429
1405.85365,0.18569
1407.78212,0.18104
1409.71059,0.17753
1411.63906,0.17684
1413.56753,0.17794
1415.49600,0.18099
1417.42446,0.18755
1419.35293,0.19287
1421.28140,0.19203
1423.20987,0.19120
1425.13834,0.18996
1427.06681,0.18853
1428.99528,0.19049
1430.92375,0.19279
1432.85221,0.19367
1434.78068,0.19693
1436.70915,0.20018
1438.63762,0.19806
1440.56609,0.19229
1442.49456,0.18495
1444.42303,0.18263
1446.35149,0.18868
1448.27996,0.19355
1450.20843,0.19147
1452.13690,0.19283
1454.06537,0.20737
1455.99384,0.23452
1457.92231,0.23739
1459.85077,0.21062
1461.77924,0.20197
1463.70771,0.20902
1465.63618,0.20798
1467.56465,0.19427
1469.49312,0.18961
1471.42159,0.20193
1473.35006,0.21609
1475.27852,0.21179
1477.20699,0.20006
1479.13546,0.19049
1481.06393,0.18590
1482.99240,0.18654
1484.92087,0.19368
1486.84934,0.20966
1488.77780,0.22585
1490.70627,0.21960
1492.63474,0.20458
1494.56321,0.20457
1496.49168,0.21465
1498.42015,0.21103
1500.34862,0.19687
1502.27709,0.19502
1504.20555,0.21421
1506.13402,0.25779
1508.06249,0.26810
1509.99096,0.23511
1511.91943,0.21689
1513.84790,0.21691
1515.77637,0.22698
1517.70483,0.23332
1519.63330,0.23893
1521.56177,0.25122
1523.49024,0.24753
1525.41871,0.23451
1527.34718,0.22210
1529.27565,0.21202
1531.20412,0.21398
1533.13258,0.22291
1535.06105,0.22144
1536.98952,0.22423
1538.91799,0.25236
1540.84646,0.27568
1542.77493,0.25040
1544.70340,0.22298
1546.63186,0.20813
1548.56033,0.20681
1550.48880,0.20925
1552.41727,0.20991
1554.34574,0.21777
1556.27421,0.24089
1558.20268,0.27781
1560.13115,0.25922
1562.05961,0.22249
1563.98808,0.21166
1565.91655,0.21118
1567.84502,0.21591
1569.77349,0.21925
1571.70196,0.21054
1573.63043,0.20949
1575.55889,0.22128
1577.48736,0.21482
1579.41583,0.19498
1581.34430,0.18619
1583.27277,0.18652
1585.20124,0.18882
1587.12971,0.18976
1589.05818,0.18865
1590.98664,0.18779
1592.91511,0.18879
1594.84358,0.18844
1596.77205,0.18561
1598.70052,0.18550
1600.62899,0.18974
1602.55746,0.19315
1604.48592,0.19243
1606.41439,0.18966
1608.34286,0.18774
1610.27133,0.18736
1612.19980,0.19003
1614.12827,0.19969
1616.05674,0.21350
1617.98521,0.21334
1619.91367,0.20832
1621.84214,0.21551
1623.77061,0.22272
1625.69908,0.21810
1627.62755,0.21061
1629.55602,0.20309
1631.48449,0.20218
1633.41295,0.21582
1635.34142,0.23839
1637.26989,0.23345
1639.19836,0.21280
1641.12683,0.20424
1643.05530,0.20875
1644.98377,0.22509
1646.91223,0.24459
1648.84070,0.24365
1650.76917,0.24423
1652.69764,0.26395
1654.62611,0.25326
1656.55458,0.22246
1658.48305,0.21077
1660.41152,0.21911
1662.33998,0.22792
1664.26845,0.21706
1666.19692,0.21211
1668.12539,0.22720
1670.05386,0.23746
1671.98233,0.22849
1673.91080,0.22347
1675.83926,0.21875
1677.76773,0.21149
1679.69620,0.21471
1681.62467,0.23343
1683.55314,0.25794
1685.48161,0.24760
1687.41008,0.22254
1689.33855,0.20913
1691.26701,0.20210
1693.19548,0.20485
1695.12395,0.22422
1697.05242,0.24878
1698.98089,0.25676
1700.90936,0.24385
1702.83783,0.22700
1704.76629,0.21894
1706.69476,0.21205
1708.62323,0.20546
1710.55170,0.20427
1712.48017,0.20948
1714.40864,0.22285
1716.33711,0.23938
1718.26558,0.23327
1720.19404,0.21321
1722.12251,0.20238
1724.05098,0.19671
1725.97945,0.19255
1727.90792,0.19521
1729.83639,0.20512
1731.76486,0.21679
1733.69332,0.22306
1735.62179,0.21430
1737.55026,0.20727
1739.47873,0.21083
1741.40720,0.21473
1743.33567,0.21104
1745.26414,0.20743
1747.19261,0.21142
1749.12107,0.21915
1751.04954,0.21534
1752.97801,0.20217
1754.90648,0.19700
1756.83495,0.20028
1758.76342,0.20350
1760.69189,0.20616
1762.62035,0.20412
1764.54882,0.19882
1766.47729,0.20230
1768.40576,0.21493
1770.33423,0.22953
1772.26270,0.23314
1774.19117,0.21730
1776.11964,0.20267
1778.04810,0.19992
1779.97657,0.20327
1781.90504,0.20329
1783.83351,0.19947
1785.76198,0.19538
1787.69045,0.19522
1789.61892,0.20293
1791.54738,0.21388
1793.47585,0.21439
1795.40432,0.20548
1797.33279,0.19945
1799.26126,0.20076
1801.18973,0.20285
1803.11820,0.19884
1805.04666,0.19462
1806.97513,0.19551
1808.90360,0.19916
1810.83207,0.20074
1812.76054,0.19870
1814.68901,0.19643
1816.61748,0.19971
1818.54595,0.20870
1820.47441,0.21221
1822.40288,0.20835
1824.33135,0.20702
1826.25982,0.20957
1828.18829,0.21267
1830.11676,0.21011
1832.04523,0.19870
1833.97369,0.19229
1835.90216,0.19460
1837.83063,0.19600
1839.75910,0.19530
1841.68757,0.20105
1843.61604,0.21047
1845.54451,0.20914
1847.47298,0.20024
1849.40144,0.19283
1851.32991,0.18831
1853.25838,0.18742
1855.18685,0.18838
1857.11532,0.18881
1859.04379,0.18913
1860.97226,0.19039
1862.90072,0.19211
1864.82919,0.19702
1866.75766,0.20810
1868.68613,0.21487
1870.61460,0.20746
1872.54307,0.19879
1874.47154,0.19597
1876.40001,0.19438
1878.32847,0.19126
1880.25694,0.18972
1882.18541,0.19016
1884.11388,0.18986
1886.04235,0.19047
1887.97082,0.19478
1889.89929,0.19812
1891.82775,0.19602
1893.75622,0.19469
1895.68469,0.19527
1897.61316,0.19225
1899.54163,0.18829
1901.47010,0.18719
1903.39857,0.18747
1905.32704,0.18915
1907.25550,0.19224
1909.18397,0.19375
1911.11244,0.19188
1913.04091,0.18970
1914.96938,0.19235
1916.89785,0.19846
1918.82632,0.20038
1920.75478,0.19815
1922.68325,0.19520
1924.61172,0.19121
1926.54019,0.18872
1928.46866,0.18822
1930.39713,0.18814
1932.32560,0.18878
1934.25407,0.18907
1936.18253,0.18894
1938.11100,0.19174
1940.03947,0.19936
1941.96794,0.20623
1943.89641,0.20437
1945.82488,0.19688
1947.75335,0.19036
1949.68181,0.18777
1951.61028,0.18828
1953.53875,0.18858
1955.46722,0.18884
1957.39569,0.18995
1959.32416,0.19114
1961.25263,0.19223
1963.18110,0.19398
1965.10956,0.19638
1967.03803,0.19656
1968.96650,0.19446
1970.89497,0.19377
1972.82344,0.19332
1974.75191,0.19043
1976.68038,0.18780
1978.60884,0.18897
1980.53731,0.19198
1982.46578,0.19257
1984.39425,0.19207
1986.32272,0.19385
1988.25119,0.19588
1990.17966,0.19712
1992.10812,0.19804
1994.03659,0.19614
1995.96506,0.19300
1997.89353,0.19191
1999.82200,0.19217
2001.75047,0.19227
2003.67894,0.19222
2005.60741,0.19225
2007.53587,0.19164
2009.46434,0.19031
2011.39281,0.18912
2013.32128,0.18999
2015.24975,0.19427
2017.17822,0.19793
2019.10669,0.19660
2021.03515,0.19350
2022.96362,0.19215
2024.89209,0.19067
2026.82056,0.18819
2028.74903,0.18746
2030.67750,0.18843
2032.60597,0.18819
2034.53444,0.18751
2036.46290,0.18896
2038.39137,0.19109
2040.31984,0.19077
2042.24831,0.18960
2044.17678,0.19068
2046.10525,0.19244
2048.03372,0.19289
2049.96218,0.19319
2051.89065,0.19359
2053.81912,0.19339
2055.74759,0.19377
2057.67606,0.19554
2059.60453,0.19763
2061.53300,0.19866
2063.46147,0.19849
2065.38993,0.19816
2067.31840,0.19654
2069.24687,0.19262
2071.17534,0.18985
2073.10381,0.19103
2075.03228,0.19308
2076.96075,0.19255
2078.88921,0.19168
2080.81768,0.19166
2082.74615,0.19024
2084.67462,0.18951
2086.60309,0.19184
2088.53156,0.19340
2090.46003,0.19105
2092.38850,0.18857
2094.31696,0.18953
2096.24543,0.19247
2098.17390,0.19613
2100.10237,0.19924
2102.03084,0.19980
2103.95931,0.19816
2105.88778,0.19543
2107.81624,0.19249
2109.74471,0.19193
2111.67318,0.19378
2113.60165,0.19440
2115.53012,0.19397
2117.45859,0.19453
2119.38706,0.19536
2121.31553,0.19433
2123.24399,0.19178
2125.17246,0.19242
2127.10093,0.19612
2129.02940,0.19673
2130.95787,0.19390
2132.88634,0.19260
2134.81481,0.19309
2136.74327,0.19366
2138.67174,0.19490
2140.60021,0.19431
2142.52868,0.19112
2144.45715,0.18918
2146.38562,0.18928
2148.31409,0.19042
2150.24255,0.19277
2152.17102,0.19420
2154.09949,0.19198
2156.02796,0.18979
2157.95643,0.19138
2159.88490,0.19391
2161.81337,0.19706
2163.74184,0.20085
2165.67030,0.20093
2167.59877,0.19891
2169.52724,0.19855
2171.45571,0.19787
2173.38418,0.19682
2175.31265,0.19710
2177.24112,0.19759
2179.16958,0.19762
2181.09805,0.19676
2183.02652,0.19395
2184.95499,0.19037
2186.88346,0.18802
2188.81193,0.18789
2190.74040,0.18978
2192.66887,0.19112
2194.59733,0.19112
2196.52580,0.19242
2198.45427,0.19412
2200.38274,0.19400
2202.31121,0.19386
2204.23968,0.19392
2206.16815,0.19314
2208.09661,0.19269
2210.02508,0.19250
2211.95355,0.19188
2213.88202,0.19203
2215.81049,0.19465
2217.73896,0.19861
2219.66743,0.20017
2221.59590,0.19835
2223.52436,0.19552
2225.45283,0.19317
2227.38130,0.19180
2229.30977,0.19228
2231.23824,0.19390
2233.16671,0.19411
2235.09518,0.19359
2237.02364,0.19524
2238.95211,0.19734
2240.88058,0.19626
2242.80905,0.19330
2244.73752,0.19251
2246.66599,0.19448
2248.59446,0.19550
2250.52293,0.19381
2252.45139,0.19235
2254.37986,0.19346
2256.30833,0.19589
2258.23680,0.19699
2260.16527,0.19684
2262.09374,0.19773
2264.02221,0.19837
2265.95067,0.19644
2267.87914,0.19445
2269.80761,0.19483
2271.73608,0.19524
2273.66455,0.19416
2275.59302,0.19379
2277.52149,0.19434
2279.44996,0.19406
2281.37842,0.19396
2283.30689,0.19507
2285.23536,0.19561
2287.16383,0.19565
2289.09230,0.19666
2291.02077,0.19815
2292.94924,0.20079
2294.87770,0.20250
2296.80617,0.19881
2298.73464,0.19346
2300.66311,0.19294
2302.59158,0.19671
2304.52005,0.20048
2306.44852,0.20256
2308.37699,0.20380
2310.30545,0.20321
2312.23392,0.20068
2314.16239,0.19896
2316.09086,0.20053
2318.01933,0.20546
2319.94780,0.21108
2321.87627,0.21338
2323.80473,0.20784
2325.73320,0.19811
2327.66167,0.19836
2329.59014,0.21205
2331.51861,0.22153
2333.44708,0.21753
2335.37555,0.21120
2337.30401,0.20961
2339.23248,0.21423
2341.16095,0.22113
2343.08942,0.22068
2345.01789,0.21227
2346.94636,0.20713
2348.87483,0.20652
2350.80330,0.20403
2352.73176,0.20045
2354.66023,0.19942
2356.58870,0.19348
2358.51717,0.18769
2360.44564,0.19953
2362.37411,0.21493
2364.30258,0.21494
2366.23104,0.20822
2368.15951,0.19920
2370.08798,0.19294
2372.01645,0.19280
2373.94492,0.18851
2375.87339,0.18603
2377.80186,0.19312
2379.73033,0.19788
2381.65879,0.19481
2383.58726,0.19210
2385.51573,0.19346
2387.44420,0.19528
2389.37267,0.19447
2391.30114,0.19354
2393.22961,0.19573
2395.15807,0.19721
2397.08654,0.19538
2399.01501,0.19453
2400.94348,0.19591
2402.87195,0.19720
2404.80042,0.19795
2406.72889,0.19845
2408.65736,0.19956
2410.58582,0.20082
2412.51429,0.19897
2414.44276,0.19465
2416.37123,0.19234
2418.29970,0.19261
2420.22817,0.19275
2422.15664,0.19222
2424.08510,0.19453
2426.01357,0.19911
2427.94204,0.20002
2429.87051,0.19791
2431.79898,0.19757
2433.72745,0.19874
2435.65592,0.19812
2437.58439,0.19630
2439.51285,0.19706
2441.44132,0.19927
2443.36979,0.19932
2445.29826,0.19851
2447.22673,0.19816
2449.15520,0.19512
2451.08367,0.19191
2453.01213,0.19485
2454.94060,0.19867
2456.86907,0.19804
2458.79754,0.19861
2460.72601,0.20153
2462.65448,0.20107
2464.58295,0.19769
2466.51142,0.19685
2468.43988,0.19800
2470.36835,0.19608
2472.29682,0.19236
2474.22529,0.19279
2476.15376,0.19709
2478.08223,0.20058
2480.01070,0.20192
2481.93916,0.20186
2483.86763,0.20042
2485.79610,0.19773
2487.72457,0.19498
2489.65304,0.19341
2491.58151,0.19435
2493.50998,0.19801
2495.43844,0.20042
2497.36691,0.19905
2499.29538,0.19679
2501.22385,0.19494
2503.15232,0.19233
2505.08079,0.19057
2507.00926,0.19242
2508.93773,0.19617
2510.86619,0.19672
2512.79466,0.19351
2514.72313,0.19133
2516.65160,0.19267
2518.58007,0.19584
2520.50854,0.19739
2522.43701,0.19620
2524.36547,0.19557
2526.29394,0.19721
2528.22241,0.19932
2530.15088,0.20045
2532.07935,0.20038
2534.00782,0.19966
2535.93629,0.19780
2537.86476,0.19511
2539.79322,0.19507
2541.72169,0.19811
2543.65016,0.20022
2545.57863,0.20060
2547.50710,0.20103
2549.43557,0.20043
2551.36404,0.19842
2553.29250,0.19768
2555.22097,0.19851
2557.14944,0.19889
2559.07791,0.19841
2561.00638,0.19834
2562.93485,0.19967
2564.86332,0.19951
2566.79179,0.19642
2568.72025,0.19413
2570.64872,0.19380
2572.57719,0.19465
2574.50566,0.19631
2576.43413,0.19729
2578.36260,0.19815
2580.29107,0.19987
2582.21953,0.20022
2584.14800,0.19967
2586.07647,0.20008
2588.00494,0.19962
2589.93341,0.19760
2591.86188,0.19461
2593.79035,0.19305
2595.71882,0.19593
2597.64728,0.19877
2599.57575,0.19798
2601.50422,0.19822
2603.43269,0.20042
2605.36116,0.19942
2607.28963,0.19438
2609.21810,0.18800
2611.14656,0.18435
2613.07503,0.18740
2615.00350,0.19353
2616.93197,0.19828
2618.86044,0.20175
2620.78891,0.20213
2622.71738,0.19977
2624.64585,0.19799
2626.57431,0.19720
2628.50278,0.19768
2630.43125,0.20041
2632.35972,0.20286
2634.28819,0.20202
2636.21666,0.19906
2638.14513,0.19741
2640.07359,0.19886
2642.00206,0.20106
2643.93053,0.20195
2645.85900,0.20125
2647.78747,0.19835
2649.71594,0.19684
2651.64441,0.19870
2653.57288,0.19951
2655.50134,0.19813
2657.42981,0.19764
2659.35828,0.19959
2661.28675,0.20288
2663.21522,0.20478
2665.14369,0.20382
2667.07216,0.20199
2669.00062,0.20257
2670.92909,0.20530
2672.85756,0.20605
2674.78603,0.20371
2676.71450,0.20175
2678.64297,0.20071
2680.57144,0.19958
2682.49990,0.20189
2684.42837,0.20815
2686.35684,0.21212
2688.28531,0.21025
2690.21378,0.20621
2692.14225,0.20569
2694.07072,0.20823
2695.99919,0.20912
2697.92765,0.20868
2699.85612,0.20855
2701.78459,0.20676
2703.71306,0.20449
2705.64153,0.20455
2707.57000,0.20574
2709.49847,0.20605
2711.42693,0.20572
2713.35540,0.20662
2715.28387,0.20842
2717.21234,0.20900
2719.14081,0.20829
2721.06928,0.20771
2722.99775,0.20858
2724.92622,0.21111
2726.85468,0.21351
2728.78315,0.21298
2730.71162,0.20953
2732.64009,0.20648
2734.56856,0.20714
2736.49703,0.21122
2738.42550,0.21356
2740.35396,0.21180
2742.28243,0.20950
2744.21090,0.20976
2746.13937,0.21122
2748.06784,0.21049
2749.99631,0.20879
2751.92478,0.20865
2753.85325,0.20779
2755.78171,0.20545
2757.71018,0.20565
2759.63865,0.20800
2761.56712,0.20820
2763.49559,0.20767
2765.42406,0.20863
2767.35253,0.21002
2769.28099,0.21174
2771.20946,0.21266
2773.13793,0.21125
2775.06640,0.21000
2776.99487,0.21047
2778.92334,0.20983
2780.85181,0.20848
2782.78028,0.21019
2784.70874,0.21318
2786.63721,0.21348
2788.56568,0.21258
2790.49415,0.21314
2792.42262,0.21360
2794.35109,0.21263
2796.27956,0.21199
2798.20802,0.21125
2800.13649,0.20947
2802.06496,0.20911
2803.99343,0.21191
2805.92190,0.21563
2807.85037,0.21492
2809.77884,0.21067
2811.70731,0.21014
2813.63577,0.21321
2815.56424,0.21475
2817.49271,0.21449
2819.42118,0.21404
2821.34965,0.21312
2823.27812,0.21250
2825.20659,0.21316
2827.13505,0.21420
2829.06352,0.21498
2830.99199,0.21542
2832.92046,0.21600
2834.84893,0.21609
2836.77740,0.21401
2838.70587,0.21172
2840.63433,0.20998
2842.56280,0.20657
2844.49127,0.20546
2846.41974,0.20990
2848.34821,0.21451
2850.27668,0.21631
2852.20515,0.21711
2854.13362,0.21664
2856.06208,0.21464
2857.99055,0.21308
2859.91902,0.21275
2861.84749,0.21189
2863.77596,0.20904
2865.70443,0.20543
2867.63290,0.20488
2869.56136,0.20900
2871.48983,0.21351
2873.41830,0.21382
2875.34677,0.21180
2877.27524,0.21196
2879.20371,0.21502
2881.13218,0.21697
2883.06065,0.21363
2884.98911,0.20892
2886.91758,0.20986
2888.84605,0.21454
2890.77452,0.21607
2892.70299,0.21295
2894.63146,0.20933
2896.55993,0.20769
2898.48839,0.20771
2900.41686,0.20985
2902.34533,0.21134
2904.27380,0.20861
2906.20227,0.20559
2908.13074,0.20649
2910.05921,0.20953
2911.98768,0.21207
2913.91614,0.21151
2915.84461,0.20762
2917.77308,0.20559
2919.70155,0.20904
2921.63002,0.21314
2923.55849,0.21079
2925.48696,0.20279
2927.41542,0.20043
2929.34389,0.20968
2931.27236,0.21821
2933.20083,0.21686
2935.12930,0.21083
2937.05777,0.20579
2938.98624,0.20681
2940.91471,0.21364
2942.84317,0.21857
2944.77164,0.21512
2946.70011,0.20476
2948.62858,0.19931
2950.55705,0.20322
2952.48552,0.20798
2954.41399,0.20840
2956.34245,0.20240
2958.27092,0.19690
2960.19939,0.20137
2962.12786,0.20818
2964.05633,0.20976
2965.98480,0.20893
2967.91327,0.20948
2969.84174,0.21382
2971.77020,0.21906
2973.69867,0.22190
2975.62714,0.21911
2977.55561,0.21083
2979.48408,0.20849
2981.41255,0.21665
2983.34102,0.22376
2985.26948,0.22137
2987.19795,0.21412
2989.12642,0.21225
2991.05489,0.21838
2992.98336,0.22434
2994.91183,0.22378
2996.84030,0.21942
2998.76877,0.21855
3000.69723,0.22193
3002.62570,0.22210
3004.55417,0.21812
3006.48264,0.21722
3008.41111,0.22010
3010.33958,0.21603
3012.26805,0.19818
3014.19651,0.17049
3016.12498,0.14707
3018.05345,0.15239
3019.98192,0.18380
3021.91039,0.20711
3023.83886,0.21264
3025.76733,0.21425
3027.69579,0.21596
3029.62426,0.21770
3031.55273,0.22106
3033.48120,0.22463
3035.40967,0.22555
3037.33814,0.22241
3039.26661,0.22002
3041.19508,0.22118
3043.12354,0.22114
3045.05201,0.21848
3046.98048,0.21635
3048.90895,0.21590
3050.83742,0.21598
3052.76589,0.21660
3054.69436,0.21517
3056.62282,0.21006
3058.55129,0.20867
3060.47976,0.21335
3062.40823,0.21720
3064.33670,0.21582
3066.26517,0.21029
3068.19364,0.20636
3070.12211,0.20797
3072.05057,0.21357
3073.97904,0.21551
3075.90751,0.21125
3077.83598,0.21127
3079.76445,0.21541
3081.69292,0.21371
3083.62139,0.20545
3085.54985,0.19980
3087.47832,0.20647
3089.40679,0.21825
3091.33526,0.22229
3093.26373,0.21600
3095.19220,0.20847
3097.12067,0.21018
3099.04914,0.21362
3100.97760,0.20976
3102.90607,0.20305
3104.83454,0.20403
3106.76301,0.21505
3108.69148,0.22292
3110.61995,0.21696
3112.54842,0.20683
3114.47688,0.20880
3116.40535,0.21644
3118.33382,0.21700
3120.26229,0.21283
3122.19076,0.20935
3124.11923,0.21210
3126.04770,0.22061
3127.97617,0.22724
3129.90463,0.22740
3131.83310,0.22428
3133.76157,0.22294
3135.69004,0.22302
3137.61851,0.22146
3139.54698,0.21883
3141.47545,0.21771
3143.40391,0.21733
3145.33238,0.21787
3147.26085,0.21865
3149.18932,0.22101
3151.11779,0.22767
3153.04626,0.23001
3154.97473,0.22390
3156.90320,0.22025
3158.83166,0.22450
3160.76013,0.22877
3162.68860,0.22859
3164.61707,0.22767
3166.54554,0.22709
3168.47401,0.22749
3170.40248,0.22798
3172.33094,0.22507
3174.25941,0.22138
3176.18788,0.22152
3178.11635,0.22574
3180.04482,0.23075
3181.97329,0.23069
3183.90176,0.22626
3185.83022,0.22399
3187.75869,0.22245
3189.68716,0.21858
3191.61563,0.21780
3193.54410,0.22133
3195.47257,0.22361
3197.40104,0.22524
3199.32951,0.22798
3201.25797,0.22927
3203.18644,0.22828
3205.11491,0.22538
3207.04338,0.22339
3208.97185,0.22409
3210.90032,0.22410
3212.82879,0.22221
3214.75725,0.22075
3216.68572,0.22102
3218.61419,0.22337
3220.54266,0.22546
3222.47113,0.22452
3224.39960,0.22246
3226.32807,0.21996
3228.25654,0.21748
3230.18500,0.21923
3232.11347,0.22436
3234.04194,0.22729
3235.97041,0.22487
3237.89888,0.21972
3239.82735,0.21954
3241.75582,0.22499
3243.68428,0.22783
3245.61275,0.22652
3247.54122,0.22570
3249.46969,0.22462
3251.39816,0.22211
3253.32663,0.21897
3255.25510,0.21484
3257.18357,0.21266
3259.11203,0.21473
3261.04050,0.21851
3262.96897,0.22179
3264.89744,0.22285
3266.82591,0.22358
3268.75438,0.22851
3270.68285,0.23229
3272.61131,0.22761
3274.53978,0.22111
3276.46825,0.21955
3278.39672,0.21856
3280.32519,0.21725
3282.25366,0.21814
3284.18213,0.21621
3286.11060,0.20928
3288.03906,0.20596
3289.96753,0.21242
3291.89600,0.22047
3293.82447,0.22086
3295.75294,0.21686
3297.68141,0.21316
3299.60988,0.21387
3301.53834,0.22160
3303.46681,0.22909
3305.39528,0.22859
3307.32375,0.22055
3309.25222,0.21117
3311.18069,0.20868
3313.10916,0.21436
3315.03763,0.21978
3316.96609,0.22007
3318.89456,0.21905
3320.82303,0.21868
3322.75150,0.21667
3324.67997,0.21348
3326.60844,0.21415
3328.53691,0.22128
3330.46537,0.23074
3332.39384,0.23690
3334.32231,0.23773
3336.25078,0.23593
3338.17925,0.23425
3340.10772,0.23315
3342.03619,0.23166
3343.96466,0.22680
3345.89312,0.22122
3347.82159,0.22089
3349.75006,0.22389
3351.67853,0.22354
3353.60700,0.21777
3355.53547,0.21354
3357.46394,0.21520
3359.39240,0.21772
3361.32087,0.22039
3363.24934,0.22496
3365.17781,0.22852
3367.10628,0.22988
3369.03475,0.22790
3370.96322,0.22340
3372.89168,0.22294
3374.82015,0.22567
3376.74862,0.22654
3378.67709,0.22571
3380.60556,0.22336
3382.53403,0.22244
3384.46250,0.22299
3386.39097,0.22047
3388.31943,0.21605
3390.24790,0.21280
3392.17637,0.21190
3394.10484,0.21396
3396.03331,0.21893
3397.96178,0.22346
3399.89025,0.22419
3401.81871,0.22377
3403.74718,0.22423
3405.67565,0.22494
3407.60412,0.22468
3409.53259,0.22042
3411.46106,0.21211
3413.38953,0.20563
3415.31800,0.20582
3417.24646,0.21041
3419.17493,0.21618
3421.10340,0.22180
3423.03187,0.22370
3424.96034,0.22197
3426.88881,0.22030
3428.81728,0.21926
3430.74574,0.21845
3432.67421,0.21752
3434.60268,0.21411
3436.53115,0.20784
3438.45962,0.20347
3440.38809,0.20565
3442.31656,0.21278
3444.24503,0.21881
3446.17349,0.22090
3448.10196,0.21963
3450.03043,0.21791
3451.95890,0.21842
3453.88737,0.21771
3455.81584,0.21273
3457.74431,0.20533
3459.67277,0.19913
3461.60124,0.19893
3463.52971,0.20488
3465.45818,0.20986
3467.38665,0.20812
3469.31512,0.20295
3471.24359,0.20104
3473.17206,0.20179
3475.10052,0.20004
3477.02899,0.19694
3478.95746,0.19726
3480.88593,0.19905
3482.81440,0.19898
3484.74287,0.19800
3486.67134,0.19562
3488.59980,0.19127
3490.52827,0.18836
3492.45674,0.18996
3494.38521,0.19422
3496.31368,0.19411
3498.24215,0.19206
3500.17062,0.19800
3502.09909,0.20395
3504.02755,0.19910
3505.95602,0.19219
3507.88449,0.19111
3509.81296,0.19116
3511.74143,0.18525
3513.66990,0.17797
3515.59837,0.17920
3517.52683,0.18718
3519.45530,0.19228
3521.38377,0.19354
3523.31224,0.19456
3525.24071,0.19479
3527.16918,0.19275
3529.09765,0.18707
3531.02611,0.18297
3532.95458,0.18411
3534.88305,0.18627
3536.81152,0.18586
3538.73999,0.18130
3540.66846,0.17683
3542.59693,0.17837
3544.52540,0.18473
3546.45386,0.18884
3548.38233,0.18746
3550.31080,0.18774
3552.23927,0.19003
3554.16774,0.18508
3556.09621,0.17708
3558.02468,0.17385
3559.95314,0.17328
3561.88161,0.17565
3563.81008,0.18401
3565.73855,0.19358
3567.66702,0.18836
3569.59549,0.17137
3571.52396,0.16180
3573.45243,0.15996
3575.38089,0.16118
3577.30936,0.16399
3579.23783,0.16605
3581.16630,0.16397
3583.09477,0.16102
3585.02324,0.16764
3586.95171,0.18066
3588.88017,0.17627
3590.80864,0.16093
3592.73711,0.15370
3594.66558,0.15577
3596.59405,0.16223
3598.52252,0.16808
3600.45099,0.16730
3602.37946,0.16022
3604.30792,0.15881
3606.23639,0.16576
3608.16486,0.16838
3610.09333,0.16442
3612.02180,0.16689
3613.95027,0.17154
3615.87874,0.17134
3617.80720,0.17510
3619.73567,0.17968
3621.66414,0.17313
3623.59261,0.16603
3625.52108,0.16817
3627.44955,0.17784
3629.37802,0.17785
3631.30649,0.16544
3633.23495,0.15693
3635.16342,0.15016
3637.09189,0.14590
3639.02036,0.14544
3640.94883,0.14628
3642.87730,0.14975
3644.80577,0.16029
3646.73423,0.18165
3648.66270,0.20329
3650.59117,0.18995
3652.51964,0.16428
3654.44811,0.15442
3656.37658,0.15352
3658.30505,0.14936
3660.23352,0.14391
3662.16198,0.14211
3664.09045,0.14341
3666.01892,0.14679
3667.94739,0.15535
3669.87586,0.16601
3671.80433,0.16715
3673.73280,0.16966
3675.66126,0.17125
3677.58973,0.15684
3679.51820,0.14385
3681.44667,0.13878
3683.37514,0.13755
3685.30361,0.13911
3687.23208,0.14766
3689.16055,0.16097
3691.08901,0.16156
3693.01748,0.15396
3694.94595,0.14967
3696.87442,0.14676
3698.80289,0.14430
3700.73136,0.14487
3702.65983,0.14476
3704.58829,0.14156
3706.51676,0.14140
3708.44523,0.14778
3710.37370,0.15642
3712.30217,0.15401
3714.23064,0.14459
3716.15911,0.13901
3718.08757,0.13678
3720.01604,0.13840
3721.94451,0.14584
3723.87298,0.15484
3725.80145,0.15513
3727.72992,0.14978
3729.65839,0.15131
3731.58686,0.16200
3733.51532,0.17786
3735.44379,0.18588
3737.37226,0.17414
3739.30073,0.15711
3741.22920,0.14952
3743.15767,0.15675
3745.08614,0.17034
3747.01460,0.17353
3748.94307,0.17929
3750.87154,0.18582
3752.80001,0.16996
3754.72848,0.15213
3756.65695,0.14652
3758.58542,0.14648
3760.51389,0.14361
3762.44235,0.14101
3764.37082,0.14206
3766.29929,0.14367
3768.22776,0.14544
3770.15623,0.14423
3772.08470,0.13694
3774.01317,0.13276
3775.94163,0.13523
3777.87010,0.13881
3779.79857,0.13829
3781.72704,0.13680
3783.65551,0.13632
3785.58398,0.13406
3787.51245,0.13085
3789.44092,0.12713
3791.36938,0.12285
3793.29785,0.12262
3795.22632,0.13035
3797.15479,0.13814
3799.08326,0.13781
3801.01173,0.13822
3802.94020,0.14117
3804.86866,0.14215
3806.79713,0.14144
3808.72560,0.13348
3810.65407,0.12423
3812.58254,0.12229
3814.51101,0.12735
3816.43948,0.13277
3818.36795,0.13833
3820.29641,0.15083
3822.22488,0.15702
3824.15335,0.14912
3826.08182,0.13990
3828.01029,0.13384
3829.93876,0.13487
3831.86723,0.14192
3833.79569,0.14586
3835.72416,0.14744
3837.65263,0.15234
3839.58110,0.14987
3841.50957,0.14118
3843.43804,0.13637
3845.36651,0.13278
3847.29498,0.13067
3849.22344,0.13440
3851.15191,0.14572
3853.08038,0.16288
3855.00885,0.16450
3856.93732,0.15274
3858.86579,0.14486
3860.79426,0.14300
3862.72272,0.14192
3864.65119,0.13522
3866.57966,0.12814
3868.50813,0.12639
3870.43660,0.12997
3872.36507,0.13587
3874.29354,0.13790
3876.22200,0.13655
3878.15047,0.13810
3880.07894,0.14130
3882.00741,0.13876
3883.93588,0.13369
3885.86435,0.12819
3887.79282,0.12264
3889.72129,0.12355
3891.64975,0.12856
3893.57822,0.12746
3895.50669,0.12558
3897.43516,0.13145
3899.36363,0.14181
3901.29210,0.14613
3903.22057,0.14392
3905.14903,0.13594
3907.07750,0.12241
3909.00597,0.11429
3910.93444,0.11640
3912.86291,0.12249
3914.79138,0.12737
3916.71985,0.12918
3918.64832,0.12687
3920.57678,0.12334
3922.50525,0.12285
3924.43372,0.12639
3926.36219,0.12943
3928.29066,0.12889
3930.21913,0.12411
3932.14760,0.11527
3934.07606,0.10723
3936.00453,0.10465
3937.93300,0.10622
3939.86147,0.10807
3941.78994,0.11100
3943.71841,0.11541
3945.64688,0.11675
3947.57535,0.11581
3949.50381,0.11509
3951.43228,0.11395
3953.36075,0.11529
3955.28922,0.11968
3957.21769,0.12152
3959.14616,0.11977
3961.07463,0.11777
3963.00309,0.11569
3964.93156,0.11355
3966.86003,0.11264
3968.78850,0.11189
3970.71697,0.11125
3972.64544,0.11167
3974.57391,0.10932
3976.50238,0.10327
3978.43084,0.10081
3980.35931,0.10354
3982.28778,0.10498
3984.21625,0.10584
3986.14472,0.10958
3988.07319,0.11342
3990.00166,0.11451
3991.93012,0.11238
3993.85859,0.11024
3995.78706,0.10896
3997.71553,0.10619
3999.64400,0.10355
4001.57247,0.10280
4003.50094,0.10270
4005.42941,0.10044
4007.35787,0.09739
4009.28634,0.09893
4011.21481,0.10265
4013.14328,0.10292
4015.07175,0.10172
4017.00022,0.10386
4018.92869,0.10863
4020.85715,0.11043
4022.78562,0.11002
4024.71409,0.10975
4026.64256,0.10557
4028.57103,0.10090
4030.49950,0.10207
4032.42797,0.10556
4034.35644,0.10665
4036.28490,0.10574
4038.21337,0.10590
4040.14184,0.10674
4042.07031,0.10524
4043.99878,0.10476
4045.92725,0.10950
4047.85572,0.11196
4049.78418,0.10607
4051.71265,0.09844
4053.64112,0.09235
4055.56959,0.08792
4057.49806,0.09059
4059.42653,0.09810
4061.35500,0.10168
4063.28346,0.10187
4065.21193,0.10303
4067.14040,0.10291
4069.06887,0.09816
4070.99734,0.09269
4072.92581,0.09157
4074.85428,0.09248
4076.78275,0.09200
4078.71121,0.09053
4080.63968,0.09005
4082.56815,0.09159
4084.49662,0.09261
4086.42509,0.09170
4088.35356,0.09242
4090.28203,0.09640
4092.21049,0.10018
4094.13896,0.10014
4096.06743,0.09791
4097.99590,0.10004
4099.92437,0.10393
4101.85284,0.10192
4103.78131,0.09667
4105.70978,0.09129
4107.63824,0.08770
4109.56671,0.08765
4111.49518,0.08809
4113.42365,0.08895
4115.35212,0.09087
4117.28059,0.09419
4119.20906,0.09598
4121.13752,0.09002
4123.06599,0.08143
4124.99446,0.07747
4126.92293,0.07555
4128.85140,0.07593
4130.77987,0.08275
4132.70834,0.09102
4134.63681,0.09440
4136.56527,0.09416
4138.49374,0.08933
4140.42221,0.08225
4142.35068,0.08223
4144.27915,0.08929
4146.20762,0.09349
4148.13609,0.08915
4150.06455,0.07958
4151.99302,0.07062
4153.92149,0.06767
4155.84996,0.07540
4157.77843,0.08684
4159.70690,0.08707
4161.63537,0.07841
4163.56384,0.07213
4165.49230,0.06998
4167.42077,0.07183
4169.34924,0.07512
4171.27771,0.07659
4173.20618,0.07991
4175.13465,0.08547
4177.06312,0.08850
4178.99158,0.08728
4180.92005,0.08385
4182.84852,0.08221
4184.77699,0.08169
4186.70546,0.07862
4188.63393,0.07452
4190.56240,0.07103
4192.49087,0.07028
4194.41933,0.07463
4196.34780,0.07820
4198.27627,0.07908
4200.20474,0.07955
4202.13321,0.07657
4204.06168,0.07457
4205.99015,0.07386
4207.91861,0.06807
4209.84708,0.06235
4211.77555,0.06342
4213.70402,0.06923
4215.63249,0.07063
4217.56096,0.06677
4219.48943,0.06536
4221.41789,0.06487
4223.34636,0.06294
4225.27483,0.06071
4227.20330,0.05819
4229.13177,0.05814
4231.06024,0.06162
4232.98871,0.06176
4234.91718,0.05764
4236.84564,0.05881
4238.77411,0.06399
4240.70258,0.06501
4242.63105,0.06344
4244.55952,0.06387
4246.48799,0.06235
4248.41646,0.05536
4250.34492,0.05108
4252.27339,0.05189
4254.20186,0.05114
4256.13033,0.05036
4258.05880,0.05176
4259.98727,0.05306
4261.91574,0.05653
4263.84421,0.06197
4265.77267,0.06356
4267.70114,0.06220
4269.62961,0.06310
4271.55808,0.06373
4273.48655,0.05963
4275.41502,0.05473
4277.34349,0.05307
4279.27195,0.05124
4281.20042,0.04848
4283.12889,0.04954
4285.05736,0.05551
4286.98583,0.06040
4288.91430,0.05919
4290.84277,0.05698
4292.77124,0.05907
4294.69970,0.06013
4296.62817,0.05579
4298.55664,0.05201
4300.48511,0.05195
4302.41358,0.05028
4304.34205,0.04614
4306.27052,0.04249
4308.19898,0.04133
4310.12745,0.04396
4312.05592,0.04600
4313.98439,0.04471
4315.91286,0.04232
4317.84133,0.04040
4319.76980,0.04310
4321.69827,0.04913
4323.62673,0.05066
4325.55520,0.04820
4327.48367,0.04513
4329.41214,0.04504
4331.34061,0.05041
4333.26908,0.05120
4335.19755,0.04498
4337.12601,0.04416
4339.05448,0.04758
4340.98295,0.04450
4342.91142,0.03659
4344.83989,0.03326
4346.76836,0.03964
4348.69683,0.04886
4350.62530,0.04861
4352.55376,0.04049
4354.48223,0.03418
4356.41070,0.03330
4358.33917,0.03454
4360.26764,0.03472
4362.19611,0.03452
4364.12458,0.03313
4366.05304,0.03684
4367.98151,0.04831
4369.90998,0.05328
4371.83845,0.04798
4373.76692,0.04251
4375.69539,0.03996
4377.62386,0.03725
4379.55232,0.03351
4381.48079,0.03087
4383.40926,0.02956
4385.33773,0.02744
4387.26620,0.02428
4389.19467,0.02155
4391.12314,0.02268
4393.05161,0.02873
4394.98007,0.03104
4396.90854,0.02644
4398.83701,0.02571
4400.76548,0.03272
4402.69395,0.03819
4404.62242,0.03830
4406.55089,0.03779
4408.47935,0.03705
4410.40782,0.03620
4412.33629,0.03901
4414.26476,0.04472
4416.19323,0.04508
4418.12170,0.03713
4420.05017,0.02958
4421.97864,0.02514
4423.90710,0.01870
4425.83557,0.01062
4427.76404,0.00658
4429.69251,0.00757
4431.62098,0.00846
4433.54945,0.00815
4435.47792,0.00907
4437.40638,0.01634
4439.33485,0.02816
4441.26332,0.03182
4443.19179,0.02654
4445.12026,0.02313
4447.04873,0.02529
4448.97720,0.02752
4450.90567,0.02673
4452.83413,0.02466
4454.76260,0.01936
4456.69107,0.01297
4458.61954,0.01205
4460.54801,0.01528
4462.47648,0.01830
4464.40495,0.01950
4466.33341,0.01609
4468.26188,0.01013
4470.19035,0.01211
4472.11882,0.01912
4474.04729,0.01966
4475.97576,0.01973
4477.90423,0.02322
4479.83270,0.02478
4481.76116,0.02710
4483.68963,0.02841
4485.61810,0.02111
4487.54657,0.00740
4489.47504,-0.00088
4491.40351,0.00022
4493.33198,0.00238
4495.26044,0.00269
4497.18891,-0.00048
4499.11738,-0.00548
4501.04585,0.00192
4502.97432,0.01884
4504.90279,0.02635
4506.83126,0.02372
4508.75973,0.02169
4510.68819,0.02208
4512.61666,0.01946
4514.54513,0.01082
4516.47360,0.00474
4518.40207,0.00946
4520.33054,0.01439
4522.25901,0.00927
4524.18747,0.00293
4526.11594,0.00280
4528.04441,0.00435
4529.97288,0.00529
4531.90135,0.00631
4533.82982,0.00760
4535.75829,0.01211
4537.68676,0.01621
4539.61522,0.01072
4541.54369,0.00126
4543.47216,0.00088
4545.40063,0.00297
4547.32910,-0.00207
4549.25757,-0.00482
4551.18604,-0.00185
4553.11450,-0.00079
4555.04297,-0.00146
4556.97144,0.00042
4558.89991,0.00593
4560.82838,0.00903
4562.75685,0.00400
4564.68532,0.00076
4566.61378,0.00641
4568.54225,0.01116
4570.47072,0.01112
4572.39919,0.01077
4574.32766,0.01180
4576.25613,0.01000
4578.18460,0.00601
4580.11307,0.00767
4582.04153,0.01295
4583.97000,0.01422
4585.89847,0.00803
4587.82694,-0.00279
4589.75541,-0.01206
4591.68388,-0.01399
4593.61235,-0.00803
4595.54081,-0.00434
4597.46928,-0.00242
4599.39775,0.00807
4601.32622,0.02292
4603.25469,0.02827
4605.18316,0.02065
4607.11163,0.01287
4609.04010,0.00979
4610.96856,0.00499
4612.89703,0.00034
4614.82550,-0.00042
4616.75397,0.00052
4618.68244,0.00014
4620.61091,-0.00199
4622.53938,0.00016
4624.46784,0.00897
4626.39631,0.01351
4628.32478,0.01219
4630.25325,0.02044
4632.18172,0.03451
4634.11019,0.03618
4636.03866,0.02513
4637.96713,0.01267
4639.89559,0.00271
4641.82406,-0.00197
4643.75253,0.00082
4645.68100,0.00627
4647.60947,0.00596
4649.53794,-0.00233
4651.46641,-0.00752
4653.39487,-0.00305
4655.32334,0.00061
4657.25181,-0.00168
4659.18028,0.00001
4661.10875,0.00932
4663.03722,0.01053
4664.96569,-0.00496
4666.89416,-0.01692
4668.82262,-0.01220
4670.75109,-0.00552
4672.67956,-0.00603
4674.60803,-0.00546
4676.53650,-0.00293
4678.46497,-0.00083
4680.39344,0.00376
4682.32190,0.00560
4684.25037,0.00199
4686.17884,-0.00076
4688.10731,-0.00063
4690.03578,0.00059
4691.96425,0.00251
4693.89272,0.00828
4695.82119,0.01316
4697.74965,0.01199
4699.67812,0.01390
4701.60659,0.01595
4703.53506,0.00877
4705.46353,0.00599
4707.39200,0.01356
4709.32047,0.02073
4711.24893,0.02045
4713.17740,0.01693
4715.10587,0.01610
4717.03434,0.01249
4718.96281,0.00939
4720.89128,0.01199
4722.81975,0.01500
4724.74821,0.01504
4726.67668,0.01026
4728.60515,0.00681
4730.53362,0.00767
4732.46209,0.00571
4734.39056,0.00142
4736.31903,0.00219
4738.24750,0.00806
4740.17596,0.00956
4742.10443,0.00457
4744.03290,0.00275
4745.96137,0.00494
4747.88984,0.00238
4749.81831,-0.00388
4751.74678,-0.00863
4753.67524,-0.00951
4755.60371,-0.00261
4757.53218,0.00378
4759.46065,0.00240
4761.38912,0.00581
4763.31759,0.01335
4765.24606,0.01045
4767.17453,-0.00095
4769.10299,-0.00825
4771.03146,-0.00419
4772.95993,0.00479
4774.88840,0.01033
4776.81687,0.01154
4778.74534,0.00732
4780.67381,0.00425
4782.60227,0.00630
4784.53074,0.00623
4786.45921,0.01071
4788.38768,0.02213
4790.31615,0.01778
4792.24462,0.00035
4794.17309,-0.00322
4796.10156,0.00715
4798.03002,0.01621
4799.95849,0.01890
4801.88696,0.01478
4803.81543,0.00463
4805.74390,-0.00639
4807.67237,-0.00675
4809.60084,0.00493
4811.52930,0.01549
4813.45777,0.02152
4815.38624,0.02401
4817.31471,0.02269
4819.24318,0.02307
4821.17165,0.02657
4823.10012,0.02831
4825.02859,0.02676
4826.95705,0.02379
4828.88552,0.01686
4830.81399,0.00512
4832.74246,-0.00137
4834.67093,0.00214
4836.59940,0.00726
4838.52787,0.00523
4840.45633,-0.00397
4842.38480,-0.01145
4844.31327,-0.00935
4846.24174,-0.00159
4848.17021,0.00339
4850.09868,0.00566
4852.02715,0.00573
4853.95562,0.00183
4855.88408,-0.00243
4857.81255,-0.00074
4859.74102,0.00327
4861.66949,0.00154
4863.59796,-0.00083
4865.52643,-0.00241
4867.45490,-0.00540
4869.38336,-0.00028
4871.31183,0.00932
4873.24030,0.00517
4875.16877,-0.00894
4877.09724,-0.01658
4879.02571,-0.01645
4880.95418,-0.00776
4882.88265,0.00639
4884.81111,0.01526
4886.73958,0.01865
4888.66805,0.01466
4890.59652,0.00376
4892.52499,0.00011
4894.45346,0.00673
4896.38193,0.01446
4898.31039,0.01640
4900.23886,0.01061
4902.16733,0.00062
4904.09580,-0.00861
4906.02427,-0.00907
4907.95274,-0.00019
4909.88121,0.00571
4911.80967,0.00992
4913.73814,0.01632
4915.66661,0.00969
4917.59508,-0.00701
4919.52355,-0.01501
4921.45202,-0.01247
4923.38049,-0.00636
4925.30896,0.00013
4927.23742,0.00838
4929.16589,0.01203
4931.09436,0.00800
4933.02283,0.00767
4934.95130,0.00941
4936.87977,0.00926
4938.80824,0.01528
4940.73670,0.02108
4942.66517,0.01574
4944.59364,0.00548
4946.52211,0.00261
4948.45058,0.01065
4950.37905,0.02309
4952.30752,0.02928
4954.23599,0.02390
4956.16445,0.01575
4958.09292,0.01102
4960.02139,0.00515
4961.94986,0.00164
4963.87833,0.00968
4965.80680,0.02334
4967.73527,0.02158
4969.66373,0.00665
4971.59220,-0.00145
4973.52067,-0.00993
4975.44914,-0.02347
4977.37761,-0.01953
4979.30608,0.00367
4981.23455,0.02643
4983.16302,0.03944
4985.09148,0.03482
4987.01995,0.01729
4988.94842,0.00949
4990.87689,0.01465
4992.80536,0.01543
4994.73383,0.00600
4996.66230,0.00300
4998.59076,0.01220
5000.51923,0.01722
5002.44770,0.01283
5004.37617,0.00455
5006.30464,0.00148
5008.23311,0.00376
5010.16158,0.00097
5012.09005,-0.00280
5014.01851,-0.00314
5015.94698,-0.00393
5017.87545,-0.00175
5019.80392,0.00208
5021.73239,0.00212
5023.66086,-0.00037
5025.58933,-0.00295
5027.51779,0.00437
5029.44626,0.02154
5031.37473,0.02758
5033.30320,0.02153
5035.23167,0.01584
5037.16014,0.00986
5039.08861,0.00894
5041.01708,0.01825
5042.94554,0.02736
5044.87401,0.02873
5046.80248,0.02778
5048.73095,0.02775
5050.65942,0.02595
5052.58789,0.02485
5054.51636,0.02337
5056.44482,0.01908
5058.37329,0.01916
5060.30176,0.01900
5062.23023,0.01084
5064.15870,0.00783
5066.08717,0.01114
5068.01564,0.01004
5069.94410,0.01374
5071.87257,0.02935
5073.80104,0.04196
5075.72951,0.04061
5077.65798,0.03047
5079.58645,0.01509
5081.51492,0.00057
5083.44339,-0.00020
5085.37185,0.01141
5087.30032,0.01732
5089.22879,0.00946
5091.15726,0.00209
5093.08573,0.00425
5095.01420,0.00528
5096.94267,0.00528
5098.87113,0.02115
5100.79960,0.04572
5102.72807,0.05370
5104.65654,0.04346
5106.58501,0.03113
5108.51348,0.02477
5110.44195,0.02287
5112.37042,0.02308
5114.29888,0.02245
5116.22735,0.02144
5118.15582,0.02409
5120.08429,0.03424
5122.01276,0.04552
5123.94123,0.04168
5125.86970,0.02214
5127.79816,0.00906
5129.72663,0.01280
5131.65510,0.01409
5133.58357,0.00752
5135.51204,0.00562
5137.44051,0.00838
5139.36898,0.01795
5141.29745,0.03779
5143.22591,0.05512
5145.15438,0.04867
5147.08285,0.02465
5149.01132,0.01556
5150.93979,0.02031
5152.86826,0.01739
5154.79673,0.01575
5156.72519,0.02200
5158.65366,0.02669
5160.58213,0.04104
5162.51060,0.06190
5164.43907,0.05724
5166.36754,0.02446
5168.29601,0.00266
5170.22448,0.01153
5172.15294,0.01897
5174.08141,0.01548
5176.00988,0.01879
5177.93835,0.01097
5179.86682,-0.00290
5181.79529,0.01781
5183.72376,0.05762
5185.65222,0.06061
5187.58069,0.02784
5189.50916,0.01375
5191.43763,0.03362
5193.36610,0.05167
5195.29457,0.05239
5197.22304,0.05293
5199.15151,0.05189
5201.07997,0.04056
5203.00844,0.02947
5204.93691,0.02609
5206.86538,0.03062
5208.79385,0.04094
5210.72232,0.04791
5212.65079,0.05075
5214.57925,0.05504
5216.50772,0.06039
5218.43619,0.06195
5220.36466,0.05887
5222.29313,0.05954
5224.22160,0.06323
5226.15007,0.05900
5228.07854,0.04949
5230.00700,0.04333
5231.93547,0.04272
5233.86394,0.04458
5235.79241,0.03782
5237.72088,0.02599
5239.64935,0.02719
5241.57782,0.03637
5243.50628,0.03499
5245.43475,0.02844
5247.36322,0.03829
5249.29169,0.05607
5251.22016,0.05323
5253.14863,0.03747
5255.07710,0.03315
5257.00556,0.04589
5258.93403,0.06706
5260.86250,0.08545
5262.79097,0.08854
5264.71944,0.07084
5266.64791,0.04683
5268.57638,0.03713
5270.50485,0.04220
5272.43331,0.04300
5274.36178,0.03047
5276.29025,0.01286
5278.21872,0.00257
5280.14719,0.00909
5282.07566,0.02661
5284.00413,0.03954
5285.93259,0.04549
5287.86106,0.04765
5289.78953,0.04540
5291.71800,0.04861
5293.64647,0.05999
5295.57494,0.06622
5297.50341,0.06207
5299.43188,0.05507
5301.36034,0.05217
5303.28881,0.04950
5305.21728,0.04017
5307.14575,0.02633
5309.07422,0.02073
5311.00269,0.02190
5312.93116,0.02243
5314.85962,0.03445
5316.78809,0.06017
5318.71656,0.08065
5320.64503,0.08573
5322.57350,0.08285
5324.50197,0.07369
5326.43044,0.05118
5328.35891,0.03526
5330.28737,0.04611
5332.21584,0.06344
5334.14431,0.06790
5336.07278,0.06125
5338.00125,0.04664
5339.92972,0.03935
5341.85819,0.05380
5343.78665,0.07431
5345.71512,0.07240
5347.64359,0.05591
5349.57206,0.05563
5351.50053,0.08041
5353.42900,0.10501
5355.35747,0.08939
5357.28594,0.05758
5359.21440,0.04703
5361.14287,0.04754
5363.07134,0.05291
5364.99981,0.06250
5366.92828,0.06790
5368.85675,0.06889
5370.78522,0.05829
5372.71368,0.04718
5374.64215,0.05163
5376.57062,0.05455
5378.49909,0.05015
5380.42756,0.05207
5382.35603,0.05364
5384.28450,0.04889
5386.21297,0.05342
5388.14143,0.07393
5390.06990,0.09212
5391.99837,0.09683
5393.92684,0.08844
5395.85531,0.06298
5397.78378,0.03417
5399.71225,0.03400
5401.64071,0.05483
5403.56918,0.06860
5405.49765,0.07062
5407.42612,0.06689
5409.35459,0.06236
5411.28306,0.05506
5413.21153,0.04664
5415.13999,0.04734
5417.06846,0.05585
5418.99693,0.06555
5420.92540,0.07157
5422.85387,0.06952
5424.78234,0.07090
5426.71081,0.08565
5428.63928,0.09494
5430.56774,0.09507
5432.49621,0.09683
5434.42468,0.08713
5436.35315,0.07660
5438.28162,0.08252
5440.21009,0.07657
5442.13856,0.05750
5444.06702,0.06627
5445.99549,0.07864
5447.92396,0.05520
5449.85243,0.02909
5451.78090,0.02797
5453.70937,0.03373
5455.63784,0.03712
5457.56631,0.05845
5459.49477,0.08860
5461.42324,0.08560
5463.35171,0.06442
5465.28018,0.07401
5467.20865,0.11161
5469.13712,0.14587
5471.06559,0.14539
5472.99405,0.10566
5474.92252,0.07070
5476.85099,0.06892
5478.77946,0.07578
5480.70793,0.07032
5482.63640,0.05154
5484.56487,0.04448
5486.49334,0.06810
5488.42180,0.10983
5490.35027,0.13650
5492.27874,0.12047
5494.20721,0.08094
5496.13568,0.06414
5498.06415,0.07231
5499.99262,0.08619
5501.92108,0.10092
5503.84955,0.10301
5505.77802,0.08670
5507.70649,0.07358
5509.63496,0.07869
5511.56343,0.09734
5513.49190,0.12177
5515.42037,0.14465
5517.34883,0.14371
5519.27730,0.11133
5521.20577,0.08211
5523.13424,0.08174
5525.06271,0.09552
5526.99118,0.09879
5528.91965,0.09290
5530.84811,0.09139
5532.77658,0.09397
5534.70505,0.09941
5536.63352,0.11014
5538.56199,0.11596
5540.49046,0.10585
5542.41893,0.08171
5544.34740,0.06641
5546.27586,0.07578
5548.20433,0.08657
5550.13280,0.08261
5552.06127,0.07258
5553.98974,0.06571
5555.91821,0.07700
5557.84668,0.10815
5559.77514,0.12708
5561.70361,0.11882
5563.63208,0.10585
5565.56055,0.09168
5567.48902,0.06625
5569.41749,0.04806
5571.34596,0.04994
5573.27443,0.05924
5575.20289,0.06372
5577.13136,0.06604
5579.05983,0.06952
5580.98830,0.06937
5582.91677,0.06658
5584.84524,0.06814
5586.77371,0.06974
5588.70217,0.06632
5590.63064,0.06075
5592.55911,0.05909
5594.48758,0.07014
5596.41605,0.08637
5598.34452,0.09554
5600.27299,0.09651
5602.20145,0.07784
5604.12992,0.04740
5606.05839,0.04064
5607.98686,0.06366
5609.91533,0.08702
5611.84380,0.08878
5613.77227,0.08118
5615.70074,0.08165
5617.62920,0.07892
5619.55767,0.07160
5621.48614,0.07607
5623.41461,0.08153
5625.34308,0.06687
5627.27155,0.04244
5629.20002,0.03809
5631.12848,0.05332
5633.05695,0.06555
5634.98542,0.06532
5636.91389,0.05716
5638.84236,0.05700
5640.77083,0.06745
5642.69930,0.08095
5644.62777,0.10699
5646.55623,0.12731
5648.48470,0.10219
5650.41317,0.06098
5652.34164,0.05049
5654.27011,0.05240
5656.19858,0.05106
5658.12705,0.05575
5660.05551,0.06227
5661.98398,0.06539
5663.91245,0.06056
5665.84092,0.05573
5667.76939,0.06508
5669.69786,0.06890
5671.62633,0.05038
5673.55480,0.03832
5675.48326,0.04738
5677.41173,0.06191
5679.34020,0.08108
5681.26867,0.07805
5683.19714,0.03600
5685.12561,0.01873
5687.05408,0.04838
5688.98254,0.07518
5690.91101,0.08322
5692.83948,0.07750
5694.76795,0.06609
5696.69642,0.06376
5698.62489,0.06048
5700.55336,0.06128
5702.48183,0.08165
5704.41029,0.09206
5706.33876,0.06787
5708.26723,0.03129
5710.19570,0.00430
5712.12417,-0.01331
5714.05264,-0.00617
5715.98111,0.04352
5717.90957,0.09491
5719.83804,0.09315
5721.76651,0.06305
5723.69498,0.05942
5725.62345,0.07931
5727.55192,0.08695
5729.48039,0.07544
5731.40886,0.07016
5733.33732,0.07992
5735.26579,0.08036
5737.19426,0.06980
5739.12273,0.07938
5741.05120,0.08667
5742.97967,0.06862
5744.90814,0.06024
5746.83660,0.07117
5748.76507,0.07500
5750.69354,0.07115
5752.62201,0.06364
5754.55048,0.05118
5756.47895,0.05923
5758.40742,0.08437
5760.33588,0.09652
5762.26435,0.09436
5764.19282,0.08906
5766.12129,0.08623
5768.04976,0.10333
5769.97823,0.13676
5771.90670,0.14006
5773.83517,0.10426
5775.76363,0.07278
5777.69210,0.07715
5779.62057,0.10612
5781.54904,0.11608
5783.47751,0.10105
5785.40598,0.08549
5787.33445,0.08116
5789.26291,0.09523
5791.19138,0.11585
5793.11985,0.11711
5795.04832,0.09623
5796.97679,0.06792
5798.90526,0.06014
5800.83373,0.07751
5802.76220,0.08142
5804.69066,0.06983
5806.61913,0.07020
5808.54760,0.09398
5810.47607,0.13575
5812.40454,0.14398
5814.33301,0.11247
5816.26148,0.09623
5818.18994,0.10393
5820.11841,0.11798
5822.04688,0.11477
5823.97535,0.09446
5825.90382,0.09505
5827.83229,0.11762
5829.76076,0.12409
5831.68923,0.10649
5833.61769,0.10867
5835.54616,0.12906
5837.47463,0.10656
5839.40310,0.04165
5841.33157,0.00455
5843.26004,0.03746
5845.18851,0.08121
5847.11697,0.08114
5849.04544,0.07771
5850.97391,0.08876
5852.90238,0.08063
5854.83085,0.06581
5856.75932,0.07504
5858.68779,0.10410
5860.61626,0.12079
5862.54472,0.09604
5864.47319,0.05865
5866.40166,0.06757
5868.33013,0.10378
5870.25860,0.10051
5872.18707,0.05549
5874.11554,0.01846
5876.04400,0.02158
5877.97247,0.05462
5879.90094,0.09394
5881.82941,0.13910
5883.75788,0.17639
5885.68635,0.18410
5887.61482,0.18131
5889.54329,0.16592
5891.47175,0.12733
5893.40022,0.10157
5895.32869,0.09215
5897.25716,0.08122
5899.18563,0.08639
5901.11410,0.10382
5903.04257,0.11724
5904.97103,0.13263
5906.89950,0.13316
5908.82797,0.10526
5910.75644,0.07138
5912.68491,0.04497
5914.61338,0.04508
5916.54185,0.08099
5918.47032,0.10270
5920.39878,0.09667
5922.32725,0.09764
5924.25572,0.09514
5926.18419,0.07769
5928.11266,0.06443
5930.04113,0.07896
5931.96960,0.12106
5933.89806,0.15522
5935.82653,0.14354
5937.75500,0.10140
5939.68347,0.08425
5941.61194,0.11015
5943.54041,0.13045
5945.46888,0.11364
5947.39734,0.10654
5949.32581,0.12426
5951.25428,0.12141
5953.18275,0.08624
5955.11122,0.04146
5957.03969,0.02660
5958.96816,0.05111
5960.89663,0.07679
5962.82509,0.08972
5964.75356,0.10870
5966.68203,0.13443
5968.61050,0.13624
5970.53897,0.11133
5972.46744,0.09398
5974.39591,0.08997
5976.32437,0.09337
5978.25284,0.09873
5980.18131,0.08079
5982.10978,0.04971
5984.03825,0.03651
5985.96672,0.06218
5987.89519,0.11867
5989.82366,0.13060
5991.75212,0.09497
5993.68059,0.08499
5995.60906,0.09310
5997.53753,0.08633
5999.46600,0.07787
6001.39447,0.07195
6003.32294,0.06470
6005.25140,0.05488
6007.17987,0.04863
6009.10834,0.07005
6011.03681,0.09739
6012.96528,0.09705
6014.89375,0.10549
6016.82222,0.12592
6018.75069,0.10368
6020.67915,0.07202
6022.60762,0.09253
6024.53609,0.11976
6026.46456,0.09924
6028.39303,0.06479
6030.32150,0.07366
6032.24997,0.09848
6034.17843,0.10071
6036.10690,0.10269
6038.03537,0.11059
6039.96384,0.09994
6041.89231,0.05825
6043.82078,0.01515
6045.74925,0.01668
6047.67772,0.04915
6049.60618,0.08558
6051.53465,0.12241
6053.46312,0.14157
6055.39159,0.13780
6057.32006,0.13657
6059.24853,0.14240
6061.17700,0.13569
6063.10546,0.09902
6065.03393,0.04157
6066.96240,0.02071
6068.89087,0.07403
6070.81934,0.13855
6072.74781,0.14453
6074.67628,0.10939
6076.60475,0.07653
6078.53321,0.07595
6080.46168,0.10025
6082.39015,0.10067
6084.31862,0.05615
6086.24709,0.00945
6088.17556,0.01160
6090.10403,0.04309
6092.03249,0.05898
6093.96096,0.05412
6095.88943,0.05150
6097.81790,0.05428
6099.74637,0.04952
6101.67484,0.05313
6103.60331,0.08272
6105.53177,0.11398
6107.46024,0.12069
6109.38871,0.11494
6111.31718,0.13087
6113.24565,0.17172
6115.17412,0.19100
6117.10259,0.15802
6119.03106,0.11021
6120.95952,0.10694
6122.88799,0.13595
6124.81646,0.15675
6126.74493,0.15339
6128.67340,0.12813
6130.60187,0.11320
6132.53034,0.10654
6134.45880,0.08194
6136.38727,0.08096
6138.31574,0.11445
6140.24421,0.12969
6142.17268,0.11452
6144.10115,0.10203
6146.02962,0.12532
6147.95809,0.15215
6149.88655,0.14339
6151.81502,0.12633
6153.74349,0.10466
6155.67196,0.07606
6157.60043,0.08779
6159.52890,0.12283
6161.45737,0.10591
6163.38583,0.06791
6165.31430,0.08000
6167.24277,0.10930
6169.17124,0.11667
6171.09971,0.10323
6173.02818,0.10050
6174.95665,0.12399
6176.88512,0.12795
6178.81358,0.10679
6180.74205,0.10904
6182.67052,0.12532
6184.59899,0.11038
6186.52746,0.09025
6188.45593,0.09761
6190.38440,0.08001
6192.31286,0.02846
6194.24133,0.00529
6196.16980,0.04789
6198.09827,0.11122
6200.02674,0.11204
6201.95521,0.06577
6203.88368,0.04464
6205.81215,0.05389
6207.74061,0.06663
6209.66908,0.08983
6211.59755,0.11626
6213.52602,0.11741
6215.45449,0.09910
6217.38296,0.08809
6219.31143,0.09099
6221.23989,0.08582
6223.16836,0.05388
6225.09683,0.01641
6227.02530,-0.00128
6228.95377,0.00479
6230.88224,0.04975
6232.81071,0.10935
6234.73918,0.12083
6236.66764,0.08086
6238.59611,0.02738
6240.52458,-0.00985
6242.45305,-0.01687
6244.38152,0.00635
6246.30999,0.03298
6248.23846,0.02949
6250.16692,0.00663
6252.09539,-0.00363
6254.02386,0.01150
6255.95233,0.05013
6257.88080,0.08478
6259.80927,0.08680
6261.73774,0.06200
6263.66621,0.03600
6265.59467,0.04074
6267.52314,0.08294
6269.45161,0.11956
6271.38008,0.11381
6273.30855,0.09528
6275.23702,0.13252
6277.16549,0.18359
6279.09395,0.15149
6281.02242,0.08380
6282.95089,0.06836
6284.87936,0.09572
6286.80783,0.08852
6288.73630,0.02149
6290.66477,-0.01715
6292.59323,0.01793
6294.52170,0.06630
6296.45017,0.08774
6298.37864,0.08070
6300.30711,0.07822
6302.23558,0.09653
6304.16405,0.10143
6306.09252,0.08541
6308.02098,0.06701
6309.94945,0.05248
6311.87792,0.04160
6313.80639,0.05456
6315.73486,0.09414
6317.66333,0.10089
6319.59180,0.08966
6321.52026,0.13547
6323.44873,0.15723
6325.37720,0.10315
6327.30567,0.08096
6329.23414,0.13328
6331.16261,0.17870
6333.09108,0.13497
6335.01955,0.03942
6336.94801,0.00278
6338.87648,0.03955
6340.80495,0.06296
6342.73342,0.04399
6344.66189,0.02948
6346.59036,0.03512
6348.51883,0.06053
6350.44729,0.09747
6352.37576,0.10757
6354.30423,0.08950
6356.23270,0.05392
6358.16117,-0.00440
6360.08964,-0.05664
6362.01811,-0.05314
6363.94658,0.01692
6365.87504,0.10058
6367.80351,0.13759
6369.73198,0.16326
6371.66045,0.20577
6373.58892,0.17443
6375.51739,0.05984
6377.44586,0.00442
6379.37432,0.04800
6381.30279,0.09431
6383.23126,0.08790
6385.15973,0.06148
6387.08820,0.02520
6389.01667,-0.01456
6390.94514,0.00676
6392.87361,0.07912
6394.80207,0.07317
6396.73054,0.01453
6398.65901,0.02609
6400.58748,0.07305
6402.51595,0.04550
6404.44442,-0.02108
6406.37289,-0.01766
6408.30135,0.02730
6410.22982,0.02645
6412.15829,-0.00159
6414.08676,-0.02765
6416.01523,-0.02575
6417.94370,0.04658
6419.87217,0.13528
6421.80064,0.16182
6423.72910,0.14554
6425.65757,0.11513
6427.58604,0.07697
6429.51451,0.05359
6431.44298,0.06963
6433.37145,0.08649
6435.29992,0.04825
6437.22838,0.01928
6439.15685,0.08161
6441.08532,0.14430
6443.01379,0.14285
6444.94226,0.12871
6446.87073,0.14295
6448.79920,0.17256
6450.72766,0.17743
6452.65613,0.15648
6454.58460,0.12696
6456.51307,0.07998
6458.44154,0.05838
6460.37001,0.08850
6462.29848,0.10594
6464.22695,0.06573
6466.15541,-0.00018
6468.08388,-0.05182
6470.01235,-0.07289
6471.94082,-0.04086
6473.86929,0.03722
6475.79776,0.07617
6477.72623,0.02207
6479.65469,-0.02360
6481.58316,0.02371
6483.51163,0.10582
6485.44010,0.14248
6487.36857,0.13271
6489.29704,0.11204
6491.22551,0.07883
6493.15398,0.02684
6495.08244,-0.01356
6497.01091,-0.03581
6498.93938,-0.02819
6500.86785,0.04970
6502.79632,0.12002
6504.72479,0.06093
6506.65326,-0.02067
6508.58172,-0.04278
6510.51019,-0.09594
6512.43866,-0.13764
6514.36713,-0.07922
6516.29560,0.02517
6518.22407,0.09489
6520.15254,0.12581
6522.08101,0.15898
6524.00947,0.16125
6525.93794,0.10683
6527.86641,0.05410
6529.79488,0.03766
6531.72335,0.05887
6533.65182,0.09511
6535.58029,0.12490
6537.50875,0.15617
6539.43722,0.15471
6541.36569,0.06546
6543.29416,-0.03618
6545.22263,-0.03071
6547.15110,0.01410
6549.07957,0.01014
6551.00804,0.03083
6552.93650,0.11673
6554.86497,0.13146
6556.79344,0.03109
6558.72191,-0.05561
6560.65038,-0.07403
6562.57885,-0.07454
6564.50732,-0.05996
6566.43578,-0.01732
6568.36425,0.05218
6570.29272,0.12726
6572.22119,0.15657
6574.14966,0.14558
6576.07813,0.12841
6578.00660,0.10278
6579.93507,0.08786
6581.86353,0.11277
6583.79200,0.12978
6585.72047,0.10531
6587.64894,0.08252
6589.57741,0.07464
6591.50588,0.06145
6593.43435,0.03268
6595.36281,0.01155
6597.29128,0.03559
6599.21975,0.09212
6601.14822,0.09499
6603.07669,0.01225
6605.00516,-0.04248
6606.93363,-0.00113
6608.86210,0.09905
6610.79056,0.18792
6612.71903,0.18775
6614.64750,0.09913
6616.57597,0.04646
6618.50444,0.06145
6620.43291,0.04680
6622.36138,0.00359
6624.28984,0.01465
6626.21831,0.08571
6628.14678,0.12533
6630.07525,0.10085
6632.00372,0.12094
6633.93219,0.20426
6635.86066,0.22394
6637.78912,0.13413
6639.71759,0.06488
6641.64606,0.06368
6643.57453,0.04386
6645.50300,-0.00193
6647.43147,0.01320
6649.35994,0.06242
6651.28841,0.10994
6653.21687,0.14026
6655.14534,0.10098
6657.07381,0.04103
6659.00228,0.03992
6660.93075,0.09688
6662.85922,0.18811
6664.78769,0.23652
6666.71615,0.23098
6668.64462,0.22430
6670.57309,0.22583
6672.50156,0.21413
6674.43003,0.14393
6676.35850,0.04487
6678.28697,-0.00903
6680.21544,-0.03454
6682.14390,-0.04169
6684.07237,0.00257
6686.00084,0.05834
6687.92931,0.07514
6689.85778,0.03066
6691.78625,-0.05586
6693.71472,-0.08452
6695.64318,-0.02218
6697.57165,0.00663
6699.50012,-0.06185
6701.42859,-0.14513
6703.35706,-0.12273
6705.28553,0.00815
6707.21400,0.12046
6709.14247,0.12496
6711.07093,0.07393
6712.99940,0.02890
6714.92787,-0.01562
6716.85634,-0.04165
6718.78481,-0.01684
6720.71328,0.00597
6722.64175,0.00158
6724.57021,0.06416
6726.49868,0.15673
6728.42715,0.17439
6730.35562,0.14768
6732.28409,0.10152
6734.21256,0.03085
6736.14103,-0.02641
6738.06950,-0.03106
6739.99796,0.02215
6741.92643,0.08553
6743.85490,0.09157
6745.78337,0.06498
6747.71184,0.05469
6749.64031,0.04268
6751.56878,0.02082
6753.49724,0.03018
6755.42571,0.07076
6757.35418,0.10113
6759.28265,0.12333
6761.21112,0.15291
6763.13959,0.12865
6765.06806,0.06744
6766.99653,0.05963
6768.92499,0.10143
6770.85346,0.14762
6772.78193,0.15495
6774.71040,0.09427
6776.63887,-0.00533
6778.56734,-0.11039
6780.49581,-0.19385
6782.42427,-0.18916
6784.35274,-0.10077
6786.28121,-0.04024
6788.20968,-0.05748
6790.13815,-0.00233
6792.06662,0.21211
6793.99509,0.29510
6795.92355,0.14543
6797.85202,0.03311
6799.78049,0.02819
6801.70896,0.04709
6803.63743,0.11178
6805.56590,0.17238
6807.49437,0.15032
6809.42284,0.11060
6811.35130,0.11221
6813.27977,0.13408
6815.20824,0.16133
6817.13671,0.14668
6819.06518,0.07998
6820.99365,0.07166
6822.92212,0.15897
6824.85058,0.19307
6826.77905,0.11447
6828.70752,0.05278
6830.63599,0.10561
6832.56446,0.19293
6834.49293,0.24542
6836.42140,0.25246
6838.34987,0.17425
6840.27833,0.03643
6842.20680,-0.03937
6844.13527,-0.02655
6846.06374,-0.02565
6847.99221,-0.05434
6849.92068,-0.03226
6851.84915,0.04147
6853.77761,0.10760
6855.70608,0.14265
6857.63455,0.14464
6859.56302,0.12570
6861.49149,0.12439
6863.41996,0.14567
6865.34843,0.15380
6867.27690,0.14102
6869.20536,0.09446
6871.13383,0.03229
6873.06230,0.00017
6874.99077,0.00089
6876.91924,-0.00270
6878.84771,0.00078
6880.77618,0.05602
6882.70464,0.10298
6884.63311,0.09926
6886.56158,0.08849
6888.49005,0.07741
6890.41852,0.05411
6892.34699,0.04923
6894.27546,0.09222
6896.20393,0.13691
6898.13239,0.13379
6900.06086,0.11920
6901.98933,0.10530
6903.91780,0.08794
6905.84627,0.08583
6907.77474,0.08945
6909.70321,0.12837
6911.63167,0.14320
6913.56014,0.03303
6915.48861,-0.04447
6917.41708,0.02355
6919.34555,0.10304
6921.27402,0.06764
6923.20249,-0.04982
6925.13096,-0.06385
6927.05942,0.07243
6928.98789,0.13758
6930.91636,0.04598
6932.84483,0.00254
6934.77330,0.04684
6936.70177,0.02288
6938.63024,-0.04905
6940.55870,0.04216
6942.48717,0.22974
6944.41564,0.24460
6946.34411,0.15512
6948.27258,0.10468
6950.20105,0.03542
6952.12952,-0.04295
6954.05799,-0.04328
6955.98645,-0.00682
6957.91492,-0.00048
6959.84339,0.00621
6961.77186,0.02370
6963.70033,0.00116
6965.62880,-0.01390
6967.55727,0.03970
6969.48573,0.06300
6971.41420,-0.01123
6973.34267,-0.08210
6975.27114,-0.09031
6977.19961,-0.08709
6979.12808,-0.05469
6981.05655,0.01756
6982.98501,0.06276
6984.91348,0.10717
6986.84195,0.15643
6988.77042,0.11629
6990.69889,0.04798
6992.62736,0.02701
6994.55583,-0.00840
6996.48430,-0.09831
6998.41276,-0.18777
7000.34123,-0.15977
7002.26970,-0.00341
7004.19817,0.11874
7006.12664,0.08875
7008.05511,-0.00895
7009.98358,0.01109
7011.91204,0.09809
7013.84051,0.12740
7015.76898,0.09394
7017.69745,0.03026
7019.62592,-0.03661
7021.55439,-0.07429
7023.48286,-0.05981
7025.41133,0.00010
7027.33979,-0.01418
7029.26826,-0.10968
7031.19673,-0.15093
7033.12520,-0.16375
7035.05367,-0.15568
7036.98214,-0.13016
7038.91061,-0.12336
7040.83907,-0.06943
7042.76754,0.03789
7044.69601,0.10216
7046.62448,0.15958
7048.55295,0.20779
7050.48142,0.15693
7052.40989,0.06010
7054.33836,-0.01458
7056.26682,-0.05655
7058.19529,0.01097
7060.12376,0.12527
7062.05223,0.16708
7063.98070,0.16314
7065.90917,0.11356
7067.83764,0.04914
7069.76610,0.02545
7071.69457,-0.01831
7073.62304,-0.07864
7075.55151,-0.05391
7077.47998,0.04966
7079.40845,0.21925
7081.33692,0.35967
7083.26539,0.29756
7085.19385,0.18081
7087.12232,0.13967
7089.05079,0.10587
7090.97926,0.08523
7092.90773,0.10782
7094.83620,0.05348
7096.76467,-0.05826
7098.69313,-0.06279
7100.62160,0.00934
7102.55007,0.10152
7104.47854,0.20376
7106.40701,0.20880
7108.33548,0.12271
7110.26395,0.05002
7112.19242,0.00287
7114.12088,0.00124
7116.04935,0.00658
7117.97782,-0.04428
7119.90629,-0.00623
7121.83476,0.07740
7123.76323,0.03577
7125.69170,-0.08684
7127.62016,-0.19690
7129.54863,-0.23744
7131.47710,-0.18632
7133.40557,-0.03933
7135.33404,0.10129
7137.26251,0.13044
7139.19098,0.06096
7141.11944,-0.07027
7143.04791,-0.11838
7144.97638,0.00281
7146.90485,0.08109
7148.83332,0.06839
7150.76179,0.10413
7152.69026,0.10065
7154.61873,-0.02269
7156.54719,-0.04084
7158.47566,0.09674
7160.40413,0.15726
7162.33260,0.08199
7164.26107,0.06086
7166.18954,0.10325
7168.11801,0.05155
7170.04647,-0.07088
7171.97494,-0.07014
7173.90341,0.05493
7175.83188,0.12738
7177.76035,0.08002
7179.68882,-0.01196
7181.61729,-0.06186
7183.54576,-0.04986
7185.47422,-0.03367
7187.40269,0.02694
7189.33116,0.12585
7191.25963,0.13864
7193.18810,0.08534
7195.11657,0.07569
7197.04504,0.11190
7198.97350,0.13548
7200.90197,0.07219
7202.83044,-0.01983
7204.75891,-0.02207
7206.68738,0.04912
7208.61585,0.17599
7210.54432,0.28789
7212.47279,0.27483
7214.40125,0.22778
7216.32972,0.23888
7218.25819,0.17994
7220.18666,0.04439
7222.11513,0.00808
7224.04360,0.02085
7225.97207,-0.02896
7227.90053,-0.12227
7229.82900,-0.13089
7231.75747,-0.01075
7233.68594,0.02287
7235.61441,-0.03149
7237.54288,0.00109
7239.47135,0.08096
7241.39982,0.14209
7243.32828,0.21194
7245.25675,0.23321
7247.18522,0.15639
7249.11369,-0.02270
7251.04216,-0.18654
7252.97063,-0.10155
7254.89910,0.09281
7256.82756,0.09277
7258.75603,0.02761
7260.68450,0.05608
7262.61297,0.10764
7264.54144,0.10780
7266.46991,0.12026
7268.39838,0.14736
7270.32685,0.20938
7272.25531,0.32460
7274.18378,0.34027
7276.11225,0.21772
7278.04072,0.12221
7279.96919,0.21531
7281.89766,0.36057
7283.82613,0.32692
7285.75459,0.17979
7287.68306,-0.01014
7289.61153,-0.15073
7291.54000,-0.22746
7293.46847,-0.32379
7295.39694,-0.30771
7297.32541,-0.12322
7299.25387,0.02415
7301.18234,0.03786
7303.11081,0.03449
7305.03928,0.14669
7306.96775,0.23571
7308.89622,0.13220
7310.82469,0.03424
7312.75316,0.11623
7314.68162,0.20257
7316.61009,0.08940
7318.53856,-0.05013
7320.46703,-0.06606
7322.39550,-0.11417
7324.32397,-0.14035
7326.25244,-0.06438
7328.18090,0.03497
7330.10937,0.06490
7332.03784,0.07769
7333.96631,0.21055
7335.89478,0.34200
7337.82325,0.25590
7339.75172,-0.14263
7341.68019,-0.34714
7343.60865,-0.14803
7345.53712,0.12887
7347.46559,0.32837
7349.39406,0.38617
7351.32253,0.35272
7353.25100,0.31885
7355.17947,0.27414
7357.10793,0.19977
7359.03640,0.13239
7360.96487,0.05279
7362.89334,-0.01907
7364.82181,0.01303
7366.75028,0.09918
7368.67875,0.06392
7370.60722,-0.10991
7372.53568,-0.26610
7374.46415,-0.21955
7376.39262,0.06148
7378.32109,0.21557
7380.24956,0.20090
7382.17803,0.09462
7384.10650,0.04423
7386.03496,0.12883
7387.96343,0.14528
7389.89190,0.05418
7391.82037,0.06089
7393.74884,0.15473
7395.67731,0.16178
7397.60578,0.09524
7399.53425,0.05467
7401.46271,0.01904
7403.39118,-0.01944
7405.31965,0.02381
7407.24812,0.14093
7409.17659,0.22637
7411.10506,0.15534
7413.03353,-0.02725
7414.96199,-0.10962
7416.89046,-0.03665
7418.81893,0.07569
7420.74740,0.09914
7422.67587,0.06839
7424.60434,0.08515
7426.53281,0.13493
7428.46128,0.13891
7430.38974,0.05903
7432.31821,-0.02096
7434.24668,-0.08908
7436.17515,-0.19259
7438.10362,-0.27422
7440.03209,-0.30299
7441.96056,-0.33751
7443.88902,-0.32232
7445.81749,-0.14485
7447.74596,0.09333
7449.67443,0.22015
7451.60290,0.18204
7453.53137,0.06025
7455.45984,-0.01318
7457.38831,0.04819
7459.31677,0.23693
7461.24524,0.35006
7463.17371,0.43064
7465.10218,0.55685
7467.03065,0.44938
7468.95912,0.19367
7470.88759,0.01968
7472.81605,-0.04866
7474.74452,-0.03850
7476.67299,0.03557
7478.60146,0.19829
7480.52993,0.37159
7482.45840,0.30556
7484.38687,0.17359
7486.31533,0.20820
7488.24380,0.14730
7490.17227,-0.09287
7492.10074,-0.18011
7494.02921,-0.12445
7495.95768,-0.15677
7497.88615,-0.35347
