399.19301,1.62736
401.12148,0.36466
403.04995,-0.21148
404.97842,-0.40961
406.90689,-0.41916
408.83536,-0.32209
410.76382,-0.23415
412.69229,-0.21918
414.62076,-0.17697
416.54923,-0.01155
418.47770,0.25146
420.40617,0.33440
422.33464,0.32290
424.26311,0.34670
426.19157,0.28645
428.12004,0.17976
430.04851,0.08026
431.97698,0.01445
433.90545,0.04671
435.83392,0.09023
437.76239,0.07133
439.69085,0.02785
441.61932,-0.01755
443.54779,-0.01454
445.47626,0.03610
447.40473,0.00800
449.33320,-0.06978
451.26167,-0.08209
453.19013,-0.04304
455.11860,0.01588
457.04707,0.09748
458.97554,0.18890
460.90401,0.26911
462.83248,0.27284
464.76095,0.15703
466.68942,0.05260
468.61788,0.05619
470.54635,0.12715
472.47482,0.27224
474.40329,0.44232
476.33176,0.38289
478.26023,0.20121
480.18870,0.07258
482.11716,0.07000
484.04563,0.13072
485.97410,0.13243
487.90257,0.07935
489.83104,0.03078
491.75951,0.00388
493.68798,0.00840
495.61645,0.05679
497.54491,0.12622
499.47338,0.16743
501.40185,0.14843
503.33032,0.09654
505.25879,0.06872
507.18726,0.07479
509.11573,0.10322
511.04419,0.11411
512.97266,0.08706
514.90113,0.05624
516.82960,0.05734
518.75807,0.09016
520.68654,0.15015
522.61501,0.21479
524.54348,0.21610
526.47194,0.15377
528.40041,0.09480
530.32888,0.07376
532.25735,0.10066
534.18582,0.13244
536.11429,0.14362
538.04276,0.14867
539.97122,0.13232
541.89969,0.09184
543.82816,0.07582
545.75663,0.11669
547.68510,0.16825
549.61357,0.18072
551.54204,0.17194
553.47051,0.16375
555.39897,0.13576
557.32744,0.09023
559.25591,0.06890
561.18438,0.07746
563.11285,0.09077
565.04132,0.09553
566.96979,0.08647
568.89825,0.07136
570.82672,0.06763
572.75519,0.08571
574.68366,0.11008
576.61213,0.10187
578.54060,0.06729
580.46907,0.04329
582.39754,0.04440
584.32600,0.06459
586.25447,0.08619
588.18294,0.09793
590.11141,0.10843
592.03988,0.11948
593.96835,0.12017
595.89682,0.12787
597.82528,0.15149
599.75375,0.15597
601.68222,0.12998
603.61069,0.09920
605.53916,0.08416
607.46763,0.08565
609.39610,0.08624
611.32456,0.07920
613.25303,0.06948
615.18150,0.06065
617.10997,0.05777
619.03844,0.05581
620.96691,0.05591
622.89538,0.06190
624.82385,0.05140
626.75231,0.02503
628.68078,0.01828
630.60925,0.04250
632.53772,0.09640
634.46619,0.15258
636.39466,0.16120
638.32313,0.12836
640.25159,0.09142
642.18006,0.08256
644.10853,0.10240
646.03700,0.12047
647.96547,0.12616
649.89394,0.11361
651.82241,0.08085
653.75088,0.05871
655.67934,0.07178
657.60781,0.10998
659.53628,0.13573
661.46475,0.12776
663.39322,0.11192
665.32169,0.09923
667.25016,0.07862
669.17862,0.08013
671.10709,0.10477
673.03556,0.12028
674.96403,0.12737
676.89250,0.11535
678.82097,0.08917
680.74944,0.08436
682.67791,0.11185
684.60637,0.13438
686.53484,0.13016
688.46331,0.11664
690.39178,0.10669
692.32025,0.10125
694.24872,0.10174
696.17719,0.10642
698.10565,0.10675
700.03412,0.09402
701.96259,0.07544
703.89106,0.07243
705.81953,0.08658
707.74800,0.10248
709.67647,0.12316
711.60494,0.14547
713.53340,0.14579
715.46187,0.13141
717.39034,0.13511
719.31881,0.15283
721.24728,0.16334
723.17575,0.16569
725.10422,0.15786
727.03268,0.14588
728.96115,0.14663
730.88962,0.15321
732.81809,0.15086
734.74656,0.14062
736.67503,0.12432
738.60350,0.10687
740.53197,0.09971
742.46043,0.10407
744.38890,0.10538
746.31737,0.09998
748.24584,0.10746
750.17431,0.12545
752.10278,0.13023
754.03125,0.12400
755.95971,0.12642
757.88818,0.13833
759.81665,0.14340
761.74512,0.13946
763.67359,0.13622
765.60206,0.13174
767.53053,0.12239
769.45900,0.11936
771.38746,0.12591
773.31593,0.12928
775.24440,0.11971
777.17287,0.09877
779.10134,0.08539
781.02981,0.09028
782.95828,0.10798
784.88674,0.12767
786.81521,0.13055
788.74368,0.12133
790.67215,0.12084
792.60062,0.12714
794.52909,0.13383
796.45756,0.14504
798.38602,0.15864
800.31449,0.16326
802.24296,0.15480
804.17143,0.14500
806.09990,0.14604
808.02837,0.15192
809.95684,0.15232
811.88531,0.14964
813.81377,0.13574
815.74224,0.10664
817.67071,0.09292
819.59918,0.10503
821.52765,0.11382
823.45612,0.10611
825.38459,0.09032
827.31305,0.07921
829.24152,0.08478
831.16999,0.10386
833.09846,0.12605
835.02693,0.14326
836.95540,0.14911
838.88387,0.14601
840.81234,0.13950
842.74080,0.13623
844.66927,0.14283
846.59774,0.15684
848.52621,0.17107
850.45468,0.17529
852.38315,0.16665
854.31162,0.15393
856.24008,0.14381
858.16855,0.13736
860.09702,0.13161
862.02549,0.12203
863.95396,0.11324
865.88243,0.11595
867.81090,0.12990
869.73937,0.14358
871.66783,0.14193
873.59630,0.13094
875.52477,0.12894
877.45324,0.13458
879.38171,0.14351
881.31018,0.14866
883.23865,0.14409
885.16711,0.13838
887.09558,0.13123
889.02405,0.11722
890.95252,0.10301
892.88099,0.09656
894.80946,0.10310
896.73793,0.11841
898.66640,0.12519
900.59486,0.12116
902.52333,0.11640
904.45180,0.11372
906.38027,0.11601
908.30874,0.12074
910.23721,0.12142
912.16568,0.12266
914.09414,0.13306
916.02261,0.14709
917.95108,0.15496
919.87955,0.15590
921.80802,0.15091
923.73649,0.14508
925.66496,0.14291
927.59343,0.14525
929.52189,0.14969
931.45036,0.14742
933.37883,0.14305
935.30730,0.14523
937.23577,0.14252
939.16424,0.13350
941.09271,0.13360
943.02117,0.14209
944.94964,0.14762
946.87811,0.14374
948.80658,0.13329
950.73505,0.12755
952.66352,0.12912
954.59199,0.13117
956.52045,0.13306
958.44892,0.13712
960.37739,0.13999
962.30586,0.13888
964.23433,0.13521
966.16280,0.13539
968.09127,0.14109
970.01974,0.14271
971.94820,0.13781
973.87667,0.13393
975.80514,0.13185
977.73361,0.12754
979.66208,0.12523
981.59055,0.12870
983.51902,0.13189
985.44748,0.13373
987.37595,0.13422
989.30442,0.13255
991.23289,0.13568
993.16136,0.14397
995.08983,0.15251
997.01830,0.16061
998.94677,0.16411
1000.87523,0.15931
1002.80370,0.15011
1004.73217,0.14413
1006.66064,0.14706
1008.58911,0.15319
1010.51758,0.14939
1012.44605,0.13873
1014.37451,0.13384
1016.30298,0.13238
1018.23145,0.13440
1020.15992,0.14614
1022.08839,0.15399
1024.01686,0.14618
1025.94533,0.12194
1027.87380,0.09030
1029.80226,0.08905
1031.73073,0.11686
1033.65920,0.13084
1035.58767,0.13089
1037.51614,0.13125
1039.44461,0.13445
1041.37308,0.14380
1043.30154,0.15112
1045.23001,0.15194
1047.15848,0.15204
1049.08695,0.15704
1051.01542,0.16996
1052.94389,0.18110
1054.87236,0.18309
1056.80083,0.18215
1058.72929,0.17474
1060.65776,0.16071
1062.58623,0.15353
1064.51470,0.15597
1066.44317,0.16156
1068.37164,0.16520
1070.30011,0.16665
1072.22857,0.16640
1074.15704,0.16097
1076.08551,0.15550
1078.01398,0.15841
1079.94245,0.16565
1081.87092,0.17044
1083.79939,0.16751
1085.72786,0.15562
1087.65632,0.14548
1089.58479,0.14129
1091.51326,0.14047
1093.44173,0.14664
1095.37020,0.15582
1097.29867,0.15713
1099.22714,0.15129
1101.15560,0.14758
1103.08407,0.14692
1105.01254,0.14883
1106.94101,0.15595
1108.86948,0.16084
1110.79795,0.16022
1112.72642,0.16029
1114.65489,0.16064
1116.58335,0.15758
1118.51182,0.15474
1120.44029,0.15843
1122.36876,0.16422
1124.29723,0.16584
1126.22570,0.16317
1128.15417,0.15833
1130.08263,0.15884
1132.01110,0.16651
1133.93957,0.16874
1135.86804,0.15751
1137.79651,0.14599
1139.72498,0.14739
1141.65345,0.15683
1143.58191,0.16643
1145.51038,0.17108
1147.43885,0.16593
1149.36732,0.15622
1151.29579,0.15316
1153.22426,0.15642
1155.15273,0.15948
1157.08120,0.15984
1159.00966,0.15866
1160.93813,0.15916
1162.86660,0.16120
1164.79507,0.16182
1166.72354,0.15818
1168.65201,0.15458
1170.58048,0.15800
1172.50894,0.16169
1174.43741,0.15832
1176.36588,0.15485
1178.29435,0.15697
1180.22282,0.16187
1182.15129,0.16674
1184.07976,0.16580
1186.00823,0.15619
1187.93669,0.14913
1189.86516,0.15189
1191.79363,0.15604
1193.72210,0.15449
1195.65057,0.15264
1197.57904,0.15453
1199.50751,0.15449
1201.43597,0.15342
1203.36444,0.15653
1205.29291,0.15906
1207.22138,0.15746
1209.14985,0.15581
1211.07832,0.15495
1213.00679,0.15394
1214.93526,0.15460
1216.86372,0.15792
1218.79219,0.16278
1220.72066,0.16504
1222.64913,0.16206
1224.57760,0.15664
1226.50607,0.15343
1228.43454,0.15503
1230.36300,0.15873
1232.29147,0.15949
1234.21994,0.15624
1236.14841,0.15279
1238.07688,0.15221
1240.00535,0.15346
1241.93382,0.15502
1243.86229,0.15728
1245.79075,0.15954
1247.71922,0.15945
1249.64769,0.15830
1251.57616,0.15856
1253.50463,0.15909
1255.43310,0.16057
1257.36157,0.16233
1259.29003,0.15977
1261.21850,0.15647
1263.14697,0.15785
1265.07544,0.16050
1267.00391,0.16287
1268.93238,0.16452
1270.86085,0.16513
1272.78932,0.16533
1274.71778,0.16306
1276.64625,0.16178
1278.57472,0.16475
1280.50319,0.16623
1282.43166,0.16326
1284.36013,0.15933
1286.28860,0.15650
1288.21706,0.15689
1290.14553,0.16205
1292.07400,0.16744
1294.00247,0.16818
1295.93094,0.16461
1297.85941,0.15846
1299.78788,0.15149
1301.71634,0.14451
1303.64481,0.13915
1305.57328,0.14390
1307.50175,0.16014
1309.43022,0.17286
1311.35869,0.17409
1313.28716,0.17059
1315.21563,0.17021
1317.14409,0.17477
1319.07256,0.17751
1321.00103,0.17299
1322.92950,0.16751
1324.85797,0.16460
1326.78644,0.16139
1328.71491,0.15984
1330.64337,0.16038
1332.57184,0.16309
1334.50031,0.16756
1336.42878,0.17023
1338.35725,0.17310
1340.28572,0.17266
1342.21419,0.16914
1344.14266,0.17139
1346.07112,0.17278
1347.99959,0.16716
1349.92806,0.15988
1351.85653,0.15599
1353.78500,0.15861
1355.71347,0.16450
1357.64194,0.16718
1359.57040,0.16862
1361.49887,0.17340
1363.42734,0.17592
1365.35581,0.17337
1367.28428,0.17301
1369.21275,0.17529
1371.14122,0.17855
1373.06969,0.18321
1374.99815,0.18424
1376.92662,0.18231
1378.85509,0.18495
1380.78356,0.18856
1382.71203,0.18757
1384.64050,0.18621
1386.56897,0.18695
1388.49743,0.18509
1390.42590,0.18148
1392.35437,0.18222
1394.28284,0.18756
1396.21131,0.19150
1398.13978,0.18897
1400.06825,0.18058
1401.99672,0.17657
1403.92518,0.18222
1405.85365,0.18782
1407.78212,0.18538
1409.71059,0.17980
1411.63906,0.17487
1413.56753,0.17400
1415.49600,0.18323
1417.42446,0.20158
1419.35293,0.20808
1421.28140,0.19709
1423.20987,0.18965
1425.13834,0.18516
1427.06681,0.18535
1428.99528,0.19256
1430.92375,0.19355
1432.85221,0.18998
1434.78068,0.19566
1436.70915,0.20177
1438.63762,0.19266
1440.56609,0.18235
1442.49456,0.17930
1444.42303,0.18124
1446.35149,0.18450
1448.27996,0.18325
1450.20843,0.18019
1452.13690,0.18639
1454.06537,0.20660
1455.99384,0.24063
1457.92231,0.25083
1459.85077,0.21948
1461.77924,0.20095
1463.70771,0.19994
1465.63618,0.19913
1467.56465,0.19675
1469.49312,0.20593
1471.42159,0.22223
1473.35006,0.22388
1475.27852,0.20992
1477.20699,0.19733
1479.13546,0.18962
1481.06393,0.18628
1482.99240,0.18485
1484.92087,0.18891
1486.84934,0.20309
1488.77780,0.21843
1490.70627,0.21418
1492.63474,0.20226
1494.56321,0.20369
1496.49168,0.21620
1498.42015,0.21840
1500.34862,0.21027
1502.27709,0.21214
1504.20555,0.23445
1506.13402,0.27767
1508.06249,0.27547
1509.99096,0.23753
1511.91943,0.21924
1513.84790,0.21995
1515.77637,0.23518
1517.70483,0.24740
1519.63330,0.25002
1521.56177,0.24599
1523.49024,0.22857
1525.41871,0.21510
1527.34718,0.21005
1529.27565,0.20947
1531.20412,0.21632
1533.13258,0.22415
1535.06105,0.21949
1536.98952,0.22307
1538.91799,0.25958
1540.84646,0.29990
1542.77493,0.28030
1544.70340,0.24507
1546.63186,0.21881
1548.56033,0.20869
1550.48880,0.20845
1552.41727,0.21168
1554.34574,0.22136
1556.27421,0.24226
1558.20268,0.27301
1560.13115,0.24868
1562.05961,0.20866
1563.98808,0.19653
1565.91655,0.20067
1567.84502,0.21129
1569.77349,0.21393
1571.70196,0.20378
1573.63043,0.20279
1575.55889,0.21380
1577.48736,0.21408
1579.41583,0.20309
1581.34430,0.19472
1583.27277,0.18886
1585.20124,0.18527
1587.12971,0.18554
1589.05818,0.18755
1590.98664,0.18755
1592.91511,0.18681
1594.84358,0.18685
1596.77205,0.18551
1598.70052,0.18331
1600.62899,0.18414
1602.55746,0.18785
1604.48592,0.19000
1606.41439,0.18940
1608.34286,0.18618
1610.27133,0.18241
1612.19980,0.18459
1614.12827,0.19640
1616.05674,0.21305
1617.98521,0.21427
1619.91367,0.20824
1621.84214,0.21290
1623.77061,0.21845
1625.69908,0.21672
1627.62755,0.21464
1629.55602,0.20951
1631.48449,0.20702
1633.41295,0.21931
1635.34142,0.23828
1637.26989,0.22593
1639.19836,0.20443
1641.12683,0.19893
1643.05530,0.20712
1644.98377,0.22755
1646.91223,0.24741
1648.84070,0.24483
1650.76917,0.24901
1652.69764,0.27056
1654.62611,0.25025
1656.55458,0.21578
1658.48305,0.20372
1660.41152,0.20703
1662.33998,0.21269
1664.26845,0.21172
1666.19692,0.21587
1668.12539,0.23155
1670.05386,0.23980
1671.98233,0.23028
1673.91080,0.22414
1675.83926,0.22028
1677.76773,0.21506
1679.69620,0.21708
1681.62467,0.23393
1683.55314,0.25386
1685.48161,0.23621
1687.41008,0.21594
1689.33855,0.21304
1691.26701,0.21377
1693.19548,0.21964
1695.12395,0.23535
1697.05242,0.24828
1698.98089,0.25010
1700.90936,0.24184
1702.83783,0.23250
1704.76629,0.22965
1706.69476,0.22058
1708.62323,0.20616
1710.55170,0.19986
1712.48017,0.20499
1714.40864,0.22188
1716.33711,0.24050
1718.26558,0.22810
1720.19404,0.20085
1722.12251,0.18827
1724.05098,0.18694
1725.97945,0.19043
1727.90792,0.19764
1729.83639,0.20705
1731.76486,0.21567
1733.69332,0.21938
1735.62179,0.21091
1737.55026,0.20513
1739.47873,0.20938
1741.40720,0.21518
1743.33567,0.21527
1745.26414,0.21470
1747.19261,0.22091
1749.12107,0.22924
1751.04954,0.22170
1752.97801,0.20502
1754.90648,0.19904
1756.83495,0.20208
1758.76342,0.20385
1760.69189,0.20510
1762.62035,0.20555
1764.54882,0.20456
1766.47729,0.20838
1768.40576,0.21512
1770.33423,0.22164
1772.26270,0.22354
1774.19117,0.21313
1776.11964,0.20315
1778.04810,0.20306
1779.97657,0.20710
1781.90504,0.20532
1783.83351,0.20045
1785.76198,0.19693
1787.69045,0.19639
1789.61892,0.20489
1791.54738,0.21793
1793.47585,0.21606
1795.40432,0.20524
1797.33279,0.20098
1799.26126,0.20288
1801.18973,0.20470
1803.11820,0.20190
1805.04666,0.19775
1806.97513,0.19616
1808.90360,0.19736
1810.83207,0.19884
1812.76054,0.19721
1814.68901,0.19494
1816.61748,0.19480
1818.54595,0.19268
1820.47441,0.18887
1822.40288,0.19274
1824.33135,0.20222
1826.25982,0.20666
1828.18829,0.21042
1830.11676,0.21210
1832.04523,0.20427
1833.97369,0.19759
1835.90216,0.19723
1837.83063,0.19840
1839.75910,0.19932
1841.68757,0.20547
1843.61604,0.21474
1845.54451,0.21121
1847.47298,0.19877
1849.40144,0.19086
1851.32991,0.18855
1853.25838,0.18808
1855.18685,0.18666
1857.11532,0.18587
1859.04379,0.18705
1860.97226,0.18767
1862.90072,0.18737
1864.82919,0.19121
1866.75766,0.20046
1868.68613,0.20466
1870.61460,0.19691
1872.54307,0.18875
1874.47154,0.18720
1876.40001,0.19041
1878.32847,0.19389
1880.25694,0.19533
1882.18541,0.19561
1884.11388,0.19422
1886.04235,0.19132
1887.97082,0.19203
1889.89929,0.19584
1891.82775,0.19588
1893.75622,0.19358
1895.68469,0.19144
1897.61316,0.18970
1899.54163,0.19072
1901.47010,0.19265
1903.39857,0.19189
1905.32704,0.19180
1907.25550,0.19442
1909.18397,0.19440
1911.11244,0.19105
1913.04091,0.19119
1914.96938,0.19642
1916.89785,0.20072
1918.82632,0.19999
1920.75478,0.19878
1922.68325,0.19940
1924.61172,0.19860
1926.54019,0.19618
1928.46866,0.19348
1930.39713,0.19084
1932.32560,0.18899
1934.25407,0.18825
1936.18253,0.18914
1938.11100,0.19201
1940.03947,0.19649
1941.96794,0.20075
1943.89641,0.20065
1945.82488,0.19592
1947.75335,0.19035
1949.68181,0.18888
1951.61028,0.19270
1953.53875,0.19634
1955.46722,0.19606
1957.39569,0.19282
1959.32416,0.19035
1961.25263,0.19052
1963.18110,0.19179
1965.10956,0.19466
1967.03803,0.19708
1968.96650,0.19420
1970.89497,0.18849
1972.82344,0.18575
1974.75191,0.18529
1976.68038,0.18351
1978.60884,0.18069
1980.53731,0.17898
1982.46578,0.18079
1984.39425,0.18477
1986.32272,0.18829
1988.25119,0.19283
1990.17966,0.19737
1992.10812,0.19768
1994.03659,0.19481
1995.96506,0.19406
1997.89353,0.19554
1999.82200,0.19587
2001.75047,0.19579
2003.67894,0.19680
2005.60741,0.19626
2007.53587,0.19339
2009.46434,0.19063
2011.39281,0.18987
2013.32128,0.19293
2015.24975,0.19639
2017.17822,0.19434
2019.10669,0.18849
2021.03515,0.18421
2022.96362,0.18461
2024.89209,0.18819
2026.82056,0.19088
2028.74903,0.19235
2030.67750,0.19313
2032.60597,0.19359
2034.53444,0.19527
2036.46290,0.19735
2038.39137,0.19840
2040.31984,0.19798
2042.24831,0.19566
2044.17678,0.19234
2046.10525,0.18933
2048.03372,0.18885
2049.96218,0.19132
2051.89065,0.19342
2053.81912,0.19344
2055.74759,0.19130
2057.67606,0.18887
2059.60453,0.18904
2061.53300,0.19014
2063.46147,0.19047
2065.38993,0.19122
2067.31840,0.19262
2069.24687,0.19277
2071.17534,0.19164
2073.10381,0.19310
2075.03228,0.19675
2076.96075,0.19769
2078.88921,0.19590
2080.81768,0.19617
2082.74615,0.19851
2084.67462,0.19829
2086.60309,0.19688
2088.53156,0.19703
2090.46003,0.19551
2092.38850,0.19178
2094.31696,0.19058
2096.24543,0.19279
2098.17390,0.19402
2100.10237,0.19359
2102.03084,0.19482
2103.95931,0.19688
2105.88778,0.19523
2107.81624,0.19067
2109.74471,0.18847
2111.67318,0.18899
2113.60165,0.18950
2115.53012,0.19054
2117.45859,0.19338
2119.38706,0.19581
2121.31553,0.19587
2123.24399,0.19537
2125.17246,0.19539
2127.10093,0.19466
2129.02940,0.19323
2130.95787,0.19106
2132.88634,0.18863
2134.81481,0.19014
2136.74327,0.19529
2138.67174,0.19699
2140.60021,0.19464
2142.52868,0.19340
2144.45715,0.19316
2146.38562,0.19305
2148.31409,0.19471
2150.24255,0.19668
2152.17102,0.19720
2154.09949,0.19659
2156.02796,0.19517
2157.95643,0.19348
2159.88490,0.19433
2161.81337,0.19781
2163.74184,0.19933
2165.67030,0.19941
2167.59877,0.19969
2169.52724,0.19901
2171.45571,0.19930
2173.38418,0.20029
2175.31265,0.19886
2177.24112,0.19530
2179.16958,0.19178
2181.09805,0.18930
2183.02652,0.18904
2184.95499,0.19087
2186.88346,0.19221
2188.81193,0.19229
2190.74040,0.19172
2192.66887,0.19149
2194.59733,0.19269
2196.52580,0.19483
2198.45427,0.19662
2200.38274,0.19587
2202.31121,0.19282
2204.23968,0.19228
2206.16815,0.19489
2208.09661,0.19606
2210.02508,0.19521
2211.95355,0.19486
2213.88202,0.19478
2215.81049,0.19361
2217.73896,0.19275
2219.66743,0.19318
2221.59590,0.19327
2223.52436,0.19253
2225.45283,0.19231
2227.38130,0.19332
2229.30977,0.19381
2231.23824,0.19288
2233.16671,0.19331
2235.09518,0.19652
2237.02364,0.19957
2238.95211,0.19977
2240.88058,0.19899
2242.80905,0.19918
2244.73752,0.19955
2246.66599,0.19987
2248.59446,0.19937
2250.52293,0.19777
2252.45139,0.19649
2254.37986,0.19495
2256.30833,0.19331
2258.23680,0.19360
2260.16527,0.19487
2262.09374,0.19417
2264.02221,0.19210
2265.95067,0.19127
2267.87914,0.19093
2269.80761,0.19151
2271.73608,0.19465
2273.66455,0.19751
2275.59302,0.19808
2277.52149,0.19795
2279.44996,0.19719
2281.37842,0.19502
2283.30689,0.19358
2285.23536,0.19495
2287.16383,0.19793
2289.09230,0.19951
2291.02077,0.19743
2292.94924,0.19308
2294.87770,0.18994
2296.80617,0.19006
2298.73464,0.19286
2300.66311,0.19485
2302.59158,0.19448
2304.52005,0.19458
2306.44852,0.19709
2308.37699,0.20145
2310.30545,0.20511
2312.23392,0.20502
2314.16239,0.20254
2316.09086,0.20269
2318.01933,0.20675
2319.94780,0.20943
2321.87627,0.20882
2323.80473,0.20846
2325.73320,0.20753
2327.66167,0.20473
2329.59014,0.20064
2331.51861,0.20079
2333.44708,0.21177
2335.37555,0.22683
2337.30401,0.23271
2339.23248,0.22778
2341.16095,0.22123
2343.08942,0.21607
2345.01789,0.21024
2346.94636,0.20615
2348.87483,0.20523
2350.80330,0.20290
2352.73176,0.19700
2354.66023,0.19401
2356.58870,0.20133
2358.51717,0.22205
2360.44564,0.23706
2362.37411,0.23173
2364.30258,0.21859
2366.23104,0.20145
2368.15951,0.19033
2370.08798,0.19551
2372.01645,0.20745
2373.94492,0.21420
2375.87339,0.21325
2377.80186,0.20716
2379.73033,0.20007
2381.65879,0.19657
2383.58726,0.19705
2385.51573,0.19873
2387.44420,0.20004
2389.37267,0.19856
2391.30114,0.19372
2393.22961,0.19044
2395.15807,0.19132
2397.08654,0.19335
2399.01501,0.19292
2400.94348,0.18919
2402.87195,0.18562
2404.80042,0.18732
2406.72889,0.19307
2408.65736,0.19737
2410.58582,0.20008
2412.51429,0.20258
2414.44276,0.20341
2416.37123,0.20181
2418.29970,0.19987
2420.22817,0.19938
2422.15664,0.19955
2424.08510,0.20030
2426.01357,0.19987
2427.94204,0.19683
2429.87051,0.19436
2431.79898,0.19406
2433.72745,0.19547
2435.65592,0.19841
2437.58439,0.19884
2439.51285,0.19382
2441.44132,0.18802
2443.36979,0.18631
2445.29826,0.18959
2447.22673,0.19536
2449.15520,0.19842
2451.08367,0.19810
2453.01213,0.19706
2454.94060,0.19573
2456.86907,0.19731
2458.79754,0.20314
2460.72601,0.20623
2462.65448,0.20399
2464.58295,0.20059
2466.51142,0.19822
2468.43988,0.19803
2470.36835,0.19990
2472.29682,0.20070
2474.22529,0.19716
2476.15376,0.19204
2478.08223,0.19067
2480.01070,0.19240
2481.93916,0.19366
2483.86763,0.19369
2485.79610,0.19384
2487.72457,0.19349
2489.65304,0.19257
2491.58151,0.19387
2493.50998,0.19709
2495.43844,0.20003
2497.36691,0.20269
2499.29538,0.20422
2501.22385,0.20280
2503.15232,0.19938
2505.08079,0.19665
2507.00926,0.19586
2508.93773,0.19743
2510.86619,0.19970
2512.79466,0.19951
2514.72313,0.19695
2516.65160,0.19430
2518.58007,0.19347
2520.50854,0.19432
2522.43701,0.19395
2524.36547,0.19155
2526.29394,0.19001
2528.22241,0.19192
2530.15088,0.19583
2532.07935,0.19902
2534.00782,0.20193
2535.93629,0.20422
2537.86476,0.20347
2539.79322,0.20099
2541.72169,0.20041
2543.65016,0.20092
2545.57863,0.19920
2547.50710,0.19582
2549.43557,0.19390
2551.36404,0.19277
2553.29250,0.19119
2555.22097,0.19093
2557.14944,0.19105
2559.07791,0.19045
2561.00638,0.19074
2562.93485,0.19161
2564.86332,0.19153
2566.79179,0.19095
2568.72025,0.19200
2570.64872,0.19573
2572.57719,0.20118
2574.50566,0.20574
2576.43413,0.20611
2578.36260,0.20288
2580.29107,0.20050
2582.21953,0.20149
2584.14800,0.20467
2586.07647,0.20548
2588.00494,0.20112
2589.93341,0.19630
2591.86188,0.19594
2593.79035,0.19872
2595.71882,0.20172
2597.64728,0.20430
2599.57575,0.20586
2601.50422,0.20451
2603.43269,0.20153
2605.36116,0.19932
2607.28963,0.19850
2609.21810,0.20122
2611.14656,0.20651
2613.07503,0.20910
2615.00350,0.20756
2616.93197,0.20469
2618.86044,0.20327
2620.78891,0.20350
2622.71738,0.20377
2624.64585,0.20343
2626.57431,0.20353
2628.50278,0.20491
2630.43125,0.20537
2632.35972,0.20371
2634.28819,0.20199
2636.21666,0.20042
2638.14513,0.19862
2640.07359,0.19775
2642.00206,0.19848
2643.93053,0.19960
2645.85900,0.19994
2647.78747,0.20083
2649.71594,0.20129
2651.64441,0.19898
2653.57288,0.19679
2655.50134,0.19782
2657.42981,0.20111
2659.35828,0.20569
2661.28675,0.21031
2663.21522,0.21056
2665.14369,0.20574
2667.07216,0.20303
2669.00062,0.20533
2670.92909,0.20667
2672.85756,0.20517
2674.78603,0.20374
2676.71450,0.20152
2678.64297,0.19889
2680.57144,0.19939
2682.49990,0.20067
2684.42837,0.19880
2686.35684,0.19643
2688.28531,0.19490
2690.21378,0.19344
2692.14225,0.19536
2694.07072,0.20202
2695.99919,0.20792
2697.92765,0.20765
2699.85612,0.20488
2701.78459,0.20608
2703.71306,0.20914
2705.64153,0.20938
2707.57000,0.20874
2709.49847,0.20965
2711.42693,0.20932
2713.35540,0.20652
2715.28387,0.20451
2717.21234,0.20616
2719.14081,0.20905
2721.06928,0.20917
2722.99775,0.20785
2724.92622,0.20658
2726.85468,0.20460
2728.78315,0.20299
2730.71162,0.20329
2732.64009,0.20580
2734.56856,0.20800
2736.49703,0.20739
2738.42550,0.20539
2740.35396,0.20430
2742.28243,0.20521
2744.21090,0.20748
2746.13937,0.20909
2748.06784,0.20958
2749.99631,0.20903
2751.92478,0.20803
2753.85325,0.20889
2755.78171,0.21191
2757.71018,0.21495
2759.63865,0.21579
2761.56712,0.21446
2763.49559,0.21243
2765.42406,0.20992
2767.35253,0.20909
2769.28099,0.21101
2771.20946,0.21180
2773.13793,0.21084
2775.06640,0.21068
2776.99487,0.21063
2778.92334,0.21068
2780.85181,0.21078
2782.78028,0.21015
2784.70874,0.21058
2786.63721,0.21125
2788.56568,0.21156
2790.49415,0.21455
2792.42262,0.21801
2794.35109,0.21778
2796.27956,0.21567
2798.20802,0.21447
2800.13649,0.21328
2802.06496,0.21104
2803.99343,0.21028
2805.92190,0.21247
2807.85037,0.21477
2809.77884,0.21404
2811.70731,0.21132
2813.63577,0.21086
2815.56424,0.21341
2817.49271,0.21506
2819.42118,0.21365
2821.34965,0.21155
2823.27812,0.21090
2825.20659,0.21126
2827.13505,0.21264
2829.06352,0.21513
2830.99199,0.21727
2832.92046,0.21830
2834.84893,0.21854
2836.77740,0.21702
2838.70587,0.21352
2840.63433,0.21173
2842.56280,0.21511
2844.49127,0.21896
2846.41974,0.21680
2848.34821,0.21313
2850.27668,0.21448
2852.20515,0.21764
2854.13362,0.21750
2856.06208,0.21583
2857.99055,0.21569
2859.91902,0.21460
2861.84749,0.21102
2863.77596,0.20826
2865.70443,0.20866
2867.63290,0.21162
2869.56136,0.21565
2871.48983,0.21755
2873.41830,0.21525
2875.34677,0.21218
2877.27524,0.21197
2879.20371,0.21192
2881.13218,0.21023
2883.06065,0.21064
2884.98911,0.21170
2886.91758,0.21038
2888.84605,0.20990
2890.77452,0.21138
2892.70299,0.21045
2894.63146,0.20579
2896.55993,0.20189
2898.48839,0.20103
2900.41686,0.20269
2902.34533,0.20408
2904.27380,0.20245
2906.20227,0.20292
2908.13074,0.20962
2910.05921,0.21665
2911.98768,0.21819
2913.91614,0.21511
2915.84461,0.21050
2917.77308,0.20872
2919.70155,0.21229
2921.63002,0.21779
2923.55849,0.21768
2925.48696,0.21118
2927.41542,0.21056
2929.34389,0.21627
2931.27236,0.21474
2933.20083,0.20834
2935.12930,0.20423
2937.05777,0.19920
2938.98624,0.19738
2940.91471,0.20342
2942.84317,0.20903
2944.77164,0.20598
2946.70011,0.19780
2948.62858,0.19599
2950.55705,0.20296
2952.48552,0.21020
2954.41399,0.21181
2956.34245,0.20564
2958.27092,0.19842
2960.19939,0.20104
2962.12786,0.20813
2964.05633,0.20988
2965.98480,0.20871
2967.91327,0.20714
2969.84174,0.20692
2971.77020,0.20978
2973.69867,0.21365
2975.62714,0.21360
2977.55561,0.20663
2979.48408,0.20252
2981.41255,0.20724
2983.34102,0.21348
2985.26948,0.21680
2987.19795,0.21602
2989.12642,0.21335
2991.05489,0.21542
2992.98336,0.22167
2994.91183,0.22463
2996.84030,0.22349
2998.76877,0.22217
3000.69723,0.22138
3002.62570,0.22284
3004.55417,0.22617
3006.48264,0.22449
3008.41111,0.21616
3010.33958,0.20455
3012.26805,0.18410
3014.19651,0.15074
3016.12498,0.12367
3018.05345,0.13419
3019.98192,0.17625
3021.91039,0.20638
3023.83886,0.21040
3025.76733,0.20659
3027.69579,0.20644
3029.62426,0.21174
3031.55273,0.21795
3033.48120,0.21969
3035.40967,0.21793
3037.33814,0.21692
3039.26661,0.22138
3041.19508,0.22879
3043.12354,0.23241
3045.05201,0.23194
3046.98048,0.22883
3048.90895,0.22474
3050.83742,0.22245
3052.76589,0.22066
3054.69436,0.21566
3056.62282,0.20799
3058.55129,0.20622
3060.47976,0.21369
3062.40823,0.21901
3064.33670,0.21127
3066.26517,0.19814
3068.19364,0.19862
3070.12211,0.21175
3072.05057,0.22034
3073.97904,0.21601
3075.90751,0.20534
3077.83598,0.20318
3079.76445,0.21033
3081.69292,0.21466
3083.62139,0.20931
3085.54985,0.20176
3087.47832,0.20498
3089.40679,0.21658
3091.33526,0.22470
3093.26373,0.21896
3095.19220,0.20660
3097.12067,0.20516
3099.04914,0.20875
3100.97760,0.20485
3102.90607,0.19584
3104.83454,0.19407
3106.76301,0.20459
3108.69148,0.21418
3110.61995,0.21156
3112.54842,0.20484
3114.47688,0.20718
3116.40535,0.21494
3118.33382,0.21983
3120.26229,0.22075
3122.19076,0.22057
3124.11923,0.22542
3126.04770,0.23164
3127.97617,0.23021
3129.90463,0.22232
3131.83310,0.21841
3133.76157,0.22260
3135.69004,0.22473
3137.61851,0.21918
3139.54698,0.21346
3141.47545,0.21443
3143.40391,0.21804
3145.33238,0.21730
3147.26085,0.21358
3149.18932,0.21157
3151.11779,0.21284
3153.04626,0.21630
3154.97473,0.21848
3156.90320,0.21841
3158.83166,0.21984
3160.76013,0.22197
3162.68860,0.22132
3164.61707,0.22374
3166.54554,0.23172
3168.47401,0.23380
3170.40248,0.22775
3172.33094,0.22358
3174.25941,0.22201
3176.18788,0.21947
3178.11635,0.21921
3180.04482,0.22376
3181.97329,0.22792
3183.90176,0.22611
3185.83022,0.22103
3187.75869,0.21837
3189.68716,0.21867
3191.61563,0.22043
3193.54410,0.22410
3195.47257,0.22806
3197.40104,0.22868
3199.32951,0.22818
3201.25797,0.22992
3203.18644,0.23029
3205.11491,0.22869
3207.04338,0.22991
3208.97185,0.23139
3210.90032,0.22825
3212.82879,0.22437
3214.75725,0.22229
3216.68572,0.21960
3218.61419,0.21809
3220.54266,0.21780
3222.47113,0.21495
3224.39960,0.21092
3226.32807,0.20987
3228.25654,0.21328
3230.18500,0.21884
3232.11347,0.22318
3234.04194,0.22377
3235.97041,0.22060
3237.89888,0.22070
3239.82735,0.22793
3241.75582,0.23287
3243.68428,0.22848
3245.61275,0.22157
3247.54122,0.21981
3249.46969,0.22259
3251.39816,0.22585
3253.32663,0.22635
3255.25510,0.22330
3257.18357,0.21878
3259.11203,0.21796
3261.04050,0.22222
3262.96897,0.22546
3264.89744,0.22321
3266.82591,0.21672
3268.75438,0.21157
3270.68285,0.21256
3272.61131,0.21764
3274.53978,0.22276
3276.46825,0.22600
3278.39672,0.22553
3280.32519,0.22251
3282.25366,0.22163
3284.18213,0.22150
3286.11060,0.21859
3288.03906,0.21799
3289.96753,0.22169
3291.89600,0.22347
3293.82447,0.22152
3295.75294,0.21992
3297.68141,0.22052
3299.60988,0.22136
3301.53834,0.22166
3303.46681,0.21992
3305.39528,0.21505
3307.32375,0.21096
3309.25222,0.20939
3311.18069,0.20811
3313.10916,0.20507
3315.03763,0.20133
3316.96609,0.19999
3318.89456,0.20216
3320.82303,0.20754
3322.75150,0.21451
3324.67997,0.22268
3326.60844,0.22855
3328.53691,0.22610
3330.46537,0.21996
3332.39384,0.21791
3334.32231,0.22048
3336.25078,0.22481
3338.17925,0.22695
3340.10772,0.22610
3342.03619,0.22609
3343.96466,0.22654
3345.89312,0.22144
3347.82159,0.21398
3349.75006,0.21437
3351.67853,0.22207
3353.60700,0.22851
3355.53547,0.23145
3357.46394,0.23225
3359.39240,0.22912
3361.32087,0.22100
3363.24934,0.21235
3365.17781,0.21198
3367.10628,0.22168
3369.03475,0.23186
3370.96322,0.23396
3372.89168,0.23106
3374.82015,0.23137
3376.74862,0.23341
3378.67709,0.23209
3380.60556,0.22782
3382.53403,0.22334
3384.46250,0.21929
3386.39097,0.21247
3388.31943,0.20629
3390.24790,0.20930
3392.17637,0.21814
3394.10484,0.22162
3396.03331,0.21838
3397.96178,0.21577
3399.89025,0.21736
3401.81871,0.22277
3403.74718,0.22881
3405.67565,0.22819
3407.60412,0.22235
3409.53259,0.21961
3411.46106,0.21786
3413.38953,0.21390
3415.31800,0.21170
3417.24646,0.21365
3419.17493,0.21835
3421.10340,0.21893
3423.03187,0.21348
3424.96034,0.21183
3426.88881,0.21588
3428.81728,0.21616
3430.74574,0.20986
3432.67421,0.20530
3434.60268,0.20690
3436.53115,0.20685
3438.45962,0.20014
3440.38809,0.19692
3442.31656,0.20433
3444.24503,0.21399
3446.17349,0.21599
3448.10196,0.20778
3450.03043,0.20045
3451.95890,0.20394
3453.88737,0.20974
3455.81584,0.20980
3457.74431,0.20842
3459.67277,0.20807
3461.60124,0.20659
3463.52971,0.20564
3465.45818,0.20557
3467.38665,0.20436
3469.31512,0.20502
3471.24359,0.20465
3473.17206,0.19795
3475.10052,0.19308
3477.02899,0.19526
3478.95746,0.19727
3480.88593,0.19633
3482.81440,0.19554
3484.74287,0.19550
3486.67134,0.19528
3488.59980,0.19288
3490.52827,0.18995
3492.45674,0.18959
3494.38521,0.18932
3496.31368,0.19009
3498.24215,0.19531
3500.17062,0.20189
3502.09909,0.20506
3504.02755,0.20162
3505.95602,0.19377
3507.88449,0.18847
3509.81296,0.18834
3511.74143,0.19025
3513.66990,0.19259
3515.59837,0.19439
3517.52683,0.19159
3519.45530,0.18634
3521.38377,0.18444
3523.31224,0.18396
3525.24071,0.18557
3527.16918,0.19160
3529.09765,0.19190
3531.02611,0.18354
3532.95458,0.17724
3534.88305,0.17624
3536.81152,0.17723
3538.73999,0.17815
3540.66846,0.18030
3542.59693,0.18486
3544.52540,0.18782
3546.45386,0.18589
3548.38233,0.18514
3550.31080,0.18962
3552.23927,0.19105
3554.16774,0.18290
3556.09621,0.17275
3558.02468,0.16778
3559.95314,0.16805
3561.88161,0.17381
3563.81008,0.18850
3565.73855,0.20852
3567.66702,0.21352
3569.59549,0.19656
3571.52396,0.17753
3573.45243,0.16727
3575.38089,0.16647
3577.30936,0.17002
3579.23783,0.17203
3581.16630,0.17097
3583.09477,0.17350
3585.02324,0.18365
3586.95171,0.19417
3588.88017,0.19334
3590.80864,0.18597
3592.73711,0.17933
3594.66558,0.17360
3596.59405,0.16972
3598.52252,0.16815
3600.45099,0.16674
3602.37946,0.16310
3604.30792,0.16093
3606.23639,0.16274
3608.16486,0.16412
3610.09333,0.16575
3612.02180,0.17065
3613.95027,0.17209
3615.87874,0.16978
3617.80720,0.17094
3619.73567,0.16792
3621.66414,0.15762
3623.59261,0.15382
3625.52108,0.16100
3627.44955,0.17820
3629.37802,0.18650
3631.30649,0.17363
3633.23495,0.16241
3635.16342,0.15466
3637.09189,0.15061
3639.02036,0.15160
3640.94883,0.15291
3642.87730,0.15197
3644.80577,0.15457
3646.73423,0.17097
3648.66270,0.19483
3650.59117,0.18820
3652.51964,0.16667
3654.44811,0.15746
3656.37658,0.15671
3658.30505,0.15331
3660.23352,0.14774
3662.16198,0.14389
3664.09045,0.14209
3666.01892,0.14603
3667.94739,0.15760
3669.87586,0.16590
3671.80433,0.16510
3673.73280,0.17059
3675.66126,0.17368
3677.58973,0.16276
3679.51820,0.15332
3681.44667,0.14349
3683.37514,0.13286
3685.30361,0.12925
3687.23208,0.13693
3689.16055,0.15141
3691.08901,0.15329
3693.01748,0.14450
3694.94595,0.14018
3696.87442,0.13835
3698.80289,0.13482
3700.73136,0.13496
3702.65983,0.13975
3704.58829,0.14312
3706.51676,0.14658
3708.44523,0.15478
3710.37370,0.16911
3712.30217,0.17085
3714.23064,0.15479
3716.15911,0.14399
3718.08757,0.13982
3720.01604,0.13634
3721.94451,0.13554
3723.87298,0.13902
3725.80145,0.14213
3727.72992,0.14117
3729.65839,0.14259
3731.58686,0.15349
3733.51532,0.17056
3735.44379,0.17652
3737.37226,0.16491
3739.30073,0.15696
3741.22920,0.15950
3743.15767,0.16751
3745.08614,0.17444
3747.01460,0.17641
3748.94307,0.18157
3750.87154,0.18511
3752.80001,0.17039
3754.72848,0.15435
3756.65695,0.14807
3758.58542,0.14452
3760.51389,0.13584
3762.44235,0.13049
3764.37082,0.13279
3766.29929,0.13461
3768.22776,0.13466
3770.15623,0.13454
3772.08470,0.12803
3774.01317,0.12090
3775.94163,0.12246
3777.87010,0.13350
3779.79857,0.14190
3781.72704,0.13707
3783.65551,0.13171
3785.58398,0.13319
3787.51245,0.13448
3789.44092,0.13333
3791.36938,0.13146
3793.29785,0.13085
3795.22632,0.13479
3797.15479,0.13973
3799.08326,0.14582
3801.01173,0.15619
3802.94020,0.15336
3804.86866,0.14263
3806.79713,0.13562
3808.72560,0.12719
3810.65407,0.12441
3812.58254,0.13107
3814.51101,0.14119
3816.43948,0.14790
3818.36795,0.15321
3820.29641,0.16041
3822.22488,0.15159
3824.15335,0.13599
3826.08182,0.13374
3828.01029,0.13751
3829.93876,0.13807
3831.86723,0.13784
3833.79569,0.13915
3835.72416,0.14200
3837.65263,0.14653
3839.58110,0.14670
3841.50957,0.14068
3843.43804,0.13395
3845.36651,0.12905
3847.29498,0.13068
3849.22344,0.14255
3851.15191,0.16326
3853.08038,0.17847
3855.00885,0.16044
3856.93732,0.13942
3858.86579,0.12963
3860.79426,0.12873
3862.72272,0.13796
3864.65119,0.14742
3866.57966,0.14500
3868.50813,0.14004
3870.43660,0.13964
3872.36507,0.14022
3874.29354,0.13987
3876.22200,0.13866
3878.15047,0.13607
3880.07894,0.13272
3882.00741,0.13081
3883.93588,0.13078
3885.86435,0.12937
3887.79282,0.12671
3889.72129,0.12663
3891.64975,0.12610
3893.57822,0.12073
3895.50669,0.11799
3897.43516,0.12378
3899.36363,0.13770
3901.29210,0.15135
3903.22057,0.15312
3905.14903,0.14485
3907.07750,0.13574
3909.00597,0.12886
3910.93444,0.12482
3912.86291,0.12216
3914.79138,0.12043
3916.71985,0.12091
3918.64832,0.12263
3920.57678,0.12175
3922.50525,0.11683
3924.43372,0.11029
3926.36219,0.10572
3928.29066,0.10851
3930.21913,0.11321
3932.14760,0.11162
3934.07606,0.11212
3936.00453,0.11453
3937.93300,0.11187
3939.86147,0.10941
3941.78994,0.11203
3943.71841,0.11587
3945.64688,0.11753
3947.57535,0.11893
3949.50381,0.12085
3951.43228,0.12170
3953.36075,0.11977
3955.28922,0.11532
3957.21769,0.11167
3959.14616,0.11005
3961.07463,0.10817
3963.00309,0.10777
3964.93156,0.10794
3966.86003,0.10210
3968.78850,0.09477
3970.71697,0.09460
3972.64544,0.09976
3974.57391,0.10648
3976.50238,0.11098
3978.43084,0.10843
3980.35931,0.10135
3982.28778,0.09680
3984.21625,0.09872
3986.14472,0.10427
3988.07319,0.10770
3990.00166,0.10819
3991.93012,0.10610
3993.85859,0.10264
3995.78706,0.10053
3997.71553,0.10025
3999.64400,0.10467
4001.57247,0.11205
4003.50094,0.11183
4005.42941,0.10392
4007.35787,0.09953
4009.28634,0.10216
4011.21481,0.10571
4013.14328,0.10433
4015.07175,0.10038
4017.00022,0.10067
4018.92869,0.10345
4020.85715,0.10136
4022.78562,0.09558
4024.71409,0.09516
4026.64256,0.10162
4028.57103,0.10499
4030.49950,0.10080
4032.42797,0.09647
4034.35644,0.09689
4036.28490,0.09957
4038.21337,0.10198
4040.14184,0.10234
4042.07031,0.10002
4043.99878,0.09618
4045.92725,0.09609
4047.85572,0.10109
4049.78418,0.10259
4051.71265,0.09905
4053.64112,0.09480
4055.56959,0.09061
4057.49806,0.08922
4059.42653,0.09151
4061.35500,0.09286
4063.28346,0.09101
4065.21193,0.08947
4067.14040,0.09075
4069.06887,0.09263
4070.99734,0.09580
4072.92581,0.10267
4074.85428,0.10641
4076.78275,0.10311
4078.71121,0.10148
4080.63968,0.10359
4082.56815,0.10222
4084.49662,0.09773
4086.42509,0.09636
4088.35356,0.09472
4090.28203,0.08784
4092.21049,0.08404
4094.13896,0.08747
4096.06743,0.09147
4097.99590,0.09425
4099.92437,0.09554
4101.85284,0.09160
4103.78131,0.08461
4105.70978,0.08152
4107.63824,0.08500
4109.56671,0.09128
4111.49518,0.09477
4113.42365,0.09616
4115.35212,0.09757
4117.28059,0.09511
4119.20906,0.09054
4121.13752,0.09275
4123.06599,0.09983
4124.99446,0.10136
4126.92293,0.09450
4128.85140,0.08317
4130.77987,0.07537
4132.70834,0.07652
4134.63681,0.08080
4136.56527,0.08230
4138.49374,0.08178
4140.42221,0.07967
4142.35068,0.07676
4144.27915,0.07780
4146.20762,0.08285
4148.13609,0.08591
4150.06455,0.08713
4151.99302,0.08727
4153.92149,0.08375
4155.84996,0.07717
4157.77843,0.07330
4159.70690,0.07626
4161.63537,0.08081
4163.56384,0.08354
4165.49230,0.08297
4167.42077,0.07891
4169.34924,0.07851
4171.27771,0.08084
4173.20618,0.07847
4175.13465,0.07282
4177.06312,0.06986
4178.99158,0.06962
4180.92005,0.06886
4182.84852,0.07053
4184.77699,0.07398
4186.70546,0.07227
4188.63393,0.06757
4190.56240,0.06465
4192.49087,0.06308
4194.41933,0.06501
4196.34780,0.07181
4198.27627,0.07941
4200.20474,0.08360
4202.13321,0.08373
4204.06168,0.07894
4205.99015,0.07138
4207.91861,0.06743
4209.84708,0.06794
4211.77555,0.06951
4213.70402,0.06994
4215.63249,0.06892
4217.56096,0.06798
4219.48943,0.06881
4221.41789,0.06904
4223.34636,0.06560
4225.27483,0.06308
4227.20330,0.06390
4229.13177,0.06370
4231.06024,0.06228
4232.98871,0.06111
4234.91718,0.06027
4236.84564,0.06332
4238.77411,0.07057
4240.70258,0.07451
4242.63105,0.07262
4244.55952,0.07116
4246.48799,0.07119
4248.41646,0.06549
4250.34492,0.05457
4252.27339,0.04949
4254.20186,0.05452
4256.13033,0.06453
4258.05880,0.07341
4259.98727,0.07497
4261.91574,0.06852
4263.84421,0.05852
4265.77267,0.04755
4267.70114,0.04226
4269.62961,0.04790
4271.55808,0.05817
4273.48655,0.06256
4275.41502,0.05774
4277.34349,0.05127
4279.27195,0.05001
4281.20042,0.05224
4283.12889,0.05475
4285.05736,0.05820
4286.98583,0.06174
4288.91430,0.06199
4290.84277,0.06023
4292.77124,0.06049
4294.69970,0.06344
4296.62817,0.06204
4298.55664,0.05246
4300.48511,0.04323
4302.41358,0.04077
4304.34205,0.04393
4306.27052,0.04802
4308.19898,0.04860
4310.12745,0.04660
4312.05592,0.04822
4313.98439,0.05521
4315.91286,0.05788
4317.84133,0.05060
4319.76980,0.04337
4321.69827,0.04799
4323.62673,0.05675
4325.55520,0.05352
4327.48367,0.04283
4329.41214,0.03824
4331.34061,0.04114
4333.26908,0.04463
4335.19755,0.04398
4337.12601,0.04292
4339.05448,0.04556
4340.98295,0.04582
4342.91142,0.03713
4344.83989,0.02847
4346.76836,0.03017
4348.69683,0.03759
4350.62530,0.04245
4352.55376,0.04026
4354.48223,0.03617
4356.41070,0.03991
4358.33917,0.04656
4360.26764,0.04901
4362.19611,0.05054
4364.12458,0.04727
4366.05304,0.03436
4367.98151,0.02189
4369.90998,0.02082
4371.83845,0.02928
4373.76692,0.03854
4375.69539,0.04276
4377.62386,0.04171
4379.55232,0.03815
4381.48079,0.03162
4383.40926,0.02175
4385.33773,0.01603
4387.26620,0.01907
4389.19467,0.02261
4391.12314,0.02100
4393.05161,0.01779
4394.98007,0.01459
4396.90854,0.01631
4398.83701,0.02666
4400.76548,0.03610
4402.69395,0.03500
4404.62242,0.02810
4406.55089,0.02655
4408.47935,0.03149
4410.40782,0.03445
4412.33629,0.03117
4414.26476,0.02918
4416.19323,0.03391
4418.12170,0.03700
4420.05017,0.03082
4421.97864,0.01968
4423.90710,0.01064
4425.83557,0.00483
4427.76404,0.00253
4429.69251,0.00508
4431.62098,0.01482
4433.54945,0.02640
4435.47792,0.02709
4437.40638,0.02150
4439.33485,0.02123
4441.26332,0.02153
4443.19179,0.01466
4445.12026,0.00850
4447.04873,0.01166
4448.97720,0.01617
4450.90567,0.01458
4452.83413,0.01098
4454.76260,0.01207
4456.69107,0.01796
4458.61954,0.02292
4460.54801,0.02239
4462.47648,0.01787
4464.40495,0.01084
4466.33341,0.00226
4468.26188,0.00109
4470.19035,0.00719
4472.11882,0.00982
4474.04729,0.01195
4475.97576,0.01712
4477.90423,0.01932
4479.83270,0.02057
4481.76116,0.02523
4483.68963,0.02777
4485.61810,0.02166
4487.54657,0.00868
4489.47504,-0.00318
4491.40351,-0.00435
4493.33198,0.00873
4495.26044,0.02429
4497.18891,0.02751
4499.11738,0.01888
4501.04585,0.00951
4502.97432,0.00583
4504.90279,0.00372
4506.83126,-0.00269
4508.75973,-0.00872
4510.68819,-0.01005
4512.61666,-0.01139
4514.54513,-0.00795
4516.47360,0.00707
4518.40207,0.01824
4520.33054,0.01162
4522.25901,-0.00027
4524.18747,-0.00331
4526.11594,-0.00216
4528.04441,-0.00145
4529.97288,0.00273
4531.90135,0.00923
4533.82982,0.01246
4535.75829,0.01226
4537.68676,0.01348
4539.61522,0.01762
4541.54369,0.02031
4543.47216,0.01918
4545.40063,0.01517
4547.32910,0.00868
4549.25757,0.00116
4551.18604,-0.00535
4553.11450,-0.00539
4555.04297,-0.00015
4556.97144,0.00085
4558.89991,-0.00030
4560.82838,-0.00127
4562.75685,-0.00575
4564.68532,-0.00807
4566.61378,-0.00172
4568.54225,0.00875
4570.47072,0.01520
4572.39919,0.01905
4574.32766,0.02151
4576.25613,0.01708
4578.18460,0.00758
4580.11307,0.00225
4582.04153,0.00325
4583.97000,-0.00011
4585.89847,-0.00868
4587.82694,-0.00854
4589.75541,-0.00100
4591.68388,0.00470
4593.61235,0.01008
4595.54081,0.01874
4597.46928,0.02579
4599.39775,0.02246
4601.32622,0.01766
4603.25469,0.01491
4605.18316,0.00521
4607.11163,-0.00156
4609.04010,0.00228
4610.96856,0.00677
4612.89703,0.00909
4614.82550,0.01221
4616.75397,0.01460
4618.68244,0.01551
4620.61091,0.01296
4622.53938,0.00098
4624.46784,-0.01706
4626.39631,-0.02428
4628.32478,-0.01303
4630.25325,0.00398
4632.18172,0.01285
4634.11019,0.01468
4636.03866,0.01582
4637.96713,0.01364
4639.89559,0.01256
4641.82406,0.01847
4643.75253,0.02259
4645.68100,0.02186
4647.60947,0.02272
4649.53794,0.02362
4651.46641,0.01990
4653.39487,0.01376
4655.32334,0.00625
4657.25181,-0.00022
4659.18028,0.00021
4661.10875,0.00147
4663.03722,-0.00258
4664.96569,-0.00076
4666.89416,0.01313
4668.82262,0.02237
4670.75109,0.01378
4672.67956,0.00213
4674.60803,0.00382
4676.53650,0.00944
4678.46497,0.00795
4680.39344,0.00358
4682.32190,-0.00218
4684.25037,-0.00875
4686.17884,-0.01067
4688.10731,-0.00821
4690.03578,-0.00513
4691.96425,-0.00045
4693.89272,0.00538
4695.82119,0.01114
4697.74965,0.01613
4699.67812,0.01158
4701.60659,0.00099
4703.53506,0.00020
4705.46353,0.00623
4707.39200,0.00808
4709.32047,0.00703
4711.24893,0.00527
4713.17740,0.00242
4715.10587,-0.00112
4717.03434,-0.00594
4718.96281,-0.00707
4720.89128,-0.00272
4722.81975,-0.00093
4724.74821,-0.00159
4726.67668,0.00672
4728.60515,0.02319
4730.53362,0.03260
4732.46209,0.02984
4734.39056,0.02168
4736.31903,0.01447
4738.24750,0.01334
4740.17596,0.01475
4742.10443,0.01289
4744.03290,0.01168
4745.96137,0.01063
4747.88984,0.00659
4749.81831,0.00334
4751.74678,0.00237
4753.67524,-0.00193
4755.60371,-0.00953
4757.53218,-0.01326
4759.46065,-0.01340
4761.38912,-0.01603
4763.31759,-0.01490
4765.24606,-0.00232
4767.17453,0.01052
4769.10299,0.01050
4771.03146,0.00035
4772.95993,-0.01102
4774.88840,-0.01300
4776.81687,-0.00531
4778.74534,0.00540
4780.67381,0.01646
4782.60227,0.02012
4784.53074,0.01629
4786.45921,0.01529
4788.38768,0.01631
4790.31615,0.01413
4792.24462,0.01633
4794.17309,0.02192
4796.10156,0.01506
4798.03002,-0.00009
4799.95849,-0.00430
4801.88696,0.00292
4803.81543,0.01234
4805.74390,0.02205
4807.67237,0.02796
4809.60084,0.02277
4811.52930,0.01068
4813.45777,0.00145
4815.38624,-0.00204
4817.31471,0.00048
4819.24318,0.00301
4821.17165,0.00220
4823.10012,0.00385
4825.02859,0.00619
4826.95705,0.00537
4828.88552,0.00518
4830.81399,0.01103
4832.74246,0.01709
4834.67093,0.00526
4836.59940,-0.01567
4838.52787,-0.01822
4840.45633,-0.00433
4842.38480,0.00749
4844.31327,0.00860
4846.24174,0.00341
4848.17021,0.00037
4850.09868,-0.00462
4852.02715,-0.01520
4853.95562,-0.01895
4855.88408,-0.01223
4857.81255,-0.00417
4859.74102,0.00291
4861.66949,0.00532
4863.59796,0.00045
4865.52643,-0.00143
4867.45490,0.00987
4869.38336,0.02370
4871.31183,0.02404
4873.24030,0.01639
4875.16877,0.01043
4877.09724,0.01222
4879.02571,0.02027
4880.95418,0.01977
4882.88265,0.00892
4884.81111,-0.00443
4886.73958,-0.01431
4888.66805,-0.01358
4890.59652,-0.01280
4892.52499,-0.01837
4894.45346,-0.01268
4896.38193,-0.00054
4898.31039,-0.00077
4900.23886,-0.00741
4902.16733,-0.01290
4904.09580,-0.01331
4906.02427,-0.00222
4907.95274,0.01257
4909.88121,0.02030
4911.80967,0.02082
4913.73814,0.01958
4915.66661,0.02342
4917.59508,0.02844
4919.52355,0.02421
4921.45202,0.01535
4923.38049,0.01077
4925.30896,0.01008
4927.23742,0.01165
4929.16589,0.01054
4931.09436,0.00697
4933.02283,0.00932
4934.95130,0.01092
4936.87977,0.00462
4938.80824,-0.00002
4940.73670,-0.00238
4942.66517,-0.00788
4944.59364,-0.01105
4946.52211,-0.00948
4948.45058,-0.00563
4950.37905,0.00426
4952.30752,0.01608
4954.23599,0.02590
4956.16445,0.04160
4958.09292,0.04851
4960.02139,0.03029
4961.94986,0.00693
4963.87833,-0.00412
4965.80680,-0.00201
4967.73527,0.01124
4969.66373,0.02349
4971.59220,0.02351
4973.52067,0.01061
4975.44914,-0.00122
4977.37761,-0.00304
4979.30608,-0.00200
4981.23455,0.00339
4983.16302,0.01144
4985.09148,0.01601
4987.01995,0.01735
4988.94842,0.01136
4990.87689,0.00644
4992.80536,0.01134
4994.73383,0.01742
4996.66230,0.01853
4998.59076,0.00825
5000.51923,-0.00774
5002.44770,-0.01158
5004.37617,-0.00517
5006.30464,0.00498
5008.23311,0.01835
5010.16158,0.02241
5012.09005,0.01256
5014.01851,-0.00095
5015.94698,-0.00771
5017.87545,-0.00263
5019.80392,0.00401
5021.73239,0.00212
5023.66086,0.00258
5025.58933,0.01436
5027.51779,0.02724
5029.44626,0.02919
5031.37473,0.02261
5033.30320,0.01606
5035.23167,0.01304
5037.16014,0.01406
5039.08861,0.01316
5041.01708,0.00688
5042.94554,-0.00207
5044.87401,-0.01076
5046.80248,-0.01251
5048.73095,-0.01056
5050.65942,-0.01357
5052.58789,-0.01464
5054.51636,-0.00740
5056.44482,0.00762
5058.37329,0.02847
5060.30176,0.03562
5062.23023,0.01958
5064.15870,0.00616
5066.08717,0.00925
5068.01564,0.01401
5069.94410,0.00796
5071.87257,-0.00021
5073.80104,0.00168
5075.72951,0.00874
5077.65798,0.01934
5079.58645,0.03177
5081.51492,0.03005
5083.44339,0.01713
5085.37185,0.00503
5087.30032,-0.00891
5089.22879,-0.01722
5091.15726,-0.00897
5093.08573,0.00161
5095.01420,0.00403
5096.94267,0.00984
5098.87113,0.01901
5100.79960,0.02124
5102.72807,0.01174
5104.65654,-0.00517
5106.58501,-0.01240
5108.51348,-0.00763
5110.44195,-0.00216
5112.37042,0.00814
5114.29888,0.02234
5116.22735,0.02762
5118.15582,0.03252
5120.08429,0.04470
5122.01276,0.05208
5123.94123,0.05275
5125.86970,0.04825
5127.79816,0.03693
5129.72663,0.02819
5131.65510,0.02892
5133.58357,0.02736
5135.51204,0.02082
5137.44051,0.02325
5139.36898,0.02493
5141.29745,0.02066
5143.22591,0.02457
5145.15438,0.02915
5147.08285,0.02845
5149.01132,0.02789
5150.93979,0.02693
5152.86826,0.03047
5154.79673,0.03525
5156.72519,0.03104
5158.65366,0.02712
5160.58213,0.03814
5162.51060,0.05412
5164.43907,0.04965
5166.36754,0.03334
5168.29601,0.02672
5170.22448,0.02048
5172.15294,0.01711
5174.08141,0.02950
5176.00988,0.05082
5177.93835,0.07259
5179.86682,0.08079
5181.79529,0.06553
5183.72376,0.03765
5185.65222,0.01491
5187.58069,0.01472
5189.50916,0.02944
5191.43763,0.03488
5193.36610,0.03171
5195.29457,0.02898
5197.22304,0.01630
5199.15151,-0.00401
5201.07997,-0.00497
5203.00844,0.01985
5204.93691,0.04979
5206.86538,0.05949
5208.79385,0.04265
5210.72232,0.02513
5212.65079,0.02771
5214.57925,0.04014
5216.50772,0.04040
5218.43619,0.03599
5220.36466,0.04354
5222.29313,0.04942
5224.22160,0.04277
5226.15007,0.02907
5228.07854,0.01975
5230.00700,0.02219
5231.93547,0.02595
5233.86394,0.02909
5235.79241,0.03809
5237.72088,0.04181
5239.64935,0.04254
5241.57782,0.05033
5243.50628,0.05503
5245.43475,0.05421
5247.36322,0.06090
5249.29169,0.07723
5251.22016,0.08720
5253.14863,0.08176
5255.07710,0.06624
5257.00556,0.05038
5258.93403,0.03411
5260.86250,0.01048
5262.79097,-0.00034
5264.71944,0.01986
5266.64791,0.04027
5268.57638,0.04534
5270.50485,0.04173
5272.43331,0.02311
5274.36178,0.00197
5276.29025,0.00203
5278.21872,0.01903
5280.14719,0.03533
5282.07566,0.04529
5284.00413,0.05304
5285.93259,0.06222
5287.86106,0.07434
5289.78953,0.08415
5291.71800,0.07518
5293.64647,0.05538
5295.57494,0.04528
5297.50341,0.04146
5299.43188,0.04125
5301.36034,0.04462
5303.28881,0.03858
5305.21728,0.02103
5307.14575,0.01117
5309.07422,0.01682
5311.00269,0.01789
5312.93116,0.01992
5314.85962,0.04194
5316.78809,0.05978
5318.71656,0.05607
5320.64503,0.04939
5322.57350,0.04807
5324.50197,0.06118
5326.43044,0.09481
5328.35891,0.11973
5330.28737,0.11386
5332.21584,0.08556
5334.14431,0.06066
5336.07278,0.07056
5338.00125,0.09706
5339.92972,0.08757
5341.85819,0.04776
5343.78665,0.02116
5345.71512,0.02782
5347.64359,0.04238
5349.57206,0.04345
5351.50053,0.03417
5353.42900,0.02676
5355.35747,0.02790
5357.28594,0.03257
5359.21440,0.03959
5361.14287,0.04750
5363.07134,0.05313
5364.99981,0.06338
5366.92828,0.07615
5368.85675,0.08099
5370.78522,0.08620
5372.71368,0.09522
5374.64215,0.09815
5376.57062,0.09293
5378.49909,0.07937
5380.42756,0.06319
5382.35603,0.05296
5384.28450,0.04537
5386.21297,0.03857
5388.14143,0.04447
5390.06990,0.05981
5391.99837,0.06889
5393.92684,0.06289
5395.85531,0.05192
5397.78378,0.05286
5399.71225,0.05761
5401.64071,0.05710
5403.56918,0.06604
5405.49765,0.07778
5407.42612,0.06913
5409.35459,0.06875
5411.28306,0.10163
5413.21153,0.11235
5415.13999,0.06970
5417.06846,0.03539
5418.99693,0.03987
5420.92540,0.05382
5422.85387,0.05649
5424.78234,0.05654
5426.71081,0.06010
5428.63928,0.06423
5430.56774,0.05921
5432.49621,0.05256
5434.42468,0.06666
5436.35315,0.09167
5438.28162,0.09120
5440.21009,0.05899
5442.13856,0.02604
5444.06702,0.02298
5445.99549,0.04592
5447.92396,0.07090
5449.85243,0.08119
5451.78090,0.08366
5453.70937,0.09390
5455.63784,0.10413
5457.56631,0.08827
5459.49477,0.05625
5461.42324,0.03429
5463.35171,0.02120
5465.28018,0.01562
5467.20865,0.01788
5469.13712,0.01598
5471.06559,0.00826
5472.99405,0.01233
5474.92252,0.04158
5476.85099,0.07626
5478.77946,0.08241
5480.70793,0.06300
5482.63640,0.04357
5484.56487,0.04885
5486.49334,0.08058
5488.42180,0.10842
5490.35027,0.11346
5492.27874,0.10785
5494.20721,0.10087
5496.13568,0.10149
5498.06415,0.11239
5499.99262,0.11915
5501.92108,0.11422
5503.84955,0.10751
5505.77802,0.09828
5507.70649,0.07046
5509.63496,0.03163
5511.56343,0.01231
5513.49190,0.02388
5515.42037,0.05437
5517.34883,0.08720
5519.27730,0.09566
5521.20577,0.07370
5523.13424,0.06357
5525.06271,0.08190
5526.99118,0.08086
5528.91965,0.04579
5530.84811,0.02574
5532.77658,0.04924
5534.70505,0.09263
5536.63352,0.10890
5538.56199,0.09301
5540.49046,0.08255
5542.41893,0.06658
5544.34740,0.03474
5546.27586,0.02661
5548.20433,0.05150
5550.13280,0.08203
5552.06127,0.09628
5553.98974,0.08679
5555.91821,0.07015
5557.84668,0.06463
5559.77514,0.06141
5561.70361,0.05409
5563.63208,0.06200
5565.56055,0.08043
5567.48902,0.08645
5569.41749,0.09373
5571.34596,0.10675
5573.27443,0.10692
5575.20289,0.10332
5577.13136,0.10721
5579.05983,0.11168
5580.98830,0.11120
5582.91677,0.09796
5584.84524,0.07578
5586.77371,0.05896
5588.70217,0.04924
5590.63064,0.03961
5592.55911,0.02783
5594.48758,0.02280
5596.41605,0.03057
5598.34452,0.04254
5600.27299,0.05751
5602.20145,0.08194
5604.12992,0.10589
5606.05839,0.11427
5607.98686,0.11668
5609.91533,0.12816
5611.84380,0.14015
5613.77227,0.14366
5615.70074,0.12742
5617.62920,0.07983
5619.55767,0.03268
5621.48614,0.01879
5623.41461,0.03826
5625.34308,0.08777
5627.27155,0.11808
5629.20002,0.09430
5631.12848,0.07581
5633.05695,0.09030
5634.98542,0.10219
5636.91389,0.09579
5638.84236,0.08640
5640.77083,0.08381
5642.69930,0.08486
5644.62777,0.08737
5646.55623,0.09934
5648.48470,0.11201
5650.41317,0.09996
5652.34164,0.07714
5654.27011,0.07235
5656.19858,0.07555
5658.12705,0.07340
5660.05551,0.08335
5661.98398,0.10534
5663.91245,0.10275
5665.84092,0.07870
5667.76939,0.07119
5669.69786,0.07665
5671.62633,0.08205
5673.55480,0.11056
5675.48326,0.13428
5677.41173,0.10070
5679.34020,0.06471
5681.26867,0.06322
5683.19714,0.05086
5685.12561,0.03304
5687.05408,0.03618
5688.98254,0.04639
5690.91101,0.05689
5692.83948,0.06337
5694.76795,0.05484
5696.69642,0.04809
5698.62489,0.06026
5700.55336,0.08162
5702.48183,0.08781
5704.41029,0.06307
5706.33876,0.03175
5708.26723,0.02434
5710.19570,0.03834
5712.12417,0.06505
5714.05264,0.09819
5715.98111,0.12051
5717.90957,0.12054
5719.83804,0.10762
5721.76651,0.10322
5723.69498,0.11383
5725.62345,0.12420
5727.55192,0.10950
5729.48039,0.06148
5731.40886,0.02270
5733.33732,0.03485
5735.26579,0.08694
5737.19426,0.14074
5739.12273,0.15521
5741.05120,0.11141
5742.97967,0.06075
5744.90814,0.05521
5746.83660,0.08411
5748.76507,0.11790
5750.69354,0.13315
5752.62201,0.11727
5754.55048,0.08427
5756.47895,0.05775
5758.40742,0.04562
5760.33588,0.05028
5762.26435,0.06507
5764.19282,0.07325
5766.12129,0.08127
5768.04976,0.08645
5769.97823,0.07687
5771.90670,0.07070
5773.83517,0.07709
5775.76363,0.08707
5777.69210,0.09949
5779.62057,0.11326
5781.54904,0.11321
5783.47751,0.09210
5785.40598,0.07047
5787.33445,0.05966
5789.26291,0.06598
5791.19138,0.09675
5793.11985,0.13597
5795.04832,0.15231
5796.97679,0.11941
5798.90526,0.08047
5800.83373,0.08015
5802.76220,0.07069
5804.69066,0.03888
5806.61913,0.03716
5808.54760,0.03978
5810.47607,0.01132
5812.40454,-0.00284
5814.33301,0.01873
5816.26148,0.03940
5818.18994,0.03814
5820.11841,0.03552
5822.04688,0.06925
5823.97535,0.12385
5825.90382,0.14182
5827.83229,0.10869
5829.76076,0.06006
5831.68923,0.04048
5833.61769,0.05819
5835.54616,0.08346
5837.47463,0.09260
5839.40310,0.07820
5841.33157,0.06378
5843.26004,0.08257
5845.18851,0.10154
5847.11697,0.07668
5849.04544,0.03078
5850.97391,0.01556
5852.90238,0.03477
5854.83085,0.05251
5856.75932,0.05331
5858.68779,0.05801
5860.61626,0.07868
5862.54472,0.11776
5864.47319,0.15327
5866.40166,0.12821
5868.33013,0.06001
5870.25860,0.02962
5872.18707,0.06201
5874.11554,0.11773
5876.04400,0.15835
5877.97247,0.17398
5879.90094,0.14952
5881.82941,0.10210
5883.75788,0.08974
5885.68635,0.11235
5887.61482,0.12257
5889.54329,0.11071
5891.47175,0.08235
5893.40022,0.04305
5895.32869,0.02881
5897.25716,0.05496
5899.18563,0.08422
5901.11410,0.08912
5903.04257,0.08341
5904.97103,0.07941
5906.89950,0.09211
5908.82797,0.12380
5910.75644,0.13835
5912.68491,0.12461
5914.61338,0.08921
5916.54185,0.06225
5918.47032,0.07436
5920.39878,0.08666
5922.32725,0.06934
5924.25572,0.05897
5926.18419,0.07450
5928.11266,0.08613
5930.04113,0.08890
5931.96960,0.09557
5933.89806,0.10113
5935.82653,0.09941
5937.75500,0.07939
5939.68347,0.04814
5941.61194,0.03662
5943.54041,0.06128
5945.46888,0.09362
5947.39734,0.10471
5949.32581,0.11185
5951.25428,0.12174
5953.18275,0.11087
5955.11122,0.08774
5957.03969,0.07628
5958.96816,0.08064
5960.89663,0.09519
5962.82509,0.10097
5964.75356,0.08018
5966.68203,0.04961
5968.61050,0.03949
5970.53897,0.04209
5972.46744,0.03591
5974.39591,0.02959
5976.32437,0.03530
5978.25284,0.05271
5980.18131,0.07550
5982.10978,0.09202
5984.03825,0.10050
5985.96672,0.10946
5987.89519,0.13181
5989.82366,0.14663
5991.75212,0.11598
5993.68059,0.07976
5995.60906,0.10746
5997.53753,0.16781
5999.46600,0.16959
6001.39447,0.11315
6003.32294,0.07569
6005.25140,0.07733
6007.17987,0.09479
6009.10834,0.13167
6011.03681,0.15620
6012.96528,0.12081
6014.89375,0.05499
6016.82222,0.03207
6018.75069,0.04799
6020.67915,0.04971
6022.60762,0.05945
6024.53609,0.07961
6026.46456,0.07102
6028.39303,0.05431
6030.32150,0.06547
6032.24997,0.09309
6034.17843,0.11042
6036.10690,0.11250
6038.03537,0.10818
6039.96384,0.09900
6041.89231,0.08037
6043.82078,0.05334
6045.74925,0.05188
6047.67772,0.09211
6049.60618,0.12010
6051.53465,0.08531
6053.46312,0.02766
6055.39159,0.01510
6057.32006,0.04310
6059.24853,0.05360
6061.17700,0.03093
6063.10546,0.01138
6065.03393,0.02712
6066.96240,0.07790
6068.89087,0.14619
6070.81934,0.19109
6072.74781,0.17904
6074.67628,0.12465
6076.60475,0.08487
6078.53321,0.08562
6080.46168,0.10771
6082.39015,0.14635
6084.31862,0.17015
6086.24709,0.11609
6088.17556,0.03655
6090.10403,0.04197
6092.03249,0.10426
6093.96096,0.12679
6095.88943,0.10043
6097.81790,0.08342
6099.74637,0.09634
6101.67484,0.11080
6103.60331,0.09959
6105.53177,0.07493
6107.46024,0.07997
6109.38871,0.12015
6111.31718,0.13348
6113.24565,0.08525
6115.17412,0.01864
6117.10259,0.01676
6119.03106,0.11718
6120.95952,0.21086
6122.88799,0.21143
6124.81646,0.15733
6126.74493,0.08563
6128.67340,0.05024
6130.60187,0.08928
6132.53034,0.13158
6134.45880,0.12379
6136.38727,0.07247
6138.31574,0.01420
6140.24421,0.01543
6142.17268,0.06448
6144.10115,0.07028
6146.02962,0.02132
6147.95809,-0.01075
6149.88655,-0.00877
6151.81502,-0.00703
6153.74349,0.01897
6155.67196,0.06282
6157.60043,0.06733
6159.52890,0.05315
6161.45737,0.05456
6163.38583,0.06070
6165.31430,0.06063
6167.24277,0.06555
6169.17124,0.09423
6171.09971,0.13636
6173.02818,0.17336
6174.95665,0.18383
6176.88512,0.11961
6178.81358,0.02514
6180.74205,-0.00228
6182.67052,0.01034
6184.59899,0.01130
6186.52746,0.02178
6188.45593,0.05802
6190.38440,0.07290
6192.31286,0.06523
6194.24133,0.08321
6196.16980,0.10447
6198.09827,0.10831
6200.02674,0.10811
6201.95521,0.10939
6203.88368,0.11681
6205.81215,0.12450
6207.74061,0.15465
6209.66908,0.20541
6211.59755,0.20861
6213.52602,0.16432
6215.45449,0.12513
6217.38296,0.10727
6219.31143,0.09981
6221.23989,0.08356
6223.16836,0.05037
6225.09683,0.01501
6227.02530,0.01111
6228.95377,0.03143
6230.88224,0.06844
6232.81071,0.14868
6234.73918,0.19356
6236.66764,0.13994
6238.59611,0.06468
6240.52458,0.02961
6242.45305,0.02909
6244.38152,0.05178
6246.30999,0.08569
6248.23846,0.10801
6250.16692,0.10338
6252.09539,0.09727
6254.02386,0.11653
6255.95233,0.12143
6257.88080,0.10551
6259.80927,0.10845
6261.73774,0.10832
6263.66621,0.09144
6265.59467,0.08469
6267.52314,0.10041
6269.45161,0.12500
6271.38008,0.12150
6273.30855,0.07928
6275.23702,0.03055
6277.16549,-0.00865
6279.09395,-0.02463
6281.02242,-0.01548
6282.95089,-0.01846
6284.87936,-0.02357
6286.80783,-0.02598
6288.73630,-0.03850
6290.66477,0.00043
6292.59323,0.07596
6294.52170,0.06895
6296.45017,-0.00196
6298.37864,-0.01713
6300.30711,0.03203
6302.23558,0.09230
6304.16405,0.13026
6306.09252,0.12484
6308.02098,0.12971
6309.94945,0.16977
6311.87792,0.16541
6313.80639,0.11316
6315.73486,0.09145
6317.66333,0.11211
6319.59180,0.12047
6321.52026,0.08748
6323.44873,0.02856
6325.37720,-0.00367
6327.30567,0.05772
6329.23414,0.17687
6331.16261,0.22905
6333.09108,0.19644
6335.01955,0.15070
6336.94801,0.10290
6338.87648,0.03470
6340.80495,0.01219
6342.73342,0.06910
6344.66189,0.10668
6346.59036,0.07282
6348.51883,0.03653
6350.44729,0.04735
6352.37576,0.07892
6354.30423,0.09660
6356.23270,0.11117
6358.16117,0.10556
6360.08964,0.04526
6362.01811,-0.02606
6363.94658,-0.03587
6365.87504,0.03760
6367.80351,0.14120
6369.73198,0.18914
6371.66045,0.16010
6373.58892,0.07682
6375.51739,0.00286
6377.44586,-0.02160
6379.37432,-0.03022
6381.30279,-0.00985
6383.23126,0.05915
6385.15973,0.09220
6387.08820,0.07709
6389.01667,0.07604
6390.94514,0.10683
6392.87361,0.14468
6394.80207,0.13840
6396.73054,0.09082
6398.65901,0.04942
6400.58748,0.04252
6402.51595,0.05185
6404.44442,0.06824
6406.37289,0.09526
6408.30135,0.06839
6410.22982,-0.01335
6412.15829,-0.02339
6414.08676,0.07148
6416.01523,0.17653
6417.94370,0.22200
6419.87217,0.21112
6421.80064,0.17492
6423.72910,0.08999
6425.65757,-0.02852
6427.58604,-0.08957
6429.51451,-0.04828
6431.44298,0.05641
6433.37145,0.11755
6435.29992,0.10901
6437.22838,0.10867
6439.15685,0.15409
6441.08532,0.17637
6443.01379,0.10926
6444.94226,0.03092
6446.87073,0.04485
6448.79920,0.09780
6450.72766,0.11120
6452.65613,0.08837
6454.58460,0.04678
6456.51307,-0.00016
6458.44154,0.00725
6460.37001,0.07925
6462.29848,0.13500
6464.22695,0.12196
6466.15541,0.09358
6468.08388,0.10171
6470.01235,0.09230
6471.94082,0.01650
6473.86929,-0.04846
6475.79776,-0.02383
6477.72623,0.02700
6479.65469,0.03824
6481.58316,0.03718
6483.51163,0.00440
6485.44010,-0.01549
6487.36857,0.03618
6489.29704,0.09051
6491.22551,0.11817
6493.15398,0.16787
6495.08244,0.18051
6497.01091,0.09730
6498.93938,0.03067
6500.86785,0.08609
6502.79632,0.17813
6504.72479,0.21383
6506.65326,0.20760
6508.58172,0.17322
6510.51019,0.10538
6512.43866,0.00944
6514.36713,-0.06560
6516.29560,-0.08007
6518.22407,-0.04420
6520.15254,-0.00961
6522.08101,-0.00344
6524.00947,0.00380
6525.93794,0.02547
6527.86641,0.02987
6529.79488,0.03519
6531.72335,0.06726
6533.65182,0.07972
6535.58029,0.02265
6537.50875,-0.02955
6539.43722,0.03107
6541.36569,0.13252
6543.29416,0.17630
6545.22263,0.16892
6547.15110,0.12967
6549.07957,0.09266
6551.00804,0.06744
6552.93650,0.02923
6554.86497,0.02871
6556.79344,0.05956
6558.72191,0.02325
6560.65038,-0.03346
6562.57885,-0.02763
6564.50732,0.01590
6566.43578,0.09568
6568.36425,0.15629
6570.29272,0.12561
6572.22119,0.08096
6574.14966,0.07599
6576.07813,0.03846
6578.00660,-0.01975
6579.93507,-0.00552
6581.86353,0.04812
6583.79200,0.05098
6585.72047,0.03336
6587.64894,0.06146
6589.57741,0.09218
6591.50588,0.07281
6593.43435,0.04861
6595.36281,0.06090
6597.29128,0.04534
6599.21975,-0.03018
6601.14822,-0.08347
6603.07669,-0.05493
6605.00516,0.03972
6606.93363,0.14068
6608.86210,0.13055
6610.79056,0.04497
6612.71903,0.03881
6614.64750,0.10431
6616.57597,0.11583
6618.50444,0.08198
6620.43291,0.10566
6622.36138,0.17326
6624.28984,0.18041
6626.21831,0.13060
6628.14678,0.16345
6630.07525,0.26393
6632.00372,0.27109
6633.93219,0.18101
6635.86066,0.03147
6637.78912,-0.09313
6639.71759,-0.12334
6641.64606,-0.10668
6643.57453,-0.05473
6645.50300,0.00867
6647.43147,-0.02076
6649.35994,-0.09223
6651.28841,-0.05031
6653.21687,0.08515
6655.14534,0.18466
6657.07381,0.19721
6659.00228,0.19848
6660.93075,0.20053
6662.85922,0.13575
6664.78769,0.05010
6666.71615,0.01052
6668.64462,0.00656
6670.57309,-0.00064
6672.50156,-0.01624
6674.43003,-0.00009
6676.35850,0.04699
6678.28697,0.05661
6680.21544,0.01182
6682.14390,-0.02493
6684.07237,-0.02178
6686.00084,0.00443
6687.92931,0.03847
6689.85778,0.05187
6691.78625,0.05487
6693.71472,0.07671
6695.64318,0.06981
6697.57165,0.04043
6699.50012,0.05636
6701.42859,0.07997
6703.35706,0.10020
6705.28553,0.12686
6707.21400,0.15725
6709.14247,0.19417
6711.07093,0.17329
6712.99940,0.12325
6714.92787,0.12848
6716.85634,0.14444
6718.78481,0.07284
6720.71328,-0.05795
6722.64175,-0.12914
6724.57021,-0.10584
6726.49868,-0.02695
6728.42715,0.05620
6730.35562,0.08540
6732.28409,0.07692
6734.21256,0.04498
6736.14103,-0.02143
6738.06950,-0.03416
6739.99796,0.04875
6741.92643,0.13735
6743.85490,0.13657
6745.78337,0.09609
6747.71184,0.06260
6749.64031,0.00835
6751.56878,-0.03074
6753.49724,-0.03576
6755.42571,-0.04052
6757.35418,-0.03319
6759.28265,-0.02059
6761.21112,-0.02943
6763.13959,-0.04696
6765.06806,-0.03668
6766.99653,0.01580
6768.92499,0.07061
6770.85346,0.09905
6772.78193,0.09625
6774.71040,0.03180
6776.63887,-0.02935
6778.56734,0.00170
6780.49581,0.02072
6782.42427,-0.02549
6784.35274,-0.07224
6786.28121,-0.12799
6788.20968,-0.16886
6790.13815,-0.10531
6792.06662,0.01881
6793.99509,0.08208
6795.92355,0.10990
6797.85202,0.13806
6799.78049,0.11600
6801.70896,0.02682
6803.63743,0.00537
6805.56590,0.06602
6807.49437,0.07464
6809.42284,0.06249
6811.35130,0.06920
6813.27977,0.08221
6815.20824,0.09355
6817.13671,0.05640
6819.06518,0.01469
6820.99365,0.01746
6822.92212,-0.00034
6824.85058,-0.07028
6826.77905,-0.06280
6828.70752,0.05409
6830.63599,0.11742
6832.56446,0.09061
6834.49293,0.03682
6836.42140,-0.03257
6838.34987,-0.02280
6840.27833,0.05310
6842.20680,0.05571
6844.13527,-0.01437
6846.06374,-0.07436
6847.99221,-0.10327
6849.92068,-0.09357
6851.84915,-0.04806
6853.77761,0.01802
6855.70608,0.06523
6857.63455,0.04906
6859.56302,-0.00350
6861.49149,-0.01175
6863.41996,0.07279
6865.34843,0.16052
6867.27690,0.12023
6869.20536,-0.01623
6871.13383,-0.07112
6873.06230,0.00836
6874.99077,0.09522
6876.91924,0.16320
6878.84771,0.20135
6880.77618,0.11562
6882.70464,0.03401
6884.63311,0.07419
6886.56158,0.14500
6888.49005,0.21811
6890.41852,0.25984
6892.34699,0.18338
6894.27546,0.06439
6896.20393,-0.02038
6898.13239,-0.06199
6900.06086,-0.04881
6901.98933,0.00065
6903.91780,0.11381
6905.84627,0.23768
6907.77474,0.19795
6909.70321,0.06409
6911.63167,0.00950
6913.56014,0.03619
6915.48861,0.08560
6917.41708,0.13865
6919.34555,0.14957
6921.27402,0.10033
6923.20249,0.05957
6925.13096,0.05633
6927.05942,0.09745
6928.98789,0.16734
6930.91636,0.16661
6932.84483,0.06820
6934.77330,-0.03889
6936.70177,-0.11144
6938.63024,-0.11327
6940.55870,-0.02276
6942.48717,0.07518
6944.41564,0.10013
6946.34411,0.03311
6948.27258,-0.07676
6950.20105,-0.10559
6952.12952,-0.04015
6954.05799,0.03083
6955.98645,0.06563
6957.91492,0.08332
6959.84339,0.11392
6961.77186,0.12934
6963.70033,0.09515
6965.62880,0.07691
6967.55727,0.09919
6969.48573,0.07922
6971.41420,0.03140
6973.34267,0.09200
6975.27114,0.16992
6977.19961,0.08543
6979.12808,-0.01092
6981.05655,-0.02322
6982.98501,-0.00941
6984.91348,0.04788
6986.84195,0.10264
6988.77042,0.08771
6990.69889,0.03395
6992.62736,0.00125
6994.55583,0.06190
6996.48430,0.19303
6998.41276,0.24169
7000.34123,0.14713
7002.26970,0.01525
7004.19817,-0.06351
7006.12664,-0.05667
7008.05511,-0.00516
7009.98358,0.00838
7011.91204,0.02912
7013.84051,0.06062
7015.76898,-0.02902
7017.69745,-0.18661
7019.62592,-0.24842
7021.55439,-0.24546
7023.48286,-0.25621
7025.41133,-0.23698
7027.33979,-0.11968
7029.26826,0.09897
7031.19673,0.20508
7033.12520,0.14294
7035.05367,0.08919
7036.98214,0.11772
7038.91061,0.14948
7040.83907,0.14855
7042.76754,0.12118
7044.69601,0.07830
7046.62448,0.10197
7048.55295,0.16948
7050.48142,0.10239
7052.40989,-0.06256
7054.33836,-0.11652
7056.26682,-0.05010
7058.19529,-0.01440
7060.12376,0.01471
7062.05223,0.11054
7063.98070,0.20290
7065.90917,0.22186
7067.83764,0.20743
7069.76610,0.20842
7071.69457,0.23428
7073.62304,0.22407
7075.55151,0.19966
7077.47998,0.24126
7079.40845,0.25808
7081.33692,0.14432
7083.26539,0.08670
7085.19385,0.17380
7087.12232,0.28218
7089.05079,0.22857
7090.97926,0.03288
7092.90773,-0.09089
7094.83620,-0.12481
7096.76467,-0.15543
7098.69313,-0.15310
7100.62160,-0.11910
7102.55007,-0.00919
7104.47854,0.20777
7106.40701,0.30360
7108.33548,0.15184
7110.26395,0.01581
7112.19242,0.04837
7114.12088,0.14554
7116.04935,0.20628
7117.97782,0.19031
7119.90629,0.11454
7121.83476,0.11416
7123.76323,0.16846
7125.69170,0.14781
7127.62016,0.01732
7129.54863,-0.14398
7131.47710,-0.24190
7133.40557,-0.26779
7135.33404,-0.22674
7137.26251,-0.08912
7139.19098,0.07524
7141.11944,0.10663
7143.04791,0.03984
7144.97638,0.03940
7146.90485,0.08963
7148.83332,0.13803
7150.76179,0.21737
7152.69026,0.31826
7154.61873,0.36250
7156.54719,0.26039
7158.47566,0.13423
7160.40413,0.11138
7162.33260,0.10911
7164.26107,0.06462
7166.18954,0.02154
7168.11801,0.02643
7170.04647,0.04211
7171.97494,-0.03866
7173.90341,-0.10777
7175.83188,-0.03043
7177.76035,0.00961
7179.68882,-0.13046
7181.61729,-0.25746
7183.54576,-0.19169
7185.47422,-0.01428
7187.40269,0.11184
7189.33116,0.16002
7191.25963,0.17812
7193.18810,0.16583
7195.11657,0.11524
7197.04504,0.08404
7198.97350,0.12864
7200.90197,0.16133
7202.83044,0.10360
7204.75891,0.09169
7206.68738,0.14842
7208.61585,0.08784
7210.54432,-0.03467
7212.47279,-0.10691
7214.40125,-0.13457
7216.32972,-0.19196
7218.25819,-0.28691
7220.18666,-0.32122
7222.11513,-0.29109
7224.04360,-0.23422
7225.97207,-0.11443
7227.90053,0.00283
7229.82900,0.01469
7231.75747,-0.00962
7233.68594,-0.03829
7235.61441,-0.11254
7237.54288,-0.15446
7239.47135,-0.02127
7241.39982,0.21579
7243.32828,0.22672
7245.25675,0.05038
7247.18522,-0.01872
7249.11369,0.01010
7251.04216,0.16075
7252.97063,0.33612
7254.89910,0.26301
7256.82756,0.08382
7258.75603,-0.07072
7260.68450,-0.13858
7262.61297,-0.07890
7264.54144,-0.00677
7266.46991,0.00153
7268.39838,-0.04065
7270.32685,-0.05548
7272.25531,0.07958
7274.18378,0.28210
7276.11225,0.37065
7278.04072,0.37786
7279.96919,0.36616
7281.89766,0.37444
7283.82613,0.37050
7285.75459,0.25049
7287.68306,0.07809
7289.61153,-0.06283
7291.54000,-0.19061
7293.46847,-0.24217
7295.39694,-0.11819
7297.32541,0.02043
7299.25387,0.03686
7301.18234,0.04591
7303.11081,0.09185
7305.03928,0.10748
7306.96775,0.10585
7308.89622,0.16212
7310.82469,0.24449
7312.75316,0.26679
7314.68162,0.22344
7316.61009,0.09274
7318.53856,-0.06141
7320.46703,-0.19805
7322.39550,-0.28430
7324.32397,-0.27094
7326.25244,-0.20080
7328.18090,-0.05134
7330.10937,0.16749
7332.03784,0.27510
7333.96631,0.25229
7335.89478,0.15673
7337.82325,0.08947
7339.75172,0.14751
7341.68019,0.19443
7343.60865,0.20272
7345.53712,0.23201
7347.46559,0.24623
7349.39406,0.32142
7351.32253,0.31423
7353.25100,0.10271
7355.17947,-0.05981
7357.10793,-0.03970
7359.03640,0.01628
7360.96487,0.02601
7362.89334,-0.00008
7364.82181,-0.06554
7366.75028,-0.06362
7368.67875,0.04427
7370.60722,0.15921
7372.53568,0.23792
7374.46415,0.32509
7376.39262,0.34456
7378.32109,0.26785
7380.24956,0.22660
7382.17803,0.23390
7384.10650,0.19533
7386.03496,0.09980
7387.96343,0.01931
7389.89190,-0.03717
7391.82037,-0.08214
7393.74884,-0.10792
7395.67731,-0.13258
7397.60578,-0.10910
7399.53425,-0.02323
7401.46271,0.04012
7403.39118,0.05357
7405.31965,0.02579
7407.24812,-0.05297
7409.17659,-0.14759
7411.10506,-0.11813
7413.03353,0.04397
7414.96199,0.18715
7416.89046,0.27229
7418.81893,0.28816
7420.74740,0.17722
7422.67587,0.04809
7424.60434,-0.00500
7426.53281,-0.02005
7428.46128,-0.07992
7430.38974,-0.10010
7432.31821,0.03649
7434.24668,0.13147
7436.17515,0.01306
7438.10362,-0.17177
7440.03209,-0.16028
7441.96056,0.06043
7443.88902,0.31472
7445.81749,0.42541
7447.74596,0.33260
7449.67443,0.13901
7451.60290,0.07372
7453.53137,0.15820
7455.45984,0.15309
7457.38831,0.02683
7459.31677,-0.06088
7461.24524,-0.02316
7463.17371,0.03697
7465.10218,0.16470
7467.03065,0.32958
7468.95912,0.35614
7470.88759,0.24118
7472.81605,0.13132
7474.74452,0.10308
7476.67299,0.12265
7478.60146,0.19136
7480.52993,0.31411
7482.45840,0.41801
7484.38687,0.34202
7486.31533,0.19669
7488.24380,0.15451
7490.17227,0.11379
7492.10074,0.08834
7494.02921,0.15814
7495.95768,0.23067
7497.88615,0.23818
