399.19301,1.30141
401.12148,1.02246
403.04995,0.51069
404.97842,0.00807
406.90689,-0.18044
408.83536,-0.17529
410.76382,0.00584
412.69229,0.25808
414.62076,0.35024
416.54923,0.23795
418.47770,-0.09338
420.40617,-0.28093
422.33464,-0.07732
424.26311,0.12047
426.19157,0.10211
428.12004,-0.00475
430.04851,-0.09389
431.97698,-0.08308
433.90545,0.05276
435.83392,0.16856
437.76239,0.18941
439.69085,0.14492
441.61932,0.06719
443.54779,0.01876
445.47626,0.03245
447.40473,0.08680
449.33320,0.13863
451.26167,0.13724
453.19013,0.13881
455.11860,0.17452
457.04707,0.16757
458.97554,0.12863
460.90401,0.08780
462.83248,0.01197
464.76095,-0.02595
466.68942,0.02518
468.61788,0.08516
470.54635,0.10859
472.47482,0.08527
474.40329,-0.05781
476.33176,-0.14693
478.26023,-0.08816
480.18870,0.00059
482.11716,0.06155
484.04563,0.07252
485.97410,0.01001
487.90257,-0.05498
489.83104,-0.00914
491.75951,0.09976
493.68798,0.17743
495.61645,0.19063
497.54491,0.13161
499.47338,0.07650
501.40185,0.06694
503.33032,0.07562
505.25879,0.09366
507.18726,0.08967
509.11573,0.03713
511.04419,-0.00603
512.97266,0.00992
514.90113,0.07050
516.82960,0.12398
518.75807,0.14444
520.68654,0.14337
522.61501,0.11733
524.54348,0.08890
526.47194,0.09905
528.40041,0.10837
530.32888,0.08514
532.25735,0.05187
534.18582,0.02397
536.11429,0.03129
538.04276,0.07212
539.97122,0.09156
541.89969,0.08951
543.82816,0.08557
545.75663,0.07199
547.68510,0.05313
549.61357,0.03838
551.54204,-0.11674
553.47051,-0.35563
555.39897,-0.29501
557.32744,-0.02750
559.25591,0.08878
561.18438,0.09309
563.11285,0.09335
565.04132,0.07829
566.96979,0.04187
568.89825,0.01349
570.82672,0.02775
572.75519,0.05757
574.68366,0.07239
576.61213,0.08173
578.54060,0.09311
580.46907,0.10111
582.39754,0.10737
584.32600,0.09275
586.25447,0.05233
588.18294,0.02817
590.11141,0.04195
592.03988,0.07097
593.96835,0.09691
595.89682,0.11014
597.82528,0.08932
599.75375,0.05539
601.68222,0.05683
603.61069,0.09589
605.53916,0.13889
607.46763,0.15900
609.39610,0.13740
611.32456,0.09341
613.25303,0.07783
615.18150,0.09528
617.10997,0.11896
619.03844,0.12755
620.96691,0.11360
622.89538,0.10040
624.82385,0.10270
626.75231,0.11423
628.68078,0.12873
630.60925,0.13360
632.53772,0.12580
634.46619,0.11540
636.39466,0.11081
638.32313,0.12473
640.25159,0.13898
642.18006,0.11889
644.10853,0.08282
646.03700,0.07818
647.96547,0.10787
649.89394,0.12359
651.82241,0.11575
653.75088,0.10020
655.67934,0.07248
657.60781,0.06301
659.53628,0.09563
661.46475,0.13065
663.39322,0.13798
665.32169,0.13200
667.25016,0.12043
669.17862,0.10220
671.10709,0.10507
673.03556,0.12897
674.96403,0.14751
676.89250,0.13575
678.82097,0.11284
680.74944,0.10841
682.67791,0.11379
684.60637,0.11327
686.53484,0.10751
688.46331,0.10043
690.39178,0.09740
692.32025,0.10729
694.24872,0.13149
696.17719,0.14519
698.10565,0.12435
700.03412,0.09066
701.96259,0.08009
703.89106,0.09512
705.81953,0.11335
707.74800,0.11909
709.67647,0.11016
711.60494,0.10323
713.53340,0.11562
715.46187,0.12681
717.39034,0.11333
719.31881,0.09483
721.24728,0.09884
723.17575,0.11268
725.10422,0.11500
727.03268,0.11625
728.96115,0.12410
730.88962,0.12737
732.81809,0.12451
734.74656,0.11757
736.67503,0.10813
738.60350,0.10965
740.53197,0.12490
742.46043,0.13722
744.38890,0.13338
746.31737,0.12430
748.24584,0.12807
750.17431,0.13407
752.10278,0.13031
754.03125,0.12415
755.95971,0.12206
757.88818,0.12701
759.81665,0.13187
761.74512,0.13003
763.67359,0.12604
765.60206,0.11989
767.53053,0.11554
769.45900,0.12159
771.38746,0.12926
773.31593,0.12861
775.24440,0.12802
777.17287,0.13116
779.10134,0.13025
781.02981,0.12931
782.95828,0.13417
784.88674,0.13399
786.81521,0.11828
788.74368,0.09996
790.67215,0.10208
792.60062,0.11838
794.52909,0.12979
796.45756,0.13866
798.38602,0.14339
800.31449,0.13295
802.24296,0.11934
804.17143,0.12661
806.09990,0.14731
808.02837,0.15063
809.95684,0.13334
811.88531,0.11458
813.81377,0.10110
815.74224,0.09755
817.67071,0.11253
819.59918,0.13490
821.52765,0.14275
823.45612,0.13806
825.38459,0.13510
827.31305,0.13558
829.24152,0.13392
831.16999,0.12586
833.09846,0.11815
835.02693,0.11887
836.95540,0.12410
838.88387,0.13450
840.81234,0.14649
842.74080,0.14834
844.66927,0.14142
846.59774,0.13808
848.52621,0.14295
850.45468,0.14685
852.38315,0.14574
854.31162,0.14133
856.24008,0.13120
858.16855,0.12252
860.09702,0.12376
862.02549,0.12440
863.95396,0.11344
865.88243,0.10362
867.81090,0.11425
869.73937,0.13898
871.66783,0.14763
873.59630,0.13600
875.52477,0.12829
877.45324,0.12695
879.38171,0.12202
881.31018,0.11541
883.23865,0.11593
885.16711,0.12801
887.09558,0.13826
889.02405,0.13464
890.95252,0.12676
892.88099,0.12341
894.80946,0.12464
896.73793,0.12995
898.66640,0.13280
900.59486,0.13078
902.52333,0.12901
904.45180,0.12849
906.38027,0.12983
908.30874,0.13229
910.23721,0.13202
912.16568,0.13341
914.09414,0.14196
916.02261,0.15331
917.95108,0.16159
919.87955,0.16233
921.80802,0.15699
923.73649,0.15155
925.66496,0.14617
927.59343,0.13861
929.52189,0.13333
931.45036,0.13739
933.37883,0.14362
935.30730,0.14041
937.23577,0.13315
939.16424,0.13281
941.09271,0.13613
943.02117,0.13548
944.94964,0.13222
946.87811,0.12717
948.80658,0.12245
950.73505,0.12315
952.66352,0.13047
954.59199,0.13856
956.52045,0.13934
958.44892,0.13500
960.37739,0.13321
962.30586,0.13607
964.23433,0.13931
966.16280,0.14275
968.09127,0.14607
970.01974,0.14566
971.94820,0.14639
973.87667,0.15192
975.80514,0.15779
977.73361,0.15697
979.66208,0.14965
981.59055,0.14576
983.51902,0.14793
985.44748,0.15100
987.37595,0.15177
989.30442,0.14931
991.23289,0.14613
993.16136,0.14327
995.08983,0.13766
997.01830,0.13490
998.94677,0.14100
1000.87523,0.14846
1002.80370,0.14972
1004.73217,0.14334
1006.66064,0.13547
1008.58911,0.13492
1010.51758,0.13859
1012.44605,0.14229
1014.37451,0.14784
1016.30298,0.15068
1018.23145,0.14897
1020.15992,0.14974
1022.08839,0.15239
1024.01686,0.15069
1025.94533,0.15388
1027.87380,0.16964
1029.80226,0.17530
1031.73073,0.16292
1033.65920,0.15538
1035.58767,0.15272
1037.51614,0.14647
1039.44461,0.14155
1041.37308,0.14014
1043.30154,0.14375
1045.23001,0.14790
1047.15848,0.14408
1049.08695,0.13836
1051.01542,0.14287
1052.94389,0.15382
1054.87236,0.16092
1056.80083,0.16274
1058.72929,0.16090
1060.65776,0.15639
1062.58623,0.15205
1064.51470,0.15029
1066.44317,0.14868
1068.37164,0.14554
1070.30011,0.14590
1072.22857,0.15644
1074.15704,0.16859
1076.08551,0.16617
1078.01398,0.15610
1079.94245,0.15053
1081.87092,0.14661
1083.79939,0.14440
1085.72786,0.14511
1087.65632,0.14777
1089.58479,0.15342
1091.51326,0.15452
1093.44173,0.14836
1095.37020,0.14819
1097.29867,0.15607
1099.22714,0.16298
1101.15560,0.16619
1103.08407,0.16593
1105.01254,0.16447
1106.94101,0.16422
1108.86948,0.16955
1110.79795,0.17747
1112.72642,0.17749
1114.65489,0.17196
1116.58335,0.16722
1118.51182,0.16513
1120.44029,0.16548
1122.36876,0.16347
1124.29723,0.15868
1126.22570,0.15427
1128.15417,0.15156
1130.08263,0.14962
1132.01110,0.14553
1133.93957,0.14215
1135.86804,0.14386
1137.79651,0.14746
1139.72498,0.14971
1141.65345,0.15347
1143.58191,0.15950
1145.51038,0.16115
1147.43885,0.15815
1149.36732,0.16008
1151.29579,0.16658
1153.22426,0.17041
1155.15273,0.16928
1157.08120,0.16164
1159.00966,0.15345
1160.93813,0.15344
1162.86660,0.15800
1164.79507,0.15961
1166.72354,0.15828
1168.65201,0.15907
1170.58048,0.16275
1172.50894,0.16483
1174.43741,0.16276
1176.36588,0.15761
1178.29435,0.15235
1180.22282,0.15217
1182.15129,0.15655
1184.07976,0.15654
1186.00823,0.15092
1187.93669,0.14707
1189.86516,0.14858
1191.79363,0.15268
1193.72210,0.15455
1195.65057,0.15449
1197.57904,0.15597
1199.50751,0.15838
1201.43597,0.15873
1203.36444,0.15642
1205.29291,0.15215
1207.22138,0.14832
1209.14985,0.14618
1211.07832,0.14493
1213.00679,0.14652
1214.93526,0.15159
1216.86372,0.15737
1218.79219,0.16014
1220.72066,0.16081
1222.64913,0.16308
1224.57760,0.16304
1226.50607,0.15841
1228.43454,0.15550
1230.36300,0.15775
1232.29147,0.16141
1234.21994,0.16158
1236.14841,0.15890
1238.07688,0.15877
1240.00535,0.16309
1241.93382,0.16882
1243.86229,0.17327
1245.79075,0.17233
1247.71922,0.16581
1249.64769,0.16065
1251.57616,0.15801
1253.50463,0.15567
1255.43310,0.15453
1257.36157,0.15335
1259.29003,0.15078
1261.21850,0.14872
1263.14697,0.15269
1265.07544,0.16265
1267.00391,0.16710
1268.93238,0.16495
1270.86085,0.16553
1272.78932,0.16675
1274.71778,0.16534
1276.64625,0.16501
1278.57472,0.16555
1280.50319,0.16444
1282.43166,0.16383
1284.36013,0.16591
1286.28860,0.16717
1288.21706,0.16598
1290.14553,0.16711
1292.07400,0.16994
1294.00247,0.16788
1295.93094,0.16282
1297.85941,0.16121
1299.78788,0.15979
1301.71634,0.15137
1303.64481,0.13918
1305.57328,0.13764
1307.50175,0.15126
1309.43022,0.16544
1311.35869,0.17379
1313.28716,0.18094
1315.21563,0.18269
1317.14409,0.17753
1319.07256,0.17359
1321.00103,0.17360
1322.92950,0.17172
1324.85797,0.16455
1326.78644,0.15877
1328.71491,0.15975
1330.64337,0.15822
1332.57184,0.15272
1334.50031,0.15379
1336.42878,0.16186
1338.35725,0.17163
1340.28572,0.17280
1342.21419,0.16255
1344.14266,0.15014
1346.07112,0.14332
1347.99959,0.14811
1349.92806,0.15666
1351.85653,0.16179
1353.78500,0.16753
1355.71347,0.17136
1357.64194,0.17003
1359.57040,0.16913
1361.49887,0.17174
1363.42734,0.17185
1365.35581,0.17115
1367.28428,0.17436
1369.21275,0.17742
1371.14122,0.18084
1373.06969,0.18605
1374.99815,0.18547
1376.92662,0.17894
1378.85509,0.17463
1380.78356,0.17355
1382.71203,0.17531
1384.64050,0.18143
1386.56897,0.19040
1388.49743,0.19361
1390.42590,0.19015
1392.35437,0.19185
1394.28284,0.20209
1396.21131,0.20849
1398.13978,0.20352
1400.06825,0.19499
1401.99672,0.19199
1403.92518,0.19252
1405.85365,0.18763
1407.78212,0.18039
1409.71059,0.17946
1411.63906,0.18377
1413.56753,0.18972
1415.49600,0.19798
1417.42446,0.21058
1419.35293,0.21576
1421.28140,0.20521
1423.20987,0.19346
1425.13834,0.18483
1427.06681,0.18112
1428.99528,0.18378
1430.92375,0.18839
1432.85221,0.19087
1434.78068,0.19414
1436.70915,0.19670
1438.63762,0.19094
1440.56609,0.18394
1442.49456,0.18326
1444.42303,0.18804
1446.35149,0.19319
1448.27996,0.19508
1450.20843,0.19514
1452.13690,0.19901
1454.06537,0.21212
1455.99384,0.23588
1457.92231,0.23917
1459.85077,0.21058
1461.77924,0.19542
1463.70771,0.19739
1465.63618,0.20020
1467.56465,0.19838
1469.49312,0.20551
1471.42159,0.22568
1473.35006,0.23887
1475.27852,0.22604
1477.20699,0.20795
1479.13546,0.19639
1481.06393,0.18951
1482.99240,0.18531
1484.92087,0.18900
1486.84934,0.20651
1488.77780,0.22525
1490.70627,0.21608
1492.63474,0.19808
1494.56321,0.19750
1496.49168,0.21047
1498.42015,0.21395
1500.34862,0.20320
1502.27709,0.20266
1504.20555,0.22714
1506.13402,0.27291
1508.06249,0.27193
1509.99096,0.23678
1511.91943,0.21840
1513.84790,0.21635
1515.77637,0.22933
1517.70483,0.24327
1519.63330,0.25190
1521.56177,0.25865
1523.49024,0.24981
1525.41871,0.23569
1527.34718,0.22102
1529.27565,0.20872
1531.20412,0.20929
1533.13258,0.21709
1535.06105,0.21862
1536.98952,0.22993
1538.91799,0.26874
1540.84646,0.29547
1542.77493,0.26830
1544.70340,0.23812
1546.63186,0.21528
1548.56033,0.20646
1550.48880,0.20915
1552.41727,0.21467
1554.34574,0.22322
1556.27421,0.24210
1558.20268,0.26845
1560.13115,0.24346
1562.05961,0.21165
1563.98808,0.20505
1565.91655,0.21016
1567.84502,0.22182
1569.77349,0.22782
1571.70196,0.21809
1573.63043,0.21581
1575.55889,0.22450
1577.48736,0.21804
1579.41583,0.20238
1581.34430,0.19307
1583.27277,0.18674
1585.20124,0.18233
1587.12971,0.18179
1589.05818,0.18400
1590.98664,0.18586
1592.91511,0.18672
1594.84358,0.18525
1596.77205,0.18113
1598.70052,0.18030
1600.62899,0.18414
1602.55746,0.18795
1604.48592,0.18975
1606.41439,0.19010
1608.34286,0.19039
1610.27133,0.19063
1612.19980,0.19229
1614.12827,0.19997
1616.05674,0.21021
1617.98521,0.20807
1619.91367,0.20437
1621.84214,0.21099
1623.77061,0.21442
1625.69908,0.20741
1627.62755,0.20210
1629.55602,0.19870
1631.48449,0.19898
1633.41295,0.21221
1635.34142,0.23730
1637.26989,0.23728
1639.19836,0.21644
1641.12683,0.20311
1643.05530,0.20554
1644.98377,0.22801
1646.91223,0.25379
1648.84070,0.24930
1650.76917,0.24989
1652.69764,0.27469
1654.62611,0.25671
1656.55458,0.21885
1658.48305,0.20120
1660.41152,0.19678
1662.33998,0.20018
1664.26845,0.20451
1666.19692,0.21152
1668.12539,0.22736
1670.05386,0.23974
1671.98233,0.23410
1673.91080,0.22771
1675.83926,0.22557
1677.76773,0.22452
1679.69620,0.22911
1681.62467,0.24324
1683.55314,0.26019
1685.48161,0.24809
1687.41008,0.22500
1689.33855,0.21238
1691.26701,0.20606
1693.19548,0.20987
1695.12395,0.23047
1697.05242,0.25380
1698.98089,0.25521
1700.90936,0.23873
1702.83783,0.23003
1704.76629,0.23096
1706.69476,0.22318
1708.62323,0.20903
1710.55170,0.20217
1712.48017,0.20499
1714.40864,0.21809
1716.33711,0.23325
1718.26558,0.22467
1720.19404,0.20648
1722.12251,0.20013
1724.05098,0.19760
1725.97945,0.19469
1727.90792,0.19842
1729.83639,0.20704
1731.76486,0.21662
1733.69332,0.22648
1735.62179,0.22128
1737.55026,0.21134
1739.47873,0.20720
1741.40720,0.20586
1743.33567,0.21064
1745.26414,0.22241
1747.19261,0.23293
1749.12107,0.23354
1751.04954,0.22012
1752.97801,0.20495
1754.90648,0.19932
1756.83495,0.20063
1758.76342,0.20424
1760.69189,0.20769
1762.62035,0.20400
1764.54882,0.19718
1766.47729,0.19792
1768.40576,0.20634
1770.33423,0.22047
1772.26270,0.22884
1774.19117,0.21884
1776.11964,0.20779
1778.04810,0.20465
1779.97657,0.20396
1781.90504,0.20066
1783.83351,0.19710
1785.76198,0.19440
1787.69045,0.19482
1789.61892,0.20490
1791.54738,0.21883
1793.47585,0.21702
1795.40432,0.20673
1797.33279,0.20355
1799.26126,0.20581
1801.18973,0.20542
1803.11820,0.20077
1805.04666,0.19746
1806.97513,0.19605
1808.90360,0.19588
1810.83207,0.19622
1812.76054,0.19270
1814.68901,0.18745
1816.61748,0.18862
1818.54595,0.19493
1820.47441,0.19860
1822.40288,0.20248
1824.33135,0.20761
1826.25982,0.20852
1828.18829,0.21054
1830.11676,0.21050
1832.04523,0.19998
1833.97369,0.19194
1835.90216,0.19278
1837.83063,0.19410
1839.75910,0.19296
1841.68757,0.19602
1843.61604,0.20328
1845.54451,0.20535
1847.47298,0.20016
1849.40144,0.19383
1851.32991,0.19073
1853.25838,0.19134
1855.18685,0.19192
1857.11532,0.19115
1859.04379,0.19124
1860.97226,0.19177
1862.90072,0.19301
1864.82919,0.19860
1866.75766,0.20874
1868.68613,0.21392
1870.61460,0.20520
1872.54307,0.19324
1874.47154,0.18740
1876.40001,0.18685
1878.32847,0.18890
1880.25694,0.19212
1882.18541,0.19403
1884.11388,0.19402
1886.04235,0.19405
1887.97082,0.19407
1889.89929,0.19289
1891.82775,0.19200
1893.75622,0.19270
1895.68469,0.19283
1897.61316,0.19156
1899.54163,0.19090
1901.47010,0.19090
1903.39857,0.19121
1905.32704,0.19340
1907.25550,0.19648
1909.18397,0.19635
1911.11244,0.19291
1913.04091,0.19026
1914.96938,0.19140
1916.89785,0.19562
1918.82632,0.19683
1920.75478,0.19473
1922.68325,0.19469
1924.61172,0.19532
1926.54019,0.19480
1928.46866,0.19334
1930.39713,0.18973
1932.32560,0.18676
1934.25407,0.18700
1936.18253,0.18760
1938.11100,0.18763
1940.03947,0.19016
1941.96794,0.19565
1943.89641,0.19799
1945.82488,0.19443
1947.75335,0.19014
1949.68181,0.18764
1951.61028,0.18643
1953.53875,0.18636
1955.46722,0.18628
1957.39569,0.18616
1959.32416,0.18718
1961.25263,0.18874
1963.18110,0.19067
1965.10956,0.19251
1967.03803,0.19255
1968.96650,0.19185
1970.89497,0.19163
1972.82344,0.19112
1974.75191,0.19051
1976.68038,0.19136
1978.60884,0.19243
1980.53731,0.19038
1982.46578,0.18820
1984.39425,0.19089
1986.32272,0.19522
1988.25119,0.19564
1990.17966,0.19409
1992.10812,0.19421
1994.03659,0.19373
1995.96506,0.19247
1997.89353,0.19267
1999.82200,0.19253
2001.75047,0.19150
2003.67894,0.19205
2005.60741,0.19284
2007.53587,0.19108
2009.46434,0.18861
2011.39281,0.18821
2013.32128,0.18973
2015.24975,0.19180
2017.17822,0.19233
2019.10669,0.19212
2021.03515,0.19407
2022.96362,0.19445
2024.89209,0.19038
2026.82056,0.18876
2028.74903,0.19232
2030.67750,0.19431
2032.60597,0.19192
2034.53444,0.18915
2036.46290,0.18968
2038.39137,0.19309
2040.31984,0.19552
2042.24831,0.19463
2044.17678,0.19230
2046.10525,0.19081
2048.03372,0.19073
2049.96218,0.19131
2051.89065,0.19201
2053.81912,0.19327
2055.74759,0.19504
2057.67606,0.19704
2059.60453,0.19693
2061.53300,0.19327
2063.46147,0.19157
2065.38993,0.19395
2067.31840,0.19498
2069.24687,0.19426
2071.17534,0.19405
2073.10381,0.19384
2075.03228,0.19345
2076.96075,0.19233
2078.88921,0.19192
2080.81768,0.19425
2082.74615,0.19726
2084.67462,0.19778
2086.60309,0.19552
2088.53156,0.19355
2090.46003,0.19295
2092.38850,0.19301
2094.31696,0.19527
2096.24543,0.19896
2098.17390,0.20117
2100.10237,0.20053
2102.03084,0.19827
2103.95931,0.19693
2105.88778,0.19584
2107.81624,0.19368
2109.74471,0.19284
2111.67318,0.19479
2113.60165,0.19603
2115.53012,0.19421
2117.45859,0.19240
2119.38706,0.19309
2121.31553,0.19404
2123.24399,0.19354
2125.17246,0.19332
2127.10093,0.19392
2129.02940,0.19484
2130.95787,0.19657
2132.88634,0.19917
2134.81481,0.20267
2136.74327,0.20544
2138.67174,0.20355
2140.60021,0.19755
2142.52868,0.19378
2144.45715,0.19449
2146.38562,0.19613
2148.31409,0.19643
2150.24255,0.19519
2152.17102,0.19251
2154.09949,0.18991
2156.02796,0.19042
2157.95643,0.19347
2159.88490,0.19492
2161.81337,0.19420
2163.74184,0.19279
2165.67030,0.19178
2167.59877,0.19265
2169.52724,0.19534
2171.45571,0.19819
2173.38418,0.19879
2175.31265,0.19731
2177.24112,0.19652
2179.16958,0.19683
2181.09805,0.19647
2183.02652,0.19514
2184.95499,0.19416
2186.88346,0.19302
2188.81193,0.19002
2190.74040,0.18739
2192.66887,0.18872
2194.59733,0.19171
2196.52580,0.19300
2198.45427,0.19252
2200.38274,0.19022
2202.31121,0.18992
2204.23968,0.19412
2206.16815,0.19721
2208.09661,0.19658
2210.02508,0.19480
2211.95355,0.19275
2213.88202,0.19134
2215.81049,0.19160
2217.73896,0.19292
2219.66743,0.19419
2221.59590,0.19489
2223.52436,0.19539
2225.45283,0.19526
2227.38130,0.19451
2229.30977,0.19476
2231.23824,0.19574
2233.16671,0.19543
2235.09518,0.19371
2237.02364,0.19232
2238.95211,0.19208
2240.88058,0.19306
2242.80905,0.19530
2244.73752,0.19741
2246.66599,0.19867
2248.59446,0.19958
2250.52293,0.19988
2252.45139,0.19961
2254.37986,0.19886
2256.30833,0.19693
2258.23680,0.19457
2260.16527,0.19346
2262.09374,0.19257
2264.02221,0.19139
2265.95067,0.19252
2267.87914,0.19528
2269.80761,0.19745
2271.73608,0.20058
2273.66455,0.20372
2275.59302,0.20256
2277.52149,0.19867
2279.44996,0.19757
2281.37842,0.19900
2283.30689,0.19839
2285.23536,0.19605
2287.16383,0.19592
2289.09230,0.19764
2291.02077,0.20130
2292.94924,0.20951
2294.87770,0.21768
2296.80617,0.21689
2298.73464,0.20781
2300.66311,0.19944
2302.59158,0.19549
2304.52005,0.19556
2306.44852,0.19923
2308.37699,0.20177
2310.30545,0.20128
2312.23392,0.20118
2314.16239,0.20209
2316.09086,0.20353
2318.01933,0.20580
2319.94780,0.20662
2321.87627,0.20287
2323.80473,0.19669
2325.73320,0.19290
2327.66167,0.19141
2329.59014,0.19302
2331.51861,0.20165
2333.44708,0.21062
2335.37555,0.21175
2337.30401,0.20913
2339.23248,0.20820
2341.16095,0.20769
2343.08942,0.20411
2345.01789,0.19970
2346.94636,0.19716
2348.87483,0.19670
2350.80330,0.19796
2352.73176,0.19999
2354.66023,0.20199
2356.58870,0.19956
2358.51717,0.19533
2360.44564,0.19299
2362.37411,0.19237
2364.30258,0.20050
2366.23104,0.20442
2368.15951,0.20080
2370.08798,0.20097
2372.01645,0.20323
2373.94492,0.20301
2375.87339,0.19950
2377.80186,0.19656
2379.73033,0.19699
2381.65879,0.19858
2383.58726,0.19857
2385.51573,0.19749
2387.44420,0.19669
2389.37267,0.19547
2391.30114,0.19459
2393.22961,0.19603
2395.15807,0.19820
2397.08654,0.19849
2399.01501,0.19635
2400.94348,0.19370
2402.87195,0.19369
2404.80042,0.19488
2406.72889,0.19454
2408.65736,0.19422
2410.58582,0.19421
2412.51429,0.19353
2414.44276,0.19290
2416.37123,0.19293
2418.29970,0.19341
2420.22817,0.19442
2422.15664,0.19627
2424.08510,0.19736
2426.01357,0.19643
2427.94204,0.19584
2429.87051,0.19756
2431.79898,0.19834
2433.72745,0.19602
2435.65592,0.19433
2437.58439,0.19461
2439.51285,0.19366
2441.44132,0.19275
2443.36979,0.19601
2445.29826,0.19938
2447.22673,0.19779
2449.15520,0.19412
2451.08367,0.19143
2453.01213,0.19079
2454.94060,0.19366
2456.86907,0.19782
2458.79754,0.19891
2460.72601,0.19818
2462.65448,0.19857
2464.58295,0.19916
2466.51142,0.19900
2468.43988,0.19643
2470.36835,0.19176
2472.29682,0.18975
2474.22529,0.19244
2476.15376,0.19716
2478.08223,0.19969
2480.01070,0.19874
2481.93916,0.19702
2483.86763,0.19590
2485.79610,0.19473
2487.72457,0.19387
2489.65304,0.19412
2491.58151,0.19627
2493.50998,0.20012
2495.43844,0.20312
2497.36691,0.20300
2499.29538,0.20096
2501.22385,0.19916
2503.15232,0.19792
2505.08079,0.19713
2507.00926,0.19674
2508.93773,0.19606
2510.86619,0.19577
2512.79466,0.19678
2514.72313,0.19798
2516.65160,0.19981
2518.58007,0.20268
2520.50854,0.20333
2522.43701,0.19981
2524.36547,0.19392
2526.29394,0.18957
2528.22241,0.18952
2530.15088,0.19141
2532.07935,0.19248
2534.00782,0.19469
2535.93629,0.19984
2537.86476,0.20363
2539.79322,0.20161
2541.72169,0.19815
2543.65016,0.19859
2545.57863,0.20005
2547.50710,0.19954
2549.43557,0.19889
2551.36404,0.19887
2553.29250,0.19875
2555.22097,0.19951
2557.14944,0.20216
2559.07791,0.20404
2561.00638,0.20328
2562.93485,0.20270
2564.86332,0.20304
2566.79179,0.20268
2568.72025,0.20153
2570.64872,0.19982
2572.57719,0.19932
2574.50566,0.20044
2576.43413,0.20004
2578.36260,0.19845
2580.29107,0.19830
2582.21953,0.19847
2584.14800,0.19888
2586.07647,0.20048
2588.00494,0.20203
2589.93341,0.20373
2591.86188,0.20414
2593.79035,0.20184
2595.71882,0.20047
2597.64728,0.20057
2599.57575,0.19959
2601.50422,0.19942
2603.43269,0.19976
2605.36116,0.19779
2607.28963,0.19503
2609.21810,0.19297
2611.14656,0.19076
2613.07503,0.18953
2615.00350,0.19275
2616.93197,0.19784
2618.86044,0.19893
2620.78891,0.19759
2622.71738,0.19639
2624.64585,0.19619
2626.57431,0.19813
2628.50278,0.20092
2630.43125,0.20246
2632.35972,0.20059
2634.28819,0.19738
2636.21666,0.19799
2638.14513,0.20073
2640.07359,0.20044
2642.00206,0.19810
2643.93053,0.19845
2645.85900,0.20159
2647.78747,0.20303
2649.71594,0.20117
2651.64441,0.19867
2653.57288,0.19796
2655.50134,0.19923
2657.42981,0.20085
2659.35828,0.20188
2661.28675,0.20245
2663.21522,0.20220
2665.14369,0.20001
2667.07216,0.19740
2669.00062,0.19818
2670.92909,0.20186
2672.85756,0.20572
2674.78603,0.20696
2676.71450,0.20415
2678.64297,0.20265
2680.57144,0.20492
2682.49990,0.20583
2684.42837,0.20410
2686.35684,0.20210
2688.28531,0.19991
2690.21378,0.19798
2692.14225,0.19698
2694.07072,0.19752
2695.99919,0.20047
2697.92765,0.20288
2699.85612,0.20186
2701.78459,0.20024
2703.71306,0.20101
2705.64153,0.20338
2707.57000,0.20527
2709.49847,0.20558
2711.42693,0.20449
2713.35540,0.20280
2715.28387,0.20245
2717.21234,0.20351
2719.14081,0.20402
2721.06928,0.20467
2722.99775,0.20553
2724.92622,0.20473
2726.85468,0.20329
2728.78315,0.20237
2730.71162,0.20123
2732.64009,0.20104
2734.56856,0.20343
2736.49703,0.20711
2738.42550,0.21044
2740.35396,0.21200
2742.28243,0.21109
2744.21090,0.20951
2746.13937,0.20820
2748.06784,0.20707
2749.99631,0.20746
2751.92478,0.20947
2753.85325,0.21136
2755.78171,0.21298
2757.71018,0.21495
2759.63865,0.21625
2761.56712,0.21551
2763.49559,0.21136
2765.42406,0.20556
2767.35253,0.20461
2769.28099,0.20874
2771.20946,0.21084
2773.13793,0.21024
2775.06640,0.21078
2776.99487,0.21159
2778.92334,0.21197
2780.85181,0.21358
2782.78028,0.21483
2784.70874,0.21318
2786.63721,0.20987
2788.56568,0.20849
2790.49415,0.21025
2792.42262,0.21131
2794.35109,0.21002
2796.27956,0.21098
2798.20802,0.21404
2800.13649,0.21319
2802.06496,0.20891
2803.99343,0.20696
2805.92190,0.20740
2807.85037,0.20645
2809.77884,0.20558
2811.70731,0.20760
2813.63577,0.20993
2815.56424,0.20949
2817.49271,0.20924
2819.42118,0.21175
2821.34965,0.21325
2823.27812,0.21299
2825.20659,0.21398
2827.13505,0.21556
2829.06352,0.21653
2830.99199,0.21657
2832.92046,0.21616
2834.84893,0.21672
2836.77740,0.21821
2838.70587,0.21949
2840.63433,0.21857
2842.56280,0.21512
2844.49127,0.21352
2846.41974,0.21396
2848.34821,0.21133
2850.27668,0.20749
2852.20515,0.20671
2854.13362,0.20832
2856.06208,0.20921
2857.99055,0.20833
2859.91902,0.20910
2861.84749,0.21095
2863.77596,0.21010
2865.70443,0.20903
2867.63290,0.20956
2869.56136,0.20889
2871.48983,0.20798
2873.41830,0.20799
2875.34677,0.20626
2877.27524,0.20449
2879.20371,0.20657
2881.13218,0.20982
2883.06065,0.20966
2884.98911,0.20818
2886.91758,0.20834
2888.84605,0.20900
2890.77452,0.21162
2892.70299,0.21596
2894.63146,0.21657
2896.55993,0.21515
2898.48839,0.21532
2900.41686,0.21331
2902.34533,0.20783
2904.27380,0.20202
2906.20227,0.20063
2908.13074,0.20523
2910.05921,0.20877
2911.98768,0.20774
2913.91614,0.20491
2915.84461,0.20195
2917.77308,0.20295
2919.70155,0.20835
2921.63002,0.21257
2923.55849,0.21324
2925.48696,0.20864
2927.41542,0.20141
2929.34389,0.20157
2931.27236,0.20913
2933.20083,0.21175
2935.12930,0.20494
2937.05777,0.19878
2938.98624,0.20050
2940.91471,0.20583
2942.84317,0.21002
2944.77164,0.20895
2946.70011,0.20228
2948.62858,0.20167
2950.55705,0.20989
2952.48552,0.21547
2954.41399,0.21463
2956.34245,0.20637
2958.27092,0.19781
2960.19939,0.20258
2962.12786,0.21336
2964.05633,0.21629
2965.98480,0.21078
2967.91327,0.20305
2969.84174,0.20085
2971.77020,0.20478
2973.69867,0.20911
2975.62714,0.20788
2977.55561,0.20125
2979.48408,0.20153
2981.41255,0.21294
2983.34102,0.22311
2985.26948,0.22425
2987.19795,0.21757
2989.12642,0.21225
2991.05489,0.21580
2992.98336,0.22223
2994.91183,0.22434
2996.84030,0.22065
2998.76877,0.21668
3000.69723,0.21864
3002.62570,0.22147
3004.55417,0.21916
3006.48264,0.21449
3008.41111,0.20997
3010.33958,0.20128
3012.26805,0.18288
3014.19651,0.15532
3016.12498,0.13496
3018.05345,0.14682
3019.98192,0.18307
3021.91039,0.20908
3023.83886,0.21575
3025.76733,0.21452
3027.69579,0.21438
3029.62426,0.21867
3031.55273,0.22325
3033.48120,0.22635
3035.40967,0.22564
3037.33814,0.21887
3039.26661,0.21402
3041.19508,0.21499
3043.12354,0.21813
3045.05201,0.21962
3046.98048,0.21622
3048.90895,0.21275
3050.83742,0.21437
3052.76589,0.21688
3054.69436,0.21465
3056.62282,0.20799
3058.55129,0.20657
3060.47976,0.21164
3062.40823,0.21142
3064.33670,0.20459
3066.26517,0.20088
3068.19364,0.20718
3070.12211,0.21745
3072.05057,0.21969
3073.97904,0.21003
3075.90751,0.19898
3077.83598,0.20359
3079.76445,0.21914
3081.69292,0.22603
3083.62139,0.21675
3085.54985,0.20229
3087.47832,0.19998
3089.40679,0.20854
3091.33526,0.21392
3093.26373,0.20962
3095.19220,0.20519
3097.12067,0.21058
3099.04914,0.21645
3100.97760,0.21295
3102.90607,0.20282
3104.83454,0.19958
3106.76301,0.21012
3108.69148,0.22103
3110.61995,0.21937
3112.54842,0.20862
3114.47688,0.20534
3116.40535,0.21497
3118.33382,0.22155
3120.26229,0.21587
3122.19076,0.20809
3124.11923,0.20954
3126.04770,0.21706
3127.97617,0.22070
3129.90463,0.21660
3131.83310,0.21135
3133.76157,0.21336
3135.69004,0.21948
3137.61851,0.22039
3139.54698,0.21659
3141.47545,0.21732
3143.40391,0.22112
3145.33238,0.22171
3147.26085,0.22123
3149.18932,0.22166
3151.11779,0.22400
3153.04626,0.22674
3154.97473,0.22544
3156.90320,0.22120
3158.83166,0.21837
3160.76013,0.21862
3162.68860,0.22114
3164.61707,0.22480
3166.54554,0.22677
3168.47401,0.22277
3170.40248,0.21610
3172.33094,0.21699
3174.25941,0.22557
3176.18788,0.23195
3178.11635,0.23229
3180.04482,0.22821
3181.97329,0.22308
3183.90176,0.22249
3185.83022,0.22478
3187.75869,0.22338
3189.68716,0.22044
3191.61563,0.22050
3193.54410,0.22147
3195.47257,0.22140
3197.40104,0.22227
3199.32951,0.22471
3201.25797,0.22663
3203.18644,0.22684
3205.11491,0.22717
3207.04338,0.22899
3208.97185,0.23012
3210.90032,0.22915
3212.82879,0.22675
3214.75725,0.22403
3216.68572,0.22346
3218.61419,0.22478
3220.54266,0.22377
3222.47113,0.21974
3224.39960,0.21671
3226.32807,0.21666
3228.25654,0.21915
3230.18500,0.22262
3232.11347,0.22334
3234.04194,0.22182
3235.97041,0.22219
3237.89888,0.22344
3239.82735,0.22396
3241.75582,0.22385
3243.68428,0.22360
3245.61275,0.22557
3247.54122,0.22503
3249.46969,0.21879
3251.39816,0.21508
3253.32663,0.21565
3255.25510,0.21569
3257.18357,0.21593
3259.11203,0.21683
3261.04050,0.21775
3262.96897,0.21903
3264.89744,0.22027
3266.82591,0.22006
3268.75438,0.21767
3270.68285,0.21590
3272.61131,0.21670
3274.53978,0.22006
3276.46825,0.22555
3278.39672,0.23129
3280.32519,0.23300
3282.25366,0.22559
3284.18213,0.21552
3286.11060,0.21346
3288.03906,0.21718
3289.96753,0.22003
3291.89600,0.21941
3293.82447,0.21815
3295.75294,0.22120
3297.68141,0.22694
3299.60988,0.22867
3301.53834,0.22562
3303.46681,0.22161
3305.39528,0.21687
3307.32375,0.21177
3309.25222,0.21003
3311.18069,0.21298
3313.10916,0.21616
3315.03763,0.21732
3316.96609,0.21900
3318.89456,0.22172
3320.82303,0.22263
3322.75150,0.22181
3324.67997,0.22139
3326.60844,0.21973
3328.53691,0.21849
3330.46537,0.22011
3332.39384,0.22086
3334.32231,0.22120
3336.25078,0.22253
3338.17925,0.22113
3340.10772,0.21829
3342.03619,0.21847
3343.96466,0.22295
3345.89312,0.22664
3347.82159,0.22260
3349.75006,0.21816
3351.67853,0.22178
3353.60700,0.22568
3355.53547,0.22397
3357.46394,0.22050
3359.39240,0.21758
3361.32087,0.21709
3363.24934,0.22099
3365.17781,0.22559
3367.10628,0.22767
3369.03475,0.22711
3370.96322,0.22514
3372.89168,0.22283
3374.82015,0.21943
3376.74862,0.21835
3378.67709,0.22242
3380.60556,0.22533
3382.53403,0.22117
3384.46250,0.21663
3386.39097,0.21767
3388.31943,0.21722
3390.24790,0.21406
3392.17637,0.21386
3394.10484,0.21553
3396.03331,0.21923
3397.96178,0.22341
3399.89025,0.22002
3401.81871,0.21334
3403.74718,0.21483
3405.67565,0.22125
3407.60412,0.22097
3409.53259,0.21316
3411.46106,0.20755
3413.38953,0.20865
3415.31800,0.21264
3417.24646,0.21599
3419.17493,0.21911
3421.10340,0.22011
3423.03187,0.21712
3424.96034,0.21525
3426.88881,0.21763
3428.81728,0.22066
3430.74574,0.21937
3432.67421,0.21477
3434.60268,0.21305
3436.53115,0.21475
3438.45962,0.21686
3440.38809,0.21879
3442.31656,0.21740
3444.24503,0.21492
3446.17349,0.21844
3448.10196,0.22197
3450.03043,0.21855
3451.95890,0.21377
3453.88737,0.21094
3455.81584,0.20812
3457.74431,0.20659
3459.67277,0.20851
3461.60124,0.21224
3463.52971,0.21463
3465.45818,0.21416
3467.38665,0.21243
3469.31512,0.20796
3471.24359,0.20150
3473.17206,0.19946
3475.10052,0.19938
3477.02899,0.19666
3478.95746,0.19510
3480.88593,0.19657
3482.81440,0.19696
3484.74287,0.19732
3486.67134,0.20129
3488.59980,0.20259
3490.52827,0.19878
3492.45674,0.19767
3494.38521,0.19940
3496.31368,0.19994
3498.24215,0.20222
3500.17062,0.20724
3502.09909,0.20843
3504.02755,0.20136
3505.95602,0.19360
3507.88449,0.18899
3509.81296,0.18238
3511.74143,0.17781
3513.66990,0.18018
3515.59837,0.18350
3517.52683,0.18396
3519.45530,0.18504
3521.38377,0.18836
3523.31224,0.19006
3525.24071,0.19119
3527.16918,0.19368
3529.09765,0.18919
3531.02611,0.17838
3532.95458,0.17434
3534.88305,0.17770
3536.81152,0.17984
3538.73999,0.17929
3540.66846,0.17881
3542.59693,0.17940
3544.52540,0.18084
3546.45386,0.18222
3548.38233,0.18508
3550.31080,0.18846
3552.23927,0.18463
3554.16774,0.17319
3556.09621,0.16576
3558.02468,0.16558
3559.95314,0.16775
3561.88161,0.17320
3563.81008,0.18623
3565.73855,0.20069
3567.66702,0.19832
3569.59549,0.18153
3571.52396,0.16923
3573.45243,0.16529
3575.38089,0.16641
3577.30936,0.16649
3579.23783,0.16441
3581.16630,0.16412
3583.09477,0.16759
3585.02324,0.17701
3586.95171,0.18939
3588.88017,0.18961
3590.80864,0.18235
3592.73711,0.17863
3594.66558,0.17374
3596.59405,0.16680
3598.52252,0.16538
3600.45099,0.16830
3602.37946,0.16848
3604.30792,0.16697
3606.23639,0.16955
3608.16486,0.17344
3610.09333,0.17305
3612.02180,0.17422
3613.95027,0.17552
3615.87874,0.17374
3617.80720,0.17701
3619.73567,0.17911
3621.66414,0.16714
3623.59261,0.15378
3625.52108,0.15204
3627.44955,0.16341
3629.37802,0.17161
3631.30649,0.16518
3633.23495,0.15913
3635.16342,0.15505
3637.09189,0.15324
3639.02036,0.15310
3640.94883,0.15030
3642.87730,0.14793
3644.80577,0.15345
3646.73423,0.16959
3648.66270,0.18809
3650.59117,0.18305
3652.51964,0.16658
3654.44811,0.15887
3656.37658,0.15592
3658.30505,0.14766
3660.23352,0.13724
3662.16198,0.13253
3664.09045,0.13424
3666.01892,0.13950
3667.94739,0.15066
3669.87586,0.16511
3671.80433,0.16892
3673.73280,0.17279
3675.66126,0.17518
3677.58973,0.15999
3679.51820,0.14651
3681.44667,0.14177
3683.37514,0.14225
3685.30361,0.14491
3687.23208,0.15068
3689.16055,0.16225
3691.08901,0.16579
3693.01748,0.15480
3694.94595,0.14348
3696.87442,0.13924
3698.80289,0.14163
3700.73136,0.14756
3702.65983,0.14962
3704.58829,0.14729
3706.51676,0.14927
3708.44523,0.15562
3710.37370,0.16106
3712.30217,0.15844
3714.23064,0.14905
3716.15911,0.14231
3718.08757,0.14097
3720.01604,0.14142
3721.94451,0.13852
3723.87298,0.13632
3725.80145,0.13853
3727.72992,0.13996
3729.65839,0.14299
3731.58686,0.15520
3733.51532,0.17679
3735.44379,0.18932
3737.37226,0.17918
3739.30073,0.16648
3741.22920,0.16071
3743.15767,0.16083
3745.08614,0.16398
3747.01460,0.16378
3748.94307,0.16872
3750.87154,0.17418
3752.80001,0.15992
3754.72848,0.14633
3756.65695,0.14292
3758.58542,0.14035
3760.51389,0.13510
3762.44235,0.13492
3764.37082,0.13878
3766.29929,0.13930
3768.22776,0.13762
3770.15623,0.13595
3772.08470,0.13219
3774.01317,0.13014
3775.94163,0.13322
3777.87010,0.13986
3779.79857,0.14062
3781.72704,0.13485
3783.65551,0.13620
3785.58398,0.14232
3787.51245,0.14126
3789.44092,0.13575
3791.36938,0.13189
3793.29785,0.13176
3795.22632,0.13616
3797.15479,0.13634
3799.08326,0.13158
3801.01173,0.13506
3802.94020,0.13791
3804.86866,0.13524
3806.79713,0.13896
3808.72560,0.13982
3810.65407,0.13455
3812.58254,0.13585
3814.51101,0.14416
3816.43948,0.14942
3818.36795,0.15302
3820.29641,0.15902
3822.22488,0.15283
3824.15335,0.14274
3826.08182,0.13983
3828.01029,0.13799
3829.93876,0.13861
3831.86723,0.14304
3833.79569,0.14608
3835.72416,0.15156
3837.65263,0.16173
3839.58110,0.16063
3841.50957,0.14695
3843.43804,0.13773
3845.36651,0.13526
3847.29498,0.13585
3849.22344,0.14386
3851.15191,0.16386
3853.08038,0.18674
3855.00885,0.17573
3856.93732,0.15145
3858.86579,0.13836
3860.79426,0.13593
3862.72272,0.13868
3864.65119,0.13863
3866.57966,0.13621
3868.50813,0.13606
3870.43660,0.13418
3872.36507,0.13139
3874.29354,0.12988
3876.22200,0.12400
3878.15047,0.12014
3880.07894,0.12764
3882.00741,0.14075
3883.93588,0.14670
3885.86435,0.13957
3887.79282,0.12724
3889.72129,0.12607
3891.64975,0.13245
3893.57822,0.12918
3895.50669,0.12227
3897.43516,0.12558
3899.36363,0.13492
3901.29210,0.14000
3903.22057,0.14605
3905.14903,0.14691
3907.07750,0.13408
3909.00597,0.12171
3910.93444,0.11697
3912.86291,0.11610
3914.79138,0.11641
3916.71985,0.11664
3918.64832,0.11606
3920.57678,0.11701
3922.50525,0.12060
3924.43372,0.12211
3926.36219,0.11884
3928.29066,0.11845
3930.21913,0.12355
3932.14760,0.12528
3934.07606,0.12065
3936.00453,0.11747
3937.93300,0.11807
3939.86147,0.11916
3941.78994,0.11937
3943.71841,0.11913
3945.64688,0.11927
3947.57535,0.12023
3949.50381,0.12052
3951.43228,0.11771
3953.36075,0.10986
3955.28922,0.10118
3957.21769,0.09899
3959.14616,0.10362
3961.07463,0.10992
3963.00309,0.11124
3964.93156,0.10914
3966.86003,0.11108
3968.78850,0.11363
3970.71697,0.11062
3972.64544,0.10648
3974.57391,0.10818
3976.50238,0.11362
3978.43084,0.11398
3980.35931,0.10701
3982.28778,0.10186
3984.21625,0.10223
3986.14472,0.10170
3988.07319,0.10141
3990.00166,0.10354
3991.93012,0.10552
3993.85859,0.10887
3995.78706,0.11251
3997.71553,0.11314
3999.64400,0.11156
4001.57247,0.10680
4003.50094,0.10138
4005.42941,0.10010
4007.35787,0.10044
4009.28634,0.10251
4011.21481,0.10577
4013.14328,0.10569
4015.07175,0.10355
4017.00022,0.10169
4018.92869,0.10010
4020.85715,0.09782
4022.78562,0.09629
4024.71409,0.09738
4026.64256,0.09743
4028.57103,0.09484
4030.49950,0.09447
4032.42797,0.09813
4034.35644,0.10118
4036.28490,0.09901
4038.21337,0.09419
4040.14184,0.09382
4042.07031,0.09653
4043.99878,0.09755
4045.92725,0.09999
4047.85572,0.10437
4049.78418,0.10352
4051.71265,0.09673
4053.64112,0.09251
4055.56959,0.09302
4057.49806,0.09372
4059.42653,0.09250
4061.35500,0.09017
4063.28346,0.08897
4065.21193,0.08913
4067.14040,0.08984
4069.06887,0.09030
4070.99734,0.08989
4072.92581,0.09000
4074.85428,0.09260
4076.78275,0.09629
4078.71121,0.09647
4080.63968,0.09260
4082.56815,0.08800
4084.49662,0.08499
4086.42509,0.08584
4088.35356,0.08961
4090.28203,0.09286
4092.21049,0.09594
4094.13896,0.09909
4096.06743,0.10115
4097.99590,0.10087
4099.92437,0.09784
4101.85284,0.09517
4103.78131,0.09213
4105.70978,0.08863
4107.63824,0.08967
4109.56671,0.09068
4111.49518,0.08565
4113.42365,0.08035
4115.35212,0.08116
4117.28059,0.08688
4119.20906,0.09173
4121.13752,0.09466
4123.06599,0.09723
4124.99446,0.09535
4126.92293,0.09075
4128.85140,0.08989
4130.77987,0.09019
4132.70834,0.08773
4134.63681,0.08616
4136.56527,0.08846
4138.49374,0.08994
4140.42221,0.08852
4142.35068,0.08834
4144.27915,0.08978
4146.20762,0.08981
4148.13609,0.08701
4150.06455,0.08325
4151.99302,0.08128
4153.92149,0.08026
4155.84996,0.08003
4157.77843,0.08138
4159.70690,0.08226
4161.63537,0.08083
4163.56384,0.07632
4165.49230,0.07187
4167.42077,0.07019
4169.34924,0.06843
4171.27771,0.06563
4173.20618,0.06452
4175.13465,0.06833
4177.06312,0.07565
4178.99158,0.08103
4180.92005,0.08348
4182.84852,0.08350
4184.77699,0.08070
4186.70546,0.07796
4188.63393,0.07766
4190.56240,0.07900
4192.49087,0.07945
4194.41933,0.07913
4196.34780,0.08072
4198.27627,0.07938
4200.20474,0.07220
4202.13321,0.06799
4204.06168,0.07043
4205.99015,0.07203
4207.91861,0.06744
4209.84708,0.06335
4211.77555,0.06661
4213.70402,0.07340
4215.63249,0.07839
4217.56096,0.07893
4219.48943,0.07560
4221.41789,0.07097
4223.34636,0.06578
4225.27483,0.06295
4227.20330,0.06485
4229.13177,0.06626
4231.06024,0.06164
4232.98871,0.05488
4234.91718,0.05486
4236.84564,0.06042
4238.77411,0.06238
4240.70258,0.06093
4242.63105,0.06111
4244.55952,0.06213
4246.48799,0.06336
4248.41646,0.06371
4250.34492,0.06097
4252.27339,0.05798
4254.20186,0.05682
4256.13033,0.05639
4258.05880,0.05625
4259.98727,0.05660
4261.91574,0.05871
4263.84421,0.06330
4265.77267,0.06861
4267.70114,0.06975
4269.62961,0.06517
4271.55808,0.05966
4273.48655,0.05671
4275.41502,0.05375
4277.34349,0.04795
4279.27195,0.04500
4281.20042,0.04910
4283.12889,0.05474
4285.05736,0.05523
4286.98583,0.05173
4288.91430,0.05077
4290.84277,0.05212
4292.77124,0.05465
4294.69970,0.05976
4296.62817,0.06153
4298.55664,0.05522
4300.48511,0.04852
4302.41358,0.05165
4304.34205,0.06026
4306.27052,0.06168
4308.19898,0.05558
4310.12745,0.04981
4312.05592,0.04626
4313.98439,0.04483
4315.91286,0.04652
4317.84133,0.04933
4319.76980,0.04972
4321.69827,0.04659
4323.62673,0.04590
4325.55520,0.05171
4327.48367,0.05622
4329.41214,0.05388
4331.34061,0.04799
4333.26908,0.04182
4335.19755,0.03758
4337.12601,0.03814
4339.05448,0.04204
4340.98295,0.04354
4342.91142,0.03919
4344.83989,0.03187
4346.76836,0.03172
4348.69683,0.03814
4350.62530,0.03908
4352.55376,0.03579
4354.48223,0.03417
4356.41070,0.03413
4358.33917,0.03633
4360.26764,0.03899
4362.19611,0.03936
4364.12458,0.03825
4366.05304,0.03642
4367.98151,0.03464
4369.90998,0.03628
4371.83845,0.03976
4373.76692,0.03745
4375.69539,0.02932
4377.62386,0.02268
4379.55232,0.01848
4381.48079,0.01584
4383.40926,0.01790
4385.33773,0.02287
4387.26620,0.02700
4389.19467,0.02827
4391.12314,0.02578
4393.05161,0.02591
4394.98007,0.03176
4396.90854,0.03288
4398.83701,0.02590
4400.76548,0.02320
4402.69395,0.02681
4404.62242,0.02524
4406.55089,0.01931
4408.47935,0.02055
4410.40782,0.02827
4412.33629,0.02884
4414.26476,0.01983
4416.19323,0.01365
4418.12170,0.01530
4420.05017,0.01896
4421.97864,0.02198
4423.90710,0.02400
4425.83557,0.02316
4427.76404,0.02502
4429.69251,0.03168
4431.62098,0.03624
4433.54945,0.03858
4435.47792,0.03460
4437.40638,0.02073
4439.33485,0.01089
4441.26332,0.01595
4443.19179,0.02790
4445.12026,0.03358
4447.04873,0.03117
4448.97720,0.02345
4450.90567,0.01392
4452.83413,0.01314
4454.76260,0.01885
4456.69107,0.01874
4458.61954,0.01887
4460.54801,0.02783
4462.47648,0.03396
4464.40495,0.02902
4466.33341,0.02379
4468.26188,0.02210
4470.19035,0.01643
4472.11882,0.01322
4474.04729,0.01949
4475.97576,0.02548
4477.90423,0.02337
4479.83270,0.01706
4481.76116,0.01278
4483.68963,0.00760
4485.61810,-0.00043
4487.54657,-0.00296
4489.47504,0.00237
4491.40351,0.00978
4493.33198,0.01190
4495.26044,0.00626
4497.18891,0.00175
4499.11738,0.00228
4501.04585,0.00058
4502.97432,-0.00108
4504.90279,0.00156
4506.83126,0.00325
4508.75973,0.00147
4510.68819,-0.00477
4512.61666,-0.01219
4514.54513,-0.00879
4516.47360,0.00387
4518.40207,0.01240
4520.33054,0.01714
4522.25901,0.01862
4524.18747,0.01168
4526.11594,0.00512
4528.04441,0.00282
4529.97288,-0.00449
4531.90135,-0.01222
4533.82982,-0.00967
4535.75829,-0.00296
4537.68676,-0.00127
4539.61522,-0.00107
4541.54369,0.00359
4543.47216,0.01088
4545.40063,0.01503
4547.32910,0.01282
4549.25757,0.00945
4551.18604,0.01039
4553.11450,0.01203
4555.04297,0.01086
4556.97144,0.00631
4558.89991,0.00113
4560.82838,-0.00322
4562.75685,-0.00722
4564.68532,-0.00419
4566.61378,0.00321
4568.54225,0.00634
4570.47072,0.00888
4572.39919,0.00968
4574.32766,0.00235
4576.25613,-0.00662
4578.18460,-0.01140
4580.11307,-0.01493
4582.04153,-0.01147
4583.97000,-0.00060
4585.89847,0.00398
4587.82694,0.00218
4589.75541,0.00558
4591.68388,0.00903
4593.61235,0.00617
4595.54081,0.01174
4597.46928,0.02519
4599.39775,0.02776
4601.32622,0.01775
4603.25469,0.00600
4605.18316,0.00416
4607.11163,0.00987
4609.04010,0.00909
4610.96856,0.00380
4612.89703,0.00615
4614.82550,0.01298
4616.75397,0.01202
4618.68244,0.00728
4620.61091,0.00898
4622.53938,0.00850
4624.46784,-0.00094
4626.39631,-0.00730
4628.32478,-0.00596
4630.25325,-0.00494
4632.18172,-0.00799
4634.11019,-0.01205
4636.03866,-0.01160
4637.96713,-0.00661
4639.89559,-0.00020
4641.82406,0.00480
4643.75253,0.00816
4645.68100,0.01410
4647.60947,0.01793
4649.53794,0.00934
4651.46641,-0.00382
4653.39487,-0.00353
4655.32334,0.00850
4657.25181,0.01731
4659.18028,0.01660
4661.10875,0.01002
4663.03722,0.00637
4664.96569,0.00815
4666.89416,0.01206
4668.82262,0.01318
4670.75109,0.00528
4672.67956,-0.00296
4674.60803,0.00302
4676.53650,0.01234
4678.46497,0.01010
4680.39344,0.00334
4682.32190,-0.00319
4684.25037,-0.01092
4686.17884,-0.01669
4688.10731,-0.01416
4690.03578,-0.00082
4691.96425,0.01256
4693.89272,0.01495
4695.82119,0.01179
4697.74965,0.01024
4699.67812,0.00924
4701.60659,0.00562
4703.53506,0.00157
4705.46353,-0.00172
4707.39200,-0.00745
4709.32047,-0.01367
4711.24893,-0.01604
4713.17740,-0.01274
4715.10587,-0.00351
4717.03434,0.00432
4718.96281,0.00891
4720.89128,0.01594
4722.81975,0.02190
4724.74821,0.02269
4726.67668,0.01863
4728.60515,0.01066
4730.53362,0.00309
4732.46209,-0.00009
4734.39056,0.00141
4736.31903,0.00455
4738.24750,0.00214
4740.17596,-0.00826
4742.10443,-0.01410
4744.03290,-0.00641
4745.96137,0.00248
4747.88984,0.00518
4749.81831,0.01125
4751.74678,0.01883
4753.67524,0.01926
4755.60371,0.01589
4757.53218,0.01042
4759.46065,0.00102
4761.38912,-0.00723
4763.31759,-0.00825
4765.24606,-0.00278
4767.17453,0.00137
4769.10299,-0.00128
4771.03146,-0.00563
4772.95993,-0.00347
4774.88840,0.00383
4776.81687,0.00376
4778.74534,-0.00426
4780.67381,-0.00275
4782.60227,0.01207
4784.53074,0.01684
4786.45921,0.00136
4788.38768,-0.00754
4790.31615,0.00212
4792.24462,0.00825
4794.17309,0.00438
4796.10156,0.00246
4798.03002,0.00473
4799.95849,0.00938
4801.88696,0.01517
4803.81543,0.01617
4805.74390,0.01321
4807.67237,0.01377
4809.60084,0.01717
4811.52930,0.01233
4813.45777,-0.00121
4815.38624,-0.00694
4817.31471,-0.00455
4819.24318,-0.00621
4821.17165,-0.01024
4823.10012,-0.01092
4825.02859,-0.00909
4826.95705,-0.00556
4828.88552,-0.00015
4830.81399,0.00706
4832.74246,0.01421
4834.67093,0.01593
4836.59940,0.01292
4838.52787,0.01107
4840.45633,0.01532
4842.38480,0.02297
4844.31327,0.02210
4846.24174,0.01017
4848.17021,-0.00411
4850.09868,-0.01002
4852.02715,-0.00098
4853.95562,0.01069
4855.88408,0.00732
4857.81255,-0.00234
4859.74102,0.00183
4861.66949,0.01583
4863.59796,0.02021
4865.52643,0.00649
4867.45490,-0.01319
4869.38336,-0.01738
4871.31183,-0.00285
4873.24030,0.01229
4875.16877,0.01693
4877.09724,0.01472
4879.02571,0.00594
4880.95418,-0.00694
4882.88265,-0.01414
4884.81111,-0.01380
4886.73958,-0.00842
4888.66805,0.00410
4890.59652,0.01723
4892.52499,0.01999
4894.45346,0.01393
4896.38193,0.00774
4898.31039,0.00834
4900.23886,0.01054
4902.16733,0.00895
4904.09580,0.00716
4906.02427,0.00248
4907.95274,-0.00438
4909.88121,-0.00514
4911.80967,0.00021
4913.73814,0.00228
4915.66661,-0.00416
4917.59508,-0.01038
4919.52355,-0.00553
4921.45202,0.00951
4923.38049,0.02028
4925.30896,0.01369
4927.23742,0.00446
4929.16589,0.00518
4931.09436,0.00473
4933.02283,0.00786
4934.95130,0.01866
4936.87977,0.02518
4938.80824,0.02730
4940.73670,0.02230
4942.66517,0.00967
4944.59364,0.00502
4946.52211,0.01191
4948.45058,0.02201
4950.37905,0.02889
4952.30752,0.02508
4954.23599,0.01371
4956.16445,0.00814
4958.09292,0.00960
4960.02139,0.00933
4961.94986,0.00954
4963.87833,0.01635
4965.80680,0.02693
4967.73527,0.03783
4969.66373,0.03684
4971.59220,0.01635
4973.52067,0.00294
4975.44914,0.01421
4977.37761,0.02222
4979.30608,0.01103
4981.23455,0.00059
4983.16302,-0.00508
4985.09148,-0.01021
4987.01995,-0.00305
4988.94842,0.00769
4990.87689,0.00555
4992.80536,0.00071
4994.73383,0.00489
4996.66230,0.01763
4998.59076,0.03187
5000.51923,0.03558
5002.44770,0.02675
5004.37617,0.01362
5006.30464,0.00323
5008.23311,-0.00339
5010.16158,-0.00398
5012.09005,-0.00184
5014.01851,-0.00553
5015.94698,-0.01019
5017.87545,-0.00969
5019.80392,-0.00854
5021.73239,-0.00418
5023.66086,0.00420
5025.58933,0.00978
5027.51779,0.01597
5029.44626,0.02596
5031.37473,0.03117
5033.30320,0.02827
5035.23167,0.03043
5037.16014,0.04382
5039.08861,0.05063
5041.01708,0.03634
5042.94554,0.01819
5044.87401,0.01414
5046.80248,0.01073
5048.73095,0.00376
5050.65942,0.00985
5052.58789,0.01829
5054.51636,0.01476
5056.44482,0.00902
5058.37329,0.00587
5060.30176,0.00796
5062.23023,0.01982
5064.15870,0.02991
5066.08717,0.02680
5068.01564,0.01810
5069.94410,0.01436
5071.87257,0.01826
5073.80104,0.02597
5075.72951,0.03071
5077.65798,0.02666
5079.58645,0.01067
5081.51492,-0.00538
5083.44339,-0.00340
5085.37185,0.01232
5087.30032,0.01564
5089.22879,0.00116
5091.15726,-0.00628
5093.08573,-0.00104
5095.01420,0.00593
5096.94267,0.00962
5098.87113,0.00490
5100.79960,-0.00467
5102.72807,-0.00760
5104.65654,0.00012
5106.58501,0.01048
5108.51348,0.01631
5110.44195,0.02036
5112.37042,0.02558
5114.29888,0.02905
5116.22735,0.02746
5118.15582,0.02334
5120.08429,0.02430
5122.01276,0.03501
5123.94123,0.04803
5125.86970,0.05408
5127.79816,0.05218
5129.72663,0.04507
5131.65510,0.03954
5133.58357,0.03992
5135.51204,0.04161
5137.44051,0.03994
5139.36898,0.04067
5141.29745,0.04730
5143.22591,0.04910
5145.15438,0.04312
5147.08285,0.03457
5149.01132,0.02038
5150.93979,0.00236
5152.86826,-0.00736
5154.79673,-0.00228
5156.72519,0.01242
5158.65366,0.03014
5160.58213,0.04171
5162.51060,0.03855
5164.43907,0.03313
5166.36754,0.03595
5168.29601,0.03940
5170.22448,0.04126
5172.15294,0.03485
5174.08141,0.01589
5176.00988,0.00674
5177.93835,0.02526
5179.86682,0.04821
5181.79529,0.04665
5183.72376,0.03343
5185.65222,0.03485
5187.58069,0.04277
5189.50916,0.03658
5191.43763,0.02683
5193.36610,0.02467
5195.29457,0.01752
5197.22304,0.00886
5199.15151,0.01629
5201.07997,0.03801
5203.00844,0.05700
5204.93691,0.06144
5206.86538,0.05751
5208.79385,0.05284
5210.72232,0.04578
5212.65079,0.03970
5214.57925,0.03845
5216.50772,0.03880
5218.43619,0.03374
5220.36466,0.03131
5222.29313,0.04616
5224.22160,0.06786
5226.15007,0.07045
5228.07854,0.04428
5230.00700,0.01521
5231.93547,0.01341
5233.86394,0.02878
5235.79241,0.03580
5237.72088,0.03243
5239.64935,0.02171
5241.57782,0.01093
5243.50628,0.01654
5245.43475,0.04225
5247.36322,0.06479
5249.29169,0.06631
5251.22016,0.05387
5253.14863,0.03590
5255.07710,0.02291
5257.00556,0.02896
5258.93403,0.04526
5260.86250,0.04922
5262.79097,0.03739
5264.71944,0.03828
5266.64791,0.06200
5268.57638,0.07489
5270.50485,0.06003
5272.43331,0.04145
5274.36178,0.03905
5276.29025,0.04808
5278.21872,0.05370
5280.14719,0.05025
5282.07566,0.04939
5284.00413,0.05216
5285.93259,0.04965
5287.86106,0.05183
5289.78953,0.06228
5291.71800,0.06358
5293.64647,0.06009
5295.57494,0.05454
5297.50341,0.03389
5299.43188,0.01158
5301.36034,0.00155
5303.28881,0.00004
5305.21728,0.01306
5307.14575,0.04273
5309.07422,0.06627
5311.00269,0.07197
5312.93116,0.07631
5314.85962,0.08858
5316.78809,0.10605
5318.71656,0.11728
5320.64503,0.11339
5322.57350,0.09721
5324.50197,0.08096
5326.43044,0.07564
5328.35891,0.06620
5330.28737,0.04353
5332.21584,0.03366
5334.14431,0.05556
5336.07278,0.09240
5338.00125,0.11017
5339.92972,0.09023
5341.85819,0.06880
5343.78665,0.07340
5345.71512,0.07149
5347.64359,0.05096
5349.57206,0.04715
5351.50053,0.06244
5353.42900,0.07128
5355.35747,0.05409
5357.28594,0.02280
5359.21440,0.01019
5361.14287,0.02524
5363.07134,0.03343
5364.99981,0.02291
5366.92828,0.03340
5368.85675,0.06520
5370.78522,0.07464
5372.71368,0.05275
5374.64215,0.03079
5376.57062,0.04047
5378.49909,0.05879
5380.42756,0.05126
5382.35603,0.04023
5384.28450,0.04625
5386.21297,0.05262
5388.14143,0.05227
5390.06990,0.06325
5391.99837,0.08774
5393.92684,0.10183
5395.85531,0.08814
5397.78378,0.06752
5399.71225,0.05402
5401.64071,0.03939
5403.56918,0.03694
5405.49765,0.05957
5407.42612,0.07753
5409.35459,0.07266
5411.28306,0.06494
5413.21153,0.05439
5415.13999,0.03806
5417.06846,0.04343
5418.99693,0.06419
5420.92540,0.07296
5422.85387,0.06368
5424.78234,0.03623
5426.71081,-0.00315
5428.63928,-0.01398
5430.56774,0.02088
5432.49621,0.04204
5434.42468,0.03016
5436.35315,0.03158
5438.28162,0.05814
5440.21009,0.07642
5442.13856,0.06886
5444.06702,0.06695
5445.99549,0.09369
5447.92396,0.10808
5449.85243,0.08445
5451.78090,0.06464
5453.70937,0.06457
5455.63784,0.05774
5457.56631,0.04073
5459.49477,0.04573
5461.42324,0.06910
5463.35171,0.06021
5465.28018,0.02652
5467.20865,0.02272
5469.13712,0.05516
5471.06559,0.08964
5472.99405,0.10206
5474.92252,0.09591
5476.85099,0.08780
5478.77946,0.08517
5480.70793,0.08244
5482.63640,0.06686
5484.56487,0.03983
5486.49334,0.02684
5488.42180,0.03987
5490.35027,0.05807
5492.27874,0.06865
5494.20721,0.07947
5496.13568,0.07718
5498.06415,0.04862
5499.99262,0.02968
5501.92108,0.05190
5503.84955,0.07299
5505.77802,0.06389
5507.70649,0.06115
5509.63496,0.08966
5511.56343,0.12140
5513.49190,0.12843
5515.42037,0.12052
5517.34883,0.10644
5519.27730,0.08106
5521.20577,0.06041
5523.13424,0.05355
5525.06271,0.04992
5526.99118,0.04820
5528.91965,0.05573
5530.84811,0.06037
5532.77658,0.04688
5534.70505,0.04268
5536.63352,0.06828
5538.56199,0.09228
5540.49046,0.09068
5542.41893,0.08109
5544.34740,0.08640
5546.27586,0.09260
5548.20433,0.08459
5550.13280,0.08031
5552.06127,0.08221
5553.98974,0.08680
5555.91821,0.09143
5557.84668,0.08028
5559.77514,0.07306
5561.70361,0.09620
5563.63208,0.12429
5565.56055,0.11953
5567.48902,0.10418
5569.41749,0.11900
5571.34596,0.14408
5573.27443,0.14479
5575.20289,0.10977
5577.13136,0.06556
5579.05983,0.04826
5580.98830,0.05633
5582.91677,0.07434
5584.84524,0.08271
5586.77371,0.07270
5588.70217,0.06261
5590.63064,0.06353
5592.55911,0.07264
5594.48758,0.08960
5596.41605,0.10931
5598.34452,0.11387
5600.27299,0.08875
5602.20145,0.04505
5604.12992,0.01916
5606.05839,0.03415
5607.98686,0.06404
5609.91533,0.06961
5611.84380,0.05596
5613.77227,0.05607
5615.70074,0.06609
5617.62920,0.06202
5619.55767,0.04722
5621.48614,0.03708
5623.41461,0.03643
5625.34308,0.04365
5627.27155,0.05108
5629.20002,0.04252
5631.12848,0.03441
5633.05695,0.04331
5634.98542,0.04188
5636.91389,0.04895
5638.84236,0.09698
5640.77083,0.13298
5642.69930,0.13196
5644.62777,0.12907
5646.55623,0.12572
5648.48470,0.10750
5650.41317,0.08722
5652.34164,0.06475
5654.27011,0.03029
5656.19858,0.00554
5658.12705,0.00657
5660.05551,0.02522
5661.98398,0.04461
5663.91245,0.05172
5665.84092,0.06261
5667.76939,0.07644
5669.69786,0.07062
5671.62633,0.06294
5673.55480,0.07252
5675.48326,0.07766
5677.41173,0.06621
5679.34020,0.05443
5681.26867,0.05739
5683.19714,0.07629
5685.12561,0.09370
5687.05408,0.09677
5688.98254,0.08330
5690.91101,0.06039
5692.83948,0.05038
5694.76795,0.05367
5696.69642,0.06770
5698.62489,0.09446
5700.55336,0.10045
5702.48183,0.08306
5704.41029,0.07890
5706.33876,0.08996
5708.26723,0.09499
5710.19570,0.08782
5712.12417,0.07574
5714.05264,0.05284
5715.98111,0.02568
5717.90957,0.03030
5719.83804,0.06588
5721.76651,0.09773
5723.69498,0.11812
5725.62345,0.12621
5727.55192,0.10882
5729.48039,0.07544
5731.40886,0.04909
5733.33732,0.03127
5735.26579,0.02867
5737.19426,0.04953
5739.12273,0.07473
5741.05120,0.09119
5742.97967,0.10021
5744.90814,0.09241
5746.83660,0.08534
5748.76507,0.10717
5750.69354,0.12097
5752.62201,0.10215
5754.55048,0.08297
5756.47895,0.05785
5758.40742,0.03247
5760.33588,0.04204
5762.26435,0.08115
5764.19282,0.10410
5766.12129,0.08501
5768.04976,0.06539
5769.97823,0.07130
5771.90670,0.07642
5773.83517,0.08599
5775.76363,0.11283
5777.69210,0.13788
5779.62057,0.14167
5781.54904,0.12729
5783.47751,0.11091
5785.40598,0.09655
5787.33445,0.08931
5789.26291,0.08943
5791.19138,0.09409
5793.11985,0.10664
5795.04832,0.11026
5796.97679,0.07982
5798.90526,0.02544
5800.83373,0.00358
5802.76220,0.04605
5804.69066,0.09801
5806.61913,0.09733
5808.54760,0.07158
5810.47607,0.05438
5812.40454,0.03669
5814.33301,0.03909
5816.26148,0.06466
5818.18994,0.07779
5820.11841,0.08501
5822.04688,0.08742
5823.97535,0.07445
5825.90382,0.08661
5827.83229,0.12396
5829.76076,0.12809
5831.68923,0.09639
5833.61769,0.06784
5835.54616,0.05333
5837.47463,0.05808
5839.40310,0.08051
5841.33157,0.09736
5843.26004,0.10991
5845.18851,0.11939
5847.11697,0.10109
5849.04544,0.07705
5850.97391,0.08117
5852.90238,0.09277
5854.83085,0.09390
5856.75932,0.08573
5858.68779,0.07425
5860.61626,0.05390
5862.54472,0.03694
5864.47319,0.06646
5866.40166,0.12108
5868.33013,0.13112
5870.25860,0.10406
5872.18707,0.08784
5874.11554,0.08183
5876.04400,0.07769
5877.97247,0.08428
5879.90094,0.07845
5881.82941,0.05265
5883.75788,0.04690
5885.68635,0.07391
5887.61482,0.10914
5889.54329,0.11077
5891.47175,0.06736
5893.40022,0.02858
5895.32869,0.02741
5897.25716,0.05701
5899.18563,0.09588
5901.11410,0.12270
5903.04257,0.14002
5904.97103,0.15117
5906.89950,0.14094
5908.82797,0.10762
5910.75644,0.08113
5912.68491,0.07131
5914.61338,0.07187
5916.54185,0.09664
5918.47032,0.12804
5920.39878,0.13768
5922.32725,0.13852
5924.25572,0.12993
5926.18419,0.10297
5928.11266,0.09229
5930.04113,0.10897
5931.96960,0.11653
5933.89806,0.11202
5935.82653,0.11415
5937.75500,0.12791
5939.68347,0.12760
5941.61194,0.07959
5943.54041,0.03605
5945.46888,0.04888
5947.39734,0.08242
5949.32581,0.11422
5951.25428,0.14864
5953.18275,0.17731
5955.11122,0.17718
5957.03969,0.13733
5958.96816,0.08578
5960.89663,0.05676
5962.82509,0.05846
5964.75356,0.08083
5966.68203,0.10409
5968.61050,0.12131
5970.53897,0.14123
5972.46744,0.14936
5974.39591,0.11461
5976.32437,0.04924
5978.25284,0.00891
5980.18131,0.02432
5982.10978,0.07074
5984.03825,0.10926
5985.96672,0.12151
5987.89519,0.10058
5989.82366,0.06123
5991.75212,0.03850
5993.68059,0.04663
5995.60906,0.06879
5997.53753,0.08665
5999.46600,0.09644
6001.39447,0.08140
6003.32294,0.03982
6005.25140,0.02000
6007.17987,0.04449
6009.10834,0.07751
6011.03681,0.08834
6012.96528,0.09206
6014.89375,0.11488
6016.82222,0.12328
6018.75069,0.07768
6020.67915,0.02094
6022.60762,-0.00404
6024.53609,0.00460
6026.46456,0.05121
6028.39303,0.10503
6030.32150,0.10621
6032.24997,0.07472
6034.17843,0.08075
6036.10690,0.11627
6038.03537,0.12887
6039.96384,0.11882
6041.89231,0.08349
6043.82078,0.02844
6045.74925,0.00822
6047.67772,0.03100
6049.60618,0.05405
6051.53465,0.07379
6053.46312,0.11662
6055.39159,0.16878
6057.32006,0.20058
6059.24853,0.20769
6061.17700,0.19103
6063.10546,0.15596
6065.03393,0.12406
6066.96240,0.11220
6068.89087,0.10426
6070.81934,0.08829
6072.74781,0.08245
6074.67628,0.07812
6076.60475,0.05329
6078.53321,0.02845
6080.46168,0.03353
6082.39015,0.07015
6084.31862,0.11128
6086.24709,0.10764
6088.17556,0.05514
6090.10403,0.02687
6092.03249,0.06462
6093.96096,0.12397
6095.88943,0.13686
6097.81790,0.08571
6099.74637,0.02396
6101.67484,0.01266
6103.60331,0.04416
6105.53177,0.08569
6107.46024,0.11543
6109.38871,0.12902
6111.31718,0.12957
6113.24565,0.10460
6115.17412,0.08972
6117.10259,0.11990
6119.03106,0.13237
6120.95952,0.07703
6122.88799,0.01594
6124.81646,0.00023
6126.74493,0.01397
6128.67340,0.01987
6130.60187,0.03072
6132.53034,0.07218
6134.45880,0.09676
6136.38727,0.06994
6138.31574,0.02762
6140.24421,0.00823
6142.17268,0.01286
6144.10115,0.01933
6146.02962,0.02353
6147.95809,0.04486
6149.88655,0.09048
6151.81502,0.11998
6153.74349,0.09511
6155.67196,0.06663
6157.60043,0.06482
6159.52890,0.03708
6161.45737,0.00480
6163.38583,0.02553
6165.31430,0.05482
6167.24277,0.08917
6169.17124,0.15272
6171.09971,0.18695
6173.02818,0.14587
6174.95665,0.08569
6176.88512,0.08272
6178.81358,0.12909
6180.74205,0.18609
6182.67052,0.20512
6184.59899,0.13741
6186.52746,0.03638
6188.45593,-0.00634
6190.38440,0.01209
6192.31286,0.05834
6194.24133,0.10099
6196.16980,0.10422
6198.09827,0.10222
6200.02674,0.12462
6201.95521,0.13317
6203.88368,0.12198
6205.81215,0.11126
6207.74061,0.08708
6209.66908,0.05561
6211.59755,0.05954
6213.52602,0.08355
6215.45449,0.07909
6217.38296,0.05355
6219.31143,0.03824
6221.23989,0.02193
6223.16836,0.01244
6225.09683,0.05084
6227.02530,0.09511
6228.95377,0.10894
6230.88224,0.12220
6232.81071,0.11051
6234.73918,0.07129
6236.66764,0.05680
6238.59611,0.06794
6240.52458,0.08617
6242.45305,0.09607
6244.38152,0.08123
6246.30999,0.05577
6248.23846,0.04039
6250.16692,0.03053
6252.09539,-0.00339
6254.02386,-0.03752
6255.95233,-0.02208
6257.88080,-0.00261
6259.80927,-0.00074
6261.73774,0.03088
6263.66621,0.05202
6265.59467,0.02822
6267.52314,0.04232
6269.45161,0.09115
6271.38008,0.09556
6273.30855,0.06565
6275.23702,0.06572
6277.16549,0.10565
6279.09395,0.12225
6281.02242,0.10051
6282.95089,0.08410
6284.87936,0.07302
6286.80783,0.05038
6288.73630,0.02095
6290.66477,-0.01114
6292.59323,-0.01785
6294.52170,0.02608
6296.45017,0.10402
6298.37864,0.15868
6300.30711,0.13850
6302.23558,0.08094
6304.16405,0.05699
6306.09252,0.05034
6308.02098,0.03273
6309.94945,0.01965
6311.87792,0.01758
6313.80639,0.00491
6315.73486,-0.01833
6317.66333,-0.03220
6319.59180,-0.00764
6321.52026,0.06264
6323.44873,0.12194
6325.37720,0.12202
6327.30567,0.06532
6329.23414,-0.02018
6331.16261,-0.08078
6333.09108,-0.06724
6335.01955,0.00505
6336.94801,0.05110
6338.87648,0.03414
6340.80495,0.02721
6342.73342,0.08001
6344.66189,0.14513
6346.59036,0.16965
6348.51883,0.12568
6350.44729,0.02569
6352.37576,-0.02983
6354.30423,-0.00072
6356.23270,0.03645
6358.16117,0.05878
6360.08964,0.09671
6362.01811,0.14679
6363.94658,0.17199
6365.87504,0.14689
6367.80351,0.11846
6369.73198,0.13057
6371.66045,0.14035
6373.58892,0.10051
6375.51739,0.03689
6377.44586,0.00376
6379.37432,0.02081
6381.30279,0.06861
6383.23126,0.09833
6385.15973,0.10754
6387.08820,0.13928
6389.01667,0.16191
6390.94514,0.13291
6392.87361,0.09804
6394.80207,0.10697
6396.73054,0.11729
6398.65901,0.11029
6400.58748,0.08734
6402.51595,0.04255
6404.44442,0.02875
6406.37289,0.08143
6408.30135,0.11840
6410.22982,0.07959
6412.15829,0.04953
6414.08676,0.07364
6416.01523,0.06735
6417.94370,0.01648
6419.87217,0.00415
6421.80064,0.01215
6423.72910,0.00806
6425.65757,0.01200
6427.58604,0.01605
6429.51451,0.02964
6431.44298,0.05300
6433.37145,0.07638
6435.29992,0.11263
6437.22838,0.09821
6439.15685,0.02835
6441.08532,0.03369
6443.01379,0.11960
6444.94226,0.17717
6446.87073,0.17182
6448.79920,0.14666
6450.72766,0.13870
6452.65613,0.13096
6454.58460,0.10359
6456.51307,0.05366
6458.44154,0.01111
6460.37001,0.01350
6462.29848,0.03254
6464.22695,0.06056
6466.15541,0.07960
6468.08388,0.03247
6470.01235,-0.02555
6471.94082,-0.01073
6473.86929,0.01448
6475.79776,-0.01604
6477.72623,-0.04111
6479.65469,-0.02305
6481.58316,-0.01571
6483.51163,-0.01791
6485.44010,0.00030
6487.36857,0.01235
6489.29704,-0.00152
6491.22551,-0.00036
6493.15398,0.03100
6495.08244,0.02729
6497.01091,-0.00067
6498.93938,0.02868
6500.86785,0.10297
6502.79632,0.18245
6504.72479,0.28267
6506.65326,0.33580
6508.58172,0.26661
6510.51019,0.13471
6512.43866,0.05994
6514.36713,0.07050
6516.29560,0.08989
6518.22407,0.10327
6520.15254,0.11546
6522.08101,0.05840
6524.00947,-0.04164
6525.93794,-0.04469
6527.86641,0.01618
6529.79488,0.03285
6531.72335,0.05863
6533.65182,0.14032
6535.58029,0.19310
6537.50875,0.16316
6539.43722,0.10848
6541.36569,0.07538
6543.29416,0.04839
6545.22263,0.00843
6547.15110,-0.01571
6549.07957,0.02102
6551.00804,0.08811
6552.93650,0.13447
6554.86497,0.13198
6556.79344,0.04776
6558.72191,-0.05168
6560.65038,-0.08101
6562.57885,-0.04915
6564.50732,-0.01041
6566.43578,0.03387
6568.36425,0.10623
6570.29272,0.12363
6572.22119,0.07142
6574.14966,0.06711
6576.07813,0.11666
6578.00660,0.13945
6579.93507,0.12883
6581.86353,0.10513
6583.79200,0.06522
6585.72047,0.05306
6587.64894,0.09083
6589.57741,0.14474
6591.50588,0.17854
6593.43435,0.14001
6595.36281,0.03802
6597.29128,-0.02368
6599.21975,-0.03094
6601.14822,-0.01504
6603.07669,0.02158
6605.00516,0.02075
6606.93363,-0.02724
6608.86210,-0.02584
6610.79056,0.02411
6612.71903,0.05035
6614.64750,0.05119
6616.57597,0.04053
6618.50444,0.02936
6620.43291,0.03066
6622.36138,0.02536
6624.28984,-0.00797
6626.21831,-0.03311
6628.14678,-0.03507
6630.07525,-0.06905
6632.00372,-0.14585
6633.93219,-0.21666
6635.86066,-0.20690
6637.78912,-0.11629
6639.71759,-0.04016
6641.64606,0.01230
6643.57453,0.05355
6645.50300,0.10008
6647.43147,0.13229
6649.35994,0.12768
6651.28841,0.15170
6653.21687,0.18888
6655.14534,0.17624
6657.07381,0.12287
6659.00228,0.04740
6660.93075,-0.01837
6662.85922,-0.01589
6664.78769,0.04151
6666.71615,0.07106
6668.64462,0.03025
6670.57309,-0.02199
6672.50156,-0.00927
6674.43003,0.06353
6676.35850,0.13267
6678.28697,0.12950
6680.21544,0.04386
6682.14390,-0.04374
6684.07237,-0.07725
6686.00084,-0.05528
6687.92931,0.00310
6689.85778,0.04650
6691.78625,0.04619
6693.71472,0.02591
6695.64318,0.00436
6697.57165,-0.02181
6699.50012,-0.06391
6701.42859,-0.10764
6703.35706,-0.09486
6705.28553,0.00865
6707.21400,0.12939
6709.14247,0.18233
6711.07093,0.17420
6712.99940,0.12872
6714.92787,0.05926
6716.85634,0.00761
6718.78481,0.00780
6720.71328,0.02579
6722.64175,0.01167
6724.57021,-0.02059
6726.49868,-0.02602
6728.42715,0.01813
6730.35562,0.06509
6732.28409,0.05550
6734.21256,-0.00291
6736.14103,-0.04800
6738.06950,0.00364
6739.99796,0.11329
6741.92643,0.17805
6743.85490,0.18145
6745.78337,0.15281
6747.71184,0.11796
6749.64031,0.08321
6751.56878,0.04192
6753.49724,0.02883
6755.42571,0.03891
6757.35418,0.02160
6759.28265,-0.01403
6761.21112,-0.00851
6763.13959,0.04318
6765.06806,0.08769
6766.99653,0.10951
6768.92499,0.12066
6770.85346,0.12022
6772.78193,0.10016
6774.71040,0.04607
6776.63887,0.00999
6778.56734,0.04196
6780.49581,0.09370
6782.42427,0.13305
6784.35274,0.13343
6786.28121,0.08283
6788.20968,0.03394
6790.13815,0.01542
6792.06662,0.01475
6793.99509,0.04388
6795.92355,0.08295
6797.85202,0.10752
6799.78049,0.16281
6801.70896,0.24934
6803.63743,0.27796
6805.56590,0.22088
6807.49437,0.15064
6809.42284,0.09844
6811.35130,0.05452
6813.27977,0.04332
6815.20824,0.07061
6817.13671,0.07618
6819.06518,0.03678
6820.99365,0.01058
6822.92212,0.03227
6824.85058,0.08101
6826.77905,0.12538
6828.70752,0.14164
6830.63599,0.13085
6832.56446,0.11204
6834.49293,0.09863
6836.42140,0.10152
6838.34987,0.09014
6840.27833,0.05552
6842.20680,0.02224
6844.13527,-0.02821
6846.06374,-0.06358
6847.99221,-0.03538
6849.92068,-0.00841
6851.84915,0.03317
6853.77761,0.16749
6855.70608,0.27269
6857.63455,0.21187
6859.56302,0.14507
6861.49149,0.20537
6863.41996,0.26324
6865.34843,0.18504
6867.27690,0.05745
6869.20536,0.01040
6871.13383,0.02832
6873.06230,0.05265
6874.99077,0.03744
6876.91924,0.01446
6878.84771,0.08023
6880.77618,0.18393
6882.70464,0.17604
6884.63311,0.09197
6886.56158,0.03802
6888.49005,0.05211
6890.41852,0.11551
6892.34699,0.15233
6894.27546,0.08521
6896.20393,-0.03410
6898.13239,-0.04492
6900.06086,0.05851
6901.98933,0.11526
6903.91780,0.07815
6905.84627,0.03716
6907.77474,0.08917
6909.70321,0.16908
6911.63167,0.16906
6913.56014,0.10484
6915.48861,0.07588
6917.41708,0.10312
6919.34555,0.11276
6921.27402,0.06684
6923.20249,0.00656
6925.13096,-0.01081
6927.05942,0.04118
6928.98789,0.08062
6930.91636,0.01431
6932.84483,-0.07706
6934.77330,-0.06873
6936.70177,0.00205
6938.63024,0.03549
6940.55870,0.03586
6942.48717,0.08963
6944.41564,0.14238
6946.34411,0.14695
6948.27258,0.12947
6950.20105,0.09663
6952.12952,0.02746
6954.05799,-0.05906
6955.98645,-0.09084
6957.91492,-0.05952
6959.84339,0.02150
6961.77186,0.14250
6963.70033,0.22819
6965.62880,0.23302
6967.55727,0.16173
6969.48573,0.05716
6971.41420,0.03367
6973.34267,0.13293
6975.27114,0.14505
6977.19961,0.01540
6979.12808,-0.03967
6981.05655,-0.00429
6982.98501,-0.00399
6984.91348,-0.05560
6986.84195,-0.08474
6988.77042,-0.04329
6990.69889,0.04928
6992.62736,0.11278
6994.55583,0.13099
6996.48430,0.13830
6998.41276,0.18673
7000.34123,0.26722
7002.26970,0.25086
7004.19817,0.14080
7006.12664,0.04199
7008.05511,0.03710
7009.98358,0.09397
7011.91204,0.10815
7013.84051,0.08814
7015.76898,0.11827
7017.69745,0.16118
7019.62592,0.14964
7021.55439,0.07822
7023.48286,0.01232
7025.41133,0.07749
7027.33979,0.21179
7029.26826,0.20421
7031.19673,0.08377
7033.12520,-0.01472
7035.05367,-0.04903
7036.98214,-0.03909
7038.91061,-0.05321
7040.83907,-0.07606
7042.76754,-0.02348
7044.69601,0.06103
7046.62448,0.07777
7048.55295,0.06355
7050.48142,0.00994
7052.40989,-0.07015
7054.33836,-0.08290
7056.26682,-0.05593
7058.19529,-0.08567
7060.12376,-0.12774
7062.05223,-0.05438
7063.98070,0.07090
7065.90917,0.13396
7067.83764,0.19063
7069.76610,0.19672
7071.69457,0.12498
7073.62304,0.08510
7075.55151,0.06318
7077.47998,0.03170
7079.40845,0.00382
7081.33692,0.02243
7083.26539,0.10800
7085.19385,0.12245
7087.12232,-0.01592
7089.05079,-0.09643
7090.97926,-0.01284
7092.90773,0.01847
7094.83620,-0.04912
7096.76467,-0.12189
7098.69313,-0.15711
7100.62160,-0.11683
7102.55007,-0.07484
7104.47854,-0.06111
7106.40701,-0.00493
7108.33548,0.06044
7110.26395,0.11344
7112.19242,0.19414
7114.12088,0.25674
7116.04935,0.25588
7117.97782,0.18565
7119.90629,0.12671
7121.83476,0.14157
7123.76323,0.13422
7125.69170,0.11485
7127.62016,0.17832
7129.54863,0.20583
7131.47710,0.12943
7133.40557,0.06139
7135.33404,0.07027
7137.26251,0.09632
7139.19098,0.06138
7141.11944,-0.03329
7143.04791,-0.08932
7144.97638,-0.01921
7146.90485,0.11352
7148.83332,0.17145
7150.76179,0.16630
7152.69026,0.13199
7154.61873,0.03925
7156.54719,-0.11284
7158.47566,-0.24343
7160.40413,-0.26223
7162.33260,-0.25313
7164.26107,-0.26751
7166.18954,-0.12872
7168.11801,0.11506
7170.04647,0.16021
7171.97494,0.01048
7173.90341,-0.18015
7175.83188,-0.35720
7177.76035,-0.38934
7179.68882,-0.21978
7181.61729,-0.01877
7183.54576,-0.00732
7185.47422,-0.16516
7187.40269,-0.32094
7189.33116,-0.28666
7191.25963,-0.02606
7193.18810,0.15456
7195.11657,0.17042
7197.04504,0.16480
7198.97350,0.13503
7200.90197,0.08088
7202.83044,0.04022
7204.75891,-0.01276
7206.68738,-0.06220
7208.61585,-0.03570
7210.54432,0.00377
7212.47279,0.02656
7214.40125,0.07926
7216.32972,0.14818
7218.25819,0.21082
7220.18666,0.26406
7222.11513,0.26562
7224.04360,0.21608
7225.97207,0.13742
7227.90053,0.09355
7229.82900,0.14367
7231.75747,0.16026
7233.68594,0.12423
7235.61441,0.20838
7237.54288,0.31303
7239.47135,0.32812
7241.39982,0.38787
7243.32828,0.42164
7245.25675,0.20934
7247.18522,-0.06441
7249.11369,-0.21653
7251.04216,-0.26782
7252.97063,-0.22516
7254.89910,-0.10479
7256.82756,-0.05089
7258.75603,-0.01762
7260.68450,0.01654
7262.61297,-0.09256
7264.54144,-0.24722
7266.46991,-0.20202
7268.39838,-0.01446
7270.32685,0.09023
7272.25531,0.03901
7274.18378,0.01897
7276.11225,0.04614
7278.04072,0.07830
7279.96919,0.07413
7281.89766,0.06024
7283.82613,0.13917
7285.75459,0.21655
7287.68306,0.23669
7289.61153,0.22083
7291.54000,0.15440
7293.46847,0.07463
7295.39694,0.06421
7297.32541,0.10790
7299.25387,0.09761
7301.18234,0.04239
7303.11081,0.03356
7305.03928,0.09866
7306.96775,0.18034
7308.89622,0.18855
7310.82469,0.08753
7312.75316,-0.01800
7314.68162,-0.07010
7316.61009,-0.12489
7318.53856,-0.17893
7320.46703,-0.19101
7322.39550,-0.19387
7324.32397,-0.17938
7326.25244,-0.17907
7328.18090,-0.18377
7330.10937,-0.12040
7332.03784,-0.09058
7333.96631,-0.11234
7335.89478,-0.09633
7337.82325,0.00958
7339.75172,0.22826
7341.68019,0.28173
7343.60865,0.16809
7345.53712,0.12745
7347.46559,0.10660
7349.39406,0.01464
7351.32253,-0.02733
7353.25100,0.00421
7355.17947,0.01157
7357.10793,0.01624
7359.03640,-0.01760
7360.96487,-0.05315
7362.89334,0.13374
7364.82181,0.29897
7366.75028,0.22500
7368.67875,0.12948
7370.60722,0.13251
7372.53568,0.20335
7374.46415,0.36281
7376.39262,0.50486
7378.32109,0.49675
7380.24956,0.41974
7382.17803,0.31579
7384.10650,0.19791
7386.03496,0.08005
7387.96343,-0.07843
7389.89190,-0.27421
7391.82037,-0.42052
7393.74884,-0.45802
7395.67731,-0.34955
7397.60578,-0.17149
7399.53425,-0.08074
7401.46271,-0.10111
7403.39118,-0.14450
7405.31965,-0.10148
7407.24812,0.01743
7409.17659,0.13028
7411.10506,0.17466
7413.03353,0.14029
7414.96199,0.12324
7416.89046,0.20194
7418.81893,0.30526
7420.74740,0.34400
7422.67587,0.34044
7424.60434,0.30326
7426.53281,0.32157
7428.46128,0.32489
7430.38974,0.10165
7432.31821,-0.08490
7434.24668,-0.02387
7436.17515,0.10345
7438.10362,0.13310
7440.03209,0.02577
7441.96056,-0.01887
7443.88902,0.15928
7445.81749,0.37972
7447.74596,0.39953
7449.67443,0.19618
7451.60290,-0.00576
7453.53137,-0.06100
7455.45984,-0.05089
7457.38831,-0.07155
7459.31677,-0.12017
7461.24524,-0.01952
7463.17371,0.22159
7465.10218,0.35572
7467.03065,0.19965
7468.95912,-0.04262
7470.88759,-0.11473
7472.81605,-0.09253
7474.74452,-0.03666
7476.67299,0.19081
7478.60146,0.45350
7480.52993,0.42684
7482.45840,0.17810
7484.38687,0.09008
7486.31533,0.14876
7488.24380,0.05581
7490.17227,-0.11292
7492.10074,-0.05336
7494.02921,0.08915
7495.95768,0.15375
7497.88615,0.18362
