399.19301,1.87032
401.12148,0.24750
403.04995,0.08361
404.97842,0.22390
406.90689,0.29215
408.83536,0.20263
410.76382,0.05099
412.69229,-0.06791
414.62076,-0.14745
416.54923,-0.19911
418.47770,-0.15116
420.40617,-0.01130
422.33464,0.04034
424.26311,0.03765
426.19157,0.04738
428.12004,0.06846
430.04851,0.08855
431.97698,0.05600
433.90545,-0.02232
435.83392,-0.04358
437.76239,0.00914
439.69085,0.04984
441.61932,0.00255
443.54779,-0.09399
445.47626,-0.12126
447.40473,-0.05126
449.33320,0.05224
451.26167,0.09761
453.19013,0.05978
455.11860,-0.00246
457.04707,-0.01405
458.97554,0.03997
460.90401,0.09344
462.83248,0.08456
464.76095,0.03657
466.68942,0.02000
468.61788,0.04512
470.54635,0.10868
472.47482,0.20191
474.40329,0.23969
476.33176,0.18325
478.26023,0.11309
480.18870,0.07165
482.11716,0.07855
484.04563,0.11899
485.97410,0.16877
487.90257,0.17462
489.83104,0.11581
491.75951,0.06454
493.68798,0.04746
495.61645,0.05270
497.54491,0.10063
499.47338,0.15220
501.40185,0.14750
503.33032,0.10865
505.25879,0.10033
507.18726,0.13438
509.11573,0.16171
511.04419,0.16103
512.97266,0.15429
514.90113,0.13954
516.82960,0.11550
518.75807,0.11229
520.68654,0.13513
522.61501,0.15915
524.54348,0.17630
526.47194,0.16480
528.40041,0.12472
530.32888,0.10582
532.25735,0.10490
534.18582,0.09364
536.11429,0.09186
538.04276,0.11301
539.97122,0.12069
541.89969,0.09570
543.82816,0.07326
545.75663,0.08199
547.68510,0.11243
549.61357,0.10733
551.54204,0.01087
553.47051,-0.07348
555.39897,-0.02119
557.32744,0.07356
559.25591,0.09014
561.18438,0.07189
563.11285,0.06223
565.04132,0.06533
566.96979,0.09034
568.89825,0.11397
570.82672,0.12333
572.75519,0.14488
574.68366,0.15676
576.61213,0.11679
578.54060,0.07741
580.46907,0.08181
582.39754,0.09194
584.32600,0.09211
586.25447,0.10161
588.18294,0.11315
590.11141,0.12472
592.03988,0.13928
593.96835,0.13878
595.89682,0.12587
597.82528,0.10498
599.75375,0.07972
601.68222,0.07340
603.61069,0.08588
605.53916,0.10398
607.46763,0.12546
609.39610,0.13813
611.32456,0.13471
613.25303,0.12454
615.18150,0.12181
617.10997,0.12982
619.03844,0.12421
620.96691,0.09049
622.89538,0.06985
624.82385,0.08368
626.75231,0.09710
628.68078,0.09843
630.60925,0.10980
632.53772,0.13698
634.46619,0.15589
636.39466,0.15429
638.32313,0.14826
640.25159,0.14164
642.18006,0.12749
644.10853,0.10629
646.03700,0.09509
647.96547,0.10428
649.89394,0.10597
651.82241,0.08500
653.75088,0.07172
655.67934,0.08390
657.60781,0.09481
659.53628,0.08969
661.46475,0.09002
663.39322,0.09111
665.32169,0.06523
667.25016,0.02419
669.17862,0.05401
671.10709,0.10954
673.03556,0.11885
674.96403,0.11472
676.89250,0.10691
678.82097,0.09606
680.74944,0.09718
682.67791,0.09784
684.60637,0.08900
686.53484,0.08929
688.46331,0.10290
690.39178,0.10975
692.32025,0.10287
694.24872,0.09626
696.17719,0.09764
698.10565,0.10453
700.03412,0.11541
701.96259,0.12511
703.89106,0.12475
705.81953,0.12011
707.74800,0.12560
709.67647,0.13713
711.60494,0.13815
713.53340,0.12505
715.46187,0.11228
717.39034,0.11164
719.31881,0.11562
721.24728,0.11134
723.17575,0.10650
725.10422,0.10820
727.03268,0.11027
728.96115,0.11618
730.88962,0.12369
732.81809,0.12828
734.74656,0.13411
736.67503,0.13787
738.60350,0.13605
740.53197,0.12682
742.46043,0.11658
744.38890,0.11792
746.31737,0.12227
748.24584,0.11633
750.17431,0.11496
752.10278,0.13276
754.03125,0.15285
755.95971,0.15740
757.88818,0.15022
759.81665,0.14287
761.74512,0.14031
763.67359,0.14188
765.60206,0.14469
767.53053,0.14127
769.45900,0.13600
771.38746,0.13801
773.31593,0.13910
775.24440,0.13733
777.17287,0.13915
779.10134,0.13614
781.02981,0.12416
782.95828,0.11788
784.88674,0.12284
786.81521,0.12384
788.74368,0.11161
790.67215,0.09999
792.60062,0.10633
794.52909,0.12300
796.45756,0.12842
798.38602,0.12077
800.31449,0.11374
802.24296,0.11826
804.17143,0.12314
806.09990,0.11556
808.02837,0.11532
809.95684,0.12898
811.88531,0.13229
813.81377,0.12480
815.74224,0.12420
817.67071,0.12744
819.59918,0.12492
821.52765,0.12445
823.45612,0.12791
825.38459,0.12943
827.31305,0.13531
829.24152,0.13775
831.16999,0.12556
833.09846,0.11471
835.02693,0.11875
836.95540,0.12701
838.88387,0.13250
840.81234,0.13534
842.74080,0.12851
844.66927,0.11588
846.59774,0.10853
848.52621,0.11013
850.45468,0.11526
852.38315,0.11514
854.31162,0.11330
856.24008,0.11344
858.16855,0.11666
860.09702,0.12424
862.02549,0.13073
863.95396,0.13131
865.88243,0.13841
867.81090,0.16943
869.73937,0.20489
871.66783,0.21028
873.59630,0.17778
875.52477,0.13720
877.45324,0.12643
879.38171,0.13327
881.31018,0.13249
883.23865,0.12717
885.16711,0.12483
887.09558,0.12743
889.02405,0.13413
890.95252,0.14071
892.88099,0.13564
894.80946,0.12383
896.73793,0.12463
898.66640,0.13548
900.59486,0.14479
902.52333,0.14828
904.45180,0.14551
906.38027,0.13732
908.30874,0.12673
910.23721,0.12257
912.16568,0.12903
914.09414,0.13873
916.02261,0.13929
917.95108,0.13241
919.87955,0.12878
921.80802,0.12564
923.73649,0.12459
925.66496,0.13314
927.59343,0.14287
929.52189,0.14321
931.45036,0.13653
933.37883,0.13035
935.30730,0.12831
937.23577,0.12850
939.16424,0.12912
941.09271,0.13072
943.02117,0.13244
944.94964,0.13640
946.87811,0.14241
948.80658,0.14344
950.73505,0.14127
952.66352,0.14087
954.59199,0.13918
956.52045,0.13452
958.44892,0.13264
960.37739,0.13723
962.30586,0.14226
964.23433,0.14459
966.16280,0.14656
968.09127,0.14541
970.01974,0.14253
971.94820,0.14143
973.87667,0.13856
975.80514,0.13671
977.73361,0.13997
979.66208,0.14265
981.59055,0.14304
983.51902,0.14471
985.44748,0.14529
987.37595,0.14326
989.30442,0.14254
991.23289,0.14527
993.16136,0.15125
995.08983,0.15728
997.01830,0.15890
998.94677,0.15336
1000.87523,0.14338
1002.80370,0.14021
1004.73217,0.14476
1006.66064,0.14477
1008.58911,0.13731
1010.51758,0.12898
1012.44605,0.12639
1014.37451,0.13332
1016.30298,0.14291
1018.23145,0.14670
1020.15992,0.14535
1022.08839,0.14458
1024.01686,0.15220
1025.94533,0.16000
1027.87380,0.15805
1029.80226,0.15526
1031.73073,0.15130
1033.65920,0.14188
1035.58767,0.13988
1037.51614,0.14813
1039.44461,0.14987
1041.37308,0.14317
1043.30154,0.14069
1045.23001,0.14527
1047.15848,0.15264
1049.08695,0.15516
1051.01542,0.15070
1052.94389,0.14930
1054.87236,0.15519
1056.80083,0.15490
1058.72929,0.14344
1060.65776,0.14194
1062.58623,0.15617
1064.51470,0.16609
1066.44317,0.16735
1068.37164,0.16569
1070.30011,0.16009
1072.22857,0.15655
1074.15704,0.15732
1076.08551,0.15418
1078.01398,0.14735
1079.94245,0.14480
1081.87092,0.14787
1083.79939,0.15168
1085.72786,0.15206
1087.65632,0.14713
1089.58479,0.14031
1091.51326,0.13823
1093.44173,0.14257
1095.37020,0.15098
1097.29867,0.15586
1099.22714,0.15279
1101.15560,0.15179
1103.08407,0.15551
1105.01254,0.15362
1106.94101,0.14850
1108.86948,0.15066
1110.79795,0.15722
1112.72642,0.16020
1114.65489,0.16052
1116.58335,0.15690
1118.51182,0.14995
1120.44029,0.14923
1122.36876,0.15232
1124.29723,0.14973
1126.22570,0.14550
1128.15417,0.14676
1130.08263,0.14931
1132.01110,0.14751
1133.93957,0.14692
1135.86804,0.15317
1137.79651,0.15902
1139.72498,0.15882
1141.65345,0.15787
1143.58191,0.15664
1145.51038,0.15207
1147.43885,0.14965
1149.36732,0.15100
1151.29579,0.15185
1153.22426,0.15217
1155.15273,0.15339
1157.08120,0.15802
1159.00966,0.16414
1160.93813,0.16681
1162.86660,0.16810
1164.79507,0.16819
1166.72354,0.16384
1168.65201,0.15818
1170.58048,0.15602
1172.50894,0.15785
1174.43741,0.16226
1176.36588,0.16731
1178.29435,0.16867
1180.22282,0.16283
1182.15129,0.15424
1184.07976,0.14971
1186.00823,0.15111
1187.93669,0.15722
1189.86516,0.16327
1191.79363,0.16480
1193.72210,0.16321
1195.65057,0.16175
1197.57904,0.15893
1199.50751,0.15333
1201.43597,0.15175
1203.36444,0.15808
1205.29291,0.16528
1207.22138,0.16834
1209.14985,0.16873
1211.07832,0.16733
1213.00679,0.16530
1214.93526,0.16372
1216.86372,0.16227
1218.79219,0.16173
1220.72066,0.16152
1222.64913,0.15907
1224.57760,0.15514
1226.50607,0.15375
1228.43454,0.15672
1230.36300,0.16120
1232.29147,0.16208
1234.21994,0.15814
1236.14841,0.15460
1238.07688,0.15527
1240.00535,0.15859
1241.93382,0.16234
1243.86229,0.16372
1245.79075,0.16185
1247.71922,0.16126
1249.64769,0.16336
1251.57616,0.16411
1253.50463,0.16241
1255.43310,0.16130
1257.36157,0.16175
1259.29003,0.16111
1261.21850,0.15937
1263.14697,0.15897
1265.07544,0.15839
1267.00391,0.15550
1268.93238,0.15502
1270.86085,0.16146
1272.78932,0.16592
1274.71778,0.16109
1276.64625,0.15716
1278.57472,0.16036
1280.50319,0.16199
1282.43166,0.15923
1284.36013,0.15794
1286.28860,0.15832
1288.21706,0.15949
1290.14553,0.16205
1292.07400,0.16366
1294.00247,0.16259
1295.93094,0.15938
1297.85941,0.15734
1299.78788,0.15430
1301.71634,0.14030
1303.64481,0.12076
1305.57328,0.12083
1307.50175,0.14521
1309.43022,0.16831
1311.35869,0.17739
1313.28716,0.17690
1315.21563,0.17222
1317.14409,0.17147
1319.07256,0.17124
1321.00103,0.16689
1322.92950,0.16628
1324.85797,0.16589
1326.78644,0.16142
1328.71491,0.16013
1330.64337,0.15772
1332.57184,0.15381
1334.50031,0.15550
1336.42878,0.15966
1338.35725,0.16633
1340.28572,0.16786
1342.21419,0.16207
1344.14266,0.16102
1346.07112,0.16078
1347.99959,0.15978
1349.92806,0.16019
1351.85653,0.15843
1353.78500,0.15827
1355.71347,0.16204
1357.64194,0.16552
1359.57040,0.16822
1361.49887,0.17373
1363.42734,0.17911
1365.35581,0.17780
1367.28428,0.17568
1369.21275,0.17780
1371.14122,0.18079
1373.06969,0.18436
1374.99815,0.18701
1376.92662,0.18352
1378.85509,0.17737
1380.78356,0.17330
1382.71203,0.17349
1384.64050,0.17924
1386.56897,0.18699
1388.49743,0.18856
1390.42590,0.18620
1392.35437,0.18834
1394.28284,0.19403
1396.21131,0.19575
1398.13978,0.19213
1400.06825,0.18582
1401.99672,0.18118
1403.92518,0.18069
1405.85365,0.18042
1407.78212,0.18020
1409.71059,0.18243
1411.63906,0.18353
1413.56753,0.18294
1415.49600,0.18677
1417.42446,0.19689
1419.35293,0.20004
1421.28140,0.19365
1423.20987,0.18985
1425.13834,0.18422
1427.06681,0.17908
1428.99528,0.18029
1430.92375,0.18204
1432.85221,0.18323
1434.78068,0.19089
1436.70915,0.20078
1438.63762,0.19960
1440.56609,0.19266
1442.49456,0.18654
1444.42303,0.18545
1446.35149,0.19077
1448.27996,0.19292
1450.20843,0.18827
1452.13690,0.18799
1454.06537,0.19744
1455.99384,0.21639
1457.92231,0.22215
1459.85077,0.20205
1461.77924,0.19179
1463.70771,0.19597
1465.63618,0.19774
1467.56465,0.19073
1469.49312,0.19255
1471.42159,0.20783
1473.35006,0.21725
1475.27852,0.20894
1477.20699,0.19762
1479.13546,0.19155
1481.06393,0.19259
1482.99240,0.19572
1484.92087,0.20005
1486.84934,0.21087
1488.77780,0.22363
1490.70627,0.21867
1492.63474,0.20543
1494.56321,0.20347
1496.49168,0.21135
1498.42015,0.21460
1500.34862,0.20788
1502.27709,0.20355
1504.20555,0.21519
1506.13402,0.25055
1508.06249,0.25830
1509.99096,0.22837
1511.91943,0.21075
1513.84790,0.21255
1515.77637,0.22929
1517.70483,0.24219
1519.63330,0.24628
1521.56177,0.24945
1523.49024,0.24074
1525.41871,0.22867
1527.34718,0.21918
1529.27565,0.21099
1531.20412,0.21169
1533.13258,0.21935
1535.06105,0.22101
1536.98952,0.22899
1538.91799,0.25683
1540.84646,0.27566
1542.77493,0.25829
1544.70340,0.23243
1546.63186,0.21003
1548.56033,0.20421
1550.48880,0.20952
1552.41727,0.21419
1554.34574,0.22113
1556.27421,0.23975
1558.20268,0.27146
1560.13115,0.25597
1562.05961,0.22196
1563.98808,0.20856
1565.91655,0.20603
1567.84502,0.20983
1569.77349,0.21275
1571.70196,0.20803
1573.63043,0.20651
1575.55889,0.21024
1577.48736,0.20507
1579.41583,0.19418
1581.34430,0.18907
1583.27277,0.18976
1585.20124,0.19129
1587.12971,0.18983
1589.05818,0.18626
1590.98664,0.18425
1592.91511,0.18642
1594.84358,0.18959
1596.77205,0.18862
1598.70052,0.18580
1600.62899,0.18563
1602.55746,0.18674
1604.48592,0.18621
1606.41439,0.18697
1608.34286,0.19137
1610.27133,0.19448
1612.19980,0.19408
1614.12827,0.19637
1616.05674,0.20452
1617.98521,0.20633
1619.91367,0.20430
1621.84214,0.21121
1623.77061,0.21715
1625.69908,0.21227
1627.62755,0.20631
1629.55602,0.20286
1631.48449,0.20509
1633.41295,0.21829
1635.34142,0.23803
1637.26989,0.23401
1639.19836,0.21589
1641.12683,0.20655
1643.05530,0.21007
1644.98377,0.22745
1646.91223,0.24540
1648.84070,0.24424
1650.76917,0.25033
1652.69764,0.26950
1654.62611,0.24519
1656.55458,0.21200
1658.48305,0.20159
1660.41152,0.20501
1662.33998,0.20860
1664.26845,0.20465
1666.19692,0.20730
1668.12539,0.22378
1670.05386,0.23546
1671.98233,0.22611
1673.91080,0.21633
1675.83926,0.21222
1677.76773,0.21145
1679.69620,0.21674
1681.62467,0.23371
1683.55314,0.25857
1685.48161,0.25178
1687.41008,0.22845
1689.33855,0.21442
1691.26701,0.20752
1693.19548,0.21172
1695.12395,0.22956
1697.05242,0.25137
1698.98089,0.26119
1700.90936,0.24769
1702.83783,0.22843
1704.76629,0.22127
1706.69476,0.21652
1708.62323,0.20904
1710.55170,0.20514
1712.48017,0.21016
1714.40864,0.22566
1716.33711,0.24153
1718.26558,0.23081
1720.19404,0.20817
1722.12251,0.19740
1724.05098,0.19349
1725.97945,0.19238
1727.90792,0.19870
1729.83639,0.21281
1731.76486,0.22990
1733.69332,0.23871
1735.62179,0.22340
1737.55026,0.20989
1739.47873,0.20910
1741.40720,0.21112
1743.33567,0.20986
1745.26414,0.20849
1747.19261,0.21368
1749.12107,0.22267
1751.04954,0.21738
1752.97801,0.20231
1754.90648,0.19632
1756.83495,0.19923
1758.76342,0.20200
1760.69189,0.20201
1762.62035,0.19852
1764.54882,0.19590
1766.47729,0.20005
1768.40576,0.20867
1770.33423,0.21997
1772.26270,0.22558
1774.19117,0.21691
1776.11964,0.20969
1778.04810,0.20918
1779.97657,0.20920
1781.90504,0.20558
1783.83351,0.20093
1785.76198,0.19692
1787.69045,0.19542
1789.61892,0.20227
1791.54738,0.21507
1793.47585,0.21628
1795.40432,0.20650
1797.33279,0.20184
1799.26126,0.20588
1801.18973,0.20840
1803.11820,0.20120
1805.04666,0.19364
1806.97513,0.19389
1808.90360,0.19857
1810.83207,0.20068
1812.76054,0.19751
1814.68901,0.19232
1816.61748,0.19067
1818.54595,0.19492
1820.47441,0.20024
1822.40288,0.20321
1824.33135,0.20491
1826.25982,0.20635
1828.18829,0.21010
1830.11676,0.21021
1832.04523,0.20062
1833.97369,0.19362
1835.90216,0.19357
1837.83063,0.19325
1839.75910,0.19174
1841.68757,0.19544
1843.61604,0.20228
1845.54451,0.20185
1847.47298,0.19773
1849.40144,0.19560
1851.32991,0.19388
1853.25838,0.19298
1855.18685,0.19271
1857.11532,0.19166
1859.04379,0.19061
1860.97226,0.19135
1862.90072,0.19418
1864.82919,0.19982
1866.75766,0.20849
1868.68613,0.21116
1870.61460,0.20190
1872.54307,0.19373
1874.47154,0.19157
1876.40001,0.19133
1878.32847,0.19098
1880.25694,0.18982
1882.18541,0.18860
1884.11388,0.18919
1886.04235,0.19140
1887.97082,0.19375
1889.89929,0.19429
1891.82775,0.19435
1893.75622,0.19490
1895.68469,0.19295
1897.61316,0.19078
1899.54163,0.19180
1901.47010,0.19357
1903.39857,0.19400
1905.32704,0.19403
1907.25550,0.19545
1909.18397,0.19677
1911.11244,0.19635
1913.04091,0.19657
1914.96938,0.19883
1916.89785,0.20155
1918.82632,0.20208
1920.75478,0.20075
1922.68325,0.19821
1924.61172,0.19420
1926.54019,0.19103
1928.46866,0.18949
1930.39713,0.18967
1932.32560,0.19182
1934.25407,0.19472
1936.18253,0.19664
1938.11100,0.19624
1940.03947,0.19643
1941.96794,0.19899
1943.89641,0.19843
1945.82488,0.19397
1947.75335,0.18977
1949.68181,0.18824
1951.61028,0.19022
1953.53875,0.19174
1955.46722,0.19058
1957.39569,0.18952
1959.32416,0.19058
1961.25263,0.19210
1963.18110,0.19227
1965.10956,0.19298
1967.03803,0.19385
1968.96650,0.19310
1970.89497,0.19361
1972.82344,0.19529
1974.75191,0.19399
1976.68038,0.19045
1978.60884,0.18869
1980.53731,0.18986
1982.46578,0.19275
1984.39425,0.19533
1986.32272,0.19645
1988.25119,0.19655
1990.17966,0.19672
1992.10812,0.19624
1994.03659,0.19420
1995.96506,0.19271
1997.89353,0.19300
1999.82200,0.19404
2001.75047,0.19406
2003.67894,0.19249
2005.60741,0.19081
2007.53587,0.19032
2009.46434,0.19045
2011.39281,0.19018
2013.32128,0.19093
2015.24975,0.19387
2017.17822,0.19600
2019.10669,0.19527
2021.03515,0.19509
2022.96362,0.19637
2024.89209,0.19696
2026.82056,0.19689
2028.74903,0.19596
2030.67750,0.19559
2032.60597,0.19688
2034.53444,0.19666
2036.46290,0.19459
2038.39137,0.19337
2040.31984,0.19299
2042.24831,0.19348
2044.17678,0.19513
2046.10525,0.19579
2048.03372,0.19609
2049.96218,0.19679
2051.89065,0.19493
2053.81912,0.19148
2055.74759,0.19060
2057.67606,0.19274
2059.60453,0.19426
2061.53300,0.19393
2063.46147,0.19417
2065.38993,0.19504
2067.31840,0.19569
2069.24687,0.19630
2071.17534,0.19711
2073.10381,0.19754
2075.03228,0.19709
2076.96075,0.19693
2078.88921,0.19609
2080.81768,0.19448
2082.74615,0.19584
2084.67462,0.19938
2086.60309,0.20000
2088.53156,0.19766
2090.46003,0.19577
2092.38850,0.19538
2094.31696,0.19611
2096.24543,0.19665
2098.17390,0.19677
2100.10237,0.19733
2102.03084,0.19570
2103.95931,0.19193
2105.88778,0.19104
2107.81624,0.19328
2109.74471,0.19474
2111.67318,0.19333
2113.60165,0.19100
2115.53012,0.19159
2117.45859,0.19437
2119.38706,0.19554
2121.31553,0.19527
2123.24399,0.19587
2125.17246,0.19620
2127.10093,0.19440
2129.02940,0.19113
2130.95787,0.18902
2132.88634,0.19033
2134.81481,0.19321
2136.74327,0.19531
2138.67174,0.19677
2140.60021,0.19737
2142.52868,0.19760
2144.45715,0.19794
2146.38562,0.19737
2148.31409,0.19582
2150.24255,0.19473
2152.17102,0.19500
2154.09949,0.19544
2156.02796,0.19551
2157.95643,0.19628
2159.88490,0.19726
2161.81337,0.19867
2163.74184,0.19946
2165.67030,0.19714
2167.59877,0.19484
2169.52724,0.19516
2171.45571,0.19563
2173.38418,0.19426
2175.31265,0.19160
2177.24112,0.19055
2179.16958,0.19288
2181.09805,0.19675
2183.02652,0.19862
2184.95499,0.19781
2186.88346,0.19740
2188.81193,0.19755
2190.74040,0.19620
2192.66887,0.19493
2194.59733,0.19589
2196.52580,0.19762
2198.45427,0.19849
2200.38274,0.19874
2202.31121,0.19756
2204.23968,0.19509
2206.16815,0.19377
2208.09661,0.19395
2210.02508,0.19431
2211.95355,0.19464
2213.88202,0.19457
2215.81049,0.19338
2217.73896,0.19283
2219.66743,0.19394
2221.59590,0.19501
2223.52436,0.19572
2225.45283,0.19558
2227.38130,0.19409
2229.30977,0.19305
2231.23824,0.19358
2233.16671,0.19507
2235.09518,0.19603
2237.02364,0.19586
2238.95211,0.19640
2240.88058,0.19723
2242.80905,0.19709
2244.73752,0.19822
2246.66599,0.19958
2248.59446,0.19866
2250.52293,0.19813
2252.45139,0.19924
2254.37986,0.19919
2256.30833,0.19822
2258.23680,0.19774
2260.16527,0.19718
2262.09374,0.19835
2264.02221,0.20117
2265.95067,0.20179
2267.87914,0.19949
2269.80761,0.19630
2271.73608,0.19383
2273.66455,0.19284
2275.59302,0.19304
2277.52149,0.19276
2279.44996,0.19249
2281.37842,0.19402
2283.30689,0.19553
2285.23536,0.19607
2287.16383,0.19717
2289.09230,0.19816
2291.02077,0.19761
2292.94924,0.19668
2294.87770,0.19650
2296.80617,0.19586
2298.73464,0.19358
2300.66311,0.19195
2302.59158,0.19427
2304.52005,0.19710
2306.44852,0.19506
2308.37699,0.19159
2310.30545,0.19230
2312.23392,0.19440
2314.16239,0.19314
2316.09086,0.18986
2318.01933,0.18824
2319.94780,0.19108
2321.87627,0.19699
2323.80473,0.19829
2325.73320,0.19363
2327.66167,0.18908
2329.59014,0.18693
2331.51861,0.19187
2333.44708,0.19928
2335.37555,0.19599
2337.30401,0.19038
2339.23248,0.18950
2341.16095,0.18365
2343.08942,0.17559
2345.01789,0.17867
2346.94636,0.18963
2348.87483,0.19451
2350.80330,0.19376
2352.73176,0.19637
2354.66023,0.20103
2356.58870,0.20005
2358.51717,0.20103
2360.44564,0.19659
2362.37411,0.17545
2364.30258,0.15685
2366.23104,0.15784
2368.15951,0.17134
2370.08798,0.18432
2372.01645,0.18886
2373.94492,0.18643
2375.87339,0.18689
2377.80186,0.19158
2379.73033,0.19274
2381.65879,0.19053
2383.58726,0.19006
2385.51573,0.19220
2387.44420,0.19526
2389.37267,0.19693
2391.30114,0.19668
2393.22961,0.19607
2395.15807,0.19565
2397.08654,0.19514
2399.01501,0.19360
2400.94348,0.19216
2402.87195,0.19334
2404.80042,0.19461
2406.72889,0.19339
2408.65736,0.19272
2410.58582,0.19455
2412.51429,0.19731
2414.44276,0.19937
2416.37123,0.19884
2418.29970,0.19578
2420.22817,0.19375
2422.15664,0.19404
2424.08510,0.19480
2426.01357,0.19585
2427.94204,0.19723
2429.87051,0.19708
2431.79898,0.19573
2433.72745,0.19470
2435.65592,0.19373
2437.58439,0.19308
2439.51285,0.19338
2441.44132,0.19386
2443.36979,0.19329
2445.29826,0.19292
2447.22673,0.19409
2449.15520,0.19514
2451.08367,0.19575
2453.01213,0.19716
2454.94060,0.19859
2456.86907,0.19827
2458.79754,0.19722
2460.72601,0.19716
2462.65448,0.19665
2464.58295,0.19509
2466.51142,0.19505
2468.43988,0.19767
2470.36835,0.19997
2472.29682,0.19961
2474.22529,0.19707
2476.15376,0.19401
2478.08223,0.19433
2480.01070,0.19962
2481.93916,0.20437
2483.86763,0.20278
2485.79610,0.19808
2487.72457,0.19613
2489.65304,0.19650
2491.58151,0.19774
2493.50998,0.19970
2495.43844,0.20050
2497.36691,0.19833
2499.29538,0.19447
2501.22385,0.19203
2503.15232,0.19319
2505.08079,0.19695
2507.00926,0.19953
2508.93773,0.19975
2510.86619,0.19938
2512.79466,0.19985
2514.72313,0.20103
2516.65160,0.20106
2518.58007,0.20028
2520.50854,0.19970
2522.43701,0.19684
2524.36547,0.19248
2526.29394,0.19168
2528.22241,0.19441
2530.15088,0.19710
2532.07935,0.19829
2534.00782,0.19779
2535.93629,0.19837
2537.86476,0.20019
2539.79322,0.19847
2541.72169,0.19529
2543.65016,0.19569
2545.57863,0.19753
2547.50710,0.19710
2549.43557,0.19502
2551.36404,0.19428
2553.29250,0.19523
2555.22097,0.19649
2557.14944,0.19835
2559.07791,0.20043
2561.00638,0.20259
2562.93485,0.20433
2564.86332,0.20316
2566.79179,0.20082
2568.72025,0.20140
2570.64872,0.20377
2572.57719,0.20334
2574.50566,0.19981
2576.43413,0.19932
2578.36260,0.20320
2580.29107,0.20605
2582.21953,0.20559
2584.14800,0.20291
2586.07647,0.20042
2588.00494,0.19891
2589.93341,0.19728
2591.86188,0.19741
2593.79035,0.19983
2595.71882,0.20115
2597.64728,0.20088
2599.57575,0.20031
2601.50422,0.19956
2603.43269,0.19999
2605.36116,0.20164
2607.28963,0.20237
2609.21810,0.20192
2611.14656,0.20176
2613.07503,0.20136
2615.00350,0.19899
2616.93197,0.19614
2618.86044,0.19556
2620.78891,0.19647
2622.71738,0.19758
2624.64585,0.20055
2626.57431,0.20366
2628.50278,0.20312
2630.43125,0.20142
2632.35972,0.20180
2634.28819,0.20313
2636.21666,0.20429
2638.14513,0.20486
2640.07359,0.20413
2642.00206,0.20229
2643.93053,0.19982
2645.85900,0.19798
2647.78747,0.19748
2649.71594,0.19787
2651.64441,0.20094
2653.57288,0.20525
2655.50134,0.20717
2657.42981,0.20815
2659.35828,0.20881
2661.28675,0.20651
2663.21522,0.20248
2665.14369,0.20166
2667.07216,0.20375
2669.00062,0.20274
2670.92909,0.19886
2672.85756,0.19897
2674.78603,0.20279
2676.71450,0.20509
2678.64297,0.20558
2680.57144,0.20464
2682.49990,0.20211
2684.42837,0.20040
2686.35684,0.20099
2688.28531,0.20242
2690.21378,0.20252
2692.14225,0.20175
2694.07072,0.20207
2695.99919,0.20362
2697.92765,0.20528
2699.85612,0.20568
2701.78459,0.20613
2703.71306,0.20884
2705.64153,0.21130
2707.57000,0.21104
2709.49847,0.20949
2711.42693,0.20862
2713.35540,0.20834
2715.28387,0.20732
2717.21234,0.20688
2719.14081,0.20834
2721.06928,0.20887
2722.99775,0.20698
2724.92622,0.20553
2726.85468,0.20529
2728.78315,0.20400
2730.71162,0.20256
2732.64009,0.20408
2734.56856,0.20816
2736.49703,0.21024
2738.42550,0.20838
2740.35396,0.20639
2742.28243,0.20680
2744.21090,0.20766
2746.13937,0.20750
2748.06784,0.20784
2749.99631,0.20899
2751.92478,0.20980
2753.85325,0.21095
2755.78171,0.21229
2757.71018,0.21204
2759.63865,0.21118
2761.56712,0.21139
2763.49559,0.21191
2765.42406,0.21271
2767.35253,0.21346
2769.28099,0.21197
2771.20946,0.20937
2773.13793,0.20839
2775.06640,0.20740
2776.99487,0.20496
2778.92334,0.20298
2780.85181,0.20269
2782.78028,0.20503
2784.70874,0.20925
2786.63721,0.21042
2788.56568,0.20784
2790.49415,0.20729
2792.42262,0.20979
2794.35109,0.21232
2796.27956,0.21480
2798.20802,0.21647
2800.13649,0.21633
2802.06496,0.21594
2803.99343,0.21603
2805.92190,0.21683
2807.85037,0.21678
2809.77884,0.21384
2811.70731,0.21131
2813.63577,0.21165
2815.56424,0.21208
2817.49271,0.21147
2819.42118,0.21217
2821.34965,0.21446
2823.27812,0.21586
2825.20659,0.21583
2827.13505,0.21466
2829.06352,0.21285
2830.99199,0.21176
2832.92046,0.21079
2834.84893,0.20953
2836.77740,0.20986
2838.70587,0.21166
2840.63433,0.21317
2842.56280,0.21399
2844.49127,0.21174
2846.41974,0.20691
2848.34821,0.20562
2850.27668,0.20787
2852.20515,0.20962
2854.13362,0.21046
2856.06208,0.21032
2857.99055,0.20992
2859.91902,0.21011
2861.84749,0.21015
2863.77596,0.21027
2865.70443,0.20978
2867.63290,0.20927
2869.56136,0.21254
2871.48983,0.21858
2873.41830,0.22255
2875.34677,0.22118
2877.27524,0.21484
2879.20371,0.20981
2881.13218,0.20975
2883.06065,0.21048
2884.98911,0.20883
2886.91758,0.20810
2888.84605,0.21206
2890.77452,0.21780
2892.70299,0.21801
2894.63146,0.21147
2896.55993,0.20651
2898.48839,0.20679
2900.41686,0.20530
2902.34533,0.19886
2904.27380,0.19398
2906.20227,0.19692
2908.13074,0.20465
2910.05921,0.20784
2911.98768,0.20544
2913.91614,0.20324
2915.84461,0.20152
2917.77308,0.20218
2919.70155,0.20644
2921.63002,0.20862
2923.55849,0.20491
2925.48696,0.19465
2927.41542,0.18908
2929.34389,0.19746
2931.27236,0.20719
2933.20083,0.20789
2935.12930,0.20072
2937.05777,0.19288
2938.98624,0.19515
2940.91471,0.20453
2942.84317,0.21075
2944.77164,0.20830
2946.70011,0.19797
2948.62858,0.19447
2950.55705,0.20422
2952.48552,0.21396
2954.41399,0.21160
2956.34245,0.19386
2958.27092,0.18038
2960.19939,0.18956
2962.12786,0.20301
2964.05633,0.20441
2965.98480,0.19884
2967.91327,0.19313
2969.84174,0.19651
2971.77020,0.20834
2973.69867,0.21663
2975.62714,0.21413
2977.55561,0.20596
2979.48408,0.20667
2981.41255,0.21550
2983.34102,0.21851
2985.26948,0.21266
2987.19795,0.20254
2989.12642,0.19806
2991.05489,0.20522
2992.98336,0.21491
2994.91183,0.21980
2996.84030,0.22077
2998.76877,0.21817
3000.69723,0.21548
3002.62570,0.21639
3004.55417,0.21674
3006.48264,0.21350
3008.41111,0.20904
3010.33958,0.19737
3012.26805,0.16783
3014.19651,0.12497
3016.12498,0.09538
3018.05345,0.11233
3019.98192,0.16435
3021.91039,0.20137
3023.83886,0.21131
3025.76733,0.21121
3027.69579,0.20759
3029.62426,0.20876
3031.55273,0.21728
3033.48120,0.22081
3035.40967,0.21485
3037.33814,0.21023
3039.26661,0.21497
3041.19508,0.22175
3043.12354,0.22038
3045.05201,0.21437
3046.98048,0.21336
3048.90895,0.21879
3050.83742,0.22303
3052.76589,0.22228
3054.69436,0.21654
3056.62282,0.20668
3058.55129,0.20537
3060.47976,0.21446
3062.40823,0.21881
3064.33670,0.21297
3066.26517,0.20193
3068.19364,0.19930
3070.12211,0.20870
3072.05057,0.21663
3073.97904,0.21397
3075.90751,0.20532
3077.83598,0.20622
3079.76445,0.21619
3081.69292,0.21828
3083.62139,0.20686
3085.54985,0.19564
3087.47832,0.20103
3089.40679,0.21438
3091.33526,0.21532
3093.26373,0.20218
3095.19220,0.19583
3097.12067,0.20518
3099.04914,0.21197
3100.97760,0.20680
3102.90607,0.19607
3104.83454,0.19479
3106.76301,0.20782
3108.69148,0.21765
3110.61995,0.21310
3112.54842,0.20386
3114.47688,0.20561
3116.40535,0.21330
3118.33382,0.21274
3120.26229,0.20613
3122.19076,0.20144
3124.11923,0.20482
3126.04770,0.21392
3127.97617,0.21736
3129.90463,0.21141
3131.83310,0.20605
3133.76157,0.20779
3135.69004,0.20947
3137.61851,0.20598
3139.54698,0.20401
3141.47545,0.20934
3143.40391,0.21547
3145.33238,0.21735
3147.26085,0.21937
3149.18932,0.22390
3151.11779,0.22736
3153.04626,0.22551
3154.97473,0.22072
3156.90320,0.21776
3158.83166,0.21646
3160.76013,0.21895
3162.68860,0.22666
3164.61707,0.23131
3166.54554,0.22785
3168.47401,0.22233
3170.40248,0.21986
3172.33094,0.21941
3174.25941,0.21895
3176.18788,0.21833
3178.11635,0.21954
3180.04482,0.22290
3181.97329,0.22506
3183.90176,0.22455
3185.83022,0.22000
3187.75869,0.21322
3189.68716,0.20982
3191.61563,0.20914
3193.54410,0.21161
3195.47257,0.21793
3197.40104,0.22178
3199.32951,0.22152
3201.25797,0.22159
3203.18644,0.22336
3205.11491,0.22500
3207.04338,0.22634
3208.97185,0.22803
3210.90032,0.22985
3212.82879,0.23179
3214.75725,0.23094
3216.68572,0.22485
3218.61419,0.21623
3220.54266,0.21079
3222.47113,0.21181
3224.39960,0.21442
3226.32807,0.21599
3228.25654,0.21921
3230.18500,0.22106
3232.11347,0.21882
3234.04194,0.21724
3235.97041,0.21953
3237.89888,0.22091
3239.82735,0.22046
3241.75582,0.22248
3243.68428,0.22530
3245.61275,0.22823
3247.54122,0.23151
3249.46969,0.22962
3251.39816,0.22268
3253.32663,0.21950
3255.25510,0.22277
3257.18357,0.22663
3259.11203,0.22649
3261.04050,0.22194
3262.96897,0.21759
3264.89744,0.21477
3266.82591,0.21061
3268.75438,0.21111
3270.68285,0.22089
3272.61131,0.23037
3274.53978,0.23008
3276.46825,0.22301
3278.39672,0.21806
3280.32519,0.21889
3282.25366,0.22099
3284.18213,0.21804
3286.11060,0.21335
3288.03906,0.21569
3289.96753,0.22220
3291.89600,0.22393
3293.82447,0.21983
3295.75294,0.21453
3297.68141,0.21274
3299.60988,0.21345
3301.53834,0.21450
3303.46681,0.21598
3305.39528,0.21390
3307.32375,0.20915
3309.25222,0.20709
3311.18069,0.20782
3313.10916,0.20829
3315.03763,0.20864
3316.96609,0.21311
3318.89456,0.21752
3320.82303,0.21516
3322.75150,0.21365
3324.67997,0.22020
3326.60844,0.22890
3328.53691,0.23186
3330.46537,0.22929
3332.39384,0.22916
3334.32231,0.23383
3336.25078,0.23336
3338.17925,0.22435
3340.10772,0.21722
3342.03619,0.21744
3343.96466,0.22186
3345.89312,0.22478
3347.82159,0.22315
3349.75006,0.22215
3351.67853,0.22344
3353.60700,0.22293
3355.53547,0.21997
3357.46394,0.21647
3359.39240,0.21755
3361.32087,0.22286
3363.24934,0.22516
3365.17781,0.22430
3367.10628,0.22495
3369.03475,0.22718
3370.96322,0.22866
3372.89168,0.22725
3374.82015,0.21993
3376.74862,0.21021
3378.67709,0.20692
3380.60556,0.20987
3382.53403,0.21441
3384.46250,0.22016
3386.39097,0.22327
3388.31943,0.22170
3390.24790,0.22131
3392.17637,0.22134
3394.10484,0.21920
3396.03331,0.21899
3397.96178,0.21948
3399.89025,0.21962
3401.81871,0.22108
3403.74718,0.21932
3405.67565,0.21692
3407.60412,0.22124
3409.53259,0.22480
3411.46106,0.22185
3413.38953,0.22022
3415.31800,0.22264
3417.24646,0.22583
3419.17493,0.22681
3421.10340,0.22403
3423.03187,0.22095
3424.96034,0.21632
3426.88881,0.20687
3428.81728,0.20067
3430.74574,0.20387
3432.67421,0.20996
3434.60268,0.21319
3436.53115,0.21365
3438.45962,0.21291
3440.38809,0.21331
3442.31656,0.21378
3444.24503,0.21068
3446.17349,0.20536
3448.10196,0.20194
3450.03043,0.20199
3451.95890,0.20572
3453.88737,0.21136
3455.81584,0.21568
3457.74431,0.21787
3459.67277,0.21489
3461.60124,0.20648
3463.52971,0.20210
3465.45818,0.20473
3467.38665,0.20807
3469.31512,0.20729
3471.24359,0.20202
3473.17206,0.19949
3475.10052,0.20278
3477.02899,0.20369
3478.95746,0.20098
3480.88593,0.20149
3482.81440,0.20329
3484.74287,0.20278
3486.67134,0.20252
3488.59980,0.20041
3490.52827,0.19329
3492.45674,0.18813
3494.38521,0.19274
3496.31368,0.20045
3498.24215,0.20337
3500.17062,0.20624
3502.09909,0.21061
3504.02755,0.21193
3505.95602,0.21084
3507.88449,0.20852
3509.81296,0.20170
3511.74143,0.19172
3513.66990,0.18453
3515.59837,0.18390
3517.52683,0.18924
3519.45530,0.19318
3521.38377,0.19197
3523.31224,0.19011
3525.24071,0.18942
3527.16918,0.18596
3529.09765,0.18056
3531.02611,0.17926
3532.95458,0.18125
3534.88305,0.18218
3536.81152,0.17901
3538.73999,0.17421
3540.66846,0.17447
3542.59693,0.17991
3544.52540,0.18708
3546.45386,0.18926
3548.38233,0.18418
3550.31080,0.18247
3552.23927,0.18465
3554.16774,0.18205
3556.09621,0.17655
3558.02468,0.17304
3559.95314,0.17175
3561.88161,0.17361
3563.81008,0.18270
3565.73855,0.19558
3567.66702,0.19359
3569.59549,0.17774
3571.52396,0.16681
3573.45243,0.16365
3575.38089,0.16548
3577.30936,0.16798
3579.23783,0.17116
3581.16630,0.17579
3583.09477,0.17888
3585.02324,0.18311
3586.95171,0.18877
3588.88017,0.18273
3590.80864,0.16973
3592.73711,0.16332
3594.66558,0.16487
3596.59405,0.17045
3598.52252,0.17583
3600.45099,0.17683
3602.37946,0.17372
3604.30792,0.17541
3606.23639,0.18541
3608.16486,0.18994
3610.09333,0.18115
3612.02180,0.17517
3613.95027,0.17549
3615.87874,0.17655
3617.80720,0.17881
3619.73567,0.17665
3621.66414,0.16628
3623.59261,0.15718
3625.52108,0.15618
3627.44955,0.16494
3629.37802,0.17272
3631.30649,0.16685
3633.23495,0.15919
3635.16342,0.15598
3637.09189,0.15687
3639.02036,0.15648
3640.94883,0.15220
3642.87730,0.15119
3644.80577,0.16016
3646.73423,0.17776
3648.66270,0.19039
3650.59117,0.17694
3652.51964,0.15862
3654.44811,0.15207
3656.37658,0.15060
3658.30505,0.14641
3660.23352,0.14259
3662.16198,0.13834
3664.09045,0.13395
3666.01892,0.13797
3667.94739,0.15346
3669.87586,0.16923
3671.80433,0.17136
3673.73280,0.17260
3675.66126,0.17203
3677.58973,0.16004
3679.51820,0.15056
3681.44667,0.14574
3683.37514,0.14269
3685.30361,0.14393
3687.23208,0.15338
3689.16055,0.16406
3691.08901,0.15620
3693.01748,0.14021
3694.94595,0.13366
3696.87442,0.13523
3698.80289,0.13843
3700.73136,0.14369
3702.65983,0.14950
3704.58829,0.14963
3706.51676,0.14925
3708.44523,0.15494
3710.37370,0.16381
3712.30217,0.16186
3714.23064,0.15147
3716.15911,0.14642
3718.08757,0.14589
3720.01604,0.14749
3721.94451,0.15218
3723.87298,0.15686
3725.80145,0.15490
3727.72992,0.14716
3729.65839,0.14554
3731.58686,0.15582
3733.51532,0.17391
3735.44379,0.18281
3737.37226,0.16962
3739.30073,0.15424
3741.22920,0.14829
3743.15767,0.15032
3745.08614,0.15668
3747.01460,0.16107
3748.94307,0.16722
3750.87154,0.17100
3752.80001,0.16095
3754.72848,0.15158
3756.65695,0.14645
3758.58542,0.13977
3760.51389,0.13375
3762.44235,0.13424
3764.37082,0.13967
3766.29929,0.14436
3768.22776,0.14603
3770.15623,0.14119
3772.08470,0.13029
3774.01317,0.12499
3775.94163,0.12874
3777.87010,0.13724
3779.79857,0.13952
3781.72704,0.13657
3783.65551,0.13668
3785.58398,0.13376
3787.51245,0.12964
3789.44092,0.12965
3791.36938,0.12934
3793.29785,0.12855
3795.22632,0.13104
3797.15479,0.13618
3799.08326,0.14501
3801.01173,0.15744
3802.94020,0.15858
3804.86866,0.15145
3806.79713,0.14096
3808.72560,0.12583
3810.65407,0.11816
3812.58254,0.12044
3814.51101,0.12810
3816.43948,0.13247
3818.36795,0.13555
3820.29641,0.14555
3822.22488,0.14662
3824.15335,0.14142
3826.08182,0.14095
3828.01029,0.13873
3829.93876,0.13817
3831.86723,0.14247
3833.79569,0.14832
3835.72416,0.15815
3837.65263,0.17132
3839.58110,0.17423
3841.50957,0.16440
3843.43804,0.15234
3845.36651,0.14106
3847.29498,0.13335
3849.22344,0.13429
3851.15191,0.14737
3853.08038,0.16427
3855.00885,0.15756
3856.93732,0.14258
3858.86579,0.13171
3860.79426,0.12839
3862.72272,0.13687
3864.65119,0.14554
3866.57966,0.14247
3868.50813,0.13618
3870.43660,0.13259
3872.36507,0.13142
3874.29354,0.12820
3876.22200,0.12437
3878.15047,0.12962
3880.07894,0.14109
3882.00741,0.14414
3883.93588,0.14295
3885.86435,0.14252
3887.79282,0.13839
3889.72129,0.13320
3891.64975,0.12627
3893.57822,0.11966
3895.50669,0.11810
3897.43516,0.11918
3899.36363,0.12273
3901.29210,0.12814
3903.22057,0.13116
3905.14903,0.12917
3907.07750,0.12314
3909.00597,0.11663
3910.93444,0.11125
3912.86291,0.11194
3914.79138,0.12000
3916.71985,0.12835
3918.64832,0.13072
3920.57678,0.12639
3922.50525,0.12105
3924.43372,0.11883
3926.36219,0.11997
3928.29066,0.12402
3930.21913,0.12743
3932.14760,0.12671
3934.07606,0.12520
3936.00453,0.12471
3937.93300,0.11973
3939.86147,0.11397
3941.78994,0.11408
3943.71841,0.11435
3945.64688,0.11412
3947.57535,0.11772
3949.50381,0.12261
3951.43228,0.12380
3953.36075,0.11866
3955.28922,0.11180
3957.21769,0.10801
3959.14616,0.10484
3961.07463,0.10298
3963.00309,0.10719
3964.93156,0.11424
3966.86003,0.11633
3968.78850,0.11282
3970.71697,0.11150
3972.64544,0.11671
3974.57391,0.11839
3976.50238,0.11021
3978.43084,0.10329
3980.35931,0.10291
3982.28778,0.10453
3984.21625,0.10648
3986.14472,0.10793
3988.07319,0.10917
3990.00166,0.11059
3991.93012,0.10990
3993.85859,0.10716
3995.78706,0.10478
3997.71553,0.10522
3999.64400,0.10616
4001.57247,0.10181
4003.50094,0.09768
4005.42941,0.10133
4007.35787,0.10660
4009.28634,0.10809
4011.21481,0.10803
4013.14328,0.10586
4015.07175,0.10214
4017.00022,0.10458
4018.92869,0.11049
4020.85715,0.10939
4022.78562,0.10585
4024.71409,0.10496
4026.64256,0.10435
4028.57103,0.10542
4030.49950,0.10726
4032.42797,0.10480
4034.35644,0.09930
4036.28490,0.09808
4038.21337,0.10109
4040.14184,0.10175
4042.07031,0.09936
4043.99878,0.09722
4045.92725,0.09689
4047.85572,0.09855
4049.78418,0.09968
4051.71265,0.09859
4053.64112,0.09629
4055.56959,0.09358
4057.49806,0.09373
4059.42653,0.09901
4061.35500,0.10424
4063.28346,0.10144
4065.21193,0.09443
4067.14040,0.09395
4069.06887,0.09710
4070.99734,0.09704
4072.92581,0.09554
4074.85428,0.09347
4076.78275,0.09216
4078.71121,0.09535
4080.63968,0.09920
4082.56815,0.09961
4084.49662,0.09882
4086.42509,0.09460
4088.35356,0.08730
4090.28203,0.08533
4092.21049,0.08976
4094.13896,0.09217
4096.06743,0.08935
4097.99590,0.08642
4099.92437,0.08626
4101.85284,0.08728
4103.78131,0.08840
4105.70978,0.08852
4107.63824,0.08662
4109.56671,0.08527
4111.49518,0.08520
4113.42365,0.08602
4115.35212,0.08815
4117.28059,0.08795
4119.20906,0.08536
4121.13752,0.08306
4123.06599,0.08093
4124.99446,0.08223
4126.92293,0.08795
4128.85140,0.08953
4130.77987,0.08462
4132.70834,0.08368
4134.63681,0.08675
4136.56527,0.08299
4138.49374,0.07636
4140.42221,0.07726
4142.35068,0.07947
4144.27915,0.07911
4146.20762,0.08310
4148.13609,0.08631
4150.06455,0.08475
4151.99302,0.08545
4153.92149,0.08669
4155.84996,0.08386
4157.77843,0.08180
4159.70690,0.08357
4161.63537,0.08453
4163.56384,0.08375
4165.49230,0.08590
4167.42077,0.08919
4169.34924,0.08790
4171.27771,0.08357
4173.20618,0.07886
4175.13465,0.07402
4177.06312,0.07284
4178.99158,0.07802
4180.92005,0.08506
4182.84852,0.08687
4184.77699,0.08304
4186.70546,0.07858
4188.63393,0.07654
4190.56240,0.07683
4192.49087,0.07743
4194.41933,0.07756
4196.34780,0.07956
4198.27627,0.08152
4200.20474,0.07717
4202.13321,0.07148
4204.06168,0.07216
4205.99015,0.07334
4207.91861,0.07139
4209.84708,0.07240
4211.77555,0.07588
4213.70402,0.07398
4215.63249,0.06604
4217.56096,0.05947
4219.48943,0.06074
4221.41789,0.06683
4223.34636,0.06821
4225.27483,0.06524
4227.20330,0.06406
4229.13177,0.06484
4231.06024,0.06664
4232.98871,0.06846
4234.91718,0.06688
4236.84564,0.06226
4238.77411,0.06036
4240.70258,0.06259
4242.63105,0.06381
4244.55952,0.06205
4246.48799,0.06306
4248.41646,0.06917
4250.34492,0.07483
4252.27339,0.07379
4254.20186,0.06588
4256.13033,0.06156
4258.05880,0.06350
4259.98727,0.06125
4261.91574,0.05650
4263.84421,0.06078
4265.77267,0.07100
4267.70114,0.07233
4269.62961,0.06375
4271.55808,0.05820
4273.48655,0.05824
4275.41502,0.05680
4277.34349,0.05762
4279.27195,0.06315
4281.20042,0.06363
4283.12889,0.06082
4285.05736,0.06158
4286.98583,0.06335
4288.91430,0.06233
4290.84277,0.05238
4292.77124,0.03777
4294.69970,0.03320
4296.62817,0.03787
4298.55664,0.04203
4300.48511,0.04445
4302.41358,0.04753
4304.34205,0.05082
4306.27052,0.05283
4308.19898,0.05320
4310.12745,0.05073
4312.05592,0.04663
4313.98439,0.04765
4315.91286,0.05563
4317.84133,0.06282
4319.76980,0.06072
4321.69827,0.04905
4323.62673,0.03647
4325.55520,0.03197
4327.48367,0.03802
4329.41214,0.04859
4331.34061,0.05652
4333.26908,0.06204
4335.19755,0.06597
4337.12601,0.06422
4339.05448,0.05542
4340.98295,0.04545
4342.91142,0.04037
4344.83989,0.04175
4346.76836,0.04619
4348.69683,0.04545
4350.62530,0.03818
4352.55376,0.03207
4354.48223,0.03378
4356.41070,0.03847
4358.33917,0.03312
4360.26764,0.02385
4362.19611,0.02370
4364.12458,0.02719
4366.05304,0.02917
4367.98151,0.03033
4369.90998,0.02644
4371.83845,0.02082
4373.76692,0.02092
4375.69539,0.02225
4377.62386,0.02141
4379.55232,0.02153
4381.48079,0.02528
4383.40926,0.03271
4385.33773,0.03557
4387.26620,0.03064
4389.19467,0.02577
4391.12314,0.02537
4393.05161,0.02573
4394.98007,0.02530
4396.90854,0.02758
4398.83701,0.03203
4400.76548,0.03572
4402.69395,0.03659
4404.62242,0.03844
4406.55089,0.04422
4408.47935,0.04442
4410.40782,0.03639
4412.33629,0.03044
4414.26476,0.02609
4416.19323,0.01544
4418.12170,0.00625
4420.05017,0.01067
4421.97864,0.02117
4423.90710,0.02297
4425.83557,0.01620
4427.76404,0.01141
4429.69251,0.01174
4431.62098,0.01126
4433.54945,0.00751
4435.47792,0.00367
4437.40638,0.00336
4439.33485,0.00844
4441.26332,0.01336
4443.19179,0.00936
4445.12026,0.00062
4447.04873,-0.00087
4448.97720,0.00648
4450.90567,0.01822
4452.83413,0.02870
4454.76260,0.02835
4456.69107,0.01758
4458.61954,0.00954
4460.54801,0.01351
4462.47648,0.02407
4464.40495,0.02840
4466.33341,0.02629
4468.26188,0.02913
4470.19035,0.03734
4472.11882,0.03471
4474.04729,0.01509
4475.97576,-0.00150
4477.90423,0.00237
4479.83270,0.01563
4481.76116,0.02224
4483.68963,0.02648
4485.61810,0.03323
4487.54657,0.03215
4489.47504,0.02117
4491.40351,0.01205
4493.33198,0.00753
4495.26044,0.00540
4497.18891,0.00687
4499.11738,0.00748
4501.04585,0.00760
4502.97432,0.00899
4504.90279,0.00968
4506.83126,0.01108
4508.75973,0.00995
4510.68819,0.00599
4512.61666,0.00427
4514.54513,0.00516
4516.47360,0.00678
4518.40207,0.00967
4520.33054,0.01309
4522.25901,0.01192
4524.18747,0.00744
4526.11594,0.00481
4528.04441,0.00368
4529.97288,0.00357
4531.90135,0.00430
4533.82982,0.00309
4535.75829,0.00024
4537.68676,0.00256
4539.61522,0.01216
4541.54369,0.01918
4543.47216,0.01575
4545.40063,0.00775
4547.32910,0.00268
4549.25757,0.00159
4551.18604,0.00782
4553.11450,0.01899
4555.04297,0.02195
4556.97144,0.01250
4558.89991,0.00155
4560.82838,-0.00057
4562.75685,0.00414
4564.68532,0.00654
4566.61378,0.00323
4568.54225,-0.00149
4570.47072,-0.00156
4572.39919,0.00358
4574.32766,0.00534
4576.25613,0.00346
4578.18460,0.00875
4580.11307,0.01592
4582.04153,0.01378
4583.97000,0.00649
4585.89847,0.00071
4587.82694,0.00167
4589.75541,0.00843
4591.68388,0.01290
4593.61235,0.01385
4595.54081,0.01472
4597.46928,0.01682
4599.39775,0.01786
4601.32622,0.01534
4603.25469,0.00739
4605.18316,-0.00581
4607.11163,-0.01230
4609.04010,-0.00700
4610.96856,-0.00442
4612.89703,-0.00643
4614.82550,-0.00003
4616.75397,0.01000
4618.68244,0.01117
4620.61091,0.00993
4622.53938,0.01462
4624.46784,0.01778
4626.39631,0.01293
4628.32478,0.00329
4630.25325,-0.00398
4632.18172,-0.00348
4634.11019,0.00097
4636.03866,0.00379
4637.96713,0.00576
4639.89559,0.00676
4641.82406,0.00534
4643.75253,0.00313
4645.68100,0.00085
4647.60947,-0.00365
4649.53794,-0.00326
4651.46641,0.00337
4653.39487,0.00278
4655.32334,-0.00169
4657.25181,0.00351
4659.18028,0.01138
4661.10875,0.00648
4663.03722,-0.00590
4664.96569,-0.01132
4666.89416,-0.00780
4668.82262,-0.00152
4670.75109,0.00537
4672.67956,0.01260
4674.60803,0.01176
4676.53650,-0.00122
4678.46497,-0.01279
4680.39344,-0.00999
4682.32190,0.00219
4684.25037,0.00973
4686.17884,0.01234
4688.10731,0.01803
4690.03578,0.02184
4691.96425,0.02101
4693.89272,0.02191
4695.82119,0.01976
4697.74965,0.00940
4699.67812,-0.00126
4701.60659,-0.00391
4703.53506,0.00104
4705.46353,0.00573
4707.39200,0.00530
4709.32047,0.00371
4711.24893,0.00208
4713.17740,0.00043
4715.10587,0.00150
4717.03434,0.00148
4718.96281,-0.00015
4720.89128,0.00320
4722.81975,0.00805
4724.74821,0.00547
4726.67668,-0.00010
4728.60515,-0.00366
4730.53362,-0.00645
4732.46209,-0.00068
4734.39056,0.00937
4736.31903,0.00889
4738.24750,0.00618
4740.17596,0.01259
4742.10443,0.02273
4744.03290,0.02381
4745.96137,0.01310
4747.88984,0.00487
4749.81831,0.00544
4751.74678,0.00537
4753.67524,0.00408
4755.60371,0.00821
4757.53218,0.01182
4759.46065,0.01230
4761.38912,0.01522
4763.31759,0.01416
4765.24606,0.00287
4767.17453,-0.00684
4769.10299,-0.00251
4771.03146,0.00610
4772.95993,0.00820
4774.88840,0.01161
4776.81687,0.01924
4778.74534,0.02032
4780.67381,0.00605
4782.60227,-0.01039
4784.53074,-0.00936
4786.45921,-0.00365
4788.38768,-0.01195
4790.31615,-0.02585
4792.24462,-0.03118
4794.17309,-0.02302
4796.10156,-0.01015
4798.03002,-0.00778
4799.95849,-0.00958
4801.88696,-0.00269
4803.81543,0.00473
4805.74390,0.00229
4807.67237,-0.00474
4809.60084,-0.00591
4811.52930,0.00313
4813.45777,0.02119
4815.38624,0.03584
4817.31471,0.02879
4819.24318,0.00427
4821.17165,-0.01270
4823.10012,-0.01101
4825.02859,0.00184
4826.95705,0.02365
4828.88552,0.04096
4830.81399,0.03312
4832.74246,0.01123
4834.67093,0.00027
4836.59940,-0.00073
4838.52787,-0.01090
4840.45633,-0.02050
4842.38480,-0.01487
4844.31327,-0.00439
4846.24174,0.00717
4848.17021,0.01452
4850.09868,0.01023
4852.02715,0.00507
4853.95562,0.00840
4855.88408,0.01220
4857.81255,0.01206
4859.74102,0.00879
4861.66949,0.00243
4863.59796,0.00338
4865.52643,0.00783
4867.45490,0.00244
4869.38336,-0.00307
4871.31183,0.00236
4873.24030,0.01282
4875.16877,0.02210
4877.09724,0.01926
4879.02571,-0.00052
4880.95418,-0.01219
4882.88265,-0.00372
4884.81111,0.00220
4886.73958,-0.00380
4888.66805,-0.00756
4890.59652,-0.00611
4892.52499,-0.00324
4894.45346,0.00103
4896.38193,-0.00009
4898.31039,-0.00103
4900.23886,0.00665
4902.16733,0.01454
4904.09580,0.01337
4906.02427,0.00304
4907.95274,-0.00623
4909.88121,-0.00155
4911.80967,0.01779
4913.73814,0.02958
4915.66661,0.02130
4917.59508,0.00860
4919.52355,0.00161
4921.45202,-0.00054
4923.38049,0.00619
4925.30896,0.01903
4927.23742,0.02554
4929.16589,0.02601
4931.09436,0.02394
4933.02283,0.01438
4934.95130,0.00471
4936.87977,0.00287
4938.80824,0.00221
4940.73670,0.00288
4942.66517,0.00790
4944.59364,0.01138
4946.52211,0.00058
4948.45058,-0.01638
4950.37905,-0.01919
4952.30752,-0.01207
4954.23599,-0.00790
4956.16445,-0.00661
4958.09292,0.00060
4960.02139,0.00606
4961.94986,-0.00483
4963.87833,-0.01361
4965.80680,-0.00082
4967.73527,0.01498
4969.66373,0.01494
4971.59220,0.01015
4973.52067,0.00872
4975.44914,0.00940
4977.37761,0.00831
4979.30608,0.00296
4981.23455,-0.00006
4983.16302,0.00111
4985.09148,0.00905
4987.01995,0.02491
4988.94842,0.03393
4990.87689,0.02568
4992.80536,0.00979
4994.73383,-0.00270
4996.66230,-0.00782
4998.59076,-0.00320
5000.51923,0.00719
5002.44770,0.02092
5004.37617,0.03450
5006.30464,0.04086
5008.23311,0.04103
5010.16158,0.03409
5012.09005,0.01562
5014.01851,0.00020
5015.94698,0.00208
5017.87545,0.00731
5019.80392,0.01189
5021.73239,0.02513
5023.66086,0.03529
5025.58933,0.03220
5027.51779,0.02551
5029.44626,0.01631
5031.37473,0.00448
5033.30320,0.01317
5035.23167,0.04174
5037.16014,0.05433
5039.08861,0.03716
5041.01708,0.01189
5042.94554,-0.00038
5044.87401,0.00195
5046.80248,0.01633
5048.73095,0.03434
5050.65942,0.04325
5052.58789,0.03457
5054.51636,0.01306
5056.44482,-0.00261
5058.37329,-0.00104
5060.30176,0.01347
5062.23023,0.02523
5064.15870,0.02544
5066.08717,0.01815
5068.01564,0.01213
5069.94410,0.01716
5071.87257,0.02763
5073.80104,0.03547
5075.72951,0.03919
5077.65798,0.02944
5079.58645,0.00773
5081.51492,-0.00694
5083.44339,-0.00050
5085.37185,0.02270
5087.30032,0.03334
5089.22879,0.01189
5091.15726,-0.01209
5093.08573,-0.01104
5095.01420,0.00277
5096.94267,0.01388
5098.87113,0.01355
5100.79960,0.00633
5102.72807,0.01299
5104.65654,0.03211
5106.58501,0.04267
5108.51348,0.04156
5110.44195,0.03514
5112.37042,0.02536
5114.29888,0.02375
5116.22735,0.03446
5118.15582,0.04250
5120.08429,0.04099
5122.01276,0.03257
5123.94123,0.02049
5125.86970,0.01254
5127.79816,0.00682
5129.72663,-0.00121
5131.65510,-0.00234
5133.58357,0.00410
5135.51204,0.01401
5137.44051,0.02814
5139.36898,0.03668
5141.29745,0.03980
5143.22591,0.04638
5145.15438,0.04643
5147.08285,0.03518
5149.01132,0.02403
5150.93979,0.01674
5152.86826,0.01445
5154.79673,0.01858
5156.72519,0.02527
5158.65366,0.03687
5160.58213,0.05406
5162.51060,0.06157
5164.43907,0.05152
5166.36754,0.03905
5168.29601,0.03226
5170.22448,0.02863
5172.15294,0.02837
5174.08141,0.02336
5176.00988,0.01885
5177.93835,0.03591
5179.86682,0.06209
5181.79529,0.06705
5183.72376,0.05272
5185.65222,0.03637
5187.58069,0.02225
5189.50916,0.01348
5191.43763,0.02236
5193.36610,0.04413
5195.29457,0.05531
5197.22304,0.04716
5199.15151,0.02973
5201.07997,0.02805
5203.00844,0.05496
5204.93691,0.07704
5206.86538,0.06235
5208.79385,0.04044
5210.72232,0.03650
5212.65079,0.04013
5214.57925,0.04366
5216.50772,0.04820
5218.43619,0.05844
5220.36466,0.07143
5222.29313,0.07923
5224.22160,0.07128
5226.15007,0.04766
5228.07854,0.03334
5230.00700,0.03248
5231.93547,0.02589
5233.86394,0.01729
5235.79241,0.02564
5237.72088,0.03467
5239.64935,0.02856
5241.57782,0.03102
5243.50628,0.04578
5245.43475,0.05069
5247.36322,0.04698
5249.29169,0.05266
5251.22016,0.05357
5253.14863,0.02678
5255.07710,0.00293
5257.00556,0.01366
5258.93403,0.03386
5260.86250,0.03968
5262.79097,0.04345
5264.71944,0.05440
5266.64791,0.05768
5268.57638,0.04847
5270.50485,0.03488
5272.43331,0.02897
5274.36178,0.02872
5276.29025,0.02652
5278.21872,0.02738
5280.14719,0.03531
5282.07566,0.05144
5284.00413,0.05890
5285.93259,0.03549
5287.86106,0.01448
5289.78953,0.03461
5291.71800,0.06361
5293.64647,0.06080
5295.57494,0.04206
5297.50341,0.02734
5299.43188,0.01352
5301.36034,0.00490
5303.28881,0.02228
5305.21728,0.05435
5307.14575,0.06981
5309.07422,0.06939
5311.00269,0.05896
5312.93116,0.03434
5314.85962,0.01858
5316.78809,0.03409
5318.71656,0.06051
5320.64503,0.06397
5322.57350,0.05095
5324.50197,0.05359
5326.43044,0.06710
5328.35891,0.07517
5330.28737,0.08259
5332.21584,0.08269
5334.14431,0.07176
5336.07278,0.06431
5338.00125,0.06536
5339.92972,0.06848
5341.85819,0.07239
5343.78665,0.07265
5345.71512,0.06308
5347.64359,0.04437
5349.57206,0.02484
5351.50053,0.01829
5353.42900,0.02616
5355.35747,0.03924
5357.28594,0.04359
5359.21440,0.03758
5361.14287,0.03220
5363.07134,0.02777
5364.99981,0.01794
5366.92828,0.00653
5368.85675,0.00649
5370.78522,0.02152
5372.71368,0.04493
5374.64215,0.06303
5376.57062,0.06154
5378.49909,0.05140
5380.42756,0.03615
5382.35603,0.01510
5384.28450,0.01196
5386.21297,0.03604
5388.14143,0.06257
5390.06990,0.07524
5391.99837,0.07682
5393.92684,0.07322
5395.85531,0.06630
5397.78378,0.06684
5399.71225,0.08263
5401.64071,0.09353
5403.56918,0.08215
5405.49765,0.06606
5407.42612,0.05531
5409.35459,0.03880
5411.28306,0.03201
5413.21153,0.04174
5415.13999,0.03935
5417.06846,0.03995
5418.99693,0.07048
5420.92540,0.10311
5422.85387,0.10575
5424.78234,0.09427
5426.71081,0.08327
5428.63928,0.07191
5430.56774,0.06263
5432.49621,0.05820
5434.42468,0.07048
5436.35315,0.09874
5438.28162,0.12506
5440.21009,0.13322
5442.13856,0.10695
5444.06702,0.07011
5445.99549,0.06320
5447.92396,0.07316
5449.85243,0.07031
5451.78090,0.07003
5453.70937,0.08258
5455.63784,0.08650
5457.56631,0.06930
5459.49477,0.04536
5461.42324,0.02921
5463.35171,0.02751
5465.28018,0.02313
5467.20865,0.01471
5469.13712,0.02476
5471.06559,0.04043
5472.99405,0.05238
5474.92252,0.05720
5476.85099,0.04677
5478.77946,0.04205
5480.70793,0.04832
5482.63640,0.06549
5484.56487,0.08666
5486.49334,0.08657
5488.42180,0.07397
5490.35027,0.08025
5492.27874,0.09675
5494.20721,0.08776
5496.13568,0.05991
5498.06415,0.04744
5499.99262,0.05847
5501.92108,0.07939
5503.84955,0.09829
5505.77802,0.10371
5507.70649,0.09196
5509.63496,0.07745
5511.56343,0.07608
5513.49190,0.08776
5515.42037,0.09734
5517.34883,0.09856
5519.27730,0.10317
5521.20577,0.10451
5523.13424,0.09724
5525.06271,0.09957
5526.99118,0.09317
5528.91965,0.06530
5530.84811,0.04979
5532.77658,0.05993
5534.70505,0.07503
5536.63352,0.06567
5538.56199,0.03794
5540.49046,0.03216
5542.41893,0.06066
5544.34740,0.10037
5546.27586,0.11976
5548.20433,0.10687
5550.13280,0.09162
5552.06127,0.09105
5553.98974,0.08165
5555.91821,0.05982
5557.84668,0.04015
5559.77514,0.03037
5561.70361,0.03950
5563.63208,0.05033
5565.56055,0.03916
5567.48902,0.02303
5569.41749,0.02876
5571.34596,0.04908
5573.27443,0.06444
5575.20289,0.07465
5577.13136,0.08400
5579.05983,0.08652
5580.98830,0.08004
5582.91677,0.06527
5584.84524,0.04686
5586.77371,0.04186
5588.70217,0.06115
5590.63064,0.09378
5592.55911,0.11307
5594.48758,0.09725
5596.41605,0.07197
5598.34452,0.08783
5600.27299,0.12192
5602.20145,0.11865
5604.12992,0.09340
5606.05839,0.07011
5607.98686,0.05522
5609.91533,0.07011
5611.84380,0.09992
5613.77227,0.10758
5615.70074,0.09999
5617.62920,0.09971
5619.55767,0.10468
5621.48614,0.10038
5623.41461,0.08586
5625.34308,0.06984
5627.27155,0.06375
5629.20002,0.07326
5631.12848,0.08755
5633.05695,0.09608
5634.98542,0.08411
5636.91389,0.05503
5638.84236,0.04369
5640.77083,0.04402
5642.69930,0.03602
5644.62777,0.04638
5646.55623,0.07049
5648.48470,0.06998
5650.41317,0.06705
5652.34164,0.08870
5654.27011,0.10714
5656.19858,0.10052
5658.12705,0.08299
5660.05551,0.06984
5661.98398,0.07935
5663.91245,0.12750
5665.84092,0.15815
5667.76939,0.11796
5669.69786,0.06574
5671.62633,0.06109
5673.55480,0.07301
5675.48326,0.06756
5677.41173,0.06272
5679.34020,0.07815
5681.26867,0.08814
5683.19714,0.07216
5685.12561,0.05542
5687.05408,0.04452
5688.98254,0.02432
5690.91101,0.01753
5692.83948,0.04881
5694.76795,0.09743
5696.69642,0.12091
5698.62489,0.10702
5700.55336,0.08752
5702.48183,0.08845
5704.41029,0.10123
5706.33876,0.09284
5708.26723,0.06067
5710.19570,0.05082
5712.12417,0.07813
5714.05264,0.10274
5715.98111,0.09857
5717.90957,0.07384
5719.83804,0.04604
5721.76651,0.04548
5723.69498,0.06965
5725.62345,0.07525
5727.55192,0.06817
5729.48039,0.07294
5731.40886,0.09132
5733.33732,0.13046
5735.26579,0.15093
5737.19426,0.11996
5739.12273,0.09206
5741.05120,0.09290
5742.97967,0.09664
5744.90814,0.09391
5746.83660,0.07324
5748.76507,0.03953
5750.69354,0.05241
5752.62201,0.11701
5754.55048,0.14102
5756.47895,0.11006
5758.40742,0.08729
5760.33588,0.08429
5762.26435,0.07727
5764.19282,0.05506
5766.12129,0.03944
5768.04976,0.05975
5769.97823,0.09285
5771.90670,0.09506
5773.83517,0.07268
5775.76363,0.06538
5777.69210,0.08245
5779.62057,0.10336
5781.54904,0.11155
5783.47751,0.09031
5785.40598,0.03504
5787.33445,-0.01235
5789.26291,-0.00537
5791.19138,0.03758
5793.11985,0.07057
5795.04832,0.08365
5796.97679,0.09110
5798.90526,0.10895
5800.83373,0.11917
5802.76220,0.09067
5804.69066,0.07003
5806.61913,0.09764
5808.54760,0.11513
5810.47607,0.09754
5812.40454,0.08697
5814.33301,0.10068
5816.26148,0.11188
5818.18994,0.11340
5820.11841,0.13356
5822.04688,0.17218
5823.97535,0.18551
5825.90382,0.15625
5827.83229,0.11744
5829.76076,0.09945
5831.68923,0.08948
5833.61769,0.06716
5835.54616,0.05635
5837.47463,0.07798
5839.40310,0.09832
5841.33157,0.08974
5843.26004,0.07294
5845.18851,0.06503
5847.11697,0.06420
5849.04544,0.07942
5850.97391,0.08854
5852.90238,0.06694
5854.83085,0.05609
5856.75932,0.08120
5858.68779,0.10230
5860.61626,0.10343
5862.54472,0.11131
5864.47319,0.10912
5866.40166,0.07600
5868.33013,0.05333
5870.25860,0.06796
5872.18707,0.11039
5874.11554,0.16163
5876.04400,0.15873
5877.97247,0.07392
5879.90094,0.00831
5881.82941,0.02660
5883.75788,0.07659
5885.68635,0.11065
5887.61482,0.11291
5889.54329,0.09304
5891.47175,0.08450
5893.40022,0.10077
5895.32869,0.10317
5897.25716,0.06715
5899.18563,0.04814
5901.11410,0.06867
5903.04257,0.08351
5904.97103,0.08551
5906.89950,0.09285
5908.82797,0.09126
5910.75644,0.06155
5912.68491,0.03653
5914.61338,0.05084
5916.54185,0.08393
5918.47032,0.11853
5920.39878,0.14200
5922.32725,0.13888
5924.25572,0.12165
5926.18419,0.11305
5928.11266,0.10276
5930.04113,0.08571
5931.96960,0.08795
5933.89806,0.08225
5935.82653,0.04581
5937.75500,0.02656
5939.68347,0.04737
5941.61194,0.08504
5943.54041,0.11843
5945.46888,0.13746
5947.39734,0.11873
5949.32581,0.07643
5951.25428,0.05367
5953.18275,0.05160
5955.11122,0.06893
5957.03969,0.09736
5958.96816,0.09665
5960.89663,0.06516
5962.82509,0.05742
5964.75356,0.07184
5966.68203,0.07640
5968.61050,0.07850
5970.53897,0.08345
5972.46744,0.09018
5974.39591,0.11147
5976.32437,0.14403
5978.25284,0.15565
5980.18131,0.13570
5982.10978,0.10520
5984.03825,0.07152
5985.96672,0.05228
5987.89519,0.06458
5989.82366,0.07841
5991.75212,0.08956
5993.68059,0.11172
5995.60906,0.10523
5997.53753,0.06018
5999.46600,0.02099
6001.39447,0.01220
6003.32294,0.04199
6005.25140,0.08502
6007.17987,0.11651
6009.10834,0.14956
6011.03681,0.14437
6012.96528,0.07911
6014.89375,0.04582
6016.82222,0.07561
6018.75069,0.08146
6020.67915,0.04471
6022.60762,0.03306
6024.53609,0.07012
6026.46456,0.10755
6028.39303,0.08448
6030.32150,0.03954
6032.24997,0.02816
6034.17843,0.02850
6036.10690,0.06111
6038.03537,0.10193
6039.96384,0.08346
6041.89231,0.06586
6043.82078,0.09708
6045.74925,0.12660
6047.67772,0.13975
6049.60618,0.15295
6051.53465,0.14438
6053.46312,0.11307
6055.39159,0.10062
6057.32006,0.11104
6059.24853,0.10389
6061.17700,0.07864
6063.10546,0.07243
6065.03393,0.09133
6066.96240,0.11312
6068.89087,0.11889
6070.81934,0.11900
6072.74781,0.12461
6074.67628,0.11002
6076.60475,0.07764
6078.53321,0.04857
6080.46168,0.03926
6082.39015,0.06051
6084.31862,0.07292
6086.24709,0.05174
6088.17556,0.04562
6090.10403,0.05459
6092.03249,0.02227
6093.96096,-0.00457
6095.88943,0.03118
6097.81790,0.07071
6099.74637,0.08260
6101.67484,0.08352
6103.60331,0.07439
6105.53177,0.06792
6107.46024,0.06700
6109.38871,0.06431
6111.31718,0.07459
6113.24565,0.09874
6115.17412,0.12979
6117.10259,0.17437
6119.03106,0.19819
6120.95952,0.16583
6122.88799,0.13387
6124.81646,0.15045
6126.74493,0.18316
6128.67340,0.18941
6130.60187,0.16380
6132.53034,0.10138
6134.45880,0.04126
6136.38727,0.07005
6138.31574,0.15306
6140.24421,0.16678
6142.17268,0.13549
6144.10115,0.12819
6146.02962,0.10438
6147.95809,0.06732
6149.88655,0.05107
6151.81502,0.04941
6153.74349,0.04715
6155.67196,0.03999
6157.60043,0.04231
6159.52890,0.05321
6161.45737,0.04512
6163.38583,0.01641
6165.31430,0.00554
6167.24277,0.02248
6169.17124,0.03481
6171.09971,0.04105
6173.02818,0.05476
6174.95665,0.06328
6176.88512,0.07123
6178.81358,0.09547
6180.74205,0.10312
6182.67052,0.06580
6184.59899,0.04394
6186.52746,0.06915
6188.45593,0.06425
6190.38440,0.01642
6192.31286,0.01858
6194.24133,0.06827
6196.16980,0.10174
6198.09827,0.11269
6200.02674,0.09747
6201.95521,0.06401
6203.88368,0.05293
6205.81215,0.06875
6207.74061,0.10179
6209.66908,0.14477
6211.59755,0.15588
6213.52602,0.13085
6215.45449,0.11413
6217.38296,0.11026
6219.31143,0.09524
6221.23989,0.08560
6223.16836,0.09672
6225.09683,0.10921
6227.02530,0.12772
6228.95377,0.15986
6230.88224,0.17944
6232.81071,0.15923
6234.73918,0.09554
6236.66764,0.03811
6238.59611,0.04998
6240.52458,0.11505
6242.45305,0.16831
6244.38152,0.19941
6246.30999,0.21152
6248.23846,0.18172
6250.16692,0.14650
6252.09539,0.14657
6254.02386,0.14011
6255.95233,0.11736
6257.88080,0.09016
6259.80927,0.04639
6261.73774,0.02927
6263.66621,0.09604
6265.59467,0.18865
6267.52314,0.19217
6269.45161,0.13922
6271.38008,0.10558
6273.30855,0.09326
6275.23702,0.09604
6277.16549,0.07998
6279.09395,0.04587
6281.02242,0.05332
6282.95089,0.08305
6284.87936,0.08800
6286.80783,0.08953
6288.73630,0.11012
6290.66477,0.12789
6292.59323,0.12447
6294.52170,0.12267
6296.45017,0.11738
6298.37864,0.07829
6300.30711,0.02607
6302.23558,0.01529
6304.16405,0.04274
6306.09252,0.05363
6308.02098,0.03896
6309.94945,0.02721
6311.87792,0.03751
6313.80639,0.06863
6315.73486,0.09867
6317.66333,0.09644
6319.59180,0.05856
6321.52026,0.03307
6323.44873,0.04960
6325.37720,0.07321
6327.30567,0.07532
6329.23414,0.06195
6331.16261,0.02986
6333.09108,-0.01263
6335.01955,-0.02476
6336.94801,-0.02123
6338.87648,-0.01600
6340.80495,0.01896
6342.73342,0.04697
6344.66189,0.01693
6346.59036,-0.02280
6348.51883,0.00222
6350.44729,0.04575
6352.37576,0.05124
6354.30423,0.04923
6356.23270,0.03911
6358.16117,0.02623
6360.08964,0.06537
6362.01811,0.14812
6363.94658,0.19374
6365.87504,0.17273
6367.80351,0.14298
6369.73198,0.12833
6371.66045,0.11976
6373.58892,0.14400
6375.51739,0.16961
6377.44586,0.14500
6379.37432,0.10023
6381.30279,0.08853
6383.23126,0.11465
6385.15973,0.12725
6387.08820,0.10177
6389.01667,0.08313
6390.94514,0.10069
6392.87361,0.10152
6394.80207,0.05601
6396.73054,0.04163
6398.65901,0.08342
6400.58748,0.10678
6402.51595,0.05046
6404.44442,-0.00677
6406.37289,0.04477
6408.30135,0.14834
6410.22982,0.16067
6412.15829,0.10599
6414.08676,0.09940
6416.01523,0.13102
6417.94370,0.12642
6419.87217,0.08543
6421.80064,0.07847
6423.72910,0.11127
6425.65757,0.13176
6427.58604,0.12951
6429.51451,0.13867
6431.44298,0.13342
6433.37145,0.08377
6435.29992,0.05870
6437.22838,0.06106
6439.15685,0.01679
6441.08532,-0.02862
6443.01379,-0.02521
6444.94226,-0.04314
6446.87073,-0.08938
6448.79920,-0.07361
6450.72766,-0.00333
6452.65613,0.03871
6454.58460,0.05204
6456.51307,0.07880
6458.44154,0.09508
6460.37001,0.03699
6462.29848,-0.05625
6464.22695,-0.04600
6466.15541,0.06317
6468.08388,0.13016
6470.01235,0.12311
6471.94082,0.09060
6473.86929,0.06199
6475.79776,0.08959
6477.72623,0.18740
6479.65469,0.24974
6481.58316,0.19328
6483.51163,0.09834
6485.44010,0.03219
6487.36857,-0.02055
6489.29704,-0.03326
6491.22551,-0.00732
6493.15398,0.00878
6495.08244,0.02343
6497.01091,0.08171
6498.93938,0.17362
6500.86785,0.21967
6502.79632,0.18436
6504.72479,0.12358
6506.65326,0.06272
6508.58172,0.04373
6510.51019,0.08343
6512.43866,0.09182
6514.36713,0.05136
6516.29560,0.03181
6518.22407,0.05212
6520.15254,0.08341
6522.08101,0.09987
6524.00947,0.09866
6525.93794,0.10221
6527.86641,0.11034
6529.79488,0.09024
6531.72335,0.06467
6533.65182,0.07087
6535.58029,0.09352
6537.50875,0.10164
6539.43722,0.06596
6541.36569,0.01987
6543.29416,0.02178
6545.22263,0.05098
6547.15110,0.08505
6549.07957,0.11755
6551.00804,0.10652
6552.93650,0.05195
6554.86497,-0.01068
6556.79344,-0.05183
6558.72191,-0.05871
6560.65038,-0.00677
6562.57885,0.09351
6564.50732,0.09783
6566.43578,-0.04757
6568.36425,-0.15296
6570.29272,-0.08676
6572.22119,0.04633
6574.14966,0.05848
6576.07813,-0.01618
6578.00660,0.00842
6579.93507,0.14661
6581.86353,0.25842
6583.79200,0.25587
6585.72047,0.13923
6587.64894,0.03556
6589.57741,0.06325
6591.50588,0.14856
6593.43435,0.17848
6595.36281,0.15941
6597.29128,0.13755
6599.21975,0.09869
6601.14822,0.06204
6603.07669,0.07884
6605.00516,0.12138
6606.93363,0.12551
6608.86210,0.06522
6610.79056,-0.01303
6612.71903,-0.05000
6614.64750,-0.03836
6616.57597,-0.01174
6618.50444,0.01436
6620.43291,0.01690
6622.36138,-0.00818
6624.28984,0.00255
6626.21831,0.04383
6628.14678,0.05521
6630.07525,0.04250
6632.00372,0.02612
6633.93219,-0.01264
6635.86066,-0.05715
6637.78912,-0.03953
6639.71759,0.02016
6641.64606,0.03164
6643.57453,0.01259
6645.50300,0.05886
6647.43147,0.10493
6649.35994,0.08221
6651.28841,0.08590
6653.21687,0.11210
6655.14534,0.08232
6657.07381,0.00180
6659.00228,-0.07538
6660.93075,-0.07071
6662.85922,-0.00161
6664.78769,0.03609
6666.71615,0.06518
6668.64462,0.10145
6670.57309,0.10459
6672.50156,0.12571
6674.43003,0.17862
6676.35850,0.18296
6678.28697,0.14587
6680.21544,0.11075
6682.14390,0.06925
6684.07237,0.04340
6686.00084,0.06301
6687.92931,0.08738
6689.85778,0.05836
6691.78625,0.02660
6693.71472,0.06153
6695.64318,0.11824
6697.57165,0.12742
6699.50012,0.10639
6701.42859,0.09339
6703.35706,0.08106
6705.28553,0.06929
6707.21400,0.06784
6709.14247,0.04658
6711.07093,0.03829
6712.99940,0.10188
6714.92787,0.16544
6716.85634,0.13489
6718.78481,0.07108
6720.71328,0.05588
6722.64175,0.04747
6724.57021,-0.01327
6726.49868,-0.08753
6728.42715,-0.08318
6730.35562,0.02074
6732.28409,0.11018
6734.21256,0.12006
6736.14103,0.09332
6738.06950,0.05760
6739.99796,0.02362
6741.92643,0.00540
6743.85490,0.03343
6745.78337,0.11649
6747.71184,0.16866
6749.64031,0.12291
6751.56878,0.04262
6753.49724,0.00142
6755.42571,0.01570
6757.35418,0.04470
6759.28265,0.04629
6761.21112,0.02465
6763.13959,0.01386
6765.06806,0.04425
6766.99653,0.10980
6768.92499,0.15948
6770.85346,0.16285
6772.78193,0.14364
6774.71040,0.13806
6776.63887,0.12183
6778.56734,0.08612
6780.49581,0.09115
6782.42427,0.11501
6784.35274,0.10213
6786.28121,0.09685
6788.20968,0.11252
6790.13815,0.08124
6792.06662,-0.00636
6793.99509,-0.06387
6795.92355,-0.04066
6797.85202,0.01270
6799.78049,0.03759
6801.70896,0.07562
6803.63743,0.16591
6805.56590,0.19783
6807.49437,0.10671
6809.42284,0.02622
6811.35130,0.05519
6813.27977,0.09277
6815.20824,0.08717
6817.13671,0.09785
6819.06518,0.07907
6820.99365,0.04474
6822.92212,0.08197
6824.85058,0.11099
6826.77905,0.04150
6828.70752,-0.05117
6830.63599,-0.04566
6832.56446,0.04923
6834.49293,0.11391
6836.42140,0.11777
6838.34987,0.13766
6840.27833,0.14042
6842.20680,0.05164
6844.13527,-0.04278
6846.06374,-0.03196
6847.99221,0.03933
6849.92068,0.04500
6851.84915,0.03374
6853.77761,0.10012
6855.70608,0.16914
6857.63455,0.15266
6859.56302,0.09114
6861.49149,0.05872
6863.41996,0.06368
6865.34843,0.02874
6867.27690,-0.04628
6869.20536,-0.05366
6871.13383,0.06088
6873.06230,0.18201
6874.99077,0.19102
6876.91924,0.18991
6878.84771,0.22220
6880.77618,0.22478
6882.70464,0.16611
6884.63311,0.03573
6886.56158,-0.08763
6888.49005,-0.11542
6890.41852,-0.09225
6892.34699,-0.03245
6894.27546,0.07734
6896.20393,0.12700
6898.13239,0.06679
6900.06086,-0.02814
6901.98933,-0.11111
6903.91780,-0.12892
6905.84627,-0.02144
6907.77474,0.15211
6909.70321,0.27236
6911.63167,0.33248
6913.56014,0.32371
6915.48861,0.21301
6917.41708,0.09688
6919.34555,0.07337
6921.27402,0.07593
6923.20249,0.02278
6925.13096,0.01696
6927.05942,0.10184
6928.98789,0.14299
6930.91636,0.08451
6932.84483,0.03766
6934.77330,0.03179
6936.70177,-0.00482
6938.63024,-0.05910
6940.55870,0.00162
6942.48717,0.13550
6944.41564,0.15467
6946.34411,0.12098
6948.27258,0.13740
6950.20105,0.13480
6952.12952,0.11024
6954.05799,0.11435
6955.98645,0.09992
6957.91492,0.07130
6959.84339,0.07146
6961.77186,0.07463
6963.70033,0.09180
6965.62880,0.13178
6967.55727,0.15032
6969.48573,0.15423
6971.41420,0.12561
6973.34267,-0.00404
6975.27114,-0.08125
6977.19961,-0.03330
6979.12808,-0.05328
6981.05655,-0.12056
6982.98501,-0.10752
6984.91348,-0.00552
6986.84195,0.04600
6988.77042,-0.08185
6990.69889,-0.20958
6992.62736,-0.17136
6994.55583,-0.08523
6996.48430,-0.04423
6998.41276,-0.00110
7000.34123,0.08231
7002.26970,0.15722
7004.19817,0.19479
7006.12664,0.23187
7008.05511,0.24560
7009.98358,0.20111
7011.91204,0.18882
7013.84051,0.20201
7015.76898,0.14462
7017.69745,0.11812
7019.62592,0.13791
7021.55439,0.09576
7023.48286,0.06507
7025.41133,0.11323
7027.33979,0.13383
7029.26826,0.12144
7031.19673,0.16440
7033.12520,0.17283
7035.05367,0.08922
7036.98214,-0.00859
7038.91061,-0.11491
7040.83907,-0.13437
7042.76754,0.05389
7044.69601,0.21250
7046.62448,0.15277
7048.55295,0.03791
7050.48142,-0.04540
7052.40989,-0.14321
7054.33836,-0.21190
7056.26682,-0.15586
7058.19529,0.00559
7060.12376,0.13146
7062.05223,0.15985
7063.98070,0.06753
7065.90917,-0.08717
7067.83764,-0.16280
7069.76610,-0.09063
7071.69457,0.03612
7073.62304,0.06838
7075.55151,0.08083
7077.47998,0.13244
7079.40845,0.10822
7081.33692,0.01602
7083.26539,0.05574
7085.19385,0.12564
7087.12232,0.09461
7089.05079,0.05969
7090.97926,0.05113
7092.90773,0.04616
7094.83620,0.10577
7096.76467,0.12417
7098.69313,0.04299
7100.62160,0.02269
7102.55007,0.01235
7104.47854,-0.04817
7106.40701,-0.03960
7108.33548,0.02797
7110.26395,0.04671
7112.19242,-0.00822
7114.12088,-0.04795
7116.04935,0.00950
7117.97782,0.07991
7119.90629,0.13544
7121.83476,0.20805
7123.76323,0.19464
7125.69170,0.09432
7127.62016,0.00066
7129.54863,0.02174
7131.47710,0.18225
7133.40557,0.29068
7135.33404,0.24370
7137.26251,0.18182
7139.19098,0.19098
7141.11944,0.27244
7143.04791,0.37417
7144.97638,0.34421
7146.90485,0.19016
7148.83332,0.11872
7150.76179,0.10554
7152.69026,0.07677
7154.61873,0.07316
7156.54719,0.04324
7158.47566,-0.05190
7160.40413,-0.10783
7162.33260,-0.09270
7164.26107,-0.09950
7166.18954,-0.08025
7168.11801,0.05719
7170.04647,0.20730
7171.97494,0.22756
7173.90341,0.09426
7175.83188,-0.08182
7177.76035,-0.10549
7179.68882,0.03575
7181.61729,0.18517
7183.54576,0.24987
7185.47422,0.24808
7187.40269,0.15773
7189.33116,-0.03158
7191.25963,-0.15941
7193.18810,-0.11343
7195.11657,-0.08676
7197.04504,-0.13383
7198.97350,-0.11649
7200.90197,-0.05437
7202.83044,0.00165
7204.75891,0.08991
7206.68738,0.10694
7208.61585,0.00981
7210.54432,-0.05783
7212.47279,-0.05738
7214.40125,-0.07516
7216.32972,-0.12605
7218.25819,-0.13785
7220.18666,-0.15666
7222.11513,-0.19970
7224.04360,-0.22471
7225.97207,-0.21902
7227.90053,-0.21497
7229.82900,-0.12192
7231.75747,0.07478
7233.68594,0.24406
7235.61441,0.38978
7237.54288,0.36619
7239.47135,0.10712
7241.39982,-0.04928
7243.32828,0.02633
7245.25675,0.12422
7247.18522,0.19183
7249.11369,0.24584
7251.04216,0.30429
7252.97063,0.27439
7254.89910,0.11150
7256.82756,0.02552
7258.75603,0.04145
7260.68450,0.13939
7262.61297,0.24835
7264.54144,0.24940
7266.46991,0.17481
7268.39838,0.13150
7270.32685,0.16795
7272.25531,0.16372
7274.18378,0.07580
7276.11225,0.08273
7278.04072,0.13025
7279.96919,0.04611
7281.89766,-0.09505
7283.82613,-0.10156
7285.75459,-0.06291
7287.68306,-0.04208
7289.61153,0.02736
7291.54000,0.11146
7293.46847,0.08629
7295.39694,-0.01209
7297.32541,-0.03763
7299.25387,0.01899
7301.18234,0.09255
7303.11081,0.17052
7305.03928,0.20312
7306.96775,0.15730
7308.89622,0.07849
7310.82469,0.00305
7312.75316,0.00315
7314.68162,0.07618
7316.61009,0.14032
7318.53856,0.22326
7320.46703,0.33507
7322.39550,0.36493
7324.32397,0.26715
7326.25244,0.13904
7328.18090,0.11938
7330.10937,0.20402
7332.03784,0.23064
7333.96631,0.24643
7335.89478,0.28222
7337.82325,0.25146
7339.75172,0.14316
7341.68019,0.09760
7343.60865,0.09116
7345.53712,0.02605
7347.46559,-0.13437
7349.39406,-0.22235
7351.32253,-0.06330
7353.25100,0.18094
7355.17947,0.33692
7357.10793,0.43284
7359.03640,0.42429
7360.96487,0.24527
7362.89334,0.08709
7364.82181,-0.04895
7366.75028,-0.19924
7368.67875,-0.09252
7370.60722,0.17413
7372.53568,0.27165
7374.46415,0.19805
7376.39262,0.10240
7378.32109,0.11416
7380.24956,0.16278
7382.17803,0.12305
7384.10650,0.06150
7386.03496,0.13875
7387.96343,0.29877
7389.89190,0.36506
7391.82037,0.26121
7393.74884,0.06976
7395.67731,-0.07264
7397.60578,-0.12436
7399.53425,-0.07128
7401.46271,0.01301
7403.39118,0.05960
7405.31965,0.08444
7407.24812,0.08140
7409.17659,0.02598
7411.10506,-0.06768
7413.03353,-0.09051
7414.96199,-0.00208
7416.89046,0.04297
7418.81893,-0.11873
7420.74740,-0.19625
7422.67587,-0.05980
7424.60434,0.00803
7426.53281,-0.09671
7428.46128,-0.26617
7430.38974,-0.17939
7432.31821,0.11862
7434.24668,0.21753
7436.17515,0.16608
7438.10362,0.19839
7440.03209,0.25198
7441.96056,0.18039
7443.88902,0.05515
7445.81749,-0.02435
7447.74596,-0.04126
7449.67443,0.07006
7451.60290,0.21671
7453.53137,0.18537
7455.45984,0.11129
7457.38831,0.12144
7459.31677,0.18139
7461.24524,0.20469
7463.17371,0.12431
7465.10218,0.00475
7467.03065,-0.00920
7468.95912,0.06973
7470.88759,0.09759
7472.81605,0.06087
7474.74452,0.08562
7476.67299,0.11618
7478.60146,0.03126
7480.52993,-0.02601
7482.45840,0.11525
7484.38687,0.28452
7486.31533,0.25930
7488.24380,0.05889
7490.17227,-0.03806
7492.10074,0.04966
7494.02921,0.14080
7495.95768,0.15965
7497.88615,0.09142
