399.19301,0.57392
401.12148,-0.31511
403.04995,0.06007
404.97842,0.27464
406.90689,0.33423
408.83536,0.29405
410.76382,0.19360
412.69229,0.08080
414.62076,0.03370
416.54923,0.10767
418.47770,0.21135
420.40617,0.20511
422.33464,0.21318
424.26311,0.25076
426.19157,0.23363
428.12004,0.13929
430.04851,0.02172
431.97698,0.00733
433.90545,0.06199
435.83392,0.08026
437.76239,0.05927
439.69085,0.02679
441.61932,0.02401
443.54779,0.09562
445.47626,0.19275
447.40473,0.16633
449.33320,0.04873
451.26167,0.02370
453.19013,0.07860
455.11860,0.13695
457.04707,0.21250
458.97554,0.24981
460.90401,0.17820
462.83248,0.06490
464.76095,-0.00100
466.68942,-0.01380
468.61788,-0.01518
470.54635,0.01256
472.47482,0.07561
474.40329,0.09830
476.33176,0.10163
478.26023,0.11993
480.18870,0.12591
482.11716,0.10024
484.04563,0.04576
485.97410,0.02267
487.90257,0.05019
489.83104,0.07565
491.75951,0.06131
493.68798,0.00989
495.61645,-0.04580
497.54491,-0.05175
499.47338,-0.01594
501.40185,0.00569
503.33032,0.00136
505.25879,-0.00277
507.18726,0.00986
509.11573,0.02828
511.04419,0.03219
512.97266,0.01885
514.90113,0.02015
516.82960,0.06442
518.75807,0.09291
520.68654,0.07511
522.61501,0.06209
524.54348,0.04533
526.47194,0.01886
528.40041,0.02998
530.32888,0.06701
532.25735,0.09490
534.18582,0.09137
536.11429,0.06356
538.04276,0.03568
539.97122,0.01401
541.89969,0.01043
543.82816,0.01279
545.75663,0.01099
547.68510,0.02342
549.61357,0.05648
551.54204,0.07670
553.47051,0.07006
555.39897,0.09215
557.32744,0.12919
559.25591,0.11813
561.18438,0.08216
563.11285,0.06795
565.04132,0.08244
566.96979,0.10970
568.89825,0.12002
570.82672,0.11850
572.75519,0.12443
574.68366,0.10790
576.61213,0.06965
578.54060,0.06732
580.46907,0.10196
582.39754,0.12020
584.32600,0.10708
586.25447,0.09231
588.18294,0.08929
590.11141,0.09854
592.03988,0.11562
593.96835,0.12710
595.89682,0.12699
597.82528,0.11068
599.75375,0.07781
601.68222,0.05418
603.61069,0.07034
605.53916,0.09888
607.46763,0.10292
609.39610,0.09903
611.32456,0.10387
613.25303,0.11010
615.18150,0.10995
617.10997,0.10286
619.03844,0.09679
620.96691,0.09004
622.89538,0.07657
624.82385,0.07560
626.75231,0.10298
628.68078,0.13547
630.60925,0.13742
632.53772,0.11369
634.46619,0.09829
636.39466,0.09789
638.32313,0.10154
640.25159,0.11162
642.18006,0.11963
644.10853,0.11029
646.03700,0.10363
647.96547,0.11741
649.89394,0.13235
651.82241,0.13507
653.75088,0.12215
655.67934,0.09519
657.60781,0.08222
659.53628,0.10121
661.46475,0.12025
663.39322,0.11638
665.32169,0.11443
667.25016,0.13604
669.17862,0.15494
671.10709,0.14477
673.03556,0.13380
674.96403,0.12948
676.89250,0.13182
678.82097,0.12889
680.74944,0.11658
682.67791,0.11258
684.60637,0.11776
686.53484,0.12663
688.46331,0.14488
690.39178,0.15335
692.32025,0.13050
694.24872,0.09794
696.17719,0.08427
698.10565,0.09265
700.03412,0.11039
701.96259,0.12223
703.89106,0.12935
705.81953,0.14094
707.74800,0.15006
709.67647,0.15292
711.60494,0.15200
713.53340,0.13714
715.46187,0.11864
717.39034,0.11497
719.31881,0.11550
721.24728,0.11438
723.17575,0.11765
725.10422,0.12183
727.03268,0.12276
728.96115,0.12614
730.88962,0.13329
732.81809,0.13266
734.74656,0.12396
736.67503,0.11700
738.60350,0.11175
740.53197,0.11050
742.46043,0.11611
744.38890,0.11909
746.31737,0.11948
748.24584,0.12405
750.17431,0.12765
752.10278,0.12595
754.03125,0.12017
755.95971,0.11882
757.88818,0.12394
759.81665,0.12855
761.74512,0.13551
763.67359,0.13553
765.60206,0.11733
767.53053,0.10024
769.45900,0.09698
771.38746,0.10035
773.31593,0.11126
775.24440,0.12608
777.17287,0.12879
779.10134,0.11698
781.02981,0.10777
782.95828,0.10682
784.88674,0.10830
786.81521,0.11529
788.74368,0.12536
790.67215,0.13359
792.60062,0.13776
794.52909,0.13155
796.45756,0.12100
798.38602,0.12107
800.31449,0.13126
802.24296,0.13635
804.17143,0.13534
806.09990,0.13511
808.02837,0.12433
809.95684,0.10586
811.88531,0.10118
813.81377,0.10651
815.74224,0.10732
817.67071,0.10500
819.59918,0.10824
821.52765,0.11888
823.45612,0.12773
825.38459,0.13202
827.31305,0.13174
829.24152,0.12760
831.16999,0.12730
833.09846,0.13037
835.02693,0.12974
836.95540,0.12629
838.88387,0.12992
840.81234,0.13893
842.74080,0.14305
844.66927,0.14128
846.59774,0.13545
848.52621,0.12840
850.45468,0.12522
852.38315,0.12560
854.31162,0.12691
856.24008,0.13256
858.16855,0.13960
860.09702,0.13962
862.02549,0.13405
863.95396,0.12807
865.88243,0.13097
867.81090,0.16569
869.73937,0.22544
871.66783,0.23715
873.59630,0.17996
875.52477,0.13082
877.45324,0.12253
879.38171,0.12369
881.31018,0.11994
883.23865,0.11857
885.16711,0.11982
887.09558,0.11686
889.02405,0.11413
890.95252,0.11921
892.88099,0.13010
894.80946,0.13644
896.73793,0.13363
898.66640,0.13222
900.59486,0.13677
902.52333,0.14251
904.45180,0.14721
906.38027,0.14617
908.30874,0.14345
910.23721,0.14490
912.16568,0.14546
914.09414,0.14761
916.02261,0.15100
917.95108,0.14839
919.87955,0.14059
921.80802,0.13191
923.73649,0.12789
925.66496,0.13141
927.59343,0.13929
929.52189,0.14330
931.45036,0.13942
933.37883,0.13435
935.30730,0.13227
937.23577,0.13064
939.16424,0.12891
941.09271,0.12839
943.02117,0.12966
944.94964,0.13105
946.87811,0.13082
948.80658,0.13201
950.73505,0.13509
952.66352,0.13751
954.59199,0.14004
956.52045,0.14237
958.44892,0.14345
960.37739,0.14339
962.30586,0.14176
964.23433,0.14052
966.16280,0.14037
968.09127,0.13978
970.01974,0.14098
971.94820,0.13919
973.87667,0.12764
975.80514,0.11971
977.73361,0.12775
979.66208,0.14022
981.59055,0.14281
983.51902,0.13749
985.44748,0.13317
987.37595,0.13207
989.30442,0.13278
991.23289,0.13634
993.16136,0.14197
995.08983,0.14675
997.01830,0.15201
998.94677,0.15834
1000.87523,0.15873
1002.80370,0.15519
1004.73217,0.15618
1006.66064,0.15620
1008.58911,0.15294
1010.51758,0.15249
1012.44605,0.15191
1014.37451,0.14723
1016.30298,0.14338
1018.23145,0.14486
1020.15992,0.15040
1022.08839,0.15289
1024.01686,0.14388
1025.94533,0.13749
1027.87380,0.14808
1029.80226,0.15525
1031.73073,0.15190
1033.65920,0.15567
1035.58767,0.15939
1037.51614,0.15355
1039.44461,0.14998
1041.37308,0.14931
1043.30154,0.14408
1045.23001,0.14012
1047.15848,0.13845
1049.08695,0.13433
1051.01542,0.13297
1052.94389,0.13690
1054.87236,0.14503
1056.80083,0.15148
1058.72929,0.14951
1060.65776,0.14881
1062.58623,0.15440
1064.51470,0.15886
1066.44317,0.15870
1068.37164,0.15710
1070.30011,0.15805
1072.22857,0.15995
1074.15704,0.16615
1076.08551,0.17647
1078.01398,0.17780
1079.94245,0.16930
1081.87092,0.16283
1083.79939,0.16166
1085.72786,0.16046
1087.65632,0.15536
1089.58479,0.15021
1091.51326,0.15122
1093.44173,0.15714
1095.37020,0.16057
1097.29867,0.15790
1099.22714,0.15501
1101.15560,0.15443
1103.08407,0.15187
1105.01254,0.15238
1106.94101,0.16167
1108.86948,0.17105
1110.79795,0.17151
1112.72642,0.16705
1114.65489,0.16284
1116.58335,0.15658
1118.51182,0.14679
1120.44029,0.13703
1122.36876,0.13394
1124.29723,0.14219
1126.22570,0.15411
1128.15417,0.15517
1130.08263,0.14666
1132.01110,0.14306
1133.93957,0.14646
1135.86804,0.14742
1137.79651,0.14611
1139.72498,0.14879
1141.65345,0.15375
1143.58191,0.15694
1145.51038,0.15829
1147.43885,0.15958
1149.36732,0.16049
1151.29579,0.15695
1153.22426,0.14936
1155.15273,0.14686
1157.08120,0.15198
1159.00966,0.15611
1160.93813,0.15712
1162.86660,0.15931
1164.79507,0.16405
1166.72354,0.16855
1168.65201,0.16805
1170.58048,0.16251
1172.50894,0.15412
1174.43741,0.14629
1176.36588,0.14362
1178.29435,0.14511
1180.22282,0.14881
1182.15129,0.15290
1184.07976,0.15618
1186.00823,0.15838
1187.93669,0.15716
1189.86516,0.15587
1191.79363,0.15785
1193.72210,0.15907
1195.65057,0.15764
1197.57904,0.15461
1199.50751,0.15218
1201.43597,0.15377
1203.36444,0.15756
1205.29291,0.16065
1207.22138,0.16472
1209.14985,0.16679
1211.07832,0.16429
1213.00679,0.16281
1214.93526,0.16248
1216.86372,0.15972
1218.79219,0.15794
1220.72066,0.15813
1222.64913,0.15863
1224.57760,0.16100
1226.50607,0.16287
1228.43454,0.16207
1230.36300,0.16241
1232.29147,0.16332
1234.21994,0.15883
1236.14841,0.15128
1238.07688,0.15040
1240.00535,0.15830
1241.93382,0.16793
1243.86229,0.17189
1245.79075,0.16764
1247.71922,0.16045
1249.64769,0.15829
1251.57616,0.15903
1253.50463,0.15716
1255.43310,0.15815
1257.36157,0.16197
1259.29003,0.15861
1261.21850,0.15250
1263.14697,0.15232
1265.07544,0.15166
1267.00391,0.14742
1268.93238,0.14560
1270.86085,0.15173
1272.78932,0.16327
1274.71778,0.16811
1276.64625,0.16556
1278.57472,0.16428
1280.50319,0.16294
1282.43166,0.16171
1284.36013,0.16418
1286.28860,0.16497
1288.21706,0.16293
1290.14553,0.16361
1292.07400,0.16522
1294.00247,0.16366
1295.93094,0.15940
1297.85941,0.15449
1299.78788,0.14789
1301.71634,0.13572
1303.64481,0.12140
1305.57328,0.12222
1307.50175,0.14378
1309.43022,0.16349
1311.35869,0.16896
1313.28716,0.16884
1315.21563,0.16840
1317.14409,0.16951
1319.07256,0.16929
1321.00103,0.16517
1322.92950,0.16276
1324.85797,0.16111
1326.78644,0.15765
1328.71491,0.15621
1330.64337,0.15449
1332.57184,0.15229
1334.50031,0.15426
1336.42878,0.15917
1338.35725,0.16506
1340.28572,0.16315
1342.21419,0.15236
1344.14266,0.14731
1346.07112,0.14775
1347.99959,0.14932
1349.92806,0.15480
1351.85653,0.15920
1353.78500,0.15959
1355.71347,0.16070
1357.64194,0.16349
1359.57040,0.16790
1361.49887,0.17410
1363.42734,0.17595
1365.35581,0.17204
1367.28428,0.17055
1369.21275,0.17233
1371.14122,0.17538
1373.06969,0.18030
1374.99815,0.18134
1376.92662,0.17764
1378.85509,0.17729
1380.78356,0.17972
1382.71203,0.18037
1384.64050,0.18110
1386.56897,0.18420
1388.49743,0.18552
1390.42590,0.18402
1392.35437,0.18516
1394.28284,0.19113
1396.21131,0.19881
1398.13978,0.20374
1400.06825,0.19942
1401.99672,0.18894
1403.92518,0.18226
1405.85365,0.18000
1407.78212,0.17980
1409.71059,0.17993
1411.63906,0.17844
1413.56753,0.17867
1415.49600,0.18583
1417.42446,0.19996
1419.35293,0.20646
1421.28140,0.19948
1423.20987,0.19346
1425.13834,0.18736
1427.06681,0.18293
1428.99528,0.18441
1430.92375,0.18575
1432.85221,0.18602
1434.78068,0.19054
1436.70915,0.19397
1438.63762,0.19013
1440.56609,0.18636
1442.49456,0.18363
1444.42303,0.18252
1446.35149,0.18635
1448.27996,0.19152
1450.20843,0.19329
1452.13690,0.19576
1454.06537,0.20612
1455.99384,0.22850
1457.92231,0.23275
1459.85077,0.20543
1461.77924,0.19142
1463.70771,0.19481
1465.63618,0.19832
1467.56465,0.19479
1469.49312,0.19952
1471.42159,0.21727
1473.35006,0.22858
1475.27852,0.21840
1477.20699,0.20409
1479.13546,0.19480
1481.06393,0.19110
1482.99240,0.18994
1484.92087,0.19261
1486.84934,0.20298
1488.77780,0.21382
1490.70627,0.20931
1492.63474,0.20301
1494.56321,0.21123
1496.49168,0.22618
1498.42015,0.22397
1500.34862,0.20573
1502.27709,0.19148
1504.20555,0.19691
1506.13402,0.24003
1508.06249,0.26701
1509.99096,0.24013
1511.91943,0.21960
1513.84790,0.21589
1515.77637,0.22755
1517.70483,0.23975
1519.63330,0.24608
1521.56177,0.25418
1523.49024,0.24872
1525.41871,0.23455
1527.34718,0.22359
1529.27565,0.21902
1531.20412,0.22304
1533.13258,0.23075
1535.06105,0.22943
1536.98952,0.23040
1538.91799,0.25538
1540.84646,0.28833
1542.77493,0.27368
1544.70340,0.24095
1546.63186,0.21700
1548.56033,0.20935
1550.48880,0.20984
1552.41727,0.21411
1554.34574,0.22667
1556.27421,0.24911
1558.20268,0.27299
1560.13115,0.24450
1562.05961,0.21365
1563.98808,0.20701
1565.91655,0.20933
1567.84502,0.21544
1569.77349,0.21561
1571.70196,0.20636
1573.63043,0.20688
1575.55889,0.21563
1577.48736,0.21124
1579.41583,0.19969
1581.34430,0.19118
1583.27277,0.18408
1585.20124,0.18185
1587.12971,0.18473
1589.05818,0.18619
1590.98664,0.18648
1592.91511,0.19069
1594.84358,0.19437
1596.77205,0.19200
1598.70052,0.18881
1600.62899,0.19006
1602.55746,0.19350
1604.48592,0.19472
1606.41439,0.19438
1608.34286,0.19337
1610.27133,0.18995
1612.19980,0.18828
1614.12827,0.19412
1616.05674,0.20451
1617.98521,0.20508
1619.91367,0.20207
1621.84214,0.20665
1623.77061,0.20942
1625.69908,0.20592
1627.62755,0.20509
1629.55602,0.20498
1631.48449,0.20767
1633.41295,0.22327
1635.34142,0.24805
1637.26989,0.24235
1639.19836,0.21864
1641.12683,0.20678
1643.05530,0.21268
1644.98377,0.23692
1646.91223,0.25903
1648.84070,0.25213
1650.76917,0.25017
1652.69764,0.26365
1654.62611,0.24575
1656.55458,0.21823
1658.48305,0.20574
1660.41152,0.20387
1662.33998,0.20754
1664.26845,0.20778
1666.19692,0.20991
1668.12539,0.22388
1670.05386,0.23729
1671.98233,0.23263
1673.91080,0.22573
1675.83926,0.21977
1677.76773,0.21453
1679.69620,0.21824
1681.62467,0.23231
1683.55314,0.24749
1685.48161,0.23839
1687.41008,0.22130
1689.33855,0.21136
1691.26701,0.20411
1693.19548,0.20576
1695.12395,0.22407
1697.05242,0.24461
1698.98089,0.24710
1700.90936,0.23710
1702.83783,0.22957
1704.76629,0.22905
1706.69476,0.22429
1708.62323,0.21230
1710.55170,0.20447
1712.48017,0.20722
1714.40864,0.21994
1716.33711,0.23268
1718.26558,0.22359
1720.19404,0.20574
1722.12251,0.19868
1724.05098,0.19708
1725.97945,0.19595
1727.90792,0.19777
1729.83639,0.20391
1731.76486,0.21566
1733.69332,0.22726
1735.62179,0.22324
1737.55026,0.21872
1739.47873,0.22069
1741.40720,0.22105
1743.33567,0.21744
1745.26414,0.21501
1747.19261,0.21889
1749.12107,0.22382
1751.04954,0.21613
1752.97801,0.20315
1754.90648,0.19874
1756.83495,0.20016
1758.76342,0.20035
1760.69189,0.19955
1762.62035,0.19630
1764.54882,0.19257
1766.47729,0.19595
1768.40576,0.20724
1770.33423,0.22153
1772.26270,0.22512
1774.19117,0.21106
1776.11964,0.20031
1778.04810,0.20006
1779.97657,0.20383
1781.90504,0.20548
1783.83351,0.20467
1785.76198,0.20035
1787.69045,0.19655
1789.61892,0.20274
1791.54738,0.21701
1793.47585,0.22059
1795.40432,0.21119
1797.33279,0.20542
1799.26126,0.20748
1801.18973,0.20706
1803.11820,0.19818
1805.04666,0.19025
1806.97513,0.19018
1808.90360,0.19568
1810.83207,0.19926
1812.76054,0.19595
1814.68901,0.19028
1816.61748,0.18377
1818.54595,0.17580
1820.47441,0.17306
1822.40288,0.18049
1824.33135,0.19493
1826.25982,0.20599
1828.18829,0.21250
1830.11676,0.21549
1832.04523,0.20801
1833.97369,0.19887
1835.90216,0.19589
1837.83063,0.19643
1839.75910,0.19772
1841.68757,0.20330
1843.61604,0.21269
1845.54451,0.21217
1847.47298,0.20227
1849.40144,0.19409
1851.32991,0.18978
1853.25838,0.18843
1855.18685,0.18876
1857.11532,0.18899
1859.04379,0.18896
1860.97226,0.18978
1862.90072,0.19011
1864.82919,0.19228
1866.75766,0.20188
1868.68613,0.21057
1870.61460,0.20479
1872.54307,0.19590
1874.47154,0.19212
1876.40001,0.19005
1878.32847,0.18943
1880.25694,0.19086
1882.18541,0.19250
1884.11388,0.19326
1886.04235,0.19403
1887.97082,0.19726
1889.89929,0.19974
1891.82775,0.19739
1893.75622,0.19475
1895.68469,0.19215
1897.61316,0.18789
1899.54163,0.18576
1901.47010,0.18755
1903.39857,0.19206
1905.32704,0.19716
1907.25550,0.20075
1909.18397,0.19983
1911.11244,0.19421
1913.04091,0.19052
1914.96938,0.19234
1916.89785,0.19590
1918.82632,0.19605
1920.75478,0.19481
1922.68325,0.19511
1924.61172,0.19382
1926.54019,0.19189
1928.46866,0.19243
1930.39713,0.19302
1932.32560,0.19157
1934.25407,0.18997
1936.18253,0.19028
1938.11100,0.19312
1940.03947,0.19788
1941.96794,0.20179
1943.89641,0.20008
1945.82488,0.19339
1947.75335,0.18797
1949.68181,0.18818
1951.61028,0.19211
1953.53875,0.19439
1955.46722,0.19390
1957.39569,0.19205
1959.32416,0.19111
1961.25263,0.19244
1963.18110,0.19405
1965.10956,0.19581
1967.03803,0.19594
1968.96650,0.19261
1970.89497,0.19099
1972.82344,0.19244
1974.75191,0.19124
1976.68038,0.18565
1978.60884,0.18055
1980.53731,0.18160
1982.46578,0.18809
1984.39425,0.19268
1986.32272,0.19345
1988.25119,0.19402
1990.17966,0.19475
1992.10812,0.19343
1994.03659,0.18977
1995.96506,0.18866
1997.89353,0.19182
1999.82200,0.19376
2001.75047,0.19348
2003.67894,0.19386
2005.60741,0.19273
2007.53587,0.18929
2009.46434,0.18729
2011.39281,0.18766
2013.32128,0.18875
2015.24975,0.19184
2017.17822,0.19648
2019.10669,0.19702
2021.03515,0.19378
2022.96362,0.19218
2024.89209,0.19176
2026.82056,0.18976
2028.74903,0.18884
2030.67750,0.19125
2032.60597,0.19277
2034.53444,0.19204
2036.46290,0.19177
2038.39137,0.19124
2040.31984,0.18994
2042.24831,0.18896
2044.17678,0.18837
2046.10525,0.18751
2048.03372,0.18676
2049.96218,0.18775
2051.89065,0.19032
2053.81912,0.19317
2055.74759,0.19547
2057.67606,0.19617
2059.60453,0.19526
2061.53300,0.19461
2063.46147,0.19581
2065.38993,0.19818
2067.31840,0.19930
2069.24687,0.19863
2071.17534,0.19787
2073.10381,0.19732
2075.03228,0.19606
2076.96075,0.19421
2078.88921,0.19234
2080.81768,0.19084
2082.74615,0.19124
2084.67462,0.19411
2086.60309,0.19602
2088.53156,0.19475
2090.46003,0.19307
2092.38850,0.19319
2094.31696,0.19464
2096.24543,0.19666
2098.17390,0.19681
2100.10237,0.19362
2102.03084,0.19095
2103.95931,0.19285
2105.88778,0.19614
2107.81624,0.19556
2109.74471,0.19363
2111.67318,0.19387
2113.60165,0.19354
2115.53012,0.19219
2117.45859,0.19299
2119.38706,0.19532
2121.31553,0.19632
2123.24399,0.19620
2125.17246,0.19649
2127.10093,0.19628
2129.02940,0.19485
2130.95787,0.19282
2132.88634,0.19094
2134.81481,0.19048
2136.74327,0.19116
2138.67174,0.19286
2140.60021,0.19549
2142.52868,0.19611
2144.45715,0.19473
2146.38562,0.19405
2148.31409,0.19366
2150.24255,0.19377
2152.17102,0.19494
2154.09949,0.19503
2156.02796,0.19373
2157.95643,0.19321
2159.88490,0.19388
2161.81337,0.19438
2163.74184,0.19538
2165.67030,0.19798
2167.59877,0.19925
2169.52724,0.19787
2171.45571,0.19670
2173.38418,0.19615
2175.31265,0.19561
2177.24112,0.19580
2179.16958,0.19597
2181.09805,0.19508
2183.02652,0.19386
2184.95499,0.19348
2186.88346,0.19350
2188.81193,0.19341
2190.74040,0.19442
2192.66887,0.19570
2194.59733,0.19454
2196.52580,0.19254
2198.45427,0.19230
2200.38274,0.19204
2202.31121,0.19095
2204.23968,0.19087
2206.16815,0.19243
2208.09661,0.19393
2210.02508,0.19349
2211.95355,0.19290
2213.88202,0.19490
2215.81049,0.19758
2217.73896,0.19791
2219.66743,0.19726
2221.59590,0.19672
2223.52436,0.19545
2225.45283,0.19521
2227.38130,0.19624
2229.30977,0.19584
2231.23824,0.19438
2233.16671,0.19414
2235.09518,0.19429
2237.02364,0.19390
2238.95211,0.19486
2240.88058,0.19586
2242.80905,0.19500
2244.73752,0.19544
2246.66599,0.19816
2248.59446,0.19946
2250.52293,0.19845
2252.45139,0.19815
2254.37986,0.19949
2256.30833,0.20007
2258.23680,0.19794
2260.16527,0.19393
2262.09374,0.19194
2264.02221,0.19440
2265.95067,0.19806
2267.87914,0.19923
2269.80761,0.19870
2271.73608,0.19917
2273.66455,0.20082
2275.59302,0.20131
2277.52149,0.20014
2279.44996,0.19849
2281.37842,0.19652
2283.30689,0.19464
2285.23536,0.19409
2287.16383,0.19527
2289.09230,0.19636
2291.02077,0.19431
2292.94924,0.19001
2294.87770,0.18884
2296.80617,0.19129
2298.73464,0.19303
2300.66311,0.19406
2302.59158,0.19658
2304.52005,0.19947
2306.44852,0.20079
2308.37699,0.20132
2310.30545,0.20075
2312.23392,0.19787
2314.16239,0.19461
2316.09086,0.19234
2318.01933,0.19156
2319.94780,0.19119
2321.87627,0.19015
2323.80473,0.19382
2325.73320,0.19960
2327.66167,0.19566
2329.59014,0.18462
2331.51861,0.17822
2333.44708,0.17812
2335.37555,0.18210
2337.30401,0.18886
2339.23248,0.19266
2341.16095,0.19316
2343.08942,0.19553
2345.01789,0.19583
2346.94636,0.19373
2348.87483,0.19297
2350.80330,0.19332
2352.73176,0.19904
2354.66023,0.20860
2356.58870,0.19948
2358.51717,0.16823
2360.44564,0.14542
2362.37411,0.15328
2364.30258,0.18045
2366.23104,0.19888
2368.15951,0.20391
2370.08798,0.20266
2372.01645,0.19839
2373.94492,0.19610
2375.87339,0.19698
2377.80186,0.19926
2379.73033,0.20053
2381.65879,0.19948
2383.58726,0.19716
2385.51573,0.19388
2387.44420,0.19064
2389.37267,0.18970
2391.30114,0.19103
2393.22961,0.19228
2395.15807,0.19205
2397.08654,0.19282
2399.01501,0.19524
2400.94348,0.19573
2402.87195,0.19579
2404.80042,0.19861
2406.72889,0.20144
2408.65736,0.20251
2410.58582,0.20237
2412.51429,0.20054
2414.44276,0.19801
2416.37123,0.19545
2418.29970,0.19362
2420.22817,0.19426
2422.15664,0.19573
2424.08510,0.19611
2426.01357,0.19645
2427.94204,0.19706
2429.87051,0.19856
2431.79898,0.20082
2433.72745,0.20031
2435.65592,0.19690
2437.58439,0.19511
2439.51285,0.19650
2441.44132,0.19812
2443.36979,0.19829
2445.29826,0.19784
2447.22673,0.19710
2449.15520,0.19574
2451.08367,0.19177
2453.01213,0.18742
2454.94060,0.19019
2456.86907,0.19751
2458.79754,0.19918
2460.72601,0.19507
2462.65448,0.19256
2464.58295,0.19453
2466.51142,0.19771
2468.43988,0.19735
2470.36835,0.19414
2472.29682,0.19354
2474.22529,0.19667
2476.15376,0.20010
2478.08223,0.20172
2480.01070,0.20136
2481.93916,0.19944
2483.86763,0.19705
2485.79610,0.19598
2487.72457,0.19640
2489.65304,0.19597
2491.58151,0.19383
2493.50998,0.19203
2495.43844,0.19309
2497.36691,0.19698
2499.29538,0.20023
2501.22385,0.20113
2503.15232,0.20144
2505.08079,0.20180
2507.00926,0.20248
2508.93773,0.20381
2510.86619,0.20339
2512.79466,0.20032
2514.72313,0.19657
2516.65160,0.19441
2518.58007,0.19695
2520.50854,0.20209
2522.43701,0.20327
2524.36547,0.20015
2526.29394,0.19718
2528.22241,0.19679
2530.15088,0.19815
2532.07935,0.19938
2534.00782,0.20039
2535.93629,0.20115
2537.86476,0.20030
2539.79322,0.19905
2541.72169,0.19978
2543.65016,0.20121
2545.57863,0.20006
2547.50710,0.19675
2549.43557,0.19541
2551.36404,0.19604
2553.29250,0.19725
2555.22097,0.20015
2557.14944,0.20235
2559.07791,0.20212
2561.00638,0.20138
2562.93485,0.20097
2564.86332,0.20039
2566.79179,0.19846
2568.72025,0.19584
2570.64872,0.19574
2572.57719,0.19904
2574.50566,0.20213
2576.43413,0.20255
2578.36260,0.20237
2580.29107,0.20355
2582.21953,0.20479
2584.14800,0.20269
2586.07647,0.19852
2588.00494,0.19746
2589.93341,0.19898
2591.86188,0.19972
2593.79035,0.20043
2595.71882,0.20104
2597.64728,0.19879
2599.57575,0.19531
2601.50422,0.19497
2603.43269,0.19763
2605.36116,0.20055
2607.28963,0.20206
2609.21810,0.20125
2611.14656,0.19960
2613.07503,0.19969
2615.00350,0.20048
2616.93197,0.20035
2618.86044,0.19939
2620.78891,0.19815
2622.71738,0.19858
2624.64585,0.20092
2626.57431,0.20302
2628.50278,0.20362
2630.43125,0.20307
2632.35972,0.20245
2634.28819,0.20214
2636.21666,0.20212
2638.14513,0.20176
2640.07359,0.20150
2642.00206,0.20160
2643.93053,0.20032
2645.85900,0.19941
2647.78747,0.20009
2649.71594,0.19992
2651.64441,0.19933
2653.57288,0.19963
2655.50134,0.20113
2657.42981,0.20385
2659.35828,0.20592
2661.28675,0.20623
2663.21522,0.20624
2665.14369,0.20562
2667.07216,0.20432
2669.00062,0.20550
2670.92909,0.20827
2672.85756,0.20964
2674.78603,0.20857
2676.71450,0.20520
2678.64297,0.20296
2680.57144,0.20389
2682.49990,0.20554
2684.42837,0.20649
2686.35684,0.20810
2688.28531,0.20937
2690.21378,0.20788
2692.14225,0.20606
2694.07072,0.20639
2695.99919,0.20736
2697.92765,0.20840
2699.85612,0.20864
2701.78459,0.20568
2703.71306,0.20134
2705.64153,0.20041
2707.57000,0.20287
2709.49847,0.20354
2711.42693,0.20156
2713.35540,0.20035
2715.28387,0.20153
2717.21234,0.20549
2719.14081,0.20859
2721.06928,0.20762
2722.99775,0.20597
2724.92622,0.20672
2726.85468,0.20876
2728.78315,0.21032
2730.71162,0.21060
2732.64009,0.20948
2734.56856,0.20885
2736.49703,0.20986
2738.42550,0.20907
2740.35396,0.20508
2742.28243,0.20265
2744.21090,0.20410
2746.13937,0.20679
2748.06784,0.20912
2749.99631,0.21021
2751.92478,0.20971
2753.85325,0.20878
2755.78171,0.20813
2757.71018,0.20756
2759.63865,0.20823
2761.56712,0.21084
2763.49559,0.21159
2765.42406,0.21004
2767.35253,0.21121
2769.28099,0.21390
2771.20946,0.21401
2773.13793,0.21361
2775.06640,0.21500
2776.99487,0.21576
2778.92334,0.21402
2780.85181,0.21116
2782.78028,0.20900
2784.70874,0.20824
2786.63721,0.20857
2788.56568,0.20954
2790.49415,0.21172
2792.42262,0.21450
2794.35109,0.21677
2796.27956,0.21870
2798.20802,0.21705
2800.13649,0.21096
2802.06496,0.20798
2803.99343,0.21091
2805.92190,0.21422
2807.85037,0.21498
2809.77884,0.21369
2811.70731,0.21177
2813.63577,0.21236
2815.56424,0.21511
2817.49271,0.21662
2819.42118,0.21636
2821.34965,0.21520
2823.27812,0.21382
2825.20659,0.21221
2827.13505,0.21012
2829.06352,0.21003
2830.99199,0.21245
2832.92046,0.21342
2834.84893,0.21226
2836.77740,0.21235
2838.70587,0.21551
2840.63433,0.21879
2842.56280,0.21889
2844.49127,0.21728
2846.41974,0.21502
2848.34821,0.21386
2850.27668,0.21562
2852.20515,0.21655
2854.13362,0.21612
2856.06208,0.21598
2857.99055,0.21432
2859.91902,0.21175
2861.84749,0.21035
2863.77596,0.21106
2865.70443,0.21393
2867.63290,0.21683
2869.56136,0.21842
2871.48983,0.21781
2873.41830,0.21256
2875.34677,0.20724
2877.27524,0.20883
2879.20371,0.21364
2881.13218,0.21445
2883.06065,0.21009
2884.98911,0.20631
2886.91758,0.20661
2888.84605,0.20850
2890.77452,0.21169
2892.70299,0.21446
2894.63146,0.21352
2896.55993,0.21253
2898.48839,0.21464
2900.41686,0.21718
2902.34533,0.21771
2904.27380,0.21307
2906.20227,0.20589
2908.13074,0.20517
2910.05921,0.20774
2911.98768,0.20570
2913.91614,0.20104
2915.84461,0.19843
2917.77308,0.20094
2919.70155,0.20637
2921.63002,0.20982
2923.55849,0.20925
2925.48696,0.20518
2927.41542,0.20515
2929.34389,0.21434
2931.27236,0.22212
2933.20083,0.21772
2935.12930,0.20381
2937.05777,0.19224
2938.98624,0.19641
2940.91471,0.21083
2942.84317,0.21743
2944.77164,0.21113
2946.70011,0.19849
2948.62858,0.19408
2950.55705,0.20340
2952.48552,0.21331
2954.41399,0.21167
2956.34245,0.19741
2958.27092,0.18908
2960.19939,0.20000
2962.12786,0.21485
2964.05633,0.22039
2965.98480,0.21435
2967.91327,0.20293
2969.84174,0.20173
2971.77020,0.20872
2973.69867,0.21049
2975.62714,0.20548
2977.55561,0.19927
2979.48408,0.20065
2981.41255,0.20964
2983.34102,0.21549
2985.26948,0.21437
2987.19795,0.21009
2989.12642,0.20850
2991.05489,0.21181
2992.98336,0.21604
2994.91183,0.21761
2996.84030,0.21636
2998.76877,0.21659
3000.69723,0.21998
3002.62570,0.22212
3004.55417,0.22043
3006.48264,0.21569
3008.41111,0.20952
3010.33958,0.19856
3012.26805,0.17453
3014.19651,0.13701
3016.12498,0.10663
3018.05345,0.11572
3019.98192,0.16005
3021.91039,0.19837
3023.83886,0.21494
3025.76733,0.21978
3027.69579,0.21848
3029.62426,0.21620
3031.55273,0.21579
3033.48120,0.21653
3035.40967,0.21828
3037.33814,0.21916
3039.26661,0.21852
3041.19508,0.21705
3043.12354,0.21571
3045.05201,0.21492
3046.98048,0.21349
3048.90895,0.21365
3050.83742,0.21469
3052.76589,0.21181
3054.69436,0.20552
3056.62282,0.19997
3058.55129,0.20260
3060.47976,0.21269
3062.40823,0.21848
3064.33670,0.21440
3066.26517,0.20541
3068.19364,0.20446
3070.12211,0.21286
3072.05057,0.21638
3073.97904,0.20994
3075.90751,0.20268
3077.83598,0.20627
3079.76445,0.21520
3081.69292,0.21410
3083.62139,0.20107
3085.54985,0.19205
3087.47832,0.20340
3089.40679,0.22151
3091.33526,0.22343
3093.26373,0.20889
3095.19220,0.19623
3097.12067,0.20010
3099.04914,0.20990
3100.97760,0.20998
3102.90607,0.20141
3104.83454,0.20042
3106.76301,0.21339
3108.69148,0.22253
3110.61995,0.21402
3112.54842,0.19926
3114.47688,0.19970
3116.40535,0.21200
3118.33382,0.21605
3120.26229,0.20893
3122.19076,0.20336
3124.11923,0.20585
3126.04770,0.21157
3127.97617,0.21602
3129.90463,0.21541
3131.83310,0.21562
3133.76157,0.22220
3135.69004,0.22532
3137.61851,0.22227
3139.54698,0.22074
3141.47545,0.22347
3143.40391,0.22632
3145.33238,0.22597
3147.26085,0.22246
3149.18932,0.21966
3151.11779,0.22080
3153.04626,0.22292
3154.97473,0.22435
3156.90320,0.22429
3158.83166,0.22177
3160.76013,0.21816
3162.68860,0.21531
3164.61707,0.21405
3166.54554,0.21580
3168.47401,0.22307
3170.40248,0.23275
3172.33094,0.23569
3174.25941,0.22870
3176.18788,0.22038
3178.11635,0.21725
3180.04482,0.21755
3181.97329,0.22133
3183.90176,0.22919
3185.83022,0.23627
3187.75869,0.23731
3189.68716,0.23472
3191.61563,0.23324
3193.54410,0.23185
3195.47257,0.23102
3197.40104,0.23419
3199.32951,0.23579
3201.25797,0.23198
3203.18644,0.22978
3205.11491,0.22833
3207.04338,0.22436
3208.97185,0.22337
3210.90032,0.22525
3212.82879,0.22730
3214.75725,0.23057
3216.68572,0.23118
3218.61419,0.22579
3220.54266,0.21958
3222.47113,0.21774
3224.39960,0.21684
3226.32807,0.21372
3228.25654,0.21212
3230.18500,0.21395
3232.11347,0.21689
3234.04194,0.21787
3235.97041,0.21654
3237.89888,0.21523
3239.82735,0.21502
3241.75582,0.21705
3243.68428,0.22093
3245.61275,0.22331
3247.54122,0.22306
3249.46969,0.22310
3251.39816,0.22602
3253.32663,0.22953
3255.25510,0.23095
3257.18357,0.23118
3259.11203,0.23070
3261.04050,0.23066
3262.96897,0.23142
3264.89744,0.23015
3266.82591,0.22814
3268.75438,0.22912
3270.68285,0.23117
3272.61131,0.23005
3274.53978,0.22744
3276.46825,0.22736
3278.39672,0.22795
3280.32519,0.22602
3282.25366,0.22215
3284.18213,0.21889
3286.11060,0.21620
3288.03906,0.21385
3289.96753,0.21458
3291.89600,0.21758
3293.82447,0.22068
3295.75294,0.22358
3297.68141,0.22414
3299.60988,0.22243
3301.53834,0.22128
3303.46681,0.21976
3305.39528,0.21755
3307.32375,0.21776
3309.25222,0.21945
3311.18069,0.22201
3313.10916,0.22580
3315.03763,0.22539
3316.96609,0.21943
3318.89456,0.21391
3320.82303,0.21194
3322.75150,0.21325
3324.67997,0.21625
3326.60844,0.21807
3328.53691,0.21849
3330.46537,0.21876
3332.39384,0.22029
3334.32231,0.22186
3336.25078,0.21808
3338.17925,0.21342
3340.10772,0.21673
3342.03619,0.22233
3343.96466,0.22245
3345.89312,0.22126
3347.82159,0.22472
3349.75006,0.23097
3351.67853,0.23383
3353.60700,0.23099
3355.53547,0.22629
3357.46394,0.22411
3359.39240,0.22430
3361.32087,0.22391
3363.24934,0.22283
3365.17781,0.22314
3367.10628,0.22234
3369.03475,0.22032
3370.96322,0.22369
3372.89168,0.22935
3374.82015,0.22815
3376.74862,0.22342
3378.67709,0.22169
3380.60556,0.22372
3382.53403,0.22977
3384.46250,0.23465
3386.39097,0.23128
3388.31943,0.22236
3390.24790,0.21645
3392.17637,0.21851
3394.10484,0.22353
3396.03331,0.22455
3397.96178,0.22231
3399.89025,0.21964
3401.81871,0.21882
3403.74718,0.21853
3405.67565,0.21460
3407.60412,0.21039
3409.53259,0.20960
3411.46106,0.20925
3413.38953,0.20949
3415.31800,0.21206
3417.24646,0.21660
3419.17493,0.22042
3421.10340,0.22005
3423.03187,0.21706
3424.96034,0.21445
3426.88881,0.21352
3428.81728,0.21504
3430.74574,0.21851
3432.67421,0.22017
3434.60268,0.21704
3436.53115,0.21316
3438.45962,0.21348
3440.38809,0.21762
3442.31656,0.22050
3444.24503,0.22095
3446.17349,0.22018
3448.10196,0.21759
3450.03043,0.21618
3451.95890,0.21276
3453.88737,0.20361
3455.81584,0.19576
3457.74431,0.19561
3459.67277,0.20143
3461.60124,0.20685
3463.52971,0.20789
3465.45818,0.20490
3467.38665,0.20067
3469.31512,0.19963
3471.24359,0.20088
3473.17206,0.19953
3475.10052,0.19739
3477.02899,0.19881
3478.95746,0.20218
3480.88593,0.20346
3482.81440,0.20194
3484.74287,0.20190
3486.67134,0.20285
3488.59980,0.20071
3490.52827,0.19911
3492.45674,0.19881
3494.38521,0.19563
3496.31368,0.19426
3498.24215,0.19578
3500.17062,0.19173
3502.09909,0.18545
3504.02755,0.18791
3505.95602,0.19585
3507.88449,0.19874
3509.81296,0.19503
3511.74143,0.18860
3513.66990,0.18159
3515.59837,0.17730
3517.52683,0.17670
3519.45530,0.17649
3521.38377,0.17909
3523.31224,0.18796
3525.24071,0.19631
3527.16918,0.19694
3529.09765,0.18997
3531.02611,0.17937
3532.95458,0.17203
3534.88305,0.17240
3536.81152,0.17752
3538.73999,0.17949
3540.66846,0.17523
3542.59693,0.17071
3544.52540,0.17407
3546.45386,0.18148
3548.38233,0.18120
3550.31080,0.17631
3552.23927,0.17344
3554.16774,0.17215
3556.09621,0.17110
3558.02468,0.17077
3559.95314,0.17404
3561.88161,0.18060
3563.81008,0.18971
3565.73855,0.20119
3567.66702,0.20032
3569.59549,0.18374
3571.52396,0.17050
3573.45243,0.16581
3575.38089,0.16662
3577.30936,0.16947
3579.23783,0.17111
3581.16630,0.16949
3583.09477,0.17130
3585.02324,0.18114
3586.95171,0.18616
3588.88017,0.17658
3590.80864,0.16914
3592.73711,0.16923
3594.66558,0.17002
3596.59405,0.16950
3598.52252,0.16855
3600.45099,0.16558
3602.37946,0.16206
3604.30792,0.16168
3606.23639,0.16768
3608.16486,0.17522
3610.09333,0.17575
3612.02180,0.17514
3613.95027,0.17611
3615.87874,0.17658
3617.80720,0.17981
3619.73567,0.18012
3621.66414,0.16824
3623.59261,0.15579
3625.52108,0.15459
3627.44955,0.16607
3629.37802,0.17444
3631.30649,0.16686
3633.23495,0.15761
3635.16342,0.15011
3637.09189,0.14676
3639.02036,0.14526
3640.94883,0.14387
3642.87730,0.14579
3644.80577,0.15033
3646.73423,0.16285
3648.66270,0.18065
3650.59117,0.17285
3652.51964,0.15667
3654.44811,0.15260
3656.37658,0.15283
3658.30505,0.14689
3660.23352,0.13839
3662.16198,0.13439
3664.09045,0.13704
3666.01892,0.14431
3667.94739,0.15617
3669.87586,0.17026
3671.80433,0.17504
3673.73280,0.17747
3675.66126,0.17476
3677.58973,0.15922
3679.51820,0.14744
3681.44667,0.14054
3683.37514,0.13930
3685.30361,0.14489
3687.23208,0.15254
3689.16055,0.15707
3691.08901,0.15102
3693.01748,0.13987
3694.94595,0.13392
3696.87442,0.13088
3698.80289,0.12777
3700.73136,0.12718
3702.65983,0.12797
3704.58829,0.12959
3706.51676,0.13486
3708.44523,0.14312
3710.37370,0.15339
3712.30217,0.15508
3714.23064,0.14531
3716.15911,0.13944
3718.08757,0.13877
3720.01604,0.14230
3721.94451,0.15117
3723.87298,0.15489
3725.80145,0.14923
3727.72992,0.14532
3729.65839,0.14746
3731.58686,0.15585
3733.51532,0.16942
3735.44379,0.17096
3737.37226,0.15897
3739.30073,0.15375
3741.22920,0.15473
3743.15767,0.15936
3745.08614,0.16721
3747.01460,0.17286
3748.94307,0.17801
3750.87154,0.17628
3752.80001,0.16131
3754.72848,0.15004
3756.65695,0.14672
3758.58542,0.14784
3760.51389,0.14769
3762.44235,0.14522
3764.37082,0.14552
3766.29929,0.14662
3768.22776,0.14341
3770.15623,0.13661
3772.08470,0.12903
3774.01317,0.12538
3775.94163,0.12851
3777.87010,0.13763
3779.79857,0.14308
3781.72704,0.13863
3783.65551,0.13495
3785.58398,0.13476
3787.51245,0.13304
3789.44092,0.13050
3791.36938,0.12946
3793.29785,0.12966
3795.22632,0.13060
3797.15479,0.13654
3799.08326,0.14924
3801.01173,0.15595
3802.94020,0.14728
3804.86866,0.14275
3806.79713,0.14350
3808.72560,0.13966
3810.65407,0.13695
3812.58254,0.13911
3814.51101,0.14649
3816.43948,0.15510
3818.36795,0.15504
3820.29641,0.15105
3822.22488,0.14759
3824.15335,0.14634
3826.08182,0.14703
3828.01029,0.14503
3829.93876,0.14134
3831.86723,0.14037
3833.79569,0.14377
3835.72416,0.15023
3837.65263,0.15366
3839.58110,0.14903
3841.50957,0.13983
3843.43804,0.13026
3845.36651,0.12565
3847.29498,0.12800
3849.22344,0.13798
3851.15191,0.15869
3853.08038,0.17772
3855.00885,0.16572
3856.93732,0.14846
3858.86579,0.13901
3860.79426,0.13989
3862.72272,0.14966
3864.65119,0.15306
3866.57966,0.14665
3868.50813,0.14285
3870.43660,0.14260
3872.36507,0.13564
3874.29354,0.12549
3876.22200,0.12388
3878.15047,0.13033
3880.07894,0.13686
3882.00741,0.13418
3883.93588,0.12853
3885.86435,0.12814
3887.79282,0.12698
3889.72129,0.12435
3891.64975,0.12317
3893.57822,0.12194
3895.50669,0.12333
3897.43516,0.12779
3899.36363,0.13136
3901.29210,0.13540
3903.22057,0.13988
3905.14903,0.13412
3907.07750,0.12384
3909.00597,0.12003
3910.93444,0.11792
3912.86291,0.11426
3914.79138,0.11560
3916.71985,0.12289
3918.64832,0.12690
3920.57678,0.12406
3922.50525,0.11948
3924.43372,0.11683
3926.36219,0.11682
3928.29066,0.11892
3930.21913,0.12107
3932.14760,0.11968
3934.07606,0.11427
3936.00453,0.10928
3937.93300,0.10893
3939.86147,0.11307
3941.78994,0.11609
3943.71841,0.11447
3945.64688,0.11272
3947.57535,0.11349
3949.50381,0.11554
3951.43228,0.11648
3953.36075,0.11363
3955.28922,0.10875
3957.21769,0.10452
3959.14616,0.10378
3961.07463,0.10950
3963.00309,0.11734
3964.93156,0.11924
3966.86003,0.11388
3968.78850,0.10792
3970.71697,0.10800
3972.64544,0.11123
3974.57391,0.10936
3976.50238,0.10565
3978.43084,0.10817
3980.35931,0.11165
3982.28778,0.11135
3984.21625,0.11071
3986.14472,0.11091
3988.07319,0.11147
3990.00166,0.11154
3991.93012,0.11110
3993.85859,0.11160
3995.78706,0.11166
3997.71553,0.11023
3999.64400,0.10942
4001.57247,0.11013
4003.50094,0.11111
4005.42941,0.11013
4007.35787,0.10714
4009.28634,0.10297
4011.21481,0.09740
4013.14328,0.09517
4015.07175,0.09768
4017.00022,0.10002
4018.92869,0.10124
4020.85715,0.10178
4022.78562,0.10143
4024.71409,0.10092
4026.64256,0.10103
4028.57103,0.10199
4030.49950,0.10284
4032.42797,0.10287
4034.35644,0.10274
4036.28490,0.10385
4038.21337,0.10509
4040.14184,0.10306
4042.07031,0.09795
4043.99878,0.09571
4045.92725,0.09767
4047.85572,0.09634
4049.78418,0.09271
4051.71265,0.09441
4053.64112,0.09904
4055.56959,0.10164
4057.49806,0.10202
4059.42653,0.10003
4061.35500,0.09456
4063.28346,0.08713
4065.21193,0.08499
4067.14040,0.09009
4069.06887,0.09329
4070.99734,0.09257
4072.92581,0.09478
4074.85428,0.09604
4076.78275,0.08993
4078.71121,0.08411
4080.63968,0.08257
4082.56815,0.08038
4084.49662,0.08005
4086.42509,0.08421
4088.35356,0.08907
4090.28203,0.09213
4092.21049,0.09309
4094.13896,0.09274
4096.06743,0.09229
4097.99590,0.09159
4099.92437,0.08964
4101.85284,0.08577
4103.78131,0.08188
4105.70978,0.08098
4107.63824,0.08201
4109.56671,0.08456
4111.49518,0.08949
4113.42365,0.09166
4115.35212,0.08621
4117.28059,0.07603
4119.20906,0.06961
4121.13752,0.07224
4123.06599,0.07996
4124.99446,0.08753
4126.92293,0.09068
4128.85140,0.08920
4130.77987,0.08958
4132.70834,0.09163
4134.63681,0.09256
4136.56527,0.09143
4138.49374,0.08648
4140.42221,0.08257
4142.35068,0.08115
4144.27915,0.07887
4146.20762,0.07937
4148.13609,0.08313
4150.06455,0.08252
4151.99302,0.07820
4153.92149,0.07921
4155.84996,0.08276
4157.77843,0.08150
4159.70690,0.07918
4161.63537,0.07989
4163.56384,0.08155
4165.49230,0.08114
4167.42077,0.07857
4169.34924,0.07610
4171.27771,0.07389
4173.20618,0.07102
4175.13465,0.07025
4177.06312,0.07330
4178.99158,0.07810
4180.92005,0.08175
4182.84852,0.08066
4184.77699,0.07851
4186.70546,0.07905
4188.63393,0.07839
4190.56240,0.07736
4192.49087,0.07668
4194.41933,0.07434
4196.34780,0.07322
4198.27627,0.07425
4200.20474,0.07459
4202.13321,0.07333
4204.06168,0.07160
4205.99015,0.07236
4207.91861,0.07721
4209.84708,0.08040
4211.77555,0.07869
4213.70402,0.07359
4215.63249,0.06511
4217.56096,0.05948
4219.48943,0.06408
4221.41789,0.07592
4223.34636,0.08339
4225.27483,0.08078
4227.20330,0.07455
4229.13177,0.06995
4231.06024,0.06550
4232.98871,0.06016
4234.91718,0.05684
4236.84564,0.05511
4238.77411,0.05244
4240.70258,0.05206
4242.63105,0.05747
4244.55952,0.06447
4246.48799,0.06568
4248.41646,0.06089
4250.34492,0.05694
4252.27339,0.05746
4254.20186,0.05643
4256.13033,0.05388
4258.05880,0.05836
4259.98727,0.06392
4261.91574,0.05992
4263.84421,0.04995
4265.77267,0.04477
4267.70114,0.04962
4269.62961,0.05877
4271.55808,0.06400
4273.48655,0.06379
4275.41502,0.06274
4277.34349,0.06375
4279.27195,0.06620
4281.20042,0.07056
4283.12889,0.07408
4285.05736,0.07051
4286.98583,0.06391
4288.91430,0.06164
4290.84277,0.05864
4292.77124,0.05271
4294.69970,0.05084
4296.62817,0.05383
4298.55664,0.05818
4300.48511,0.06450
4302.41358,0.07111
4304.34205,0.07427
4306.27052,0.07512
4308.19898,0.07076
4310.12745,0.05852
4312.05592,0.04909
4313.98439,0.05036
4315.91286,0.05594
4317.84133,0.05656
4319.76980,0.05002
4321.69827,0.04370
4323.62673,0.04072
4325.55520,0.03812
4327.48367,0.04192
4329.41214,0.05015
4331.34061,0.04874
4333.26908,0.03952
4335.19755,0.03556
4337.12601,0.03933
4339.05448,0.04457
4340.98295,0.04907
4342.91142,0.05197
4344.83989,0.05111
4346.76836,0.05065
4348.69683,0.04991
4350.62530,0.04093
4352.55376,0.02854
4354.48223,0.02455
4356.41070,0.02916
4358.33917,0.03744
4360.26764,0.04514
4362.19611,0.04609
4364.12458,0.04151
4366.05304,0.03746
4367.98151,0.03596
4369.90998,0.03741
4371.83845,0.03767
4373.76692,0.03330
4375.69539,0.03246
4377.62386,0.03948
4379.55232,0.04069
4381.48079,0.03099
4383.40926,0.02043
4385.33773,0.01499
4387.26620,0.02030
4389.19467,0.03127
4391.12314,0.03355
4393.05161,0.02724
4394.98007,0.02161
4396.90854,0.02311
4398.83701,0.02901
4400.76548,0.03269
4402.69395,0.03439
4404.62242,0.03501
4406.55089,0.03222
4408.47935,0.02785
4410.40782,0.02474
4412.33629,0.01986
4414.26476,0.01475
4416.19323,0.01535
4418.12170,0.01821
4420.05017,0.01907
4421.97864,0.02137
4423.90710,0.02578
4425.83557,0.02615
4427.76404,0.02217
4429.69251,0.02470
4431.62098,0.03404
4433.54945,0.03818
4435.47792,0.03537
4437.40638,0.02927
4439.33485,0.02218
4441.26332,0.01877
4443.19179,0.02050
4445.12026,0.02219
4447.04873,0.01902
4448.97720,0.01528
4450.90567,0.01758
4452.83413,0.02342
4454.76260,0.02402
4456.69107,0.01867
4458.61954,0.01518
4460.54801,0.01504
4462.47648,0.01467
4464.40495,0.01434
4466.33341,0.01227
4468.26188,0.00727
4470.19035,0.00579
4472.11882,0.01054
4474.04729,0.01591
4475.97576,0.01642
4477.90423,0.01280
4479.83270,0.01054
4481.76116,0.01155
4483.68963,0.01485
4485.61810,0.01763
4487.54657,0.01683
4489.47504,0.01427
4491.40351,0.01558
4493.33198,0.02097
4495.26044,0.02337
4497.18891,0.02205
4499.11738,0.01751
4501.04585,0.01059
4502.97432,0.00760
4504.90279,0.00799
4506.83126,0.01102
4508.75973,0.01887
4510.68819,0.02686
4512.61666,0.02806
4514.54513,0.02182
4516.47360,0.01590
4518.40207,0.01340
4520.33054,0.01058
4522.25901,0.01132
4524.18747,0.01968
4526.11594,0.02413
4528.04441,0.01742
4529.97288,0.01087
4531.90135,0.00659
4533.82982,-0.00036
4535.75829,0.00027
4537.68676,0.00971
4539.61522,0.01354
4541.54369,0.01342
4543.47216,0.01681
4545.40063,0.01838
4547.32910,0.01636
4549.25757,0.01535
4551.18604,0.01414
4553.11450,0.00938
4555.04297,0.00886
4556.97144,0.01611
4558.89991,0.01761
4560.82838,0.01184
4562.75685,0.00849
4564.68532,0.00592
4566.61378,0.00116
4568.54225,-0.00131
4570.47072,0.00069
4572.39919,0.00526
4574.32766,0.00739
4576.25613,-0.00005
4578.18460,-0.00913
4580.11307,-0.00538
4582.04153,0.00488
4583.97000,0.00936
4585.89847,0.01121
4587.82694,0.01694
4589.75541,0.01921
4591.68388,0.01034
4593.61235,-0.00136
4595.54081,-0.00714
4597.46928,-0.00588
4599.39775,-0.00169
4601.32622,0.00019
4603.25469,-0.00100
4605.18316,-0.00488
4607.11163,-0.00361
4609.04010,0.00720
4610.96856,0.01480
4612.89703,0.01559
4614.82550,0.01664
4616.75397,0.01193
4618.68244,0.00003
4620.61091,-0.00791
4622.53938,-0.00783
4624.46784,0.00339
4626.39631,0.01839
4628.32478,0.01597
4630.25325,0.00183
4632.18172,-0.00063
4634.11019,0.00631
4636.03866,0.00615
4637.96713,0.00085
4639.89559,0.00041
4641.82406,0.00261
4643.75253,0.00187
4645.68100,-0.00282
4647.60947,-0.01053
4649.53794,-0.01526
4651.46641,-0.01366
4653.39487,-0.01015
4655.32334,-0.00618
4657.25181,-0.00123
4659.18028,0.00370
4661.10875,0.00552
4663.03722,0.00333
4664.96569,0.00181
4666.89416,0.00325
4668.82262,0.00531
4670.75109,0.00668
4672.67956,0.00416
4674.60803,-0.00089
4676.53650,-0.00008
4678.46497,0.00496
4680.39344,0.00670
4682.32190,0.00437
4684.25037,-0.00153
4686.17884,-0.00645
4688.10731,-0.00440
4690.03578,0.00261
4691.96425,0.00314
4693.89272,-0.00329
4695.82119,-0.00317
4697.74965,-0.00155
4699.67812,-0.00347
4701.60659,-0.00112
4703.53506,0.00312
4705.46353,0.00809
4707.39200,0.01202
4709.32047,0.00697
4711.24893,0.00296
4713.17740,0.01386
4715.10587,0.02689
4717.03434,0.02804
4718.96281,0.02186
4720.89128,0.01604
4722.81975,0.01106
4724.74821,0.00305
4726.67668,-0.00115
4728.60515,0.00210
4730.53362,0.00004
4732.46209,-0.00825
4734.39056,-0.01104
4736.31903,-0.00490
4738.24750,0.00687
4740.17596,0.02044
4742.10443,0.03118
4744.03290,0.03314
4745.96137,0.02642
4747.88984,0.01469
4749.81831,0.00432
4751.74678,0.00226
4753.67524,0.00160
4755.60371,-0.00287
4757.53218,-0.00384
4759.46065,0.00132
4761.38912,0.00307
4763.31759,-0.00104
4765.24606,0.00036
4767.17453,0.00667
4769.10299,0.01039
4771.03146,0.01130
4772.95993,0.01296
4774.88840,0.01515
4776.81687,0.01059
4778.74534,0.00171
4780.67381,-0.00076
4782.60227,0.00795
4784.53074,0.01858
4786.45921,0.01507
4788.38768,0.00202
4790.31615,-0.00265
4792.24462,0.00560
4794.17309,0.01587
4796.10156,0.01315
4798.03002,0.00212
4799.95849,-0.00008
4801.88696,0.00190
4803.81543,-0.00629
4805.74390,-0.01645
4807.67237,-0.01088
4809.60084,0.00563
4811.52930,0.01313
4813.45777,0.00669
4815.38624,-0.00031
4817.31471,-0.00244
4819.24318,-0.00465
4821.17165,-0.00083
4823.10012,0.01196
4825.02859,0.02527
4826.95705,0.03306
4828.88552,0.03497
4830.81399,0.03375
4832.74246,0.02742
4834.67093,0.01896
4836.59940,0.01707
4838.52787,0.02071
4840.45633,0.02543
4842.38480,0.02442
4844.31327,0.01590
4846.24174,0.01040
4848.17021,0.01389
4850.09868,0.01911
4852.02715,0.01518
4853.95562,0.00676
4855.88408,0.00654
4857.81255,0.00944
4859.74102,0.00835
4861.66949,0.01024
4863.59796,0.01435
4865.52643,0.01675
4867.45490,0.01386
4869.38336,-0.00283
4871.31183,-0.01661
4873.24030,-0.01052
4875.16877,-0.00462
4877.09724,-0.01330
4879.02571,-0.01869
4880.95418,-0.01613
4882.88265,-0.01389
4884.81111,-0.01134
4886.73958,-0.00840
4888.66805,-0.00647
4890.59652,-0.00023
4892.52499,0.00917
4894.45346,0.01573
4896.38193,0.02049
4898.31039,0.01569
4900.23886,-0.00436
4902.16733,-0.02187
4904.09580,-0.02108
4906.02427,-0.01065
4907.95274,-0.00531
4909.88121,-0.00864
4911.80967,-0.01192
4913.73814,-0.01358
4915.66661,-0.00898
4917.59508,0.00755
4919.52355,0.02030
4921.45202,0.01659
4923.38049,0.00995
4925.30896,0.01507
4927.23742,0.02169
4929.16589,0.01826
4931.09436,0.01453
4933.02283,0.01713
4934.95130,0.01649
4936.87977,0.00910
4938.80824,0.00169
4940.73670,-0.00501
4942.66517,-0.00743
4944.59364,-0.00206
4946.52211,0.00687
4948.45058,0.01464
4950.37905,0.01003
4952.30752,-0.00742
4954.23599,-0.01653
4956.16445,-0.00872
4958.09292,0.00348
4960.02139,0.01392
4961.94986,0.02188
4963.87833,0.01850
4965.80680,0.00609
4967.73527,0.00622
4969.66373,0.01664
4971.59220,0.00924
4973.52067,-0.01274
4975.44914,-0.02167
4977.37761,-0.01060
4979.30608,0.00701
4981.23455,0.01038
4983.16302,0.00194
4985.09148,0.00670
4987.01995,0.02644
4988.94842,0.03927
4990.87689,0.03629
4992.80536,0.03009
4994.73383,0.02441
4996.66230,0.01509
4998.59076,0.01288
5000.51923,0.01686
5002.44770,0.01086
5004.37617,-0.00710
5006.30464,-0.01845
5008.23311,-0.01067
5010.16158,-0.00292
5012.09005,-0.00311
5014.01851,0.00948
5015.94698,0.02929
5017.87545,0.02780
5019.80392,0.00272
5021.73239,-0.01699
5023.66086,-0.01709
5025.58933,-0.01164
5027.51779,-0.00870
5029.44626,-0.00355
5031.37473,0.00349
5033.30320,0.00627
5035.23167,0.00218
5037.16014,-0.00867
5039.08861,-0.02079
5041.01708,-0.02124
5042.94554,-0.00868
5044.87401,0.00411
5046.80248,0.01150
5048.73095,0.01125
5050.65942,0.00706
5052.58789,0.01397
5054.51636,0.02612
5056.44482,0.02292
5058.37329,0.00678
5060.30176,-0.00089
5062.23023,0.00838
5064.15870,0.02228
5066.08717,0.03108
5068.01564,0.03826
5069.94410,0.04744
5071.87257,0.04793
5073.80104,0.03804
5075.72951,0.03254
5077.65798,0.02965
5079.58645,0.02345
5081.51492,0.02031
5083.44339,0.01644
5085.37185,0.00412
5087.30032,-0.00836
5089.22879,-0.01062
5091.15726,-0.00185
5093.08573,0.01456
5095.01420,0.02586
5096.94267,0.02081
5098.87113,0.00664
5100.79960,0.00037
5102.72807,0.00924
5104.65654,0.01876
5106.58501,0.01757
5108.51348,0.02188
5110.44195,0.03271
5112.37042,0.02770
5114.29888,0.01792
5116.22735,0.02529
5118.15582,0.03868
5120.08429,0.03997
5122.01276,0.03126
5123.94123,0.03097
5125.86970,0.04355
5127.79816,0.04863
5129.72663,0.03204
5131.65510,0.01340
5133.58357,0.01927
5135.51204,0.03727
5137.44051,0.03962
5139.36898,0.02855
5141.29745,0.02305
5143.22591,0.02809
5145.15438,0.02957
5147.08285,0.02245
5149.01132,0.02247
5150.93979,0.03065
5152.86826,0.03019
5154.79673,0.01853
5156.72519,0.01102
5158.65366,0.01704
5160.58213,0.02822
5162.51060,0.03291
5164.43907,0.02139
5166.36754,0.01029
5168.29601,0.02020
5170.22448,0.02559
5172.15294,0.01061
5174.08141,-0.00015
5176.00988,0.00459
5177.93835,0.01562
5179.86682,0.01952
5181.79529,0.01883
5183.72376,0.02884
5185.65222,0.04304
5187.58069,0.04591
5189.50916,0.04447
5191.43763,0.05309
5193.36610,0.06960
5195.29457,0.07212
5197.22304,0.05779
5199.15151,0.04764
5201.07997,0.03890
5203.00844,0.03073
5204.93691,0.03394
5206.86538,0.03417
5208.79385,0.02615
5210.72232,0.01783
5212.65079,0.00531
5214.57925,0.00639
5216.50772,0.02644
5218.43619,0.03638
5220.36466,0.03348
5222.29313,0.03433
5224.22160,0.03565
5226.15007,0.03210
5228.07854,0.02494
5230.00700,0.02094
5231.93547,0.02751
5233.86394,0.03812
5235.79241,0.04190
5237.72088,0.04611
5239.64935,0.05427
5241.57782,0.05085
5243.50628,0.03928
5245.43475,0.04285
5247.36322,0.05466
5249.29169,0.05482
5251.22016,0.04811
5253.14863,0.04064
5255.07710,0.03402
5257.00556,0.03279
5258.93403,0.03870
5260.86250,0.04349
5262.79097,0.03007
5264.71944,0.01269
5266.64791,0.01619
5268.57638,0.02704
5270.50485,0.03420
5272.43331,0.04715
5274.36178,0.06576
5276.29025,0.06838
5278.21872,0.05288
5280.14719,0.05034
5282.07566,0.06694
5284.00413,0.07342
5285.93259,0.06591
5287.86106,0.06279
5289.78953,0.04998
5291.71800,0.02609
5293.64647,0.02503
5295.57494,0.04035
5297.50341,0.04793
5299.43188,0.04971
5301.36034,0.05277
5303.28881,0.05118
5305.21728,0.04236
5307.14575,0.03881
5309.07422,0.04411
5311.00269,0.03612
5312.93116,0.01826
5314.85962,0.01706
5316.78809,0.02370
5318.71656,0.02571
5320.64503,0.02629
5322.57350,0.01637
5324.50197,0.00829
5326.43044,0.01966
5328.35891,0.03856
5330.28737,0.06135
5332.21584,0.08144
5334.14431,0.08236
5336.07278,0.07764
5338.00125,0.06842
5339.92972,0.04436
5341.85819,0.03123
5343.78665,0.04133
5345.71512,0.05931
5347.64359,0.06306
5349.57206,0.05213
5351.50053,0.04859
5353.42900,0.05831
5355.35747,0.05962
5357.28594,0.04902
5359.21440,0.04137
5361.14287,0.04391
5363.07134,0.05331
5364.99981,0.06586
5366.92828,0.07599
5368.85675,0.08376
5370.78522,0.09499
5372.71368,0.10176
5374.64215,0.09746
5376.57062,0.09010
5378.49909,0.08800
5380.42756,0.08509
5382.35603,0.07291
5384.28450,0.06438
5386.21297,0.06986
5388.14143,0.06683
5390.06990,0.05296
5391.99837,0.04691
5393.92684,0.05383
5395.85531,0.06754
5397.78378,0.07507
5399.71225,0.06988
5401.64071,0.05948
5403.56918,0.05006
5405.49765,0.04503
5407.42612,0.05220
5409.35459,0.07509
5411.28306,0.10229
5413.21153,0.11309
5415.13999,0.09275
5417.06846,0.05775
5418.99693,0.04099
5420.92540,0.05024
5422.85387,0.05975
5424.78234,0.05288
5426.71081,0.03827
5428.63928,0.02415
5430.56774,0.01881
5432.49621,0.02820
5434.42468,0.04599
5436.35315,0.05324
5438.28162,0.05271
5440.21009,0.06646
5442.13856,0.06645
5444.06702,0.03306
5445.99549,0.01369
5447.92396,0.02936
5449.85243,0.05196
5451.78090,0.06106
5453.70937,0.06551
5455.63784,0.06409
5457.56631,0.03913
5459.49477,0.02126
5461.42324,0.04415
5463.35171,0.07353
5465.28018,0.08650
5467.20865,0.11104
5469.13712,0.13757
5471.06559,0.13909
5472.99405,0.13420
5474.92252,0.11358
5476.85099,0.06208
5478.77946,0.03887
5480.70793,0.06562
5482.63640,0.09243
5484.56487,0.09727
5486.49334,0.10092
5488.42180,0.10181
5490.35027,0.09107
5492.27874,0.09126
5494.20721,0.11105
5496.13568,0.12338
5498.06415,0.10977
5499.99262,0.07220
5501.92108,0.04442
5503.84955,0.05904
5505.77802,0.09851
5507.70649,0.11176
5509.63496,0.09393
5511.56343,0.07917
5513.49190,0.06844
5515.42037,0.06023
5517.34883,0.06331
5519.27730,0.06949
5521.20577,0.06793
5523.13424,0.06086
5525.06271,0.06525
5526.99118,0.08829
5528.91965,0.09899
5530.84811,0.07535
5532.77658,0.05198
5534.70505,0.06197
5536.63352,0.08767
5538.56199,0.08332
5540.49046,0.04251
5542.41893,0.01461
5544.34740,0.02559
5546.27586,0.03323
5548.20433,0.00766
5550.13280,-0.01773
5552.06127,-0.01460
5553.98974,0.00785
5555.91821,0.03349
5557.84668,0.06856
5559.77514,0.12101
5561.70361,0.15415
5563.63208,0.13441
5565.56055,0.09408
5567.48902,0.06948
5569.41749,0.05539
5571.34596,0.05418
5573.27443,0.07858
5575.20289,0.10806
5577.13136,0.11402
5579.05983,0.09993
5580.98830,0.08000
5582.91677,0.07009
5584.84524,0.07425
5586.77371,0.07407
5588.70217,0.06195
5590.63064,0.04664
5592.55911,0.03953
5594.48758,0.04978
5596.41605,0.06189
5598.34452,0.04979
5600.27299,0.02325
5602.20145,0.01988
5604.12992,0.04421
5606.05839,0.06377
5607.98686,0.06890
5609.91533,0.06861
5611.84380,0.05561
5613.77227,0.04156
5615.70074,0.04075
5617.62920,0.03306
5619.55767,0.02544
5621.48614,0.03959
5623.41461,0.04790
5625.34308,0.02493
5627.27155,0.00009
5629.20002,0.00998
5631.12848,0.04323
5633.05695,0.06621
5634.98542,0.07018
5636.91389,0.06751
5638.84236,0.06486
5640.77083,0.06678
5642.69930,0.07484
5644.62777,0.08058
5646.55623,0.07623
5648.48470,0.07291
5650.41317,0.08114
5652.34164,0.08295
5654.27011,0.06355
5656.19858,0.04689
5658.12705,0.04156
5660.05551,0.01784
5661.98398,0.00212
5663.91245,0.02540
5665.84092,0.04654
5667.76939,0.05404
5669.69786,0.06102
5671.62633,0.05544
5673.55480,0.04224
5675.48326,0.04498
5677.41173,0.05676
5679.34020,0.06707
5681.26867,0.08551
5683.19714,0.09347
5685.12561,0.08148
5687.05408,0.05618
5688.98254,0.01129
5690.91101,-0.01900
5692.83948,0.00532
5694.76795,0.05440
5696.69642,0.08349
5698.62489,0.08906
5700.55336,0.08283
5702.48183,0.07248
5704.41029,0.06071
5706.33876,0.04754
5708.26723,0.04635
5710.19570,0.06239
5712.12417,0.06811
5714.05264,0.05257
5715.98111,0.04105
5717.90957,0.05091
5719.83804,0.07604
5721.76651,0.08919
5723.69498,0.08039
5725.62345,0.07326
5727.55192,0.08026
5729.48039,0.09003
5731.40886,0.10299
5733.33732,0.11833
5735.26579,0.11949
5737.19426,0.11540
5739.12273,0.12159
5741.05120,0.12440
5742.97967,0.11164
5744.90814,0.09158
5746.83660,0.08037
5748.76507,0.07412
5750.69354,0.06464
5752.62201,0.07662
5754.55048,0.10986
5756.47895,0.12962
5758.40742,0.13229
5760.33588,0.11663
5762.26435,0.08339
5764.19282,0.05532
5766.12129,0.04605
5768.04976,0.06441
5769.97823,0.09490
5771.90670,0.10564
5773.83517,0.09853
5775.76363,0.09751
5777.69210,0.11856
5779.62057,0.13750
5781.54904,0.11899
5783.47751,0.08021
5785.40598,0.05093
5787.33445,0.05030
5789.26291,0.07958
5791.19138,0.09984
5793.11985,0.08973
5795.04832,0.06193
5796.97679,0.02520
5798.90526,0.00056
5800.83373,0.01229
5802.76220,0.03662
5804.69066,0.05083
5806.61913,0.07566
5808.54760,0.09671
5810.47607,0.10544
5812.40454,0.11192
5814.33301,0.09021
5816.26148,0.05708
5818.18994,0.05030
5820.11841,0.05421
5822.04688,0.05708
5823.97535,0.05569
5825.90382,0.04057
5827.83229,0.03213
5829.76076,0.04399
5831.68923,0.04921
5833.61769,0.03723
5835.54616,0.03175
5837.47463,0.03313
5839.40310,0.04459
5841.33157,0.08812
5843.26004,0.12648
5845.18851,0.12215
5847.11697,0.10492
5849.04544,0.09999
5850.97391,0.10509
5852.90238,0.09839
5854.83085,0.06280
5856.75932,0.03309
5858.68779,0.06849
5860.61626,0.15083
5862.54472,0.18349
5864.47319,0.14957
5866.40166,0.11782
5868.33013,0.08541
5870.25860,0.04268
5872.18707,0.03869
5874.11554,0.06812
5876.04400,0.08096
5877.97247,0.07144
5879.90094,0.07192
5881.82941,0.07745
5883.75788,0.05899
5885.68635,0.04422
5887.61482,0.06930
5889.54329,0.10194
5891.47175,0.10703
5893.40022,0.09811
5895.32869,0.09265
5897.25716,0.09856
5899.18563,0.10674
5901.11410,0.10136
5903.04257,0.09401
5904.97103,0.09822
5906.89950,0.10357
5908.82797,0.09024
5910.75644,0.07762
5912.68491,0.09868
5914.61338,0.11076
5916.54185,0.08371
5918.47032,0.07060
5920.39878,0.10709
5922.32725,0.15938
5924.25572,0.16199
5926.18419,0.10843
5928.11266,0.07115
5930.04113,0.07152
5931.96960,0.07784
5933.89806,0.08910
5935.82653,0.10080
5937.75500,0.09999
5939.68347,0.08982
5941.61194,0.07666
5943.54041,0.07563
5945.46888,0.09437
5947.39734,0.10137
5949.32581,0.07716
5951.25428,0.06440
5953.18275,0.08221
5955.11122,0.10121
5957.03969,0.09667
5958.96816,0.07555
5960.89663,0.08099
5962.82509,0.11164
5964.75356,0.14317
5966.68203,0.16958
5968.61050,0.17754
5970.53897,0.16980
5972.46744,0.14577
5974.39591,0.10085
5976.32437,0.06033
5978.25284,0.05509
5980.18131,0.09101
5982.10978,0.12799
5984.03825,0.12787
5985.96672,0.11690
5987.89519,0.11071
5989.82366,0.07816
5991.75212,0.04096
5993.68059,0.04584
5995.60906,0.06273
5997.53753,0.05080
5999.46600,0.05652
6001.39447,0.09573
6003.32294,0.11180
6005.25140,0.09722
6007.17987,0.08783
6009.10834,0.08757
6011.03681,0.09063
6012.96528,0.08476
6014.89375,0.05813
6016.82222,0.02920
6018.75069,0.05139
6020.67915,0.12679
6022.60762,0.15260
6024.53609,0.09582
6026.46456,0.05922
6028.39303,0.08815
6030.32150,0.11600
6032.24997,0.12264
6034.17843,0.11856
6036.10690,0.08287
6038.03537,0.03862
6039.96384,0.02756
6041.89231,0.04913
6043.82078,0.06088
6045.74925,0.03987
6047.67772,0.02118
6049.60618,0.03666
6051.53465,0.07764
6053.46312,0.10254
6055.39159,0.08841
6057.32006,0.07037
6059.24853,0.08415
6061.17700,0.10408
6063.10546,0.09268
6065.03393,0.07654
6066.96240,0.07786
6068.89087,0.08167
6070.81934,0.09550
6072.74781,0.11944
6074.67628,0.13081
6076.60475,0.12428
6078.53321,0.10444
6080.46168,0.08969
6082.39015,0.09586
6084.31862,0.09592
6086.24709,0.08415
6088.17556,0.07469
6090.10403,0.04149
6092.03249,-0.00450
6093.96096,0.00092
6095.88943,0.06530
6097.81790,0.13366
6099.74637,0.16832
6101.67484,0.16481
6103.60331,0.14111
6105.53177,0.10433
6107.46024,0.07030
6109.38871,0.06672
6111.31718,0.06929
6113.24565,0.08200
6115.17412,0.12401
6117.10259,0.14040
6119.03106,0.11452
6120.95952,0.09697
6122.88799,0.08369
6124.81646,0.06520
6126.74493,0.05369
6128.67340,0.02864
6130.60187,-0.00617
6132.53034,0.01255
6134.45880,0.06445
6136.38727,0.07314
6138.31574,0.07060
6140.24421,0.08484
6142.17268,0.07900
6144.10115,0.08464
6146.02962,0.11327
6147.95809,0.13245
6149.88655,0.14226
6151.81502,0.12163
6153.74349,0.06271
6155.67196,0.03027
6157.60043,0.05151
6159.52890,0.07283
6161.45737,0.06352
6163.38583,0.06655
6165.31430,0.07895
6167.24277,0.06734
6169.17124,0.06619
6171.09971,0.05409
6173.02818,0.00154
6174.95665,-0.01646
6176.88512,0.01752
6178.81358,0.03659
6180.74205,0.02828
6182.67052,0.03809
6184.59899,0.08384
6186.52746,0.13637
6188.45593,0.15052
6190.38440,0.14772
6192.31286,0.15084
6194.24133,0.12565
6196.16980,0.10119
6198.09827,0.10727
6200.02674,0.12140
6201.95521,0.11648
6203.88368,0.08345
6205.81215,0.08238
6207.74061,0.13760
6209.66908,0.17649
6211.59755,0.12731
6213.52602,0.02097
6215.45449,-0.04565
6217.38296,-0.00316
6219.31143,0.10080
6221.23989,0.18134
6223.16836,0.19565
6225.09683,0.14053
6227.02530,0.10143
6228.95377,0.11335
6230.88224,0.11150
6232.81071,0.11657
6234.73918,0.15999
6236.66764,0.15536
6238.59611,0.08569
6240.52458,0.04492
6242.45305,0.05148
6244.38152,0.05907
6246.30999,0.07312
6248.23846,0.09576
6250.16692,0.09434
6252.09539,0.07042
6254.02386,0.06966
6255.95233,0.07835
6257.88080,0.07446
6259.80927,0.08070
6261.73774,0.08135
6263.66621,0.05722
6265.59467,0.04823
6267.52314,0.10082
6269.45161,0.15457
6271.38008,0.14551
6273.30855,0.11294
6275.23702,0.09496
6277.16549,0.09461
6279.09395,0.11079
6281.02242,0.11528
6282.95089,0.09366
6284.87936,0.08187
6286.80783,0.10617
6288.73630,0.11778
6290.66477,0.09101
6292.59323,0.07638
6294.52170,0.06545
6296.45017,0.03350
6298.37864,0.02575
6300.30711,0.05079
6302.23558,0.05622
6304.16405,0.01766
6306.09252,-0.01759
6308.02098,-0.00322
6309.94945,0.02652
6311.87792,0.03953
6313.80639,0.05546
6315.73486,0.07882
6317.66333,0.11330
6319.59180,0.16034
6321.52026,0.17406
6323.44873,0.12207
6325.37720,0.06441
6327.30567,0.07086
6329.23414,0.12897
6331.16261,0.14665
6333.09108,0.10344
6335.01955,0.07612
6336.94801,0.08457
6338.87648,0.10483
6340.80495,0.12989
6342.73342,0.15077
6344.66189,0.15815
6346.59036,0.13648
6348.51883,0.08841
6350.44729,0.06543
6352.37576,0.07958
6354.30423,0.08412
6356.23270,0.09028
6358.16117,0.12404
6360.08964,0.15163
6362.01811,0.13152
6363.94658,0.08498
6365.87504,0.05773
6367.80351,0.05186
6369.73198,0.05321
6371.66045,0.05484
6373.58892,0.03769
6375.51739,0.00558
6377.44586,-0.02482
6379.37432,-0.06565
6381.30279,-0.10103
6383.23126,-0.06849
6385.15973,0.01845
6387.08820,0.07438
6389.01667,0.08566
6390.94514,0.09005
6392.87361,0.09238
6394.80207,0.05040
6396.73054,0.01735
6398.65901,0.05150
6400.58748,0.09086
6402.51595,0.08011
6404.44442,0.05132
6406.37289,0.03712
6408.30135,0.04762
6410.22982,0.05329
6412.15829,0.03421
6414.08676,0.06112
6416.01523,0.14833
6417.94370,0.17901
6419.87217,0.10708
6421.80064,0.04536
6423.72910,0.04856
6425.65757,0.07177
6427.58604,0.07520
6429.51451,0.09715
6431.44298,0.15313
6433.37145,0.16545
6435.29992,0.12423
6437.22838,0.09123
6439.15685,0.07006
6441.08532,0.03326
6443.01379,-0.00155
6444.94226,0.01202
6446.87073,0.05224
6448.79920,0.03722
6450.72766,-0.00588
6452.65613,0.01363
6454.58460,0.06605
6456.51307,0.10778
6458.44154,0.12671
6460.37001,0.10114
6462.29848,0.03997
6464.22695,0.02097
6466.15541,0.07723
6468.08388,0.06785
6470.01235,-0.05830
6471.94082,-0.10516
6473.86929,-0.02842
6475.79776,0.04282
6477.72623,0.08968
6479.65469,0.12962
6481.58316,0.09427
6483.51163,0.00626
6485.44010,-0.03498
6487.36857,-0.02875
6489.29704,0.01347
6491.22551,0.07383
6493.15398,0.08814
6495.08244,0.06307
6497.01091,0.02415
6498.93938,-0.04734
6500.86785,-0.06690
6502.79632,0.05071
6504.72479,0.13825
6506.65326,0.07775
6508.58172,-0.00021
6510.51019,0.04114
6512.43866,0.16313
6514.36713,0.20955
6516.29560,0.13284
6518.22407,0.02067
6520.15254,-0.04578
6522.08101,-0.02718
6524.00947,0.03151
6525.93794,0.03275
6527.86641,-0.01358
6529.79488,-0.05698
6531.72335,-0.05361
6533.65182,0.02515
6535.58029,0.12936
6537.50875,0.17379
6539.43722,0.12572
6541.36569,0.06433
6543.29416,0.05880
6545.22263,0.03658
6547.15110,-0.04088
6549.07957,-0.08240
6551.00804,-0.01964
6552.93650,0.05864
6554.86497,0.06306
6556.79344,0.05203
6558.72191,0.07091
6560.65038,0.05667
6562.57885,0.03564
6564.50732,0.07216
6566.43578,0.08981
6568.36425,0.08741
6570.29272,0.13083
6572.22119,0.16639
6574.14966,0.18083
6576.07813,0.19803
6578.00660,0.17956
6579.93507,0.12116
6581.86353,0.07075
6583.79200,0.04452
6585.72047,0.02119
6587.64894,0.01686
6589.57741,0.03054
6591.50588,0.01878
6593.43435,0.02984
6595.36281,0.09406
6597.29128,0.10849
6599.21975,0.07282
6601.14822,0.05909
6603.07669,0.07332
6605.00516,0.10933
6606.93363,0.13093
6608.86210,0.07923
6610.79056,-0.01167
6612.71903,-0.08066
6614.64750,-0.10733
6616.57597,-0.06923
6618.50444,-0.00799
6620.43291,-0.00186
6622.36138,-0.03125
6624.28984,-0.03882
6626.21831,-0.01166
6628.14678,0.01724
6630.07525,0.04987
6632.00372,0.11277
6633.93219,0.13974
6635.86066,0.10133
6637.78912,0.10226
6639.71759,0.12420
6641.64606,0.07220
6643.57453,0.04522
6645.50300,0.12548
6647.43147,0.15305
6649.35994,0.07570
6651.28841,0.02954
6653.21687,0.02850
6655.14534,0.00267
6657.07381,-0.01747
6659.00228,-0.00607
6660.93075,-0.01200
6662.85922,0.01131
6664.78769,0.09119
6666.71615,0.13105
6668.64462,0.09200
6670.57309,0.06010
6672.50156,0.08436
6674.43003,0.14885
6676.35850,0.16732
6678.28697,0.10868
6680.21544,0.08331
6682.14390,0.10894
6684.07237,0.10299
6686.00084,0.06199
6687.92931,0.04497
6689.85778,0.04786
6691.78625,0.03782
6693.71472,0.02960
6695.64318,0.05041
6697.57165,0.12376
6699.50012,0.17188
6701.42859,0.15047
6703.35706,0.11611
6705.28553,0.05857
6707.21400,0.01173
6709.14247,0.03847
6711.07093,0.09916
6712.99940,0.14306
6714.92787,0.13530
6716.85634,0.07455
6718.78481,-0.00447
6720.71328,-0.04583
6722.64175,-0.03312
6724.57021,-0.04618
6726.49868,-0.07033
6728.42715,-0.01014
6730.35562,0.09668
6732.28409,0.12948
6734.21256,0.10479
6736.14103,0.09713
6738.06950,0.08550
6739.99796,0.04150
6741.92643,-0.00580
6743.85490,-0.01567
6745.78337,0.00746
6747.71184,0.03722
6749.64031,0.06883
6751.56878,0.07843
6753.49724,0.05387
6755.42571,0.04366
6757.35418,0.06488
6759.28265,0.10349
6761.21112,0.18484
6763.13959,0.28256
6765.06806,0.29390
6766.99653,0.22497
6768.92499,0.18830
6770.85346,0.17968
6772.78193,0.13126
6774.71040,0.07832
6776.63887,0.06592
6778.56734,0.06775
6780.49581,0.08006
6782.42427,0.11980
6784.35274,0.14201
6786.28121,0.09865
6788.20968,0.05738
6790.13815,0.06405
6792.06662,0.05944
6793.99509,0.02465
6795.92355,-0.01306
6797.85202,-0.02250
6799.78049,-0.00696
6801.70896,0.02464
6803.63743,0.10664
6805.56590,0.17700
6807.49437,0.15423
6809.42284,0.11718
6811.35130,0.12343
6813.27977,0.10935
6815.20824,0.06123
6817.13671,0.01547
6819.06518,-0.00584
6820.99365,0.02796
6822.92212,0.07785
6824.85058,0.01611
6826.77905,-0.10088
6828.70752,-0.10614
6830.63599,-0.01646
6832.56446,0.02706
6834.49293,0.03003
6836.42140,0.08809
6838.34987,0.19558
6840.27833,0.22231
6842.20680,0.17835
6844.13527,0.17484
6846.06374,0.15811
6847.99221,0.02568
6849.92068,-0.08879
6851.84915,-0.02939
6853.77761,0.09940
6855.70608,0.13125
6857.63455,0.05555
6859.56302,0.01228
6861.49149,0.04284
6863.41996,0.10947
6865.34843,0.10729
6867.27690,-0.00539
6869.20536,-0.07184
6871.13383,-0.02736
6873.06230,0.00806
6874.99077,-0.02690
6876.91924,-0.07782
6878.84771,-0.11998
6880.77618,-0.12286
6882.70464,-0.07621
6884.63311,-0.01245
6886.56158,0.01523
6888.49005,-0.03309
6890.41852,-0.10288
6892.34699,-0.13205
6894.27546,-0.11244
6896.20393,-0.08464
6898.13239,-0.05472
6900.06086,0.02232
6901.98933,0.08044
6903.91780,0.06716
6905.84627,0.06538
6907.77474,0.12165
6909.70321,0.13301
6911.63167,0.05504
6913.56014,-0.01229
6915.48861,-0.00488
6917.41708,0.03846
6919.34555,0.05671
6921.27402,-0.03465
6923.20249,-0.16812
6925.13096,-0.21292
6927.05942,-0.17319
6928.98789,-0.11781
6930.91636,-0.09375
6932.84483,-0.06691
6934.77330,0.01716
6936.70177,0.10502
6938.63024,0.10007
6940.55870,0.01693
6942.48717,0.00669
6944.41564,0.03589
6946.34411,0.02240
6948.27258,-0.01594
6950.20105,-0.06253
6952.12952,-0.06543
6954.05799,-0.03035
6955.98645,-0.06621
6957.91492,-0.07780
6959.84339,0.06048
6961.77186,0.20413
6963.70033,0.20671
6965.62880,0.12601
6967.55727,0.06036
6969.48573,0.06471
6971.41420,0.12597
6973.34267,0.20655
6975.27114,0.30002
6977.19961,0.35529
6979.12808,0.30590
6981.05655,0.18452
6982.98501,0.07338
6984.91348,0.03670
6986.84195,0.04216
6988.77042,0.01729
6990.69889,-0.00529
6992.62736,-0.01529
6994.55583,-0.05256
6996.48430,-0.02087
6998.41276,0.13706
7000.34123,0.20672
7002.26970,0.11632
7004.19817,0.02077
7006.12664,0.02163
7008.05511,0.11269
7009.98358,0.13249
7011.91204,0.03681
7013.84051,0.00587
7015.76898,0.06834
7017.69745,0.05010
7019.62592,-0.03014
7021.55439,-0.03446
7023.48286,0.04926
7025.41133,0.10424
7027.33979,0.09419
7029.26826,0.09009
7031.19673,0.12415
7033.12520,0.14902
7035.05367,0.13873
7036.98214,0.14668
7038.91061,0.17734
7040.83907,0.20313
7042.76754,0.17647
7044.69601,0.10144
7046.62448,0.08041
7048.55295,0.07310
7050.48142,0.01021
7052.40989,-0.05321
7054.33836,-0.02647
7056.26682,0.11852
7058.19529,0.18749
7060.12376,0.06226
7062.05223,-0.03785
7063.98070,-0.01795
7065.90917,0.01955
7067.83764,0.03815
7069.76610,0.08243
7071.69457,0.16479
7073.62304,0.23113
7075.55151,0.24755
7077.47998,0.23723
7079.40845,0.22386
7081.33692,0.15786
7083.26539,0.01544
7085.19385,-0.07521
7087.12232,0.01477
7089.05079,0.18711
7090.97926,0.20984
7092.90773,0.15686
7094.83620,0.16834
7096.76467,0.18388
7098.69313,0.10962
7100.62160,-0.01602
7102.55007,-0.07666
7104.47854,-0.00211
7106.40701,0.11222
7108.33548,0.09365
7110.26395,0.04844
7112.19242,0.08828
7114.12088,0.08597
7116.04935,-0.01334
7117.97782,-0.04643
7119.90629,0.03820
7121.83476,0.09928
7123.76323,0.11684
7125.69170,0.08681
7127.62016,0.03268
7129.54863,0.02465
7131.47710,0.04110
7133.40557,0.05213
7135.33404,0.06965
7137.26251,0.07269
7139.19098,0.02476
7141.11944,-0.01118
7143.04791,0.04506
7144.97638,0.11920
7146.90485,0.11566
7148.83332,0.07411
7150.76179,0.07166
7152.69026,0.13950
7154.61873,0.23928
7156.54719,0.24423
7158.47566,0.11031
7160.40413,-0.01852
7162.33260,-0.02998
7164.26107,0.01146
7166.18954,0.05294
7168.11801,0.11817
7170.04647,0.18145
7171.97494,0.14622
7173.90341,0.03443
7175.83188,-0.03246
7177.76035,-0.06528
7179.68882,-0.10862
7181.61729,-0.02387
7183.54576,0.18289
7185.47422,0.23623
7187.40269,0.15270
7189.33116,0.06318
7191.25963,-0.02222
7193.18810,-0.06013
7195.11657,-0.00518
7197.04504,0.07177
7198.97350,0.11806
7200.90197,0.14631
7202.83044,0.14165
7204.75891,0.12850
7206.68738,0.13494
7208.61585,0.14621
7210.54432,0.18584
7212.47279,0.17852
7214.40125,0.09702
7216.32972,0.02482
7218.25819,0.03268
7220.18666,0.13093
7222.11513,0.19280
7224.04360,0.15312
7225.97207,0.09830
7227.90053,0.06624
7229.82900,0.03003
7231.75747,0.04376
7233.68594,0.15660
7235.61441,0.24296
7237.54288,0.24883
7239.47135,0.24049
7241.39982,0.16986
7243.32828,0.08127
7245.25675,0.12550
7247.18522,0.11965
7249.11369,0.03908
7251.04216,0.02432
7252.97063,-0.01935
7254.89910,-0.03828
7256.82756,0.08114
7258.75603,0.13245
7260.68450,0.04001
7262.61297,0.00394
7264.54144,0.09916
7266.46991,0.16399
7268.39838,0.07377
7270.32685,-0.09303
7272.25531,-0.06952
7274.18378,0.14333
7276.11225,0.17410
7278.04072,0.03699
7279.96919,-0.04630
7281.89766,-0.07090
7283.82613,-0.04208
7285.75459,0.14250
7287.68306,0.31608
7289.61153,0.31317
7291.54000,0.16508
7293.46847,0.03097
7295.39694,-0.05797
7297.32541,-0.17217
7299.25387,-0.20177
7301.18234,-0.11340
7303.11081,-0.04922
7305.03928,-0.03571
7306.96775,-0.02908
7308.89622,-0.09128
7310.82469,-0.20945
7312.75316,-0.28002
7314.68162,-0.25891
7316.61009,-0.13265
7318.53856,-0.06735
7320.46703,-0.08564
7322.39550,0.00402
7324.32397,0.20532
7326.25244,0.39308
7328.18090,0.49667
7330.10937,0.40619
7332.03784,0.26889
7333.96631,0.22895
7335.89478,0.22640
7337.82325,0.18513
7339.75172,-0.03668
7341.68019,-0.27750
7343.60865,-0.25219
7345.53712,-0.08906
7347.46559,0.11963
7349.39406,0.30787
7351.32253,0.38961
7353.25100,0.33995
7355.17947,0.24725
7357.10793,0.21653
7359.03640,0.21355
7360.96487,0.15449
7362.89334,0.08441
7364.82181,0.02492
7366.75028,0.06573
7368.67875,0.24615
7370.60722,0.35480
7372.53568,0.28484
7374.46415,0.05250
7376.39262,-0.17220
7378.32109,-0.06167
7380.24956,0.21551
7382.17803,0.24791
7384.10650,0.03407
7386.03496,0.01564
7387.96343,0.16349
7389.89190,0.22163
7391.82037,0.28888
7393.74884,0.32468
7395.67731,0.25782
7397.60578,0.26628
7399.53425,0.30984
7401.46271,0.23759
7403.39118,0.08451
7405.31965,-0.02943
7407.24812,-0.11629
7409.17659,-0.22253
7411.10506,-0.27248
7413.03353,-0.15695
7414.96199,0.00993
7416.89046,0.06454
7418.81893,0.10452
7420.74740,0.24437
7422.67587,0.32713
7424.60434,0.32165
7426.53281,0.26221
7428.46128,0.17787
7430.38974,0.11122
7432.31821,0.09113
7434.24668,-0.00153
7436.17515,-0.17328
7438.10362,-0.21302
7440.03209,-0.10022
7441.96056,-0.04773
7443.88902,-0.14299
7445.81749,-0.25448
7447.74596,-0.17475
7449.67443,0.12188
7451.60290,0.24563
7453.53137,0.07138
7455.45984,-0.00148
7457.38831,0.13302
7459.31677,0.39368
7461.24524,0.49340
7463.17371,0.32988
7465.10218,0.14280
7467.03065,0.07438
7468.95912,0.09437
7470.88759,0.12143
7472.81605,0.15419
7474.74452,0.23480
7476.67299,0.29337
7478.60146,0.23149
7480.52993,0.06566
7482.45840,-0.06325
7484.38687,-0.08129
7486.31533,-0.11297
7488.24380,-0.24040
7490.17227,-0.33535
7492.10074,-0.24713
7494.02921,-0.08585
7495.95768,0.01389
7497.88615,0.05159
