399.19301,-0.30377
401.12148,-0.17326
403.04995,0.03271
404.97842,-0.01528
406.90689,-0.02587
408.83536,0.01434
410.76382,-0.03440
412.69229,-0.12599
414.62076,-0.11971
416.54923,-0.08190
418.47770,-0.00038
420.40617,0.15413
422.33464,0.18465
424.26311,0.13152
426.19157,0.07779
428.12004,0.02357
430.04851,0.00271
431.97698,0.04352
433.90545,0.09921
435.83392,0.14905
437.76239,0.19192
439.69085,0.17365
441.61932,0.06863
443.54779,0.01317
445.47626,0.08137
447.40473,0.12944
449.33320,0.09668
451.26167,0.10664
453.19013,0.16214
455.11860,0.15548
457.04707,0.09431
458.97554,0.07354
460.90401,0.11435
462.83248,0.14159
464.76095,0.12282
466.68942,0.07224
468.61788,0.02124
470.54635,-0.00318
472.47482,-0.03115
474.40329,-0.06515
476.33176,-0.00809
478.26023,0.07917
480.18870,0.12011
482.11716,0.11603
484.04563,0.08922
485.97410,0.05422
487.90257,0.05895
489.83104,0.09330
491.75951,0.12922
493.68798,0.18589
495.61645,0.20500
497.54491,0.13972
499.47338,0.07978
501.40185,0.06362
503.33032,0.04107
505.25879,0.03514
507.18726,0.07923
509.11573,0.10426
511.04419,0.08617
512.97266,0.08122
514.90113,0.09745
516.82960,0.09406
518.75807,0.06879
520.68654,0.08059
522.61501,0.13074
524.54348,0.14330
526.47194,0.10676
528.40041,0.09013
530.32888,0.10927
532.25735,0.11825
534.18582,0.07705
536.11429,0.04912
538.04276,0.07364
539.97122,0.09334
541.89969,0.12305
543.82816,0.14713
545.75663,0.11021
547.68510,0.06213
549.61357,0.04056
551.54204,0.00507
553.47051,-0.02335
555.39897,0.01885
557.32744,0.08253
559.25591,0.10555
561.18438,0.11583
563.11285,0.11540
565.04132,0.10175
566.96979,0.09803
568.89825,0.09208
570.82672,0.07372
572.75519,0.06485
574.68366,0.07432
576.61213,0.07577
578.54060,0.07099
580.46907,0.08986
582.39754,0.10891
584.32600,0.10396
586.25447,0.10278
588.18294,0.12250
590.11141,0.13973
592.03988,0.13395
593.96835,0.12336
595.89682,0.11103
597.82528,0.09301
599.75375,0.08964
601.68222,0.09909
603.61069,0.10611
605.53916,0.11019
607.46763,0.11074
609.39610,0.09820
611.32456,0.07854
613.25303,0.07545
615.18150,0.08236
617.10997,0.07760
619.03844,0.08041
620.96691,0.10531
622.89538,0.12271
624.82385,0.11460
626.75231,0.10087
628.68078,0.10699
630.60925,0.12350
632.53772,0.12418
634.46619,0.11194
636.39466,0.10110
638.32313,0.08509
640.25159,0.06199
642.18006,0.05559
644.10853,0.07509
646.03700,0.10023
647.96547,0.11751
649.89394,0.12463
651.82241,0.13136
653.75088,0.14316
655.67934,0.13745
657.60781,0.11942
659.53628,0.11873
661.46475,0.12202
663.39322,0.11242
665.32169,0.10080
667.25016,0.08712
669.17862,0.07920
671.10709,0.10666
673.03556,0.14318
674.96403,0.15384
676.89250,0.13246
678.82097,0.10999
680.74944,0.10044
682.67791,0.09134
684.60637,0.08766
686.53484,0.10631
688.46331,0.13390
690.39178,0.14634
692.32025,0.14952
694.24872,0.14215
696.17719,0.11731
698.10565,0.09688
700.03412,0.10033
701.96259,0.11515
703.89106,0.11897
705.81953,0.11457
707.74800,0.13127
709.67647,0.21357
711.60494,0.29466
713.53340,0.23703
715.46187,0.12724
717.39034,0.10510
719.31881,0.11742
721.24728,0.11403
723.17575,0.11714
725.10422,0.12555
727.03268,0.12070
728.96115,0.11438
730.88962,0.12422
732.81809,0.13240
734.74656,0.12559
736.67503,0.11987
738.60350,0.12114
740.53197,0.11805
742.46043,0.11255
744.38890,0.11093
746.31737,0.11053
748.24584,0.10862
750.17431,0.10705
752.10278,0.11120
754.03125,0.11878
755.95971,0.11647
757.88818,0.10542
759.81665,0.11051
761.74512,0.12900
763.67359,0.13612
765.60206,0.13406
767.53053,0.12901
769.45900,0.12020
771.38746,0.11452
773.31593,0.11914
775.24440,0.13033
777.17287,0.13189
779.10134,0.12162
781.02981,0.11527
782.95828,0.12295
784.88674,0.13809
786.81521,0.14136
788.74368,0.13092
790.67215,0.12401
792.60062,0.12577
794.52909,0.13083
796.45756,0.13342
798.38602,0.12988
800.31449,0.12197
802.24296,0.11364
804.17143,0.10524
806.09990,0.10219
808.02837,0.10734
809.95684,0.11029
811.88531,0.11345
813.81377,0.12467
815.74224,0.13266
817.67071,0.12835
819.59918,0.11912
821.52765,0.11343
823.45612,0.11061
825.38459,0.11156
827.31305,0.12190
829.24152,0.13498
831.16999,0.13865
833.09846,0.13480
835.02693,0.13295
836.95540,0.13328
838.88387,0.13330
840.81234,0.13550
842.74080,0.13401
844.66927,0.12870
846.59774,0.13548
848.52621,0.15228
850.45468,0.15900
852.38315,0.15372
854.31162,0.14999
856.24008,0.14950
858.16855,0.15010
860.09702,0.15164
862.02549,0.14558
863.95396,0.13484
865.88243,0.13344
867.81090,0.14413
869.73937,0.15580
871.66783,0.15205
873.59630,0.13679
875.52477,0.12538
877.45324,0.12100
879.38171,0.12335
881.31018,0.12564
883.23865,0.12211
885.16711,0.12356
887.09558,0.13443
889.02405,0.13883
890.95252,0.12824
892.88099,0.11657
894.80946,0.11880
896.73793,0.13066
898.66640,0.13727
900.59486,0.13647
902.52333,0.13311
904.45180,0.12423
906.38027,0.11553
908.30874,0.12107
910.23721,0.13755
912.16568,0.14873
914.09414,0.15090
916.02261,0.15149
917.95108,0.15290
919.87955,0.15137
921.80802,0.14418
923.73649,0.13599
925.66496,0.13373
927.59343,0.13872
929.52189,0.14444
931.45036,0.14123
933.37883,0.13415
935.30730,0.13466
937.23577,0.13724
939.16424,0.13592
941.09271,0.13520
943.02117,0.13432
944.94964,0.13386
946.87811,0.13910
948.80658,0.14567
950.73505,0.14540
952.66352,0.13987
954.59199,0.13972
956.52045,0.14402
958.44892,0.13896
960.37739,0.12968
962.30586,0.13039
964.23433,0.14001
966.16280,0.14871
968.09127,0.15046
970.01974,0.14956
971.94820,0.14615
973.87667,0.13626
975.80514,0.12893
977.73361,0.13182
979.66208,0.13766
981.59055,0.13783
983.51902,0.13586
985.44748,0.13630
987.37595,0.13581
989.30442,0.13763
991.23289,0.14554
993.16136,0.14984
995.08983,0.14489
997.01830,0.13848
998.94677,0.13985
1000.87523,0.14724
1002.80370,0.14681
1004.73217,0.13617
1006.66064,0.13076
1008.58911,0.13455
1010.51758,0.13754
1012.44605,0.13781
1014.37451,0.14020
1016.30298,0.14560
1018.23145,0.14910
1020.15992,0.14886
1022.08839,0.15013
1024.01686,0.15260
1025.94533,0.14966
1027.87380,0.14205
1029.80226,0.13812
1031.73073,0.13852
1033.65920,0.14174
1035.58767,0.15116
1037.51614,0.16214
1039.44461,0.16783
1041.37308,0.16311
1043.30154,0.15050
1045.23001,0.14480
1047.15848,0.14699
1049.08695,0.14666
1051.01542,0.14591
1052.94389,0.14907
1054.87236,0.15087
1056.80083,0.14755
1058.72929,0.14156
1060.65776,0.13900
1062.58623,0.14378
1064.51470,0.15024
1066.44317,0.15160
1068.37164,0.14985
1070.30011,0.14908
1072.22857,0.14658
1074.15704,0.14246
1076.08551,0.14554
1078.01398,0.15590
1079.94245,0.16435
1081.87092,0.16664
1083.79939,0.16659
1085.72786,0.16618
1087.65632,0.15936
1089.58479,0.14942
1091.51326,0.14430
1093.44173,0.14312
1095.37020,0.15140
1097.29867,0.16517
1099.22714,0.16634
1101.15560,0.15974
1103.08407,0.15821
1105.01254,0.15875
1106.94101,0.15830
1108.86948,0.15580
1110.79795,0.14998
1112.72642,0.14695
1114.65489,0.15024
1116.58335,0.15023
1118.51182,0.14382
1120.44029,0.14122
1122.36876,0.14414
1124.29723,0.14899
1126.22570,0.15421
1128.15417,0.15488
1130.08263,0.14972
1132.01110,0.14333
1133.93957,0.13886
1135.86804,0.13815
1137.79651,0.14401
1139.72498,0.15293
1141.65345,0.15808
1143.58191,0.16093
1145.51038,0.16516
1147.43885,0.16686
1149.36732,0.16162
1151.29579,0.15584
1153.22426,0.15597
1155.15273,0.15944
1157.08120,0.16206
1159.00966,0.15958
1160.93813,0.15252
1162.86660,0.14879
1164.79507,0.14801
1166.72354,0.14409
1168.65201,0.14475
1170.58048,0.15445
1172.50894,0.16190
1174.43741,0.16250
1176.36588,0.16019
1178.29435,0.15907
1180.22282,0.15973
1182.15129,0.15759
1184.07976,0.15343
1186.00823,0.15176
1187.93669,0.15238
1189.86516,0.15237
1191.79363,0.15196
1193.72210,0.15627
1195.65057,0.16621
1197.57904,0.17233
1199.50751,0.16669
1201.43597,0.15778
1203.36444,0.15681
1205.29291,0.15994
1207.22138,0.16009
1209.14985,0.15782
1211.07832,0.15924
1213.00679,0.16611
1214.93526,0.16960
1216.86372,0.16471
1218.79219,0.15809
1220.72066,0.15670
1222.64913,0.15989
1224.57760,0.16294
1226.50607,0.16188
1228.43454,0.15668
1230.36300,0.15327
1232.29147,0.15363
1234.21994,0.15186
1236.14841,0.14799
1238.07688,0.14844
1240.00535,0.15260
1241.93382,0.15619
1243.86229,0.15876
1245.79075,0.15990
1247.71922,0.16049
1249.64769,0.16250
1251.57616,0.16213
1253.50463,0.15764
1255.43310,0.15509
1257.36157,0.15501
1259.29003,0.15372
1261.21850,0.15312
1263.14697,0.15473
1265.07544,0.15752
1267.00391,0.16081
1268.93238,0.16299
1270.86085,0.16279
1272.78932,0.16068
1274.71778,0.15866
1276.64625,0.16018
1278.57472,0.16606
1280.50319,0.16860
1282.43166,0.16465
1284.36013,0.16300
1286.28860,0.16310
1288.21706,0.15944
1290.14553,0.15818
1292.07400,0.15958
1294.00247,0.15782
1295.93094,0.15569
1297.85941,0.15406
1299.78788,0.14708
1301.71634,0.13114
1303.64481,0.11450
1305.57328,0.11766
1307.50175,0.14241
1309.43022,0.16227
1311.35869,0.16707
1313.28716,0.16835
1315.21563,0.17019
1317.14409,0.17247
1319.07256,0.17293
1321.00103,0.16841
1322.92950,0.16314
1324.85797,0.16002
1326.78644,0.15905
1328.71491,0.16029
1330.64337,0.15875
1332.57184,0.15519
1334.50031,0.15659
1336.42878,0.16319
1338.35725,0.17085
1340.28572,0.16666
1342.21419,0.15320
1344.14266,0.14615
1346.07112,0.14302
1347.99959,0.14523
1349.92806,0.15443
1351.85653,0.16163
1353.78500,0.16484
1355.71347,0.16623
1357.64194,0.16785
1359.57040,0.17133
1361.49887,0.17761
1363.42734,0.18317
1365.35581,0.18269
1367.28428,0.18038
1369.21275,0.17782
1371.14122,0.17459
1373.06969,0.17608
1374.99815,0.18186
1376.92662,0.18318
1378.85509,0.18172
1380.78356,0.17984
1382.71203,0.17678
1384.64050,0.17732
1386.56897,0.18211
1388.49743,0.18428
1390.42590,0.18466
1392.35437,0.18894
1394.28284,0.19576
1396.21131,0.19901
1398.13978,0.19568
1400.06825,0.18797
1401.99672,0.18336
1403.92518,0.18397
1405.85365,0.18267
1407.78212,0.17736
1409.71059,0.17500
1411.63906,0.17545
1413.56753,0.17626
1415.49600,0.18354
1417.42446,0.19894
1419.35293,0.20538
1421.28140,0.19758
1423.20987,0.19245
1425.13834,0.18788
1427.06681,0.18299
1428.99528,0.18423
1430.92375,0.18591
1432.85221,0.18583
1434.78068,0.19344
1436.70915,0.19865
1438.63762,0.18640
1440.56609,0.17725
1442.49456,0.17998
1444.42303,0.18761
1446.35149,0.19411
1448.27996,0.19697
1450.20843,0.19708
1452.13690,0.19866
1454.06537,0.20664
1455.99384,0.22414
1457.92231,0.22763
1459.85077,0.20587
1461.77924,0.19362
1463.70771,0.19340
1465.63618,0.19188
1467.56465,0.18682
1469.49312,0.19304
1471.42159,0.21628
1473.35006,0.23206
1475.27852,0.21688
1477.20699,0.19863
1479.13546,0.19137
1481.06393,0.19133
1482.99240,0.19342
1484.92087,0.19954
1486.84934,0.21254
1488.77780,0.22215
1490.70627,0.21105
1492.63474,0.19652
1494.56321,0.19790
1496.49168,0.21295
1498.42015,0.22008
1500.34862,0.21207
1502.27709,0.20872
1504.20555,0.22212
1506.13402,0.25467
1508.06249,0.25769
1509.99096,0.23134
1511.91943,0.22069
1513.84790,0.22460
1515.77637,0.23433
1517.70483,0.23953
1519.63330,0.24644
1521.56177,0.25636
1523.49024,0.24816
1525.41871,0.23433
1527.34718,0.22162
1529.27565,0.21094
1531.20412,0.21225
1533.13258,0.22117
1535.06105,0.22224
1536.98952,0.22660
1538.91799,0.25219
1540.84646,0.28120
1542.77493,0.26818
1544.70340,0.23913
1546.63186,0.21763
1548.56033,0.21179
1550.48880,0.21230
1552.41727,0.21424
1554.34574,0.22568
1556.27421,0.24919
1558.20268,0.27920
1560.13115,0.25600
1562.05961,0.21786
1563.98808,0.20588
1565.91655,0.20795
1567.84502,0.21556
1569.77349,0.21747
1571.70196,0.20724
1573.63043,0.20481
1575.55889,0.21195
1577.48736,0.20780
1579.41583,0.19670
1581.34430,0.18987
1583.27277,0.18722
1585.20124,0.18723
1587.12971,0.18633
1589.05818,0.18527
1590.98664,0.18538
1592.91511,0.18634
1594.84358,0.18812
1596.77205,0.18685
1598.70052,0.18369
1600.62899,0.18359
1602.55746,0.18534
1604.48592,0.18701
1606.41439,0.18900
1608.34286,0.18978
1610.27133,0.18999
1612.19980,0.19468
1614.12827,0.20527
1616.05674,0.21535
1617.98521,0.20974
1619.91367,0.20202
1621.84214,0.20825
1623.77061,0.21719
1625.69908,0.21603
1627.62755,0.21091
1629.55602,0.20395
1631.48449,0.20125
1633.41295,0.21153
1635.34142,0.23083
1637.26989,0.22904
1639.19836,0.21450
1641.12683,0.20644
1643.05530,0.20755
1644.98377,0.22281
1646.91223,0.24520
1648.84070,0.24615
1650.76917,0.24480
1652.69764,0.26013
1654.62611,0.24989
1656.55458,0.22243
1658.48305,0.21035
1660.41152,0.21145
1662.33998,0.21359
1664.26845,0.20832
1666.19692,0.20752
1668.12539,0.21773
1670.05386,0.22819
1671.98233,0.22641
1673.91080,0.22262
1675.83926,0.21839
1677.76773,0.21457
1679.69620,0.21738
1681.62467,0.22930
1683.55314,0.24791
1685.48161,0.24215
1687.41008,0.22158
1689.33855,0.21184
1691.26701,0.20829
1693.19548,0.20964
1695.12395,0.22211
1697.05242,0.23940
1698.98089,0.24623
1700.90936,0.23985
1702.83783,0.23108
1704.76629,0.22660
1706.69476,0.21703
1708.62323,0.20479
1710.55170,0.20030
1712.48017,0.20591
1714.40864,0.22098
1716.33711,0.23653
1718.26558,0.22889
1720.19404,0.20878
1722.12251,0.19628
1724.05098,0.19068
1725.97945,0.19098
1727.90792,0.19640
1729.83639,0.20325
1731.76486,0.21046
1733.69332,0.21804
1735.62179,0.21667
1737.55026,0.21384
1739.47873,0.21459
1741.40720,0.21283
1743.33567,0.21076
1745.26414,0.21254
1747.19261,0.21684
1749.12107,0.21974
1751.04954,0.21374
1752.97801,0.20466
1754.90648,0.20379
1756.83495,0.20797
1758.76342,0.20861
1760.69189,0.20608
1762.62035,0.19975
1764.54882,0.19310
1766.47729,0.19544
1768.40576,0.20649
1770.33423,0.21966
1772.26270,0.22473
1774.19117,0.21501
1776.11964,0.20403
1778.04810,0.19843
1779.97657,0.19615
1781.90504,0.19518
1783.83351,0.19481
1785.76198,0.19401
1787.69045,0.19584
1789.61892,0.20484
1791.54738,0.21494
1793.47585,0.21194
1795.40432,0.20163
1797.33279,0.19724
1799.26126,0.20157
1801.18973,0.20580
1803.11820,0.20152
1805.04666,0.19560
1806.97513,0.19407
1808.90360,0.19600
1810.83207,0.19693
1812.76054,0.19422
1814.68901,0.19120
1816.61748,0.18824
1818.54595,0.18482
1820.47441,0.18588
1822.40288,0.19275
1824.33135,0.19939
1826.25982,0.20322
1828.18829,0.20634
1830.11676,0.20315
1832.04523,0.19476
1833.97369,0.19301
1835.90216,0.19763
1837.83063,0.20054
1839.75910,0.19933
1841.68757,0.20090
1843.61604,0.20658
1845.54451,0.20615
1847.47298,0.20008
1849.40144,0.19563
1851.32991,0.19349
1853.25838,0.19088
1855.18685,0.18615
1857.11532,0.18336
1859.04379,0.18568
1860.97226,0.19001
1862.90072,0.19278
1864.82919,0.19631
1866.75766,0.20425
1868.68613,0.20924
1870.61460,0.20317
1872.54307,0.19575
1874.47154,0.19189
1876.40001,0.18920
1878.32847,0.18768
1880.25694,0.18782
1882.18541,0.18890
1884.11388,0.18978
1886.04235,0.19038
1887.97082,0.19276
1889.89929,0.19528
1891.82775,0.19604
1893.75622,0.19659
1895.68469,0.19406
1897.61316,0.18899
1899.54163,0.18630
1901.47010,0.18497
1903.39857,0.18480
1905.32704,0.18972
1907.25550,0.19723
1909.18397,0.19852
1911.11244,0.19426
1913.04091,0.19273
1914.96938,0.19505
1916.89785,0.19922
1918.82632,0.20182
1920.75478,0.20060
1922.68325,0.19763
1924.61172,0.19274
1926.54019,0.18721
1928.46866,0.18518
1930.39713,0.18793
1932.32560,0.19184
1934.25407,0.19344
1936.18253,0.19405
1938.11100,0.19571
1940.03947,0.19852
1941.96794,0.20126
1943.89641,0.20085
1945.82488,0.19711
1947.75335,0.19251
1949.68181,0.18967
1951.61028,0.19037
1953.53875,0.19302
1955.46722,0.19430
1957.39569,0.19286
1959.32416,0.19077
1961.25263,0.19117
1963.18110,0.19361
1965.10956,0.19539
1967.03803,0.19552
1968.96650,0.19357
1970.89497,0.19127
1972.82344,0.18946
1974.75191,0.18390
1976.68038,0.17568
1978.60884,0.17334
1980.53731,0.17958
1982.46578,0.18777
1984.39425,0.19236
1986.32272,0.19434
1988.25119,0.19612
1990.17966,0.19932
1992.10812,0.20066
1994.03659,0.19702
1995.96506,0.19460
1997.89353,0.19603
1999.82200,0.19630
2001.75047,0.19388
2003.67894,0.19170
2005.60741,0.19104
2007.53587,0.19111
2009.46434,0.19155
2011.39281,0.19217
2013.32128,0.19221
2015.24975,0.19243
2017.17822,0.19317
2019.10669,0.19189
2021.03515,0.18936
2022.96362,0.18981
2024.89209,0.19333
2026.82056,0.19561
2028.74903,0.19565
2030.67750,0.19514
2032.60597,0.19363
2034.53444,0.19236
2036.46290,0.19288
2038.39137,0.19348
2040.31984,0.19365
2042.24831,0.19477
2044.17678,0.19672
2046.10525,0.19684
2048.03372,0.19357
2049.96218,0.19071
2051.89065,0.19188
2053.81912,0.19533
2055.74759,0.19788
2057.67606,0.19705
2059.60453,0.19410
2061.53300,0.19333
2063.46147,0.19519
2065.38993,0.19695
2067.31840,0.19667
2069.24687,0.19406
2071.17534,0.19143
2073.10381,0.19196
2075.03228,0.19441
2076.96075,0.19603
2078.88921,0.19699
2080.81768,0.19694
2082.74615,0.19458
2084.67462,0.19067
2086.60309,0.18830
2088.53156,0.18952
2090.46003,0.19271
2092.38850,0.19545
2094.31696,0.19703
2096.24543,0.19731
2098.17390,0.19674
2100.10237,0.19614
2102.03084,0.19545
2103.95931,0.19394
2105.88778,0.19273
2107.81624,0.19457
2109.74471,0.19762
2111.67318,0.19785
2113.60165,0.19710
2115.53012,0.19901
2117.45859,0.20114
2119.38706,0.19940
2121.31553,0.19572
2123.24399,0.19339
2125.17246,0.19230
2127.10093,0.19208
2129.02940,0.19154
2130.95787,0.18974
2132.88634,0.18975
2134.81481,0.19365
2136.74327,0.19723
2138.67174,0.19681
2140.60021,0.19489
2142.52868,0.19447
2144.45715,0.19389
2146.38562,0.19300
2148.31409,0.19480
2150.24255,0.19740
2152.17102,0.19744
2154.09949,0.19671
2156.02796,0.19624
2157.95643,0.19436
2159.88490,0.19219
2161.81337,0.19194
2163.74184,0.19311
2165.67030,0.19390
2167.59877,0.19358
2169.52724,0.19419
2171.45571,0.19548
2173.38418,0.19432
2175.31265,0.19305
2177.24112,0.19407
2179.16958,0.19506
2181.09805,0.19579
2183.02652,0.19622
2184.95499,0.19448
2186.88346,0.19154
2188.81193,0.18933
2190.74040,0.18865
2192.66887,0.19084
2194.59733,0.19442
2196.52580,0.19614
2198.45427,0.19641
2200.38274,0.19553
2202.31121,0.19333
2204.23968,0.19253
2206.16815,0.19336
2208.09661,0.19290
2210.02508,0.19153
2211.95355,0.19156
2213.88202,0.19284
2215.81049,0.19443
2217.73896,0.19521
2219.66743,0.19436
2221.59590,0.19369
2223.52436,0.19344
2225.45283,0.19300
2227.38130,0.19411
2229.30977,0.19551
2231.23824,0.19499
2233.16671,0.19369
2235.09518,0.19323
2237.02364,0.19402
2238.95211,0.19449
2240.88058,0.19428
2242.80905,0.19470
2244.73752,0.19521
2246.66599,0.19457
2248.59446,0.19208
2250.52293,0.18991
2252.45139,0.19157
2254.37986,0.19435
2256.30833,0.19507
2258.23680,0.19610
2260.16527,0.19728
2262.09374,0.19706
2264.02221,0.19760
2265.95067,0.19882
2267.87914,0.19750
2269.80761,0.19494
2271.73608,0.19551
2273.66455,0.19817
2275.59302,0.19962
2277.52149,0.19991
2279.44996,0.19843
2281.37842,0.19454
2283.30689,0.19233
2285.23536,0.19405
2287.16383,0.19562
2289.09230,0.19648
2291.02077,0.19911
2292.94924,0.20044
2294.87770,0.19838
2296.80617,0.19529
2298.73464,0.19308
2300.66311,0.19263
2302.59158,0.19258
2304.52005,0.19275
2306.44852,0.19532
2308.37699,0.19689
2310.30545,0.19440
2312.23392,0.19282
2314.16239,0.19637
2316.09086,0.20123
2318.01933,0.19967
2319.94780,0.19340
2321.87627,0.19221
2323.80473,0.19756
2325.73320,0.20459
2327.66167,0.20873
2329.59014,0.20937
2331.51861,0.21055
2333.44708,0.20996
2335.37555,0.20372
2337.30401,0.19539
2339.23248,0.19025
2341.16095,0.18758
2343.08942,0.18220
2345.01789,0.17936
2346.94636,0.18504
2348.87483,0.19395
2350.80330,0.20110
2352.73176,0.19962
2354.66023,0.18862
2356.58870,0.18329
2358.51717,0.18272
2360.44564,0.17101
2362.37411,0.15839
2364.30258,0.16025
2366.23104,0.17211
2368.15951,0.18467
2370.08798,0.18818
2372.01645,0.18794
2373.94492,0.19123
2375.87339,0.19304
2377.80186,0.19247
2379.73033,0.19218
2381.65879,0.19287
2383.58726,0.19515
2385.51573,0.19760
2387.44420,0.19814
2389.37267,0.19825
2391.30114,0.19903
2393.22961,0.19919
2395.15807,0.19880
2397.08654,0.19718
2399.01501,0.19440
2400.94348,0.19337
2402.87195,0.19485
2404.80042,0.19636
2406.72889,0.19607
2408.65736,0.19514
2410.58582,0.19551
2412.51429,0.19786
2414.44276,0.20005
2416.37123,0.19910
2418.29970,0.19694
2420.22817,0.19723
2422.15664,0.19794
2424.08510,0.19537
2426.01357,0.19168
2427.94204,0.19134
2429.87051,0.19433
2431.79898,0.19621
2433.72745,0.19500
2435.65592,0.19398
2437.58439,0.19447
2439.51285,0.19337
2441.44132,0.19180
2443.36979,0.19529
2445.29826,0.20116
2447.22673,0.20223
2449.15520,0.19957
2451.08367,0.19831
2453.01213,0.19938
2454.94060,0.19929
2456.86907,0.19736
2458.79754,0.19655
2460.72601,0.19630
2462.65448,0.19505
2464.58295,0.19415
2466.51142,0.19430
2468.43988,0.19559
2470.36835,0.19798
2472.29682,0.19947
2474.22529,0.19954
2476.15376,0.19983
2478.08223,0.20066
2480.01070,0.20081
2481.93916,0.19980
2483.86763,0.19832
2485.79610,0.19713
2487.72457,0.19656
2489.65304,0.19615
2491.58151,0.19655
2493.50998,0.19849
2495.43844,0.19970
2497.36691,0.19846
2499.29538,0.19666
2501.22385,0.19606
2503.15232,0.19618
2505.08079,0.19599
2507.00926,0.19595
2508.93773,0.19767
2510.86619,0.20028
2512.79466,0.20174
2514.72313,0.20108
2516.65160,0.19844
2518.58007,0.19622
2520.50854,0.19630
2522.43701,0.19686
2524.36547,0.19537
2526.29394,0.19357
2528.22241,0.19425
2530.15088,0.19711
2532.07935,0.19967
2534.00782,0.19981
2535.93629,0.19878
2537.86476,0.19842
2539.79322,0.19858
2541.72169,0.19935
2543.65016,0.20086
2545.57863,0.20073
2547.50710,0.19865
2549.43557,0.19861
2551.36404,0.19944
2553.29250,0.19953
2555.22097,0.20352
2557.14944,0.20869
2559.07791,0.20697
2561.00638,0.20102
2562.93485,0.19718
2564.86332,0.19585
2566.79179,0.19632
2568.72025,0.19731
2570.64872,0.19743
2572.57719,0.19821
2574.50566,0.19951
2576.43413,0.19910
2578.36260,0.19879
2580.29107,0.20076
2582.21953,0.20245
2584.14800,0.20178
2586.07647,0.20092
2588.00494,0.20129
2589.93341,0.20162
2591.86188,0.20168
2593.79035,0.20059
2595.71882,0.19799
2597.64728,0.19763
2599.57575,0.19913
2601.50422,0.19787
2603.43269,0.19757
2605.36116,0.20308
2607.28963,0.20813
2609.21810,0.20824
2611.14656,0.20879
2613.07503,0.20929
2615.00350,0.20452
2616.93197,0.19951
2618.86044,0.19948
2620.78891,0.20068
2622.71738,0.20057
2624.64585,0.20068
2626.57431,0.20073
2628.50278,0.19973
2630.43125,0.19984
2632.35972,0.20170
2634.28819,0.20336
2636.21666,0.20485
2638.14513,0.20544
2640.07359,0.20387
2642.00206,0.20226
2643.93053,0.20319
2645.85900,0.20525
2647.78747,0.20572
2649.71594,0.20504
2651.64441,0.20445
2653.57288,0.20418
2655.50134,0.20451
2657.42981,0.20416
2659.35828,0.20223
2661.28675,0.20049
2663.21522,0.20015
2665.14369,0.20196
2667.07216,0.20646
2669.00062,0.20971
2670.92909,0.20734
2672.85756,0.20344
2674.78603,0.20327
2676.71450,0.20419
2678.64297,0.20436
2680.57144,0.20598
2682.49990,0.20710
2684.42837,0.20564
2686.35684,0.20424
2688.28531,0.20397
2690.21378,0.20535
2692.14225,0.20790
2694.07072,0.20848
2695.99919,0.20860
2697.92765,0.20932
2699.85612,0.20838
2701.78459,0.20620
2703.71306,0.20359
2705.64153,0.20169
2707.57000,0.20265
2709.49847,0.20550
2711.42693,0.20685
2713.35540,0.20626
2715.28387,0.20560
2717.21234,0.20473
2719.14081,0.20309
2721.06928,0.20370
2722.99775,0.20874
2724.92622,0.21265
2726.85468,0.21079
2728.78315,0.20760
2730.71162,0.20655
2732.64009,0.20510
2734.56856,0.20316
2736.49703,0.20289
2738.42550,0.20362
2740.35396,0.20512
2742.28243,0.20814
2744.21090,0.21019
2746.13937,0.20881
2748.06784,0.20654
2749.99631,0.20644
2751.92478,0.20839
2753.85325,0.21059
2755.78171,0.21092
2757.71018,0.20967
2759.63865,0.20893
2761.56712,0.20810
2763.49559,0.20744
2765.42406,0.21024
2767.35253,0.21453
2769.28099,0.21472
2771.20946,0.21158
2773.13793,0.20943
2775.06640,0.20870
2776.99487,0.20800
2778.92334,0.20856
2780.85181,0.21096
2782.78028,0.21264
2784.70874,0.21174
2786.63721,0.20894
2788.56568,0.20649
2790.49415,0.20529
2792.42262,0.20487
2794.35109,0.20681
2796.27956,0.20999
2798.20802,0.21137
2800.13649,0.21247
2802.06496,0.21287
2803.99343,0.20980
2805.92190,0.20616
2807.85037,0.20650
2809.77884,0.21039
2811.70731,0.21453
2813.63577,0.21642
2815.56424,0.21649
2817.49271,0.21577
2819.42118,0.21384
2821.34965,0.21300
2823.27812,0.21488
2825.20659,0.21618
2827.13505,0.21511
2829.06352,0.21409
2830.99199,0.21291
2832.92046,0.21007
2834.84893,0.20898
2836.77740,0.21110
2838.70587,0.21342
2840.63433,0.21234
2842.56280,0.20696
2844.49127,0.20418
2846.41974,0.20862
2848.34821,0.21358
2850.27668,0.21350
2852.20515,0.21157
2854.13362,0.21140
2856.06208,0.21300
2857.99055,0.21593
2859.91902,0.21826
2861.84749,0.21813
2863.77596,0.21746
2865.70443,0.21577
2867.63290,0.21071
2869.56136,0.20663
2871.48983,0.20825
2873.41830,0.21226
2875.34677,0.21307
2877.27524,0.21092
2879.20371,0.20895
2881.13218,0.20701
2883.06065,0.20418
2884.98911,0.20306
2886.91758,0.20512
2888.84605,0.20869
2890.77452,0.21396
2892.70299,0.21654
2894.63146,0.21193
2896.55993,0.20698
2898.48839,0.20641
2900.41686,0.20870
2902.34533,0.21178
2904.27380,0.20962
2906.20227,0.20267
2908.13074,0.20155
2910.05921,0.20731
2911.98768,0.21046
2913.91614,0.20635
2915.84461,0.20077
2917.77308,0.20321
2919.70155,0.21081
2921.63002,0.21570
2923.55849,0.21297
2925.48696,0.19956
2927.41542,0.19045
2929.34389,0.19778
2931.27236,0.20574
2933.20083,0.20351
2935.12930,0.19930
2937.05777,0.19766
2938.98624,0.19902
2940.91471,0.20481
2942.84317,0.21192
2944.77164,0.21025
2946.70011,0.19895
2948.62858,0.19552
2950.55705,0.20395
2952.48552,0.20951
2954.41399,0.20699
2956.34245,0.19871
2958.27092,0.19349
2960.19939,0.19962
2962.12786,0.20825
2964.05633,0.21107
2965.98480,0.20747
2967.91327,0.20052
2969.84174,0.20178
2971.77020,0.21001
2973.69867,0.21483
2975.62714,0.21352
2977.55561,0.20501
2979.48408,0.19852
2981.41255,0.20344
2983.34102,0.21315
2985.26948,0.21698
2987.19795,0.21127
2989.12642,0.20720
2991.05489,0.21441
2992.98336,0.22141
2994.91183,0.22053
2996.84030,0.21913
2998.76877,0.22110
3000.69723,0.22434
3002.62570,0.22504
3004.55417,0.22204
3006.48264,0.21845
3008.41111,0.21398
3010.33958,0.20078
3012.26805,0.17204
3014.19651,0.13190
3016.12498,0.10265
3018.05345,0.11802
3019.98192,0.17123
3021.91039,0.21179
3023.83886,0.22111
3025.76733,0.21679
3027.69579,0.21112
3029.62426,0.21050
3031.55273,0.21512
3033.48120,0.21887
3035.40967,0.21820
3037.33814,0.21389
3039.26661,0.21215
3041.19508,0.21494
3043.12354,0.21859
3045.05201,0.21904
3046.98048,0.21328
3048.90895,0.20883
3050.83742,0.21179
3052.76589,0.21619
3054.69436,0.21235
3056.62282,0.20139
3058.55129,0.20148
3060.47976,0.21276
3062.40823,0.21889
3064.33670,0.21500
3066.26517,0.20391
3068.19364,0.20059
3070.12211,0.20996
3072.05057,0.21500
3073.97904,0.20638
3075.90751,0.19387
3077.83598,0.19386
3079.76445,0.20528
3081.69292,0.21416
3083.62139,0.20910
3085.54985,0.19780
3087.47832,0.20431
3089.40679,0.22153
3091.33526,0.22222
3093.26373,0.20658
3095.19220,0.19832
3097.12067,0.20738
3099.04914,0.21746
3100.97760,0.21496
3102.90607,0.20118
3104.83454,0.19176
3106.76301,0.19861
3108.69148,0.21015
3110.61995,0.21088
3112.54842,0.20605
3114.47688,0.21079
3116.40535,0.21972
3118.33382,0.21911
3120.26229,0.21099
3122.19076,0.20701
3124.11923,0.21468
3126.04770,0.22581
3127.97617,0.22729
3129.90463,0.21930
3131.83310,0.21358
3133.76157,0.21356
3135.69004,0.21342
3137.61851,0.21156
3139.54698,0.20926
3141.47545,0.21124
3143.40391,0.21660
3145.33238,0.21747
3147.26085,0.21524
3149.18932,0.21527
3151.11779,0.21606
3153.04626,0.21591
3154.97473,0.21650
3156.90320,0.21853
3158.83166,0.22247
3160.76013,0.22785
3162.68860,0.23053
3164.61707,0.22812
3166.54554,0.22420
3168.47401,0.22101
3170.40248,0.21807
3172.33094,0.21799
3174.25941,0.22166
3176.18788,0.22612
3178.11635,0.23110
3180.04482,0.23482
3181.97329,0.23243
3183.90176,0.22759
3185.83022,0.22713
3187.75869,0.22906
3189.68716,0.22812
3191.61563,0.22452
3193.54410,0.22297
3195.47257,0.22314
3197.40104,0.22176
3199.32951,0.22102
3201.25797,0.22072
3203.18644,0.21966
3205.11491,0.22235
3207.04338,0.22617
3208.97185,0.22402
3210.90032,0.22069
3212.82879,0.22260
3214.75725,0.22584
3216.68572,0.22539
3218.61419,0.22308
3220.54266,0.22208
3222.47113,0.22272
3224.39960,0.22223
3226.32807,0.22003
3228.25654,0.22079
3230.18500,0.22297
3232.11347,0.22196
3234.04194,0.21990
3235.97041,0.21733
3237.89888,0.21145
3239.82735,0.20629
3241.75582,0.20951
3243.68428,0.21693
3245.61275,0.21892
3247.54122,0.21790
3249.46969,0.22111
3251.39816,0.22530
3253.32663,0.22366
3255.25510,0.22090
3257.18357,0.22186
3259.11203,0.22114
3261.04050,0.21868
3262.96897,0.22113
3264.89744,0.22577
3266.82591,0.22489
3268.75438,0.21998
3270.68285,0.21498
3272.61131,0.21116
3274.53978,0.21024
3276.46825,0.21035
3278.39672,0.21188
3280.32519,0.21850
3282.25366,0.22553
3284.18213,0.22605
3286.11060,0.22234
3288.03906,0.21868
3289.96753,0.21763
3291.89600,0.22215
3293.82447,0.22763
3295.75294,0.22641
3297.68141,0.22085
3299.60988,0.21796
3301.53834,0.21863
3303.46681,0.21834
3305.39528,0.21604
3307.32375,0.21462
3309.25222,0.21291
3311.18069,0.21091
3313.10916,0.21296
3315.03763,0.21638
3316.96609,0.21480
3318.89456,0.21061
3320.82303,0.21130
3322.75150,0.21745
3324.67997,0.22316
3326.60844,0.22629
3328.53691,0.22884
3330.46537,0.23028
3332.39384,0.22898
3334.32231,0.22673
3336.25078,0.22583
3338.17925,0.22567
3340.10772,0.22305
3342.03619,0.22001
3343.96466,0.22210
3345.89312,0.22474
3347.82159,0.22403
3349.75006,0.22419
3351.67853,0.22515
3353.60700,0.22459
3355.53547,0.22333
3357.46394,0.22436
3359.39240,0.22792
3361.32087,0.22793
3363.24934,0.22172
3365.17781,0.21715
3367.10628,0.21868
3369.03475,0.22042
3370.96322,0.22228
3372.89168,0.22585
3374.82015,0.22509
3376.74862,0.22214
3378.67709,0.22330
3380.60556,0.22472
3382.53403,0.22257
3384.46250,0.22200
3386.39097,0.22489
3388.31943,0.22470
3390.24790,0.22320
3392.17637,0.22612
3394.10484,0.22916
3396.03331,0.22936
3397.96178,0.23040
3399.89025,0.23145
3401.81871,0.22547
3403.74718,0.21483
3405.67565,0.20964
3407.60412,0.20793
3409.53259,0.20652
3411.46106,0.21050
3413.38953,0.21757
3415.31800,0.22260
3417.24646,0.22634
3419.17493,0.22823
3421.10340,0.22597
3423.03187,0.22017
3424.96034,0.21339
3426.88881,0.20958
3428.81728,0.21038
3430.74574,0.21074
3432.67421,0.20877
3434.60268,0.20685
3436.53115,0.20294
3438.45962,0.19925
3440.38809,0.20005
3442.31656,0.20267
3444.24503,0.20556
3446.17349,0.20924
3448.10196,0.21118
3450.03043,0.20965
3451.95890,0.20605
3453.88737,0.20185
3455.81584,0.19905
3457.74431,0.20107
3459.67277,0.20493
3461.60124,0.20447
3463.52971,0.20414
3465.45818,0.20832
3467.38665,0.21024
3469.31512,0.20657
3471.24359,0.20408
3473.17206,0.20633
3475.10052,0.20758
3477.02899,0.20570
3478.95746,0.20386
3480.88593,0.20064
3482.81440,0.19654
3484.74287,0.19621
3486.67134,0.19707
3488.59980,0.19538
3490.52827,0.19489
3492.45674,0.19646
3494.38521,0.19716
3496.31368,0.19774
3498.24215,0.19835
3500.17062,0.19817
3502.09909,0.19797
3504.02755,0.19597
3505.95602,0.19238
3507.88449,0.19279
3509.81296,0.19681
3511.74143,0.19497
3513.66990,0.18665
3515.59837,0.18256
3517.52683,0.18671
3519.45530,0.19499
3521.38377,0.19974
3523.31224,0.19350
3525.24071,0.18326
3527.16918,0.18060
3529.09765,0.18404
3531.02611,0.18561
3532.95458,0.18195
3534.88305,0.17696
3536.81152,0.17483
3538.73999,0.17612
3540.66846,0.17825
3542.59693,0.17995
3544.52540,0.18311
3546.45386,0.18383
3548.38233,0.18018
3550.31080,0.18134
3552.23927,0.18745
3554.16774,0.18839
3556.09621,0.18346
3558.02468,0.17816
3559.95314,0.17441
3561.88161,0.17320
3563.81008,0.18013
3565.73855,0.19711
3567.66702,0.20215
3569.59549,0.18519
3571.52396,0.17183
3573.45243,0.16985
3575.38089,0.17213
3577.30936,0.17370
3579.23783,0.17429
3581.16630,0.17185
3583.09477,0.16692
3585.02324,0.16874
3586.95171,0.18106
3588.88017,0.18441
3590.80864,0.17574
3592.73711,0.17265
3594.66558,0.17621
3596.59405,0.17541
3598.52252,0.16846
3600.45099,0.16170
3602.37946,0.15722
3604.30792,0.15629
3606.23639,0.16189
3608.16486,0.17016
3610.09333,0.17394
3612.02180,0.17584
3613.95027,0.17425
3615.87874,0.16982
3617.80720,0.17252
3619.73567,0.17604
3621.66414,0.16761
3623.59261,0.15838
3625.52108,0.15857
3627.44955,0.16922
3629.37802,0.17806
3631.30649,0.17106
3633.23495,0.16026
3635.16342,0.15146
3637.09189,0.14599
3639.02036,0.14400
3640.94883,0.14469
3642.87730,0.14946
3644.80577,0.16223
3646.73423,0.18255
3648.66270,0.19441
3650.59117,0.17843
3652.51964,0.16001
3654.44811,0.15118
3656.37658,0.14463
3658.30505,0.13891
3660.23352,0.13775
3662.16198,0.13800
3664.09045,0.13859
3666.01892,0.14473
3667.94739,0.15960
3669.87586,0.17560
3671.80433,0.17826
3673.73280,0.17797
3675.66126,0.17616
3677.58973,0.16270
3679.51820,0.14855
3681.44667,0.13994
3683.37514,0.13696
3685.30361,0.13979
3687.23208,0.14996
3689.16055,0.15951
3691.08901,0.15232
3693.01748,0.14088
3694.94595,0.13670
3696.87442,0.13788
3698.80289,0.14411
3700.73136,0.15303
3702.65983,0.15334
3704.58829,0.14453
3706.51676,0.13900
3708.44523,0.14321
3710.37370,0.15696
3712.30217,0.16423
3714.23064,0.15684
3716.15911,0.14982
3718.08757,0.14829
3720.01604,0.14895
3721.94451,0.15036
3723.87298,0.15354
3725.80145,0.15464
3727.72992,0.15308
3729.65839,0.15325
3731.58686,0.15720
3733.51532,0.16616
3735.44379,0.17337
3737.37226,0.16785
3739.30073,0.15535
3741.22920,0.14488
3743.15767,0.14397
3745.08614,0.15612
3747.01460,0.16622
3748.94307,0.17517
3750.87154,0.18432
3752.80001,0.17254
3754.72848,0.15253
3756.65695,0.14284
3758.58542,0.14346
3760.51389,0.14185
3762.44235,0.13674
3764.37082,0.13594
3766.29929,0.13686
3768.22776,0.13780
3770.15623,0.14158
3772.08470,0.14470
3774.01317,0.14371
3775.94163,0.14062
3777.87010,0.13850
3779.79857,0.13414
3781.72704,0.12914
3783.65551,0.13150
3785.58398,0.13435
3787.51245,0.12973
3789.44092,0.12437
3791.36938,0.12319
3793.29785,0.12601
3795.22632,0.13253
3797.15479,0.13970
3799.08326,0.14630
3801.01173,0.15472
3802.94020,0.15494
3804.86866,0.14845
3806.79713,0.14587
3808.72560,0.14235
3810.65407,0.13537
3812.58254,0.13101
3814.51101,0.13268
3816.43948,0.13950
3818.36795,0.14844
3820.29641,0.15726
3822.22488,0.15364
3824.15335,0.14530
3826.08182,0.14371
3828.01029,0.14207
3829.93876,0.13738
3831.86723,0.13243
3833.79569,0.13352
3835.72416,0.14268
3837.65263,0.15025
3839.58110,0.14804
3841.50957,0.14358
3843.43804,0.14242
3845.36651,0.13992
3847.29498,0.13583
3849.22344,0.13774
3851.15191,0.14920
3853.08038,0.15833
3855.00885,0.15216
3856.93732,0.14656
3858.86579,0.13839
3860.79426,0.12759
3862.72272,0.12423
3864.65119,0.13165
3866.57966,0.13958
3868.50813,0.14109
3870.43660,0.13577
3872.36507,0.13299
3874.29354,0.13345
3876.22200,0.12913
3878.15047,0.12620
3880.07894,0.12960
3882.00741,0.13395
3883.93588,0.13696
3885.86435,0.13469
3887.79282,0.12736
3889.72129,0.12854
3891.64975,0.13955
3893.57822,0.14279
3895.50669,0.13351
3897.43516,0.12216
3899.36363,0.11833
3901.29210,0.12521
3903.22057,0.13386
3905.14903,0.13479
3907.07750,0.12698
3909.00597,0.11696
3910.93444,0.10985
3912.86291,0.10779
3914.79138,0.10943
3916.71985,0.11132
3918.64832,0.11091
3920.57678,0.11009
3922.50525,0.11347
3924.43372,0.11782
3926.36219,0.11744
3928.29066,0.11725
3930.21913,0.11992
3932.14760,0.12145
3934.07606,0.11952
3936.00453,0.11494
3937.93300,0.11089
3939.86147,0.11218
3941.78994,0.11929
3943.71841,0.12417
3945.64688,0.12111
3947.57535,0.11426
3949.50381,0.10785
3951.43228,0.10514
3953.36075,0.10733
3955.28922,0.10927
3957.21769,0.10840
3959.14616,0.11039
3961.07463,0.11355
3963.00309,0.11038
3964.93156,0.10616
3966.86003,0.10736
3968.78850,0.10988
3970.71697,0.11158
3972.64544,0.11381
3974.57391,0.11583
3976.50238,0.11598
3978.43084,0.11217
3980.35931,0.10545
3982.28778,0.10362
3984.21625,0.10931
3986.14472,0.11416
3988.07319,0.11261
3990.00166,0.10698
3991.93012,0.10480
3993.85859,0.10909
3995.78706,0.11129
3997.71553,0.10524
3999.64400,0.09812
4001.57247,0.09894
4003.50094,0.10502
4005.42941,0.10660
4007.35787,0.10148
4009.28634,0.09811
4011.21481,0.09939
4013.14328,0.10022
4015.07175,0.10065
4017.00022,0.10156
4018.92869,0.10004
4020.85715,0.09537
4022.78562,0.09326
4024.71409,0.09593
4026.64256,0.09709
4028.57103,0.09660
4030.49950,0.09628
4032.42797,0.09346
4034.35644,0.09341
4036.28490,0.09779
4038.21337,0.09855
4040.14184,0.09814
4042.07031,0.10170
4043.99878,0.10476
4045.92725,0.10446
4047.85572,0.10195
4049.78418,0.09710
4051.71265,0.09363
4053.64112,0.09622
4055.56959,0.10085
4057.49806,0.10253
4059.42653,0.10048
4061.35500,0.09628
4063.28346,0.09220
4065.21193,0.08885
4067.14040,0.08717
4069.06887,0.08685
4070.99734,0.08625
4072.92581,0.08346
4074.85428,0.08180
4076.78275,0.08596
4078.71121,0.09072
4080.63968,0.09229
4082.56815,0.09342
4084.49662,0.09670
4086.42509,0.10128
4088.35356,0.10135
4090.28203,0.09497
4092.21049,0.08491
4094.13896,0.07684
4096.06743,0.07964
4097.99590,0.08830
4099.92437,0.08826
4101.85284,0.08500
4103.78131,0.09063
4105.70978,0.09462
4107.63824,0.08743
4109.56671,0.08092
4111.49518,0.08286
4113.42365,0.08789
4115.35212,0.09003
4117.28059,0.08754
4119.20906,0.08483
4121.13752,0.08436
4123.06599,0.08267
4124.99446,0.08121
4126.92293,0.08482
4128.85140,0.09116
4130.77987,0.09426
4132.70834,0.09193
4134.63681,0.08720
4136.56527,0.08580
4138.49374,0.08826
4140.42221,0.08999
4142.35068,0.08891
4144.27915,0.08629
4146.20762,0.08403
4148.13609,0.08291
4150.06455,0.08167
4151.99302,0.07890
4153.92149,0.07701
4155.84996,0.07884
4157.77843,0.08088
4159.70690,0.07932
4161.63537,0.07593
4163.56384,0.07470
4165.49230,0.07628
4167.42077,0.07644
4169.34924,0.07429
4171.27771,0.07302
4173.20618,0.07340
4175.13465,0.07520
4177.06312,0.07806
4178.99158,0.07921
4180.92005,0.07625
4182.84852,0.07283
4184.77699,0.07458
4186.70546,0.07905
4188.63393,0.07836
4190.56240,0.07017
4192.49087,0.06189
4194.41933,0.06641
4196.34780,0.08183
4198.27627,0.08460
4200.20474,0.07059
4202.13321,0.06262
4204.06168,0.06552
4205.99015,0.06948
4207.91861,0.07186
4209.84708,0.07341
4211.77555,0.07337
4213.70402,0.07145
4215.63249,0.07162
4217.56096,0.07359
4219.48943,0.07046
4221.41789,0.06416
4223.34636,0.06401
4225.27483,0.07011
4227.20330,0.07356
4229.13177,0.07017
4231.06024,0.06561
4232.98871,0.06564
4234.91718,0.06884
4236.84564,0.07165
4238.77411,0.07269
4240.70258,0.07309
4242.63105,0.07337
4244.55952,0.07195
4246.48799,0.06713
4248.41646,0.06135
4250.34492,0.06157
4252.27339,0.06633
4254.20186,0.06635
4256.13033,0.06190
4258.05880,0.05956
4259.98727,0.05825
4261.91574,0.05882
4263.84421,0.06411
4265.77267,0.06660
4267.70114,0.06517
4269.62961,0.06685
4271.55808,0.06703
4273.48655,0.06004
4275.41502,0.05229
4277.34349,0.05049
4279.27195,0.05493
4281.20042,0.06165
4283.12889,0.06398
4285.05736,0.06248
4286.98583,0.06203
4288.91430,0.06219
4290.84277,0.06189
4292.77124,0.06179
4294.69970,0.06495
4296.62817,0.06729
4298.55664,0.05886
4300.48511,0.04734
4302.41358,0.04345
4304.34205,0.04324
4306.27052,0.04608
4308.19898,0.05187
4310.12745,0.05347
4312.05592,0.05166
4313.98439,0.05154
4315.91286,0.05026
4317.84133,0.04496
4319.76980,0.03913
4321.69827,0.03708
4323.62673,0.03890
4325.55520,0.04092
4327.48367,0.04161
4329.41214,0.04255
4331.34061,0.04458
4333.26908,0.04625
4335.19755,0.04493
4337.12601,0.04107
4339.05448,0.03751
4340.98295,0.03668
4342.91142,0.04182
4344.83989,0.04867
4346.76836,0.04730
4348.69683,0.04198
4350.62530,0.04239
4352.55376,0.04623
4354.48223,0.04791
4356.41070,0.04761
4358.33917,0.04681
4360.26764,0.04527
4362.19611,0.04629
4364.12458,0.04662
4366.05304,0.03781
4367.98151,0.02925
4369.90998,0.03045
4371.83845,0.03213
4373.76692,0.03020
4375.69539,0.02917
4377.62386,0.02803
4379.55232,0.02870
4381.48079,0.03311
4383.40926,0.03624
4385.33773,0.03596
4387.26620,0.03465
4389.19467,0.03361
4391.12314,0.02930
4393.05161,0.02523
4394.98007,0.03023
4396.90854,0.03574
4398.83701,0.03300
4400.76548,0.02914
4402.69395,0.02529
4404.62242,0.01987
4406.55089,0.02097
4408.47935,0.02752
4410.40782,0.02841
4412.33629,0.02167
4414.26476,0.01408
4416.19323,0.01155
4418.12170,0.01513
4420.05017,0.01976
4421.97864,0.01717
4423.90710,0.01189
4425.83557,0.01541
4427.76404,0.02193
4429.69251,0.02362
4431.62098,0.02400
4433.54945,0.02402
4435.47792,0.02407
4437.40638,0.02617
4439.33485,0.02624
4441.26332,0.02138
4443.19179,0.01472
4445.12026,0.00843
4447.04873,0.00503
4448.97720,0.00512
4450.90567,0.01051
4452.83413,0.02262
4454.76260,0.02909
4456.69107,0.02217
4458.61954,0.01316
4460.54801,0.01254
4462.47648,0.01688
4464.40495,0.02218
4466.33341,0.02897
4468.26188,0.02965
4470.19035,0.01812
4472.11882,0.00941
4474.04729,0.01731
4475.97576,0.02881
4477.90423,0.03013
4479.83270,0.02406
4481.76116,0.01315
4483.68963,0.00085
4485.61810,-0.00109
4487.54657,0.00789
4489.47504,0.01117
4491.40351,0.00839
4493.33198,0.01205
4495.26044,0.01694
4497.18891,0.01400
4499.11738,0.00688
4501.04585,0.00229
4502.97432,0.00336
4504.90279,0.00766
4506.83126,0.00916
4508.75973,0.00878
4510.68819,0.00979
4512.61666,0.01167
4514.54513,0.01311
4516.47360,0.01311
4518.40207,0.01362
4520.33054,0.01523
4522.25901,0.01523
4524.18747,0.01165
4526.11594,0.00411
4528.04441,-0.00187
4529.97288,0.00403
4531.90135,0.01798
4533.82982,0.02306
4535.75829,0.01509
4537.68676,0.00684
4539.61522,0.00875
4541.54369,0.01388
4543.47216,0.01572
4545.40063,0.01571
4547.32910,0.00984
4549.25757,0.00222
4551.18604,0.00198
4553.11450,0.00197
4555.04297,-0.00443
4556.97144,-0.00356
4558.89991,0.01095
4560.82838,0.01892
4562.75685,0.00934
4564.68532,-0.00094
4566.61378,-0.00029
4568.54225,0.00391
4570.47072,0.00334
4572.39919,-0.00086
4574.32766,-0.00398
4576.25613,-0.00321
4578.18460,0.00177
4580.11307,0.00382
4582.04153,-0.00006
4583.97000,0.00127
4585.89847,0.00608
4587.82694,0.00656
4589.75541,0.00618
4591.68388,0.00258
4593.61235,-0.00678
4595.54081,-0.01365
4597.46928,-0.01177
4599.39775,-0.00779
4601.32622,-0.01026
4603.25469,-0.00998
4605.18316,0.00325
4607.11163,0.01604
4609.04010,0.01597
4610.96856,0.00957
4612.89703,0.00433
4614.82550,0.00351
4616.75397,0.00598
4618.68244,0.00485
4620.61091,0.00241
4622.53938,0.00488
4624.46784,0.00364
4626.39631,-0.00370
4628.32478,-0.00407
4630.25325,-0.00006
4632.18172,0.00044
4634.11019,0.00128
4636.03866,0.00790
4637.96713,0.01656
4639.89559,0.01572
4641.82406,-0.00026
4643.75253,-0.01994
4645.68100,-0.02240
4647.60947,-0.00565
4649.53794,0.00544
4651.46641,0.00106
4653.39487,-0.00246
4655.32334,0.00191
4657.25181,0.00566
4659.18028,0.00290
4661.10875,-0.00543
4663.03722,-0.01195
4664.96569,-0.00891
4666.89416,0.00105
4668.82262,0.00879
4670.75109,0.00997
4672.67956,0.00843
4674.60803,0.00823
4676.53650,0.00967
4678.46497,0.01296
4680.39344,0.01341
4682.32190,0.00995
4684.25037,0.01254
4686.17884,0.01959
4688.10731,0.01875
4690.03578,0.01080
4691.96425,0.00424
4693.89272,0.00018
4695.82119,-0.00100
4697.74965,0.00198
4699.67812,0.00299
4701.60659,0.00007
4703.53506,0.00187
4705.46353,0.01004
4707.39200,0.01182
4709.32047,0.00046
4711.24893,-0.00986
4713.17740,-0.01096
4715.10587,-0.01263
4717.03434,-0.01369
4718.96281,-0.00537
4720.89128,0.00283
4722.81975,-0.00285
4724.74821,-0.01005
4726.67668,-0.00369
4728.60515,0.00386
4730.53362,0.00016
4732.46209,-0.00947
4734.39056,-0.01390
4736.31903,-0.00404
4738.24750,0.01142
4740.17596,0.01984
4742.10443,0.02813
4744.03290,0.03253
4745.96137,0.02123
4747.88984,0.00475
4749.81831,-0.00308
4751.74678,-0.00030
4753.67524,0.00751
4755.60371,0.01100
4757.53218,0.01129
4759.46065,0.01158
4761.38912,0.00786
4763.31759,-0.00032
4765.24606,-0.00731
4767.17453,-0.00709
4769.10299,0.00035
4771.03146,0.00925
4772.95993,0.01417
4774.88840,0.00713
4776.81687,-0.00642
4778.74534,-0.01008
4780.67381,-0.00533
4782.60227,0.00285
4784.53074,0.01337
4786.45921,0.01640
4788.38768,0.00861
4790.31615,0.00212
4792.24462,0.00418
4794.17309,0.00067
4796.10156,-0.01125
4798.03002,-0.01456
4799.95849,-0.00961
4801.88696,-0.00653
4803.81543,-0.00799
4805.74390,-0.01127
4807.67237,-0.01036
4809.60084,-0.00252
4811.52930,0.00848
4813.45777,0.02108
4815.38624,0.03358
4817.31471,0.02955
4819.24318,0.00839
4821.17165,0.00542
4823.10012,0.02397
4825.02859,0.02737
4826.95705,0.01827
4828.88552,0.01413
4830.81399,0.00537
4832.74246,-0.00732
4834.67093,-0.01476
4836.59940,-0.01234
4838.52787,-0.00397
4840.45633,0.00024
4842.38480,0.00028
4844.31327,-0.00476
4846.24174,-0.01061
4848.17021,-0.00676
4850.09868,-0.00033
4852.02715,0.00294
4853.95562,0.00964
4855.88408,0.01610
4857.81255,0.01278
4859.74102,0.00629
4861.66949,0.00859
4863.59796,0.01255
4865.52643,0.01206
4867.45490,0.01247
4869.38336,0.01131
4871.31183,0.01150
4873.24030,0.01766
4875.16877,0.02130
4877.09724,0.01513
4879.02571,-0.00618
4880.95418,-0.02994
4882.88265,-0.02744
4884.81111,-0.00191
4886.73958,0.01647
4888.66805,0.01220
4890.59652,0.00080
4892.52499,-0.00284
4894.45346,-0.00075
4896.38193,0.00704
4898.31039,0.02130
4900.23886,0.03284
4902.16733,0.03103
4904.09580,0.01828
4906.02427,0.00502
4907.95274,-0.00024
4909.88121,-0.00060
4911.80967,-0.00419
4913.73814,-0.00419
4915.66661,0.00294
4917.59508,0.01051
4919.52355,0.01356
4921.45202,0.00919
4923.38049,0.00345
4925.30896,-0.00186
4927.23742,-0.00816
4929.16589,-0.00635
4931.09436,0.00265
4933.02283,0.00698
4934.95130,0.00450
4936.87977,0.00234
4938.80824,0.00363
4940.73670,0.00523
4942.66517,0.00498
4944.59364,0.00324
4946.52211,0.00337
4948.45058,0.00324
4950.37905,0.00275
4952.30752,0.00404
4954.23599,0.00138
4956.16445,-0.00434
4958.09292,0.00119
4960.02139,0.01469
4961.94986,0.01558
4963.87833,0.00280
4965.80680,-0.00959
4967.73527,-0.00990
4969.66373,0.00224
4971.59220,0.01780
4973.52067,0.02362
4975.44914,0.01567
4977.37761,0.00602
4979.30608,0.00076
4981.23455,0.00591
4983.16302,0.01772
4985.09148,0.01699
4987.01995,0.00727
4988.94842,-0.00035
4990.87689,-0.00964
4992.80536,-0.01277
4994.73383,-0.00000
4996.66230,0.01261
4998.59076,0.02168
5000.51923,0.03543
5002.44770,0.03821
5004.37617,0.02290
5006.30464,0.00491
5008.23311,-0.00719
5010.16158,-0.01473
5012.09005,-0.00780
5014.01851,0.01737
5015.94698,0.03532
5017.87545,0.03089
5019.80392,0.01721
5021.73239,0.01581
5023.66086,0.02409
5025.58933,0.01854
5027.51779,0.01012
5029.44626,0.01666
5031.37473,0.02023
5033.30320,0.00604
5035.23167,-0.00632
5037.16014,0.00492
5039.08861,0.01901
5041.01708,0.01299
5042.94554,0.00921
5044.87401,0.01900
5046.80248,0.01834
5048.73095,0.00665
5050.65942,0.00152
5052.58789,0.00215
5054.51636,0.00899
5056.44482,0.01830
5058.37329,0.01866
5060.30176,0.01608
5062.23023,0.01683
5064.15870,0.01323
5066.08717,0.00886
5068.01564,0.01149
5069.94410,0.01615
5071.87257,0.01771
5073.80104,0.01443
5075.72951,0.01412
5077.65798,0.02273
5079.58645,0.03076
5081.51492,0.03162
5083.44339,0.01945
5085.37185,0.00289
5087.30032,0.00368
5089.22879,0.01100
5091.15726,0.00933
5093.08573,0.00899
5095.01420,0.00787
5096.94267,-0.00344
5098.87113,-0.01192
5100.79960,-0.00561
5102.72807,0.00780
5104.65654,0.02260
5106.58501,0.03136
5108.51348,0.03343
5110.44195,0.03801
5112.37042,0.03006
5114.29888,0.00392
5116.22735,-0.01348
5118.15582,-0.00712
5120.08429,0.00968
5122.01276,0.01350
5123.94123,0.00333
5125.86970,-0.00227
5127.79816,0.00535
5129.72663,0.01626
5131.65510,0.01237
5133.58357,-0.00442
5135.51204,-0.01283
5137.44051,-0.00358
5139.36898,0.01873
5141.29745,0.03081
5143.22591,0.01491
5145.15438,-0.00098
5147.08285,0.00078
5149.01132,0.01054
5150.93979,0.03014
5152.86826,0.04967
5154.79673,0.05899
5156.72519,0.05871
5158.65366,0.04063
5160.58213,0.01534
5162.51060,0.00565
5164.43907,0.00979
5166.36754,0.02400
5168.29601,0.04036
5170.22448,0.03554
5172.15294,0.02265
5174.08141,0.02103
5176.00988,0.01783
5177.93835,0.01518
5179.86682,0.02116
5181.79529,0.02703
5183.72376,0.02310
5185.65222,0.01428
5187.58069,0.01519
5189.50916,0.02915
5191.43763,0.04770
5193.36610,0.05582
5195.29457,0.04830
5197.22304,0.03799
5199.15151,0.02938
5201.07997,0.01396
5203.00844,0.00333
5204.93691,0.01753
5206.86538,0.04073
5208.79385,0.04722
5210.72232,0.05112
5212.65079,0.06190
5214.57925,0.06985
5216.50772,0.06497
5218.43619,0.04909
5220.36466,0.03904
5222.29313,0.04257
5224.22160,0.04991
5226.15007,0.04542
5228.07854,0.03558
5230.00700,0.04100
5231.93547,0.05792
5233.86394,0.07063
5235.79241,0.06590
5237.72088,0.04959
5239.64935,0.03666
5241.57782,0.02017
5243.50628,0.00666
5245.43475,0.01915
5247.36322,0.04457
5249.29169,0.05383
5251.22016,0.04823
5253.14863,0.04983
5255.07710,0.05622
5257.00556,0.05283
5258.93403,0.05015
5260.86250,0.05351
5262.79097,0.05503
5264.71944,0.05197
5266.64791,0.04307
5268.57638,0.03649
5270.50485,0.03824
5272.43331,0.04221
5274.36178,0.03856
5276.29025,0.02438
5278.21872,0.01185
5280.14719,0.00876
5282.07566,0.01182
5284.00413,0.02093
5285.93259,0.02752
5287.86106,0.02287
5289.78953,0.02768
5291.71800,0.05216
5293.64647,0.06530
5295.57494,0.06005
5297.50341,0.05796
5299.43188,0.06630
5301.36034,0.07195
5303.28881,0.06818
5305.21728,0.06182
5307.14575,0.05265
5309.07422,0.04842
5311.00269,0.06182
5312.93116,0.08126
5314.85962,0.08630
5316.78809,0.06470
5318.71656,0.03866
5320.64503,0.04330
5322.57350,0.06048
5324.50197,0.06310
5326.43044,0.06912
5328.35891,0.08630
5330.28737,0.09655
5332.21584,0.09333
5334.14431,0.07376
5336.07278,0.05218
5338.00125,0.05678
5339.92972,0.08285
5341.85819,0.10167
5343.78665,0.10672
5345.71512,0.11197
5347.64359,0.12246
5349.57206,0.11506
5351.50053,0.09497
5353.42900,0.08416
5355.35747,0.06630
5357.28594,0.04257
5359.21440,0.03513
5361.14287,0.04145
5363.07134,0.06082
5364.99981,0.08258
5366.92828,0.07022
5368.85675,0.03749
5370.78522,0.03840
5372.71368,0.07129
5374.64215,0.09158
5376.57062,0.09085
5378.49909,0.08599
5380.42756,0.07751
5382.35603,0.06433
5384.28450,0.04771
5386.21297,0.03169
5388.14143,0.03493
5390.06990,0.06764
5391.99837,0.10300
5393.92684,0.10968
5395.85531,0.09256
5397.78378,0.07440
5399.71225,0.06968
5401.64071,0.07243
5403.56918,0.07612
5405.49765,0.08758
5407.42612,0.10509
5409.35459,0.11732
5411.28306,0.10837
5413.21153,0.07393
5415.13999,0.03669
5417.06846,0.02509
5418.99693,0.03735
5420.92540,0.05150
5422.85387,0.05635
5424.78234,0.05672
5426.71081,0.06386
5428.63928,0.06636
5430.56774,0.05786
5432.49621,0.06872
5434.42468,0.08942
5436.35315,0.08610
5438.28162,0.06991
5440.21009,0.05447
5442.13856,0.03944
5444.06702,0.04514
5445.99549,0.07757
5447.92396,0.09580
5449.85243,0.07810
5451.78090,0.05134
5453.70937,0.03901
5455.63784,0.04263
5457.56631,0.05537
5459.49477,0.06191
5461.42324,0.05124
5463.35171,0.04958
5465.28018,0.07474
5467.20865,0.09786
5469.13712,0.09641
5471.06559,0.07622
5472.99405,0.05325
5474.92252,0.05057
5476.85099,0.08145
5478.77946,0.09400
5480.70793,0.06101
5482.63640,0.03526
5484.56487,0.03222
5486.49334,0.03951
5488.42180,0.07534
5490.35027,0.09917
5492.27874,0.07326
5494.20721,0.05628
5496.13568,0.07570
5498.06415,0.08961
5499.99262,0.07928
5501.92108,0.06704
5503.84955,0.06825
5505.77802,0.06735
5507.70649,0.06099
5509.63496,0.06917
5511.56343,0.08480
5513.49190,0.08956
5515.42037,0.07204
5517.34883,0.03951
5519.27730,0.03387
5521.20577,0.06453
5523.13424,0.08988
5525.06271,0.09031
5526.99118,0.08978
5528.91965,0.09336
5530.84811,0.08615
5532.77658,0.07254
5534.70505,0.05578
5536.63352,0.03593
5538.56199,0.03666
5540.49046,0.06673
5542.41893,0.08586
5544.34740,0.08147
5546.27586,0.08170
5548.20433,0.07995
5550.13280,0.06203
5552.06127,0.05054
5553.98974,0.06506
5555.91821,0.08822
5557.84668,0.10582
5559.77514,0.10820
5561.70361,0.09146
5563.63208,0.08138
5565.56055,0.08039
5567.48902,0.07028
5569.41749,0.05886
5571.34596,0.06710
5573.27443,0.08993
5575.20289,0.09743
5577.13136,0.09549
5579.05983,0.10377
5580.98830,0.10930
5582.91677,0.08823
5584.84524,0.04547
5586.77371,0.02225
5588.70217,0.03871
5590.63064,0.06201
5592.55911,0.06523
5594.48758,0.05267
5596.41605,0.04590
5598.34452,0.06598
5600.27299,0.09989
5602.20145,0.12061
5604.12992,0.12029
5606.05839,0.10350
5607.98686,0.09029
5609.91533,0.09660
5611.84380,0.10337
5613.77227,0.10286
5615.70074,0.11811
5617.62920,0.13565
5619.55767,0.12288
5621.48614,0.08938
5623.41461,0.05883
5625.34308,0.03090
5627.27155,0.01665
5629.20002,0.03747
5631.12848,0.06724
5633.05695,0.07035
5634.98542,0.05953
5636.91389,0.06693
5638.84236,0.08174
5640.77083,0.08037
5642.69930,0.07616
5644.62777,0.07829
5646.55623,0.07749
5648.48470,0.07997
5650.41317,0.09004
5652.34164,0.08241
5654.27011,0.06839
5656.19858,0.08678
5658.12705,0.11602
5660.05551,0.13329
5661.98398,0.14100
5663.91245,0.13114
5665.84092,0.10487
5667.76939,0.07364
5669.69786,0.05323
5671.62633,0.05758
5673.55480,0.09109
5675.48326,0.11554
5677.41173,0.09881
5679.34020,0.07815
5681.26867,0.06449
5683.19714,0.05402
5685.12561,0.06487
5687.05408,0.09365
5688.98254,0.11541
5690.91101,0.10638
5692.83948,0.09063
5694.76795,0.09536
5696.69642,0.09498
5698.62489,0.08406
5700.55336,0.09350
5702.48183,0.10924
5704.41029,0.10021
5706.33876,0.07640
5708.26723,0.06259
5710.19570,0.06291
5712.12417,0.05768
5714.05264,0.04086
5715.98111,0.04837
5717.90957,0.09387
5719.83804,0.12780
5721.76651,0.12822
5723.69498,0.12142
5725.62345,0.11120
5727.55192,0.08926
5729.48039,0.07271
5731.40886,0.07599
5733.33732,0.09398
5735.26579,0.12590
5737.19426,0.14714
5739.12273,0.13485
5741.05120,0.11301
5742.97967,0.11001
5744.90814,0.12229
5746.83660,0.12276
5748.76507,0.10903
5750.69354,0.09613
5752.62201,0.10162
5754.55048,0.12846
5756.47895,0.13242
5758.40742,0.10639
5760.33588,0.08815
5762.26435,0.08611
5764.19282,0.08624
5766.12129,0.08298
5768.04976,0.07947
5769.97823,0.07411
5771.90670,0.07448
5773.83517,0.09799
5775.76363,0.12461
5777.69210,0.11697
5779.62057,0.09047
5781.54904,0.09322
5783.47751,0.12546
5785.40598,0.13672
5787.33445,0.10783
5789.26291,0.07846
5791.19138,0.08801
5793.11985,0.12644
5795.04832,0.14246
5796.97679,0.12004
5798.90526,0.08982
5800.83373,0.09000
5802.76220,0.12159
5804.69066,0.12649
5806.61913,0.10117
5808.54760,0.09539
5810.47607,0.10480
5812.40454,0.10005
5814.33301,0.07151
5816.26148,0.04317
5818.18994,0.04031
5820.11841,0.05920
5822.04688,0.08252
5823.97535,0.09676
5825.90382,0.10447
5827.83229,0.09593
5829.76076,0.05822
5831.68923,0.02904
5833.61769,0.04234
5835.54616,0.05932
5837.47463,0.04580
5839.40310,0.04196
5841.33157,0.07658
5843.26004,0.10684
5845.18851,0.09330
5847.11697,0.06089
5849.04544,0.05189
5850.97391,0.06556
5852.90238,0.08366
5854.83085,0.10678
5856.75932,0.11297
5858.68779,0.08055
5860.61626,0.04776
5862.54472,0.04607
5864.47319,0.05467
5866.40166,0.06778
5868.33013,0.08088
5870.25860,0.06762
5872.18707,0.03645
5874.11554,0.01417
5876.04400,0.00666
5877.97247,0.02794
5879.90094,0.07910
5881.82941,0.10937
5883.75788,0.09190
5885.68635,0.05725
5887.61482,0.04311
5889.54329,0.05018
5891.47175,0.05270
5893.40022,0.05152
5895.32869,0.04960
5897.25716,0.04850
5899.18563,0.06688
5901.11410,0.08550
5903.04257,0.07510
5904.97103,0.05043
5906.89950,0.04097
5908.82797,0.06840
5910.75644,0.11286
5912.68491,0.15177
5914.61338,0.17404
5916.54185,0.15160
5918.47032,0.10724
5920.39878,0.08285
5922.32725,0.08135
5924.25572,0.09176
5926.18419,0.08860
5928.11266,0.06128
5930.04113,0.03013
5931.96960,0.02215
5933.89806,0.05264
5935.82653,0.09511
5937.75500,0.11112
5939.68347,0.10768
5941.61194,0.10871
5943.54041,0.11021
5945.46888,0.09291
5947.39734,0.06108
5949.32581,0.03915
5951.25428,0.04443
5953.18275,0.05513
5955.11122,0.03916
5957.03969,0.02930
5958.96816,0.06564
5960.89663,0.10435
5962.82509,0.10463
5964.75356,0.08832
5966.68203,0.07207
5968.61050,0.06556
5970.53897,0.07500
5972.46744,0.07852
5974.39591,0.07513
5976.32437,0.08544
5978.25284,0.09128
5980.18131,0.07054
5982.10978,0.03956
5984.03825,0.03643
5985.96672,0.07082
5987.89519,0.10153
5989.82366,0.09587
5991.75212,0.07843
5993.68059,0.08172
5995.60906,0.09157
5997.53753,0.09395
5999.46600,0.10756
6001.39447,0.13209
6003.32294,0.13240
6005.25140,0.08597
6007.17987,0.03876
6009.10834,0.03365
6011.03681,0.06021
6012.96528,0.09710
6014.89375,0.11380
6016.82222,0.10579
6018.75069,0.08914
6020.67915,0.07483
6022.60762,0.07920
6024.53609,0.07490
6026.46456,0.04877
6028.39303,0.04562
6030.32150,0.08074
6032.24997,0.11586
6034.17843,0.12146
6036.10690,0.09815
6038.03537,0.06684
6039.96384,0.04209
6041.89231,0.02172
6043.82078,0.03191
6045.74925,0.07218
6047.67772,0.08121
6049.60618,0.05511
6051.53465,0.05969
6053.46312,0.09155
6055.39159,0.08505
6057.32006,0.04732
6059.24853,0.03373
6061.17700,0.04996
6063.10546,0.07985
6065.03393,0.07893
6066.96240,0.03134
6068.89087,-0.00914
6070.81934,-0.00887
6072.74781,0.01119
6074.67628,0.03885
6076.60475,0.06581
6078.53321,0.08740
6080.46168,0.10842
6082.39015,0.09691
6084.31862,0.05983
6086.24709,0.04477
6088.17556,0.04899
6090.10403,0.04574
6092.03249,0.00463
6093.96096,-0.03635
6095.88943,-0.01184
6097.81790,0.02442
6099.74637,0.03668
6101.67484,0.06608
6103.60331,0.09604
6105.53177,0.10278
6107.46024,0.12423
6109.38871,0.14480
6111.31718,0.10171
6113.24565,0.05440
6115.17412,0.05951
6117.10259,0.07454
6119.03106,0.10254
6120.95952,0.14248
6122.88799,0.13637
6124.81646,0.10522
6126.74493,0.09177
6128.67340,0.08234
6130.60187,0.07121
6132.53034,0.07082
6134.45880,0.07879
6136.38727,0.07472
6138.31574,0.04608
6140.24421,0.00989
6142.17268,0.02098
6144.10115,0.09950
6146.02962,0.14889
6147.95809,0.12953
6149.88655,0.10766
6151.81502,0.09979
6153.74349,0.06706
6155.67196,0.02828
6157.60043,0.03301
6159.52890,0.07426
6161.45737,0.11737
6163.38583,0.13453
6165.31430,0.12051
6167.24277,0.11003
6169.17124,0.10498
6171.09971,0.09309
6173.02818,0.10464
6174.95665,0.13128
6176.88512,0.12858
6178.81358,0.10976
6180.74205,0.11149
6182.67052,0.16198
6184.59899,0.23176
6186.52746,0.22834
6188.45593,0.14884
6190.38440,0.07422
6192.31286,0.04313
6194.24133,0.06434
6196.16980,0.07603
6198.09827,0.02639
6200.02674,-0.02921
6201.95521,-0.04299
6203.88368,-0.00402
6205.81215,0.08151
6207.74061,0.16203
6209.66908,0.18880
6211.59755,0.14268
6213.52602,0.05734
6215.45449,0.00480
6217.38296,0.03291
6219.31143,0.10451
6221.23989,0.13760
6223.16836,0.10505
6225.09683,0.08103
6227.02530,0.10497
6228.95377,0.11479
6230.88224,0.11209
6232.81071,0.12854
6234.73918,0.10500
6236.66764,0.03692
6238.59611,0.01316
6240.52458,0.05668
6242.45305,0.10004
6244.38152,0.09092
6246.30999,0.04410
6248.23846,0.03045
6250.16692,0.06932
6252.09539,0.08673
6254.02386,0.07854
6255.95233,0.08269
6257.88080,0.08588
6259.80927,0.10234
6261.73774,0.14026
6263.66621,0.17180
6265.59467,0.18302
6267.52314,0.15260
6269.45161,0.10918
6271.38008,0.10604
6273.30855,0.12316
6275.23702,0.13905
6277.16549,0.15601
6279.09395,0.14128
6281.02242,0.07157
6282.95089,-0.00951
6284.87936,-0.01319
6286.80783,0.04494
6288.73630,0.06194
6290.66477,0.03428
6292.59323,0.05038
6294.52170,0.08807
6296.45017,0.07899
6298.37864,0.07990
6300.30711,0.12276
6302.23558,0.13424
6304.16405,0.12837
6306.09252,0.17119
6308.02098,0.21149
6309.94945,0.20443
6311.87792,0.17475
6313.80639,0.12324
6315.73486,0.08207
6317.66333,0.09041
6319.59180,0.11157
6321.52026,0.09889
6323.44873,0.06573
6325.37720,0.04916
6327.30567,0.05317
6329.23414,0.09204
6331.16261,0.14189
6333.09108,0.12761
6335.01955,0.08564
6336.94801,0.07678
6338.87648,0.05084
6340.80495,-0.00313
6342.73342,-0.03043
6344.66189,-0.01441
6346.59036,0.05879
6348.51883,0.12187
6350.44729,0.10471
6352.37576,0.11327
6354.30423,0.15705
6356.23270,0.13026
6358.16117,0.07131
6360.08964,0.06945
6362.01811,0.08582
6363.94658,0.06928
6365.87504,0.07858
6367.80351,0.10905
6369.73198,0.08465
6371.66045,0.04973
6373.58892,0.06659
6375.51739,0.09063
6377.44586,0.06866
6379.37432,0.04004
6381.30279,0.06507
6383.23126,0.10903
6385.15973,0.09577
6387.08820,0.05643
6389.01667,0.03199
6390.94514,0.02142
6392.87361,0.01282
6394.80207,-0.00515
6396.73054,0.01545
6398.65901,0.07851
6400.58748,0.09215
6402.51595,0.02655
6404.44442,-0.03267
6406.37289,-0.01521
6408.30135,0.05456
6410.22982,0.09762
6412.15829,0.11605
6414.08676,0.13398
6416.01523,0.14094
6417.94370,0.15949
6419.87217,0.16285
6421.80064,0.10284
6423.72910,0.03708
6425.65757,0.04585
6427.58604,0.10623
6429.51451,0.14234
6431.44298,0.14690
6433.37145,0.12229
6435.29992,0.05049
6437.22838,-0.02616
6439.15685,-0.02061
6441.08532,0.05712
6443.01379,0.12378
6444.94226,0.15475
6446.87073,0.14798
6448.79920,0.08031
6450.72766,-0.00021
6452.65613,-0.03098
6454.58460,-0.02176
6456.51307,-0.00252
6458.44154,0.01290
6460.37001,0.01360
6462.29848,-0.00619
6464.22695,-0.01527
6466.15541,0.00089
6468.08388,0.01955
6470.01235,0.02007
6471.94082,0.00088
6473.86929,0.00433
6475.79776,0.07259
6477.72623,0.14875
6479.65469,0.12848
6481.58316,0.04893
6483.51163,0.04563
6485.44010,0.12289
6487.36857,0.18335
6489.29704,0.16744
6491.22551,0.06732
6493.15398,-0.01645
6495.08244,0.01142
6497.01091,0.04436
6498.93938,0.01705
6500.86785,0.00627
6502.79632,0.06164
6504.72479,0.12831
6506.65326,0.15191
6508.58172,0.15646
6510.51019,0.15053
6512.43866,0.10334
6514.36713,0.06890
6516.29560,0.08115
6518.22407,0.05730
6520.15254,-0.00770
6522.08101,-0.03217
6524.00947,-0.04112
6525.93794,-0.07003
6527.86641,-0.05606
6529.79488,-0.05543
6531.72335,-0.12035
6533.65182,-0.10765
6535.58029,0.00290
6537.50875,0.07035
6539.43722,0.09231
6541.36569,0.09611
6543.29416,0.05713
6545.22263,0.00828
6547.15110,-0.00857
6549.07957,0.03026
6551.00804,0.10443
6552.93650,0.15531
6554.86497,0.15064
6556.79344,0.08761
6558.72191,0.00925
6560.65038,-0.04666
6562.57885,-0.05924
6564.50732,-0.03104
6566.43578,-0.01332
6568.36425,0.00298
6570.29272,0.07253
6572.22119,0.14896
6574.14966,0.16196
6576.07813,0.13918
6578.00660,0.10605
6579.93507,0.06464
6581.86353,0.02950
6583.79200,-0.00706
6585.72047,-0.03201
6587.64894,-0.01516
6589.57741,0.03157
6591.50588,0.05877
6593.43435,0.04352
6595.36281,0.03153
6597.29128,0.06280
6599.21975,0.11134
6601.14822,0.16238
6603.07669,0.20949
6605.00516,0.19566
6606.93363,0.11183
6608.86210,0.01147
6610.79056,-0.07429
6612.71903,-0.10070
6614.64750,-0.08085
6616.57597,-0.09545
6618.50444,-0.08926
6620.43291,0.00488
6622.36138,0.09741
6624.28984,0.11152
6626.21831,0.10382
6628.14678,0.14836
6630.07525,0.19813
6632.00372,0.14831
6633.93219,0.05220
6635.86066,0.03455
6637.78912,0.09785
6639.71759,0.12758
6641.64606,0.06694
6643.57453,-0.02320
6645.50300,-0.06160
6647.43147,-0.07112
6649.35994,-0.04965
6651.28841,0.02293
6653.21687,0.07784
6655.14534,0.09978
6657.07381,0.12462
6659.00228,0.11037
6660.93075,0.04141
6662.85922,0.01506
6664.78769,0.06822
6666.71615,0.08522
6668.64462,0.05848
6670.57309,0.10441
6672.50156,0.18037
6674.43003,0.22091
6676.35850,0.22691
6678.28697,0.15079
6680.21544,0.04846
6682.14390,0.02382
6684.07237,0.05553
6686.00084,0.07720
6687.92931,0.05556
6689.85778,-0.02876
6691.78625,-0.08328
6693.71472,-0.04264
6695.64318,0.02374
6697.57165,0.06847
6699.50012,0.09315
6701.42859,0.05634
6703.35706,0.00059
6705.28553,0.01699
6707.21400,0.05033
6709.14247,0.03379
6711.07093,0.02166
6712.99940,0.03857
6714.92787,0.03902
6716.85634,0.01314
6718.78481,-0.00746
6720.71328,-0.01557
6722.64175,0.00021
6724.57021,0.03910
6726.49868,0.07284
6728.42715,0.08962
6730.35562,0.10998
6732.28409,0.15217
6734.21256,0.15341
6736.14103,0.11478
6738.06950,0.14217
6739.99796,0.19583
6741.92643,0.16740
6743.85490,0.11346
6745.78337,0.10212
6747.71184,0.10397
6749.64031,0.13682
6751.56878,0.20116
6753.49724,0.21394
6755.42571,0.16668
6757.35418,0.13634
6759.28265,0.14111
6761.21112,0.13646
6763.13959,0.10974
6765.06806,0.08486
6766.99653,0.08095
6768.92499,0.09407
6770.85346,0.11105
6772.78193,0.14605
6774.71040,0.16094
6776.63887,0.08481
6778.56734,0.00533
6780.49581,0.02844
6782.42427,0.09287
6784.35274,0.09497
6786.28121,0.03365
6788.20968,-0.00331
6790.13815,0.01091
6792.06662,-0.04257
6793.99509,-0.14715
6795.92355,-0.12798
6797.85202,-0.03686
6799.78049,-0.01558
6801.70896,-0.01192
6803.63743,0.03637
6805.56590,0.05849
6807.49437,0.04803
6809.42284,0.06176
6811.35130,0.10225
6813.27977,0.08545
6815.20824,-0.01873
6817.13671,-0.08328
6819.06518,-0.04019
6820.99365,0.01764
6822.92212,0.05696
6824.85058,0.12151
6826.77905,0.19723
6828.70752,0.23444
6830.63599,0.20772
6832.56446,0.18540
6834.49293,0.20866
6836.42140,0.23841
6838.34987,0.23197
6840.27833,0.17296
6842.20680,0.11104
6844.13527,0.10274
6846.06374,0.12403
6847.99221,0.12364
6849.92068,0.06273
6851.84915,-0.03243
6853.77761,-0.06553
6855.70608,-0.00609
6857.63455,0.07155
6859.56302,0.14388
6861.49149,0.21230
6863.41996,0.26313
6865.34843,0.27288
6867.27690,0.20674
6869.20536,0.13640
6871.13383,0.09545
6873.06230,0.02628
6874.99077,-0.03713
6876.91924,-0.04998
6878.84771,-0.03691
6880.77618,-0.01492
6882.70464,-0.00906
6884.63311,-0.03249
6886.56158,-0.02884
6888.49005,0.02765
6890.41852,0.05542
6892.34699,0.02668
6894.27546,0.03817
6896.20393,0.10450
6898.13239,0.11988
6900.06086,0.07599
6901.98933,0.07852
6903.91780,0.11215
6905.84627,0.11765
6907.77474,0.13095
6909.70321,0.14227
6911.63167,0.14662
6913.56014,0.12856
6915.48861,0.00880
6917.41708,-0.12571
6919.34555,-0.07391
6921.27402,0.13613
6923.20249,0.28451
6925.13096,0.28311
6927.05942,0.16260
6928.98789,0.03932
6930.91636,0.01456
6932.84483,0.04890
6934.77330,0.09128
6936.70177,0.10507
6938.63024,0.06874
6940.55870,0.04748
6942.48717,0.01377
6944.41564,-0.05753
6946.34411,-0.02264
6948.27258,0.10734
6950.20105,0.17192
6952.12952,0.16838
6954.05799,0.14812
6955.98645,0.08298
6957.91492,0.01408
6959.84339,0.03473
6961.77186,0.10838
6963.70033,0.15133
6965.62880,0.10551
6967.55727,0.00584
6969.48573,-0.00458
6971.41420,0.02324
6973.34267,-0.07024
6975.27114,-0.18556
6977.19961,-0.13918
6979.12808,-0.01878
6981.05655,0.03730
6982.98501,0.02413
6984.91348,0.01686
6986.84195,0.05837
6988.77042,0.06126
6990.69889,-0.02192
6992.62736,-0.10611
6994.55583,-0.14700
6996.48430,-0.15474
6998.41276,-0.11907
7000.34123,-0.04335
7002.26970,0.05229
7004.19817,0.16381
7006.12664,0.21683
7008.05511,0.13787
7009.98358,0.02209
7011.91204,-0.00370
7013.84051,0.04109
7015.76898,0.05816
7017.69745,0.03922
7019.62592,0.01272
7021.55439,0.03156
7023.48286,0.05197
7025.41133,-0.03516
7027.33979,-0.13265
7029.26826,-0.07458
7031.19673,0.05235
7033.12520,0.08810
7035.05367,0.06991
7036.98214,0.10584
7038.91061,0.15842
7040.83907,0.16649
7042.76754,0.13404
7044.69601,0.10865
7046.62448,0.07797
7048.55295,0.02218
7050.48142,-0.02891
7052.40989,-0.05640
7054.33836,-0.05030
7056.26682,-0.03356
7058.19529,0.04495
7060.12376,0.13106
7062.05223,0.07046
7063.98070,-0.04872
7065.90917,-0.08586
7067.83764,-0.04470
7069.76610,0.04186
7071.69457,0.04434
7073.62304,-0.03618
7075.55151,-0.05028
7077.47998,-0.00547
7079.40845,0.00816
7081.33692,-0.04477
7083.26539,-0.06880
7085.19385,-0.00786
7087.12232,0.05601
7089.05079,0.05276
7090.97926,-0.00877
7092.90773,-0.03740
7094.83620,0.02752
7096.76467,0.05541
7098.69313,-0.01014
7100.62160,0.00355
7102.55007,0.12916
7104.47854,0.18540
7106.40701,0.05890
7108.33548,-0.07546
7110.26395,-0.07389
7112.19242,0.01260
7114.12088,0.12043
7116.04935,0.18291
7117.97782,0.10702
7119.90629,-0.01449
7121.83476,-0.04662
7123.76323,-0.00248
7125.69170,0.04957
7127.62016,0.00919
7129.54863,-0.06152
7131.47710,-0.05062
7133.40557,-0.05126
7135.33404,-0.12698
7137.26251,-0.11990
7139.19098,-0.02532
7141.11944,-0.01893
7143.04791,-0.07008
7144.97638,-0.11074
7146.90485,-0.10730
7148.83332,0.01354
7150.76179,0.15352
7152.69026,0.19975
7154.61873,0.13718
7156.54719,0.04000
7158.47566,0.05647
7160.40413,0.17597
7162.33260,0.27356
7164.26107,0.32749
7166.18954,0.30532
7168.11801,0.23717
7170.04647,0.25962
7171.97494,0.30639
7173.90341,0.25472
7175.83188,0.13875
7177.76035,0.07823
7179.68882,0.06827
7181.61729,-0.05577
7183.54576,-0.29759
7185.47422,-0.39750
7187.40269,-0.31112
7189.33116,-0.17405
7191.25963,-0.01590
7193.18810,0.12241
7195.11657,0.18510
7197.04504,0.22531
7198.97350,0.20322
7200.90197,0.09940
7202.83044,-0.00008
7204.75891,-0.06839
7206.68738,-0.10815
7208.61585,-0.07717
7210.54432,-0.00475
7212.47279,0.05713
7214.40125,0.09337
7216.32972,0.09226
7218.25819,0.08898
7220.18666,0.07108
7222.11513,0.01128
7224.04360,-0.00365
7225.97207,0.07152
7227.90053,0.17748
7229.82900,0.17998
7231.75747,0.06350
7233.68594,0.02491
7235.61441,0.00043
7237.54288,-0.08647
7239.47135,-0.05751
7241.39982,0.08960
7243.32828,0.16615
7245.25675,0.15499
7247.18522,0.13152
7249.11369,0.12140
7251.04216,0.19200
7252.97063,0.21279
7254.89910,-0.00730
7256.82756,-0.14289
7258.75603,-0.08019
7260.68450,0.00683
7262.61297,0.04660
7264.54144,0.16275
7266.46991,0.31889
7268.39838,0.43450
7270.32685,0.40152
7272.25531,0.08076
7274.18378,-0.22377
7276.11225,-0.29890
7278.04072,-0.33605
7279.96919,-0.37507
7281.89766,-0.36264
7283.82613,-0.25596
7285.75459,-0.01275
7287.68306,0.24569
7289.61153,0.35655
7291.54000,0.27576
7293.46847,0.12997
7295.39694,-0.01976
7297.32541,-0.08881
7299.25387,-0.01400
7301.18234,0.05643
7303.11081,0.09648
7305.03928,0.23117
7306.96775,0.40066
7308.89622,0.35905
7310.82469,0.14542
7312.75316,0.05154
7314.68162,0.01570
7316.61009,-0.09618
7318.53856,-0.15874
7320.46703,-0.05167
7322.39550,0.13654
7324.32397,0.25474
7326.25244,0.21816
7328.18090,0.08877
7330.10937,0.10086
7332.03784,0.31392
7333.96631,0.39381
7335.89478,0.21642
7337.82325,0.03974
7339.75172,0.10415
7341.68019,0.14679
7343.60865,0.00856
7345.53712,-0.02035
7347.46559,0.13209
7349.39406,0.14865
7351.32253,-0.12298
7353.25100,-0.27176
7355.17947,-0.07676
7357.10793,0.23169
7359.03640,0.37198
7360.96487,0.27262
7362.89334,0.07009
7364.82181,-0.01356
7366.75028,0.01615
7368.67875,0.00447
7370.60722,0.01738
7372.53568,0.08468
7374.46415,0.14884
7376.39262,0.21812
7378.32109,0.17481
7380.24956,0.05196
7382.17803,0.08170
7384.10650,0.22123
7386.03496,0.26491
7387.96343,0.18928
7389.89190,0.06105
7391.82037,0.00733
7393.74884,0.00477
7395.67731,-0.05715
7397.60578,-0.07256
7399.53425,-0.05067
7401.46271,-0.08589
7403.39118,-0.11249
7405.31965,-0.06865
7407.24812,0.00159
7409.17659,0.02853
7411.10506,-0.05472
7413.03353,-0.12532
7414.96199,-0.06032
7416.89046,0.18362
7418.81893,0.38902
7420.74740,0.25678
7422.67587,0.06629
7424.60434,-0.01374
7426.53281,-0.01326
7428.46128,-0.00928
7430.38974,-0.05575
7432.31821,-0.05076
7434.24668,-0.04941
7436.17515,-0.06740
7438.10362,0.00606
7440.03209,0.10189
7441.96056,0.14601
7443.88902,0.16979
7445.81749,0.13106
7447.74596,0.02525
7449.67443,-0.11422
7451.60290,-0.25376
7453.53137,-0.20711
7455.45984,0.00372
7457.38831,0.18152
7459.31677,0.21081
7461.24524,0.07270
7463.17371,-0.01936
7465.10218,-0.01686
7467.03065,-0.09769
7468.95912,-0.26305
7470.88759,-0.29531
7472.81605,-0.22018
7474.74452,-0.28185
7476.67299,-0.29943
7478.60146,-0.08472
7480.52993,0.14624
7482.45840,0.19508
7484.38687,0.19927
7486.31533,0.33991
7488.24380,0.44185
7490.17227,0.24299
7492.10074,-0.04652
7494.02921,-0.09669
7495.95768,0.00561
7497.88615,0.09382
