399.19301,2.25525
401.12148,-0.31603
403.04995,-0.48595
404.97842,-0.38975
406.90689,-0.15683
408.83536,-0.02210
410.76382,-0.11414
412.69229,-0.13198
414.62076,-0.06391
416.54923,-0.09712
418.47770,-0.10777
420.40617,0.06309
422.33464,0.14169
424.26311,0.02422
426.19157,-0.07325
428.12004,-0.03015
430.04851,0.04011
431.97698,0.03030
433.90545,0.02002
435.83392,0.04496
437.76239,-0.00846
439.69085,-0.08391
441.61932,-0.03174
443.54779,0.06998
445.47626,0.11327
447.40473,0.14737
449.33320,0.09669
451.26167,-0.02637
453.19013,-0.07597
455.11860,-0.07925
457.04707,-0.09801
458.97554,-0.07342
460.90401,-0.03700
462.83248,-0.03346
464.76095,0.01366
466.68942,0.14026
468.61788,0.25699
470.54635,0.28623
472.47482,0.20347
474.40329,0.06811
476.33176,0.02613
478.26023,0.00978
480.18870,-0.00343
482.11716,0.01492
484.04563,0.06349
485.97410,0.10452
487.90257,0.07012
489.83104,-0.01341
491.75951,-0.06006
493.68798,-0.04332
495.61645,0.02573
497.54491,0.08161
499.47338,0.08253
501.40185,0.08669
503.33032,0.14400
505.25879,0.17259
507.18726,0.10014
509.11573,0.03360
511.04419,0.03675
512.97266,0.05508
514.90113,0.08244
516.82960,0.09717
518.75807,0.05820
520.68654,0.02776
522.61501,0.06877
524.54348,0.11925
526.47194,0.09771
528.40041,0.06000
530.32888,0.06657
532.25735,0.11608
534.18582,0.16628
536.11429,0.16446
538.04276,0.13074
539.97122,0.11854
541.89969,0.13587
543.82816,0.13956
545.75663,0.11193
547.68510,0.10674
549.61357,0.07797
551.54204,-0.14831
553.47051,-0.39853
555.39897,-0.31228
557.32744,-0.06020
559.25591,0.03673
561.18438,0.02867
563.11285,0.00286
565.04132,-0.01350
566.96979,-0.00577
568.89825,0.00623
570.82672,0.02513
572.75519,0.04159
574.68366,0.03357
576.61213,0.02519
578.54060,0.03657
580.46907,0.04400
582.39754,0.03415
584.32600,0.01078
586.25447,-0.00755
588.18294,-0.01040
590.11141,-0.00779
592.03988,0.00269
593.96835,0.03094
595.89682,0.06147
597.82528,0.05679
599.75375,0.02301
601.68222,0.00219
603.61069,0.01721
605.53916,0.05669
607.46763,0.08759
609.39610,0.08783
611.32456,0.07502
613.25303,0.07780
615.18150,0.08026
617.10997,0.06925
619.03844,0.06496
620.96691,0.06543
622.89538,0.05952
624.82385,0.06480
626.75231,0.08419
628.68078,0.09000
630.60925,0.08952
632.53772,0.10855
634.46619,0.13176
636.39466,0.12889
638.32313,0.10590
640.25159,0.09082
642.18006,0.07821
644.10853,0.05511
646.03700,0.04739
647.96547,0.06882
649.89394,0.10114
651.82241,0.13273
653.75088,0.14118
655.67934,0.11285
657.60781,0.08306
659.53628,0.07636
661.46475,0.08941
663.39322,0.10556
665.32169,0.10358
667.25016,0.08649
669.17862,0.08931
671.10709,0.11489
673.03556,0.13037
674.96403,0.12563
676.89250,0.11057
678.82097,0.10310
680.74944,0.09671
682.67791,0.08452
684.60637,0.07898
686.53484,0.07932
688.46331,0.07881
690.39178,0.08662
692.32025,0.10371
694.24872,0.11507
696.17719,0.10722
698.10565,0.08983
700.03412,0.08774
701.96259,0.10047
703.89106,0.10354
705.81953,0.09384
707.74800,0.07262
709.67647,-0.00510
711.60494,-0.09754
713.53340,-0.06720
715.46187,0.04129
717.39034,0.08632
719.31881,0.08778
721.24728,0.10135
723.17575,0.11204
725.10422,0.10650
727.03268,0.09007
728.96115,0.07722
730.88962,0.07512
732.81809,0.07946
734.74656,0.09610
736.67503,0.11073
738.60350,0.09843
740.53197,0.08041
742.46043,0.08665
744.38890,0.10409
746.31737,0.10873
748.24584,0.10473
750.17431,0.10020
752.10278,0.09083
754.03125,0.08609
755.95971,0.09597
757.88818,0.10779
759.81665,0.10892
761.74512,0.10347
763.67359,0.09879
765.60206,0.09752
767.53053,0.10202
769.45900,0.10990
771.38746,0.11514
773.31593,0.11356
775.24440,0.10285
777.17287,0.09543
779.10134,0.10512
781.02981,0.12384
782.95828,0.13031
784.88674,0.11415
786.81521,0.09434
788.74368,0.08274
790.67215,0.07562
792.60062,0.08227
794.52909,0.09885
796.45756,0.10914
798.38602,0.11304
800.31449,0.11419
802.24296,0.10840
804.17143,0.09805
806.09990,0.09665
808.02837,0.09980
809.95684,0.09197
811.88531,0.08939
813.81377,0.10863
815.74224,0.12750
817.67071,0.13289
819.59918,0.13349
821.52765,0.12795
823.45612,0.11448
825.38459,0.09927
827.31305,0.09119
829.24152,0.09291
831.16999,0.09997
833.09846,0.11110
835.02693,0.11860
836.95540,0.10909
838.88387,0.09012
840.81234,0.08299
842.74080,0.09159
844.66927,0.09955
846.59774,0.09891
848.52621,0.09638
850.45468,0.09239
852.38315,0.09343
854.31162,0.10427
856.24008,0.10900
858.16855,0.10293
860.09702,0.09920
862.02549,0.10685
863.95396,0.12248
865.88243,0.12512
867.81090,0.10090
869.73937,0.07278
871.66783,0.07086
873.59630,0.08169
875.52477,0.08243
877.45324,0.09098
879.38171,0.11345
881.31018,0.12071
883.23865,0.10923
885.16711,0.10075
887.09558,0.09901
889.02405,0.09581
890.95252,0.09686
892.88099,0.10588
894.80946,0.11008
896.73793,0.10874
898.66640,0.11407
900.59486,0.12550
902.52333,0.13055
904.45180,0.12052
906.38027,0.10248
908.30874,0.08754
910.23721,0.08168
912.16568,0.08716
914.09414,0.09917
916.02261,0.11315
917.95108,0.11935
919.87955,0.10863
921.80802,0.09396
923.73649,0.09056
925.66496,0.09668
927.59343,0.10268
929.52189,0.10332
931.45036,0.10401
933.37883,0.10796
935.30730,0.11034
937.23577,0.10921
939.16424,0.10909
941.09271,0.11435
943.02117,0.12322
944.94964,0.12925
946.87811,0.12849
948.80658,0.12084
950.73505,0.11158
952.66352,0.11143
954.59199,0.11769
956.52045,0.11910
958.44892,0.12010
960.37739,0.12545
962.30586,0.12930
964.23433,0.12633
966.16280,0.11949
968.09127,0.11749
970.01974,0.12009
971.94820,0.11704
973.87667,0.11136
975.80514,0.11215
977.73361,0.11171
979.66208,0.11309
981.59055,0.12465
983.51902,0.13299
985.44748,0.13046
987.37595,0.12161
989.30442,0.11773
991.23289,0.12649
993.16136,0.13292
995.08983,0.13113
997.01830,0.13233
998.94677,0.13400
1000.87523,0.13258
1002.80370,0.13115
1004.73217,0.12940
1006.66064,0.12820
1008.58911,0.12621
1010.51758,0.12371
1012.44605,0.12203
1014.37451,0.12010
1016.30298,0.12263
1018.23145,0.12529
1020.15992,0.12129
1022.08839,0.12062
1024.01686,0.12491
1025.94533,0.13730
1027.87380,0.15734
1029.80226,0.14855
1031.73073,0.11970
1033.65920,0.11623
1035.58767,0.12312
1037.51614,0.12406
1039.44461,0.12737
1041.37308,0.12706
1043.30154,0.12466
1045.23001,0.12220
1047.15848,0.11633
1049.08695,0.11759
1051.01542,0.13142
1052.94389,0.14601
1054.87236,0.15096
1056.80083,0.14211
1058.72929,0.12530
1060.65776,0.11803
1062.58623,0.12549
1064.51470,0.13546
1066.44317,0.13811
1068.37164,0.13507
1070.30011,0.13461
1072.22857,0.13757
1074.15704,0.13914
1076.08551,0.14115
1078.01398,0.14286
1079.94245,0.14229
1081.87092,0.14216
1083.79939,0.14382
1085.72786,0.14405
1087.65632,0.13689
1089.58479,0.12469
1091.51326,0.11944
1093.44173,0.12635
1095.37020,0.13479
1097.29867,0.13629
1099.22714,0.13425
1101.15560,0.13352
1103.08407,0.13460
1105.01254,0.13531
1106.94101,0.13767
1108.86948,0.14234
1110.79795,0.14827
1112.72642,0.15428
1114.65489,0.15539
1116.58335,0.15164
1118.51182,0.14628
1120.44029,0.13811
1122.36876,0.13137
1124.29723,0.13234
1126.22570,0.13695
1128.15417,0.14331
1130.08263,0.14512
1132.01110,0.13427
1133.93957,0.12436
1135.86804,0.12488
1137.79651,0.12890
1139.72498,0.13098
1141.65345,0.12852
1143.58191,0.12735
1145.51038,0.13267
1147.43885,0.13780
1149.36732,0.14041
1151.29579,0.14316
1153.22426,0.14261
1155.15273,0.13820
1157.08120,0.13536
1159.00966,0.13725
1160.93813,0.14206
1162.86660,0.14401
1164.79507,0.14131
1166.72354,0.14010
1168.65201,0.14197
1170.58048,0.14341
1172.50894,0.14414
1174.43741,0.14312
1176.36588,0.14168
1178.29435,0.14156
1180.22282,0.13859
1182.15129,0.13583
1184.07976,0.15130
1186.00823,0.18124
1187.93669,0.18486
1189.86516,0.15872
1191.79363,0.14656
1193.72210,0.15285
1195.65057,0.15060
1197.57904,0.13986
1199.50751,0.13585
1201.43597,0.14052
1203.36444,0.14394
1205.29291,0.14295
1207.22138,0.14307
1209.14985,0.14379
1211.07832,0.14623
1213.00679,0.15245
1214.93526,0.15341
1216.86372,0.14516
1218.79219,0.13668
1220.72066,0.13374
1222.64913,0.13342
1224.57760,0.13525
1226.50607,0.13952
1228.43454,0.14065
1230.36300,0.14002
1232.29147,0.14178
1234.21994,0.14178
1236.14841,0.13962
1238.07688,0.14004
1240.00535,0.14296
1241.93382,0.14522
1243.86229,0.14443
1245.79075,0.14176
1247.71922,0.14193
1249.64769,0.14389
1251.57616,0.14288
1253.50463,0.14203
1255.43310,0.14420
1257.36157,0.14454
1259.29003,0.14382
1261.21850,0.14741
1263.14697,0.15165
1265.07544,0.14972
1267.00391,0.14119
1268.93238,0.13446
1270.86085,0.13824
1272.78932,0.14813
1274.71778,0.15152
1276.64625,0.14774
1278.57472,0.14670
1280.50319,0.14734
1282.43166,0.14683
1284.36013,0.14951
1286.28860,0.15147
1288.21706,0.15101
1290.14553,0.15112
1292.07400,0.14648
1294.00247,0.13858
1295.93094,0.13680
1297.85941,0.13871
1299.78788,0.13595
1301.71634,0.12502
1303.64481,0.11089
1305.57328,0.11039
1307.50175,0.12738
1309.43022,0.14276
1311.35869,0.14829
1313.28716,0.15078
1315.21563,0.15357
1317.14409,0.15630
1319.07256,0.15597
1321.00103,0.15153
1322.92950,0.14695
1324.85797,0.14293
1326.78644,0.14111
1328.71491,0.14359
1330.64337,0.14576
1332.57184,0.14811
1334.50031,0.15185
1336.42878,0.15355
1338.35725,0.15501
1340.28572,0.14333
1342.21419,0.09913
1344.14266,0.05280
1346.07112,0.05978
1347.99959,0.11224
1349.92806,0.14570
1351.85653,0.14800
1353.78500,0.14639
1355.71347,0.14586
1357.64194,0.14660
1359.57040,0.15449
1361.49887,0.16861
1363.42734,0.17315
1365.35581,0.16208
1367.28428,0.15261
1369.21275,0.15255
1371.14122,0.15651
1373.06969,0.16160
1374.99815,0.16709
1376.92662,0.16645
1378.85509,0.16196
1380.78356,0.16193
1382.71203,0.16528
1384.64050,0.16969
1386.56897,0.17296
1388.49743,0.16822
1390.42590,0.16356
1392.35437,0.16984
1394.28284,0.18171
1396.21131,0.18468
1398.13978,0.17873
1400.06825,0.17397
1401.99672,0.17322
1403.92518,0.17286
1405.85365,0.16887
1407.78212,0.16566
1409.71059,0.16691
1411.63906,0.16964
1413.56753,0.17352
1415.49600,0.18031
1417.42446,0.18861
1419.35293,0.18823
1421.28140,0.17839
1423.20987,0.17219
1425.13834,0.16977
1427.06681,0.16968
1428.99528,0.17271
1430.92375,0.17424
1432.85221,0.17420
1434.78068,0.17807
1436.70915,0.18012
1438.63762,0.17338
1440.56609,0.16749
1442.49456,0.16579
1444.42303,0.16680
1446.35149,0.17020
1448.27996,0.17199
1450.20843,0.17092
1452.13690,0.17479
1454.06537,0.18411
1455.99384,0.19328
1457.92231,0.19169
1459.85077,0.18190
1461.77924,0.18098
1463.70771,0.18597
1465.63618,0.18574
1467.56465,0.18302
1469.49312,0.18905
1471.42159,0.20849
1473.35006,0.22350
1475.27852,0.20852
1477.20699,0.18780
1479.13546,0.17871
1481.06393,0.17681
1482.99240,0.17657
1484.92087,0.18101
1486.84934,0.19343
1488.77780,0.20742
1490.70627,0.20467
1492.63474,0.19376
1494.56321,0.19320
1496.49168,0.19942
1498.42015,0.19549
1500.34862,0.18217
1502.27709,0.17515
1504.20555,0.18328
1506.13402,0.21325
1508.06249,0.22812
1509.99096,0.20971
1511.91943,0.19720
1513.84790,0.19844
1515.77637,0.20998
1517.70483,0.21514
1519.63330,0.21554
1521.56177,0.22325
1523.49024,0.21999
1525.41871,0.20901
1527.34718,0.20065
1529.27565,0.19592
1531.20412,0.19677
1533.13258,0.19858
1535.06105,0.19555
1536.98952,0.19709
1538.91799,0.21212
1540.84646,0.23688
1542.77493,0.23890
1544.70340,0.21973
1546.63186,0.20350
1548.56033,0.19966
1550.48880,0.20009
1552.41727,0.20198
1554.34574,0.20954
1556.27421,0.22945
1558.20268,0.26647
1560.13115,0.25065
1562.05961,0.20898
1563.98808,0.19053
1565.91655,0.18965
1567.84502,0.20159
1569.77349,0.20821
1571.70196,0.19880
1573.63043,0.19422
1575.55889,0.19888
1577.48736,0.19512
1579.41583,0.18280
1581.34430,0.17728
1583.27277,0.17956
1585.20124,0.18165
1587.12971,0.17970
1589.05818,0.17862
1590.98664,0.18097
1592.91511,0.18201
1594.84358,0.18172
1596.77205,0.18252
1598.70052,0.18313
1600.62899,0.18506
1602.55746,0.18984
1604.48592,0.19362
1606.41439,0.19292
1608.34286,0.18764
1610.27133,0.18082
1612.19980,0.18010
1614.12827,0.18756
1616.05674,0.19753
1617.98521,0.20005
1619.91367,0.20004
1621.84214,0.20392
1623.77061,0.20375
1625.69908,0.19873
1627.62755,0.19421
1629.55602,0.18955
1631.48449,0.19221
1633.41295,0.20657
1635.34142,0.22233
1637.26989,0.21659
1639.19836,0.20407
1641.12683,0.19742
1643.05530,0.19757
1644.98377,0.20826
1646.91223,0.22148
1648.84070,0.21838
1650.76917,0.22266
1652.69764,0.24622
1654.62611,0.23372
1656.55458,0.20549
1658.48305,0.19634
1660.41152,0.20078
1662.33998,0.20606
1664.26845,0.19977
1666.19692,0.19792
1668.12539,0.21327
1670.05386,0.22567
1671.98233,0.21601
1673.91080,0.20984
1675.83926,0.20997
1677.76773,0.20710
1679.69620,0.20912
1681.62467,0.22183
1683.55314,0.23766
1685.48161,0.22844
1687.41008,0.21225
1689.33855,0.20701
1691.26701,0.20511
1693.19548,0.20852
1695.12395,0.22423
1697.05242,0.24124
1698.98089,0.24418
1700.90936,0.22951
1702.83783,0.21324
1704.76629,0.21090
1706.69476,0.20858
1708.62323,0.19656
1710.55170,0.18841
1712.48017,0.19406
1714.40864,0.21262
1716.33711,0.23038
1718.26558,0.22070
1720.19404,0.20061
1722.12251,0.19293
1724.05098,0.19114
1725.97945,0.18940
1727.90792,0.19175
1729.83639,0.19841
1731.76486,0.20579
1733.69332,0.20912
1735.62179,0.20066
1737.55026,0.19531
1739.47873,0.19801
1741.40720,0.19918
1743.33567,0.19530
1745.26414,0.19497
1747.19261,0.20504
1749.12107,0.21507
1751.04954,0.20910
1752.97801,0.19877
1754.90648,0.19439
1756.83495,0.19142
1758.76342,0.18991
1760.69189,0.19296
1762.62035,0.19384
1764.54882,0.19052
1766.47729,0.19152
1768.40576,0.19870
1770.33423,0.21016
1772.26270,0.21613
1774.19117,0.20403
1776.11964,0.19032
1778.04810,0.18717
1779.97657,0.19036
1781.90504,0.19148
1783.83351,0.18876
1785.76198,0.18487
1787.69045,0.18396
1789.61892,0.18939
1791.54738,0.19832
1793.47585,0.20052
1795.40432,0.19573
1797.33279,0.19135
1799.26126,0.18978
1801.18973,0.19082
1803.11820,0.19202
1805.04666,0.19155
1806.97513,0.19053
1808.90360,0.19166
1810.83207,0.19422
1812.76054,0.19328
1814.68901,0.19150
1816.61748,0.19531
1818.54595,0.20138
1820.47441,0.20494
1822.40288,0.20545
1824.33135,0.20012
1826.25982,0.19533
1828.18829,0.19791
1830.11676,0.19797
1832.04523,0.19062
1833.97369,0.18454
1835.90216,0.18301
1837.83063,0.18375
1839.75910,0.18539
1841.68757,0.18950
1843.61604,0.19551
1845.54451,0.19745
1847.47298,0.19388
1849.40144,0.18949
1851.32991,0.18756
1853.25838,0.18759
1855.18685,0.18639
1857.11532,0.18537
1859.04379,0.18780
1860.97226,0.19107
1862.90072,0.19250
1864.82919,0.19441
1866.75766,0.19939
1868.68613,0.20388
1870.61460,0.20139
1872.54307,0.19504
1874.47154,0.18867
1876.40001,0.18399
1878.32847,0.18314
1880.25694,0.18524
1882.18541,0.18786
1884.11388,0.18937
1886.04235,0.18908
1887.97082,0.18891
1889.89929,0.18964
1891.82775,0.18892
1893.75622,0.18825
1895.68469,0.18974
1897.61316,0.19122
1899.54163,0.19114
1901.47010,0.19089
1903.39857,0.19228
1905.32704,0.19392
1907.25550,0.19335
1909.18397,0.18986
1911.11244,0.18520
1913.04091,0.18428
1914.96938,0.18782
1916.89785,0.19105
1918.82632,0.19134
1920.75478,0.19148
1922.68325,0.19131
1924.61172,0.18896
1926.54019,0.18768
1928.46866,0.18787
1930.39713,0.18719
1932.32560,0.18705
1934.25407,0.18868
1936.18253,0.18981
1938.11100,0.18871
1940.03947,0.18726
1941.96794,0.18889
1943.89641,0.19284
1945.82488,0.19435
1947.75335,0.19212
1949.68181,0.18858
1951.61028,0.18633
1953.53875,0.18586
1955.46722,0.18641
1957.39569,0.18769
1959.32416,0.18986
1961.25263,0.19252
1963.18110,0.19339
1965.10956,0.19166
1967.03803,0.19081
1968.96650,0.19145
1970.89497,0.19055
1972.82344,0.18745
1974.75191,0.18333
1976.68038,0.18272
1978.60884,0.18472
1980.53731,0.18512
1982.46578,0.18733
1984.39425,0.19042
1986.32272,0.19104
1988.25119,0.19040
1990.17966,0.18871
1992.10812,0.18651
1994.03659,0.18584
1995.96506,0.18622
1997.89353,0.18416
1999.82200,0.18115
2001.75047,0.18152
2003.67894,0.18326
2005.60741,0.18370
2007.53587,0.18388
2009.46434,0.18504
2011.39281,0.18824
2013.32128,0.19181
2015.24975,0.19226
2017.17822,0.19123
2019.10669,0.19093
2021.03515,0.18982
2022.96362,0.18845
2024.89209,0.18888
2026.82056,0.19009
2028.74903,0.19019
2030.67750,0.18989
2032.60597,0.18982
2034.53444,0.18931
2036.46290,0.18889
2038.39137,0.19147
2040.31984,0.19599
2042.24831,0.19667
2044.17678,0.19399
2046.10525,0.19248
2048.03372,0.19260
2049.96218,0.19316
2051.89065,0.19392
2053.81912,0.19334
2055.74759,0.19060
2057.67606,0.18906
2059.60453,0.19000
2061.53300,0.19033
2063.46147,0.18843
2065.38993,0.18628
2067.31840,0.18923
2069.24687,0.19610
2071.17534,0.19794
2073.10381,0.19405
2075.03228,0.18969
2076.96075,0.18750
2078.88921,0.18945
2080.81768,0.19332
2082.74615,0.19496
2084.67462,0.19416
2086.60309,0.19318
2088.53156,0.19389
2090.46003,0.19411
2092.38850,0.19146
2094.31696,0.18880
2096.24543,0.18794
2098.17390,0.18844
2100.10237,0.19110
2102.03084,0.19445
2103.95931,0.19569
2105.88778,0.19595
2107.81624,0.19768
2109.74471,0.19994
2111.67318,0.19881
2113.60165,0.19395
2115.53012,0.19069
2117.45859,0.19078
2119.38706,0.19162
2121.31553,0.19160
2123.24399,0.19051
2125.17246,0.19016
2127.10093,0.18994
2129.02940,0.18806
2130.95787,0.18847
2132.88634,0.19654
2134.81481,0.20868
2136.74327,0.21292
2138.67174,0.20536
2140.60021,0.19649
2142.52868,0.19274
2144.45715,0.18991
2146.38562,0.18747
2148.31409,0.18680
2150.24255,0.18592
2152.17102,0.18554
2154.09949,0.18734
2156.02796,0.19080
2157.95643,0.19413
2159.88490,0.19649
2161.81337,0.19792
2163.74184,0.19774
2165.67030,0.19583
2167.59877,0.19410
2169.52724,0.19466
2171.45571,0.19599
2173.38418,0.19677
2175.31265,0.19642
2177.24112,0.19380
2179.16958,0.19309
2181.09805,0.19606
2183.02652,0.19753
2184.95499,0.19600
2186.88346,0.19393
2188.81193,0.19308
2190.74040,0.19364
2192.66887,0.19319
2194.59733,0.19156
2196.52580,0.19271
2198.45427,0.19657
2200.38274,0.19859
2202.31121,0.19820
2204.23968,0.19789
2206.16815,0.19806
2208.09661,0.19803
2210.02508,0.19646
2211.95355,0.19523
2213.88202,0.19834
2215.81049,0.20262
2217.73896,0.20332
2219.66743,0.20097
2221.59590,0.19829
2223.52436,0.19744
2225.45283,0.19683
2227.38130,0.19550
2229.30977,0.19478
2231.23824,0.19435
2233.16671,0.19448
2235.09518,0.19428
2237.02364,0.19224
2238.95211,0.19063
2240.88058,0.19094
2242.80905,0.19244
2244.73752,0.19468
2246.66599,0.19694
2248.59446,0.19856
2250.52293,0.19787
2252.45139,0.19620
2254.37986,0.19767
2256.30833,0.19960
2258.23680,0.19766
2260.16527,0.19608
2262.09374,0.19838
2264.02221,0.19929
2265.95067,0.19644
2267.87914,0.19505
2269.80761,0.19571
2271.73608,0.19452
2273.66455,0.19263
2275.59302,0.19335
2277.52149,0.19680
2279.44996,0.19753
2281.37842,0.19251
2283.30689,0.18983
2285.23536,0.19289
2287.16383,0.19472
2289.09230,0.19356
2291.02077,0.19453
2292.94924,0.19984
2294.87770,0.20424
2296.80617,0.20304
2298.73464,0.19931
2300.66311,0.19702
2302.59158,0.19560
2304.52005,0.19398
2306.44852,0.19375
2308.37699,0.19638
2310.30545,0.19969
2312.23392,0.19952
2314.16239,0.19795
2316.09086,0.19999
2318.01933,0.19914
2319.94780,0.18907
2321.87627,0.18311
2323.80473,0.19230
2325.73320,0.20567
2327.66167,0.21527
2329.59014,0.22455
2331.51861,0.23267
2333.44708,0.23038
2335.37555,0.21805
2337.30401,0.20817
2339.23248,0.20617
2341.16095,0.21107
2343.08942,0.21425
2345.01789,0.20656
2346.94636,0.19895
2348.87483,0.19820
2350.80330,0.20039
2352.73176,0.20231
2354.66023,0.20197
2356.58870,0.19988
2358.51717,0.20029
2360.44564,0.20515
2362.37411,0.20472
2364.30258,0.19870
2366.23104,0.20248
2368.15951,0.20927
2370.08798,0.20679
2372.01645,0.20231
2373.94492,0.19993
2375.87339,0.19708
2377.80186,0.19382
2379.73033,0.19247
2381.65879,0.19441
2383.58726,0.19697
2385.51573,0.19676
2387.44420,0.19545
2389.37267,0.19447
2391.30114,0.19168
2393.22961,0.18964
2395.15807,0.19111
2397.08654,0.19265
2399.01501,0.19356
2400.94348,0.19625
2402.87195,0.19878
2404.80042,0.19861
2406.72889,0.19694
2408.65736,0.19548
2410.58582,0.19623
2412.51429,0.19985
2414.44276,0.20393
2416.37123,0.20518
2418.29970,0.20187
2420.22817,0.19689
2422.15664,0.19329
2424.08510,0.19139
2426.01357,0.19005
2427.94204,0.18917
2429.87051,0.19141
2431.79898,0.19437
2433.72745,0.19582
2435.65592,0.19908
2437.58439,0.19988
2439.51285,0.19578
2441.44132,0.19387
2443.36979,0.19429
2445.29826,0.19415
2447.22673,0.19622
2449.15520,0.20405
2451.08367,0.21646
2453.01213,0.22412
2454.94060,0.21823
2456.86907,0.20342
2458.79754,0.19524
2460.72601,0.19754
2462.65448,0.19945
2464.58295,0.19680
2466.51142,0.19225
2468.43988,0.18848
2470.36835,0.18884
2472.29682,0.19241
2474.22529,0.19446
2476.15376,0.19440
2478.08223,0.19344
2480.01070,0.19237
2481.93916,0.19385
2483.86763,0.19589
2485.79610,0.19546
2487.72457,0.19538
2489.65304,0.19669
2491.58151,0.19597
2493.50998,0.19385
2495.43844,0.19467
2497.36691,0.19852
2499.29538,0.20221
2501.22385,0.20308
2503.15232,0.20179
2505.08079,0.20051
2507.00926,0.19952
2508.93773,0.19929
2510.86619,0.19973
2512.79466,0.19892
2514.72313,0.19718
2516.65160,0.19787
2518.58007,0.20071
2520.50854,0.20105
2522.43701,0.19790
2524.36547,0.19531
2526.29394,0.19589
2528.22241,0.19864
2530.15088,0.20005
2532.07935,0.19865
2534.00782,0.19768
2535.93629,0.19713
2537.86476,0.19520
2539.79322,0.19498
2541.72169,0.19826
2543.65016,0.20097
2545.57863,0.20110
2547.50710,0.20192
2549.43557,0.20272
2551.36404,0.20136
2553.29250,0.20023
2555.22097,0.19973
2557.14944,0.19869
2559.07791,0.19816
2561.00638,0.19890
2562.93485,0.19936
2564.86332,0.19736
2566.79179,0.19450
2568.72025,0.19489
2570.64872,0.19608
2572.57719,0.19447
2574.50566,0.19461
2576.43413,0.19896
2578.36260,0.20141
2580.29107,0.19832
2582.21953,0.19557
2584.14800,0.19617
2586.07647,0.19479
2588.00494,0.19223
2589.93341,0.19459
2591.86188,0.20097
2593.79035,0.20510
2595.71882,0.20468
2597.64728,0.20331
2599.57575,0.20297
2601.50422,0.20179
2603.43269,0.20034
2605.36116,0.20040
2607.28963,0.20112
2609.21810,0.20411
2611.14656,0.20544
2613.07503,0.19755
2615.00350,0.19159
2616.93197,0.19661
2618.86044,0.20087
2620.78891,0.20024
2622.71738,0.20160
2624.64585,0.20513
2626.57431,0.20820
2628.50278,0.21087
2630.43125,0.21209
2632.35972,0.21008
2634.28819,0.20687
2636.21666,0.20581
2638.14513,0.20586
2640.07359,0.20437
2642.00206,0.20127
2643.93053,0.19832
2645.85900,0.19724
2647.78747,0.19839
2649.71594,0.20207
2651.64441,0.20648
2653.57288,0.20762
2655.50134,0.20578
2657.42981,0.20211
2659.35828,0.19794
2661.28675,0.19749
2663.21522,0.19996
2665.14369,0.20146
2667.07216,0.20210
2669.00062,0.20332
2670.92909,0.20419
2672.85756,0.20273
2674.78603,0.20044
2676.71450,0.20016
2678.64297,0.20071
2680.57144,0.19995
2682.49990,0.20107
2684.42837,0.20684
2686.35684,0.21197
2688.28531,0.21208
2690.21378,0.20980
2692.14225,0.20861
2694.07072,0.20950
2695.99919,0.21046
2697.92765,0.20847
2699.85612,0.20428
2701.78459,0.20227
2703.71306,0.20456
2705.64153,0.20761
2707.57000,0.20738
2709.49847,0.20513
2711.42693,0.20393
2713.35540,0.20497
2715.28387,0.20791
2717.21234,0.21115
2719.14081,0.21241
2721.06928,0.20898
2722.99775,0.20292
2724.92622,0.20046
2726.85468,0.20229
2728.78315,0.20500
2730.71162,0.20662
2732.64009,0.20669
2734.56856,0.20510
2736.49703,0.20247
2738.42550,0.20171
2740.35396,0.20253
2742.28243,0.20345
2744.21090,0.20560
2746.13937,0.20726
2748.06784,0.20671
2749.99631,0.20557
2751.92478,0.20629
2753.85325,0.20883
2755.78171,0.21028
2757.71018,0.21035
2759.63865,0.21151
2761.56712,0.21333
2763.49559,0.21311
2765.42406,0.21198
2767.35253,0.21173
2769.28099,0.21095
2771.20946,0.21073
2773.13793,0.21369
2775.06640,0.21736
2776.99487,0.21816
2778.92334,0.21697
2780.85181,0.21560
2782.78028,0.21664
2784.70874,0.22078
2786.63721,0.22237
2788.56568,0.21847
2790.49415,0.21425
2792.42262,0.21324
2794.35109,0.21192
2796.27956,0.20929
2798.20802,0.20772
2800.13649,0.20635
2802.06496,0.20500
2803.99343,0.20553
2805.92190,0.20849
2807.85037,0.21150
2809.77884,0.21314
2811.70731,0.21489
2813.63577,0.21478
2815.56424,0.21144
2817.49271,0.21055
2819.42118,0.21448
2821.34965,0.21788
2823.27812,0.21894
2825.20659,0.21716
2827.13505,0.21081
2829.06352,0.20659
2830.99199,0.21088
2832.92046,0.21740
2834.84893,0.21940
2836.77740,0.21987
2838.70587,0.22117
2840.63433,0.22092
2842.56280,0.21908
2844.49127,0.21877
2846.41974,0.22123
2848.34821,0.22281
2850.27668,0.22220
2852.20515,0.22370
2854.13362,0.22741
2856.06208,0.22672
2857.99055,0.21990
2859.91902,0.21599
2861.84749,0.21874
2863.77596,0.22007
2865.70443,0.21911
2867.63290,0.22045
2869.56136,0.21964
2871.48983,0.21562
2873.41830,0.21415
2875.34677,0.21291
2877.27524,0.20905
2879.20371,0.20861
2881.13218,0.21236
2883.06065,0.21478
2884.98911,0.21409
2886.91758,0.21183
2888.84605,0.21351
2890.77452,0.21885
2892.70299,0.21859
2894.63146,0.21228
2896.55993,0.20904
2898.48839,0.21035
2900.41686,0.21133
2902.34533,0.21031
2904.27380,0.20681
2906.20227,0.20637
2908.13074,0.21299
2910.05921,0.21767
2911.98768,0.21505
2913.91614,0.20668
2915.84461,0.19830
2917.77308,0.20073
2919.70155,0.21027
2921.63002,0.21623
2923.55849,0.21494
2925.48696,0.19795
2927.41542,0.17913
2929.34389,0.18802
2931.27236,0.21051
2933.20083,0.21759
2935.12930,0.20852
2937.05777,0.19659
2938.98624,0.19637
2940.91471,0.20494
2942.84317,0.20991
2944.77164,0.20656
2946.70011,0.19583
2948.62858,0.19208
2950.55705,0.20352
2952.48552,0.21545
2954.41399,0.21456
2956.34245,0.20149
2958.27092,0.19234
2960.19939,0.20174
2962.12786,0.21706
2964.05633,0.22063
2965.98480,0.21369
2967.91327,0.20615
2969.84174,0.20870
2971.77020,0.21839
2973.69867,0.22076
2975.62714,0.21279
2977.55561,0.20438
2979.48408,0.20833
2981.41255,0.22075
2983.34102,0.22445
2985.26948,0.21915
2987.19795,0.21274
2989.12642,0.21027
2991.05489,0.21616
2992.98336,0.22424
2994.91183,0.22710
2996.84030,0.22396
2998.76877,0.21765
3000.69723,0.21551
3002.62570,0.21949
3004.55417,0.22175
3006.48264,0.21840
3008.41111,0.21179
3010.33958,0.19587
3012.26805,0.16193
3014.19651,0.11653
3016.12498,0.08801
3018.05345,0.10820
3019.98192,0.16241
3021.91039,0.20353
3023.83886,0.21920
3025.76733,0.22024
3027.69579,0.21400
3029.62426,0.21205
3031.55273,0.21649
3033.48120,0.22052
3035.40967,0.22256
3037.33814,0.22195
3039.26661,0.22044
3041.19508,0.21932
3043.12354,0.21718
3045.05201,0.21415
3046.98048,0.21154
3048.90895,0.21378
3050.83742,0.21987
3052.76589,0.21825
3054.69436,0.20309
3056.62282,0.18782
3058.55129,0.19016
3060.47976,0.20478
3062.40823,0.21522
3064.33670,0.21499
3066.26517,0.20798
3068.19364,0.20746
3070.12211,0.21393
3072.05057,0.21539
3073.97904,0.21060
3075.90751,0.20344
3077.83598,0.20312
3079.76445,0.21569
3081.69292,0.22501
3083.62139,0.20936
3085.54985,0.18582
3087.47832,0.19343
3089.40679,0.21967
3091.33526,0.22550
3093.26373,0.21094
3095.19220,0.20274
3097.12067,0.21130
3099.04914,0.22002
3100.97760,0.21663
3102.90607,0.20458
3104.83454,0.19880
3106.76301,0.20750
3108.69148,0.21507
3110.61995,0.20886
3112.54842,0.20208
3114.47688,0.21142
3116.40535,0.22385
3118.33382,0.22063
3120.26229,0.20883
3122.19076,0.20343
3124.11923,0.20900
3126.04770,0.21814
3127.97617,0.22238
3129.90463,0.21826
3131.83310,0.21017
3133.76157,0.20644
3135.69004,0.20729
3137.61851,0.20786
3139.54698,0.20826
3141.47545,0.21287
3143.40391,0.21976
3145.33238,0.22083
3147.26085,0.21431
3149.18932,0.20986
3151.11779,0.21475
3153.04626,0.22297
3154.97473,0.22602
3156.90320,0.22342
3158.83166,0.22270
3160.76013,0.22808
3162.68860,0.23373
3164.61707,0.23389
3166.54554,0.22833
3168.47401,0.22196
3170.40248,0.22166
3172.33094,0.22476
3174.25941,0.22554
3176.18788,0.22719
3178.11635,0.23004
3180.04482,0.23050
3181.97329,0.22837
3183.90176,0.22424
3185.83022,0.22302
3187.75869,0.22767
3189.68716,0.23189
3191.61563,0.23243
3193.54410,0.23282
3195.47257,0.23187
3197.40104,0.22577
3199.32951,0.22199
3201.25797,0.22562
3203.18644,0.22871
3205.11491,0.22760
3207.04338,0.22614
3208.97185,0.22729
3210.90032,0.22889
3212.82879,0.22804
3214.75725,0.22478
3216.68572,0.22095
3218.61419,0.22110
3220.54266,0.22333
3222.47113,0.22508
3224.39960,0.22739
3226.32807,0.22707
3228.25654,0.22617
3230.18500,0.22533
3232.11347,0.22219
3234.04194,0.22167
3235.97041,0.22274
3237.89888,0.22042
3239.82735,0.21409
3241.75582,0.21049
3243.68428,0.21941
3245.61275,0.22863
3247.54122,0.22693
3249.46969,0.22678
3251.39816,0.22966
3253.32663,0.22762
3255.25510,0.22288
3257.18357,0.21937
3259.11203,0.21933
3261.04050,0.22375
3262.96897,0.22699
3264.89744,0.22554
3266.82591,0.22537
3268.75438,0.22824
3270.68285,0.22867
3272.61131,0.22728
3274.53978,0.22976
3276.46825,0.23338
3278.39672,0.23326
3280.32519,0.23097
3282.25366,0.22807
3284.18213,0.22381
3286.11060,0.21917
3288.03906,0.21824
3289.96753,0.21830
3291.89600,0.21552
3293.82447,0.21479
3295.75294,0.21840
3297.68141,0.22129
3299.60988,0.22012
3301.53834,0.22141
3303.46681,0.22757
3305.39528,0.23000
3307.32375,0.22675
3309.25222,0.22321
3311.18069,0.22010
3313.10916,0.21542
3315.03763,0.21132
3316.96609,0.21001
3318.89456,0.21042
3320.82303,0.21247
3322.75150,0.21780
3324.67997,0.22229
3326.60844,0.22020
3328.53691,0.21673
3330.46537,0.21955
3332.39384,0.22720
3334.32231,0.23358
3336.25078,0.23621
3338.17925,0.23418
3340.10772,0.22613
3342.03619,0.21995
3343.96466,0.22277
3345.89312,0.22529
3347.82159,0.22179
3349.75006,0.22286
3351.67853,0.22963
3353.60700,0.23066
3355.53547,0.22809
3357.46394,0.22767
3359.39240,0.22629
3361.32087,0.22693
3363.24934,0.23117
3365.17781,0.23134
3367.10628,0.22698
3369.03475,0.22470
3370.96322,0.22629
3372.89168,0.23046
3374.82015,0.23556
3376.74862,0.23738
3378.67709,0.23449
3380.60556,0.23227
3382.53403,0.23190
3384.46250,0.22635
3386.39097,0.21619
3388.31943,0.21292
3390.24790,0.21937
3392.17637,0.22718
3394.10484,0.22995
3396.03331,0.22914
3397.96178,0.23253
3399.89025,0.23680
3401.81871,0.23445
3403.74718,0.23400
3405.67565,0.23389
3407.60412,0.22705
3409.53259,0.22520
3411.46106,0.23099
3413.38953,0.23128
3415.31800,0.22344
3417.24646,0.21703
3419.17493,0.21619
3421.10340,0.21604
3423.03187,0.21509
3424.96034,0.21809
3426.88881,0.22340
3428.81728,0.22150
3430.74574,0.21309
3432.67421,0.20749
3434.60268,0.20659
3436.53115,0.20905
3438.45962,0.21459
3440.38809,0.21945
3442.31656,0.22105
3444.24503,0.22110
3446.17349,0.21865
3448.10196,0.21356
3450.03043,0.20981
3451.95890,0.20988
3453.88737,0.21374
3455.81584,0.21738
3457.74431,0.21470
3459.67277,0.20734
3461.60124,0.20385
3463.52971,0.20552
3465.45818,0.20614
3467.38665,0.20428
3469.31512,0.20460
3471.24359,0.20557
3473.17206,0.20272
3475.10052,0.20162
3477.02899,0.20469
3478.95746,0.20443
3480.88593,0.19761
3482.81440,0.19166
3484.74287,0.19377
3486.67134,0.19866
3488.59980,0.19940
3490.52827,0.19662
3492.45674,0.19691
3494.38521,0.20251
3496.31368,0.20406
3498.24215,0.19902
3500.17062,0.19382
3502.09909,0.19247
3504.02755,0.19636
3505.95602,0.19621
3507.88449,0.18967
3509.81296,0.18742
3511.74143,0.18942
3513.66990,0.18790
3515.59837,0.18407
3517.52683,0.18323
3519.45530,0.18611
3521.38377,0.19007
3523.31224,0.19323
3525.24071,0.19549
3527.16918,0.19463
3529.09765,0.18773
3531.02611,0.18099
3532.95458,0.17969
3534.88305,0.18085
3536.81152,0.18148
3538.73999,0.18049
3540.66846,0.17943
3542.59693,0.18220
3544.52540,0.18867
3546.45386,0.19115
3548.38233,0.18635
3550.31080,0.18078
3552.23927,0.17432
3554.16774,0.16599
3556.09621,0.16623
3558.02468,0.17389
3559.95314,0.17452
3561.88161,0.17115
3563.81008,0.17991
3565.73855,0.19737
3567.66702,0.19727
3569.59549,0.18180
3571.52396,0.17493
3573.45243,0.17415
3575.38089,0.17196
3577.30936,0.16837
3579.23783,0.16715
3581.16630,0.16918
3583.09477,0.16896
3585.02324,0.16687
3586.95171,0.17035
3588.88017,0.17387
3590.80864,0.17204
3592.73711,0.17250
3594.66558,0.17539
3596.59405,0.17561
3598.52252,0.17252
3600.45099,0.16699
3602.37946,0.16039
3604.30792,0.15845
3606.23639,0.16490
3608.16486,0.17245
3610.09333,0.17294
3612.02180,0.17336
3613.95027,0.17856
3615.87874,0.18523
3617.80720,0.19027
3619.73567,0.18762
3621.66414,0.17679
3623.59261,0.16779
3625.52108,0.16499
3627.44955,0.16586
3629.37802,0.16147
3631.30649,0.15531
3633.23495,0.15152
3635.16342,0.14665
3637.09189,0.14428
3639.02036,0.14464
3640.94883,0.14527
3642.87730,0.14626
3644.80577,0.14897
3646.73423,0.15465
3648.66270,0.15851
3650.59117,0.15371
3652.51964,0.14911
3654.44811,0.15044
3656.37658,0.15264
3658.30505,0.14946
3660.23352,0.14419
3662.16198,0.13780
3664.09045,0.13337
3666.01892,0.13798
3667.94739,0.15205
3669.87586,0.16353
3671.80433,0.16267
3673.73280,0.16676
3675.66126,0.17372
3677.58973,0.16247
3679.51820,0.14598
3681.44667,0.13688
3683.37514,0.13891
3685.30361,0.14955
3687.23208,0.16266
3689.16055,0.16664
3691.08901,0.15116
3693.01748,0.13698
3694.94595,0.13328
3696.87442,0.13300
3698.80289,0.13491
3700.73136,0.14261
3702.65983,0.14985
3704.58829,0.14739
3706.51676,0.14703
3708.44523,0.15782
3710.37370,0.16643
3712.30217,0.15388
3714.23064,0.13916
3716.15911,0.13452
3718.08757,0.12661
3720.01604,0.11624
3721.94451,0.12056
3723.87298,0.13641
3725.80145,0.14465
3727.72992,0.14174
3729.65839,0.13928
3731.58686,0.14114
3733.51532,0.14704
3735.44379,0.15360
3737.37226,0.15212
3739.30073,0.15009
3741.22920,0.15263
3743.15767,0.15894
3745.08614,0.16200
3747.01460,0.15558
3748.94307,0.14910
3750.87154,0.14773
3752.80001,0.14565
3754.72848,0.14152
3756.65695,0.14385
3758.58542,0.14928
3760.51389,0.14560
3762.44235,0.13811
3764.37082,0.13546
3766.29929,0.13875
3768.22776,0.14652
3770.15623,0.14952
3772.08470,0.14280
3774.01317,0.13637
3775.94163,0.13361
3777.87010,0.13204
3779.79857,0.13141
3781.72704,0.13244
3783.65551,0.13422
3785.58398,0.13253
3787.51245,0.12677
3789.44092,0.12474
3791.36938,0.12625
3793.29785,0.12780
3795.22632,0.13260
3797.15479,0.13633
3799.08326,0.13724
3801.01173,0.14344
3802.94020,0.14748
3804.86866,0.14377
3806.79713,0.13551
3808.72560,0.12542
3810.65407,0.12236
3812.58254,0.12706
3814.51101,0.13219
3816.43948,0.12983
3818.36795,0.13069
3820.29641,0.14173
3822.22488,0.14118
3824.15335,0.13275
3826.08182,0.13320
3828.01029,0.13264
3829.93876,0.12752
3831.86723,0.12911
3833.79569,0.14066
3835.72416,0.15133
3837.65263,0.15011
3839.58110,0.14303
3841.50957,0.14246
3843.43804,0.14048
3845.36651,0.13372
3847.29498,0.13033
3849.22344,0.13363
3851.15191,0.14834
3853.08038,0.17300
3855.00885,0.16374
3856.93732,0.13840
3858.86579,0.12685
3860.79426,0.12799
3862.72272,0.13514
3864.65119,0.13910
3866.57966,0.13741
3868.50813,0.13280
3870.43660,0.12266
3872.36507,0.11683
3874.29354,0.11941
3876.22200,0.11778
3878.15047,0.11779
3880.07894,0.12523
3882.00741,0.12718
3883.93588,0.12506
3885.86435,0.12285
3887.79282,0.11526
3889.72129,0.10933
3891.64975,0.10987
3893.57822,0.11168
3895.50669,0.11550
3897.43516,0.12679
3899.36363,0.13931
3901.29210,0.14268
3903.22057,0.14109
3905.14903,0.13953
3907.07750,0.13558
3909.00597,0.12745
3910.93444,0.11993
3912.86291,0.11874
3914.79138,0.11869
3916.71985,0.11526
3918.64832,0.11363
3920.57678,0.11469
3922.50525,0.11744
3924.43372,0.12133
3926.36219,0.12000
3928.29066,0.11567
3930.21913,0.11606
3932.14760,0.11725
3934.07606,0.11270
3936.00453,0.10938
3937.93300,0.11348
3939.86147,0.12035
3941.78994,0.12281
3943.71841,0.11764
3945.64688,0.10948
3947.57535,0.10646
3949.50381,0.10945
3951.43228,0.11046
3953.36075,0.10666
3955.28922,0.10396
3957.21769,0.10323
3959.14616,0.10275
3961.07463,0.10408
3963.00309,0.10616
3964.93156,0.10840
3966.86003,0.11049
3968.78850,0.11294
3970.71697,0.11428
3972.64544,0.10682
3974.57391,0.09583
3976.50238,0.09552
3978.43084,0.10219
3980.35931,0.10479
3982.28778,0.10350
3984.21625,0.10201
3986.14472,0.10036
3988.07319,0.10045
3990.00166,0.10043
3991.93012,0.09583
3993.85859,0.09293
3995.78706,0.09661
3997.71553,0.10145
3999.64400,0.10239
4001.57247,0.10039
4003.50094,0.10289
4005.42941,0.11015
4007.35787,0.11247
4009.28634,0.10841
4011.21481,0.10355
4013.14328,0.10106
4015.07175,0.10418
4017.00022,0.10937
4018.92869,0.10662
4020.85715,0.09593
4022.78562,0.08715
4024.71409,0.08820
4026.64256,0.09603
4028.57103,0.09900
4030.49950,0.09440
4032.42797,0.09092
4034.35644,0.09510
4036.28490,0.09958
4038.21337,0.09675
4040.14184,0.09301
4042.07031,0.09183
4043.99878,0.09170
4045.92725,0.09356
4047.85572,0.09426
4049.78418,0.09210
4051.71265,0.08975
4053.64112,0.08773
4055.56959,0.08742
4057.49806,0.09137
4059.42653,0.09463
4061.35500,0.09094
4063.28346,0.08611
4065.21193,0.08445
4067.14040,0.08185
4069.06887,0.08030
4070.99734,0.08405
4072.92581,0.08753
4074.85428,0.08442
4076.78275,0.08215
4078.71121,0.08588
4080.63968,0.08889
4082.56815,0.08979
4084.49662,0.08938
4086.42509,0.08901
4088.35356,0.09388
4090.28203,0.09756
4092.21049,0.09388
4094.13896,0.09140
4096.06743,0.09048
4097.99590,0.08337
4099.92437,0.07622
4101.85284,0.07693
4103.78131,0.08080
4105.70978,0.08501
4107.63824,0.09079
4109.56671,0.09142
4111.49518,0.08417
4113.42365,0.07934
4115.35212,0.08084
4117.28059,0.08319
4119.20906,0.08734
4121.13752,0.08895
4123.06599,0.08149
4124.99446,0.07747
4126.92293,0.08308
4128.85140,0.08619
4130.77987,0.08690
4132.70834,0.09136
4134.63681,0.09064
4136.56527,0.08207
4138.49374,0.07547
4140.42221,0.07220
4142.35068,0.07093
4144.27915,0.07493
4146.20762,0.08219
4148.13609,0.08367
4150.06455,0.07971
4151.99302,0.08090
4153.92149,0.08424
4155.84996,0.07975
4157.77843,0.07350
4159.70690,0.07145
4161.63537,0.06777
4163.56384,0.06461
4165.49230,0.06683
4167.42077,0.07221
4169.34924,0.07858
4171.27771,0.08174
4173.20618,0.08117
4175.13465,0.07888
4177.06312,0.07369
4178.99158,0.06928
4180.92005,0.06721
4182.84852,0.06212
4184.77699,0.05704
4186.70546,0.05868
4188.63393,0.06265
4190.56240,0.06445
4192.49087,0.06795
4194.41933,0.07363
4196.34780,0.07446
4198.27627,0.06519
4200.20474,0.05454
4202.13321,0.05576
4204.06168,0.06142
4205.99015,0.06168
4207.91861,0.06403
4209.84708,0.06689
4211.77555,0.06282
4213.70402,0.05995
4215.63249,0.06354
4217.56096,0.06731
4219.48943,0.06789
4221.41789,0.06306
4223.34636,0.05312
4225.27483,0.04700
4227.20330,0.04829
4229.13177,0.05157
4231.06024,0.05604
4232.98871,0.06168
4234.91718,0.06418
4236.84564,0.06230
4238.77411,0.05450
4240.70258,0.04382
4242.63105,0.04091
4244.55952,0.04616
4246.48799,0.05508
4248.41646,0.06696
4250.34492,0.07385
4252.27339,0.06828
4254.20186,0.05773
4256.13033,0.04970
4258.05880,0.04068
4259.98727,0.03480
4261.91574,0.03934
4263.84421,0.04632
4265.77267,0.05095
4267.70114,0.05922
4269.62961,0.06687
4271.55808,0.06611
4273.48655,0.05850
4275.41502,0.05005
4277.34349,0.04576
4279.27195,0.04419
4281.20042,0.04806
4283.12889,0.05584
4285.05736,0.05463
4286.98583,0.04605
4288.91430,0.03774
4290.84277,0.03096
4292.77124,0.02971
4294.69970,0.03532
4296.62817,0.04285
4298.55664,0.04551
4300.48511,0.04250
4302.41358,0.03787
4304.34205,0.03567
4306.27052,0.03849
4308.19898,0.04452
4310.12745,0.04854
4312.05592,0.04662
4313.98439,0.04476
4315.91286,0.04680
4317.84133,0.04640
4319.76980,0.04975
4321.69827,0.06238
4323.62673,0.06705
4325.55520,0.05673
4327.48367,0.04940
4329.41214,0.04980
4331.34061,0.04281
4333.26908,0.02876
4335.19755,0.02506
4337.12601,0.03509
4339.05448,0.04342
4340.98295,0.03940
4342.91142,0.02983
4344.83989,0.02727
4346.76836,0.02842
4348.69683,0.02956
4350.62530,0.04099
4352.55376,0.05755
4354.48223,0.06003
4356.41070,0.04477
4358.33917,0.03055
4360.26764,0.02999
4362.19611,0.03353
4364.12458,0.03472
4366.05304,0.03535
4367.98151,0.03508
4369.90998,0.03181
4371.83845,0.02324
4373.76692,0.01441
4375.69539,0.01368
4377.62386,0.01803
4379.55232,0.01893
4381.48079,0.01618
4383.40926,0.01624
4385.33773,0.02571
4387.26620,0.03685
4389.19467,0.03589
4391.12314,0.02725
4393.05161,0.01921
4394.98007,0.01436
4396.90854,0.01532
4398.83701,0.01758
4400.76548,0.01900
4402.69395,0.02495
4404.62242,0.03071
4406.55089,0.02686
4408.47935,0.01776
4410.40782,0.01402
4412.33629,0.01541
4414.26476,0.01414
4416.19323,0.01127
4418.12170,0.01094
4420.05017,0.01123
4421.97864,0.01129
4423.90710,0.01143
4425.83557,0.01164
4427.76404,0.01095
4429.69251,0.01026
4431.62098,0.01326
4433.54945,0.01737
4435.47792,0.01966
4437.40638,0.01992
4439.33485,0.01279
4441.26332,0.00232
4443.19179,0.00019
4445.12026,0.00168
4447.04873,0.00029
4448.97720,0.00123
4450.90567,0.00242
4452.83413,0.00037
4454.76260,0.00129
4456.69107,0.00363
4458.61954,0.00396
4460.54801,0.00882
4462.47648,0.01433
4464.40495,0.01588
4466.33341,0.02149
4468.26188,0.02597
4470.19035,0.02428
4472.11882,0.02603
4474.04729,0.02886
4475.97576,0.02780
4477.90423,0.02642
4479.83270,0.02080
4481.76116,0.01220
4483.68963,0.00831
4485.61810,0.00425
4487.54657,0.00053
4489.47504,0.00568
4491.40351,0.01038
4493.33198,0.00382
4495.26044,-0.00584
4497.18891,-0.00759
4499.11738,0.00018
4501.04585,0.00885
4502.97432,0.01284
4504.90279,0.01360
4506.83126,0.00590
4508.75973,-0.00741
4510.68819,-0.00795
4512.61666,0.00410
4514.54513,0.00792
4516.47360,0.00002
4518.40207,-0.00456
4520.33054,-0.00265
4522.25901,-0.00104
4524.18747,-0.00191
4526.11594,-0.00101
4528.04441,0.00756
4529.97288,0.01931
4531.90135,0.02592
4533.82982,0.01919
4535.75829,0.00018
4537.68676,-0.00979
4539.61522,-0.00490
4541.54369,-0.00188
4543.47216,-0.00321
4545.40063,-0.00041
4547.32910,0.00187
4549.25757,-0.00151
4551.18604,-0.00142
4553.11450,0.00644
4555.04297,0.01484
4556.97144,0.01777
4558.89991,0.01552
4560.82838,0.01405
4562.75685,0.01525
4564.68532,0.01144
4566.61378,0.00445
4568.54225,0.00487
4570.47072,0.00932
4572.39919,0.01036
4574.32766,0.00813
4576.25613,0.01059
4578.18460,0.02368
4580.11307,0.03304
4582.04153,0.02629
4583.97000,0.01275
4585.89847,0.00302
4587.82694,0.00245
4589.75541,0.00769
4591.68388,0.00798
4593.61235,0.00432
4595.54081,0.00340
4597.46928,0.00248
4599.39775,-0.00056
4601.32622,-0.00553
4603.25469,-0.00854
4605.18316,-0.00279
4607.11163,0.00260
4609.04010,-0.00609
4610.96856,-0.02156
4612.89703,-0.02435
4614.82550,-0.01164
4616.75397,-0.00345
4618.68244,-0.00672
4620.61091,-0.00739
4622.53938,-0.00117
4624.46784,0.01250
4626.39631,0.02492
4628.32478,0.01748
4630.25325,0.00263
4632.18172,-0.00020
4634.11019,0.00005
4636.03866,-0.00160
4637.96713,0.00198
4639.89559,0.00788
4641.82406,0.00991
4643.75253,0.00946
4645.68100,0.00998
4647.60947,0.01161
4649.53794,0.01257
4651.46641,0.01256
4653.39487,0.01500
4655.32334,0.01998
4657.25181,0.01391
4659.18028,-0.00326
4661.10875,-0.00292
4663.03722,0.01189
4664.96569,0.01092
4666.89416,0.00125
4668.82262,0.00505
4670.75109,0.00886
4672.67956,0.00251
4674.60803,0.00802
4676.53650,0.02386
4678.46497,0.02561
4680.39344,0.01797
4682.32190,0.01883
4684.25037,0.01796
4686.17884,-0.00019
4688.10731,-0.01721
4690.03578,-0.01492
4691.96425,-0.01399
4693.89272,-0.02067
4695.82119,-0.01564
4697.74965,0.00205
4699.67812,0.01041
4701.60659,-0.00036
4703.53506,-0.01632
4705.46353,-0.01518
4707.39200,0.00095
4709.32047,0.00736
4711.24893,0.00634
4713.17740,0.01564
4715.10587,0.01793
4717.03434,0.00610
4718.96281,0.00365
4720.89128,0.01680
4722.81975,0.03426
4724.74821,0.04341
4726.67668,0.03612
4728.60515,0.02087
4730.53362,0.01447
4732.46209,0.01742
4734.39056,0.02323
4736.31903,0.02405
4738.24750,0.00969
4740.17596,-0.00964
4742.10443,-0.01853
4744.03290,-0.01362
4745.96137,0.00043
4747.88984,0.01018
4749.81831,0.00177
4751.74678,-0.01937
4753.67524,-0.02907
4755.60371,-0.01848
4757.53218,-0.00155
4759.46065,0.01073
4761.38912,0.01803
4763.31759,0.01634
4765.24606,0.00252
4767.17453,-0.01421
4769.10299,-0.01849
4771.03146,-0.00901
4772.95993,0.00062
4774.88840,0.00646
4776.81687,0.00798
4778.74534,-0.00171
4780.67381,-0.01537
4782.60227,-0.01932
4784.53074,-0.01361
4786.45921,-0.00442
4788.38768,-0.00103
4790.31615,-0.00077
4792.24462,0.00793
4794.17309,0.01913
4796.10156,0.02313
4798.03002,0.01925
4799.95849,0.01097
4801.88696,0.00687
4803.81543,0.00632
4805.74390,-0.00477
4807.67237,-0.02202
4809.60084,-0.02661
4811.52930,-0.02108
4813.45777,-0.00959
4815.38624,0.00811
4817.31471,0.01899
4819.24318,0.01793
4821.17165,0.01807
4823.10012,0.03236
4825.02859,0.04695
4826.95705,0.04279
4828.88552,0.03331
4830.81399,0.02735
4832.74246,0.01655
4834.67093,0.00523
4836.59940,-0.00690
4838.52787,-0.01467
4840.45633,0.00043
4842.38480,0.01984
4844.31327,0.01980
4846.24174,0.01423
4848.17021,0.01519
4850.09868,0.02074
4852.02715,0.01837
4853.95562,-0.00067
4855.88408,-0.01421
4857.81255,-0.00236
4859.74102,0.02323
4861.66949,0.03753
4863.59796,0.03040
4865.52643,0.01488
4867.45490,0.00767
4869.38336,0.00960
4871.31183,0.00870
4873.24030,0.00138
4875.16877,-0.00439
4877.09724,-0.00642
4879.02571,-0.00592
4880.95418,-0.00615
4882.88265,-0.00520
4884.81111,0.00761
4886.73958,0.02098
4888.66805,0.01417
4890.59652,-0.00613
4892.52499,-0.01589
4894.45346,-0.00766
4896.38193,0.00442
4898.31039,0.01003
4900.23886,0.01147
4902.16733,0.01668
4904.09580,0.02498
4906.02427,0.02695
4907.95274,0.02177
4909.88121,0.01935
4911.80967,0.02408
4913.73814,0.02933
4915.66661,0.02817
4917.59508,0.02381
4919.52355,0.01408
4921.45202,-0.00053
4923.38049,-0.00685
4925.30896,-0.00325
4927.23742,-0.00051
4929.16589,0.00047
4931.09436,0.00228
4933.02283,0.00400
4934.95130,0.00915
4936.87977,0.01442
4938.80824,0.01774
4940.73670,0.02112
4942.66517,0.01360
4944.59364,-0.00230
4946.52211,-0.01223
4948.45058,-0.01356
4950.37905,-0.00015
4952.30752,0.01554
4954.23599,0.01062
4956.16445,0.00152
4958.09292,0.00010
4960.02139,-0.00524
4961.94986,-0.01115
4963.87833,-0.01236
4965.80680,-0.00022
4967.73527,0.01957
4969.66373,0.01941
4971.59220,0.00393
4973.52067,-0.00249
4975.44914,0.01130
4977.37761,0.03589
4979.30608,0.03771
4981.23455,0.00994
4983.16302,-0.00973
4985.09148,-0.00690
4987.01995,0.00123
4988.94842,0.00558
4990.87689,0.00336
4992.80536,0.00190
4994.73383,0.01158
4996.66230,0.01430
4998.59076,-0.00767
5000.51923,-0.02420
5002.44770,-0.00665
5004.37617,0.01654
5006.30464,0.02136
5008.23311,0.02673
5010.16158,0.04137
5012.09005,0.05045
5014.01851,0.04902
5015.94698,0.04094
5017.87545,0.02591
5019.80392,0.00196
5021.73239,-0.02330
5023.66086,-0.02556
5025.58933,-0.00120
5027.51779,0.01737
5029.44626,0.01510
5031.37473,0.00662
5033.30320,-0.00352
5035.23167,-0.00878
5037.16014,0.00847
5039.08861,0.03087
5041.01708,0.02897
5042.94554,0.01463
5044.87401,0.00361
5046.80248,-0.00341
5048.73095,0.00043
5050.65942,0.01227
5052.58789,0.01384
5054.51636,0.00441
5056.44482,0.00089
5058.37329,0.00791
5060.30176,0.01599
5062.23023,0.01701
5064.15870,0.01162
5066.08717,0.00703
5068.01564,0.00919
5069.94410,0.00885
5071.87257,0.00084
5073.80104,-0.00305
5075.72951,-0.00034
5077.65798,0.00451
5079.58645,0.01172
5081.51492,0.01662
5083.44339,0.01194
5085.37185,0.00537
5087.30032,0.00672
5089.22879,0.00752
5091.15726,0.00348
5093.08573,0.00427
5095.01420,0.01607
5096.94267,0.03056
5098.87113,0.03581
5100.79960,0.02937
5102.72807,0.01947
5104.65654,0.01541
5106.58501,0.01381
5108.51348,0.01475
5110.44195,0.01798
5112.37042,0.01417
5114.29888,0.00946
5116.22735,0.01762
5118.15582,0.03115
5120.08429,0.02942
5122.01276,0.02007
5123.94123,0.02375
5125.86970,0.02527
5127.79816,0.00985
5129.72663,0.00371
5131.65510,0.02622
5133.58357,0.05292
5135.51204,0.05005
5137.44051,0.02551
5139.36898,0.01410
5141.29745,0.01676
5143.22591,0.00924
5145.15438,0.00335
5147.08285,0.01998
5149.01132,0.02631
5150.93979,0.00921
5152.86826,0.00489
5154.79673,0.00822
5156.72519,0.00456
5158.65366,0.00730
5160.58213,0.01746
5162.51060,0.03034
5164.43907,0.03650
5166.36754,0.03761
5168.29601,0.04140
5170.22448,0.03835
5172.15294,0.02471
5174.08141,0.00564
5176.00988,-0.00940
5177.93835,-0.00647
5179.86682,0.01172
5181.79529,0.02935
5183.72376,0.03370
5185.65222,0.02807
5187.58069,0.03304
5189.50916,0.03524
5191.43763,0.01292
5193.36610,-0.00256
5195.29457,0.01480
5197.22304,0.03086
5199.15151,0.02311
5201.07997,0.03282
5203.00844,0.06383
5204.93691,0.06743
5206.86538,0.04880
5208.79385,0.04350
5210.72232,0.04143
5212.65079,0.04161
5214.57925,0.05083
5216.50772,0.04904
5218.43619,0.02361
5220.36466,0.00191
5222.29313,0.01121
5224.22160,0.03786
5226.15007,0.05032
5228.07854,0.04362
5230.00700,0.04123
5231.93547,0.05062
5233.86394,0.06229
5235.79241,0.06835
5237.72088,0.06356
5239.64935,0.05451
5241.57782,0.03841
5243.50628,0.00595
5245.43475,-0.00938
5247.36322,0.01398
5249.29169,0.03133
5251.22016,0.01761
5253.14863,0.00530
5255.07710,0.00751
5257.00556,0.01585
5258.93403,0.02719
5260.86250,0.03201
5262.79097,0.02713
5264.71944,0.02324
5266.64791,0.03222
5268.57638,0.04117
5270.50485,0.03785
5272.43331,0.04097
5274.36178,0.04992
5276.29025,0.04474
5278.21872,0.03595
5280.14719,0.04160
5282.07566,0.04344
5284.00413,0.03404
5285.93259,0.03872
5287.86106,0.04973
5289.78953,0.04117
5291.71800,0.03168
5293.64647,0.04508
5295.57494,0.06289
5297.50341,0.07271
5299.43188,0.07561
5301.36034,0.07471
5303.28881,0.08454
5305.21728,0.09209
5307.14575,0.05821
5309.07422,0.00744
5311.00269,0.00209
5312.93116,0.02507
5314.85962,0.03867
5316.78809,0.04597
5318.71656,0.05930
5320.64503,0.07229
5322.57350,0.06525
5324.50197,0.04604
5326.43044,0.03293
5328.35891,0.02665
5330.28737,0.02866
5332.21584,0.03388
5334.14431,0.03304
5336.07278,0.02032
5338.00125,0.01045
5339.92972,0.02300
5341.85819,0.03256
5343.78665,0.02168
5345.71512,0.01379
5347.64359,0.02772
5349.57206,0.05387
5351.50053,0.06792
5353.42900,0.04803
5355.35747,0.02322
5357.28594,0.02729
5359.21440,0.03241
5361.14287,0.02585
5363.07134,0.03835
5364.99981,0.05924
5366.92828,0.04286
5368.85675,0.00957
5370.78522,0.00996
5372.71368,0.02869
5374.64215,0.02324
5376.57062,0.00492
5378.49909,0.00621
5380.42756,0.02180
5382.35603,0.03341
5384.28450,0.04120
5386.21297,0.05000
5388.14143,0.03970
5390.06990,0.01404
5391.99837,0.00405
5393.92684,0.01539
5395.85531,0.03159
5397.78378,0.03851
5399.71225,0.01982
5401.64071,-0.00864
5403.56918,-0.01704
5405.49765,-0.00875
5407.42612,0.00539
5409.35459,0.02641
5411.28306,0.05115
5413.21153,0.07056
5415.13999,0.08651
5417.06846,0.10019
5418.99693,0.09260
5420.92540,0.04496
5422.85387,-0.01408
5424.78234,-0.03535
5426.71081,-0.02164
5428.63928,0.00756
5430.56774,0.05012
5432.49621,0.09345
5434.42468,0.10899
5436.35315,0.08554
5438.28162,0.05893
5440.21009,0.03913
5442.13856,0.01733
5444.06702,0.01737
5445.99549,0.03070
5447.92396,0.02809
5449.85243,0.04104
5451.78090,0.06828
5453.70937,0.06843
5455.63784,0.04501
5457.56631,0.02439
5459.49477,0.01765
5461.42324,0.01861
5463.35171,0.02516
5465.28018,0.02927
5467.20865,0.03194
5469.13712,0.05039
5471.06559,0.06725
5472.99405,0.06331
5474.92252,0.04958
5476.85099,0.03339
5478.77946,0.03308
5480.70793,0.06250
5482.63640,0.09541
5484.56487,0.11173
5486.49334,0.11377
5488.42180,0.09260
5490.35027,0.05742
5492.27874,0.05081
5494.20721,0.07330
5496.13568,0.07835
5498.06415,0.07232
5499.99262,0.08057
5501.92108,0.08768
5503.84955,0.07631
5505.77802,0.05882
5507.70649,0.05094
5509.63496,0.04871
5511.56343,0.04526
5513.49190,0.04361
5515.42037,0.04897
5517.34883,0.05647
5519.27730,0.05634
5521.20577,0.05726
5523.13424,0.06963
5525.06271,0.07497
5526.99118,0.06436
5528.91965,0.06397
5530.84811,0.07598
5532.77658,0.07361
5534.70505,0.06513
5536.63352,0.08191
5538.56199,0.11897
5540.49046,0.13888
5542.41893,0.11654
5544.34740,0.06956
5546.27586,0.04688
5548.20433,0.06692
5550.13280,0.09782
5552.06127,0.11545
5553.98974,0.12015
5555.91821,0.11085
5557.84668,0.09712
5559.77514,0.09177
5561.70361,0.08627
5563.63208,0.07107
5565.56055,0.05242
5567.48902,0.05363
5569.41749,0.07943
5571.34596,0.10232
5573.27443,0.09390
5575.20289,0.06016
5577.13136,0.04321
5579.05983,0.05009
5580.98830,0.05154
5582.91677,0.04400
5584.84524,0.03694
5586.77371,0.01909
5588.70217,0.00173
5590.63064,0.00422
5592.55911,0.01530
5594.48758,0.02366
5596.41605,0.02484
5598.34452,0.02072
5600.27299,0.02340
5602.20145,0.04471
5604.12992,0.07522
5606.05839,0.08474
5607.98686,0.06834
5609.91533,0.05181
5611.84380,0.02997
5613.77227,-0.00770
5615.70074,-0.00820
5617.62920,0.05224
5619.55767,0.11328
5621.48614,0.11047
5623.41461,0.07066
5625.34308,0.07594
5627.27155,0.11355
5629.20002,0.12372
5631.12848,0.11406
5633.05695,0.09692
5634.98542,0.08221
5636.91389,0.08848
5638.84236,0.09783
5640.77083,0.07667
5642.69930,0.03512
5644.62777,0.02309
5646.55623,0.05060
5648.48470,0.06524
5650.41317,0.07049
5652.34164,0.08614
5654.27011,0.06579
5656.19858,0.02629
5658.12705,0.02465
5660.05551,0.05032
5661.98398,0.07184
5663.91245,0.06975
5665.84092,0.04813
5667.76939,0.03517
5669.69786,0.03830
5671.62633,0.03888
5673.55480,0.03374
5675.48326,0.04462
5677.41173,0.06991
5679.34020,0.07322
5681.26867,0.04421
5683.19714,0.02909
5685.12561,0.05001
5687.05408,0.06079
5688.98254,0.05390
5690.91101,0.05497
5692.83948,0.04573
5694.76795,0.02946
5696.69642,0.04623
5698.62489,0.09340
5700.55336,0.11985
5702.48183,0.10926
5704.41029,0.07674
5706.33876,0.03821
5708.26723,0.00931
5710.19570,-0.00953
5712.12417,-0.00488
5714.05264,0.02806
5715.98111,0.05428
5717.90957,0.06230
5719.83804,0.07709
5721.76651,0.09253
5723.69498,0.07442
5725.62345,0.03757
5727.55192,0.02541
5729.48039,0.03256
5731.40886,0.03072
5733.33732,0.03961
5735.26579,0.07417
5737.19426,0.09141
5739.12273,0.05700
5741.05120,0.01672
5742.97967,0.03220
5744.90814,0.07833
5746.83660,0.11570
5748.76507,0.13846
5750.69354,0.13416
5752.62201,0.10964
5754.55048,0.08699
5756.47895,0.07440
5758.40742,0.06912
5760.33588,0.05279
5762.26435,0.02961
5764.19282,0.03936
5766.12129,0.07023
5768.04976,0.07516
5769.97823,0.04727
5771.90670,-0.00474
5773.83517,-0.06114
5775.76363,-0.08634
5777.69210,-0.06279
5779.62057,-0.00995
5781.54904,0.05856
5783.47751,0.11963
5785.40598,0.12730
5787.33445,0.09065
5789.26291,0.05569
5791.19138,0.03568
5793.11985,0.01492
5795.04832,-0.00899
5796.97679,-0.00650
5798.90526,0.03852
5800.83373,0.07740
5802.76220,0.06305
5804.69066,0.03502
5806.61913,0.02862
5808.54760,0.02573
5810.47607,0.03013
5812.40454,0.04920
5814.33301,0.06434
5816.26148,0.07255
5818.18994,0.09211
5820.11841,0.10864
5822.04688,0.09763
5823.97535,0.08469
5825.90382,0.09390
5827.83229,0.10629
5829.76076,0.09180
5831.68923,0.05001
5833.61769,0.01938
5835.54616,0.02365
5837.47463,0.03558
5839.40310,0.03310
5841.33157,0.02376
5843.26004,0.03273
5845.18851,0.07221
5847.11697,0.10169
5849.04544,0.08008
5850.97391,0.04807
5852.90238,0.05045
5854.83085,0.05679
5856.75932,0.06014
5858.68779,0.07496
5860.61626,0.07882
5862.54472,0.09604
5864.47319,0.15609
5866.40166,0.19000
5868.33013,0.16083
5870.25860,0.12130
5872.18707,0.08034
5874.11554,0.03182
5876.04400,0.02742
5877.97247,0.06547
5879.90094,0.10592
5881.82941,0.13522
5883.75788,0.11142
5885.68635,0.05530
5887.61482,0.02768
5889.54329,0.02284
5891.47175,0.02854
5893.40022,0.04605
5895.32869,0.06392
5897.25716,0.07475
5899.18563,0.09308
5901.11410,0.12028
5903.04257,0.12349
5904.97103,0.08708
5906.89950,0.03441
5908.82797,0.02191
5910.75644,0.07621
5912.68491,0.13285
5914.61338,0.12336
5916.54185,0.08143
5918.47032,0.07474
5920.39878,0.08057
5922.32725,0.07846
5924.25572,0.08392
5926.18419,0.04837
5928.11266,-0.01955
5930.04113,-0.02221
5931.96960,0.04710
5933.89806,0.12644
5935.82653,0.16379
5937.75500,0.12587
5939.68347,0.05665
5941.61194,0.05031
5943.54041,0.09163
5945.46888,0.07885
5947.39734,0.05593
5949.32581,0.10848
5951.25428,0.15046
5953.18275,0.11168
5955.11122,0.04761
5957.03969,0.00454
5958.96816,-0.00138
5960.89663,0.02743
5962.82509,0.06864
5964.75356,0.09042
5966.68203,0.08281
5968.61050,0.06639
5970.53897,0.04017
5972.46744,-0.00940
5974.39591,-0.02156
5976.32437,0.04232
5978.25284,0.09880
5980.18131,0.11464
5982.10978,0.12203
5984.03825,0.12141
5985.96672,0.11648
5987.89519,0.11212
5989.82366,0.09811
5991.75212,0.07174
5993.68059,0.06158
5995.60906,0.07821
5997.53753,0.08259
5999.46600,0.06528
6001.39447,0.04135
6003.32294,0.04022
6005.25140,0.05877
6007.17987,0.05033
6009.10834,0.04701
6011.03681,0.06257
6012.96528,0.05275
6014.89375,0.03910
6016.82222,0.04521
6018.75069,0.07177
6020.67915,0.12737
6022.60762,0.14834
6024.53609,0.07816
6026.46456,-0.00266
6028.39303,0.01100
6030.32150,0.08303
6032.24997,0.10132
6034.17843,0.09251
6036.10690,0.13422
6038.03537,0.16997
6039.96384,0.15213
6041.89231,0.10831
6043.82078,0.08062
6045.74925,0.10433
6047.67772,0.14005
6049.60618,0.14577
6051.53465,0.15134
6053.46312,0.17200
6055.39159,0.18560
6057.32006,0.15780
6059.24853,0.08929
6061.17700,0.04845
6063.10546,0.05793
6065.03393,0.07344
6066.96240,0.06051
6068.89087,0.04521
6070.81934,0.09595
6072.74781,0.15272
6074.67628,0.12998
6076.60475,0.06682
6078.53321,0.01419
6080.46168,0.00278
6082.39015,0.02822
6084.31862,0.06369
6086.24709,0.08881
6088.17556,0.06831
6090.10403,0.01323
6092.03249,-0.00983
6093.96096,0.00854
6095.88943,0.01545
6097.81790,0.00940
6099.74637,0.01299
6101.67484,0.02092
6103.60331,0.03461
6105.53177,0.06964
6107.46024,0.09835
6109.38871,0.09667
6111.31718,0.08491
6113.24565,0.05238
6115.17412,0.01075
6117.10259,-0.01417
6119.03106,-0.01361
6120.95952,0.00283
6122.88799,0.01290
6124.81646,0.04965
6126.74493,0.11916
6128.67340,0.14124
6130.60187,0.11747
6132.53034,0.11212
6134.45880,0.09195
6136.38727,0.06882
6138.31574,0.09794
6140.24421,0.12222
6142.17268,0.08582
6144.10115,0.03948
6146.02962,0.04254
6147.95809,0.08770
6149.88655,0.11289
6151.81502,0.08416
6153.74349,0.06127
6155.67196,0.05441
6157.60043,0.02357
6159.52890,-0.00445
6161.45737,-0.02559
6163.38583,-0.04793
6165.31430,-0.04867
6167.24277,-0.02948
6169.17124,-0.01648
6171.09971,-0.02150
6173.02818,-0.00898
6174.95665,0.00807
6176.88512,0.01519
6178.81358,0.08658
6180.74205,0.18793
6182.67052,0.19922
6184.59899,0.11458
6186.52746,0.00236
6188.45593,-0.04226
6190.38440,0.01860
6192.31286,0.09107
6194.24133,0.08527
6196.16980,0.05951
6198.09827,0.09180
6200.02674,0.11663
6201.95521,0.09765
6203.88368,0.04680
6205.81215,-0.00070
6207.74061,0.02019
6209.66908,0.07372
6211.59755,0.08830
6213.52602,0.07584
6215.45449,0.06234
6217.38296,0.04552
6219.31143,0.04158
6221.23989,0.04834
6223.16836,0.01696
6225.09683,-0.01780
6227.02530,0.00743
6228.95377,0.04134
6230.88224,0.02886
6232.81071,-0.00565
6234.73918,-0.00976
6236.66764,0.00286
6238.59611,0.02785
6240.52458,0.07980
6242.45305,0.10624
6244.38152,0.09024
6246.30999,0.10292
6248.23846,0.15654
6250.16692,0.14840
6252.09539,0.08270
6254.02386,0.09156
6255.95233,0.14805
6257.88080,0.16214
6259.80927,0.13043
6261.73774,0.08688
6263.66621,0.04125
6265.59467,-0.02046
6267.52314,-0.03439
6269.45161,0.04556
6271.38008,0.13145
6273.30855,0.15199
6275.23702,0.13005
6277.16549,0.08904
6279.09395,0.01357
6281.02242,-0.04069
6282.95089,-0.02016
6284.87936,0.00729
6286.80783,-0.00555
6288.73630,-0.01173
6290.66477,-0.01012
6292.59323,-0.01826
6294.52170,0.01214
6296.45017,0.08204
6298.37864,0.10893
6300.30711,0.08495
6302.23558,0.09621
6304.16405,0.16270
6306.09252,0.21467
6308.02098,0.18168
6309.94945,0.08981
6311.87792,0.04910
6313.80639,0.08049
6315.73486,0.11600
6317.66333,0.09765
6319.59180,0.01351
6321.52026,-0.07457
6323.44873,-0.06491
6325.37720,0.03073
6327.30567,0.09474
6329.23414,0.10079
6331.16261,0.11392
6333.09108,0.12965
6335.01955,0.13442
6336.94801,0.11972
6338.87648,0.04492
6340.80495,-0.01480
6342.73342,0.00928
6344.66189,0.01738
6346.59036,-0.03558
6348.51883,-0.05643
6350.44729,-0.00169
6352.37576,0.06871
6354.30423,0.10257
6356.23270,0.09782
6358.16117,0.03220
6360.08964,-0.05425
6362.01811,-0.03472
6363.94658,0.09342
6365.87504,0.18219
6367.80351,0.19504
6369.73198,0.17071
6371.66045,0.08714
6373.58892,0.00387
6375.51739,-0.01632
6377.44586,0.00428
6379.37432,0.06004
6381.30279,0.15069
6383.23126,0.20607
6385.15973,0.13032
6387.08820,0.02710
6389.01667,0.01492
6390.94514,0.04829
6392.87361,0.07256
6394.80207,0.07582
6396.73054,0.03845
6398.65901,0.00003
6400.58748,0.02578
6402.51595,0.10417
6404.44442,0.19753
6406.37289,0.26215
6408.30135,0.23192
6410.22982,0.15491
6412.15829,0.08524
6414.08676,0.01668
6416.01523,-0.02483
6417.94370,-0.04294
6419.87217,-0.05982
6421.80064,-0.06090
6423.72910,-0.04098
6425.65757,-0.03069
6427.58604,-0.03620
6429.51451,-0.01157
6431.44298,0.02847
6433.37145,0.03149
6435.29992,0.01151
6437.22838,0.01949
6439.15685,0.07638
6441.08532,0.12045
6443.01379,0.09615
6444.94226,0.05181
6446.87073,0.05689
6448.79920,0.07467
6450.72766,0.04668
6452.65613,0.00972
6454.58460,0.04265
6456.51307,0.11430
6458.44154,0.12982
6460.37001,0.11003
6462.29848,0.09672
6464.22695,0.07058
6466.15541,0.02656
6468.08388,0.01362
6470.01235,0.05564
6471.94082,0.06471
6473.86929,0.04906
6475.79776,0.05928
6477.72623,0.04099
6479.65469,0.06157
6481.58316,0.14768
6483.51163,0.13166
6485.44010,0.03085
6487.36857,0.02421
6489.29704,0.11430
6491.22551,0.11143
6493.15398,-0.03390
6495.08244,-0.13413
6497.01091,-0.11889
6498.93938,-0.03251
6500.86785,0.08996
6502.79632,0.14018
6504.72479,0.07716
6506.65326,-0.01337
6508.58172,-0.05117
6510.51019,-0.01899
6512.43866,0.02580
6514.36713,0.04222
6516.29560,0.03011
6518.22407,-0.01940
6520.15254,-0.08860
6522.08101,-0.10524
6524.00947,-0.00790
6525.93794,0.13129
6527.86641,0.17213
6529.79488,0.14204
6531.72335,0.16484
6533.65182,0.20870
6535.58029,0.18461
6537.50875,0.13824
6539.43722,0.11214
6541.36569,0.06440
6543.29416,0.01933
6545.22263,0.03844
6547.15110,0.05467
6549.07957,0.03264
6551.00804,-0.01131
6552.93650,-0.10203
6554.86497,-0.14619
6556.79344,-0.04738
6558.72191,0.09699
6560.65038,0.16936
6562.57885,0.20105
6564.50732,0.21929
6566.43578,0.18950
6568.36425,0.17836
6570.29272,0.20052
6572.22119,0.15867
6574.14966,0.07205
6576.07813,-0.00120
6578.00660,-0.08888
6579.93507,-0.12932
6581.86353,-0.04926
6583.79200,0.04692
6585.72047,0.05080
6587.64894,0.01915
6589.57741,0.03180
6591.50588,0.06120
6593.43435,0.06712
6595.36281,0.06704
6597.29128,0.10596
6599.21975,0.16941
6601.14822,0.14468
6603.07669,0.08818
6605.00516,0.13266
6606.93363,0.17046
6608.86210,0.10687
6610.79056,0.02345
6612.71903,0.00048
6614.64750,0.06937
6616.57597,0.20953
6618.50444,0.28902
6620.43291,0.25358
6622.36138,0.17275
6624.28984,0.07679
6626.21831,0.02322
6628.14678,0.04360
6630.07525,0.03397
6632.00372,-0.01680
6633.93219,-0.01001
6635.86066,0.06259
6637.78912,0.08124
6639.71759,-0.00092
6641.64606,-0.01898
6643.57453,0.09943
6645.50300,0.18855
6647.43147,0.12255
6649.35994,-0.00476
6651.28841,-0.06961
6653.21687,-0.04741
6655.14534,0.03641
6657.07381,0.11374
6659.00228,0.10633
6660.93075,0.03622
6662.85922,-0.00982
6664.78769,0.01263
6666.71615,0.11747
6668.64462,0.24102
6670.57309,0.19102
6672.50156,0.00397
6674.43003,-0.04171
6676.35850,0.00418
6678.28697,0.02227
6680.21544,0.07997
6682.14390,0.18430
6684.07237,0.23089
6686.00084,0.15637
6687.92931,0.07929
6689.85778,0.07473
6691.78625,0.09012
6693.71472,0.15657
6695.64318,0.22053
6697.57165,0.17928
6699.50012,0.10587
6701.42859,0.07986
6703.35706,0.09486
6705.28553,0.09033
6707.21400,0.03153
6709.14247,0.01337
6711.07093,0.07964
6712.99940,0.20010
6714.92787,0.29422
6716.85634,0.21502
6718.78481,0.08836
6720.71328,0.14623
6722.64175,0.24346
6724.57021,0.19604
6726.49868,0.07303
6728.42715,0.00202
6730.35562,0.03686
6732.28409,0.05805
6734.21256,0.00573
6736.14103,0.02178
6738.06950,0.08450
6739.99796,0.06533
6741.92643,0.00963
6743.85490,-0.01263
6745.78337,0.01254
6747.71184,0.05537
6749.64031,0.04734
6751.56878,0.03764
6753.49724,0.09446
6755.42571,0.16554
6757.35418,0.16304
6759.28265,0.05869
6761.21112,-0.09432
6763.13959,-0.17752
6765.06806,-0.09863
6766.99653,0.10991
6768.92499,0.26728
6770.85346,0.30440
6772.78193,0.34483
6774.71040,0.36272
6776.63887,0.21297
6778.56734,0.01989
6780.49581,-0.07967
6782.42427,-0.10715
6784.35274,-0.05681
6786.28121,0.04772
6788.20968,0.08960
6790.13815,0.04068
6792.06662,0.00147
6793.99509,0.04672
6795.92355,0.13796
6797.85202,0.18040
6799.78049,0.17259
6801.70896,0.15237
6803.63743,0.08307
6805.56590,0.04189
6807.49437,0.08005
6809.42284,0.07224
6811.35130,0.05127
6813.27977,0.10085
6815.20824,0.08624
6817.13671,-0.00120
6819.06518,0.00178
6820.99365,0.09832
6822.92212,0.18202
6824.85058,0.23072
6826.77905,0.29604
6828.70752,0.30504
6830.63599,0.18247
6832.56446,0.03195
6834.49293,-0.06000
6836.42140,-0.10103
6838.34987,-0.11648
6840.27833,-0.09079
6842.20680,-0.01066
6844.13527,0.01339
6846.06374,-0.07281
6847.99221,-0.13494
6849.92068,-0.10891
6851.84915,-0.04100
6853.77761,0.06826
6855.70608,0.15052
6857.63455,0.14165
6859.56302,0.08802
6861.49149,0.07508
6863.41996,0.11559
6865.34843,0.08866
6867.27690,0.01475
6869.20536,0.00682
6871.13383,0.04607
6873.06230,0.08139
6874.99077,0.06090
6876.91924,0.00719
6878.84771,0.00932
6880.77618,0.08273
6882.70464,0.16396
6884.63311,0.17013
6886.56158,0.09693
6888.49005,0.11913
6890.41852,0.23089
6892.34699,0.19352
6894.27546,0.08820
6896.20393,0.06636
6898.13239,0.02442
6900.06086,0.00451
6901.98933,0.11317
6903.91780,0.22270
6905.84627,0.19241
6907.77474,0.10467
6909.70321,0.08297
6911.63167,0.13170
6913.56014,0.19056
6915.48861,0.13925
6917.41708,-0.04578
6919.34555,-0.18457
6921.27402,-0.16525
6923.20249,-0.11158
6925.13096,-0.07460
6927.05942,0.01129
6928.98789,0.12311
6930.91636,0.15435
6932.84483,0.10534
6934.77330,0.07279
6936.70177,0.12101
6938.63024,0.18765
6940.55870,0.15157
6942.48717,0.06572
6944.41564,0.03429
6946.34411,0.05111
6948.27258,0.04583
6950.20105,-0.01320
6952.12952,-0.07218
6954.05799,-0.09074
6955.98645,-0.04419
6957.91492,0.02499
6959.84339,0.07312
6961.77186,0.13764
6963.70033,0.16504
6965.62880,0.09877
6967.55727,0.00958
6969.48573,-0.06997
6971.41420,-0.15089
6973.34267,-0.13750
6975.27114,-0.05027
6977.19961,-0.01899
6979.12808,0.04538
6981.05655,0.24274
6982.98501,0.42716
6984.91348,0.38550
6986.84195,0.24778
6988.77042,0.17355
6990.69889,0.04999
6992.62736,-0.14593
6994.55583,-0.31377
6996.48430,-0.35764
6998.41276,-0.20525
7000.34123,0.03183
7002.26970,0.11189
7004.19817,0.06251
7006.12664,0.08393
7008.05511,0.09754
7009.98358,0.00038
7011.91204,-0.08347
7013.84051,-0.05303
7015.76898,0.00127
7017.69745,-0.03206
7019.62592,-0.10494
7021.55439,-0.18906
7023.48286,-0.22791
7025.41133,-0.10394
7027.33979,0.12435
7029.26826,0.23704
7031.19673,0.11781
7033.12520,-0.05133
7035.05367,-0.06526
7036.98214,-0.02797
7038.91061,-0.09882
7040.83907,-0.08776
7042.76754,0.10335
7044.69601,0.26969
7046.62448,0.39915
7048.55295,0.42133
7050.48142,0.26976
7052.40989,0.14631
7054.33836,0.16126
7056.26682,0.22430
7058.19529,0.21264
7060.12376,0.13464
7062.05223,0.06956
7063.98070,0.00820
7065.90917,-0.04689
7067.83764,-0.05634
7069.76610,-0.05234
7071.69457,-0.03216
7073.62304,0.05067
7075.55151,0.10439
7077.47998,0.12690
7079.40845,0.15807
7081.33692,0.13008
7083.26539,0.12320
7085.19385,0.19125
7087.12232,0.22300
7089.05079,0.20268
7090.97926,0.16428
7092.90773,0.14006
7094.83620,0.17267
7096.76467,0.25068
7098.69313,0.30146
7100.62160,0.26518
7102.55007,0.22884
7104.47854,0.20411
7106.40701,0.13068
7108.33548,0.08790
7110.26395,0.07630
7112.19242,0.02565
7114.12088,0.01688
7116.04935,0.05728
7117.97782,0.02908
7119.90629,0.00949
7121.83476,0.07985
7123.76323,0.11751
7125.69170,0.03732
7127.62016,-0.08221
7129.54863,-0.08788
7131.47710,-0.02138
7133.40557,0.01741
7135.33404,0.08499
7137.26251,0.14614
7139.19098,0.12215
7141.11944,0.08022
7143.04791,0.05226
7144.97638,0.06060
7146.90485,0.08677
7148.83332,0.03332
7150.76179,-0.04169
7152.69026,-0.04040
7154.61873,0.07758
7156.54719,0.22685
7158.47566,0.25338
7160.40413,0.13873
7162.33260,-0.00153
7164.26107,-0.03651
7166.18954,0.12043
7168.11801,0.37541
7170.04647,0.47651
7171.97494,0.32008
7173.90341,0.16117
7175.83188,0.20192
7177.76035,0.26663
7179.68882,0.18068
7181.61729,0.07229
7183.54576,0.03367
7185.47422,0.01949
7187.40269,0.02012
7189.33116,0.00485
7191.25963,-0.12694
7193.18810,-0.28560
7195.11657,-0.27168
7197.04504,-0.06437
7198.97350,0.12727
7200.90197,0.18099
7202.83044,0.26677
7204.75891,0.39236
7206.68738,0.15445
7208.61585,-0.12761
7210.54432,-0.08721
7212.47279,0.01811
7214.40125,0.01401
7216.32972,-0.01517
7218.25819,-0.12076
7220.18666,-0.18162
7222.11513,-0.11229
7224.04360,-0.06105
7225.97207,-0.00783
7227.90053,0.13103
7229.82900,0.23258
7231.75747,0.19558
7233.68594,0.18955
7235.61441,0.30326
7237.54288,0.35176
7239.47135,0.23941
7241.39982,0.15938
7243.32828,0.15772
7245.25675,0.01038
7247.18522,-0.18081
7249.11369,-0.17318
7251.04216,0.02842
7252.97063,0.16711
7254.89910,0.12160
7256.82756,0.14407
7258.75603,0.17038
7260.68450,-0.07246
7262.61297,-0.39926
7264.54144,-0.28708
7266.46991,0.08411
7268.39838,0.29908
7270.32685,0.36960
7272.25531,0.33065
7274.18378,0.24297
7276.11225,0.29432
7278.04072,0.42628
7279.96919,0.43483
7281.89766,0.21494
7283.82613,-0.05826
7285.75459,-0.19693
7287.68306,-0.08181
7289.61153,0.19203
7291.54000,0.23244
7293.46847,-0.07298
7295.39694,-0.28946
7297.32541,-0.25505
7299.25387,-0.12020
7301.18234,0.08511
7303.11081,0.23535
7305.03928,0.12933
7306.96775,-0.12737
7308.89622,-0.14886
7310.82469,0.15026
7312.75316,0.32163
7314.68162,0.25330
7316.61009,0.12854
7318.53856,0.17463
7320.46703,0.24283
7322.39550,0.11823
7324.32397,-0.01938
7326.25244,0.00183
7328.18090,0.01937
7330.10937,0.01925
7332.03784,0.11499
7333.96631,0.15609
7335.89478,0.07266
7337.82325,-0.06521
7339.75172,-0.12294
7341.68019,-0.08479
7343.60865,-0.22114
7345.53712,-0.30300
7347.46559,-0.12229
7349.39406,-0.03312
7351.32253,-0.13019
7353.25100,-0.15660
7355.17947,-0.05396
7357.10793,0.11975
7359.03640,0.28838
7360.96487,0.37054
7362.89334,0.25474
7364.82181,0.03518
7366.75028,-0.08307
7368.67875,-0.05166
7370.60722,0.13191
7372.53568,0.33048
7374.46415,0.39109
7376.39262,0.38227
7378.32109,0.48209
7380.24956,0.51906
7382.17803,0.27375
7384.10650,-0.06358
7386.03496,-0.25895
7387.96343,-0.40075
7389.89190,-0.41595
7391.82037,-0.20652
7393.74884,-0.02767
7395.67731,-0.02911
7397.60578,-0.04026
7399.53425,-0.05181
7401.46271,-0.00036
7403.39118,0.15163
7405.31965,0.15666
7407.24812,0.05184
7409.17659,0.08362
7411.10506,0.25397
7413.03353,0.35966
7414.96199,0.30264
7416.89046,0.16592
7418.81893,0.09808
7420.74740,0.22573
7422.67587,0.35288
7424.60434,0.21296
7426.53281,-0.04606
7428.46128,-0.15089
7430.38974,-0.13309
7432.31821,-0.16792
7434.24668,-0.18849
7436.17515,-0.12243
7438.10362,0.05965
7440.03209,0.26062
7441.96056,0.31552
7443.88902,0.34219
7445.81749,0.39261
7447.74596,0.29489
7449.67443,0.13713
7451.60290,0.14956
7453.53137,0.20382
7455.45984,0.12219
7457.38831,0.00417
7459.31677,-0.01264
7461.24524,0.07262
7463.17371,0.08778
7465.10218,0.03666
7467.03065,0.07525
7468.95912,0.21014
7470.88759,0.40150
7472.81605,0.52830
7474.74452,0.37807
7476.67299,0.10129
7478.60146,0.06550
7480.52993,0.22983
7482.45840,0.26504
7484.38687,0.25603
7486.31533,0.23774
7488.24380,0.05112
7490.17227,-0.14465
7492.10074,-0.09490
7494.02921,0.10734
7495.95768,0.21692
7497.88615,0.11930
