399.19301,6.25730
401.12148,0.43381
403.04995,-0.12584
404.97842,-0.18119
406.90689,0.01168
408.83536,0.18522
410.76382,0.04379
412.69229,-0.20189
414.62076,-0.15160
416.54923,0.03769
418.47770,0.02198
420.40617,-0.18242
422.33464,-0.17797
424.26311,-0.04177
426.19157,0.02637
428.12004,0.00168
430.04851,-0.03115
431.97698,-0.04355
433.90545,0.00364
435.83392,0.06758
437.76239,0.07032
439.69085,0.05116
441.61932,0.00977
443.54779,-0.04332
445.47626,-0.01759
447.40473,0.03846
449.33320,0.02728
451.26167,0.01450
453.19013,0.03094
455.11860,-0.00098
457.04707,-0.09800
458.97554,-0.16739
460.90401,-0.12938
462.83248,-0.07179
464.76095,-0.06503
466.68942,-0.08909
468.61788,-0.09977
470.54635,-0.06167
472.47482,0.03775
474.40329,0.12396
476.33176,0.07390
478.26023,0.04043
480.18870,0.08680
482.11716,0.10168
484.04563,0.02938
485.97410,-0.00054
487.90257,0.03376
489.83104,0.08081
491.75951,0.15028
493.68798,0.21347
495.61645,0.21339
497.54491,0.12821
499.47338,0.05515
501.40185,0.08023
503.33032,0.14003
505.25879,0.13802
507.18726,0.08631
509.11573,0.04344
511.04419,0.03591
512.97266,0.05667
514.90113,0.06858
516.82960,0.06732
518.75807,0.08619
520.68654,0.10868
522.61501,0.10397
524.54348,0.09280
526.47194,0.10407
528.40041,0.11837
530.32888,0.13227
532.25735,0.13446
534.18582,0.10106
536.11429,0.05964
538.04276,0.04521
539.97122,0.03853
541.89969,0.03710
543.82816,0.06825
545.75663,0.09482
547.68510,0.07662
549.61357,0.02466
551.54204,-0.05897
553.47051,-0.12624
555.39897,-0.09434
557.32744,0.00176
559.25591,0.05479
561.18438,0.05142
563.11285,0.04911
565.04132,0.07383
566.96979,0.10332
568.89825,0.11141
570.82672,0.08694
572.75519,0.05867
574.68366,0.06144
576.61213,0.07956
578.54060,0.09138
580.46907,0.09998
582.39754,0.10506
584.32600,0.10572
586.25447,0.12212
588.18294,0.14497
590.11141,0.13549
592.03988,0.10372
593.96835,0.07041
595.89682,0.03662
597.82528,0.02757
599.75375,0.04954
601.68222,0.06765
603.61069,0.06908
605.53916,0.07284
607.46763,0.07770
609.39610,0.07205
611.32456,0.07773
613.25303,0.11046
615.18150,0.13385
617.10997,0.12159
619.03844,0.08954
620.96691,0.06999
622.89538,0.08314
624.82385,0.09873
626.75231,0.08674
628.68078,0.06701
630.60925,0.05990
632.53772,0.05331
634.46619,0.04182
636.39466,0.04152
638.32313,0.05292
640.25159,0.06553
642.18006,0.08068
644.10853,0.10197
646.03700,0.11542
647.96547,0.09527
649.89394,0.05441
651.82241,0.03746
653.75088,0.05267
655.67934,0.08798
657.60781,0.12316
659.53628,0.13157
661.46475,0.12145
663.39322,0.11199
665.32169,0.10203
667.25016,0.10275
669.17862,0.12797
671.10709,0.13421
673.03556,0.11834
674.96403,0.09779
676.89250,0.08262
678.82097,0.08409
680.74944,0.10751
682.67791,0.12782
684.60637,0.12291
686.53484,0.11383
688.46331,0.10919
690.39178,0.10029
692.32025,0.10868
694.24872,0.13014
696.17719,0.12679
698.10565,0.10094
700.03412,0.09223
701.96259,0.10989
703.89106,0.11937
705.81953,0.11028
707.74800,0.10449
709.67647,0.08456
711.60494,0.04640
713.53340,0.03784
715.46187,0.06045
717.39034,0.07822
719.31881,0.08752
721.24728,0.09733
723.17575,0.10441
725.10422,0.10661
727.03268,0.11159
728.96115,0.11234
730.88962,0.10271
732.81809,0.09796
734.74656,0.09968
736.67503,0.09356
738.60350,0.08117
740.53197,0.07815
742.46043,0.09225
744.38890,0.11645
746.31737,0.12899
748.24584,0.11823
750.17431,0.10134
752.10278,0.08756
754.03125,0.07857
755.95971,0.08779
757.88818,0.10454
759.81665,0.10287
761.74512,0.08950
763.67359,0.08702
765.60206,0.09666
767.53053,0.10747
769.45900,0.11116
771.38746,0.10984
773.31593,0.11621
775.24440,0.12095
777.17287,0.10942
779.10134,0.09928
781.02981,0.10176
782.95828,0.10461
784.88674,0.10210
786.81521,0.09923
788.74368,0.10075
790.67215,0.10588
792.60062,0.10815
794.52909,0.09982
796.45756,0.08859
798.38602,0.08710
800.31449,0.08479
802.24296,0.08689
804.17143,0.10985
806.09990,0.12681
808.02837,0.11594
809.95684,0.09439
811.88531,0.08895
813.81377,0.10038
815.74224,0.10330
817.67071,0.09693
819.59918,0.09263
821.52765,0.09141
823.45612,0.09416
825.38459,0.09558
827.31305,0.08995
829.24152,0.08332
831.16999,0.08820
833.09846,0.10056
835.02693,0.10580
836.95540,0.10330
838.88387,0.09734
840.81234,0.09227
842.74080,0.09859
844.66927,0.11175
846.59774,0.11249
848.52621,0.10280
850.45468,0.10223
852.38315,0.11633
854.31162,0.13475
856.24008,0.14559
858.16855,0.14288
860.09702,0.13217
862.02549,0.11824
863.95396,0.10498
865.88243,0.09877
867.81090,0.10393
869.73937,0.12081
871.66783,0.12356
873.59630,0.11107
875.52477,0.11037
877.45324,0.10832
879.38171,0.09696
881.31018,0.08830
883.23865,0.08425
885.16711,0.08515
887.09558,0.09161
889.02405,0.10096
890.95252,0.10377
892.88099,0.09989
894.80946,0.09762
896.73793,0.10181
898.66640,0.11337
900.59486,0.12244
902.52333,0.11984
904.45180,0.11420
906.38027,0.11754
908.30874,0.12809
910.23721,0.13477
912.16568,0.12718
914.09414,0.11095
916.02261,0.10520
917.95108,0.11380
919.87955,0.11885
921.80802,0.11397
923.73649,0.11257
925.66496,0.11620
927.59343,0.11598
929.52189,0.11526
931.45036,0.12081
933.37883,0.12569
935.30730,0.12402
937.23577,0.12055
939.16424,0.11754
941.09271,0.11853
943.02117,0.12679
944.94964,0.13172
946.87811,0.12176
948.80658,0.11161
950.73505,0.11702
952.66352,0.12325
954.59199,0.11835
956.52045,0.11233
958.44892,0.11406
960.37739,0.11777
962.30586,0.11339
964.23433,0.10659
966.16280,0.10967
968.09127,0.11814
970.01974,0.12056
971.94820,0.11875
973.87667,0.12379
975.80514,0.13484
977.73361,0.13633
979.66208,0.12477
981.59055,0.11532
983.51902,0.11774
985.44748,0.12493
987.37595,0.12627
989.30442,0.12684
991.23289,0.13389
993.16136,0.13670
995.08983,0.13017
997.01830,0.12320
998.94677,0.11632
1000.87523,0.11076
1002.80370,0.11339
1004.73217,0.12042
1006.66064,0.12486
1008.58911,0.12372
1010.51758,0.11930
1012.44605,0.11936
1014.37451,0.12473
1016.30298,0.13172
1018.23145,0.13867
1020.15992,0.14221
1022.08839,0.13832
1024.01686,0.12902
1025.94533,0.11982
1027.87380,0.10858
1029.80226,0.09927
1031.73073,0.10905
1033.65920,0.13124
1035.58767,0.13996
1037.51614,0.13630
1039.44461,0.14008
1041.37308,0.14857
1043.30154,0.14499
1045.23001,0.13428
1047.15848,0.12933
1049.08695,0.12912
1051.01542,0.13111
1052.94389,0.13328
1054.87236,0.13141
1056.80083,0.12467
1058.72929,0.12075
1060.65776,0.12657
1062.58623,0.13555
1064.51470,0.13763
1066.44317,0.13039
1068.37164,0.12506
1070.30011,0.13478
1072.22857,0.14850
1074.15704,0.14608
1076.08551,0.13194
1078.01398,0.12026
1079.94245,0.11687
1081.87092,0.12513
1083.79939,0.13497
1085.72786,0.13283
1087.65632,0.12902
1089.58479,0.13409
1091.51326,0.14097
1093.44173,0.14380
1095.37020,0.14382
1097.29867,0.14519
1099.22714,0.14781
1101.15560,0.14627
1103.08407,0.14023
1105.01254,0.13586
1106.94101,0.13262
1108.86948,0.12683
1110.79795,0.12529
1112.72642,0.12876
1114.65489,0.13069
1116.58335,0.13128
1118.51182,0.13027
1120.44029,0.12870
1122.36876,0.13011
1124.29723,0.13636
1126.22570,0.14539
1128.15417,0.15041
1130.08263,0.14472
1132.01110,0.13212
1133.93957,0.12925
1135.86804,0.13717
1137.79651,0.14082
1139.72498,0.13938
1141.65345,0.13648
1143.58191,0.13477
1145.51038,0.14014
1147.43885,0.14621
1149.36732,0.14509
1151.29579,0.14228
1153.22426,0.14220
1155.15273,0.14184
1157.08120,0.13877
1159.00966,0.13946
1160.93813,0.14867
1162.86660,0.15530
1164.79507,0.15384
1166.72354,0.14942
1168.65201,0.14434
1170.58048,0.14259
1172.50894,0.14343
1174.43741,0.14413
1176.36588,0.14471
1178.29435,0.14330
1180.22282,0.14219
1182.15129,0.14127
1184.07976,0.13753
1186.00823,0.13538
1187.93669,0.13829
1189.86516,0.14430
1191.79363,0.15015
1193.72210,0.14988
1195.65057,0.14344
1197.57904,0.13948
1199.50751,0.14130
1201.43597,0.14318
1203.36444,0.13962
1205.29291,0.13658
1207.22138,0.14270
1209.14985,0.15076
1211.07832,0.15010
1213.00679,0.14407
1214.93526,0.13875
1216.86372,0.13464
1218.79219,0.13698
1220.72066,0.14640
1222.64913,0.15256
1224.57760,0.15090
1226.50607,0.14733
1228.43454,0.14786
1230.36300,0.15146
1232.29147,0.15557
1234.21994,0.15832
1236.14841,0.15779
1238.07688,0.15687
1240.00535,0.15657
1241.93382,0.15261
1243.86229,0.14677
1245.79075,0.14599
1247.71922,0.14853
1249.64769,0.14866
1251.57616,0.14876
1253.50463,0.15071
1255.43310,0.15058
1257.36157,0.14881
1259.29003,0.14842
1261.21850,0.14860
1263.14697,0.14793
1265.07544,0.14572
1267.00391,0.14387
1268.93238,0.14486
1270.86085,0.14796
1272.78932,0.15257
1274.71778,0.15678
1276.64625,0.15796
1278.57472,0.15787
1280.50319,0.15827
1282.43166,0.15893
1284.36013,0.15963
1286.28860,0.15778
1288.21706,0.15477
1290.14553,0.15514
1292.07400,0.15681
1294.00247,0.15640
1295.93094,0.15454
1297.85941,0.15324
1299.78788,0.15254
1301.71634,0.15040
1303.64481,0.14781
1305.57328,0.14835
1307.50175,0.15218
1309.43022,0.15679
1311.35869,0.16060
1313.28716,0.16306
1315.21563,0.16689
1317.14409,0.17129
1319.07256,0.16789
1321.00103,0.15928
1322.92950,0.15706
1324.85797,0.15928
1326.78644,0.15795
1328.71491,0.15387
1330.64337,0.15161
1332.57184,0.15460
1334.50031,0.16123
1336.42878,0.16617
1338.35725,0.16783
1340.28572,0.16870
1342.21419,0.18052
1344.14266,0.20261
1346.07112,0.21078
1347.99959,0.19457
1349.92806,0.17273
1351.85653,0.16237
1353.78500,0.16117
1355.71347,0.16014
1357.64194,0.15948
1359.57040,0.16350
1361.49887,0.17049
1363.42734,0.17397
1365.35581,0.17136
1367.28428,0.16553
1369.21275,0.16208
1371.14122,0.16530
1373.06969,0.17030
1374.99815,0.17026
1376.92662,0.16763
1378.85509,0.16688
1380.78356,0.16439
1382.71203,0.15939
1384.64050,0.15941
1386.56897,0.16491
1388.49743,0.16694
1390.42590,0.16646
1392.35437,0.17015
1394.28284,0.17600
1396.21131,0.17774
1398.13978,0.17738
1400.06825,0.17721
1401.99672,0.17503
1403.92518,0.17280
1405.85365,0.17024
1407.78212,0.16727
1409.71059,0.16831
1411.63906,0.17050
1413.56753,0.17103
1415.49600,0.17799
1417.42446,0.19133
1419.35293,0.18971
1421.28140,0.17432
1423.20987,0.16797
1425.13834,0.16921
1427.06681,0.17176
1428.99528,0.17538
1430.92375,0.17955
1432.85221,0.18354
1434.78068,0.18770
1436.70915,0.18449
1438.63762,0.17201
1440.56609,0.16559
1442.49456,0.16853
1444.42303,0.17657
1446.35149,0.18324
1448.27996,0.17877
1450.20843,0.16708
1452.13690,0.16698
1454.06537,0.18365
1455.99384,0.21057
1457.92231,0.21626
1459.85077,0.19267
1461.77924,0.18175
1463.70771,0.18634
1465.63618,0.18846
1467.56465,0.18114
1469.49312,0.18246
1471.42159,0.19925
1473.35006,0.21221
1475.27852,0.20318
1477.20699,0.19017
1479.13546,0.18539
1481.06393,0.18657
1482.99240,0.18531
1484.92087,0.18309
1486.84934,0.18570
1488.77780,0.18904
1490.70627,0.18645
1492.63474,0.18493
1494.56321,0.19157
1496.49168,0.20278
1498.42015,0.20062
1500.34862,0.18916
1502.27709,0.18787
1504.20555,0.20073
1506.13402,0.22565
1508.06249,0.22813
1509.99096,0.20778
1511.91943,0.19405
1513.84790,0.19019
1515.77637,0.19721
1517.70483,0.21024
1519.63330,0.22555
1521.56177,0.23478
1523.49024,0.22240
1525.41871,0.20710
1527.34718,0.19752
1529.27565,0.19209
1531.20412,0.19626
1533.13258,0.20671
1535.06105,0.20778
1536.98952,0.20968
1538.91799,0.23195
1540.84646,0.25474
1542.77493,0.23406
1544.70340,0.20814
1546.63186,0.19716
1548.56033,0.19795
1550.48880,0.20020
1552.41727,0.20362
1554.34574,0.21222
1556.27421,0.22260
1558.20268,0.23624
1560.13115,0.22359
1562.05961,0.20019
1563.98808,0.19173
1565.91655,0.19365
1567.84502,0.20252
1569.77349,0.20797
1571.70196,0.20205
1573.63043,0.20165
1575.55889,0.21112
1577.48736,0.21048
1579.41583,0.19799
1581.34430,0.18714
1583.27277,0.18049
1585.20124,0.17923
1587.12971,0.18095
1589.05818,0.18242
1590.98664,0.18433
1592.91511,0.18631
1594.84358,0.18538
1596.77205,0.18072
1598.70052,0.17717
1600.62899,0.17851
1602.55746,0.18149
1604.48592,0.18349
1606.41439,0.18513
1608.34286,0.18482
1610.27133,0.18200
1612.19980,0.18039
1614.12827,0.18500
1616.05674,0.19610
1617.98521,0.19848
1619.91367,0.19358
1621.84214,0.19469
1623.77061,0.19692
1625.69908,0.19629
1627.62755,0.19494
1629.55602,0.18901
1631.48449,0.18556
1633.41295,0.19689
1635.34142,0.22323
1637.26989,0.22722
1639.19836,0.20961
1641.12683,0.19802
1643.05530,0.19621
1644.98377,0.20533
1646.91223,0.21942
1648.84070,0.21850
1650.76917,0.21755
1652.69764,0.23356
1654.62611,0.23369
1656.55458,0.21293
1658.48305,0.20030
1660.41152,0.20083
1662.33998,0.20648
1664.26845,0.20115
1666.19692,0.19791
1668.12539,0.20994
1670.05386,0.21931
1671.98233,0.21327
1673.91080,0.21148
1675.83926,0.21010
1677.76773,0.20593
1679.69620,0.21099
1681.62467,0.22829
1683.55314,0.24635
1685.48161,0.23442
1687.41008,0.21540
1689.33855,0.20908
1691.26701,0.20953
1693.19548,0.21548
1695.12395,0.22622
1697.05242,0.23110
1698.98089,0.22777
1700.90936,0.22064
1702.83783,0.21228
1704.76629,0.20793
1706.69476,0.20348
1708.62323,0.19558
1710.55170,0.18983
1712.48017,0.19050
1714.40864,0.19960
1716.33711,0.21764
1718.26558,0.22348
1720.19404,0.20864
1722.12251,0.19497
1724.05098,0.18555
1725.97945,0.18051
1727.90792,0.18543
1729.83639,0.19859
1731.76486,0.20935
1733.69332,0.20747
1735.62179,0.19735
1737.55026,0.19709
1739.47873,0.20467
1741.40720,0.20904
1743.33567,0.20466
1745.26414,0.19966
1747.19261,0.20498
1749.12107,0.21579
1751.04954,0.21061
1752.97801,0.19631
1754.90648,0.19237
1756.83495,0.19599
1758.76342,0.19740
1760.69189,0.19642
1762.62035,0.19476
1764.54882,0.19153
1766.47729,0.19089
1768.40576,0.19572
1770.33423,0.20427
1772.26270,0.20988
1774.19117,0.20652
1776.11964,0.20028
1778.04810,0.19526
1779.97657,0.19211
1781.90504,0.18958
1783.83351,0.18856
1785.76198,0.19037
1787.69045,0.19380
1789.61892,0.20030
1791.54738,0.20674
1793.47585,0.20457
1795.40432,0.19878
1797.33279,0.19644
1799.26126,0.19695
1801.18973,0.19586
1803.11820,0.18946
1805.04666,0.18320
1806.97513,0.18384
1808.90360,0.18857
1810.83207,0.18966
1812.76054,0.18614
1814.68901,0.18378
1816.61748,0.18651
1818.54595,0.19682
1820.47441,0.20499
1822.40288,0.19906
1824.33135,0.19127
1826.25982,0.19450
1828.18829,0.20157
1830.11676,0.20181
1832.04523,0.19104
1833.97369,0.18300
1835.90216,0.18541
1837.83063,0.19120
1839.75910,0.19311
1841.68757,0.19527
1843.61604,0.19956
1845.54451,0.19710
1847.47298,0.18999
1849.40144,0.18458
1851.32991,0.18189
1853.25838,0.18242
1855.18685,0.18522
1857.11532,0.18865
1859.04379,0.18983
1860.97226,0.18803
1862.90072,0.18666
1864.82919,0.19001
1866.75766,0.19885
1868.68613,0.20445
1870.61460,0.19858
1872.54307,0.19093
1874.47154,0.18843
1876.40001,0.18789
1878.32847,0.18626
1880.25694,0.18423
1882.18541,0.18327
1884.11388,0.18292
1886.04235,0.18313
1887.97082,0.18886
1889.89929,0.19807
1891.82775,0.20085
1893.75622,0.19890
1895.68469,0.19619
1897.61316,0.19232
1899.54163,0.18864
1901.47010,0.18719
1903.39857,0.18687
1905.32704,0.18541
1907.25550,0.18548
1909.18397,0.18855
1911.11244,0.19057
1913.04091,0.19026
1914.96938,0.19058
1916.89785,0.19425
1918.82632,0.19783
1920.75478,0.19686
1922.68325,0.19484
1924.61172,0.19258
1926.54019,0.18917
1928.46866,0.18735
1930.39713,0.18806
1932.32560,0.18936
1934.25407,0.18859
1936.18253,0.18656
1938.11100,0.18536
1940.03947,0.18582
1941.96794,0.19016
1943.89641,0.19492
1945.82488,0.19419
1947.75335,0.19009
1949.68181,0.18749
1951.61028,0.18844
1953.53875,0.19116
1955.46722,0.19195
1957.39569,0.18909
1959.32416,0.18593
1961.25263,0.18572
1963.18110,0.18804
1965.10956,0.19045
1967.03803,0.18976
1968.96650,0.18656
1970.89497,0.18463
1972.82344,0.18506
1974.75191,0.18564
1976.68038,0.18465
1978.60884,0.18427
1980.53731,0.18620
1982.46578,0.18824
1984.39425,0.18941
1986.32272,0.19004
1988.25119,0.18895
1990.17966,0.18800
1992.10812,0.18843
1994.03659,0.18719
1995.96506,0.18528
1997.89353,0.18438
1999.82200,0.18295
2001.75047,0.18248
2003.67894,0.18480
2005.60741,0.18670
2007.53587,0.18557
2009.46434,0.18490
2011.39281,0.18767
2013.32128,0.19142
2015.24975,0.19399
2017.17822,0.19390
2019.10669,0.18980
2021.03515,0.18468
2022.96362,0.18281
2024.89209,0.18564
2026.82056,0.19009
2028.74903,0.19185
2030.67750,0.19200
2032.60597,0.19320
2034.53444,0.19318
2036.46290,0.19034
2038.39137,0.18900
2040.31984,0.19124
2042.24831,0.19260
2044.17678,0.19092
2046.10525,0.18880
2048.03372,0.18779
2049.96218,0.18700
2051.89065,0.18565
2053.81912,0.18506
2055.74759,0.18700
2057.67606,0.19001
2059.60453,0.18959
2061.53300,0.18677
2063.46147,0.18748
2065.38993,0.19026
2067.31840,0.19119
2069.24687,0.19201
2071.17534,0.19276
2073.10381,0.19266
2075.03228,0.19313
2076.96075,0.19261
2078.88921,0.18922
2080.81768,0.18637
2082.74615,0.18806
2084.67462,0.19180
2086.60309,0.19393
2088.53156,0.19511
2090.46003,0.19400
2092.38850,0.19020
2094.31696,0.18776
2096.24543,0.18744
2098.17390,0.18723
2100.10237,0.18733
2102.03084,0.18841
2103.95931,0.18934
2105.88778,0.19101
2107.81624,0.19402
2109.74471,0.19430
2111.67318,0.19289
2113.60165,0.19475
2115.53012,0.19791
2117.45859,0.19751
2119.38706,0.19375
2121.31553,0.18992
2123.24399,0.18786
2125.17246,0.18954
2127.10093,0.19419
2129.02940,0.19590
2130.95787,0.19284
2132.88634,0.19100
2134.81481,0.19235
2136.74327,0.19274
2138.67174,0.19327
2140.60021,0.19349
2142.52868,0.19129
2144.45715,0.19226
2146.38562,0.19785
2148.31409,0.20262
2150.24255,0.20277
2152.17102,0.19820
2154.09949,0.19293
2156.02796,0.19079
2157.95643,0.19281
2159.88490,0.19634
2161.81337,0.19671
2163.74184,0.19337
2165.67030,0.18958
2167.59877,0.18835
2169.52724,0.18944
2171.45571,0.19030
2173.38418,0.19164
2175.31265,0.19379
2177.24112,0.19481
2179.16958,0.19577
2181.09805,0.19612
2183.02652,0.19299
2184.95499,0.18918
2186.88346,0.18942
2188.81193,0.19205
2190.74040,0.19329
2192.66887,0.19425
2194.59733,0.19603
2196.52580,0.19602
2198.45427,0.19393
2200.38274,0.19237
2202.31121,0.19376
2204.23968,0.19691
2206.16815,0.19742
2208.09661,0.19532
2210.02508,0.19309
2211.95355,0.19211
2213.88202,0.19231
2215.81049,0.19138
2217.73896,0.19114
2219.66743,0.19383
2221.59590,0.19512
2223.52436,0.19342
2225.45283,0.19332
2227.38130,0.19568
2229.30977,0.19728
2231.23824,0.19729
2233.16671,0.19578
2235.09518,0.19359
2237.02364,0.19332
2238.95211,0.19471
2240.88058,0.19472
2242.80905,0.19386
2244.73752,0.19457
2246.66599,0.19520
2248.59446,0.19301
2250.52293,0.19031
2252.45139,0.19142
2254.37986,0.19328
2256.30833,0.19264
2258.23680,0.19353
2260.16527,0.19502
2262.09374,0.19442
2264.02221,0.19461
2265.95067,0.19611
2267.87914,0.19849
2269.80761,0.20069
2271.73608,0.19954
2273.66455,0.19620
2275.59302,0.19341
2277.52149,0.19161
2279.44996,0.19216
2281.37842,0.19438
2283.30689,0.19547
2285.23536,0.19714
2287.16383,0.20129
2289.09230,0.20305
2291.02077,0.19883
2292.94924,0.19291
2294.87770,0.19069
2296.80617,0.19265
2298.73464,0.19372
2300.66311,0.19053
2302.59158,0.18913
2304.52005,0.19330
2306.44852,0.19733
2308.37699,0.19882
2310.30545,0.19906
2312.23392,0.19668
2314.16239,0.19266
2316.09086,0.18958
2318.01933,0.18842
2319.94780,0.18950
2321.87627,0.19080
2323.80473,0.19307
2325.73320,0.19881
2327.66167,0.20254
2329.59014,0.20141
2331.51861,0.20061
2333.44708,0.19718
2335.37555,0.18973
2337.30401,0.19259
2339.23248,0.20784
2341.16095,0.22035
2343.08942,0.22126
2345.01789,0.20507
2346.94636,0.18542
2348.87483,0.17716
2350.80330,0.17627
2352.73176,0.17942
2354.66023,0.19069
2356.58870,0.20433
2358.51717,0.19730
2360.44564,0.17550
2362.37411,0.17500
2364.30258,0.19398
2366.23104,0.20529
2368.15951,0.20345
2370.08798,0.19670
2372.01645,0.19049
2373.94492,0.18828
2375.87339,0.19103
2377.80186,0.19520
2379.73033,0.19760
2381.65879,0.19791
2383.58726,0.19697
2385.51573,0.19534
2387.44420,0.19445
2389.37267,0.19597
2391.30114,0.19745
2393.22961,0.19633
2395.15807,0.19326
2397.08654,0.18998
2399.01501,0.19031
2400.94348,0.19493
2402.87195,0.19949
2404.80042,0.20099
2406.72889,0.19912
2408.65736,0.19548
2410.58582,0.19319
2412.51429,0.19380
2414.44276,0.19505
2416.37123,0.19495
2418.29970,0.19440
2420.22817,0.19403
2422.15664,0.19356
2424.08510,0.19317
2426.01357,0.19305
2427.94204,0.19275
2429.87051,0.19252
2431.79898,0.19376
2433.72745,0.19589
2435.65592,0.19843
2437.58439,0.20116
2439.51285,0.20040
2441.44132,0.19637
2443.36979,0.19406
2445.29826,0.19424
2447.22673,0.19619
2449.15520,0.19972
2451.08367,0.19925
2453.01213,0.19205
2454.94060,0.18901
2456.86907,0.19553
2458.79754,0.20047
2460.72601,0.19850
2462.65448,0.19677
2464.58295,0.19755
2466.51142,0.19645
2468.43988,0.19208
2470.36835,0.18801
2472.29682,0.18927
2474.22529,0.19311
2476.15376,0.19338
2478.08223,0.19246
2480.01070,0.19361
2481.93916,0.19476
2483.86763,0.19491
2485.79610,0.19751
2487.72457,0.20259
2489.65304,0.20539
2491.58151,0.20601
2493.50998,0.20722
2495.43844,0.20831
2497.36691,0.20787
2499.29538,0.20719
2501.22385,0.20632
2503.15232,0.20239
2505.08079,0.19732
2507.00926,0.19653
2508.93773,0.19903
2510.86619,0.20039
2512.79466,0.20031
2514.72313,0.20008
2516.65160,0.20028
2518.58007,0.20059
2520.50854,0.19939
2522.43701,0.19777
2524.36547,0.19742
2526.29394,0.19686
2528.22241,0.19643
2530.15088,0.19782
2532.07935,0.19910
2534.00782,0.19951
2535.93629,0.20061
2537.86476,0.20244
2539.79322,0.20443
2541.72169,0.20365
2543.65016,0.19949
2545.57863,0.19712
2547.50710,0.19825
2549.43557,0.19999
2551.36404,0.19970
2553.29250,0.19794
2555.22097,0.19758
2557.14944,0.19826
2559.07791,0.19830
2561.00638,0.19800
2562.93485,0.19850
2564.86332,0.19858
2566.79179,0.19713
2568.72025,0.19655
2570.64872,0.19636
2572.57719,0.19627
2574.50566,0.19890
2576.43413,0.20138
2578.36260,0.20029
2580.29107,0.19815
2582.21953,0.19753
2584.14800,0.19866
2586.07647,0.20002
2588.00494,0.20060
2589.93341,0.20252
2591.86188,0.20449
2593.79035,0.20300
2595.71882,0.19985
2597.64728,0.19750
2599.57575,0.19639
2601.50422,0.19656
2603.43269,0.19758
2605.36116,0.19881
2607.28963,0.20179
2609.21810,0.21236
2611.14656,0.22565
2613.07503,0.22602
2615.00350,0.21203
2616.93197,0.19774
2618.86044,0.19448
2620.78891,0.19732
2622.71738,0.19750
2624.64585,0.19836
2626.57431,0.20145
2628.50278,0.20369
2630.43125,0.20457
2632.35972,0.20352
2634.28819,0.20183
2636.21666,0.20155
2638.14513,0.20240
2640.07359,0.20397
2642.00206,0.20553
2643.93053,0.20418
2645.85900,0.20124
2647.78747,0.20291
2649.71594,0.20723
2651.64441,0.20748
2653.57288,0.20414
2655.50134,0.20083
2657.42981,0.20000
2659.35828,0.20159
2661.28675,0.20298
2663.21522,0.20384
2665.14369,0.20492
2667.07216,0.20489
2669.00062,0.20289
2670.92909,0.20059
2672.85756,0.19978
2674.78603,0.20081
2676.71450,0.20265
2678.64297,0.20421
2680.57144,0.20626
2682.49990,0.20838
2684.42837,0.20900
2686.35684,0.20775
2688.28531,0.20280
2690.21378,0.19599
2692.14225,0.19578
2694.07072,0.20235
2695.99919,0.20765
2697.92765,0.20914
2699.85612,0.20724
2701.78459,0.20466
2703.71306,0.20396
2705.64153,0.20226
2707.57000,0.20090
2709.49847,0.20417
2711.42693,0.20733
2713.35540,0.20744
2715.28387,0.20969
2717.21234,0.21216
2719.14081,0.21055
2721.06928,0.20753
2722.99775,0.20537
2724.92622,0.20588
2726.85468,0.20938
2728.78315,0.21130
2730.71162,0.20859
2732.64009,0.20504
2734.56856,0.20567
2736.49703,0.20836
2738.42550,0.20830
2740.35396,0.20633
2742.28243,0.20612
2744.21090,0.20756
2746.13937,0.20800
2748.06784,0.20725
2749.99631,0.20642
2751.92478,0.20530
2753.85325,0.20471
2755.78171,0.20512
2757.71018,0.20478
2759.63865,0.20345
2761.56712,0.20208
2763.49559,0.20222
2765.42406,0.20695
2767.35253,0.21273
2769.28099,0.21324
2771.20946,0.21210
2773.13793,0.21318
2775.06640,0.21408
2776.99487,0.21257
2778.92334,0.20907
2780.85181,0.20774
2782.78028,0.21094
2784.70874,0.21475
2786.63721,0.21506
2788.56568,0.21295
2790.49415,0.20978
2792.42262,0.20703
2794.35109,0.20982
2796.27956,0.21751
2798.20802,0.22173
2800.13649,0.21796
2802.06496,0.21274
2803.99343,0.21250
2805.92190,0.21370
2807.85037,0.21232
2809.77884,0.20935
2811.70731,0.20857
2813.63577,0.21200
2815.56424,0.21538
2817.49271,0.21628
2819.42118,0.21735
2821.34965,0.21631
2823.27812,0.21210
2825.20659,0.21051
2827.13505,0.21144
2829.06352,0.21254
2830.99199,0.21483
2832.92046,0.21702
2834.84893,0.21767
2836.77740,0.21845
2838.70587,0.21973
2840.63433,0.21915
2842.56280,0.21951
2844.49127,0.22090
2846.41974,0.21749
2848.34821,0.21223
2850.27668,0.21020
2852.20515,0.21029
2854.13362,0.21118
2856.06208,0.21234
2857.99055,0.21347
2859.91902,0.21438
2861.84749,0.21393
2863.77596,0.21414
2865.70443,0.21859
2867.63290,0.22263
2869.56136,0.22183
2871.48983,0.21956
2873.41830,0.21904
2875.34677,0.22129
2877.27524,0.22287
2879.20371,0.22224
2881.13218,0.22199
2883.06065,0.21836
2884.98911,0.21259
2886.91758,0.21228
2888.84605,0.21566
2890.77452,0.21946
2892.70299,0.22205
2894.63146,0.21880
2896.55993,0.21456
2898.48839,0.21626
2900.41686,0.21825
2902.34533,0.21829
2904.27380,0.22039
2906.20227,0.22361
2908.13074,0.22458
2910.05921,0.22042
2911.98768,0.21563
2913.91614,0.21617
2915.84461,0.21799
2917.77308,0.21602
2919.70155,0.21268
2921.63002,0.21420
2923.55849,0.21724
2925.48696,0.21382
2927.41542,0.21106
2929.34389,0.21334
2931.27236,0.21256
2933.20083,0.20994
2935.12930,0.21177
2937.05777,0.21614
2938.98624,0.21662
2940.91471,0.21289
2942.84317,0.21221
2944.77164,0.21389
2946.70011,0.21264
2948.62858,0.21186
2950.55705,0.21312
2952.48552,0.21437
2954.41399,0.21602
2956.34245,0.21440
2958.27092,0.20942
2960.19939,0.20886
2962.12786,0.21478
2964.05633,0.22095
2965.98480,0.22224
2967.91327,0.22069
2969.84174,0.21853
2971.77020,0.21574
2973.69867,0.21495
2975.62714,0.21631
2977.55561,0.21840
2979.48408,0.22263
2981.41255,0.22889
2983.34102,0.23544
2985.26948,0.23598
2987.19795,0.22618
2989.12642,0.21633
2991.05489,0.21373
2992.98336,0.21405
2994.91183,0.21635
2996.84030,0.22115
2998.76877,0.22656
3000.69723,0.23027
3002.62570,0.22878
3004.55417,0.22260
3006.48264,0.21852
3008.41111,0.21885
3010.33958,0.21824
3012.26805,0.21398
3014.19651,0.20593
3016.12498,0.19540
3018.05345,0.19250
3019.98192,0.20261
3021.91039,0.21409
3023.83886,0.21938
3025.76733,0.21997
3027.69579,0.21980
3029.62426,0.22288
3031.55273,0.22427
3033.48120,0.22226
3035.40967,0.22301
3037.33814,0.22600
3039.26661,0.22653
3041.19508,0.22468
3043.12354,0.22398
3045.05201,0.22323
3046.98048,0.21998
3048.90895,0.21776
3050.83742,0.21922
3052.76589,0.22017
3054.69436,0.21697
3056.62282,0.21199
3058.55129,0.21142
3060.47976,0.21719
3062.40823,0.22169
3064.33670,0.21977
3066.26517,0.21630
3068.19364,0.21598
3070.12211,0.21900
3072.05057,0.22282
3073.97904,0.22240
3075.90751,0.21861
3077.83598,0.21855
3079.76445,0.22054
3081.69292,0.21581
3083.62139,0.21539
3085.54985,0.24062
3087.47832,0.26804
3089.40679,0.25844
3091.33526,0.23080
3093.26373,0.22044
3095.19220,0.22228
3097.12067,0.22299
3099.04914,0.22367
3100.97760,0.22314
3102.90607,0.21943
3104.83454,0.21786
3106.76301,0.22112
3108.69148,0.22426
3110.61995,0.22252
3112.54842,0.21761
3114.47688,0.21570
3116.40535,0.21857
3118.33382,0.21991
3120.26229,0.21737
3122.19076,0.21697
3124.11923,0.22073
3126.04770,0.22495
3127.97617,0.22632
3129.90463,0.22376
3131.83310,0.22334
3133.76157,0.22922
3135.69004,0.23371
3137.61851,0.23258
3139.54698,0.22982
3141.47545,0.22691
3143.40391,0.22170
3145.33238,0.21784
3147.26085,0.22216
3149.18932,0.23024
3151.11779,0.23342
3153.04626,0.22959
3154.97473,0.22491
3156.90320,0.22512
3158.83166,0.22494
3160.76013,0.22334
3162.68860,0.22560
3164.61707,0.23013
3166.54554,0.23512
3168.47401,0.23967
3170.40248,0.23984
3172.33094,0.23810
3174.25941,0.23948
3176.18788,0.24115
3178.11635,0.24047
3180.04482,0.23824
3181.97329,0.23547
3183.90176,0.23486
3185.83022,0.23779
3187.75869,0.23992
3189.68716,0.23499
3191.61563,0.22434
3193.54410,0.21607
3195.47257,0.21424
3197.40104,0.21459
3199.32951,0.21443
3201.25797,0.21741
3203.18644,0.22299
3205.11491,0.22749
3207.04338,0.23224
3208.97185,0.23664
3210.90032,0.23674
3212.82879,0.23446
3214.75725,0.23349
3216.68572,0.23047
3218.61419,0.22371
3220.54266,0.22175
3222.47113,0.22777
3224.39960,0.22952
3226.32807,0.22183
3228.25654,0.21918
3230.18500,0.22709
3232.11347,0.23305
3234.04194,0.22985
3235.97041,0.22151
3237.89888,0.21655
3239.82735,0.21678
3241.75582,0.22429
3243.68428,0.24058
3245.61275,0.24810
3247.54122,0.23863
3249.46969,0.22491
3251.39816,0.21657
3253.32663,0.21739
3255.25510,0.22211
3257.18357,0.22370
3259.11203,0.22362
3261.04050,0.22379
3262.96897,0.22354
3264.89744,0.22370
3266.82591,0.22418
3268.75438,0.22439
3270.68285,0.22568
3272.61131,0.22527
3274.53978,0.22220
3276.46825,0.22103
3278.39672,0.22186
3280.32519,0.22288
3282.25366,0.22434
3284.18213,0.22680
3286.11060,0.22918
3288.03906,0.22755
3289.96753,0.22417
3291.89600,0.22429
3293.82447,0.22331
3295.75294,0.21945
3297.68141,0.21872
3299.60988,0.21971
3301.53834,0.22092
3303.46681,0.22453
3305.39528,0.22736
3307.32375,0.22749
3309.25222,0.22712
3311.18069,0.22792
3313.10916,0.23070
3315.03763,0.23271
3316.96609,0.23071
3318.89456,0.22802
3320.82303,0.22897
3322.75150,0.23123
3324.67997,0.23141
3326.60844,0.23095
3328.53691,0.23145
3330.46537,0.23153
3332.39384,0.23175
3334.32231,0.23569
3336.25078,0.24163
3338.17925,0.23988
3340.10772,0.22991
3342.03619,0.22206
3343.96466,0.21860
3345.89312,0.21779
3347.82159,0.22025
3349.75006,0.22369
3351.67853,0.22575
3353.60700,0.22520
3355.53547,0.22382
3357.46394,0.22600
3359.39240,0.22817
3361.32087,0.22412
3363.24934,0.22022
3365.17781,0.22259
3367.10628,0.22575
3369.03475,0.22682
3370.96322,0.22758
3372.89168,0.22867
3374.82015,0.22839
3376.74862,0.22703
3378.67709,0.22765
3380.60556,0.22646
3382.53403,0.22234
3384.46250,0.22042
3386.39097,0.21922
3388.31943,0.21703
3390.24790,0.21498
3392.17637,0.21478
3394.10484,0.22132
3396.03331,0.23076
3397.96178,0.23048
3399.89025,0.22254
3401.81871,0.21850
3403.74718,0.21733
3405.67565,0.21845
3407.60412,0.22418
3409.53259,0.22601
3411.46106,0.22093
3413.38953,0.21690
3415.31800,0.21734
3417.24646,0.22036
3419.17493,0.22299
3421.10340,0.22310
3423.03187,0.22053
3424.96034,0.21827
3426.88881,0.21895
3428.81728,0.21835
3430.74574,0.21285
3432.67421,0.20789
3434.60268,0.20967
3436.53115,0.21826
3438.45962,0.22499
3440.38809,0.22289
3442.31656,0.22208
3444.24503,0.22764
3446.17349,0.22856
3448.10196,0.22200
3450.03043,0.21426
3451.95890,0.20822
3453.88737,0.20390
3455.81584,0.20449
3457.74431,0.20930
3459.67277,0.20999
3461.60124,0.20669
3463.52971,0.20501
3465.45818,0.20694
3467.38665,0.21222
3469.31512,0.21407
3471.24359,0.20651
3473.17206,0.19714
3475.10052,0.19661
3477.02899,0.20037
3478.95746,0.19855
3480.88593,0.19359
3482.81440,0.19391
3484.74287,0.20066
3486.67134,0.20661
3488.59980,0.20428
3490.52827,0.19611
3492.45674,0.18898
3494.38521,0.18702
3496.31368,0.19198
3498.24215,0.19794
3500.17062,0.20098
3502.09909,0.20214
3504.02755,0.19547
3505.95602,0.18402
3507.88449,0.18383
3509.81296,0.19280
3511.74143,0.19221
3513.66990,0.18138
3515.59837,0.17455
3517.52683,0.17759
3519.45530,0.18374
3521.38377,0.18671
3523.31224,0.18853
3525.24071,0.19395
3527.16918,0.20036
3529.09765,0.19798
3531.02611,0.18984
3532.95458,0.18574
3534.88305,0.18542
3536.81152,0.18328
3538.73999,0.17848
3540.66846,0.17682
3542.59693,0.17761
3544.52540,0.17835
3546.45386,0.18059
3548.38233,0.18142
3550.31080,0.17956
3552.23927,0.17704
3554.16774,0.17385
3556.09621,0.17161
3558.02468,0.17366
3559.95314,0.17754
3561.88161,0.17960
3563.81008,0.18389
3565.73855,0.19087
3567.66702,0.18883
3569.59549,0.17852
3571.52396,0.17181
3573.45243,0.16854
3575.38089,0.16850
3577.30936,0.17232
3579.23783,0.17234
3581.16630,0.16651
3583.09477,0.16711
3585.02324,0.17698
3586.95171,0.18036
3588.88017,0.16786
3590.80864,0.15920
3592.73711,0.16217
3594.66558,0.16791
3596.59405,0.16933
3598.52252,0.16686
3600.45099,0.16171
3602.37946,0.15724
3604.30792,0.15828
3606.23639,0.16658
3608.16486,0.17533
3610.09333,0.17361
3612.02180,0.16677
3613.95027,0.16345
3615.87874,0.16468
3617.80720,0.16678
3619.73567,0.16237
3621.66414,0.15805
3623.59261,0.16314
3625.52108,0.17057
3627.44955,0.17061
3629.37802,0.15770
3631.30649,0.14943
3633.23495,0.14957
3635.16342,0.14782
3637.09189,0.14485
3639.02036,0.14465
3640.94883,0.14931
3642.87730,0.15610
3644.80577,0.16324
3646.73423,0.17486
3648.66270,0.18092
3650.59117,0.16439
3652.51964,0.15100
3654.44811,0.14788
3656.37658,0.14583
3658.30505,0.14206
3660.23352,0.14070
3662.16198,0.14246
3664.09045,0.14442
3666.01892,0.14695
3667.94739,0.15615
3669.87586,0.16859
3671.80433,0.16870
3673.73280,0.16506
3675.66126,0.15953
3677.58973,0.14763
3679.51820,0.14101
3681.44667,0.13774
3683.37514,0.13354
3685.30361,0.13178
3687.23208,0.13493
3689.16055,0.14412
3691.08901,0.15295
3693.01748,0.15039
3694.94595,0.14105
3696.87442,0.13152
3698.80289,0.12789
3700.73136,0.13260
3702.65983,0.13449
3704.58829,0.13031
3706.51676,0.13486
3708.44523,0.15068
3710.37370,0.16473
3712.30217,0.16078
3714.23064,0.14643
3716.15911,0.13458
3718.08757,0.12770
3720.01604,0.12913
3721.94451,0.13507
3723.87298,0.13866
3725.80145,0.13903
3727.72992,0.13588
3729.65839,0.13593
3731.58686,0.14380
3733.51532,0.15111
3735.44379,0.14870
3737.37226,0.14530
3739.30073,0.14829
3741.22920,0.15370
3743.15767,0.15690
3745.08614,0.15686
3747.01460,0.15985
3748.94307,0.16963
3750.87154,0.17573
3752.80001,0.16211
3754.72848,0.14901
3756.65695,0.14515
3758.58542,0.14377
3760.51389,0.14286
3762.44235,0.14479
3764.37082,0.14563
3766.29929,0.13905
3768.22776,0.13159
3770.15623,0.13312
3772.08470,0.13443
3774.01317,0.13030
3775.94163,0.12716
3777.87010,0.12504
3779.79857,0.12058
3781.72704,0.11656
3783.65551,0.11531
3785.58398,0.11622
3787.51245,0.11850
3789.44092,0.12097
3791.36938,0.12423
3793.29785,0.12962
3795.22632,0.13792
3797.15479,0.14370
3799.08326,0.14224
3801.01173,0.13821
3802.94020,0.13203
3804.86866,0.12921
3806.79713,0.13187
3808.72560,0.12973
3810.65407,0.12385
3812.58254,0.12413
3814.51101,0.13158
3816.43948,0.13857
3818.36795,0.14192
3820.29641,0.14446
3822.22488,0.13861
3824.15335,0.12991
3826.08182,0.12962
3828.01029,0.13414
3829.93876,0.13359
3831.86723,0.13096
3833.79569,0.13418
3835.72416,0.14236
3837.65263,0.14897
3839.58110,0.14433
3841.50957,0.13499
3843.43804,0.13188
3845.36651,0.13237
3847.29498,0.13256
3849.22344,0.13470
3851.15191,0.14131
3853.08038,0.14803
3855.00885,0.13948
3856.93732,0.12679
3858.86579,0.12138
3860.79426,0.12395
3862.72272,0.13034
3864.65119,0.13143
3866.57966,0.12641
3868.50813,0.12441
3870.43660,0.13132
3872.36507,0.13916
3874.29354,0.13861
3876.22200,0.13313
3878.15047,0.12966
3880.07894,0.13253
3882.00741,0.13850
3883.93588,0.13967
3885.86435,0.13586
3887.79282,0.13027
3889.72129,0.12598
3891.64975,0.12122
3893.57822,0.11152
3895.50669,0.10470
3897.43516,0.11086
3899.36363,0.12644
3901.29210,0.13554
3903.22057,0.13479
3905.14903,0.13060
3907.07750,0.12375
3909.00597,0.11621
3910.93444,0.11186
3912.86291,0.11368
3914.79138,0.12034
3916.71985,0.12273
3918.64832,0.11679
3920.57678,0.11363
3922.50525,0.11712
3924.43372,0.12027
3926.36219,0.11928
3928.29066,0.11813
3930.21913,0.11764
3932.14760,0.11453
3934.07606,0.11234
3936.00453,0.11661
3937.93300,0.12328
3939.86147,0.12371
3941.78994,0.11732
3943.71841,0.11160
3945.64688,0.11075
3947.57535,0.11206
3949.50381,0.10925
3951.43228,0.10272
3953.36075,0.10118
3955.28922,0.10480
3957.21769,0.10773
3959.14616,0.10838
3961.07463,0.10652
3963.00309,0.10191
3964.93156,0.09736
3966.86003,0.09667
3968.78850,0.09846
3970.71697,0.10036
3972.64544,0.10433
3974.57391,0.10879
3976.50238,0.11058
3978.43084,0.11159
3980.35931,0.11349
3982.28778,0.11281
3984.21625,0.10325
3986.14472,0.08923
3988.07319,0.08297
3990.00166,0.08501
3991.93012,0.09075
3993.85859,0.09946
3995.78706,0.10619
3997.71553,0.10619
3999.64400,0.10280
4001.57247,0.10163
4003.50094,0.10329
4005.42941,0.10338
4007.35787,0.09975
4009.28634,0.09724
4011.21481,0.09796
4013.14328,0.09740
4015.07175,0.09685
4017.00022,0.09959
4018.92869,0.10013
4020.85715,0.09338
4022.78562,0.08652
4024.71409,0.08854
4026.64256,0.09422
4028.57103,0.09620
4030.49950,0.09524
4032.42797,0.09042
4034.35644,0.08346
4036.28490,0.08002
4038.21337,0.08221
4040.14184,0.08827
4042.07031,0.09465
4043.99878,0.09785
4045.92725,0.09624
4047.85572,0.09392
4049.78418,0.09408
4051.71265,0.09484
4053.64112,0.09370
4055.56959,0.09037
4057.49806,0.08989
4059.42653,0.09082
4061.35500,0.08779
4063.28346,0.08505
4065.21193,0.08461
4067.14040,0.08464
4069.06887,0.08726
4070.99734,0.09310
4072.92581,0.09669
4074.85428,0.09497
4076.78275,0.09292
4078.71121,0.09323
4080.63968,0.09585
4082.56815,0.09988
4084.49662,0.10051
4086.42509,0.09486
4088.35356,0.08643
4090.28203,0.08098
4092.21049,0.07907
4094.13896,0.08227
4096.06743,0.09075
4097.99590,0.09519
4099.92437,0.09374
4101.85284,0.09196
4103.78131,0.09229
4105.70978,0.09371
4107.63824,0.08884
4109.56671,0.08017
4111.49518,0.07919
4113.42365,0.08384
4115.35212,0.08769
4117.28059,0.08703
4119.20906,0.07974
4121.13752,0.07392
4123.06599,0.07405
4124.99446,0.07418
4126.92293,0.07147
4128.85140,0.06841
4130.77987,0.06783
4132.70834,0.06760
4134.63681,0.06777
4136.56527,0.07417
4138.49374,0.08378
4140.42221,0.08585
4142.35068,0.07736
4144.27915,0.06821
4146.20762,0.06872
4148.13609,0.07537
4150.06455,0.07982
4151.99302,0.07874
4153.92149,0.07364
4155.84996,0.07089
4157.77843,0.07129
4159.70690,0.07165
4161.63537,0.07077
4163.56384,0.06740
4165.49230,0.06470
4167.42077,0.06671
4169.34924,0.07039
4171.27771,0.07094
4173.20618,0.06930
4175.13465,0.06690
4177.06312,0.06656
4178.99158,0.07110
4180.92005,0.07185
4182.84852,0.06507
4184.77699,0.05925
4186.70546,0.05807
4188.63393,0.06161
4190.56240,0.06603
4192.49087,0.06322
4194.41933,0.05554
4196.34780,0.05538
4198.27627,0.06556
4200.20474,0.07417
4202.13321,0.07132
4204.06168,0.06105
4205.99015,0.05745
4207.91861,0.06390
4209.84708,0.06628
4211.77555,0.06012
4213.70402,0.05572
4215.63249,0.05685
4217.56096,0.05674
4219.48943,0.05088
4221.41789,0.04501
4223.34636,0.04531
4225.27483,0.04840
4227.20330,0.04783
4229.13177,0.04671
4231.06024,0.04983
4232.98871,0.05256
4234.91718,0.05449
4236.84564,0.05674
4238.77411,0.05624
4240.70258,0.05629
4242.63105,0.05651
4244.55952,0.05616
4246.48799,0.06032
4248.41646,0.06145
4250.34492,0.05371
4252.27339,0.04669
4254.20186,0.04737
4256.13033,0.05353
4258.05880,0.05676
4259.98727,0.05715
4261.91574,0.05975
4263.84421,0.05868
4265.77267,0.05375
4267.70114,0.05177
4269.62961,0.05048
4271.55808,0.04785
4273.48655,0.04704
4275.41502,0.04451
4277.34349,0.03863
4279.27195,0.03738
4281.20042,0.04215
4283.12889,0.04820
4285.05736,0.05281
4286.98583,0.05110
4288.91430,0.04224
4290.84277,0.03645
4292.77124,0.03864
4294.69970,0.04122
4296.62817,0.03996
4298.55664,0.03518
4300.48511,0.03156
4302.41358,0.03541
4304.34205,0.04359
4306.27052,0.05064
4308.19898,0.05319
4310.12745,0.04843
4312.05592,0.04045
4313.98439,0.03816
4315.91286,0.04390
4317.84133,0.05054
4319.76980,0.05019
4321.69827,0.04062
4323.62673,0.03292
4325.55520,0.03940
4327.48367,0.04849
4329.41214,0.04228
4331.34061,0.02529
4333.26908,0.01701
4335.19755,0.02464
4337.12601,0.03363
4339.05448,0.03413
4340.98295,0.03465
4342.91142,0.03919
4344.83989,0.04124
4346.76836,0.03845
4348.69683,0.03611
4350.62530,0.04630
4352.55376,0.06922
4354.48223,0.08450
4356.41070,0.07478
4358.33917,0.04417
4360.26764,0.02096
4362.19611,0.02002
4364.12458,0.02497
4366.05304,0.02846
4367.98151,0.03198
4369.90998,0.03410
4371.83845,0.03814
4373.76692,0.03884
4375.69539,0.02964
4377.62386,0.01592
4379.55232,0.01025
4381.48079,0.01930
4383.40926,0.02920
4385.33773,0.02568
4387.26620,0.01379
4389.19467,0.00532
4391.12314,0.00391
4393.05161,0.00274
4394.98007,0.00103
4396.90854,0.00412
4398.83701,0.01201
4400.76548,0.01999
4402.69395,0.02155
4404.62242,0.01886
4406.55089,0.01728
4408.47935,0.01685
4410.40782,0.01586
4412.33629,0.01417
4414.26476,0.01732
4416.19323,0.02460
4418.12170,0.02666
4420.05017,0.02086
4421.97864,0.01241
4423.90710,0.00291
4425.83557,-0.00769
4427.76404,-0.01126
4429.69251,-0.00532
4431.62098,0.00137
4433.54945,0.00328
4435.47792,0.00375
4437.40638,0.00697
4439.33485,0.01056
4441.26332,0.01330
4443.19179,0.01622
4445.12026,0.01828
4447.04873,0.02161
4448.97720,0.03012
4450.90567,0.03848
4452.83413,0.03703
4454.76260,0.02552
4456.69107,0.01464
4458.61954,0.01442
4460.54801,0.01962
4462.47648,0.01775
4464.40495,0.00824
4466.33341,0.00442
4468.26188,0.00953
4470.19035,0.01382
4472.11882,0.01524
4474.04729,0.01087
4475.97576,0.00065
4477.90423,-0.00499
4479.83270,-0.00023
4481.76116,0.00815
4483.68963,0.01064
4485.61810,0.00988
4487.54657,0.00637
4489.47504,0.00030
4491.40351,0.00198
4493.33198,0.00858
4495.26044,0.01104
4497.18891,0.01174
4499.11738,0.01245
4501.04585,0.01082
4502.97432,0.00550
4504.90279,0.00206
4506.83126,0.00358
4508.75973,0.00072
4510.68819,-0.00419
4512.61666,-0.00251
4514.54513,0.00212
4516.47360,0.00812
4518.40207,0.01165
4520.33054,0.01224
4522.25901,0.01717
4524.18747,0.02227
4526.11594,0.02608
4528.04441,0.02699
4529.97288,0.02038
4531.90135,0.01548
4533.82982,0.01336
4535.75829,0.00762
4537.68676,0.00366
4539.61522,0.00627
4541.54369,0.00586
4543.47216,-0.00191
4545.40063,-0.00692
4547.32910,-0.00798
4549.25757,-0.00780
4551.18604,-0.00504
4553.11450,-0.00081
4555.04297,0.00335
4556.97144,0.00677
4558.89991,0.01441
4560.82838,0.02473
4562.75685,0.02331
4564.68532,0.00795
4566.61378,-0.00370
4568.54225,-0.00340
4570.47072,0.00468
4572.39919,0.01452
4574.32766,0.01693
4576.25613,0.01465
4578.18460,0.01399
4580.11307,0.01191
4582.04153,0.01059
4583.97000,0.01211
4585.89847,0.01224
4587.82694,0.01214
4589.75541,0.01282
4591.68388,0.01224
4593.61235,0.01062
4595.54081,0.00641
4597.46928,0.00176
4599.39775,-0.00000
4601.32622,-0.00174
4603.25469,-0.00600
4605.18316,-0.00663
4607.11163,0.00167
4609.04010,0.00875
4610.96856,0.01255
4612.89703,0.01543
4614.82550,0.01168
4616.75397,0.01052
4618.68244,0.01589
4620.61091,0.01813
4622.53938,0.01773
4624.46784,0.01345
4626.39631,0.00659
4628.32478,0.00645
4630.25325,0.01058
4632.18172,0.01020
4634.11019,0.00524
4636.03866,0.00105
4637.96713,0.00266
4639.89559,0.00575
4641.82406,0.00134
4643.75253,-0.00105
4645.68100,0.00962
4647.60947,0.02123
4649.53794,0.01799
4651.46641,0.00755
4653.39487,0.00614
4655.32334,0.00592
4657.25181,-0.00102
4659.18028,-0.00457
4661.10875,-0.00098
4663.03722,0.00587
4664.96569,0.00646
4666.89416,-0.00094
4668.82262,-0.00080
4670.75109,0.00796
4672.67956,0.01529
4674.60803,0.02256
4676.53650,0.02691
4678.46497,0.02394
4680.39344,0.02286
4682.32190,0.02485
4684.25037,0.01955
4686.17884,0.00523
4688.10731,-0.01157
4690.03578,-0.01101
4691.96425,0.00810
4693.89272,0.01431
4695.82119,0.00716
4697.74965,0.00707
4699.67812,0.01209
4701.60659,0.01302
4703.53506,0.00506
4705.46353,-0.00356
4707.39200,-0.00253
4709.32047,0.00091
4711.24893,0.00406
4713.17740,0.00806
4715.10587,0.00710
4717.03434,0.00786
4718.96281,0.01225
4720.89128,0.00647
4722.81975,-0.01378
4724.74821,-0.03080
4726.67668,-0.02530
4728.60515,-0.01091
4730.53362,-0.00713
4732.46209,-0.00759
4734.39056,-0.00919
4736.31903,-0.01415
4738.24750,-0.01536
4740.17596,-0.00728
4742.10443,0.00327
4744.03290,0.00543
4745.96137,0.00739
4747.88984,0.01659
4749.81831,0.02238
4751.74678,0.02119
4753.67524,0.01840
4755.60371,0.01133
4757.53218,0.00142
4759.46065,-0.00892
4761.38912,-0.01408
4763.31759,-0.00739
4765.24606,-0.00160
4767.17453,-0.00965
4769.10299,-0.01877
4771.03146,-0.01129
4772.95993,0.00438
4774.88840,0.01060
4776.81687,0.01307
4778.74534,0.01696
4780.67381,0.01524
4782.60227,0.00542
4784.53074,-0.00405
4786.45921,-0.00189
4788.38768,0.00525
4790.31615,0.00526
4792.24462,0.00030
4794.17309,-0.00038
4796.10156,0.00551
4798.03002,0.01202
4799.95849,0.01612
4801.88696,0.01363
4803.81543,0.00104
4805.74390,-0.01258
4807.67237,-0.01544
4809.60084,-0.00554
4811.52930,0.01117
4813.45777,0.02047
4815.38624,0.01458
4817.31471,0.00331
4819.24318,-0.00533
4821.17165,-0.01217
4823.10012,-0.01373
4825.02859,0.00685
4826.95705,0.04401
4828.88552,0.05743
4830.81399,0.04442
4832.74246,0.03161
4834.67093,0.02498
4836.59940,0.02276
4838.52787,0.01677
4840.45633,0.01160
4842.38480,0.01577
4844.31327,0.01339
4846.24174,0.00735
4848.17021,0.00823
4850.09868,0.00041
4852.02715,-0.01183
4853.95562,-0.00483
4855.88408,0.00417
4857.81255,-0.00855
4859.74102,-0.01939
4861.66949,-0.00978
4863.59796,0.00396
4865.52643,0.00719
4867.45490,0.00224
4869.38336,0.00377
4871.31183,0.01647
4873.24030,0.03011
4875.16877,0.02978
4877.09724,0.01731
4879.02571,0.01385
4880.95418,0.01306
4882.88265,0.00760
4884.81111,0.02030
4886.73958,0.03324
4888.66805,0.01738
4890.59652,0.00020
4892.52499,0.00708
4894.45346,0.02331
4896.38193,0.02391
4898.31039,0.00628
4900.23886,-0.01189
4902.16733,-0.01879
4904.09580,-0.00700
4906.02427,0.01203
4907.95274,0.02363
4909.88121,0.03094
4911.80967,0.02750
4913.73814,0.01781
4915.66661,0.01870
4917.59508,0.02474
4919.52355,0.02152
4921.45202,0.01779
4923.38049,0.02677
4925.30896,0.03023
4927.23742,0.01227
4929.16589,-0.00941
4931.09436,-0.01563
4933.02283,-0.01209
4934.95130,-0.00916
4936.87977,-0.00079
4938.80824,0.01114
4940.73670,0.01435
4942.66517,0.00807
4944.59364,-0.00091
4946.52211,-0.00925
4948.45058,-0.01598
4950.37905,-0.01568
4952.30752,-0.00828
4954.23599,-0.00584
4956.16445,-0.00658
4958.09292,0.00773
4960.02139,0.03711
4961.94986,0.05278
4963.87833,0.03311
4965.80680,-0.00266
4967.73527,-0.01994
4969.66373,-0.01763
4971.59220,-0.01493
4973.52067,-0.01561
4975.44914,-0.01517
4977.37761,-0.01146
4979.30608,-0.00527
4981.23455,0.00533
4983.16302,0.02400
4985.09148,0.03523
4987.01995,0.02984
4988.94842,0.01834
4990.87689,0.00257
4992.80536,-0.01377
4994.73383,-0.01772
4996.66230,-0.01148
4998.59076,-0.00769
5000.51923,-0.00502
5002.44770,0.00322
5004.37617,0.01504
5006.30464,0.02500
5008.23311,0.03025
5010.16158,0.02977
5012.09005,0.02066
5014.01851,0.01314
5015.94698,0.02031
5017.87545,0.02239
5019.80392,0.00527
5021.73239,-0.01033
5023.66086,-0.01024
5025.58933,0.00442
5027.51779,0.02201
5029.44626,0.02382
5031.37473,0.01321
5033.30320,0.00288
5035.23167,-0.00477
5037.16014,0.00427
5039.08861,0.02601
5041.01708,0.02225
5042.94554,-0.00514
5044.87401,-0.01759
5046.80248,-0.01096
5048.73095,-0.00611
5050.65942,0.00038
5052.58789,0.01925
5054.51636,0.03187
5056.44482,0.02625
5058.37329,0.02032
5060.30176,0.02315
5062.23023,0.02076
5064.15870,0.00461
5066.08717,-0.01316
5068.01564,-0.01972
5069.94410,-0.01452
5071.87257,0.00264
5073.80104,0.02122
5075.72951,0.02290
5077.65798,0.01173
5079.58645,0.00228
5081.51492,0.00222
5083.44339,0.00943
5085.37185,0.01820
5087.30032,0.03625
5089.22879,0.04851
5091.15726,0.02934
5093.08573,0.01289
5095.01420,0.02771
5096.94267,0.03753
5098.87113,0.02450
5100.79960,0.01556
5102.72807,0.01766
5104.65654,0.01563
5106.58501,0.00397
5108.51348,-0.00848
5110.44195,-0.01519
5112.37042,-0.01871
5114.29888,-0.01513
5116.22735,-0.00284
5118.15582,0.00686
5120.08429,0.00895
5122.01276,0.00973
5123.94123,0.00513
5125.86970,-0.00892
5127.79816,-0.01375
5129.72663,-0.00005
5131.65510,0.01792
5133.58357,0.02586
5135.51204,0.02108
5137.44051,0.01154
5139.36898,0.00536
5141.29745,0.01724
5143.22591,0.04428
5145.15438,0.05509
5147.08285,0.03901
5149.01132,0.02232
5150.93979,0.03828
5152.86826,0.07080
5154.79673,0.06724
5156.72519,0.02778
5158.65366,0.00010
5160.58213,-0.00594
5162.51060,0.00201
5164.43907,0.03301
5166.36754,0.06402
5168.29601,0.06853
5170.22448,0.06064
5172.15294,0.05323
5174.08141,0.04282
5176.00988,0.03035
5177.93835,0.02073
5179.86682,0.01038
5181.79529,-0.00511
5183.72376,-0.01593
5185.65222,-0.00239
5187.58069,0.02108
5189.50916,0.02107
5191.43763,0.01861
5193.36610,0.03261
5195.29457,0.04431
5197.22304,0.04531
5199.15151,0.02652
5201.07997,0.00136
5203.00844,-0.00022
5204.93691,0.01448
5206.86538,0.02814
5208.79385,0.03984
5210.72232,0.03800
5212.65079,0.02525
5214.57925,0.02581
5216.50772,0.04293
5218.43619,0.05941
5220.36466,0.05333
5222.29313,0.03608
5224.22160,0.03868
5226.15007,0.05043
5228.07854,0.04765
5230.00700,0.02813
5231.93547,0.00457
5233.86394,0.00130
5235.79241,0.01948
5237.72088,0.03581
5239.64935,0.04330
5241.57782,0.05599
5243.50628,0.06037
5245.43475,0.03386
5247.36322,-0.00484
5249.29169,-0.01620
5251.22016,0.01592
5253.14863,0.04760
5255.07710,0.04839
5257.00556,0.05047
5258.93403,0.05802
5260.86250,0.04898
5262.79097,0.04267
5264.71944,0.05571
5266.64791,0.06397
5268.57638,0.04892
5270.50485,0.01914
5272.43331,-0.00191
5274.36178,-0.00254
5276.29025,0.01169
5278.21872,0.03324
5280.14719,0.05064
5282.07566,0.03464
5284.00413,-0.01309
5285.93259,-0.02553
5287.86106,0.01233
5289.78953,0.03939
5291.71800,0.03704
5293.64647,0.02263
5295.57494,0.00890
5297.50341,0.02440
5299.43188,0.05923
5301.36034,0.04720
5303.28881,-0.01111
5305.21728,-0.03326
5307.14575,0.01553
5309.07422,0.07322
5311.00269,0.07025
5312.93116,0.03886
5314.85962,0.02232
5316.78809,0.00903
5318.71656,0.00189
5320.64503,0.01098
5322.57350,0.02419
5324.50197,0.02581
5326.43044,0.01598
5328.35891,0.01642
5330.28737,0.03778
5332.21584,0.06950
5334.14431,0.09049
5336.07278,0.08797
5338.00125,0.07127
5339.92972,0.05822
5341.85819,0.04215
5343.78665,0.01377
5345.71512,0.01216
5347.64359,0.04216
5349.57206,0.05664
5351.50053,0.05620
5353.42900,0.05821
5355.35747,0.05175
5357.28594,0.03200
5359.21440,0.01333
5361.14287,0.00141
5363.07134,0.00222
5364.99981,0.03893
5366.92828,0.08793
5368.85675,0.09984
5370.78522,0.08003
5372.71368,0.07232
5374.64215,0.10344
5376.57062,0.12581
5378.49909,0.09355
5380.42756,0.05725
5382.35603,0.05548
5384.28450,0.06939
5386.21297,0.06455
5388.14143,0.05545
5390.06990,0.05697
5391.99837,0.04388
5393.92684,0.01655
5395.85531,0.01448
5397.78378,0.03917
5399.71225,0.06274
5401.64071,0.07398
5403.56918,0.06958
5405.49765,0.04453
5407.42612,0.01187
5409.35459,0.00402
5411.28306,0.01966
5413.21153,0.04109
5415.13999,0.07153
5417.06846,0.09065
5418.99693,0.08887
5420.92540,0.07308
5422.85387,0.04381
5424.78234,0.02671
5426.71081,0.04146
5428.63928,0.06937
5430.56774,0.09332
5432.49621,0.11173
5434.42468,0.11903
5436.35315,0.10376
5438.28162,0.06821
5440.21009,0.03129
5442.13856,0.00227
5444.06702,-0.01503
5445.99549,0.00460
5447.92396,0.05067
5449.85243,0.06464
5451.78090,0.04342
5453.70937,0.02678
5455.63784,0.03131
5457.56631,0.05451
5459.49477,0.08200
5461.42324,0.09212
5463.35171,0.07512
5465.28018,0.05753
5467.20865,0.07297
5469.13712,0.10418
5471.06559,0.10606
5472.99405,0.08553
5474.92252,0.07550
5476.85099,0.07868
5478.77946,0.07350
5480.70793,0.06210
5482.63640,0.06231
5484.56487,0.07353
5486.49334,0.07916
5488.42180,0.05733
5490.35027,0.02265
5492.27874,0.02165
5494.20721,0.03500
5496.13568,0.02226
5498.06415,0.01707
5499.99262,0.03924
5501.92108,0.04346
5503.84955,0.03721
5505.77802,0.06295
5507.70649,0.08660
5509.63496,0.07533
5511.56343,0.06098
5513.49190,0.06241
5515.42037,0.06429
5517.34883,0.06087
5519.27730,0.06196
5521.20577,0.06539
5523.13424,0.06020
5525.06271,0.04809
5526.99118,0.04264
5528.91965,0.03456
5530.84811,0.02173
5532.77658,0.03267
5534.70505,0.05693
5536.63352,0.06669
5538.56199,0.07598
5540.49046,0.08730
5542.41893,0.08394
5544.34740,0.07930
5546.27586,0.07503
5548.20433,0.06304
5550.13280,0.05545
5552.06127,0.05442
5553.98974,0.05391
5555.91821,0.05677
5557.84668,0.07013
5559.77514,0.08332
5561.70361,0.08892
5563.63208,0.09108
5565.56055,0.08955
5567.48902,0.08983
5569.41749,0.08860
5571.34596,0.07377
5573.27443,0.06211
5575.20289,0.07734
5577.13136,0.08660
5579.05983,0.07146
5580.98830,0.06925
5582.91677,0.09209
5584.84524,0.11731
5586.77371,0.13359
5588.70217,0.12428
5590.63064,0.08252
5592.55911,0.06550
5594.48758,0.09802
5596.41605,0.11158
5598.34452,0.07532
5600.27299,0.04776
5602.20145,0.05990
5604.12992,0.06744
5606.05839,0.05393
5607.98686,0.03420
5609.91533,0.02050
5611.84380,0.03108
5613.77227,0.04873
5615.70074,0.05459
5617.62920,0.04057
5619.55767,0.00351
5621.48614,-0.01378
5623.41461,0.01650
5625.34308,0.06794
5627.27155,0.09767
5629.20002,0.07523
5631.12848,0.03058
5633.05695,0.02716
5634.98542,0.06186
5636.91389,0.07525
5638.84236,0.05503
5640.77083,0.04918
5642.69930,0.08485
5644.62777,0.11376
5646.55623,0.09732
5648.48470,0.07921
5650.41317,0.07110
5652.34164,0.04583
5654.27011,0.03745
5656.19858,0.06927
5658.12705,0.09938
5660.05551,0.09764
5661.98398,0.09242
5663.91245,0.10297
5665.84092,0.09296
5667.76939,0.05576
5669.69786,0.03251
5671.62633,0.03162
5673.55480,0.02073
5675.48326,0.01692
5677.41173,0.05336
5679.34020,0.07542
5681.26867,0.06722
5683.19714,0.07594
5685.12561,0.08605
5687.05408,0.07893
5688.98254,0.06002
5690.91101,0.02589
5692.83948,0.01302
5694.76795,0.04781
5696.69642,0.09040
5698.62489,0.11669
5700.55336,0.13075
5702.48183,0.12429
5704.41029,0.10246
5706.33876,0.07351
5708.26723,0.04157
5710.19570,0.02786
5712.12417,0.04840
5714.05264,0.08132
5715.98111,0.11378
5717.90957,0.13552
5719.83804,0.09583
5721.76651,0.03130
5723.69498,0.03646
5725.62345,0.09127
5727.55192,0.11989
5729.48039,0.10768
5731.40886,0.08767
5733.33732,0.05852
5735.26579,0.01641
5737.19426,0.01758
5739.12273,0.06894
5741.05120,0.11433
5742.97967,0.14642
5744.90814,0.16959
5746.83660,0.18556
5748.76507,0.19526
5750.69354,0.15169
5752.62201,0.05924
5754.55048,0.02437
5756.47895,0.06391
5758.40742,0.09539
5760.33588,0.10329
5762.26435,0.10637
5764.19282,0.09748
5766.12129,0.10005
5768.04976,0.11633
5769.97823,0.10504
5771.90670,0.07425
5773.83517,0.05602
5775.76363,0.05586
5777.69210,0.07870
5779.62057,0.09114
5781.54904,0.06351
5783.47751,0.05089
5785.40598,0.08499
5787.33445,0.12848
5789.26291,0.14781
5791.19138,0.11350
5793.11985,0.05493
5795.04832,0.05811
5796.97679,0.11240
5798.90526,0.13830
5800.83373,0.12720
5802.76220,0.11789
5804.69066,0.13608
5806.61913,0.17022
5808.54760,0.17255
5810.47607,0.11568
5812.40454,0.06420
5814.33301,0.09090
5816.26148,0.13802
5818.18994,0.12535
5820.11841,0.06831
5822.04688,0.03539
5823.97535,0.06399
5825.90382,0.10589
5827.83229,0.11642
5829.76076,0.11343
5831.68923,0.08865
5833.61769,0.06241
5835.54616,0.09087
5837.47463,0.12737
5839.40310,0.13354
5841.33157,0.12897
5843.26004,0.09919
5845.18851,0.05164
5847.11697,0.03244
5849.04544,0.05535
5850.97391,0.07770
5852.90238,0.06142
5854.83085,0.02351
5856.75932,-0.00890
5858.68779,-0.00931
5860.61626,0.05292
5862.54472,0.14124
5864.47319,0.18469
5866.40166,0.16813
5868.33013,0.10960
5870.25860,0.05698
5872.18707,0.06391
5874.11554,0.09894
5876.04400,0.09393
5877.97247,0.06798
5879.90094,0.04027
5881.82941,-0.00101
5883.75788,-0.01158
5885.68635,0.00363
5887.61482,0.00486
5889.54329,-0.00075
5891.47175,0.00042
5893.40022,0.03066
5895.32869,0.08701
5897.25716,0.11332
5899.18563,0.10440
5901.11410,0.12136
5903.04257,0.15081
5904.97103,0.15373
5906.89950,0.17339
5908.82797,0.19868
5910.75644,0.15873
5912.68491,0.08415
5914.61338,0.05123
5916.54185,0.05623
5918.47032,0.06840
5920.39878,0.08331
5922.32725,0.09409
5924.25572,0.12218
5926.18419,0.16375
5928.11266,0.16836
5930.04113,0.15215
5931.96960,0.13063
5933.89806,0.10183
5935.82653,0.11257
5937.75500,0.13481
5939.68347,0.11505
5941.61194,0.10644
5943.54041,0.13723
5945.46888,0.15845
5947.39734,0.15352
5949.32581,0.10459
5951.25428,0.03167
5953.18275,0.01537
5955.11122,0.05288
5957.03969,0.08130
5958.96816,0.06333
5960.89663,0.03036
5962.82509,0.03172
5964.75356,0.05099
5966.68203,0.07799
5968.61050,0.10041
5970.53897,0.07043
5972.46744,-0.00210
5974.39591,-0.02857
5976.32437,0.04317
5978.25284,0.14110
5980.18131,0.17455
5982.10978,0.16471
5984.03825,0.15197
5985.96672,0.12376
5987.89519,0.08993
5989.82366,0.05514
5991.75212,0.03307
5993.68059,0.05333
5995.60906,0.08110
5997.53753,0.07464
5999.46600,0.04064
6001.39447,0.00520
6003.32294,-0.00036
6005.25140,0.00920
6007.17987,-0.00802
6009.10834,-0.03986
6011.03681,-0.02107
6012.96528,0.06188
6014.89375,0.11318
6016.82222,0.06136
6018.75069,-0.02231
6020.67915,-0.02237
6022.60762,0.04602
6024.53609,0.09343
6026.46456,0.09839
6028.39303,0.09466
6030.32150,0.10043
6032.24997,0.12021
6034.17843,0.13450
6036.10690,0.10597
6038.03537,0.03422
6039.96384,-0.02615
6041.89231,0.00387
6043.82078,0.10914
6045.74925,0.16629
6047.67772,0.11800
6049.60618,0.04026
6051.53465,0.04153
6053.46312,0.08179
6055.39159,0.10156
6057.32006,0.11679
6059.24853,0.09285
6061.17700,0.01304
6063.10546,-0.04504
6065.03393,-0.01604
6066.96240,0.05586
6068.89087,0.09672
6070.81934,0.10168
6072.74781,0.10019
6074.67628,0.08914
6076.60475,0.05673
6078.53321,0.01676
6080.46168,-0.00816
6082.39015,0.02626
6084.31862,0.12632
6086.24709,0.19755
6088.17556,0.18522
6090.10403,0.14075
6092.03249,0.12158
6093.96096,0.15311
6095.88943,0.19109
6097.81790,0.16964
6099.74637,0.08877
6101.67484,0.01707
6103.60331,0.00105
6105.53177,-0.01588
6107.46024,-0.05856
6109.38871,-0.03705
6111.31718,0.04626
6113.24565,0.08298
6115.17412,0.07003
6117.10259,0.07861
6119.03106,0.10920
6120.95952,0.10036
6122.88799,0.06568
6124.81646,0.04507
6126.74493,0.05253
6128.67340,0.06998
6130.60187,0.02966
6132.53034,-0.04228
6134.45880,-0.03706
6136.38727,0.02333
6138.31574,0.02974
6140.24421,0.01138
6142.17268,0.06972
6144.10115,0.14341
6146.02962,0.10629
6147.95809,-0.01017
6149.88655,-0.06179
6151.81502,0.00315
6153.74349,0.07725
6155.67196,0.12524
6157.60043,0.19153
6159.52890,0.22229
6161.45737,0.15976
6163.38583,0.06817
6165.31430,0.04109
6167.24277,0.05870
6169.17124,0.04410
6171.09971,0.02136
6173.02818,0.05523
6174.95665,0.11926
6176.88512,0.14740
6178.81358,0.12076
6180.74205,0.09515
6182.67052,0.12183
6184.59899,0.17892
6186.52746,0.22334
6188.45593,0.22234
6190.38440,0.16950
6192.31286,0.11560
6194.24133,0.11966
6196.16980,0.17098
6198.09827,0.19151
6200.02674,0.15293
6201.95521,0.10511
6203.88368,0.06294
6205.81215,0.04537
6207.74061,0.07460
6209.66908,0.09570
6211.59755,0.08494
6213.52602,0.07637
6215.45449,0.06944
6217.38296,0.03600
6219.31143,-0.01252
6221.23989,-0.00714
6223.16836,0.03068
6225.09683,0.02004
6227.02530,-0.01388
6228.95377,-0.03424
6230.88224,-0.02486
6232.81071,0.02866
6234.73918,0.05704
6236.66764,0.00373
6238.59611,-0.07192
6240.52458,-0.08812
6242.45305,-0.04916
6244.38152,0.01323
6246.30999,0.07707
6248.23846,0.12414
6250.16692,0.19948
6252.09539,0.27647
6254.02386,0.28682
6255.95233,0.27428
6257.88080,0.20648
6259.80927,0.04920
6261.73774,-0.05171
6263.66621,-0.00542
6265.59467,0.09077
6267.52314,0.15195
6269.45161,0.18585
6271.38008,0.18002
6273.30855,0.11615
6275.23702,0.04941
6277.16549,0.06922
6279.09395,0.15531
6281.02242,0.21682
6282.95089,0.20154
6284.87936,0.13792
6286.80783,0.08476
6288.73630,0.02176
6290.66477,-0.06499
6292.59323,-0.10136
6294.52170,-0.03322
6296.45017,0.08467
6298.37864,0.12509
6300.30711,0.02645
6302.23558,-0.09096
6304.16405,-0.07375
6306.09252,-0.01173
6308.02098,0.00429
6309.94945,0.04085
6311.87792,0.09983
6313.80639,0.12118
6315.73486,0.10711
6317.66333,0.07675
6319.59180,0.04349
6321.52026,0.01636
6323.44873,-0.00169
6325.37720,0.02141
6327.30567,0.07836
6329.23414,0.11202
6331.16261,0.13508
6333.09108,0.14153
6335.01955,0.09356
6336.94801,0.04343
6338.87648,0.02511
6340.80495,0.00542
6342.73342,-0.02527
6344.66189,-0.05924
6346.59036,-0.06502
6348.51883,0.00045
6350.44729,0.06065
6352.37576,0.05277
6354.30423,0.04699
6356.23270,0.07505
6358.16117,0.14302
6360.08964,0.19963
6362.01811,0.16979
6363.94658,0.14593
6365.87504,0.17276
6367.80351,0.10746
6369.73198,-0.00711
6371.66045,-0.01557
6373.58892,0.03527
6375.51739,0.01970
6377.44586,-0.02312
6379.37432,-0.00690
6381.30279,0.01251
6383.23126,-0.01937
6385.15973,-0.01301
6387.08820,0.03587
6389.01667,0.05208
6390.94514,0.07347
6392.87361,0.11748
6394.80207,0.14071
6396.73054,0.16947
6398.65901,0.17419
6400.58748,0.12718
6402.51595,0.11752
6404.44442,0.16101
6406.37289,0.15068
6408.30135,0.08820
6410.22982,0.06462
6412.15829,0.06052
6414.08676,0.04586
6416.01523,0.02393
6417.94370,0.01225
6419.87217,0.02001
6421.80064,0.01184
6423.72910,0.00925
6425.65757,0.01412
6427.58604,-0.01624
6429.51451,-0.02910
6431.44298,0.02027
6433.37145,0.03916
6435.29992,0.00897
6437.22838,0.01271
6439.15685,0.04849
6441.08532,0.07874
6443.01379,0.10871
6444.94226,0.11774
6446.87073,0.09411
6448.79920,0.08009
6450.72766,0.08355
6452.65613,0.07881
6454.58460,0.10084
6456.51307,0.15687
6458.44154,0.18283
6460.37001,0.13125
6462.29848,0.03325
6464.22695,-0.01699
6466.15541,0.02699
6468.08388,0.11170
6470.01235,0.11614
6471.94082,0.04440
6473.86929,0.02464
6475.79776,0.06667
6477.72623,0.10775
6479.65469,0.10674
6481.58316,0.11100
6483.51163,0.16303
6485.44010,0.16875
6487.36857,0.08676
6489.29704,-0.01035
6491.22551,-0.06438
6493.15398,-0.08881
6495.08244,-0.08803
6497.01091,-0.04375
6498.93938,0.00117
6500.86785,0.05771
6502.79632,0.15324
6504.72479,0.18929
6506.65326,0.13153
6508.58172,0.01994
6510.51019,-0.10593
6512.43866,-0.14570
6514.36713,-0.04276
6516.29560,0.09542
6518.22407,0.13285
6520.15254,0.08221
6522.08101,0.02927
6524.00947,0.01085
6525.93794,0.01246
6527.86641,-0.00774
6529.79488,-0.02503
6531.72335,0.02411
6533.65182,0.02754
6535.58029,-0.10332
6537.50875,-0.17090
6539.43722,-0.09059
6541.36569,-0.03073
6543.29416,-0.05502
6545.22263,-0.08616
6547.15110,-0.05715
6549.07957,0.04111
6551.00804,0.11910
6552.93650,0.09142
6554.86497,0.04580
6556.79344,0.03501
6558.72191,-0.01754
6560.65038,-0.09677
6562.57885,-0.08479
6564.50732,0.01097
6566.43578,0.01200
6568.36425,-0.05859
6570.29272,0.00826
6572.22119,0.15184
6574.14966,0.19600
6576.07813,0.16532
6578.00660,0.16830
6579.93507,0.17960
6581.86353,0.11758
6583.79200,0.06160
6585.72047,0.07047
6587.64894,0.09416
6589.57741,0.10285
6591.50588,0.05279
6593.43435,-0.05007
6595.36281,-0.11964
6597.29128,-0.12296
6599.21975,-0.09705
6601.14822,-0.05998
6603.07669,-0.02793
6605.00516,-0.02667
6606.93363,-0.03782
6608.86210,-0.00497
6610.79056,0.10337
6612.71903,0.20991
6614.64750,0.23524
6616.57597,0.19431
6618.50444,0.12891
6620.43291,0.09354
6622.36138,0.08292
6624.28984,0.06018
6626.21831,-0.00301
6628.14678,-0.11729
6630.07525,-0.20346
6632.00372,-0.17246
6633.93219,-0.07122
6635.86066,0.00070
6637.78912,0.01431
6639.71759,0.01372
6641.64606,0.04084
6643.57453,0.08827
6645.50300,0.05888
6647.43147,-0.03483
6649.35994,-0.05581
6651.28841,-0.00057
6653.21687,0.06436
6655.14534,0.10139
6657.07381,0.10727
6659.00228,0.07316
6660.93075,0.00840
6662.85922,-0.02078
6664.78769,-0.02177
6666.71615,-0.00428
6668.64462,0.03828
6670.57309,0.06115
6672.50156,0.07151
6674.43003,0.06044
6676.35850,0.00578
6678.28697,-0.03094
6680.21544,0.02110
6682.14390,0.13163
6684.07237,0.16103
6686.00084,0.06302
6687.92931,-0.03134
6689.85778,0.00090
6691.78625,0.10947
6693.71472,0.21309
6695.64318,0.25724
6697.57165,0.22043
6699.50012,0.21733
6701.42859,0.25459
6703.35706,0.22174
6705.28553,0.13283
6707.21400,0.08360
6709.14247,0.10340
6711.07093,0.11006
6712.99940,0.08060
6714.92787,0.06079
6716.85634,0.04751
6718.78481,0.03668
6720.71328,0.08625
6722.64175,0.15730
6724.57021,0.14916
6726.49868,0.14790
6728.42715,0.24921
6730.35562,0.33725
6732.28409,0.27250
6734.21256,0.11801
6736.14103,-0.00521
6738.06950,-0.04364
6739.99796,-0.03211
6741.92643,-0.02782
6743.85490,-0.01219
6745.78337,0.03184
6747.71184,0.09237
6749.64031,0.15602
6751.56878,0.14830
6753.49724,0.05583
6755.42571,0.00152
6757.35418,0.04962
6759.28265,0.15482
6761.21112,0.23176
6763.13959,0.21861
6765.06806,0.14517
6766.99653,0.09320
6768.92499,0.12530
6770.85346,0.20733
6772.78193,0.29236
6774.71040,0.32779
6776.63887,0.26760
6778.56734,0.16506
6780.49581,0.03230
6782.42427,-0.07611
6784.35274,-0.09693
6786.28121,-0.10835
6788.20968,-0.10632
6790.13815,-0.01117
6792.06662,0.10552
6793.99509,0.11647
6795.92355,0.01408
6797.85202,-0.11174
6799.78049,-0.14539
6801.70896,-0.07236
6803.63743,0.03094
6805.56590,0.12041
6807.49437,0.16396
6809.42284,0.14351
6811.35130,0.08483
6813.27977,0.04405
6815.20824,0.04923
6817.13671,0.08833
6819.06518,0.16455
6820.99365,0.28354
6822.92212,0.33175
6824.85058,0.21084
6826.77905,0.08759
6828.70752,0.06606
6830.63599,0.07543
6832.56446,0.08599
6834.49293,0.10485
6836.42140,0.06497
6838.34987,0.00235
6840.27833,0.01767
6842.20680,0.09668
6844.13527,0.15584
6846.06374,0.10982
6847.99221,0.02285
6849.92068,0.05548
6851.84915,0.12754
6853.77761,0.13952
6855.70608,0.12849
6857.63455,0.12247
6859.56302,0.15199
6861.49149,0.17035
6863.41996,0.09306
6865.34843,0.03312
6867.27690,0.07340
6869.20536,0.08207
6871.13383,-0.00173
6873.06230,-0.07117
6874.99077,-0.04424
6876.91924,0.01828
6878.84771,0.04572
6880.77618,0.03121
6882.70464,0.00873
6884.63311,0.00621
6886.56158,0.01967
6888.49005,0.02748
6890.41852,0.00930
6892.34699,-0.01511
6894.27546,-0.01291
6896.20393,0.02404
6898.13239,0.07272
6900.06086,0.11455
6901.98933,0.16322
6903.91780,0.22876
6905.84627,0.24061
6907.77474,0.11601
6909.70321,-0.02172
6911.63167,-0.02816
6913.56014,0.02499
6915.48861,-0.00048
6917.41708,-0.08583
6919.34555,-0.15085
6921.27402,-0.13879
6923.20249,-0.06913
6925.13096,-0.05049
6927.05942,-0.04572
6928.98789,0.07130
6930.91636,0.16123
6932.84483,0.03699
6934.77330,-0.13702
6936.70177,-0.19637
6938.63024,-0.08862
6940.55870,0.15359
6942.48717,0.26527
6944.41564,0.15157
6946.34411,0.01635
6948.27258,0.01782
6950.20105,0.11713
6952.12952,0.23603
6954.05799,0.22924
6955.98645,0.03771
6957.91492,-0.07356
6959.84339,-0.05727
6961.77186,-0.03740
6963.70033,0.01448
6965.62880,0.09726
6967.55727,0.18669
6969.48573,0.26002
6971.41420,0.23176
6973.34267,0.13477
6975.27114,0.10670
6977.19961,0.13051
6979.12808,0.13318
6981.05655,0.10595
6982.98501,0.07671
6984.91348,0.08750
6986.84195,0.12861
6988.77042,0.12727
6990.69889,0.08600
6992.62736,0.03414
6994.55583,-0.08969
6996.48430,-0.14697
6998.41276,0.02553
7000.34123,0.15817
7002.26970,0.12527
7004.19817,0.03280
7006.12664,-0.07917
7008.05511,-0.10537
7009.98358,-0.01780
7011.91204,0.08535
7013.84051,0.10760
7015.76898,0.09937
7017.69745,0.12477
7019.62592,0.05711
7021.55439,-0.05902
7023.48286,0.01273
7025.41133,0.18958
7027.33979,0.27393
7029.26826,0.24630
7031.19673,0.15953
7033.12520,0.12245
7035.05367,0.10671
7036.98214,0.05548
7038.91061,0.02720
7040.83907,0.07086
7042.76754,0.21531
7044.69601,0.31429
7046.62448,0.26256
7048.55295,0.17023
7050.48142,0.12851
7052.40989,0.18974
7054.33836,0.29048
7056.26682,0.26175
7058.19529,0.14157
7060.12376,0.10850
7062.05223,0.20410
7063.98070,0.30911
7065.90917,0.24883
7067.83764,0.06147
7069.76610,-0.12933
7071.69457,-0.20307
7073.62304,-0.10882
7075.55151,0.08174
7077.47998,0.24302
7079.40845,0.24869
7081.33692,0.05108
7083.26539,-0.13964
7085.19385,-0.09196
7087.12232,0.13255
7089.05079,0.22275
7090.97926,0.10779
7092.90773,0.01436
7094.83620,-0.01567
7096.76467,-0.09227
7098.69313,-0.20658
7100.62160,-0.22895
7102.55007,-0.14534
7104.47854,-0.05677
7106.40701,-0.01591
7108.33548,-0.00562
7110.26395,0.00694
7112.19242,0.01255
7114.12088,-0.03110
7116.04935,0.01121
7117.97782,0.25679
7119.90629,0.35287
7121.83476,0.17549
7123.76323,0.05186
7125.69170,0.02848
7127.62016,-0.04149
7129.54863,-0.06165
7131.47710,0.03009
7133.40557,0.09896
7135.33404,0.11302
7137.26251,0.12576
7139.19098,0.07641
7141.11944,-0.07392
7143.04791,-0.16786
7144.97638,-0.07478
7146.90485,0.09060
7148.83332,0.12166
7150.76179,0.06666
7152.69026,0.04831
7154.61873,0.02461
7156.54719,0.02128
7158.47566,0.09365
7160.40413,0.07540
7162.33260,-0.06378
7164.26107,-0.10568
7166.18954,0.06766
7168.11801,0.33428
7170.04647,0.43145
7171.97494,0.25419
7173.90341,0.05427
7175.83188,0.06307
7177.76035,0.19006
7179.68882,0.20348
7181.61729,0.19016
7183.54576,0.27275
7185.47422,0.25014
7187.40269,0.08509
7189.33116,0.03652
7191.25963,0.17532
7193.18810,0.28193
7195.11657,0.30446
7197.04504,0.25929
7198.97350,0.21829
7200.90197,0.24545
7202.83044,0.16641
7204.75891,-0.04596
7206.68738,-0.08029
7208.61585,0.02521
7210.54432,0.10183
7212.47279,0.14327
7214.40125,0.24379
7216.32972,0.38490
7218.25819,0.32349
7220.18666,0.09796
7222.11513,-0.02066
7224.04360,0.02805
7225.97207,0.16997
7227.90053,0.24434
7229.82900,0.25862
7231.75747,0.24787
7233.68594,0.15035
7235.61441,0.03127
7237.54288,-0.09187
7239.47135,-0.23392
7241.39982,-0.27361
7243.32828,-0.16846
7245.25675,-0.12275
7247.18522,-0.18538
7249.11369,-0.19614
7251.04216,-0.06280
7252.97063,0.09453
7254.89910,0.10977
7256.82756,0.08967
7258.75603,0.15975
7260.68450,0.22546
7262.61297,0.12837
7264.54144,0.03389
7266.46991,0.01485
7268.39838,0.03852
7270.32685,0.07278
7272.25531,-0.00228
7274.18378,-0.04982
7276.11225,0.04901
7278.04072,0.19688
7279.96919,0.29520
7281.89766,0.21774
7283.82613,0.10867
7285.75459,0.10577
7287.68306,0.15451
7289.61153,0.16709
7291.54000,0.03484
7293.46847,-0.17740
7295.39694,-0.19195
7297.32541,0.02960
7299.25387,0.19355
7301.18234,0.20414
7303.11081,0.20844
7305.03928,0.26840
7306.96775,0.35952
7308.89622,0.33305
7310.82469,0.11278
7312.75316,0.00147
7314.68162,0.02432
7316.61009,-0.01748
7318.53856,-0.07502
7320.46703,0.00737
7322.39550,0.07884
7324.32397,0.06605
7326.25244,0.14662
7328.18090,0.32672
7330.10937,0.32600
7332.03784,0.13988
7333.96631,0.00930
7335.89478,0.00993
7337.82325,0.14105
7339.75172,0.29170
7341.68019,0.24362
7343.60865,0.15891
7345.53712,0.09543
7347.46559,-0.00743
7349.39406,0.05412
7351.32253,0.31949
7353.25100,0.40616
7355.17947,0.39150
7357.10793,0.45478
7359.03640,0.28894
7360.96487,0.01001
7362.89334,-0.08532
7364.82181,-0.16395
7366.75028,-0.23911
7368.67875,-0.23741
7370.60722,-0.24408
7372.53568,-0.30986
7374.46415,-0.23251
7376.39262,0.06004
7378.32109,0.13846
7380.24956,0.06423
7382.17803,0.05017
7384.10650,0.04568
7386.03496,0.07475
7387.96343,0.19192
7389.89190,0.18241
7391.82037,0.03550
7393.74884,-0.07175
7395.67731,-0.09566
7397.60578,-0.13372
7399.53425,-0.17251
7401.46271,-0.15144
7403.39118,-0.09517
7405.31965,0.05224
7407.24812,0.18269
7409.17659,0.20860
7411.10506,0.15224
7413.03353,0.07204
7414.96199,0.03903
7416.89046,0.09941
7418.81893,0.09645
7420.74740,-0.02634
7422.67587,-0.01863
7424.60434,0.03982
7426.53281,0.00302
7428.46128,-0.07596
7430.38974,-0.14330
7432.31821,-0.22002
7434.24668,-0.24596
7436.17515,-0.16931
7438.10362,-0.08048
7440.03209,-0.00934
7441.96056,0.08151
7443.88902,0.13503
7445.81749,0.16285
7447.74596,0.17904
7449.67443,0.10838
7451.60290,0.00774
7453.53137,0.01308
7455.45984,0.11984
7457.38831,0.29670
7459.31677,0.43921
7461.24524,0.38159
7463.17371,0.31819
7465.10218,0.40635
7467.03065,0.38991
7468.95912,0.17953
7470.88759,0.01235
7472.81605,-0.05645
7474.74452,-0.12982
7476.67299,-0.20088
7478.60146,-0.23589
7480.52993,-0.11087
7482.45840,0.11608
7484.38687,0.16008
7486.31533,0.12592
7488.24380,0.18162
7490.17227,0.23316
7492.10074,0.17963
7494.02921,0.12004
7495.95768,0.12348
7497.88615,0.19508
