399.19301,2.71881
401.12148,-0.45124
403.04995,-0.31415
404.97842,-0.20162
406.90689,-0.28504
408.83536,-0.29294
410.76382,0.00228
412.69229,0.28516
414.62076,0.26537
416.54923,0.14053
418.47770,0.18670
420.40617,0.23077
422.33464,0.11970
424.26311,0.05553
426.19157,0.06420
428.12004,0.10077
430.04851,0.15971
431.97698,0.17936
433.90545,0.11428
435.83392,0.02070
437.76239,-0.02691
439.69085,0.01085
441.61932,0.09430
443.54779,0.08969
445.47626,-0.01698
447.40473,-0.01194
449.33320,0.11142
451.26167,0.19062
453.19013,0.22526
455.11860,0.20383
457.04707,0.14630
458.97554,0.12999
460.90401,0.12523
462.83248,0.09325
464.76095,0.04033
466.68942,0.00019
468.61788,-0.01377
470.54635,0.01654
472.47482,0.21182
474.40329,0.44484
476.33176,0.25508
478.26023,0.05756
480.18870,0.05682
482.11716,0.07564
484.04563,0.02843
485.97410,0.03802
487.90257,0.12004
489.83104,0.14193
491.75951,0.06660
493.68798,-0.00632
495.61645,-0.02709
497.54491,-0.05462
499.47338,-0.08717
501.40185,-0.07423
503.33032,-0.04505
505.25879,-0.02272
507.18726,-0.00363
509.11573,0.00934
511.04419,0.02156
512.97266,0.03359
514.90113,0.04772
516.82960,0.06578
518.75807,0.09045
520.68654,0.11389
522.61501,0.10760
524.54348,0.04609
526.47194,-0.01329
528.40041,-0.00454
530.32888,0.04989
532.25735,0.09819
534.18582,0.09027
536.11429,0.03412
538.04276,0.03015
539.97122,0.08830
541.89969,0.11267
543.82816,0.08675
545.75663,0.06195
547.68510,0.06686
549.61357,0.12300
551.54204,0.42725
553.47051,0.80355
555.39897,0.64348
557.32744,0.16500
559.25591,-0.01115
561.18438,0.00193
563.11285,0.00796
565.04132,0.01487
566.96979,0.02938
568.89825,0.06352
570.82672,0.10445
572.75519,0.12020
574.68366,0.10217
576.61213,0.07744
578.54060,0.07931
580.46907,0.10184
582.39754,0.10691
584.32600,0.07627
586.25447,0.02788
588.18294,0.01980
590.11141,0.06133
592.03988,0.08945
593.96835,0.07348
595.89682,0.04409
597.82528,0.02947
599.75375,0.03193
601.68222,0.05910
603.61069,0.08749
605.53916,0.08277
607.46763,0.05836
609.39610,0.02959
611.32456,0.00582
613.25303,0.00027
615.18150,0.01125
617.10997,0.03237
619.03844,0.05621
620.96691,0.06700
622.89538,0.06145
624.82385,0.05680
626.75231,0.07196
628.68078,0.09387
630.60925,0.10008
632.53772,0.10054
634.46619,0.10065
636.39466,0.09932
638.32313,0.10680
640.25159,0.11731
642.18006,0.11724
644.10853,0.11254
646.03700,0.10462
647.96547,0.08733
649.89394,0.07896
651.82241,0.09179
653.75088,0.10200
655.67934,0.09609
657.60781,0.08699
659.53628,0.07762
661.46475,0.08000
663.39322,0.10297
665.32169,0.11192
667.25016,0.08682
669.17862,0.06448
671.10709,0.06414
673.03556,0.07152
674.96403,0.09727
676.89250,0.11489
678.82097,0.09617
680.74944,0.08100
682.67791,0.09304
684.60637,0.09283
686.53484,0.07757
688.46331,0.07977
690.39178,0.09601
692.32025,0.10926
694.24872,0.12000
696.17719,0.12620
698.10565,0.11518
700.03412,0.09357
701.96259,0.07731
703.89106,0.06966
705.81953,0.06969
707.74800,0.07027
709.67647,0.06808
711.60494,0.06999
713.53340,0.08089
715.46187,0.09504
717.39034,0.09900
719.31881,0.09359
721.24728,0.08666
723.17575,0.07963
725.10422,0.07503
727.03268,0.07660
728.96115,0.08621
730.88962,0.09557
732.81809,0.09769
734.74656,0.09921
736.67503,0.10588
738.60350,0.10861
740.53197,0.09845
742.46043,0.08673
744.38890,0.08582
746.31737,0.09560
748.24584,0.10251
750.17431,0.09515
752.10278,0.08769
754.03125,0.08796
755.95971,0.08630
757.88818,0.08365
759.81665,0.07683
761.74512,0.06475
763.67359,0.06399
765.60206,0.07461
767.53053,0.08599
769.45900,0.10042
771.38746,0.10780
773.31593,0.09882
775.24440,0.09039
777.17287,0.09121
779.10134,0.09916
781.02981,0.11227
782.95828,0.11264
784.88674,0.09652
786.81521,0.08369
788.74368,0.08928
790.67215,0.11154
792.60062,0.13058
794.52909,0.12740
796.45756,0.10518
798.38602,0.08539
800.31449,0.08471
802.24296,0.09390
804.17143,0.09541
806.09990,0.09080
808.02837,0.07903
809.95684,0.06928
811.88531,0.08776
813.81377,0.11815
815.74224,0.12438
817.67071,0.11713
819.59918,0.11645
821.52765,0.10932
823.45612,0.09566
825.38459,0.09571
827.31305,0.10223
829.24152,0.10607
831.16999,0.11295
833.09846,0.11447
835.02693,0.10980
836.95540,0.10892
838.88387,0.10714
840.81234,0.10563
842.74080,0.11292
844.66927,0.11680
846.59774,0.11000
848.52621,0.11250
850.45468,0.12537
852.38315,0.12791
854.31162,0.12125
856.24008,0.12254
858.16855,0.13280
860.09702,0.13377
862.02549,0.12382
863.95396,0.11591
865.88243,0.10959
867.81090,0.09674
869.73937,0.07713
871.66783,0.06936
873.59630,0.07841
875.52477,0.09107
877.45324,0.10448
879.38171,0.11214
881.31018,0.11447
883.23865,0.11781
885.16711,0.11248
887.09558,0.10059
889.02405,0.09869
890.95252,0.10652
892.88099,0.11437
894.80946,0.11938
896.73793,0.11761
898.66640,0.10973
900.59486,0.10701
902.52333,0.10546
904.45180,0.09797
906.38027,0.09821
908.30874,0.10840
910.23721,0.11685
912.16568,0.11747
914.09414,0.10972
916.02261,0.10339
917.95108,0.10297
919.87955,0.10649
921.80802,0.11696
923.73649,0.12735
925.66496,0.12960
927.59343,0.12613
929.52189,0.12037
931.45036,0.11823
933.37883,0.12091
935.30730,0.11884
937.23577,0.11249
939.16424,0.11038
941.09271,0.11002
943.02117,0.11159
944.94964,0.11513
946.87811,0.11079
948.80658,0.10020
950.73505,0.09755
952.66352,0.10503
954.59199,0.11171
956.52045,0.11616
958.44892,0.12175
960.37739,0.12329
962.30586,0.11960
964.23433,0.11471
966.16280,0.11055
968.09127,0.10936
970.01974,0.11379
971.94820,0.11992
973.87667,0.12081
975.80514,0.11847
977.73361,0.11791
979.66208,0.11966
981.59055,0.12363
983.51902,0.12389
985.44748,0.11721
987.37595,0.11273
989.30442,0.11478
991.23289,0.11787
993.16136,0.11778
995.08983,0.11551
997.01830,0.11609
998.94677,0.12050
1000.87523,0.12108
1002.80370,0.11800
1004.73217,0.11792
1006.66064,0.12071
1008.58911,0.12524
1010.51758,0.13166
1012.44605,0.14036
1014.37451,0.14699
1016.30298,0.14631
1018.23145,0.13880
1020.15992,0.13119
1022.08839,0.12744
1024.01686,0.12657
1025.94533,0.11383
1027.87380,0.08000
1029.80226,0.07433
1031.73073,0.10457
1033.65920,0.11346
1035.58767,0.10945
1037.51614,0.11601
1039.44461,0.12188
1041.37308,0.12713
1043.30154,0.13347
1045.23001,0.13394
1047.15848,0.13113
1049.08695,0.13269
1051.01542,0.13648
1052.94389,0.13823
1054.87236,0.13552
1056.80083,0.12933
1058.72929,0.12028
1060.65776,0.11015
1062.58623,0.10383
1064.51470,0.10486
1066.44317,0.11678
1068.37164,0.13310
1070.30011,0.14112
1072.22857,0.14131
1074.15704,0.14394
1076.08551,0.15037
1078.01398,0.15542
1079.94245,0.15569
1081.87092,0.15299
1083.79939,0.15275
1085.72786,0.15317
1087.65632,0.15027
1089.58479,0.14210
1091.51326,0.12859
1093.44173,0.11950
1095.37020,0.12202
1097.29867,0.12815
1099.22714,0.13216
1101.15560,0.13725
1103.08407,0.14387
1105.01254,0.14778
1106.94101,0.14477
1108.86948,0.13892
1110.79795,0.13805
1112.72642,0.14121
1114.65489,0.14048
1116.58335,0.13645
1118.51182,0.13700
1120.44029,0.13961
1122.36876,0.13611
1124.29723,0.12624
1126.22570,0.11767
1128.15417,0.11737
1130.08263,0.12638
1132.01110,0.14015
1133.93957,0.14953
1135.86804,0.14812
1137.79651,0.13891
1139.72498,0.13298
1141.65345,0.13731
1143.58191,0.14460
1145.51038,0.14421
1147.43885,0.13781
1149.36732,0.13794
1151.29579,0.14735
1153.22426,0.15403
1155.15273,0.15410
1157.08120,0.14946
1159.00966,0.14171
1160.93813,0.14095
1162.86660,0.14732
1164.79507,0.15165
1166.72354,0.15316
1168.65201,0.15074
1170.58048,0.14753
1172.50894,0.14951
1174.43741,0.15135
1176.36588,0.14970
1178.29435,0.14763
1180.22282,0.14328
1182.15129,0.13858
1184.07976,0.14552
1186.00823,0.16378
1187.93669,0.17129
1189.86516,0.16235
1191.79363,0.15321
1193.72210,0.14710
1195.65057,0.14122
1197.57904,0.13875
1199.50751,0.13956
1201.43597,0.14063
1203.36444,0.13987
1205.29291,0.13645
1207.22138,0.12983
1209.14985,0.12540
1211.07832,0.13032
1213.00679,0.14055
1214.93526,0.14720
1216.86372,0.14847
1218.79219,0.14758
1220.72066,0.14559
1222.64913,0.14403
1224.57760,0.14761
1226.50607,0.15331
1228.43454,0.15295
1230.36300,0.14769
1232.29147,0.14215
1234.21994,0.13883
1236.14841,0.14043
1238.07688,0.14536
1240.00535,0.14839
1241.93382,0.14555
1243.86229,0.14092
1245.79075,0.14300
1247.71922,0.14921
1249.64769,0.15152
1251.57616,0.15078
1253.50463,0.15096
1255.43310,0.14960
1257.36157,0.14590
1259.29003,0.14460
1261.21850,0.14692
1263.14697,0.15039
1265.07544,0.15137
1267.00391,0.15004
1268.93238,0.15256
1270.86085,0.15943
1272.78932,0.16326
1274.71778,0.16104
1276.64625,0.15863
1278.57472,0.15884
1280.50319,0.15910
1282.43166,0.15825
1284.36013,0.15549
1286.28860,0.15414
1288.21706,0.15747
1290.14553,0.15931
1292.07400,0.15753
1294.00247,0.15757
1295.93094,0.15937
1297.85941,0.15894
1299.78788,0.15512
1301.71634,0.15041
1303.64481,0.14815
1305.57328,0.15009
1307.50175,0.15302
1309.43022,0.15411
1311.35869,0.15618
1313.28716,0.15614
1315.21563,0.15179
1317.14409,0.15109
1319.07256,0.15442
1321.00103,0.15438
1322.92950,0.15257
1324.85797,0.15377
1326.78644,0.15619
1328.71491,0.15646
1330.64337,0.15385
1332.57184,0.15140
1334.50031,0.15284
1336.42878,0.15976
1338.35725,0.16898
1340.28572,0.16943
1342.21419,0.16245
1344.14266,0.16002
1346.07112,0.16210
1347.99959,0.16131
1349.92806,0.15451
1351.85653,0.14897
1353.78500,0.15010
1355.71347,0.15362
1357.64194,0.15537
1359.57040,0.15551
1361.49887,0.15817
1363.42734,0.16167
1365.35581,0.15912
1367.28428,0.15622
1369.21275,0.15893
1371.14122,0.16598
1373.06969,0.17480
1374.99815,0.17716
1376.92662,0.16937
1378.85509,0.16028
1380.78356,0.15570
1382.71203,0.15692
1384.64050,0.16262
1386.56897,0.17085
1388.49743,0.17597
1390.42590,0.17538
1392.35437,0.17559
1394.28284,0.17831
1396.21131,0.17837
1398.13978,0.17432
1400.06825,0.16962
1401.99672,0.16817
1403.92518,0.17056
1405.85365,0.17132
1407.78212,0.16770
1409.71059,0.16683
1411.63906,0.16843
1413.56753,0.16776
1415.49600,0.17175
1417.42446,0.18238
1419.35293,0.18234
1421.28140,0.17070
1423.20987,0.16694
1425.13834,0.17058
1427.06681,0.17420
1428.99528,0.17740
1430.92375,0.17757
1432.85221,0.17405
1434.78068,0.17645
1436.70915,0.18373
1438.63762,0.17946
1440.56609,0.17214
1442.49456,0.17176
1444.42303,0.17539
1446.35149,0.18028
1448.27996,0.18116
1450.20843,0.17764
1452.13690,0.17993
1454.06537,0.19042
1455.99384,0.20305
1457.92231,0.19950
1459.85077,0.18427
1461.77924,0.18071
1463.70771,0.18694
1465.63618,0.18749
1467.56465,0.18067
1469.49312,0.18338
1471.42159,0.19623
1473.35006,0.20074
1475.27852,0.19252
1477.20699,0.18915
1479.13546,0.18893
1481.06393,0.18400
1482.99240,0.17658
1484.92087,0.17661
1486.84934,0.18539
1488.77780,0.19484
1490.70627,0.19632
1492.63474,0.19275
1494.56321,0.19480
1496.49168,0.20217
1498.42015,0.19725
1500.34862,0.18523
1502.27709,0.18439
1504.20555,0.19782
1506.13402,0.22497
1508.06249,0.22804
1509.99096,0.20448
1511.91943,0.19028
1513.84790,0.19105
1515.77637,0.20508
1517.70483,0.21850
1519.63330,0.22462
1521.56177,0.22585
1523.49024,0.21748
1525.41871,0.21070
1527.34718,0.20407
1529.27565,0.19661
1531.20412,0.19854
1533.13258,0.20283
1535.06105,0.19600
1536.98952,0.19594
1538.91799,0.21708
1540.84646,0.23468
1542.77493,0.21724
1544.70340,0.20074
1546.63186,0.19186
1548.56033,0.19017
1550.48880,0.19444
1552.41727,0.20013
1554.34574,0.20981
1556.27421,0.22949
1558.20268,0.24903
1560.13115,0.21892
1562.05961,0.19157
1563.98808,0.18781
1565.91655,0.19355
1567.84502,0.20293
1569.77349,0.20697
1571.70196,0.20047
1573.63043,0.19964
1575.55889,0.21076
1577.48736,0.21573
1579.41583,0.20545
1581.34430,0.19396
1583.27277,0.18735
1585.20124,0.18515
1587.12971,0.18494
1589.05818,0.18645
1590.98664,0.18758
1592.91511,0.18703
1594.84358,0.18629
1596.77205,0.18547
1598.70052,0.18538
1600.62899,0.18539
1602.55746,0.18361
1604.48592,0.18262
1606.41439,0.18484
1608.34286,0.18599
1610.27133,0.18427
1612.19980,0.18372
1614.12827,0.18636
1616.05674,0.19396
1617.98521,0.19856
1619.91367,0.19867
1621.84214,0.20486
1623.77061,0.20897
1625.69908,0.20176
1627.62755,0.19254
1629.55602,0.18714
1631.48449,0.19086
1633.41295,0.20694
1635.34142,0.22799
1637.26989,0.22508
1639.19836,0.20868
1641.12683,0.19886
1643.05530,0.19976
1644.98377,0.21535
1646.91223,0.23638
1648.84070,0.23514
1650.76917,0.23186
1652.69764,0.24069
1654.62611,0.22579
1656.55458,0.20786
1658.48305,0.20889
1660.41152,0.21777
1662.33998,0.21982
1664.26845,0.21122
1666.19692,0.20703
1668.12539,0.21629
1670.05386,0.22776
1671.98233,0.22538
1673.91080,0.22033
1675.83926,0.21381
1677.76773,0.20605
1679.69620,0.20567
1681.62467,0.21765
1683.55314,0.23590
1685.48161,0.22934
1687.41008,0.21215
1689.33855,0.20281
1691.26701,0.19950
1693.19548,0.20570
1695.12395,0.22110
1697.05242,0.23369
1698.98089,0.23518
1700.90936,0.22490
1702.83783,0.21369
1704.76629,0.20972
1706.69476,0.20475
1708.62323,0.19628
1710.55170,0.19088
1712.48017,0.19478
1714.40864,0.21243
1716.33711,0.23323
1718.26558,0.22640
1720.19404,0.20705
1722.12251,0.19744
1724.05098,0.19204
1725.97945,0.18839
1727.90792,0.18969
1729.83639,0.19481
1731.76486,0.20035
1733.69332,0.20326
1735.62179,0.20198
1737.55026,0.20263
1739.47873,0.20450
1741.40720,0.20541
1743.33567,0.20520
1745.26414,0.20384
1747.19261,0.20470
1749.12107,0.20690
1751.04954,0.20051
1752.97801,0.18993
1754.90648,0.18684
1756.83495,0.18834
1758.76342,0.18937
1760.69189,0.19258
1762.62035,0.19415
1764.54882,0.19215
1766.47729,0.19588
1768.40576,0.20521
1770.33423,0.21185
1772.26270,0.21013
1774.19117,0.19991
1776.11964,0.19130
1778.04810,0.18950
1779.97657,0.19270
1781.90504,0.19468
1783.83351,0.19360
1785.76198,0.19097
1787.69045,0.18858
1789.61892,0.19184
1791.54738,0.20108
1793.47585,0.20432
1795.40432,0.20061
1797.33279,0.20061
1799.26126,0.20578
1801.18973,0.20906
1803.11820,0.20418
1805.04666,0.19656
1806.97513,0.19336
1808.90360,0.19429
1810.83207,0.19373
1812.76054,0.18853
1814.68901,0.18170
1816.61748,0.17463
1818.54595,0.17427
1820.47441,0.18137
1822.40288,0.18433
1824.33135,0.18752
1826.25982,0.19582
1828.18829,0.20314
1830.11676,0.20583
1832.04523,0.19908
1833.97369,0.19292
1835.90216,0.19434
1837.83063,0.19598
1839.75910,0.19329
1841.68757,0.19293
1843.61604,0.19757
1845.54451,0.19926
1847.47298,0.19643
1849.40144,0.19296
1851.32991,0.18975
1853.25838,0.18732
1855.18685,0.18590
1857.11532,0.18587
1859.04379,0.18778
1860.97226,0.19050
1862.90072,0.19163
1864.82919,0.19337
1866.75766,0.19903
1868.68613,0.20143
1870.61460,0.19274
1872.54307,0.18553
1874.47154,0.18611
1876.40001,0.18645
1878.32847,0.18365
1880.25694,0.18377
1882.18541,0.18622
1884.11388,0.18582
1886.04235,0.18538
1887.97082,0.18914
1889.89929,0.19228
1891.82775,0.18945
1893.75622,0.18666
1895.68469,0.18733
1897.61316,0.18539
1899.54163,0.18226
1901.47010,0.18463
1903.39857,0.18945
1905.32704,0.19058
1907.25550,0.18917
1909.18397,0.18875
1911.11244,0.18924
1913.04091,0.18939
1914.96938,0.19006
1916.89785,0.19178
1918.82632,0.19170
1920.75478,0.19005
1922.68325,0.19002
1924.61172,0.18931
1926.54019,0.18603
1928.46866,0.18337
1930.39713,0.18281
1932.32560,0.18255
1934.25407,0.18213
1936.18253,0.18268
1938.11100,0.18451
1940.03947,0.18691
1941.96794,0.18882
1943.89641,0.18949
1945.82488,0.18717
1947.75335,0.18243
1949.68181,0.18132
1951.61028,0.18540
1953.53875,0.18824
1955.46722,0.18718
1957.39569,0.18536
1959.32416,0.18557
1961.25263,0.18733
1963.18110,0.18706
1965.10956,0.18635
1967.03803,0.19038
1968.96650,0.19489
1970.89497,0.19438
1972.82344,0.19213
1974.75191,0.19028
1976.68038,0.18774
1978.60884,0.18732
1980.53731,0.19054
1982.46578,0.19108
1984.39425,0.18732
1986.32272,0.18591
1988.25119,0.18805
1990.17966,0.18972
1992.10812,0.18920
1994.03659,0.18853
1995.96506,0.18884
1997.89353,0.18751
1999.82200,0.18636
2001.75047,0.18825
2003.67894,0.18867
2005.60741,0.18632
2007.53587,0.18608
2009.46434,0.18757
2011.39281,0.18667
2013.32128,0.18546
2015.24975,0.18781
2017.17822,0.19046
2019.10669,0.19060
2021.03515,0.19205
2022.96362,0.19514
2024.89209,0.19550
2026.82056,0.19398
2028.74903,0.19352
2030.67750,0.19348
2032.60597,0.19248
2034.53444,0.19020
2036.46290,0.18904
2038.39137,0.18997
2040.31984,0.19059
2042.24831,0.18995
2044.17678,0.18840
2046.10525,0.18809
2048.03372,0.18910
2049.96218,0.18863
2051.89065,0.18890
2053.81912,0.19127
2055.74759,0.19187
2057.67606,0.19023
2059.60453,0.18835
2061.53300,0.18798
2063.46147,0.18991
2065.38993,0.19106
2067.31840,0.19032
2069.24687,0.18977
2071.17534,0.18953
2073.10381,0.19060
2075.03228,0.19385
2076.96075,0.19586
2078.88921,0.19447
2080.81768,0.19278
2082.74615,0.19147
2084.67462,0.18974
2086.60309,0.18871
2088.53156,0.18678
2090.46003,0.18509
2092.38850,0.18722
2094.31696,0.19063
2096.24543,0.19116
2098.17390,0.18957
2100.10237,0.18829
2102.03084,0.18787
2103.95931,0.18915
2105.88778,0.19228
2107.81624,0.19605
2109.74471,0.19873
2111.67318,0.19875
2113.60165,0.19743
2115.53012,0.19534
2117.45859,0.19212
2119.38706,0.18979
2121.31553,0.18762
2123.24399,0.18507
2125.17246,0.18535
2127.10093,0.18863
2129.02940,0.19261
2130.95787,0.19476
2132.88634,0.19329
2134.81481,0.19044
2136.74327,0.18910
2138.67174,0.18940
2140.60021,0.19121
2142.52868,0.19353
2144.45715,0.19287
2146.38562,0.19090
2148.31409,0.19187
2150.24255,0.19316
2152.17102,0.19314
2154.09949,0.19394
2156.02796,0.19535
2157.95643,0.19573
2159.88490,0.19411
2161.81337,0.18995
2163.74184,0.18671
2165.67030,0.18939
2167.59877,0.19279
2169.52724,0.19187
2171.45571,0.19270
2173.38418,0.19593
2175.31265,0.19625
2177.24112,0.19476
2179.16958,0.19309
2181.09805,0.19116
2183.02652,0.19074
2184.95499,0.19135
2186.88346,0.19167
2188.81193,0.19203
2190.74040,0.19179
2192.66887,0.19077
2194.59733,0.19002
2196.52580,0.18917
2198.45427,0.18821
2200.38274,0.18878
2202.31121,0.19032
2204.23968,0.19125
2206.16815,0.19229
2208.09661,0.19523
2210.02508,0.19860
2211.95355,0.19839
2213.88202,0.19473
2215.81049,0.19181
2217.73896,0.19319
2219.66743,0.19653
2221.59590,0.19693
2223.52436,0.19644
2225.45283,0.19781
2227.38130,0.19807
2229.30977,0.19672
2231.23824,0.19691
2233.16671,0.19744
2235.09518,0.19688
2237.02364,0.19717
2238.95211,0.19699
2240.88058,0.19643
2242.80905,0.19842
2244.73752,0.20006
2246.66599,0.19775
2248.59446,0.19558
2250.52293,0.19526
2252.45139,0.19305
2254.37986,0.19133
2256.30833,0.19183
2258.23680,0.19114
2260.16527,0.19032
2262.09374,0.19161
2264.02221,0.19400
2265.95067,0.19554
2267.87914,0.19554
2269.80761,0.19637
2271.73608,0.19889
2273.66455,0.20024
2275.59302,0.19949
2277.52149,0.19801
2279.44996,0.19649
2281.37842,0.19616
2283.30689,0.19778
2285.23536,0.19888
2287.16383,0.19823
2289.09230,0.19686
2291.02077,0.19446
2292.94924,0.19218
2294.87770,0.19121
2296.80617,0.19182
2298.73464,0.19381
2300.66311,0.19454
2302.59158,0.19464
2304.52005,0.19759
2306.44852,0.20028
2308.37699,0.19733
2310.30545,0.19354
2312.23392,0.19487
2314.16239,0.19616
2316.09086,0.19459
2318.01933,0.19359
2319.94780,0.19177
2321.87627,0.18648
2323.80473,0.18324
2325.73320,0.18497
2327.66167,0.18619
2329.59014,0.18956
2331.51861,0.19823
2333.44708,0.20396
2335.37555,0.20629
2337.30401,0.20672
2339.23248,0.20096
2341.16095,0.19481
2343.08942,0.18816
2345.01789,0.17792
2346.94636,0.17780
2348.87483,0.18604
2350.80330,0.19033
2352.73176,0.18619
2354.66023,0.18492
2356.58870,0.19801
2358.51717,0.21459
2360.44564,0.21759
2362.37411,0.19668
2364.30258,0.17071
2366.23104,0.17079
2368.15951,0.18673
2370.08798,0.18896
2372.01645,0.18060
2373.94492,0.18070
2375.87339,0.18774
2377.80186,0.19012
2379.73033,0.18901
2381.65879,0.19163
2383.58726,0.19566
2385.51573,0.19564
2387.44420,0.19345
2389.37267,0.19129
2391.30114,0.18924
2393.22961,0.18970
2395.15807,0.19250
2397.08654,0.19420
2399.01501,0.19300
2400.94348,0.19071
2402.87195,0.19155
2404.80042,0.19495
2406.72889,0.19606
2408.65736,0.19415
2410.58582,0.19214
2412.51429,0.19132
2414.44276,0.19065
2416.37123,0.19030
2418.29970,0.19316
2420.22817,0.19877
2422.15664,0.20117
2424.08510,0.19814
2426.01357,0.19460
2427.94204,0.19484
2429.87051,0.19770
2431.79898,0.19912
2433.72745,0.19643
2435.65592,0.19284
2437.58439,0.19262
2439.51285,0.19294
2441.44132,0.19159
2443.36979,0.19120
2445.29826,0.19184
2447.22673,0.19274
2449.15520,0.19645
2451.08367,0.19825
2453.01213,0.19113
2454.94060,0.18693
2456.86907,0.19120
2458.79754,0.19168
2460.72601,0.19081
2462.65448,0.19548
2464.58295,0.20044
2466.51142,0.20026
2468.43988,0.19594
2470.36835,0.19265
2472.29682,0.19288
2474.22529,0.19636
2476.15376,0.19920
2478.08223,0.19751
2480.01070,0.19522
2481.93916,0.19445
2483.86763,0.19285
2485.79610,0.19471
2487.72457,0.20137
2489.65304,0.20528
2491.58151,0.20399
2493.50998,0.20169
2495.43844,0.20119
2497.36691,0.20101
2499.29538,0.19892
2501.22385,0.19588
2503.15232,0.19338
2505.08079,0.19325
2507.00926,0.19758
2508.93773,0.20217
2510.86619,0.20118
2512.79466,0.19661
2514.72313,0.19295
2516.65160,0.19308
2518.58007,0.19749
2520.50854,0.20223
2522.43701,0.20295
2524.36547,0.19998
2526.29394,0.19834
2528.22241,0.20031
2530.15088,0.20352
2532.07935,0.20477
2534.00782,0.20190
2535.93629,0.19711
2537.86476,0.19635
2539.79322,0.20206
2541.72169,0.20914
2543.65016,0.21200
2545.57863,0.21044
2547.50710,0.20628
2549.43557,0.20187
2551.36404,0.19977
2553.29250,0.20128
2555.22097,0.20527
2557.14944,0.20746
2559.07791,0.20551
2561.00638,0.20226
2562.93485,0.20046
2564.86332,0.20042
2566.79179,0.20144
2568.72025,0.20310
2570.64872,0.20529
2572.57719,0.20576
2574.50566,0.20347
2576.43413,0.20021
2578.36260,0.19684
2580.29107,0.19547
2582.21953,0.19806
2584.14800,0.20290
2586.07647,0.20541
2588.00494,0.20240
2589.93341,0.19837
2591.86188,0.19739
2593.79035,0.19795
2595.71882,0.19929
2597.64728,0.19892
2599.57575,0.19725
2601.50422,0.19905
2603.43269,0.20271
2605.36116,0.20443
2607.28963,0.20606
2609.21810,0.20884
2611.14656,0.21021
2613.07503,0.20943
2615.00350,0.20734
2616.93197,0.20458
2618.86044,0.20395
2620.78891,0.20611
2622.71738,0.20690
2624.64585,0.20486
2626.57431,0.20203
2628.50278,0.20157
2630.43125,0.20515
2632.35972,0.20709
2634.28819,0.20408
2636.21666,0.20038
2638.14513,0.19924
2640.07359,0.20089
2642.00206,0.20259
2643.93053,0.20265
2645.85900,0.20199
2647.78747,0.20158
2649.71594,0.20221
2651.64441,0.20304
2653.57288,0.20324
2655.50134,0.20276
2657.42981,0.20050
2659.35828,0.19709
2661.28675,0.19678
2663.21522,0.19845
2665.14369,0.19664
2667.07216,0.19523
2669.00062,0.19919
2670.92909,0.20462
2672.85756,0.20774
2674.78603,0.20686
2676.71450,0.20328
2678.64297,0.20107
2680.57144,0.20022
2682.49990,0.20053
2684.42837,0.20207
2686.35684,0.20284
2688.28531,0.20309
2690.21378,0.20225
2692.14225,0.20007
2694.07072,0.19938
2695.99919,0.20011
2697.92765,0.20050
2699.85612,0.20194
2701.78459,0.20615
2703.71306,0.21079
2705.64153,0.21145
2707.57000,0.20896
2709.49847,0.21017
2711.42693,0.21477
2713.35540,0.21506
2715.28387,0.21088
2717.21234,0.20774
2719.14081,0.20681
2721.06928,0.20772
2722.99775,0.21003
2724.92622,0.21087
2726.85468,0.21059
2728.78315,0.21054
2730.71162,0.20957
2732.64009,0.20788
2734.56856,0.20556
2736.49703,0.20485
2738.42550,0.20743
2740.35396,0.21117
2742.28243,0.21352
2744.21090,0.21230
2746.13937,0.21115
2748.06784,0.21293
2749.99631,0.21382
2751.92478,0.21341
2753.85325,0.21426
2755.78171,0.21627
2757.71018,0.21606
2759.63865,0.21249
2761.56712,0.21017
2763.49559,0.20973
2765.42406,0.20723
2767.35253,0.20504
2769.28099,0.20712
2771.20946,0.20815
2773.13793,0.20676
2775.06640,0.20923
2776.99487,0.21074
2778.92334,0.20698
2780.85181,0.20522
2782.78028,0.20790
2784.70874,0.21132
2786.63721,0.21480
2788.56568,0.21782
2790.49415,0.21591
2792.42262,0.20906
2794.35109,0.20526
2796.27956,0.20758
2798.20802,0.21078
2800.13649,0.21326
2802.06496,0.21684
2803.99343,0.21829
2805.92190,0.21655
2807.85037,0.21414
2809.77884,0.21126
2811.70731,0.21021
2813.63577,0.21255
2815.56424,0.21512
2817.49271,0.21625
2819.42118,0.21756
2821.34965,0.21887
2823.27812,0.21854
2825.20659,0.21871
2827.13505,0.22167
2829.06352,0.22376
2830.99199,0.22054
2832.92046,0.21553
2834.84893,0.21399
2836.77740,0.21481
2838.70587,0.21709
2840.63433,0.22039
2842.56280,0.21975
2844.49127,0.21556
2846.41974,0.21414
2848.34821,0.21309
2850.27668,0.20826
2852.20515,0.20641
2854.13362,0.21077
2856.06208,0.21420
2857.99055,0.21465
2859.91902,0.21628
2861.84749,0.21870
2863.77596,0.21921
2865.70443,0.21857
2867.63290,0.21843
2869.56136,0.22005
2871.48983,0.22319
2873.41830,0.22275
2875.34677,0.21801
2877.27524,0.21484
2879.20371,0.21235
2881.13218,0.20951
2883.06065,0.21091
2884.98911,0.21583
2886.91758,0.21840
2888.84605,0.21632
2890.77452,0.21518
2892.70299,0.21897
2894.63146,0.22208
2896.55993,0.21981
2898.48839,0.21460
2900.41686,0.21127
2902.34533,0.21239
2904.27380,0.21415
2906.20227,0.21177
2908.13074,0.20869
2910.05921,0.21021
2911.98768,0.21343
2913.91614,0.21304
2915.84461,0.21020
2917.77308,0.20996
2919.70155,0.21309
2921.63002,0.21335
2923.55849,0.21216
2925.48696,0.22045
2927.41542,0.23325
2929.34389,0.23611
2931.27236,0.22502
2933.20083,0.21054
2935.12930,0.20665
2937.05777,0.20889
2938.98624,0.21246
2940.91471,0.21778
2942.84317,0.21647
2944.77164,0.21094
2946.70011,0.20854
2948.62858,0.20758
2950.55705,0.21038
2952.48552,0.21752
2954.41399,0.21887
2956.34245,0.21190
2958.27092,0.20880
2960.19939,0.21352
2962.12786,0.21664
2964.05633,0.21454
2965.98480,0.21323
2967.91327,0.21618
2969.84174,0.22103
2971.77020,0.22224
2973.69867,0.21724
2975.62714,0.21141
2977.55561,0.21034
2979.48408,0.21404
2981.41255,0.22050
2983.34102,0.22534
2985.26948,0.22253
2987.19795,0.21456
2989.12642,0.21128
2991.05489,0.21376
2992.98336,0.21513
2994.91183,0.21423
2996.84030,0.21541
2998.76877,0.22035
3000.69723,0.22591
3002.62570,0.22912
3004.55417,0.23166
3006.48264,0.23115
3008.41111,0.22377
3010.33958,0.21628
3012.26805,0.21119
3014.19651,0.20173
3016.12498,0.19111
3018.05345,0.19254
3019.98192,0.20770
3021.91039,0.22264
3023.83886,0.22709
3025.76733,0.22312
3027.69579,0.22028
3029.62426,0.22227
3031.55273,0.22358
3033.48120,0.22238
3035.40967,0.22239
3037.33814,0.22355
3039.26661,0.22400
3041.19508,0.22385
3043.12354,0.22154
3045.05201,0.21765
3046.98048,0.21616
3048.90895,0.21839
3050.83742,0.22034
3052.76589,0.21851
3054.69436,0.21490
3056.62282,0.21157
3058.55129,0.21140
3060.47976,0.21543
3062.40823,0.21940
3064.33670,0.21976
3066.26517,0.21714
3068.19364,0.21659
3070.12211,0.22010
3072.05057,0.22286
3073.97904,0.22089
3075.90751,0.21742
3077.83598,0.21561
3079.76445,0.21447
3081.69292,0.21397
3083.62139,0.21315
3085.54985,0.21316
3087.47832,0.21343
3089.40679,0.21330
3091.33526,0.21610
3093.26373,0.21674
3095.19220,0.21526
3097.12067,0.22050
3099.04914,0.22886
3100.97760,0.23201
3102.90607,0.22817
3104.83454,0.22226
3106.76301,0.22027
3108.69148,0.22240
3110.61995,0.22582
3112.54842,0.22785
3114.47688,0.22840
3116.40535,0.22638
3118.33382,0.21905
3120.26229,0.21028
3122.19076,0.20842
3124.11923,0.21534
3126.04770,0.22339
3127.97617,0.22642
3129.90463,0.22636
3131.83310,0.22663
3133.76157,0.22575
3135.69004,0.22146
3137.61851,0.21905
3139.54698,0.22169
3141.47545,0.22150
3143.40391,0.21590
3145.33238,0.21344
3147.26085,0.21523
3149.18932,0.21722
3151.11779,0.22177
3153.04626,0.22786
3154.97473,0.23151
3156.90320,0.23181
3158.83166,0.22757
3160.76013,0.22154
3162.68860,0.22229
3164.61707,0.22993
3166.54554,0.23341
3168.47401,0.23149
3170.40248,0.23054
3172.33094,0.22900
3174.25941,0.22566
3176.18788,0.22590
3178.11635,0.23126
3180.04482,0.23558
3181.97329,0.23727
3183.90176,0.24172
3185.83022,0.24708
3187.75869,0.24537
3189.68716,0.23726
3191.61563,0.22876
3193.54410,0.22491
3195.47257,0.22584
3197.40104,0.22553
3199.32951,0.22315
3201.25797,0.22226
3203.18644,0.22487
3205.11491,0.22830
3207.04338,0.23035
3208.97185,0.23428
3210.90032,0.23796
3212.82879,0.23741
3214.75725,0.23371
3216.68572,0.22835
3218.61419,0.22371
3220.54266,0.22222
3222.47113,0.22138
3224.39960,0.22011
3226.32807,0.21925
3228.25654,0.21571
3230.18500,0.21157
3232.11347,0.21366
3234.04194,0.22139
3235.97041,0.22500
3237.89888,0.22125
3239.82735,0.21837
3241.75582,0.22082
3243.68428,0.22492
3245.61275,0.22758
3247.54122,0.23217
3249.46969,0.23565
3251.39816,0.23165
3253.32663,0.22405
3255.25510,0.21815
3257.18357,0.21827
3259.11203,0.22243
3261.04050,0.22301
3262.96897,0.22041
3264.89744,0.21841
3266.82591,0.21741
3268.75438,0.21804
3270.68285,0.22162
3272.61131,0.22500
3274.53978,0.22437
3276.46825,0.22414
3278.39672,0.22882
3280.32519,0.23343
3282.25366,0.23341
3284.18213,0.23149
3286.11060,0.23177
3288.03906,0.23570
3289.96753,0.23806
3291.89600,0.23203
3293.82447,0.22064
3295.75294,0.21227
3297.68141,0.21158
3299.60988,0.21602
3301.53834,0.22066
3303.46681,0.22388
3305.39528,0.22363
3307.32375,0.22061
3309.25222,0.21887
3311.18069,0.21711
3313.10916,0.21217
3315.03763,0.20748
3316.96609,0.20689
3318.89456,0.20867
3320.82303,0.21250
3322.75150,0.21925
3324.67997,0.22477
3326.60844,0.22478
3328.53691,0.22089
3330.46537,0.21893
3332.39384,0.22293
3334.32231,0.22905
3336.25078,0.22906
3338.17925,0.22289
3340.10772,0.21837
3342.03619,0.21874
3343.96466,0.22176
3345.89312,0.22486
3347.82159,0.22725
3349.75006,0.22915
3351.67853,0.22964
3353.60700,0.23020
3355.53547,0.23002
3357.46394,0.22471
3359.39240,0.21897
3361.32087,0.22096
3363.24934,0.22857
3365.17781,0.23288
3367.10628,0.22919
3369.03475,0.22316
3370.96322,0.22296
3372.89168,0.22531
3374.82015,0.22415
3376.74862,0.22500
3378.67709,0.23090
3380.60556,0.23422
3382.53403,0.23265
3384.46250,0.23121
3386.39097,0.23139
3388.31943,0.23137
3390.24790,0.22963
3392.17637,0.22847
3394.10484,0.22877
3396.03331,0.22862
3397.96178,0.23167
3399.89025,0.23041
3401.81871,0.21503
3403.74718,0.20141
3405.67565,0.20436
3407.60412,0.21411
3409.53259,0.21891
3411.46106,0.21941
3413.38953,0.21736
3415.31800,0.21532
3417.24646,0.22057
3419.17493,0.22982
3421.10340,0.22934
3423.03187,0.22027
3424.96034,0.21537
3426.88881,0.21410
3428.81728,0.21123
3430.74574,0.21029
3432.67421,0.21255
3434.60268,0.21322
3436.53115,0.21218
3438.45962,0.21358
3440.38809,0.21705
3442.31656,0.21830
3444.24503,0.21911
3446.17349,0.22302
3448.10196,0.22171
3450.03043,0.21216
3451.95890,0.20675
3453.88737,0.20978
3455.81584,0.21134
3457.74431,0.20557
3459.67277,0.20121
3461.60124,0.20353
3463.52971,0.20606
3465.45818,0.20717
3467.38665,0.20798
3469.31512,0.20700
3471.24359,0.20802
3473.17206,0.21007
3475.10052,0.20629
3477.02899,0.20250
3478.95746,0.20640
3480.88593,0.21235
3482.81440,0.21273
3484.74287,0.21076
3486.67134,0.21130
3488.59980,0.20745
3490.52827,0.19615
3492.45674,0.18871
3494.38521,0.19051
3496.31368,0.19478
3498.24215,0.19684
3500.17062,0.19636
3502.09909,0.19364
3504.02755,0.19223
3505.95602,0.19361
3507.88449,0.19379
3509.81296,0.19149
3511.74143,0.19205
3513.66990,0.19604
3515.59837,0.19526
3517.52683,0.18750
3519.45530,0.18070
3521.38377,0.18058
3523.31224,0.18288
3525.24071,0.18257
3527.16918,0.18104
3529.09765,0.17809
3531.02611,0.17350
3532.95458,0.17166
3534.88305,0.17316
3536.81152,0.17273
3538.73999,0.17023
3540.66846,0.17440
3542.59693,0.18634
3544.52540,0.19402
3546.45386,0.19214
3548.38233,0.18850
3550.31080,0.18762
3552.23927,0.18475
3554.16774,0.17273
3556.09621,0.16247
3558.02468,0.16590
3559.95314,0.17493
3561.88161,0.18348
3563.81008,0.19405
3565.73855,0.20216
3567.66702,0.19587
3569.59549,0.17790
3571.52396,0.16602
3573.45243,0.16539
3575.38089,0.16774
3577.30936,0.16769
3579.23783,0.17084
3581.16630,0.17522
3583.09477,0.17531
3585.02324,0.17688
3586.95171,0.18067
3588.88017,0.17320
3590.80864,0.16297
3592.73711,0.16245
3594.66558,0.16432
3596.59405,0.16397
3598.52252,0.16928
3600.45099,0.17576
3602.37946,0.17057
3604.30792,0.15848
3606.23639,0.15514
3608.16486,0.16246
3610.09333,0.16456
3612.02180,0.16125
3613.95027,0.16110
3615.87874,0.16425
3617.80720,0.16819
3619.73567,0.16517
3621.66414,0.15612
3623.59261,0.15069
3625.52108,0.15189
3627.44955,0.16092
3629.37802,0.16805
3631.30649,0.16057
3633.23495,0.14805
3635.16342,0.13884
3637.09189,0.13942
3639.02036,0.14628
3640.94883,0.15043
3642.87730,0.15172
3644.80577,0.15738
3646.73423,0.17197
3648.66270,0.18718
3650.59117,0.17511
3652.51964,0.15452
3654.44811,0.14885
3656.37658,0.15194
3658.30505,0.15018
3660.23352,0.14363
3662.16198,0.13780
3664.09045,0.13547
3666.01892,0.13893
3667.94739,0.14791
3669.87586,0.15713
3671.80433,0.16064
3673.73280,0.16633
3675.66126,0.17241
3677.58973,0.16472
3679.51820,0.15371
3681.44667,0.14868
3683.37514,0.14695
3685.30361,0.14416
3687.23208,0.14511
3689.16055,0.15271
3691.08901,0.15319
3693.01748,0.14729
3694.94595,0.14106
3696.87442,0.13377
3698.80289,0.13216
3700.73136,0.13827
3702.65983,0.13844
3704.58829,0.12902
3706.51676,0.12198
3708.44523,0.12610
3710.37370,0.14348
3712.30217,0.15464
3714.23064,0.14957
3716.15911,0.14450
3718.08757,0.14292
3720.01604,0.14234
3721.94451,0.14147
3723.87298,0.13914
3725.80145,0.13833
3727.72992,0.14178
3729.65839,0.14914
3731.58686,0.16433
3733.51532,0.18707
3735.44379,0.19707
3737.37226,0.17587
3739.30073,0.15008
3741.22920,0.14258
3743.15767,0.15283
3745.08614,0.16844
3747.01460,0.17347
3748.94307,0.17169
3750.87154,0.16362
3752.80001,0.14974
3754.72848,0.14001
3756.65695,0.13685
3758.58542,0.13597
3760.51389,0.13199
3762.44235,0.12990
3764.37082,0.13256
3766.29929,0.13528
3768.22776,0.13727
3770.15623,0.13595
3772.08470,0.12812
3774.01317,0.12484
3775.94163,0.12969
3777.87010,0.13418
3779.79857,0.13129
3781.72704,0.12630
3783.65551,0.12800
3785.58398,0.13163
3787.51245,0.12727
3789.44092,0.12117
3791.36938,0.12364
3793.29785,0.13058
3795.22632,0.13383
3797.15479,0.13456
3799.08326,0.13738
3801.01173,0.14228
3802.94020,0.14399
3804.86866,0.14321
3806.79713,0.14159
3808.72560,0.13345
3810.65407,0.12563
3812.58254,0.12856
3814.51101,0.14328
3816.43948,0.15700
3818.36795,0.15657
3820.29641,0.15070
3822.22488,0.14248
3824.15335,0.13530
3826.08182,0.13271
3828.01029,0.13444
3829.93876,0.13879
3831.86723,0.14139
3833.79569,0.14245
3835.72416,0.14873
3837.65263,0.15757
3839.58110,0.15697
3841.50957,0.14829
3843.43804,0.13826
3845.36651,0.13255
3847.29498,0.13514
3849.22344,0.14178
3851.15191,0.14594
3853.08038,0.14374
3855.00885,0.13502
3856.93732,0.12586
3858.86579,0.12116
3860.79426,0.12389
3862.72272,0.13080
3864.65119,0.12841
3866.57966,0.11706
3868.50813,0.11595
3870.43660,0.12746
3872.36507,0.13475
3874.29354,0.12741
3876.22200,0.11028
3878.15047,0.10350
3880.07894,0.11479
3882.00741,0.12492
3883.93588,0.11909
3885.86435,0.11166
3887.79282,0.11732
3889.72129,0.12765
3891.64975,0.12979
3893.57822,0.12240
3895.50669,0.11914
3897.43516,0.12406
3899.36363,0.13324
3901.29210,0.13612
3903.22057,0.12438
3905.14903,0.11006
3907.07750,0.10209
3909.00597,0.09934
3910.93444,0.10347
3912.86291,0.11164
3914.79138,0.11893
3916.71985,0.11913
3918.64832,0.11192
3920.57678,0.10759
3922.50525,0.10882
3924.43372,0.11266
3926.36219,0.11456
3928.29066,0.11308
3930.21913,0.11051
3932.14760,0.10644
3934.07606,0.10230
3936.00453,0.10254
3937.93300,0.10720
3939.86147,0.11044
3941.78994,0.10870
3943.71841,0.10335
3945.64688,0.09825
3947.57535,0.10025
3949.50381,0.10956
3951.43228,0.11536
3953.36075,0.11361
3955.28922,0.10940
3957.21769,0.10791
3959.14616,0.10930
3961.07463,0.10864
3963.00309,0.10497
3964.93156,0.10442
3966.86003,0.10886
3968.78850,0.11068
3970.71697,0.10860
3972.64544,0.10937
3974.57391,0.11101
3976.50238,0.11008
3978.43084,0.10924
3980.35931,0.10980
3982.28778,0.10994
3984.21625,0.10843
3986.14472,0.10871
3988.07319,0.10989
3990.00166,0.10641
3991.93012,0.10063
3993.85859,0.09715
3995.78706,0.09490
3997.71553,0.09186
3999.64400,0.08901
4001.57247,0.09052
4003.50094,0.09762
4005.42941,0.10260
4007.35787,0.09917
4009.28634,0.09530
4011.21481,0.09824
4013.14328,0.09995
4015.07175,0.09633
4017.00022,0.09474
4018.92869,0.09535
4020.85715,0.09234
4022.78562,0.09006
4024.71409,0.09284
4026.64256,0.09489
4028.57103,0.09419
4030.49950,0.09284
4032.42797,0.09159
4034.35644,0.09166
4036.28490,0.09270
4038.21337,0.09572
4040.14184,0.09872
4042.07031,0.09735
4043.99878,0.09615
4045.92725,0.09861
4047.85572,0.09737
4049.78418,0.09325
4051.71265,0.09443
4053.64112,0.09564
4055.56959,0.09308
4057.49806,0.09275
4059.42653,0.09490
4061.35500,0.09759
4063.28346,0.09944
4065.21193,0.09954
4067.14040,0.09880
4069.06887,0.09391
4070.99734,0.08697
4072.92581,0.08715
4074.85428,0.09096
4076.78275,0.09058
4078.71121,0.08913
4080.63968,0.08787
4082.56815,0.08784
4084.49662,0.09073
4086.42509,0.09017
4088.35356,0.08760
4090.28203,0.08981
4092.21049,0.09043
4094.13896,0.08497
4096.06743,0.08277
4097.99590,0.08709
4099.92437,0.08969
4101.85284,0.08974
4103.78131,0.08942
4105.70978,0.08810
4107.63824,0.08829
4109.56671,0.08840
4111.49518,0.08551
4113.42365,0.08315
4115.35212,0.08471
4117.28059,0.08716
4119.20906,0.08725
4121.13752,0.08547
4123.06599,0.08187
4124.99446,0.07811
4126.92293,0.07494
4128.85140,0.07256
4130.77987,0.07399
4132.70834,0.07537
4134.63681,0.07370
4136.56527,0.07459
4138.49374,0.07643
4140.42221,0.07414
4142.35068,0.07146
4144.27915,0.07367
4146.20762,0.07824
4148.13609,0.07857
4150.06455,0.07763
4151.99302,0.08083
4153.92149,0.08186
4155.84996,0.07600
4157.77843,0.06855
4159.70690,0.06390
4161.63537,0.06193
4163.56384,0.06317
4165.49230,0.06916
4167.42077,0.07477
4169.34924,0.07238
4171.27771,0.06345
4173.20618,0.05889
4175.13465,0.06477
4177.06312,0.07153
4178.99158,0.07491
4180.92005,0.07804
4182.84852,0.07440
4184.77699,0.06725
4186.70546,0.06626
4188.63393,0.06840
4190.56240,0.07269
4192.49087,0.07996
4194.41933,0.08333
4196.34780,0.08054
4198.27627,0.07333
4200.20474,0.06514
4202.13321,0.06346
4204.06168,0.06733
4205.99015,0.07041
4207.91861,0.07103
4209.84708,0.07047
4211.77555,0.06917
4213.70402,0.06409
4215.63249,0.05540
4217.56096,0.04694
4219.48943,0.04309
4221.41789,0.04708
4223.34636,0.05297
4225.27483,0.05668
4227.20330,0.06245
4229.13177,0.06830
4231.06024,0.07073
4232.98871,0.06922
4234.91718,0.06071
4236.84564,0.04894
4238.77411,0.04358
4240.70258,0.04516
4242.63105,0.04862
4244.55952,0.05273
4246.48799,0.05689
4248.41646,0.05960
4250.34492,0.06071
4252.27339,0.05869
4254.20186,0.05326
4256.13033,0.05129
4258.05880,0.05469
4259.98727,0.05715
4261.91574,0.05790
4263.84421,0.05755
4265.77267,0.05742
4267.70114,0.06015
4269.62961,0.06042
4271.55808,0.05593
4273.48655,0.05333
4275.41502,0.05321
4277.34349,0.05066
4279.27195,0.04253
4281.20042,0.03320
4283.12889,0.03697
4285.05736,0.05118
4286.98583,0.05566
4288.91430,0.04785
4290.84277,0.03677
4292.77124,0.02655
4294.69970,0.02328
4296.62817,0.02780
4298.55664,0.03160
4300.48511,0.03002
4302.41358,0.02470
4304.34205,0.02291
4306.27052,0.02738
4308.19898,0.03034
4310.12745,0.03166
4312.05592,0.03648
4313.98439,0.04579
4315.91286,0.05486
4317.84133,0.05408
4319.76980,0.04481
4321.69827,0.03994
4323.62673,0.04443
4325.55520,0.05067
4327.48367,0.05135
4329.41214,0.04577
4331.34061,0.03763
4333.26908,0.03420
4335.19755,0.03702
4337.12601,0.04009
4339.05448,0.04122
4340.98295,0.04242
4342.91142,0.04244
4344.83989,0.03661
4346.76836,0.02643
4348.69683,0.01300
4350.62530,-0.00838
4352.55376,-0.02796
4354.48223,-0.02743
4356.41070,-0.00370
4358.33917,0.02411
4360.26764,0.03559
4362.19611,0.03531
4364.12458,0.03400
4366.05304,0.03162
4367.98151,0.02748
4369.90998,0.02389
4371.83845,0.02318
4373.76692,0.02402
4375.69539,0.01953
4377.62386,0.00813
4379.55232,0.00460
4381.48079,0.01333
4383.40926,0.02177
4385.33773,0.02459
4387.26620,0.02046
4389.19467,0.01801
4391.12314,0.02592
4393.05161,0.03081
4394.98007,0.02739
4396.90854,0.02503
4398.83701,0.02362
4400.76548,0.02587
4402.69395,0.03455
4404.62242,0.03853
4406.55089,0.03291
4408.47935,0.02335
4410.40782,0.01481
4412.33629,0.01489
4414.26476,0.02332
4416.19323,0.02682
4418.12170,0.02159
4420.05017,0.01640
4421.97864,0.01537
4423.90710,0.01583
4425.83557,0.01750
4427.76404,0.02268
4429.69251,0.02430
4431.62098,0.01733
4433.54945,0.00998
4435.47792,0.00652
4437.40638,0.00662
4439.33485,0.01130
4441.26332,0.01665
4443.19179,0.01949
4445.12026,0.01997
4447.04873,0.01570
4448.97720,0.00937
4450.90567,0.00850
4452.83413,0.01173
4454.76260,0.01094
4456.69107,0.00632
4458.61954,0.00489
4460.54801,0.00858
4462.47648,0.01389
4464.40495,0.01642
4466.33341,0.01720
4468.26188,0.02224
4470.19035,0.02801
4472.11882,0.02832
4474.04729,0.02792
4475.97576,0.02816
4477.90423,0.02065
4479.83270,0.00730
4481.76116,0.00370
4483.68963,0.01082
4485.61810,0.01297
4487.54657,0.00985
4489.47504,0.00997
4491.40351,0.01484
4493.33198,0.02292
4495.26044,0.02465
4497.18891,0.01380
4499.11738,-0.00069
4501.04585,-0.00976
4502.97432,-0.01494
4504.90279,-0.01323
4506.83126,-0.00428
4508.75973,-0.00280
4510.68819,-0.00605
4512.61666,0.00071
4514.54513,0.01295
4516.47360,0.02025
4518.40207,0.01969
4520.33054,0.00930
4522.25901,-0.00483
4524.18747,-0.00910
4526.11594,-0.00760
4528.04441,-0.00886
4529.97288,-0.00921
4531.90135,-0.00773
4533.82982,-0.00363
4535.75829,0.00485
4537.68676,0.01620
4539.61522,0.02454
4541.54369,0.02294
4543.47216,0.01362
4545.40063,0.00388
4547.32910,0.00327
4549.25757,0.01448
4551.18604,0.02324
4553.11450,0.01557
4555.04297,0.00172
4556.97144,0.00285
4558.89991,0.01680
4560.82838,0.02543
4562.75685,0.01985
4564.68532,0.00392
4566.61378,-0.00639
4568.54225,-0.00407
4570.47072,0.00621
4572.39919,0.01406
4574.32766,0.00788
4576.25613,-0.00992
4578.18460,-0.02281
4580.11307,-0.02089
4582.04153,-0.00997
4583.97000,-0.00042
4585.89847,0.00188
4587.82694,-0.00396
4589.75541,-0.00810
4591.68388,-0.00651
4593.61235,-0.00679
4595.54081,-0.01137
4597.46928,-0.01873
4599.39775,-0.02354
4601.32622,-0.02160
4603.25469,-0.01345
4605.18316,-0.00227
4607.11163,0.00399
4609.04010,0.00797
4610.96856,0.01606
4612.89703,0.01772
4614.82550,0.00984
4616.75397,0.00405
4618.68244,0.00214
4620.61091,0.00015
4622.53938,-0.00247
4624.46784,0.00002
4626.39631,0.00815
4628.32478,0.00733
4630.25325,-0.00004
4632.18172,0.00517
4634.11019,0.01961
4636.03866,0.02583
4637.96713,0.02117
4639.89559,0.01698
4641.82406,0.01985
4643.75253,0.01774
4645.68100,0.00464
4647.60947,0.00070
4649.53794,0.00858
4651.46641,0.00988
4653.39487,0.00478
4655.32334,-0.00070
4657.25181,-0.00228
4659.18028,0.00197
4661.10875,0.00599
4663.03722,0.00902
4664.96569,0.01750
4666.89416,0.03620
4668.82262,0.05870
4670.75109,0.06273
4672.67956,0.03648
4674.60803,0.00372
4676.53650,-0.00662
4678.46497,-0.00054
4680.39344,0.00129
4682.32190,-0.00051
4684.25037,0.00250
4686.17884,0.00804
4688.10731,0.01116
4690.03578,0.00988
4691.96425,0.00767
4693.89272,0.00865
4695.82119,0.01030
4697.74965,0.00751
4699.67812,0.00108
4701.60659,-0.00476
4703.53506,-0.00924
4705.46353,-0.00627
4707.39200,0.00372
4709.32047,0.00886
4711.24893,0.00906
4713.17740,0.00506
4715.10587,-0.00456
4717.03434,-0.00625
4718.96281,0.00636
4720.89128,0.01843
4722.81975,0.01741
4724.74821,0.00908
4726.67668,0.00119
4728.60515,-0.01020
4730.53362,-0.02109
4732.46209,-0.02641
4734.39056,-0.02871
4736.31903,-0.02148
4738.24750,-0.01027
4740.17596,-0.01063
4742.10443,-0.01260
4744.03290,-0.00557
4745.96137,0.00354
4747.88984,0.01146
4749.81831,0.01740
4751.74678,0.01999
4753.67524,0.01697
4755.60371,0.00782
4757.53218,0.00053
4759.46065,-0.00003
4761.38912,0.00151
4763.31759,0.00132
4765.24606,-0.00563
4767.17453,-0.01471
4769.10299,-0.01737
4771.03146,-0.01999
4772.95993,-0.02146
4774.88840,-0.01349
4776.81687,-0.00296
4778.74534,0.00114
4780.67381,0.00180
4782.60227,0.00583
4784.53074,0.01126
4786.45921,0.01787
4788.38768,0.02369
4790.31615,0.01962
4792.24462,0.01544
4794.17309,0.02000
4796.10156,0.01882
4798.03002,0.00591
4799.95849,-0.00704
4801.88696,-0.00921
4803.81543,0.00821
4805.74390,0.03453
4807.67237,0.03997
4809.60084,0.02392
4811.52930,0.00434
4813.45777,-0.01488
4815.38624,-0.02271
4817.31471,-0.01082
4819.24318,0.00507
4821.17165,0.01539
4823.10012,0.02254
4825.02859,0.01893
4826.95705,0.00316
4828.88552,-0.00721
4830.81399,-0.00074
4832.74246,0.01289
4834.67093,0.01895
4836.59940,0.01502
4838.52787,0.00755
4840.45633,0.00367
4842.38480,0.00472
4844.31327,0.00574
4846.24174,0.00674
4848.17021,0.01368
4850.09868,0.02101
4852.02715,0.01865
4853.95562,0.01295
4855.88408,0.00944
4857.81255,0.00412
4859.74102,-0.00037
4861.66949,0.00321
4863.59796,0.01021
4865.52643,0.00588
4867.45490,-0.00692
4869.38336,-0.01166
4871.31183,-0.00849
4873.24030,-0.00349
4875.16877,0.00183
4877.09724,0.00254
4879.02571,0.00044
4880.95418,-0.00310
4882.88265,-0.00954
4884.81111,-0.00988
4886.73958,0.00133
4888.66805,0.01028
4890.59652,0.00427
4892.52499,-0.00098
4894.45346,0.01125
4896.38193,0.02527
4898.31039,0.02593
4900.23886,0.02120
4902.16733,0.01924
4904.09580,0.02141
4906.02427,0.02354
4907.95274,0.01989
4909.88121,0.01595
4911.80967,0.01127
4913.73814,0.00430
4915.66661,0.00280
4917.59508,-0.00071
4919.52355,-0.00963
4921.45202,-0.01825
4923.38049,-0.02642
4925.30896,-0.03010
4927.23742,-0.03189
4929.16589,-0.03311
4931.09436,-0.02013
4933.02283,0.00835
4934.95130,0.02339
4936.87977,0.01506
4938.80824,0.00882
4940.73670,0.01467
4942.66517,0.01740
4944.59364,0.00959
4946.52211,-0.00326
4948.45058,-0.01203
4950.37905,-0.01043
4952.30752,-0.00224
4954.23599,0.00453
4956.16445,0.00843
4958.09292,0.00776
4960.02139,-0.00014
4961.94986,-0.00526
4963.87833,0.00571
4965.80680,0.02710
4967.73527,0.03697
4969.66373,0.02261
4971.59220,0.00037
4973.52067,-0.01085
4975.44914,-0.00918
4977.37761,-0.00080
4979.30608,0.00336
4981.23455,0.01030
4983.16302,0.02832
4985.09148,0.04402
4987.01995,0.04588
4988.94842,0.03428
4990.87689,0.01534
4992.80536,-0.00108
4994.73383,-0.00839
4996.66230,-0.00903
4998.59076,0.00353
5000.51923,0.02887
5002.44770,0.03322
5004.37617,0.00662
5006.30464,-0.00023
5008.23311,0.02526
5010.16158,0.03778
5012.09005,0.03020
5014.01851,0.02411
5015.94698,0.01323
5017.87545,-0.01155
5019.80392,-0.02387
5021.73239,-0.00285
5023.66086,0.01856
5025.58933,0.01833
5027.51779,0.01838
5029.44626,0.02426
5031.37473,0.02261
5033.30320,0.01181
5035.23167,-0.00175
5037.16014,-0.00857
5039.08861,-0.01117
5041.01708,-0.01752
5042.94554,-0.01784
5044.87401,-0.00524
5046.80248,0.01121
5048.73095,0.01727
5050.65942,0.01087
5052.58789,0.00746
5054.51636,0.00910
5056.44482,0.00370
5058.37329,-0.00652
5060.30176,-0.01412
5062.23023,-0.01525
5064.15870,-0.00358
5066.08717,0.01237
5068.01564,0.00895
5069.94410,-0.00223
5071.87257,0.00276
5073.80104,0.00676
5075.72951,-0.00823
5077.65798,-0.02125
5079.58645,-0.02314
5081.51492,-0.02940
5083.44339,-0.03511
5085.37185,-0.02740
5087.30032,-0.01311
5089.22879,-0.00185
5091.15726,0.00629
5093.08573,0.00843
5095.01420,0.00661
5096.94267,0.01195
5098.87113,0.02268
5100.79960,0.02827
5102.72807,0.02167
5104.65654,0.00872
5106.58501,0.00729
5108.51348,0.01633
5110.44195,0.02147
5112.37042,0.02081
5114.29888,0.01079
5116.22735,-0.00867
5118.15582,-0.02056
5120.08429,-0.01417
5122.01276,0.00524
5123.94123,0.02823
5125.86970,0.03776
5127.79816,0.02077
5129.72663,0.00031
5131.65510,0.00009
5133.58357,0.00182
5135.51204,-0.00146
5137.44051,0.00293
5139.36898,0.00769
5141.29745,0.01675
5143.22591,0.04191
5145.15438,0.06486
5147.08285,0.06127
5149.01132,0.02621
5150.93979,-0.00822
5152.86826,-0.00341
5154.79673,0.02176
5156.72519,0.03757
5158.65366,0.03575
5160.58213,0.02105
5162.51060,0.01634
5164.43907,0.01386
5166.36754,0.00247
5168.29601,0.00751
5170.22448,0.02888
5172.15294,0.04238
5174.08141,0.03664
5176.00988,0.00352
5177.93835,-0.04162
5179.86682,-0.05691
5181.79529,-0.03298
5183.72376,0.00599
5185.65222,0.03259
5187.58069,0.02897
5189.50916,0.02167
5191.43763,0.03764
5193.36610,0.05695
5195.29457,0.05561
5197.22304,0.04350
5199.15151,0.04409
5201.07997,0.05225
5203.00844,0.05537
5204.93691,0.05998
5206.86538,0.05674
5208.79385,0.03356
5210.72232,0.01834
5212.65079,0.03479
5214.57925,0.05785
5216.50772,0.05698
5218.43619,0.04965
5220.36466,0.04716
5222.29313,0.04043
5224.22160,0.03948
5226.15007,0.04185
5228.07854,0.04349
5230.00700,0.05540
5231.93547,0.06314
5233.86394,0.05394
5235.79241,0.04499
5237.72088,0.05236
5239.64935,0.07047
5241.57782,0.06950
5243.50628,0.04056
5245.43475,0.01700
5247.36322,0.00764
5249.29169,-0.00812
5251.22016,-0.01710
5253.14863,0.00046
5255.07710,0.03028
5257.00556,0.05505
5258.93403,0.06322
5260.86250,0.04825
5262.79097,0.03958
5264.71944,0.05308
5266.64791,0.05890
5268.57638,0.04398
5270.50485,0.02577
5272.43331,0.02966
5274.36178,0.04903
5276.29025,0.05987
5278.21872,0.05825
5280.14719,0.04790
5282.07566,0.03544
5284.00413,0.03727
5285.93259,0.05367
5287.86106,0.05318
5289.78953,0.03214
5291.71800,0.02619
5293.64647,0.03440
5295.57494,0.03525
5297.50341,0.03304
5299.43188,0.04226
5301.36034,0.06049
5303.28881,0.05333
5305.21728,0.01226
5307.14575,-0.00900
5309.07422,0.01476
5311.00269,0.03085
5312.93116,0.01681
5314.85962,0.00664
5316.78809,0.01883
5318.71656,0.03499
5320.64503,0.03898
5322.57350,0.03159
5324.50197,0.01668
5326.43044,0.01028
5328.35891,0.02749
5330.28737,0.04511
5332.21584,0.04148
5334.14431,0.03749
5336.07278,0.04102
5338.00125,0.03041
5339.92972,0.02121
5341.85819,0.03853
5343.78665,0.06434
5345.71512,0.06023
5347.64359,0.03365
5349.57206,0.01606
5351.50053,0.00607
5353.42900,0.00806
5355.35747,0.02495
5357.28594,0.03916
5359.21440,0.05184
5361.14287,0.05755
5363.07134,0.04485
5364.99981,0.03724
5366.92828,0.05140
5368.85675,0.06343
5370.78522,0.06022
5372.71368,0.05511
5374.64215,0.05571
5376.57062,0.06110
5378.49909,0.07533
5380.42756,0.08672
5382.35603,0.08020
5384.28450,0.06597
5386.21297,0.06595
5388.14143,0.06449
5390.06990,0.04313
5391.99837,0.03448
5393.92684,0.04717
5395.85531,0.04131
5397.78378,0.03986
5399.71225,0.06399
5401.64071,0.07244
5403.56918,0.04865
5405.49765,0.01593
5407.42612,-0.00046
5409.35459,0.01401
5411.28306,0.05448
5413.21153,0.09723
5415.13999,0.11349
5417.06846,0.10043
5418.99693,0.07597
5420.92540,0.06481
5422.85387,0.07355
5424.78234,0.07643
5426.71081,0.06734
5428.63928,0.07194
5430.56774,0.08212
5432.49621,0.06640
5434.42468,0.03348
5436.35315,0.01637
5438.28162,0.03097
5440.21009,0.06292
5442.13856,0.08462
5444.06702,0.09342
5445.99549,0.09300
5447.92396,0.08309
5449.85243,0.07963
5451.78090,0.07230
5453.70937,0.04359
5455.63784,0.00851
5457.56631,-0.00698
5459.49477,-0.00131
5461.42324,0.02035
5463.35171,0.06474
5465.28018,0.10158
5467.20865,0.08633
5469.13712,0.04526
5471.06559,0.03420
5472.99405,0.04695
5474.92252,0.05730
5476.85099,0.06331
5478.77946,0.06509
5480.70793,0.05155
5482.63640,0.03166
5484.56487,0.02448
5486.49334,0.01720
5488.42180,0.00492
5490.35027,0.01941
5492.27874,0.06139
5494.20721,0.07916
5496.13568,0.05119
5498.06415,0.01645
5499.99262,0.02207
5501.92108,0.06003
5503.84955,0.07748
5505.77802,0.06396
5507.70649,0.05361
5509.63496,0.05254
5511.56343,0.05247
5513.49190,0.05857
5515.42037,0.05473
5517.34883,0.03256
5519.27730,0.01578
5521.20577,0.02777
5523.13424,0.04636
5525.06271,0.03984
5526.99118,0.03503
5528.91965,0.04339
5530.84811,0.03779
5532.77658,0.02265
5534.70505,0.01874
5536.63352,0.02230
5538.56199,0.02221
5540.49046,0.02386
5542.41893,0.03413
5544.34740,0.05436
5546.27586,0.07836
5548.20433,0.08778
5550.13280,0.07788
5552.06127,0.07171
5553.98974,0.07588
5555.91821,0.07267
5557.84668,0.06782
5559.77514,0.07350
5561.70361,0.08213
5563.63208,0.08309
5565.56055,0.07571
5567.48902,0.05777
5569.41749,0.02743
5571.34596,0.00725
5573.27443,0.01283
5575.20289,0.03495
5577.13136,0.06082
5579.05983,0.07475
5580.98830,0.07288
5582.91677,0.07989
5584.84524,0.09623
5586.77371,0.09052
5588.70217,0.06423
5590.63064,0.04273
5592.55911,0.03492
5594.48758,0.02698
5596.41605,0.01253
5598.34452,0.01378
5600.27299,0.02263
5602.20145,0.02163
5604.12992,0.03634
5606.05839,0.07688
5607.98686,0.11275
5609.91533,0.10347
5611.84380,0.07227
5613.77227,0.06301
5615.70074,0.00933
5617.62920,-0.10303
5619.55767,-0.15470
5621.48614,-0.10254
5623.41461,0.00444
5625.34308,0.09867
5627.27155,0.11124
5629.20002,0.06060
5631.12848,0.01866
5633.05695,0.02405
5634.98542,0.06196
5636.91389,0.08358
5638.84236,0.08580
5640.77083,0.08604
5642.69930,0.08348
5644.62777,0.07831
5646.55623,0.05532
5648.48470,0.02130
5650.41317,0.01649
5652.34164,0.03332
5654.27011,0.04405
5656.19858,0.04472
5658.12705,0.03391
5660.05551,0.03517
5661.98398,0.04399
5663.91245,0.03483
5665.84092,0.05260
5667.76939,0.10406
5669.69786,0.13076
5671.62633,0.11743
5673.55480,0.07392
5675.48326,0.01462
5677.41173,-0.01248
5679.34020,0.01626
5681.26867,0.04993
5683.19714,0.03843
5685.12561,0.00861
5687.05408,0.00867
5688.98254,0.03199
5690.91101,0.06281
5692.83948,0.09617
5694.76795,0.11216
5696.69642,0.12123
5698.62489,0.12766
5700.55336,0.11877
5702.48183,0.11634
5704.41029,0.11144
5706.33876,0.07974
5708.26723,0.04856
5710.19570,0.04883
5712.12417,0.05408
5714.05264,0.02836
5715.98111,0.00385
5717.90957,0.02254
5719.83804,0.06694
5721.76651,0.08498
5723.69498,0.05892
5725.62345,0.02772
5727.55192,0.03361
5729.48039,0.08383
5731.40886,0.12122
5733.33732,0.09240
5735.26579,0.04580
5737.19426,0.05325
5739.12273,0.07407
5741.05120,0.06518
5742.97967,0.06357
5744.90814,0.08344
5746.83660,0.11760
5748.76507,0.15269
5750.69354,0.14995
5752.62201,0.12291
5754.55048,0.11728
5756.47895,0.11500
5758.40742,0.08502
5760.33588,0.05543
5762.26435,0.05791
5764.19282,0.08227
5766.12129,0.11700
5768.04976,0.12918
5769.97823,0.11112
5771.90670,0.10906
5773.83517,0.12765
5775.76363,0.13740
5777.69210,0.12878
5779.62057,0.10689
5781.54904,0.08158
5783.47751,0.05386
5785.40598,0.03593
5787.33445,0.02367
5789.26291,-0.00278
5791.19138,0.00872
5793.11985,0.06610
5795.04832,0.08662
5796.97679,0.04658
5798.90526,-0.01860
5800.83373,-0.06309
5802.76220,-0.04594
5804.69066,0.02159
5806.61913,0.07590
5808.54760,0.10928
5810.47607,0.13470
5812.40454,0.09971
5814.33301,0.03615
5816.26148,0.04055
5818.18994,0.10465
5820.11841,0.14815
5822.04688,0.12601
5823.97535,0.08477
5825.90382,0.06939
5827.83229,0.04964
5829.76076,0.03177
5831.68923,0.07148
5833.61769,0.12544
5835.54616,0.10042
5837.47463,0.01989
5839.40310,-0.02688
5841.33157,-0.00458
5843.26004,0.05232
5845.18851,0.07151
5847.11697,0.04183
5849.04544,0.03583
5850.97391,0.03740
5852.90238,0.00165
5854.83085,0.00782
5856.75932,0.07186
5858.68779,0.07916
5860.61626,0.00827
5862.54472,-0.02956
5864.47319,0.01393
5866.40166,0.07327
5868.33013,0.09171
5870.25860,0.08757
5872.18707,0.07733
5874.11554,0.06439
5876.04400,0.06652
5877.97247,0.05299
5879.90094,0.02730
5881.82941,0.04379
5883.75788,0.07643
5885.68635,0.09700
5887.61482,0.12123
5889.54329,0.11996
5891.47175,0.06847
5893.40022,0.02479
5895.32869,0.03002
5897.25716,0.05069
5899.18563,0.06254
5901.11410,0.06998
5903.04257,0.05671
5904.97103,0.02468
5906.89950,0.01305
5908.82797,0.02339
5910.75644,0.02472
5912.68491,0.02770
5914.61338,0.04650
5916.54185,0.06207
5918.47032,0.08280
5920.39878,0.11834
5922.32725,0.13441
5924.25572,0.10498
5926.18419,0.05220
5928.11266,0.03011
5930.04113,0.06552
5931.96960,0.13563
5933.89806,0.17173
5935.82653,0.12680
5937.75500,0.07620
5939.68347,0.08133
5941.61194,0.09107
5943.54041,0.05713
5945.46888,0.01744
5947.39734,0.01977
5949.32581,0.05382
5951.25428,0.08870
5953.18275,0.10467
5955.11122,0.10908
5957.03969,0.12706
5958.96816,0.13801
5960.89663,0.10133
5962.82509,0.02796
5964.75356,-0.03613
5966.68203,-0.04395
5968.61050,0.00496
5970.53897,0.05525
5972.46744,0.07893
5974.39591,0.08788
5976.32437,0.10119
5978.25284,0.11533
5980.18131,0.08833
5982.10978,0.03060
5984.03825,0.01490
5985.96672,0.05366
5987.89519,0.08622
5989.82366,0.07650
5991.75212,0.05445
5993.68059,0.06622
5995.60906,0.10925
5997.53753,0.12977
5999.46600,0.11499
6001.39447,0.09854
6003.32294,0.09639
6005.25140,0.08197
6007.17987,0.04297
6009.10834,0.03024
6011.03681,0.05040
6012.96528,0.06263
6014.89375,0.05281
6016.82222,0.03503
6018.75069,0.04768
6020.67915,0.08366
6022.60762,0.10081
6024.53609,0.09124
6026.46456,0.06060
6028.39303,0.02500
6030.32150,0.02782
6032.24997,0.04946
6034.17843,0.02453
6036.10690,0.00358
6038.03537,0.04192
6039.96384,0.08847
6041.89231,0.10184
6043.82078,0.08249
6045.74925,0.07137
6047.67772,0.06687
6049.60618,0.01530
6051.53465,-0.01871
6053.46312,0.06643
6055.39159,0.17397
6057.32006,0.19802
6059.24853,0.20513
6061.17700,0.17196
6063.10546,0.06390
6065.03393,-0.00762
6066.96240,-0.00791
6068.89087,0.01573
6070.81934,0.04474
6072.74781,0.07066
6074.67628,0.09877
6076.60475,0.13226
6078.53321,0.13769
6080.46168,0.09741
6082.39015,0.05963
6084.31862,0.08882
6086.24709,0.16432
6088.17556,0.20266
6090.10403,0.21935
6092.03249,0.25522
6093.96096,0.25450
6095.88943,0.20930
6097.81790,0.17810
6099.74637,0.14364
6101.67484,0.12156
6103.60331,0.12808
6105.53177,0.06429
6107.46024,-0.04635
6109.38871,-0.06673
6111.31718,-0.03318
6113.24565,-0.01875
6115.17412,0.01536
6117.10259,0.07306
6119.03106,0.10006
6120.95952,0.06994
6122.88799,0.02259
6124.81646,0.00275
6126.74493,0.02569
6128.67340,0.08596
6130.60187,0.13697
6132.53034,0.14787
6134.45880,0.14699
6136.38727,0.13382
6138.31574,0.10064
6140.24421,0.10540
6142.17268,0.14279
6144.10115,0.10800
6146.02962,0.04719
6147.95809,0.07809
6149.88655,0.16620
6151.81502,0.20491
6153.74349,0.16116
6155.67196,0.11652
6157.60043,0.10317
6159.52890,0.05019
6161.45737,-0.01021
6163.38583,-0.00163
6165.31430,0.03041
6167.24277,0.05200
6169.17124,0.04881
6171.09971,0.00938
6173.02818,0.01366
6174.95665,0.08615
6176.88512,0.14124
6178.81358,0.13838
6180.74205,0.09204
6182.67052,0.04508
6184.59899,0.03812
6186.52746,0.05736
6188.45593,0.07720
6190.38440,0.08271
6192.31286,0.09997
6194.24133,0.15151
6196.16980,0.17916
6198.09827,0.15015
6200.02674,0.10258
6201.95521,0.05870
6203.88368,0.01242
6205.81215,-0.01849
6207.74061,-0.01035
6209.66908,0.02451
6211.59755,0.08258
6213.52602,0.11864
6215.45449,0.07073
6217.38296,-0.00609
6219.31143,-0.01432
6221.23989,0.05630
6223.16836,0.12701
6225.09683,0.10827
6227.02530,0.05935
6228.95377,0.09510
6230.88224,0.15962
6232.81071,0.11343
6234.73918,0.02203
6236.66764,0.01595
6238.59611,0.03502
6240.52458,-0.00034
6242.45305,-0.03549
6244.38152,-0.00478
6246.30999,0.04171
6248.23846,0.05104
6250.16692,0.07966
6252.09539,0.15070
6254.02386,0.17127
6255.95233,0.10229
6257.88080,0.01420
6259.80927,0.00158
6261.73774,0.05925
6263.66621,0.09842
6265.59467,0.08930
6267.52314,0.06696
6269.45161,0.04435
6271.38008,0.03419
6273.30855,0.05056
6275.23702,0.07262
6277.16549,0.05576
6279.09395,-0.00698
6281.02242,-0.06100
6282.95089,-0.05067
6284.87936,-0.00132
6286.80783,0.03154
6288.73630,0.04290
6290.66477,0.04165
6292.59323,0.03034
6294.52170,0.03068
6296.45017,0.04866
6298.37864,0.03969
6300.30711,-0.01114
6302.23558,-0.05919
6304.16405,-0.05542
6306.09252,-0.01663
6308.02098,-0.00344
6309.94945,-0.00312
6311.87792,0.04359
6313.80639,0.09926
6315.73486,0.09603
6317.66333,0.05076
6319.59180,0.01508
6321.52026,0.00665
6323.44873,0.02481
6325.37720,0.08403
6327.30567,0.15138
6329.23414,0.15618
6331.16261,0.12788
6333.09108,0.09633
6335.01955,0.03659
6336.94801,0.00450
6338.87648,0.02301
6340.80495,0.02914
6342.73342,0.03803
6344.66189,0.10098
6346.59036,0.14110
6348.51883,0.09547
6350.44729,0.02465
6352.37576,-0.01689
6354.30423,-0.00081
6356.23270,0.05689
6358.16117,0.11627
6360.08964,0.14489
6362.01811,0.12584
6363.94658,0.10375
6365.87504,0.12054
6367.80351,0.12302
6369.73198,0.09808
6371.66045,0.10509
6373.58892,0.13768
6375.51739,0.15775
6377.44586,0.13990
6379.37432,0.07595
6381.30279,0.00787
6383.23126,-0.00347
6385.15973,0.06922
6387.08820,0.16922
6389.01667,0.23505
6390.94514,0.25049
6392.87361,0.21691
6394.80207,0.15443
6396.73054,0.08390
6398.65901,0.02720
6400.58748,0.04680
6402.51595,0.14645
6404.44442,0.22705
6406.37289,0.25141
6408.30135,0.25716
6410.22982,0.21943
6412.15829,0.13568
6414.08676,0.08347
6416.01523,0.06283
6417.94370,0.01694
6419.87217,-0.03417
6421.80064,-0.03099
6423.72910,0.00040
6425.65757,0.02360
6427.58604,0.03501
6429.51451,0.01884
6431.44298,-0.00818
6433.37145,0.01479
6435.29992,0.06516
6437.22838,0.06282
6439.15685,0.04343
6441.08532,0.07979
6443.01379,0.11815
6444.94226,0.08494
6446.87073,0.02409
6448.79920,0.01284
6450.72766,0.05279
6452.65613,0.09829
6454.58460,0.11696
6456.51307,0.10975
6458.44154,0.08659
6460.37001,0.03194
6462.29848,-0.06027
6464.22695,-0.14002
6466.15541,-0.13718
6468.08388,-0.05904
6470.01235,0.04267
6471.94082,0.14144
6473.86929,0.17683
6475.79776,0.12563
6477.72623,0.05043
6479.65469,-0.01732
6481.58316,-0.06697
6483.51163,-0.05107
6485.44010,0.00863
6487.36857,0.06584
6489.29704,0.12198
6491.22551,0.18164
6493.15398,0.24540
6495.08244,0.26788
6497.01091,0.18980
6498.93938,0.09145
6500.86785,0.06291
6502.79632,0.06749
6504.72479,0.07447
6506.65326,0.04392
6508.58172,-0.01446
6510.51019,0.02733
6512.43866,0.15642
6514.36713,0.21947
6516.29560,0.15716
6518.22407,0.02921
6520.15254,-0.01171
6522.08101,0.07129
6524.00947,0.12362
6525.93794,0.06461
6527.86641,0.02528
6529.79488,0.04419
6531.72335,0.06776
6533.65182,0.08370
6535.58029,0.09977
6537.50875,0.10251
6539.43722,0.03547
6541.36569,-0.04876
6543.29416,-0.04635
6545.22263,0.00286
6547.15110,0.04503
6549.07957,0.10002
6551.00804,0.17485
6552.93650,0.21037
6554.86497,0.16174
6556.79344,0.11717
6558.72191,0.13573
6560.65038,0.13757
6562.57885,0.11699
6564.50732,0.11077
6566.43578,0.01496
6568.36425,-0.14892
6570.29272,-0.15857
6572.22119,0.01407
6574.14966,0.17439
6576.07813,0.22965
6578.00660,0.19387
6579.93507,0.12894
6581.86353,0.13785
6583.79200,0.18069
6585.72047,0.18912
6587.64894,0.18649
6589.57741,0.14254
6591.50588,0.08765
6593.43435,0.05585
6595.36281,-0.02145
6597.29128,-0.10203
6599.21975,-0.11808
6601.14822,-0.09357
6603.07669,-0.04027
6605.00516,-0.01146
6606.93363,-0.02685
6608.86210,0.02825
6610.79056,0.17100
6612.71903,0.24665
6614.64750,0.19707
6616.57597,0.14981
6618.50444,0.17249
6620.43291,0.18788
6622.36138,0.17633
6624.28984,0.13911
6626.21831,0.05704
6628.14678,-0.02053
6630.07525,-0.04149
6632.00372,-0.03399
6633.93219,-0.07205
6635.86066,-0.15577
6637.78912,-0.13450
6639.71759,0.00170
6641.64606,0.10257
6643.57453,0.11003
6645.50300,0.07196
6647.43147,0.04353
6649.35994,0.03678
6651.28841,0.05750
6653.21687,0.10631
6655.14534,0.13712
6657.07381,0.13366
6659.00228,0.16410
6660.93075,0.20484
6662.85922,0.19421
6664.78769,0.16099
6666.71615,0.10369
6668.64462,0.02243
6670.57309,-0.04320
6672.50156,-0.05703
6674.43003,-0.01382
6676.35850,-0.01104
6678.28697,-0.05007
6680.21544,-0.01724
6682.14390,0.04631
6684.07237,0.05107
6686.00084,0.06750
6687.92931,0.13561
6689.85778,0.14779
6691.78625,0.09936
6693.71472,0.08404
6695.64318,0.10957
6697.57165,0.13282
6699.50012,0.13918
6701.42859,0.14782
6703.35706,0.14794
6705.28553,0.12473
6707.21400,0.11885
6709.14247,0.12129
6711.07093,0.08364
6712.99940,0.06577
6714.92787,0.09581
6716.85634,0.10650
6718.78481,0.10162
6720.71328,0.11929
6722.64175,0.09581
6724.57021,0.01440
6726.49868,-0.02352
6728.42715,0.01406
6730.35562,0.04982
6732.28409,0.01565
6734.21256,0.00627
6736.14103,0.11470
6738.06950,0.22744
6739.99796,0.25918
6741.92643,0.22021
6743.85490,0.15007
6745.78337,0.08009
6747.71184,-0.01897
6749.64031,-0.13463
6751.56878,-0.18109
6753.49724,-0.14325
6755.42571,-0.13321
6757.35418,-0.14390
6759.28265,-0.06182
6761.21112,0.03376
6763.13959,0.05722
6765.06806,0.12161
6766.99653,0.21189
6768.92499,0.21431
6770.85346,0.16610
6772.78193,0.11537
6774.71040,0.07530
6776.63887,0.10191
6778.56734,0.11449
6780.49581,0.07780
6782.42427,0.07618
6784.35274,0.04520
6786.28121,-0.04262
6788.20968,-0.03671
6790.13815,0.01817
6792.06662,0.00074
6793.99509,0.07272
6795.92355,0.24767
6797.85202,0.33132
6799.78049,0.26974
6801.70896,0.11789
6803.63743,0.01940
6805.56590,0.00180
6807.49437,-0.03122
6809.42284,-0.08159
6811.35130,-0.11588
6813.27977,-0.06944
6815.20824,0.06314
6817.13671,0.09859
6819.06518,-0.02305
6820.99365,-0.07230
6822.92212,0.06192
6824.85058,0.17440
6826.77905,0.17953
6828.70752,0.13130
6830.63599,0.06523
6832.56446,0.08788
6834.49293,0.16900
6836.42140,0.18007
6838.34987,0.12886
6840.27833,0.05576
6842.20680,0.00622
6844.13527,0.05032
6846.06374,0.09413
6847.99221,0.01379
6849.92068,-0.09960
6851.84915,-0.11069
6853.77761,-0.08189
6855.70608,-0.09581
6857.63455,-0.09735
6859.56302,-0.05498
6861.49149,-0.00565
6863.41996,0.04368
6865.34843,0.05057
6867.27690,0.00498
6869.20536,0.00830
6871.13383,0.03945
6873.06230,0.01082
6874.99077,-0.00331
6876.91924,0.03459
6878.84771,0.04082
6880.77618,0.01729
6882.70464,0.09729
6884.63311,0.23251
6886.56158,0.23946
6888.49005,0.17262
6890.41852,0.16191
6892.34699,0.16365
6894.27546,0.21639
6896.20393,0.31478
6898.13239,0.23661
6900.06086,0.01420
6901.98933,-0.09935
6903.91780,-0.08308
6905.84627,-0.02658
6907.77474,0.02439
6909.70321,0.05013
6911.63167,0.04575
6913.56014,-0.00091
6915.48861,-0.08564
6917.41708,-0.13637
6919.34555,-0.10986
6921.27402,-0.02121
6923.20249,0.13233
6925.13096,0.25056
6927.05942,0.22840
6928.98789,0.12411
6930.91636,0.05853
6932.84483,0.09243
6934.77330,0.15557
6936.70177,0.17872
6938.63024,0.17318
6940.55870,0.12569
6942.48717,0.08879
6944.41564,0.13929
6946.34411,0.21995
6948.27258,0.25782
6950.20105,0.24473
6952.12952,0.16935
6954.05799,0.07114
6955.98645,0.04059
6957.91492,0.04382
6959.84339,0.00098
6961.77186,-0.05473
6963.70033,-0.03898
6965.62880,0.03148
6967.55727,0.11334
6969.48573,0.15532
6971.41420,0.05356
6973.34267,-0.08488
6975.27114,-0.02261
6977.19961,0.16246
6979.12808,0.24849
6981.05655,0.18162
6982.98501,0.04700
6984.91348,-0.03888
6986.84195,-0.07915
6988.77042,-0.13737
6990.69889,-0.18466
6992.62736,-0.19508
6994.55583,-0.13403
6996.48430,0.01654
6998.41276,0.10880
7000.34123,0.10208
7002.26970,0.09621
7004.19817,0.08958
7006.12664,0.09123
7008.05511,0.10727
7009.98358,0.10647
7011.91204,0.10819
7013.84051,0.10682
7015.76898,0.02291
7017.69745,-0.09283
7019.62592,-0.11422
7021.55439,-0.06816
7023.48286,-0.04063
7025.41133,-0.04469
7027.33979,-0.00309
7029.26826,0.06820
7031.19673,0.03235
7033.12520,-0.00183
7035.05367,0.03900
7036.98214,0.00195
7038.91061,-0.08364
7040.83907,-0.02656
7042.76754,0.16782
7044.69601,0.22491
7046.62448,0.10483
7048.55295,-0.01844
7050.48142,-0.06963
7052.40989,-0.07152
7054.33836,-0.02641
7056.26682,0.06112
7058.19529,0.15274
7060.12376,0.19757
7062.05223,0.09869
7063.98070,-0.11176
7065.90917,-0.20224
7067.83764,-0.14234
7069.76610,-0.04573
7071.69457,0.04907
7073.62304,0.14321
7075.55151,0.21356
7077.47998,0.25720
7079.40845,0.22701
7081.33692,0.10593
7083.26539,0.07691
7085.19385,0.14125
7087.12232,0.03396
7089.05079,-0.27741
7090.97926,-0.46446
7092.90773,-0.38999
7094.83620,-0.15546
7096.76467,0.05893
7098.69313,0.11607
7100.62160,0.08441
7102.55007,0.13502
7104.47854,0.19779
7106.40701,0.12336
7108.33548,0.09154
7110.26395,0.18849
7112.19242,0.17238
7114.12088,0.06230
7116.04935,0.11320
7117.97782,0.23656
7119.90629,0.16446
7121.83476,0.10400
7123.76323,0.23264
7125.69170,0.36597
7127.62016,0.30058
7129.54863,0.12203
7131.47710,0.03260
7133.40557,0.07997
7135.33404,0.14319
7137.26251,0.13262
7139.19098,0.11586
7141.11944,0.16387
7143.04791,0.16779
7144.97638,0.16893
7146.90485,0.29772
7148.83332,0.37387
7150.76179,0.35309
7152.69026,0.26854
7154.61873,0.11020
7156.54719,-0.00956
7158.47566,-0.06608
7160.40413,-0.05719
7162.33260,0.04236
7164.26107,0.15935
7166.18954,0.24779
7168.11801,0.33479
7170.04647,0.40224
7171.97494,0.30545
7173.90341,-0.00285
7175.83188,-0.32779
7177.76035,-0.41125
7179.68882,-0.35613
7181.61729,-0.34647
7183.54576,-0.22349
7185.47422,0.04193
7187.40269,0.12689
7189.33116,0.02913
7191.25963,0.05813
7193.18810,0.18429
7195.11657,0.26508
7197.04504,0.29879
7198.97350,0.28396
7200.90197,0.29975
7202.83044,0.35042
7204.75891,0.30428
7206.68738,0.22830
7208.61585,0.29477
7210.54432,0.38509
7212.47279,0.36043
7214.40125,0.28103
7216.32972,0.11397
7218.25819,-0.15813
7220.18666,-0.17503
7222.11513,-0.06697
7224.04360,-0.06997
7225.97207,-0.02592
7227.90053,0.15015
7229.82900,0.19639
7231.75747,0.03983
7233.68594,-0.02383
7235.61441,0.03750
7237.54288,0.07134
7239.47135,0.05517
7241.39982,0.05068
7243.32828,0.16056
7245.25675,0.30110
7247.18522,0.30110
7249.11369,0.25565
7251.04216,0.16972
7252.97063,-0.07216
7254.89910,-0.16448
7256.82756,-0.04078
7258.75603,0.11648
7260.68450,0.35649
7262.61297,0.59830
7264.54144,0.59275
7266.46991,0.44713
7268.39838,0.32013
7270.32685,0.25015
7272.25531,0.27034
7274.18378,0.15136
7276.11225,-0.04771
7278.04072,-0.08584
7279.96919,-0.03925
7281.89766,-0.09009
7283.82613,-0.05639
7285.75459,0.10114
7287.68306,0.16597
7289.61153,0.14873
7291.54000,0.14074
7293.46847,0.05998
7295.39694,-0.03519
7297.32541,-0.04236
7299.25387,-0.00321
7301.18234,-0.00415
7303.11081,-0.06203
7305.03928,-0.04682
7306.96775,0.09191
7308.89622,0.15535
7310.82469,0.00928
7312.75316,-0.16586
7314.68162,-0.20897
7316.61009,0.01353
7318.53856,0.31178
7320.46703,0.35616
7322.39550,0.19610
7324.32397,0.03357
7326.25244,-0.04214
7328.18090,-0.06342
7330.10937,-0.05784
7332.03784,-0.00872
7333.96631,0.10934
7335.89478,0.23353
7337.82325,0.38161
7339.75172,0.53594
7341.68019,0.47763
7343.60865,0.38230
7345.53712,0.32696
7347.46559,0.18685
7349.39406,0.03633
7351.32253,-0.06632
7353.25100,-0.16024
7355.17947,-0.17195
7357.10793,0.02863
7359.03640,0.32156
7360.96487,0.40988
7362.89334,0.30318
7364.82181,0.15231
7366.75028,0.08134
7368.67875,0.00381
7370.60722,-0.11143
7372.53568,0.01253
7374.46415,0.43941
7376.39262,0.52804
7378.32109,0.24664
7380.24956,0.12321
7382.17803,0.09635
7384.10650,-0.03880
7386.03496,-0.12237
7387.96343,0.00092
7389.89190,0.06947
7391.82037,0.07785
7393.74884,0.24208
7395.67731,0.42146
7397.60578,0.35352
7399.53425,0.12574
7401.46271,-0.10185
7403.39118,-0.24186
7405.31965,-0.19835
7407.24812,-0.09155
7409.17659,-0.04274
7411.10506,0.00587
7413.03353,0.09729
7414.96199,0.16181
7416.89046,0.11795
7418.81893,0.05276
7420.74740,0.15115
7422.67587,0.29572
7424.60434,0.33768
7426.53281,0.28752
7428.46128,0.22537
7430.38974,0.27380
7432.31821,0.34040
7434.24668,0.27632
7436.17515,0.27932
7438.10362,0.34333
7440.03209,0.30385
7441.96056,0.26095
7443.88902,0.17582
7445.81749,0.06116
7447.74596,0.00230
7449.67443,0.01576
7451.60290,0.11849
7453.53137,0.10536
7455.45984,-0.00466
7457.38831,-0.01983
7459.31677,0.03173
7461.24524,0.02461
7463.17371,-0.09841
7465.10218,-0.28870
7467.03065,-0.37418
7468.95912,-0.21558
7470.88759,0.24416
7472.81605,0.65021
7474.74452,0.56487
7476.67299,0.23701
7478.60146,0.07622
7480.52993,0.04756
7482.45840,0.00860
7484.38687,0.06718
7486.31533,0.24815
7488.24380,0.40633
7490.17227,0.30912
7492.10074,0.02321
7494.02921,-0.11188
7495.95768,-0.09423
7497.88615,-0.15033
