399.19301,6.61148
401.12148,1.54325
403.04995,0.49863
404.97842,-0.00536
406.90689,-0.15042
408.83536,-0.14488
410.76382,-0.07547
412.69229,-0.00830
414.62076,-0.06139
416.54923,-0.21859
418.47770,-0.34965
420.40617,-0.31663
422.33464,-0.25177
424.26311,-0.20984
426.19157,-0.12810
428.12004,-0.02426
430.04851,0.04102
431.97698,0.03058
433.90545,-0.00295
435.83392,-0.00688
437.76239,0.00936
439.69085,0.05226
441.61932,0.11360
443.54779,0.14085
445.47626,0.14976
447.40473,0.18645
449.33320,0.21304
451.26167,0.20738
453.19013,0.16476
455.11860,0.04376
457.04707,-0.08349
458.97554,-0.07690
460.90401,0.02188
462.83248,0.08668
464.76095,0.06334
466.68942,0.01437
468.61788,0.00463
470.54635,0.02687
472.47482,0.12000
474.40329,0.24612
476.33176,0.17529
478.26023,0.07519
480.18870,0.05492
482.11716,0.04721
484.04563,0.02160
485.97410,0.03579
487.90257,0.11417
489.83104,0.15430
491.75951,0.10528
493.68798,0.07681
495.61645,0.08877
497.54491,0.06934
499.47338,0.03028
501.40185,0.01081
503.33032,0.00970
505.25879,-0.00800
507.18726,-0.04823
509.11573,-0.02358
511.04419,0.07071
512.97266,0.12262
514.90113,0.08382
516.82960,0.01340
518.75807,-0.00989
520.68654,0.00146
522.61501,0.01829
524.54348,0.06479
526.47194,0.11665
528.40041,0.10703
530.32888,0.06127
532.25735,0.02053
534.18582,-0.00343
536.11429,0.02556
538.04276,0.08013
539.97122,0.11615
541.89969,0.14098
543.82816,0.12295
545.75663,0.08300
547.68510,0.10912
549.61357,0.17580
551.54204,0.16258
553.47051,0.08554
555.39897,0.04680
557.32744,0.03011
559.25591,0.01159
561.18438,0.03626
563.11285,0.08703
565.04132,0.10582
566.96979,0.08447
568.89825,0.04069
570.82672,0.00751
572.75519,0.00955
574.68366,0.03130
576.61213,0.04151
578.54060,0.03684
580.46907,0.01920
582.39754,0.01625
584.32600,0.04730
586.25447,0.07167
588.18294,0.06308
590.11141,0.05128
592.03988,0.06473
593.96835,0.08523
595.89682,0.10467
597.82528,0.12027
599.75375,0.11700
601.68222,0.10525
603.61069,0.09934
605.53916,0.09962
607.46763,0.09806
609.39610,0.09357
611.32456,0.08869
613.25303,0.08503
615.18150,0.07768
617.10997,0.05102
619.03844,0.02490
620.96691,0.03540
622.89538,0.05621
624.82385,0.04751
626.75231,0.02978
628.68078,0.03213
630.60925,0.04365
632.53772,0.05228
634.46619,0.06498
636.39466,0.07692
638.32313,0.07862
640.25159,0.07714
642.18006,0.08317
644.10853,0.09786
646.03700,0.11052
647.96547,0.10690
649.89394,0.09560
651.82241,0.10008
653.75088,0.11240
655.67934,0.10547
657.60781,0.07956
659.53628,0.06230
661.46475,0.06465
663.39322,0.07870
665.32169,0.09443
667.25016,0.09505
669.17862,0.08055
671.10709,0.07587
673.03556,0.07701
674.96403,0.08959
676.89250,0.11219
678.82097,0.11494
680.74944,0.08649
682.67791,0.05485
684.60637,0.04124
686.53484,0.04784
688.46331,0.06942
690.39178,0.09381
692.32025,0.09949
694.24872,0.07781
696.17719,0.05475
698.10565,0.05665
700.03412,0.07653
701.96259,0.08874
703.89106,0.08500
705.81953,0.08406
707.74800,0.09988
709.67647,0.11973
711.60494,0.12514
713.53340,0.11468
715.46187,0.09710
717.39034,0.08181
719.31881,0.07604
721.24728,0.07686
723.17575,0.07570
725.10422,0.07241
727.03268,0.08227
728.96115,0.10730
730.88962,0.11890
732.81809,0.11051
734.74656,0.10403
736.67503,0.10489
738.60350,0.09863
740.53197,0.08320
742.46043,0.08039
744.38890,0.09495
746.31737,0.10262
748.24584,0.09476
750.17431,0.09265
752.10278,0.09822
754.03125,0.09734
755.95971,0.09295
757.88818,0.08556
759.81665,0.08279
761.74512,0.09313
763.67359,0.09788
765.60206,0.08522
767.53053,0.07667
769.45900,0.08636
771.38746,0.10196
773.31593,0.11096
775.24440,0.11687
777.17287,0.12229
779.10134,0.11434
781.02981,0.09665
782.95828,0.09189
784.88674,0.10356
786.81521,0.10819
788.74368,0.09366
790.67215,0.07767
792.60062,0.07808
794.52909,0.09335
796.45756,0.09945
798.38602,0.09273
800.31449,0.09400
802.24296,0.10528
804.17143,0.11727
806.09990,0.12035
808.02837,0.10780
809.95684,0.09485
811.88531,0.10244
813.81377,0.11922
815.74224,0.11876
817.67071,0.10519
819.59918,0.09955
821.52765,0.10242
823.45612,0.11192
825.38459,0.13095
827.31305,0.14007
829.24152,0.12907
831.16999,0.11805
833.09846,0.11542
835.02693,0.11347
836.95540,0.11522
838.88387,0.11777
840.81234,0.10935
842.74080,0.09984
844.66927,0.10367
846.59774,0.11822
848.52621,0.13140
850.45468,0.13303
852.38315,0.12492
854.31162,0.11269
856.24008,0.09867
858.16855,0.08629
860.09702,0.08339
862.02549,0.09320
863.95396,0.10541
865.88243,0.11066
867.81090,0.13148
869.73937,0.18325
871.66783,0.20071
873.59630,0.15077
875.52477,0.10715
877.45324,0.10202
879.38171,0.10381
881.31018,0.10545
883.23865,0.11532
885.16711,0.12372
887.09558,0.11568
889.02405,0.10195
890.95252,0.10026
892.88099,0.10890
894.80946,0.11715
896.73793,0.11944
898.66640,0.11374
900.59486,0.10420
902.52333,0.10470
904.45180,0.11856
906.38027,0.12817
908.30874,0.11978
910.23721,0.10598
912.16568,0.10706
914.09414,0.12037
916.02261,0.12447
917.95108,0.11653
919.87955,0.11455
921.80802,0.11790
923.73649,0.11267
925.66496,0.10537
927.59343,0.11287
929.52189,0.12931
931.45036,0.13540
933.37883,0.12444
935.30730,0.10702
937.23577,0.10355
939.16424,0.11346
941.09271,0.11680
943.02117,0.11333
944.94964,0.11408
946.87811,0.11533
948.80658,0.11535
950.73505,0.12061
952.66352,0.12820
954.59199,0.13074
956.52045,0.12730
958.44892,0.12249
960.37739,0.12220
962.30586,0.12377
964.23433,0.12154
966.16280,0.12023
968.09127,0.12012
970.01974,0.11501
971.94820,0.11334
973.87667,0.12401
975.80514,0.13127
977.73361,0.12215
979.66208,0.11435
981.59055,0.11667
983.51902,0.11440
985.44748,0.11121
987.37595,0.11819
989.30442,0.12609
991.23289,0.12381
993.16136,0.11805
995.08983,0.12033
997.01830,0.12645
998.94677,0.12385
1000.87523,0.11260
1002.80370,0.10943
1004.73217,0.11814
1006.66064,0.12305
1008.58911,0.12580
1010.51758,0.13211
1012.44605,0.13281
1014.37451,0.12981
1016.30298,0.13176
1018.23145,0.13395
1020.15992,0.12809
1022.08839,0.12130
1024.01686,0.12164
1025.94533,0.11788
1027.87380,0.10286
1029.80226,0.08986
1031.73073,0.09274
1033.65920,0.10203
1035.58767,0.10545
1037.51614,0.11366
1039.44461,0.12688
1041.37308,0.13098
1043.30154,0.12836
1045.23001,0.13096
1047.15848,0.14091
1049.08695,0.14218
1051.01542,0.12947
1052.94389,0.11844
1054.87236,0.11825
1056.80083,0.12674
1058.72929,0.13622
1060.65776,0.14061
1062.58623,0.14095
1064.51470,0.14318
1066.44317,0.14718
1068.37164,0.14556
1070.30011,0.14161
1072.22857,0.14258
1074.15704,0.14441
1076.08551,0.13977
1078.01398,0.12645
1079.94245,0.11319
1081.87092,0.10741
1083.79939,0.10245
1085.72786,0.10108
1087.65632,0.10808
1089.58479,0.11140
1091.51326,0.10815
1093.44173,0.10851
1095.37020,0.11751
1097.29867,0.13138
1099.22714,0.14122
1101.15560,0.14383
1103.08407,0.14391
1105.01254,0.14230
1106.94101,0.13787
1108.86948,0.13504
1110.79795,0.13513
1112.72642,0.13599
1114.65489,0.14015
1116.58335,0.14948
1118.51182,0.15549
1120.44029,0.14519
1122.36876,0.12391
1124.29723,0.11385
1126.22570,0.12000
1128.15417,0.12793
1130.08263,0.13103
1132.01110,0.13307
1133.93957,0.13557
1135.86804,0.13489
1137.79651,0.13313
1139.72498,0.13916
1141.65345,0.15313
1143.58191,0.16270
1145.51038,0.15842
1147.43885,0.14684
1149.36732,0.13964
1151.29579,0.14076
1153.22426,0.14539
1155.15273,0.14506
1157.08120,0.14074
1159.00966,0.14023
1160.93813,0.14455
1162.86660,0.15001
1164.79507,0.14925
1166.72354,0.13998
1168.65201,0.13288
1170.58048,0.13515
1172.50894,0.14082
1174.43741,0.14156
1176.36588,0.13964
1178.29435,0.14131
1180.22282,0.14470
1182.15129,0.14753
1184.07976,0.15063
1186.00823,0.15305
1187.93669,0.15289
1189.86516,0.14994
1191.79363,0.14611
1193.72210,0.14182
1195.65057,0.14026
1197.57904,0.14636
1199.50751,0.15442
1201.43597,0.15535
1203.36444,0.14738
1205.29291,0.13789
1207.22138,0.13746
1209.14985,0.13999
1211.07832,0.13600
1213.00679,0.13450
1214.93526,0.14041
1216.86372,0.14369
1218.79219,0.14142
1220.72066,0.14049
1222.64913,0.14436
1224.57760,0.15061
1226.50607,0.15454
1228.43454,0.15443
1230.36300,0.15342
1232.29147,0.15101
1234.21994,0.14520
1236.14841,0.14278
1238.07688,0.14736
1240.00535,0.15168
1241.93382,0.15160
1243.86229,0.14944
1245.79075,0.14707
1247.71922,0.14536
1249.64769,0.14468
1251.57616,0.14434
1253.50463,0.14404
1255.43310,0.14294
1257.36157,0.14103
1259.29003,0.14174
1261.21850,0.14576
1263.14697,0.14842
1265.07544,0.14830
1267.00391,0.15032
1268.93238,0.15548
1270.86085,0.15804
1272.78932,0.15776
1274.71778,0.15776
1276.64625,0.15683
1278.57472,0.15576
1280.50319,0.15607
1282.43166,0.15753
1284.36013,0.16095
1286.28860,0.16216
1288.21706,0.15776
1290.14553,0.15355
1292.07400,0.15356
1294.00247,0.15563
1295.93094,0.15733
1297.85941,0.15492
1299.78788,0.14638
1301.71634,0.13793
1303.64481,0.13796
1305.57328,0.14592
1307.50175,0.15370
1309.43022,0.15784
1311.35869,0.16041
1313.28716,0.15996
1315.21563,0.15749
1317.14409,0.15615
1319.07256,0.15413
1321.00103,0.15278
1322.92950,0.15300
1324.85797,0.15180
1326.78644,0.15153
1328.71491,0.15227
1330.64337,0.14965
1332.57184,0.14792
1334.50031,0.15163
1336.42878,0.15770
1338.35725,0.16384
1340.28572,0.16609
1342.21419,0.16382
1344.14266,0.15953
1346.07112,0.15702
1347.99959,0.16143
1349.92806,0.16306
1351.85653,0.15775
1353.78500,0.15618
1355.71347,0.15782
1357.64194,0.15717
1359.57040,0.15661
1361.49887,0.16182
1363.42734,0.16775
1365.35581,0.16478
1367.28428,0.15746
1369.21275,0.15179
1371.14122,0.15245
1373.06969,0.15953
1374.99815,0.16361
1376.92662,0.16289
1378.85509,0.16582
1380.78356,0.16891
1382.71203,0.16778
1384.64050,0.16865
1386.56897,0.17320
1388.49743,0.17224
1390.42590,0.16556
1392.35437,0.16338
1394.28284,0.16854
1396.21131,0.17755
1398.13978,0.18260
1400.06825,0.17544
1401.99672,0.16784
1403.92518,0.17210
1405.85365,0.17631
1407.78212,0.17199
1409.71059,0.16835
1411.63906,0.16662
1413.56753,0.16682
1415.49600,0.17275
1417.42446,0.18048
1419.35293,0.17902
1421.28140,0.17158
1423.20987,0.16915
1425.13834,0.17028
1427.06681,0.17366
1428.99528,0.17846
1430.92375,0.18000
1432.85221,0.18028
1434.78068,0.18457
1436.70915,0.18800
1438.63762,0.18254
1440.56609,0.17665
1442.49456,0.17467
1444.42303,0.17442
1446.35149,0.17708
1448.27996,0.18031
1450.20843,0.17920
1452.13690,0.18023
1454.06537,0.19089
1455.99384,0.20973
1457.92231,0.21113
1459.85077,0.19162
1461.77924,0.18384
1463.70771,0.18781
1465.63618,0.18910
1467.56465,0.18462
1469.49312,0.18793
1471.42159,0.20121
1473.35006,0.21099
1475.27852,0.20729
1477.20699,0.19674
1479.13546,0.18709
1481.06393,0.18276
1482.99240,0.17988
1484.92087,0.18006
1486.84934,0.18747
1488.77780,0.19537
1490.70627,0.19334
1492.63474,0.18969
1494.56321,0.19512
1496.49168,0.20438
1498.42015,0.20200
1500.34862,0.19144
1502.27709,0.18656
1504.20555,0.19582
1506.13402,0.22399
1508.06249,0.23274
1509.99096,0.21123
1511.91943,0.19638
1513.84790,0.19395
1515.77637,0.20286
1517.70483,0.21763
1519.63330,0.23457
1521.56177,0.24249
1523.49024,0.22804
1525.41871,0.21599
1527.34718,0.20830
1529.27565,0.19765
1531.20412,0.19577
1533.13258,0.20144
1535.06105,0.19754
1536.98952,0.19626
1538.91799,0.21828
1540.84646,0.24860
1542.77493,0.23775
1544.70340,0.21289
1546.63186,0.19687
1548.56033,0.19378
1550.48880,0.19353
1552.41727,0.19160
1554.34574,0.19942
1556.27421,0.22183
1558.20268,0.24367
1560.13115,0.21927
1562.05961,0.19516
1563.98808,0.18981
1565.91655,0.19117
1567.84502,0.19612
1569.77349,0.19841
1571.70196,0.19487
1573.63043,0.19788
1575.55889,0.20509
1577.48736,0.19850
1579.41583,0.18727
1581.34430,0.18438
1583.27277,0.18672
1585.20124,0.18753
1587.12971,0.18531
1589.05818,0.18400
1590.98664,0.18551
1592.91511,0.18847
1594.84358,0.19060
1596.77205,0.19072
1598.70052,0.18960
1600.62899,0.18862
1602.55746,0.18848
1604.48592,0.18890
1606.41439,0.18929
1608.34286,0.18825
1610.27133,0.18390
1612.19980,0.17974
1614.12827,0.18307
1616.05674,0.19305
1617.98521,0.19591
1619.91367,0.19360
1621.84214,0.19560
1623.77061,0.19947
1625.69908,0.20151
1627.62755,0.20105
1629.55602,0.19581
1631.48449,0.19287
1633.41295,0.20305
1635.34142,0.22648
1637.26989,0.23299
1639.19836,0.21919
1641.12683,0.20571
1643.05530,0.19955
1644.98377,0.20680
1646.91223,0.22339
1648.84070,0.22316
1650.76917,0.21895
1652.69764,0.22622
1654.62611,0.21827
1656.55458,0.20223
1658.48305,0.19818
1660.41152,0.20820
1662.33998,0.22306
1664.26845,0.21923
1666.19692,0.20787
1668.12539,0.21050
1670.05386,0.21712
1671.98233,0.21311
1673.91080,0.21369
1675.83926,0.21373
1677.76773,0.20579
1679.69620,0.20365
1681.62467,0.21578
1683.55314,0.23546
1685.48161,0.22932
1687.41008,0.21207
1689.33855,0.20354
1691.26701,0.20027
1693.19548,0.20626
1695.12395,0.22214
1697.05242,0.23103
1698.98089,0.22570
1700.90936,0.21533
1702.83783,0.20742
1704.76629,0.20475
1706.69476,0.20139
1708.62323,0.19507
1710.55170,0.19000
1712.48017,0.19118
1714.40864,0.20162
1716.33711,0.21476
1718.26558,0.21104
1720.19404,0.19772
1722.12251,0.19241
1724.05098,0.19282
1725.97945,0.19448
1727.90792,0.19737
1729.83639,0.20159
1731.76486,0.20876
1733.69332,0.21265
1735.62179,0.20262
1737.55026,0.19556
1739.47873,0.19511
1741.40720,0.19559
1743.33567,0.19710
1745.26414,0.19917
1747.19261,0.20299
1749.12107,0.20904
1751.04954,0.20570
1752.97801,0.19503
1754.90648,0.19090
1756.83495,0.19316
1758.76342,0.19613
1760.69189,0.19695
1762.62035,0.19147
1764.54882,0.18434
1766.47729,0.18483
1768.40576,0.19137
1770.33423,0.20135
1772.26270,0.21221
1774.19117,0.21047
1776.11964,0.20109
1778.04810,0.19804
1779.97657,0.20221
1781.90504,0.20400
1783.83351,0.20109
1785.76198,0.19664
1787.69045,0.19177
1789.61892,0.19152
1791.54738,0.19675
1793.47585,0.19961
1795.40432,0.20059
1797.33279,0.20263
1799.26126,0.20172
1801.18973,0.19563
1803.11820,0.18895
1805.04666,0.18665
1806.97513,0.18769
1808.90360,0.18996
1810.83207,0.19207
1812.76054,0.19058
1814.68901,0.18761
1816.61748,0.19260
1818.54595,0.20749
1820.47441,0.21710
1822.40288,0.21423
1824.33135,0.20796
1826.25982,0.20464
1828.18829,0.20333
1830.11676,0.19836
1832.04523,0.19113
1833.97369,0.18928
1835.90216,0.19186
1837.83063,0.19425
1839.75910,0.19498
1841.68757,0.19815
1843.61604,0.20397
1845.54451,0.20373
1847.47298,0.19587
1849.40144,0.18745
1851.32991,0.18329
1853.25838,0.18257
1855.18685,0.18310
1857.11532,0.18584
1859.04379,0.18883
1860.97226,0.18927
1862.90072,0.19017
1864.82919,0.19478
1866.75766,0.20196
1868.68613,0.20360
1870.61460,0.19512
1872.54307,0.18709
1874.47154,0.18459
1876.40001,0.18693
1878.32847,0.18967
1880.25694,0.18758
1882.18541,0.18349
1884.11388,0.18314
1886.04235,0.18685
1887.97082,0.19204
1889.89929,0.19562
1891.82775,0.19524
1893.75622,0.19337
1895.68469,0.19192
1897.61316,0.19131
1899.54163,0.19243
1901.47010,0.19383
1903.39857,0.19242
1905.32704,0.18860
1907.25550,0.18787
1909.18397,0.19116
1911.11244,0.19345
1913.04091,0.19435
1914.96938,0.19510
1916.89785,0.19412
1918.82632,0.18984
1920.75478,0.18563
1922.68325,0.18508
1924.61172,0.18567
1926.54019,0.18485
1928.46866,0.18320
1930.39713,0.18165
1932.32560,0.18108
1934.25407,0.18126
1936.18253,0.18307
1938.11100,0.18781
1940.03947,0.19348
1941.96794,0.19517
1943.89641,0.19110
1945.82488,0.18696
1947.75335,0.18539
1949.68181,0.18506
1951.61028,0.18646
1953.53875,0.18834
1955.46722,0.18760
1957.39569,0.18660
1959.32416,0.18935
1961.25263,0.19336
1963.18110,0.19589
1965.10956,0.19626
1967.03803,0.19363
1968.96650,0.19169
1970.89497,0.19231
1972.82344,0.19114
1974.75191,0.18789
1976.68038,0.18791
1978.60884,0.19082
1980.53731,0.19128
1982.46578,0.19022
1984.39425,0.19017
1986.32272,0.18952
1988.25119,0.18914
1990.17966,0.19087
1992.10812,0.19248
1994.03659,0.19130
1995.96506,0.18979
1997.89353,0.19118
1999.82200,0.19261
2001.75047,0.19059
2003.67894,0.18718
2005.60741,0.18525
2007.53587,0.18440
2009.46434,0.18356
2011.39281,0.18326
2013.32128,0.18430
2015.24975,0.18649
2017.17822,0.18881
2019.10669,0.18955
2021.03515,0.18774
2022.96362,0.18597
2024.89209,0.18746
2026.82056,0.18972
2028.74903,0.19022
2030.67750,0.19096
2032.60597,0.19215
2034.53444,0.19250
2036.46290,0.19196
2038.39137,0.18986
2040.31984,0.18683
2042.24831,0.18553
2044.17678,0.18741
2046.10525,0.19112
2048.03372,0.19377
2049.96218,0.19298
2051.89065,0.18967
2053.81912,0.18711
2055.74759,0.18611
2057.67606,0.18566
2059.60453,0.18545
2061.53300,0.18645
2063.46147,0.18973
2065.38993,0.19261
2067.31840,0.19328
2069.24687,0.19496
2071.17534,0.19690
2073.10381,0.19518
2075.03228,0.19276
2076.96075,0.19362
2078.88921,0.19491
2080.81768,0.19421
2082.74615,0.19343
2084.67462,0.19353
2086.60309,0.19301
2088.53156,0.19083
2090.46003,0.18872
2092.38850,0.18929
2094.31696,0.19108
2096.24543,0.19111
2098.17390,0.19011
2100.10237,0.19018
2102.03084,0.19169
2103.95931,0.19356
2105.88778,0.19469
2107.81624,0.19468
2109.74471,0.19366
2111.67318,0.19246
2113.60165,0.19181
2115.53012,0.19199
2117.45859,0.19313
2119.38706,0.19466
2121.31553,0.19491
2123.24399,0.19367
2125.17246,0.19342
2127.10093,0.19324
2129.02940,0.19111
2130.95787,0.19117
2132.88634,0.19345
2134.81481,0.19122
2136.74327,0.18662
2138.67174,0.18542
2140.60021,0.18622
2142.52868,0.18643
2144.45715,0.18628
2146.38562,0.18799
2148.31409,0.19065
2150.24255,0.19230
2152.17102,0.19303
2154.09949,0.19181
2156.02796,0.19130
2157.95643,0.19381
2159.88490,0.19558
2161.81337,0.19514
2163.74184,0.19443
2165.67030,0.19356
2167.59877,0.19133
2169.52724,0.18844
2171.45571,0.18832
2173.38418,0.19033
2175.31265,0.19055
2177.24112,0.19113
2179.16958,0.19311
2181.09805,0.19212
2183.02652,0.18870
2184.95499,0.18686
2186.88346,0.18786
2188.81193,0.18966
2190.74040,0.18911
2192.66887,0.18776
2194.59733,0.18952
2196.52580,0.19227
2198.45427,0.19159
2200.38274,0.18893
2202.31121,0.18862
2204.23968,0.19093
2206.16815,0.19314
2208.09661,0.19352
2210.02508,0.19204
2211.95355,0.19031
2213.88202,0.19004
2215.81049,0.19156
2217.73896,0.19292
2219.66743,0.19211
2221.59590,0.19109
2223.52436,0.19193
2225.45283,0.19164
2227.38130,0.18839
2229.30977,0.18631
2231.23824,0.18748
2233.16671,0.18861
2235.09518,0.18958
2237.02364,0.19269
2238.95211,0.19482
2240.88058,0.19390
2242.80905,0.19190
2244.73752,0.18891
2246.66599,0.18774
2248.59446,0.19150
2250.52293,0.19657
2252.45139,0.19784
2254.37986,0.19551
2256.30833,0.19359
2258.23680,0.19300
2260.16527,0.19214
2262.09374,0.19068
2264.02221,0.18924
2265.95067,0.18944
2267.87914,0.19217
2269.80761,0.19545
2271.73608,0.19808
2273.66455,0.20083
2275.59302,0.20201
2277.52149,0.19979
2279.44996,0.19637
2281.37842,0.19454
2283.30689,0.19454
2285.23536,0.19609
2287.16383,0.19919
2289.09230,0.20236
2291.02077,0.20117
2292.94924,0.19464
2294.87770,0.18976
2296.80617,0.18867
2298.73464,0.18669
2300.66311,0.18478
2302.59158,0.18696
2304.52005,0.19103
2306.44852,0.19481
2308.37699,0.20171
2310.30545,0.20836
2312.23392,0.20876
2314.16239,0.20644
2316.09086,0.20349
2318.01933,0.19812
2319.94780,0.19318
2321.87627,0.19326
2323.80473,0.19471
2325.73320,0.19176
2327.66167,0.18564
2329.59014,0.17686
2331.51861,0.17171
2333.44708,0.17899
2335.37555,0.19096
2337.30401,0.19999
2339.23248,0.20870
2341.16095,0.20889
2343.08942,0.19965
2345.01789,0.19979
2346.94636,0.20466
2348.87483,0.20616
2350.80330,0.20621
2352.73176,0.20063
2354.66023,0.19288
2356.58870,0.19217
2358.51717,0.18566
2360.44564,0.17673
2362.37411,0.18755
2364.30258,0.21010
2366.23104,0.22061
2368.15951,0.22010
2370.08798,0.21537
2372.01645,0.20593
2373.94492,0.19680
2375.87339,0.19170
2377.80186,0.19090
2379.73033,0.19194
2381.65879,0.19101
2383.58726,0.18938
2385.51573,0.19069
2387.44420,0.19397
2389.37267,0.19575
2391.30114,0.19508
2393.22961,0.19423
2395.15807,0.19573
2397.08654,0.19799
2399.01501,0.19895
2400.94348,0.19948
2402.87195,0.19851
2404.80042,0.19534
2406.72889,0.19266
2408.65736,0.19170
2410.58582,0.19197
2412.51429,0.19372
2414.44276,0.19758
2416.37123,0.20261
2418.29970,0.20413
2420.22817,0.19973
2422.15664,0.19475
2424.08510,0.19428
2426.01357,0.19662
2427.94204,0.19662
2429.87051,0.19410
2431.79898,0.19425
2433.72745,0.19678
2435.65592,0.19769
2437.58439,0.19650
2439.51285,0.19427
2441.44132,0.19374
2443.36979,0.19647
2445.29826,0.19862
2447.22673,0.19897
2449.15520,0.19566
2451.08367,0.17873
2453.01213,0.15886
2454.94060,0.16301
2456.86907,0.18342
2458.79754,0.19477
2460.72601,0.19558
2462.65448,0.19363
2464.58295,0.19220
2466.51142,0.19321
2468.43988,0.19567
2470.36835,0.19739
2472.29682,0.19838
2474.22529,0.19889
2476.15376,0.19838
2478.08223,0.19807
2480.01070,0.19790
2481.93916,0.19644
2483.86763,0.19552
2485.79610,0.19731
2487.72457,0.20037
2489.65304,0.20017
2491.58151,0.19592
2493.50998,0.19380
2495.43844,0.19738
2497.36691,0.20168
2499.29538,0.20071
2501.22385,0.19710
2503.15232,0.19495
2505.08079,0.19425
2507.00926,0.19624
2508.93773,0.19943
2510.86619,0.19980
2512.79466,0.19733
2514.72313,0.19493
2516.65160,0.19508
2518.58007,0.19793
2520.50854,0.19991
2522.43701,0.19865
2524.36547,0.19871
2526.29394,0.20194
2528.22241,0.20346
2530.15088,0.19973
2532.07935,0.19314
2534.00782,0.19113
2535.93629,0.19521
2537.86476,0.19838
2539.79322,0.19930
2541.72169,0.20198
2543.65016,0.20330
2545.57863,0.20005
2547.50710,0.19586
2549.43557,0.19294
2551.36404,0.19304
2553.29250,0.19681
2555.22097,0.19921
2557.14944,0.19863
2559.07791,0.19949
2561.00638,0.20162
2562.93485,0.20091
2564.86332,0.19781
2566.79179,0.19530
2568.72025,0.19454
2570.64872,0.19564
2572.57719,0.19749
2574.50566,0.19940
2576.43413,0.20174
2578.36260,0.20187
2580.29107,0.19853
2582.21953,0.19681
2584.14800,0.19927
2586.07647,0.20129
2588.00494,0.20083
2589.93341,0.20205
2591.86188,0.20450
2593.79035,0.20343
2595.71882,0.20045
2597.64728,0.19979
2599.57575,0.20230
2601.50422,0.20476
2603.43269,0.20398
2605.36116,0.20267
2607.28963,0.20357
2609.21810,0.20323
2611.14656,0.19730
2613.07503,0.19113
2615.00350,0.19380
2616.93197,0.19986
2618.86044,0.20183
2620.78891,0.20315
2622.71738,0.20320
2624.64585,0.20045
2626.57431,0.20029
2628.50278,0.20292
2630.43125,0.20392
2632.35972,0.20326
2634.28819,0.20287
2636.21666,0.20250
2638.14513,0.20151
2640.07359,0.20126
2642.00206,0.20204
2643.93053,0.20324
2645.85900,0.20558
2647.78747,0.20673
2649.71594,0.20427
2651.64441,0.20224
2653.57288,0.20268
2655.50134,0.20194
2657.42981,0.20057
2659.35828,0.20127
2661.28675,0.20323
2663.21522,0.20424
2665.14369,0.20384
2667.07216,0.20542
2669.00062,0.20934
2670.92909,0.21048
2672.85756,0.20866
2674.78603,0.20796
2676.71450,0.20732
2678.64297,0.20458
2680.57144,0.20358
2682.49990,0.20614
2684.42837,0.20643
2686.35684,0.20161
2688.28531,0.19714
2690.21378,0.19760
2692.14225,0.20003
2694.07072,0.19992
2695.99919,0.20032
2697.92765,0.20493
2699.85612,0.20847
2701.78459,0.20794
2703.71306,0.20865
2705.64153,0.21054
2707.57000,0.20890
2709.49847,0.20710
2711.42693,0.20810
2713.35540,0.20807
2715.28387,0.20773
2717.21234,0.20846
2719.14081,0.20932
2721.06928,0.21214
2722.99775,0.21499
2724.92622,0.21360
2726.85468,0.20866
2728.78315,0.20525
2730.71162,0.20608
2732.64009,0.20999
2734.56856,0.21514
2736.49703,0.21651
2738.42550,0.21359
2740.35396,0.21081
2742.28243,0.20895
2744.21090,0.20893
2746.13937,0.21070
2748.06784,0.21125
2749.99631,0.20906
2751.92478,0.20735
2753.85325,0.20974
2755.78171,0.21411
2757.71018,0.21554
2759.63865,0.21266
2761.56712,0.21060
2763.49559,0.21138
2765.42406,0.20947
2767.35253,0.20642
2769.28099,0.21152
2771.20946,0.22067
2773.13793,0.22169
2775.06640,0.21693
2776.99487,0.21434
2778.92334,0.21523
2780.85181,0.21656
2782.78028,0.21541
2784.70874,0.21338
2786.63721,0.21117
2788.56568,0.21040
2790.49415,0.21349
2792.42262,0.21543
2794.35109,0.21489
2796.27956,0.21639
2798.20802,0.21683
2800.13649,0.21417
2802.06496,0.21488
2803.99343,0.21950
2805.92190,0.22130
2807.85037,0.21855
2809.77884,0.21598
2811.70731,0.21892
2813.63577,0.22446
2815.56424,0.22442
2817.49271,0.21953
2819.42118,0.21677
2821.34965,0.21805
2823.27812,0.21810
2825.20659,0.21513
2827.13505,0.21375
2829.06352,0.21476
2830.99199,0.21696
2832.92046,0.21945
2834.84893,0.22026
2836.77740,0.22037
2838.70587,0.22129
2840.63433,0.22152
2842.56280,0.21947
2844.49127,0.21665
2846.41974,0.21492
2848.34821,0.21418
2850.27668,0.21569
2852.20515,0.21824
2854.13362,0.21765
2856.06208,0.21719
2857.99055,0.21963
2859.91902,0.21958
2861.84749,0.21541
2863.77596,0.21016
2865.70443,0.20540
2867.63290,0.20427
2869.56136,0.21081
2871.48983,0.21974
2873.41830,0.22028
2875.34677,0.21415
2877.27524,0.21178
2879.20371,0.21456
2881.13218,0.21761
2883.06065,0.21998
2884.98911,0.22031
2886.91758,0.21904
2888.84605,0.21969
2890.77452,0.21921
2892.70299,0.21549
2894.63146,0.21236
2896.55993,0.21141
2898.48839,0.21302
2900.41686,0.21630
2902.34533,0.21767
2904.27380,0.21596
2906.20227,0.21316
2908.13074,0.20849
2910.05921,0.20358
2911.98768,0.20817
2913.91614,0.21884
2915.84461,0.21897
2917.77308,0.21116
2919.70155,0.20850
2921.63002,0.20920
2923.55849,0.21144
2925.48696,0.21693
2927.41542,0.21743
2929.34389,0.21740
2931.27236,0.22315
2933.20083,0.21904
2935.12930,0.20916
2937.05777,0.20847
2938.98624,0.21195
2940.91471,0.21535
2942.84317,0.21491
2944.77164,0.20952
2946.70011,0.20474
2948.62858,0.20249
2950.55705,0.20374
2952.48552,0.20940
2954.41399,0.21452
2956.34245,0.21022
2958.27092,0.19999
2960.19939,0.19701
2962.12786,0.20393
2964.05633,0.21437
2965.98480,0.21876
2967.91327,0.21369
2969.84174,0.21291
2971.77020,0.22181
2973.69867,0.22658
2975.62714,0.22229
2977.55561,0.21579
2979.48408,0.21210
2981.41255,0.21228
2983.34102,0.21760
2985.26948,0.22594
2987.19795,0.22899
2989.12642,0.22766
2991.05489,0.22749
2992.98336,0.22500
2994.91183,0.21842
2996.84030,0.21248
2998.76877,0.21240
3000.69723,0.21816
3002.62570,0.22214
3004.55417,0.22123
3006.48264,0.21847
3008.41111,0.21380
3010.33958,0.20949
3012.26805,0.20572
3014.19651,0.19335
3016.12498,0.17710
3018.05345,0.17990
3019.98192,0.20271
3021.91039,0.22117
3023.83886,0.22643
3025.76733,0.22636
3027.69579,0.22261
3029.62426,0.21575
3031.55273,0.21448
3033.48120,0.21980
3035.40967,0.22423
3037.33814,0.22722
3039.26661,0.23027
3041.19508,0.23270
3043.12354,0.23201
3045.05201,0.22507
3046.98048,0.21542
3048.90895,0.21204
3050.83742,0.21652
3052.76589,0.22143
3054.69436,0.22146
3056.62282,0.21755
3058.55129,0.21652
3060.47976,0.21884
3062.40823,0.21768
3064.33670,0.21310
3066.26517,0.21125
3068.19364,0.21482
3070.12211,0.21911
3072.05057,0.22158
3073.97904,0.21980
3075.90751,0.21555
3077.83598,0.21967
3079.76445,0.22771
3081.69292,0.22581
3083.62139,0.21697
3085.54985,0.21348
3087.47832,0.21714
3089.40679,0.22281
3091.33526,0.22620
3093.26373,0.22216
3095.19220,0.21732
3097.12067,0.21999
3099.04914,0.22253
3100.97760,0.21992
3102.90607,0.21636
3104.83454,0.21570
3106.76301,0.21776
3108.69148,0.21984
3110.61995,0.22118
3112.54842,0.22059
3114.47688,0.21789
3116.40535,0.21775
3118.33382,0.21908
3120.26229,0.21705
3122.19076,0.21829
3124.11923,0.22627
3126.04770,0.22957
3127.97617,0.22269
3129.90463,0.21632
3131.83310,0.21974
3133.76157,0.22516
3135.69004,0.22212
3137.61851,0.21450
3139.54698,0.21177
3141.47545,0.21654
3143.40391,0.22199
3145.33238,0.22188
3147.26085,0.22215
3149.18932,0.22998
3151.11779,0.23678
3153.04626,0.23531
3154.97473,0.23371
3156.90320,0.23558
3158.83166,0.23786
3160.76013,0.23994
3162.68860,0.23969
3164.61707,0.23471
3166.54554,0.22824
3168.47401,0.22767
3170.40248,0.23056
3172.33094,0.22978
3174.25941,0.22764
3176.18788,0.22687
3178.11635,0.22924
3180.04482,0.23576
3181.97329,0.23966
3183.90176,0.23815
3185.83022,0.23661
3187.75869,0.23429
3189.68716,0.22825
3191.61563,0.22478
3193.54410,0.22820
3195.47257,0.23233
3197.40104,0.23230
3199.32951,0.23131
3201.25797,0.23229
3203.18644,0.23341
3205.11491,0.23235
3207.04338,0.22959
3208.97185,0.22581
3210.90032,0.22338
3212.82879,0.22628
3214.75725,0.23101
3216.68572,0.23148
3218.61419,0.22760
3220.54266,0.22283
3222.47113,0.22024
3224.39960,0.21736
3226.32807,0.21431
3228.25654,0.21682
3230.18500,0.22318
3232.11347,0.22745
3234.04194,0.22940
3235.97041,0.23100
3237.89888,0.23138
3239.82735,0.22873
3241.75582,0.22337
3243.68428,0.21766
3245.61275,0.21547
3247.54122,0.22137
3249.46969,0.23188
3251.39816,0.23556
3253.32663,0.23157
3255.25510,0.22721
3257.18357,0.22447
3259.11203,0.22313
3261.04050,0.22098
3262.96897,0.21726
3264.89744,0.21576
3266.82591,0.21968
3268.75438,0.22689
3270.68285,0.23148
3272.61131,0.23203
3274.53978,0.23206
3276.46825,0.23450
3278.39672,0.23660
3280.32519,0.23349
3282.25366,0.22696
3284.18213,0.22099
3286.11060,0.21846
3288.03906,0.22320
3289.96753,0.23181
3291.89600,0.23380
3293.82447,0.22582
3295.75294,0.21500
3297.68141,0.21207
3299.60988,0.21861
3301.53834,0.22409
3303.46681,0.22457
3305.39528,0.22452
3307.32375,0.22489
3309.25222,0.22353
3311.18069,0.21900
3313.10916,0.21499
3315.03763,0.21523
3316.96609,0.21574
3318.89456,0.21662
3320.82303,0.22390
3322.75150,0.23077
3324.67997,0.22683
3326.60844,0.22112
3328.53691,0.22431
3330.46537,0.22845
3332.39384,0.22870
3334.32231,0.23252
3336.25078,0.23848
3338.17925,0.23615
3340.10772,0.22495
3342.03619,0.21715
3343.96466,0.21877
3345.89312,0.22093
3347.82159,0.21910
3349.75006,0.21830
3351.67853,0.22181
3353.60700,0.22740
3355.53547,0.22965
3357.46394,0.23011
3359.39240,0.23236
3361.32087,0.23161
3363.24934,0.22827
3365.17781,0.22828
3367.10628,0.22890
3369.03475,0.22481
3370.96322,0.21883
3372.89168,0.21746
3374.82015,0.21950
3376.74862,0.22091
3378.67709,0.22532
3380.60556,0.23271
3382.53403,0.23303
3384.46250,0.22556
3386.39097,0.22180
3388.31943,0.22397
3390.24790,0.22701
3392.17637,0.22994
3394.10484,0.22781
3396.03331,0.22111
3397.96178,0.21863
3399.89025,0.21652
3401.81871,0.21406
3403.74718,0.21865
3405.67565,0.22208
3407.60412,0.21953
3409.53259,0.21945
3411.46106,0.22239
3413.38953,0.22192
3415.31800,0.21763
3417.24646,0.21584
3419.17493,0.21487
3421.10340,0.21106
3423.03187,0.20869
3424.96034,0.20717
3426.88881,0.20822
3428.81728,0.21309
3430.74574,0.21401
3432.67421,0.21132
3434.60268,0.20910
3436.53115,0.20640
3438.45962,0.20735
3440.38809,0.21265
3442.31656,0.21678
3444.24503,0.22241
3446.17349,0.22957
3448.10196,0.22700
3450.03043,0.21577
3451.95890,0.20788
3453.88737,0.20348
3455.81584,0.20039
3457.74431,0.20340
3459.67277,0.20950
3461.60124,0.21174
3463.52971,0.21214
3465.45818,0.21371
3467.38665,0.21253
3469.31512,0.20701
3471.24359,0.20683
3473.17206,0.21357
3475.10052,0.21558
3477.02899,0.21361
3478.95746,0.21255
3480.88593,0.20855
3482.81440,0.20371
3484.74287,0.20384
3486.67134,0.20719
3488.59980,0.20659
3490.52827,0.19983
3492.45674,0.19484
3494.38521,0.19474
3496.31368,0.19455
3498.24215,0.19272
3500.17062,0.19296
3502.09909,0.19833
3504.02755,0.20291
3505.95602,0.20042
3507.88449,0.19570
3509.81296,0.19439
3511.74143,0.19591
3513.66990,0.19681
3515.59837,0.19685
3517.52683,0.19474
3519.45530,0.19125
3521.38377,0.18968
3523.31224,0.18747
3525.24071,0.18637
3527.16918,0.19192
3529.09765,0.19661
3531.02611,0.19093
3532.95458,0.18219
3534.88305,0.17725
3536.81152,0.17412
3538.73999,0.17386
3540.66846,0.17645
3542.59693,0.18044
3544.52540,0.18351
3546.45386,0.18225
3548.38233,0.18197
3550.31080,0.18678
3552.23927,0.19070
3554.16774,0.18730
3556.09621,0.17887
3558.02468,0.17215
3559.95314,0.17270
3561.88161,0.17888
3563.81008,0.18617
3565.73855,0.19563
3567.66702,0.19961
3569.59549,0.18819
3571.52396,0.17281
3573.45243,0.16402
3575.38089,0.16332
3577.30936,0.16521
3579.23783,0.16608
3581.16630,0.16818
3583.09477,0.17437
3585.02324,0.18468
3586.95171,0.19185
3588.88017,0.18259
3590.80864,0.16855
3592.73711,0.16525
3594.66558,0.16941
3596.59405,0.17224
3598.52252,0.17274
3600.45099,0.16767
3602.37946,0.16045
3604.30792,0.16476
3606.23639,0.17612
3608.16486,0.17737
3610.09333,0.17059
3612.02180,0.16912
3613.95027,0.16868
3615.87874,0.16529
3617.80720,0.16199
3619.73567,0.15675
3621.66414,0.15331
3623.59261,0.15647
3625.52108,0.16361
3627.44955,0.17149
3629.37802,0.17162
3631.30649,0.16618
3633.23495,0.16315
3635.16342,0.15669
3637.09189,0.14872
3639.02036,0.14645
3640.94883,0.14955
3642.87730,0.15255
3644.80577,0.15510
3646.73423,0.16384
3648.66270,0.17544
3650.59117,0.16620
3652.51964,0.15104
3654.44811,0.14655
3656.37658,0.14703
3658.30505,0.14580
3660.23352,0.14225
3662.16198,0.13562
3664.09045,0.12981
3666.01892,0.13402
3667.94739,0.15024
3669.87586,0.16344
3671.80433,0.16068
3673.73280,0.16502
3675.66126,0.17331
3677.58973,0.15460
3679.51820,0.13448
3681.44667,0.13293
3683.37514,0.14116
3685.30361,0.14942
3687.23208,0.15724
3689.16055,0.16023
3691.08901,0.15314
3693.01748,0.14518
3694.94595,0.13945
3696.87442,0.13515
3698.80289,0.13252
3700.73136,0.13162
3702.65983,0.13463
3704.58829,0.13683
3706.51676,0.13472
3708.44523,0.13742
3710.37370,0.15443
3712.30217,0.16942
3714.23064,0.16318
3716.15911,0.15526
3718.08757,0.15714
3720.01604,0.16114
3721.94451,0.16029
3723.87298,0.15806
3725.80145,0.15031
3727.72992,0.14193
3729.65839,0.14772
3731.58686,0.16249
3733.51532,0.17276
3735.44379,0.17324
3737.37226,0.16580
3739.30073,0.15885
3741.22920,0.15739
3743.15767,0.15949
3745.08614,0.15621
3747.01460,0.15091
3748.94307,0.15950
3750.87154,0.17336
3752.80001,0.16388
3754.72848,0.15250
3756.65695,0.15319
3758.58542,0.15328
3760.51389,0.14320
3762.44235,0.13310
3764.37082,0.13091
3766.29929,0.13508
3768.22776,0.13979
3770.15623,0.13756
3772.08470,0.12983
3774.01317,0.12671
3775.94163,0.12928
3777.87010,0.13315
3779.79857,0.13276
3781.72704,0.12902
3783.65551,0.12711
3785.58398,0.12558
3787.51245,0.12323
3789.44092,0.12153
3791.36938,0.11790
3793.29785,0.11255
3795.22632,0.11371
3797.15479,0.12358
3799.08326,0.13566
3801.01173,0.14589
3802.94020,0.14307
3804.86866,0.13741
3806.79713,0.14287
3808.72560,0.14590
3810.65407,0.13778
3812.58254,0.13112
3814.51101,0.13337
3816.43948,0.14132
3818.36795,0.14775
3820.29641,0.14913
3822.22488,0.14127
3824.15335,0.13427
3826.08182,0.13241
3828.01029,0.13404
3829.93876,0.13888
3831.86723,0.14179
3833.79569,0.14032
3835.72416,0.14014
3837.65263,0.14351
3839.58110,0.14280
3841.50957,0.13616
3843.43804,0.13055
3845.36651,0.12908
3847.29498,0.13380
3849.22344,0.14255
3851.15191,0.14869
3853.08038,0.14710
3855.00885,0.13992
3856.93732,0.13432
3858.86579,0.12946
3860.79426,0.12520
3862.72272,0.12193
3864.65119,0.11811
3866.57966,0.11764
3868.50813,0.12464
3870.43660,0.13272
3872.36507,0.13222
3874.29354,0.12592
3876.22200,0.11946
3878.15047,0.11878
3880.07894,0.12098
3882.00741,0.11814
3883.93588,0.12155
3885.86435,0.13234
3887.79282,0.13206
3889.72129,0.12838
3891.64975,0.13290
3893.57822,0.13897
3895.50669,0.13976
3897.43516,0.13730
3899.36363,0.13297
3901.29210,0.12451
3903.22057,0.11556
3905.14903,0.11556
3907.07750,0.11869
3909.00597,0.11684
3910.93444,0.11188
3912.86291,0.10744
3914.79138,0.10544
3916.71985,0.10577
3918.64832,0.10729
3920.57678,0.11082
3922.50525,0.11483
3924.43372,0.11597
3926.36219,0.11537
3928.29066,0.11676
3930.21913,0.11938
3932.14760,0.11853
3934.07606,0.11208
3936.00453,0.10427
3937.93300,0.10135
3939.86147,0.10590
3941.78994,0.11197
3943.71841,0.11235
3945.64688,0.11235
3947.57535,0.11510
3949.50381,0.11472
3951.43228,0.11100
3953.36075,0.10795
3955.28922,0.10867
3957.21769,0.11134
3959.14616,0.11028
3961.07463,0.10829
3963.00309,0.11188
3964.93156,0.11455
3966.86003,0.10807
3968.78850,0.10095
3970.71697,0.10053
3972.64544,0.10067
3974.57391,0.09736
3976.50238,0.09525
3978.43084,0.09668
3980.35931,0.09828
3982.28778,0.10029
3984.21625,0.10543
3986.14472,0.11008
3988.07319,0.10668
3990.00166,0.09819
3991.93012,0.09471
3993.85859,0.09871
3995.78706,0.10725
3997.71553,0.11309
3999.64400,0.11114
4001.57247,0.10490
4003.50094,0.09804
4005.42941,0.09349
4007.35787,0.09597
4009.28634,0.10233
4011.21481,0.10337
4013.14328,0.10066
4015.07175,0.10042
4017.00022,0.10125
4018.92869,0.10022
4020.85715,0.09764
4022.78562,0.09490
4024.71409,0.09287
4026.64256,0.09388
4028.57103,0.09728
4030.49950,0.09806
4032.42797,0.09602
4034.35644,0.09351
4036.28490,0.09306
4038.21337,0.09530
4040.14184,0.09519
4042.07031,0.09133
4043.99878,0.08496
4045.92725,0.07661
4047.85572,0.07217
4049.78418,0.07753
4051.71265,0.08738
4053.64112,0.09244
4055.56959,0.09288
4057.49806,0.09220
4059.42653,0.09255
4061.35500,0.09246
4063.28346,0.08936
4065.21193,0.08810
4067.14040,0.09094
4069.06887,0.09695
4070.99734,0.10366
4072.92581,0.10463
4074.85428,0.09953
4076.78275,0.09153
4078.71121,0.08333
4080.63968,0.07891
4082.56815,0.07851
4084.49662,0.08063
4086.42509,0.08454
4088.35356,0.08678
4090.28203,0.08517
4092.21049,0.08308
4094.13896,0.08053
4096.06743,0.07437
4097.99590,0.07042
4099.92437,0.07841
4101.85284,0.09129
4103.78131,0.09392
4105.70978,0.08867
4107.63824,0.08375
4109.56671,0.07923
4111.49518,0.07585
4113.42365,0.07677
4115.35212,0.08202
4117.28059,0.08597
4119.20906,0.08448
4121.13752,0.08033
4123.06599,0.07968
4124.99446,0.08197
4126.92293,0.08047
4128.85140,0.07906
4130.77987,0.08124
4132.70834,0.07744
4134.63681,0.06790
4136.56527,0.06317
4138.49374,0.06336
4140.42221,0.06483
4142.35068,0.06700
4144.27915,0.06860
4146.20762,0.07221
4148.13609,0.07701
4150.06455,0.07908
4151.99302,0.08037
4153.92149,0.07944
4155.84996,0.07653
4157.77843,0.07714
4159.70690,0.07707
4161.63537,0.07174
4163.56384,0.06802
4165.49230,0.07023
4167.42077,0.07538
4169.34924,0.07982
4171.27771,0.07925
4173.20618,0.07430
4175.13465,0.07277
4177.06312,0.07586
4178.99158,0.07527
4180.92005,0.06903
4182.84852,0.06327
4184.77699,0.06277
4186.70546,0.06529
4188.63393,0.06395
4190.56240,0.06295
4192.49087,0.07068
4194.41933,0.08215
4196.34780,0.09044
4198.27627,0.08988
4200.20474,0.07457
4202.13321,0.05650
4204.06168,0.05336
4205.99015,0.05937
4207.91861,0.06291
4209.84708,0.06293
4211.77555,0.06019
4213.70402,0.05948
4215.63249,0.06113
4217.56096,0.05939
4219.48943,0.05915
4221.41789,0.06371
4223.34636,0.06323
4225.27483,0.05654
4227.20330,0.05268
4229.13177,0.05519
4231.06024,0.06238
4232.98871,0.06673
4234.91718,0.06618
4236.84564,0.06907
4238.77411,0.07717
4240.70258,0.08255
4242.63105,0.07944
4244.55952,0.07053
4246.48799,0.06165
4248.41646,0.05685
4250.34492,0.05507
4252.27339,0.05275
4254.20186,0.05212
4256.13033,0.05534
4258.05880,0.05623
4259.98727,0.05011
4261.91574,0.04547
4263.84421,0.04718
4265.77267,0.04809
4267.70114,0.04887
4269.62961,0.05161
4271.55808,0.05102
4273.48655,0.04514
4275.41502,0.03799
4277.34349,0.04034
4279.27195,0.05065
4281.20042,0.05113
4283.12889,0.03884
4285.05736,0.02765
4286.98583,0.02993
4288.91430,0.03955
4290.84277,0.03791
4292.77124,0.02519
4294.69970,0.01833
4296.62817,0.02595
4298.55664,0.03882
4300.48511,0.04434
4302.41358,0.04350
4304.34205,0.04153
4306.27052,0.03940
4308.19898,0.03852
4310.12745,0.03938
4312.05592,0.03879
4313.98439,0.03791
4315.91286,0.03996
4317.84133,0.04035
4319.76980,0.03528
4321.69827,0.03053
4323.62673,0.03237
4325.55520,0.03830
4327.48367,0.04302
4329.41214,0.04274
4331.34061,0.03646
4333.26908,0.03158
4335.19755,0.03235
4337.12601,0.03093
4339.05448,0.02511
4340.98295,0.02297
4342.91142,0.02535
4344.83989,0.02929
4346.76836,0.03551
4348.69683,0.03794
4350.62530,0.02926
4352.55376,0.01185
4354.48223,-0.00595
4356.41070,-0.01162
4358.33917,0.00126
4360.26764,0.01714
4362.19611,0.02086
4364.12458,0.02117
4366.05304,0.02774
4367.98151,0.03210
4369.90998,0.02710
4371.83845,0.02301
4373.76692,0.02595
4375.69539,0.02473
4377.62386,0.01731
4379.55232,0.01826
4381.48079,0.02983
4383.40926,0.03451
4385.33773,0.02510
4387.26620,0.01230
4389.19467,0.00302
4391.12314,0.00078
4393.05161,0.00788
4394.98007,0.01554
4396.90854,0.01916
4398.83701,0.02710
4400.76548,0.03753
4402.69395,0.03552
4404.62242,0.02082
4406.55089,0.01077
4408.47935,0.01408
4410.40782,0.02199
4412.33629,0.02093
4414.26476,0.01262
4416.19323,0.01127
4418.12170,0.01983
4420.05017,0.02869
4421.97864,0.02997
4423.90710,0.02381
4425.83557,0.01491
4427.76404,0.01204
4429.69251,0.01620
4431.62098,0.01419
4433.54945,0.00712
4435.47792,0.01049
4437.40638,0.02134
4439.33485,0.02524
4441.26332,0.02370
4443.19179,0.02377
4445.12026,0.02600
4447.04873,0.02890
4448.97720,0.02453
4450.90567,0.01218
4452.83413,0.00656
4454.76260,0.01550
4456.69107,0.02813
4458.61954,0.02886
4460.54801,0.02000
4462.47648,0.01465
4464.40495,0.01579
4466.33341,0.02121
4468.26188,0.02509
4470.19035,0.02270
4472.11882,0.01898
4474.04729,0.01329
4475.97576,0.00438
4477.90423,-0.00086
4479.83270,-0.00410
4481.76116,-0.00394
4483.68963,0.00398
4485.61810,0.00479
4487.54657,-0.00558
4489.47504,-0.00776
4491.40351,-0.00218
4493.33198,0.00117
4495.26044,0.00659
4497.18891,0.01001
4499.11738,0.01006
4501.04585,0.01589
4502.97432,0.02091
4504.90279,0.01713
4506.83126,0.00866
4508.75973,0.00220
4510.68819,0.00480
4512.61666,0.01154
4514.54513,0.01160
4516.47360,0.00802
4518.40207,0.00686
4520.33054,0.00460
4522.25901,-0.00273
4524.18747,-0.00505
4526.11594,0.00664
4528.04441,0.01704
4529.97288,0.01341
4531.90135,0.00447
4533.82982,-0.00244
4535.75829,-0.00378
4537.68676,0.00253
4539.61522,0.01111
4541.54369,0.01503
4543.47216,0.01086
4545.40063,0.00611
4547.32910,0.00397
4549.25757,-0.00061
4551.18604,-0.00332
4553.11450,0.00353
4555.04297,0.01855
4556.97144,0.02695
4558.89991,0.01730
4560.82838,-0.00160
4562.75685,-0.00973
4564.68532,-0.00439
4566.61378,-0.00765
4568.54225,-0.01198
4570.47072,0.00099
4572.39919,0.01163
4574.32766,0.00519
4576.25613,-0.00327
4578.18460,-0.00162
4580.11307,0.00363
4582.04153,0.00596
4583.97000,0.00862
4585.89847,0.00812
4587.82694,-0.00134
4589.75541,-0.00680
4591.68388,0.00186
4593.61235,0.01087
4595.54081,0.01037
4597.46928,0.00592
4599.39775,0.00496
4601.32622,0.00978
4603.25469,0.01438
4605.18316,0.01393
4607.11163,0.01315
4609.04010,0.01003
4610.96856,0.00454
4612.89703,0.00905
4614.82550,0.02042
4616.75397,0.02550
4618.68244,0.01868
4620.61091,0.00503
4622.53938,-0.00332
4624.46784,-0.00358
4626.39631,0.00079
4628.32478,0.00474
4630.25325,0.00649
4632.18172,0.00871
4634.11019,0.00618
4636.03866,0.00080
4637.96713,-0.00065
4639.89559,-0.00235
4641.82406,-0.00055
4643.75253,0.00762
4645.68100,0.01086
4647.60947,0.00957
4649.53794,0.00935
4651.46641,0.00700
4653.39487,0.00270
4655.32334,-0.00119
4657.25181,-0.00243
4659.18028,0.00322
4661.10875,0.01173
4663.03722,0.01512
4664.96569,0.00467
4666.89416,-0.01655
4668.82262,-0.02497
4670.75109,-0.01094
4672.67956,-0.00086
4674.60803,-0.00643
4676.53650,-0.00496
4678.46497,0.00787
4680.39344,0.01367
4682.32190,0.01063
4684.25037,0.00440
4686.17884,-0.00285
4688.10731,-0.00695
4690.03578,-0.00676
4691.96425,-0.00559
4693.89272,-0.00522
4695.82119,-0.00221
4697.74965,0.00415
4699.67812,0.01127
4701.60659,0.01915
4703.53506,0.02626
4705.46353,0.02570
4707.39200,0.01751
4709.32047,0.01095
4711.24893,0.00610
4713.17740,-0.00306
4715.10587,-0.00912
4717.03434,-0.00197
4718.96281,0.01307
4720.89128,0.02251
4722.81975,0.01811
4724.74821,0.00546
4726.67668,-0.00122
4728.60515,0.00621
4730.53362,0.01435
4732.46209,0.00969
4734.39056,0.00163
4736.31903,-0.00077
4738.24750,0.00334
4740.17596,0.01819
4742.10443,0.03030
4744.03290,0.02234
4745.96137,0.00745
4747.88984,0.00261
4749.81831,0.00174
4751.74678,-0.00323
4753.67524,-0.00372
4755.60371,0.00863
4757.53218,0.01562
4759.46065,0.01074
4761.38912,0.01262
4763.31759,0.01623
4765.24606,0.00743
4767.17453,0.00439
4769.10299,0.01376
4771.03146,0.01732
4772.95993,0.01177
4774.88840,0.00572
4776.81687,0.00018
4778.74534,-0.00419
4780.67381,-0.00657
4782.60227,-0.00666
4784.53074,-0.00049
4786.45921,0.00701
4788.38768,0.00848
4790.31615,0.00578
4792.24462,0.00502
4794.17309,0.00722
4796.10156,0.00419
4798.03002,-0.00513
4799.95849,-0.00909
4801.88696,0.00008
4803.81543,0.01398
4805.74390,0.01718
4807.67237,0.01575
4809.60084,0.01716
4811.52930,0.01039
4813.45777,0.00368
4815.38624,0.00588
4817.31471,0.00860
4819.24318,0.00536
4821.17165,-0.00344
4823.10012,-0.01265
4825.02859,-0.01442
4826.95705,-0.00697
4828.88552,0.00675
4830.81399,0.01455
4832.74246,0.00205
4834.67093,-0.01339
4836.59940,-0.00681
4838.52787,0.01167
4840.45633,0.02300
4842.38480,0.02246
4844.31327,0.01445
4846.24174,0.00215
4848.17021,-0.01394
4850.09868,-0.02568
4852.02715,-0.01695
4853.95562,0.00925
4855.88408,0.02232
4857.81255,0.01527
4859.74102,0.00693
4861.66949,0.00229
4863.59796,0.00906
4865.52643,0.03063
4867.45490,0.04456
4869.38336,0.03886
4871.31183,0.02117
4873.24030,-0.00012
4875.16877,-0.01439
4877.09724,-0.01925
4879.02571,-0.01967
4880.95418,-0.01710
4882.88265,-0.01423
4884.81111,-0.00751
4886.73958,0.00327
4888.66805,0.01165
4890.59652,0.01745
4892.52499,0.02014
4894.45346,0.02320
4896.38193,0.02941
4898.31039,0.03182
4900.23886,0.02795
4902.16733,0.01987
4904.09580,0.00612
4906.02427,-0.01005
4907.95274,-0.01367
4909.88121,0.00062
4911.80967,0.02173
4913.73814,0.03454
4915.66661,0.02746
4917.59508,0.01271
4919.52355,0.00785
4921.45202,0.01501
4923.38049,0.02181
4925.30896,0.01142
4927.23742,-0.00251
4929.16589,0.00490
4931.09436,0.02307
4933.02283,0.02674
4934.95130,0.01689
4936.87977,0.00213
4938.80824,-0.01369
4940.73670,-0.01891
4942.66517,-0.01353
4944.59364,-0.00720
4946.52211,-0.00221
4948.45058,-0.00013
4950.37905,0.00479
4952.30752,0.01374
4954.23599,0.01883
4956.16445,0.02741
4958.09292,0.03558
4960.02139,0.02684
4961.94986,0.01239
4963.87833,0.00358
4965.80680,-0.00291
4967.73527,0.00411
4969.66373,0.02273
4971.59220,0.02866
4973.52067,0.02355
4975.44914,0.02848
4977.37761,0.03899
4979.30608,0.03164
4981.23455,0.00999
4983.16302,0.00364
4985.09148,0.01164
4987.01995,0.01890
4988.94842,0.02747
4990.87689,0.03485
4992.80536,0.03714
4994.73383,0.03005
4996.66230,0.01314
4998.59076,-0.00159
5000.51923,-0.01131
5002.44770,-0.01896
5004.37617,-0.02283
5006.30464,-0.02274
5008.23311,-0.01639
5010.16158,-0.00094
5012.09005,0.01120
5014.01851,0.00928
5015.94698,0.00641
5017.87545,0.01441
5019.80392,0.02137
5021.73239,0.01638
5023.66086,0.01026
5025.58933,0.00831
5027.51779,0.00724
5029.44626,0.00971
5031.37473,0.00860
5033.30320,0.00151
5035.23167,0.00017
5037.16014,0.00502
5039.08861,0.01524
5041.01708,0.02428
5042.94554,0.01300
5044.87401,-0.01178
5046.80248,-0.01963
5048.73095,-0.00944
5050.65942,-0.00725
5052.58789,-0.01660
5054.51636,-0.01388
5056.44482,0.00464
5058.37329,0.01710
5060.30176,0.02186
5062.23023,0.02316
5064.15870,0.01581
5066.08717,0.01050
5068.01564,0.01122
5069.94410,0.01019
5071.87257,0.00813
5073.80104,0.00622
5075.72951,0.00804
5077.65798,0.01787
5079.58645,0.02930
5081.51492,0.02611
5083.44339,0.00504
5085.37185,-0.01696
5087.30032,-0.01653
5089.22879,0.00803
5091.15726,0.02732
5093.08573,0.02465
5095.01420,0.01417
5096.94267,0.00592
5098.87113,-0.00489
5100.79960,-0.00905
5102.72807,-0.00135
5104.65654,-0.00370
5106.58501,-0.01822
5108.51348,-0.02300
5110.44195,-0.01413
5112.37042,0.00204
5114.29888,0.02058
5116.22735,0.03198
5118.15582,0.03278
5120.08429,0.02349
5122.01276,0.00095
5123.94123,-0.02566
5125.86970,-0.03355
5127.79816,-0.01543
5129.72663,0.00989
5131.65510,0.02114
5133.58357,0.01187
5135.51204,-0.01058
5137.44051,-0.02771
5139.36898,-0.02013
5141.29745,0.00694
5143.22591,0.03847
5145.15438,0.06207
5147.08285,0.05890
5149.01132,0.03807
5150.93979,0.03004
5152.86826,0.03752
5154.79673,0.04021
5156.72519,0.02834
5158.65366,0.01661
5160.58213,0.02308
5162.51060,0.02962
5164.43907,0.00893
5166.36754,-0.01428
5168.29601,-0.01192
5170.22448,0.00141
5172.15294,0.00851
5174.08141,0.01662
5176.00988,0.02952
5177.93835,0.03609
5179.86682,0.03883
5181.79529,0.04429
5183.72376,0.04054
5185.65222,0.01289
5187.58069,-0.02418
5189.50916,-0.02954
5191.43763,0.01078
5193.36610,0.04963
5195.29457,0.04651
5197.22304,0.02812
5199.15151,0.01940
5201.07997,0.01401
5203.00844,0.02372
5204.93691,0.04740
5206.86538,0.04648
5208.79385,0.01524
5210.72232,-0.01126
5212.65079,-0.01655
5214.57925,-0.00654
5216.50772,0.00549
5218.43619,0.02659
5220.36466,0.04682
5222.29313,0.04418
5224.22160,0.03282
5226.15007,0.01870
5228.07854,0.00749
5230.00700,0.01191
5231.93547,0.01730
5233.86394,0.01801
5235.79241,0.02311
5237.72088,0.02242
5239.64935,0.00728
5241.57782,-0.01021
5243.50628,-0.01292
5245.43475,0.00296
5247.36322,0.01258
5249.29169,0.00124
5251.22016,0.00200
5253.14863,0.03483
5255.07710,0.06337
5257.00556,0.04455
5258.93403,0.00390
5260.86250,-0.00183
5262.79097,0.02385
5264.71944,0.03032
5266.64791,0.00961
5268.57638,-0.00713
5270.50485,-0.00287
5272.43331,0.00726
5274.36178,0.00342
5276.29025,-0.00945
5278.21872,-0.01440
5280.14719,-0.00506
5282.07566,0.00553
5284.00413,0.01119
5285.93259,0.02053
5287.86106,0.03103
5289.78953,0.03111
5291.71800,0.02629
5293.64647,0.03036
5295.57494,0.03804
5297.50341,0.04289
5299.43188,0.04010
5301.36034,0.03298
5303.28881,0.02909
5305.21728,0.01701
5307.14575,0.00223
5309.07422,-0.00042
5311.00269,0.00114
5312.93116,0.01049
5314.85962,0.02608
5316.78809,0.03085
5318.71656,0.02889
5320.64503,0.02958
5322.57350,0.03112
5324.50197,0.03493
5326.43044,0.03637
5328.35891,0.03261
5330.28737,0.03882
5332.21584,0.05431
5334.14431,0.05656
5336.07278,0.04780
5338.00125,0.05248
5339.92972,0.07018
5341.85819,0.09004
5343.78665,0.10278
5345.71512,0.08948
5347.64359,0.06772
5349.57206,0.04800
5351.50053,0.02525
5353.42900,0.02114
5355.35747,0.03829
5357.28594,0.04656
5359.21440,0.04555
5361.14287,0.05445
5363.07134,0.06946
5364.99981,0.07260
5366.92828,0.06366
5368.85675,0.05710
5370.78522,0.05693
5372.71368,0.05344
5374.64215,0.05180
5376.57062,0.05140
5378.49909,0.04908
5380.42756,0.06561
5382.35603,0.08746
5384.28450,0.08195
5386.21297,0.06005
5388.14143,0.05278
5390.06990,0.04599
5391.99837,0.03351
5393.92684,0.03915
5395.85531,0.05492
5397.78378,0.06361
5399.71225,0.06425
5401.64071,0.05227
5403.56918,0.03977
5405.49765,0.03245
5407.42612,0.03482
5409.35459,0.05876
5411.28306,0.07753
5413.21153,0.06479
5415.13999,0.05957
5417.06846,0.08366
5418.99693,0.09888
5420.92540,0.07510
5422.85387,0.04131
5424.78234,0.04941
5426.71081,0.07713
5428.63928,0.06426
5430.56774,0.03403
5432.49621,0.02083
5434.42468,0.01860
5436.35315,0.03314
5438.28162,0.04890
5440.21009,0.05467
5442.13856,0.05070
5444.06702,0.03585
5445.99549,0.02461
5447.92396,0.02520
5449.85243,0.02697
5451.78090,0.02021
5453.70937,0.01716
5455.63784,0.02938
5457.56631,0.04324
5459.49477,0.05277
5461.42324,0.06076
5463.35171,0.06698
5465.28018,0.07295
5467.20865,0.07154
5469.13712,0.06514
5471.06559,0.06850
5472.99405,0.08989
5474.92252,0.11381
5476.85099,0.10031
5478.77946,0.06195
5480.70793,0.04489
5482.63640,0.04873
5484.56487,0.04652
5486.49334,0.03183
5488.42180,0.02178
5490.35027,0.03625
5492.27874,0.05633
5494.20721,0.04896
5496.13568,0.03099
5498.06415,0.02296
5499.99262,0.03199
5501.92108,0.05268
5503.84955,0.06249
5505.77802,0.06417
5507.70649,0.06115
5509.63496,0.04259
5511.56343,0.02559
5513.49190,0.02708
5515.42037,0.03871
5517.34883,0.05902
5519.27730,0.08522
5521.20577,0.08984
5523.13424,0.06648
5525.06271,0.05731
5526.99118,0.08810
5528.91965,0.11203
5530.84811,0.09210
5532.77658,0.06001
5534.70505,0.02634
5536.63352,0.00235
5538.56199,0.02003
5540.49046,0.04846
5542.41893,0.05171
5544.34740,0.05581
5546.27586,0.07112
5548.20433,0.06971
5550.13280,0.06025
5552.06127,0.06586
5553.98974,0.07689
5555.91821,0.08357
5557.84668,0.08538
5559.77514,0.06843
5561.70361,0.04152
5563.63208,0.03691
5565.56055,0.04164
5567.48902,0.03134
5569.41749,0.02173
5571.34596,0.03418
5573.27443,0.06134
5575.20289,0.06809
5577.13136,0.05714
5579.05983,0.05872
5580.98830,0.05819
5582.91677,0.03078
5584.84524,0.00923
5586.77371,0.02674
5588.70217,0.05735
5590.63064,0.06977
5592.55911,0.06799
5594.48758,0.06289
5596.41605,0.06495
5598.34452,0.08221
5600.27299,0.11019
5602.20145,0.13616
5604.12992,0.15218
5606.05839,0.14327
5607.98686,0.10848
5609.91533,0.09082
5611.84380,0.09805
5613.77227,0.09199
5615.70074,0.07244
5617.62920,0.04014
5619.55767,-0.00155
5621.48614,-0.00911
5623.41461,0.03109
5625.34308,0.07940
5627.27155,0.09614
5629.20002,0.08970
5631.12848,0.08039
5633.05695,0.07215
5634.98542,0.08296
5636.91389,0.08460
5638.84236,0.04989
5640.77083,0.03851
5642.69930,0.06224
5644.62777,0.07132
5646.55623,0.06644
5648.48470,0.06556
5650.41317,0.05612
5652.34164,0.04444
5654.27011,0.04440
5656.19858,0.04138
5658.12705,0.02981
5660.05551,0.02477
5661.98398,0.03375
5663.91245,0.04645
5665.84092,0.06063
5667.76939,0.07715
5669.69786,0.08387
5671.62633,0.08625
5673.55480,0.08950
5675.48326,0.08108
5677.41173,0.06372
5679.34020,0.04636
5681.26867,0.02133
5683.19714,-0.00942
5685.12561,-0.02197
5687.05408,-0.00724
5688.98254,0.02642
5690.91101,0.06763
5692.83948,0.10224
5694.76795,0.11624
5696.69642,0.09770
5698.62489,0.07110
5700.55336,0.07864
5702.48183,0.10624
5704.41029,0.11019
5706.33876,0.09993
5708.26723,0.11777
5710.19570,0.13802
5712.12417,0.11771
5714.05264,0.08549
5715.98111,0.06331
5717.90957,0.04754
5719.83804,0.04958
5721.76651,0.06652
5723.69498,0.07976
5725.62345,0.07185
5727.55192,0.04546
5729.48039,0.04176
5731.40886,0.08728
5733.33732,0.13574
5735.26579,0.12805
5737.19426,0.07965
5739.12273,0.05725
5741.05120,0.06331
5742.97967,0.04600
5744.90814,0.02064
5746.83660,0.02435
5748.76507,0.03865
5750.69354,0.03791
5752.62201,0.02069
5754.55048,0.00800
5756.47895,0.01214
5758.40742,0.01629
5760.33588,0.00887
5762.26435,-0.00038
5764.19282,0.00273
5766.12129,0.02461
5768.04976,0.05312
5769.97823,0.07690
5771.90670,0.11333
5773.83517,0.13627
5775.76363,0.12109
5777.69210,0.11532
5779.62057,0.10481
5781.54904,0.06116
5783.47751,0.04132
5785.40598,0.06741
5787.33445,0.08746
5789.26291,0.06643
5791.19138,0.05106
5793.11985,0.08637
5795.04832,0.12408
5796.97679,0.10818
5798.90526,0.06922
5800.83373,0.06536
5802.76220,0.09386
5804.69066,0.09851
5806.61913,0.06301
5808.54760,0.03202
5810.47607,0.02958
5812.40454,0.05398
5814.33301,0.07483
5816.26148,0.05517
5818.18994,0.03759
5820.11841,0.07498
5822.04688,0.11071
5823.97535,0.11516
5825.90382,0.13148
5827.83229,0.13845
5829.76076,0.11636
5831.68923,0.08684
5833.61769,0.05317
5835.54616,0.03846
5837.47463,0.05286
5839.40310,0.06251
5841.33157,0.04774
5843.26004,0.04168
5845.18851,0.07465
5847.11697,0.11454
5849.04544,0.12883
5850.97391,0.11480
5852.90238,0.09364
5854.83085,0.10386
5856.75932,0.13442
5858.68779,0.13725
5860.61626,0.11128
5862.54472,0.09185
5864.47319,0.09570
5866.40166,0.10224
5868.33013,0.10072
5870.25860,0.08730
5872.18707,0.03259
5874.11554,-0.03720
5876.04400,-0.04567
5877.97247,-0.00066
5879.90094,0.03976
5881.82941,0.07108
5883.75788,0.09539
5885.68635,0.09337
5887.61482,0.07769
5889.54329,0.07172
5891.47175,0.05572
5893.40022,0.02521
5895.32869,0.01716
5897.25716,0.04392
5899.18563,0.07037
5901.11410,0.08210
5903.04257,0.09769
5904.97103,0.10282
5906.89950,0.08838
5908.82797,0.08335
5910.75644,0.10509
5912.68491,0.13421
5914.61338,0.12814
5916.54185,0.08631
5918.47032,0.06047
5920.39878,0.04808
5922.32725,0.00615
5924.25572,-0.03231
5926.18419,-0.03374
5928.11266,-0.02218
5930.04113,0.00783
5931.96960,0.07271
5933.89806,0.13719
5935.82653,0.15078
5937.75500,0.12405
5939.68347,0.08329
5941.61194,0.04110
5943.54041,0.03046
5945.46888,0.04981
5947.39734,0.06463
5949.32581,0.07695
5951.25428,0.09552
5953.18275,0.08346
5955.11122,0.05782
5957.03969,0.07634
5958.96816,0.10623
5960.89663,0.10159
5962.82509,0.08427
5964.75356,0.07354
5966.68203,0.07055
5968.61050,0.07698
5970.53897,0.06590
5972.46744,0.01527
5974.39591,-0.03351
5976.32437,-0.03764
5978.25284,0.02643
5980.18131,0.11766
5982.10978,0.13219
5984.03825,0.09372
5985.96672,0.09023
5987.89519,0.07316
5989.82366,0.01297
5991.75212,-0.00945
5993.68059,0.04007
5995.60906,0.11320
5997.53753,0.14213
5999.46600,0.10874
6001.39447,0.05575
6003.32294,0.04212
6005.25140,0.07908
6007.17987,0.10545
6009.10834,0.07724
6011.03681,0.05399
6012.96528,0.08708
6014.89375,0.13466
6016.82222,0.18549
6018.75069,0.23248
6020.67915,0.21847
6022.60762,0.16385
6024.53609,0.12129
6026.46456,0.10003
6028.39303,0.12042
6030.32150,0.18988
6032.24997,0.22489
6034.17843,0.18018
6036.10690,0.13868
6038.03537,0.12894
6039.96384,0.11508
6041.89231,0.09480
6043.82078,0.05471
6045.74925,0.03010
6047.67772,0.06029
6049.60618,0.09826
6051.53465,0.12610
6053.46312,0.17487
6055.39159,0.21855
6057.32006,0.21275
6059.24853,0.16731
6061.17700,0.12103
6063.10546,0.07326
6065.03393,0.00763
6066.96240,-0.04210
6068.89087,-0.03200
6070.81934,0.03055
6072.74781,0.07968
6074.67628,0.07281
6076.60475,0.03708
6078.53321,-0.00215
6080.46168,-0.02650
6082.39015,-0.00613
6084.31862,0.03405
6086.24709,0.06236
6088.17556,0.07524
6090.10403,0.04512
6092.03249,0.00992
6093.96096,0.05797
6095.88943,0.12622
6097.81790,0.10410
6099.74637,0.04476
6101.67484,0.04708
6103.60331,0.09206
6105.53177,0.11335
6107.46024,0.11584
6109.38871,0.12249
6111.31718,0.10621
6113.24565,0.05720
6115.17412,0.02062
6117.10259,0.03949
6119.03106,0.05175
6120.95952,0.00607
6122.88799,-0.00056
6124.81646,0.06267
6126.74493,0.14425
6128.67340,0.20134
6130.60187,0.18286
6132.53034,0.11084
6134.45880,0.06614
6136.38727,0.03795
6138.31574,-0.01284
6140.24421,-0.02316
6142.17268,0.03943
6144.10115,0.07840
6146.02962,0.04957
6147.95809,0.02781
6149.88655,0.05857
6151.81502,0.07463
6153.74349,0.03319
6155.67196,0.01156
6157.60043,0.03090
6159.52890,0.04832
6161.45737,0.04721
6163.38583,0.03471
6165.31430,0.01938
6167.24277,0.00181
6169.17124,0.01809
6171.09971,0.06458
6173.02818,0.07074
6174.95665,0.04906
6176.88512,0.06485
6178.81358,0.11874
6180.74205,0.15106
6182.67052,0.14188
6184.59899,0.12243
6186.52746,0.07626
6188.45593,-0.01665
6190.38440,-0.10540
6192.31286,-0.14977
6194.24133,-0.13783
6196.16980,-0.06998
6198.09827,0.01181
6200.02674,0.07189
6201.95521,0.11045
6203.88368,0.12413
6205.81215,0.12274
6207.74061,0.10166
6209.66908,0.04115
6211.59755,-0.01544
6213.52602,-0.02543
6215.45449,-0.00352
6217.38296,0.01275
6219.31143,0.02422
6221.23989,0.08160
6223.16836,0.16112
6225.09683,0.17694
6227.02530,0.12071
6228.95377,0.07297
6230.88224,0.07764
6232.81071,0.08132
6234.73918,0.05795
6236.66764,0.03282
6238.59611,0.01364
6240.52458,0.00796
6242.45305,-0.01055
6244.38152,-0.02100
6246.30999,0.04275
6248.23846,0.12677
6250.16692,0.15832
6252.09539,0.14485
6254.02386,0.12128
6255.95233,0.11470
6257.88080,0.13016
6259.80927,0.17381
6261.73774,0.23173
6263.66621,0.24326
6265.59467,0.14736
6267.52314,0.00800
6269.45161,-0.03820
6271.38008,0.00292
6273.30855,0.05724
6275.23702,0.09856
6277.16549,0.13906
6279.09395,0.13323
6281.02242,0.07554
6282.95089,0.06916
6284.87936,0.10939
6286.80783,0.13641
6288.73630,0.16697
6290.66477,0.17040
6292.59323,0.12528
6294.52170,0.09041
6296.45017,0.10440
6298.37864,0.14022
6300.30711,0.14253
6302.23558,0.10699
6304.16405,0.06016
6306.09252,0.00181
6308.02098,-0.01483
6309.94945,0.03792
6311.87792,0.09456
6313.80639,0.12533
6315.73486,0.12792
6317.66333,0.08938
6319.59180,0.05627
6321.52026,0.07229
6323.44873,0.08890
6325.37720,0.05821
6327.30567,-0.00588
6329.23414,-0.02651
6331.16261,0.02995
6333.09108,0.07616
6335.01955,0.08710
6336.94801,0.09324
6338.87648,0.10722
6340.80495,0.12049
6342.73342,0.09741
6344.66189,0.05575
6346.59036,0.00052
6348.51883,-0.09220
6350.44729,-0.14166
6352.37576,-0.08386
6354.30423,-0.00089
6356.23270,0.05961
6358.16117,0.08094
6360.08964,0.07291
6362.01811,0.11716
6363.94658,0.17925
6365.87504,0.16565
6367.80351,0.14930
6369.73198,0.17664
6371.66045,0.15262
6373.58892,0.08685
6375.51739,0.09187
6377.44586,0.13102
6379.37432,0.12209
6381.30279,0.11172
6383.23126,0.12597
6385.15973,0.10080
6387.08820,0.06207
6389.01667,0.02298
6390.94514,-0.06136
6392.87361,-0.10260
6394.80207,0.00587
6396.73054,0.13140
6398.65901,0.14614
6400.58748,0.05268
6402.51595,-0.04498
6404.44442,-0.01915
6406.37289,0.08575
6408.30135,0.11442
6410.22982,0.09912
6412.15829,0.14519
6414.08676,0.20744
6416.01523,0.21853
6417.94370,0.18764
6419.87217,0.18784
6421.80064,0.21602
6423.72910,0.19649
6425.65757,0.13530
6427.58604,0.10036
6429.51451,0.10011
6431.44298,0.08591
6433.37145,0.05517
6435.29992,0.01887
6437.22838,-0.00942
6439.15685,0.03929
6441.08532,0.11861
6443.01379,0.11738
6444.94226,0.08680
6446.87073,0.12675
6448.79920,0.18042
6450.72766,0.17967
6452.65613,0.12896
6454.58460,0.05751
6456.51307,0.02110
6458.44154,0.05746
6460.37001,0.10534
6462.29848,0.09259
6464.22695,0.07574
6466.15541,0.13094
6468.08388,0.19549
6470.01235,0.19830
6471.94082,0.18286
6473.86929,0.19002
6475.79776,0.18839
6477.72623,0.17997
6479.65469,0.18025
6481.58316,0.15499
6483.51163,0.11398
6485.44010,0.11388
6487.36857,0.12830
6489.29704,0.08332
6491.22551,-0.00080
6493.15398,-0.03412
6495.08244,0.01216
6497.01091,0.09125
6498.93938,0.15565
6500.86785,0.18847
6502.79632,0.18473
6504.72479,0.14942
6506.65326,0.11829
6508.58172,0.12432
6510.51019,0.15523
6512.43866,0.18008
6514.36713,0.17293
6516.29560,0.14103
6518.22407,0.10010
6520.15254,0.05423
6522.08101,-0.01005
6524.00947,-0.08247
6525.93794,-0.04932
6527.86641,0.08554
6529.79488,0.17745
6531.72335,0.21258
6533.65182,0.22888
6535.58029,0.20710
6537.50875,0.16975
6539.43722,0.16511
6541.36569,0.16979
6543.29416,0.12873
6545.22263,0.05473
6547.15110,0.03794
6549.07957,0.07624
6551.00804,0.09389
6552.93650,0.11217
6554.86497,0.13670
6556.79344,0.11915
6558.72191,0.09963
6560.65038,0.12435
6562.57885,0.11562
6564.50732,0.03838
6566.43578,0.02526
6568.36425,0.10678
6570.29272,0.17656
6572.22119,0.19170
6574.14966,0.20394
6576.07813,0.20215
6578.00660,0.10414
6579.93507,-0.00924
6581.86353,-0.02648
6583.79200,0.03815
6585.72047,0.12613
6587.64894,0.14534
6589.57741,0.08241
6591.50588,0.04988
6593.43435,0.07397
6595.36281,0.07304
6597.29128,0.05917
6599.21975,0.02220
6601.14822,-0.04466
6603.07669,-0.05479
6605.00516,-0.06611
6606.93363,-0.04872
6608.86210,0.10435
6610.79056,0.22023
6612.71903,0.13101
6614.64750,-0.00226
6616.57597,-0.04334
6618.50444,-0.06000
6620.43291,-0.03702
6622.36138,0.06625
6624.28984,0.10602
6626.21831,0.04151
6628.14678,0.03683
6630.07525,0.11515
6632.00372,0.10316
6633.93219,-0.01723
6635.86066,-0.08697
6637.78912,-0.04720
6639.71759,-0.01108
6641.64606,0.00080
6643.57453,0.02682
6645.50300,0.03952
6647.43147,0.01309
6649.35994,-0.00402
6651.28841,-0.00281
6653.21687,-0.02582
6655.14534,-0.04354
6657.07381,-0.01725
6659.00228,0.00143
6660.93075,-0.00005
6662.85922,0.02466
6664.78769,0.05636
6666.71615,0.05826
6668.64462,0.06217
6670.57309,0.08178
6672.50156,0.05547
6674.43003,-0.07459
6676.35850,-0.17705
6678.28697,-0.07679
6680.21544,0.09989
6682.14390,0.15079
6684.07237,0.13732
6686.00084,0.12894
6687.92931,0.06633
6689.85778,0.01622
6691.78625,0.02666
6693.71472,0.02686
6695.64318,0.05120
6697.57165,0.13013
6699.50012,0.18449
6701.42859,0.19103
6703.35706,0.18042
6705.28553,0.13567
6707.21400,0.06709
6709.14247,0.05604
6711.07093,0.09534
6712.99940,0.08150
6714.92787,0.01800
6716.85634,-0.01301
6718.78481,0.00906
6720.71328,0.06649
6722.64175,0.13456
6724.57021,0.16233
6726.49868,0.10150
6728.42715,-0.01665
6730.35562,-0.09608
6732.28409,-0.07778
6734.21256,0.01345
6736.14103,0.07171
6738.06950,0.02899
6739.99796,-0.02215
6741.92643,0.00086
6743.85490,0.02705
6745.78337,-0.00287
6747.71184,-0.03593
6749.64031,-0.05100
6751.56878,-0.08549
6753.49724,-0.07182
6755.42571,-0.03895
6757.35418,-0.09769
6759.28265,-0.10886
6761.21112,0.01541
6763.13959,0.10362
6765.06806,0.12729
6766.99653,0.11212
6768.92499,0.05107
6770.85346,-0.01250
6772.78193,-0.04218
6774.71040,-0.01692
6776.63887,0.04108
6778.56734,0.07364
6780.49581,0.06966
6782.42427,0.03764
6784.35274,0.04235
6786.28121,0.11826
6788.20968,0.19591
6790.13815,0.25225
6792.06662,0.26149
6793.99509,0.15668
6795.92355,0.00367
6797.85202,-0.06909
6799.78049,-0.06068
6801.70896,-0.04101
6803.63743,-0.02407
6805.56590,0.01018
6807.49437,0.06634
6809.42284,0.10279
6811.35130,0.08165
6813.27977,0.12467
6815.20824,0.24655
6817.13671,0.28727
6819.06518,0.27099
6820.99365,0.27407
6822.92212,0.24886
6824.85058,0.19013
6826.77905,0.18681
6828.70752,0.23156
6830.63599,0.20642
6832.56446,0.07894
6834.49293,-0.02801
6836.42140,-0.00275
6838.34987,0.12158
6840.27833,0.19791
6842.20680,0.15522
6844.13527,0.12020
6846.06374,0.11388
6847.99221,-0.02269
6849.92068,-0.13582
6851.84915,0.02403
6853.77761,0.15177
6855.70608,0.01110
6857.63455,-0.13145
6859.56302,-0.11166
6861.49149,-0.04837
6863.41996,-0.02259
6865.34843,-0.02225
6867.27690,-0.02375
6869.20536,-0.06304
6871.13383,-0.12205
6873.06230,-0.18312
6874.99077,-0.24955
6876.91924,-0.26720
6878.84771,-0.12248
6880.77618,0.16728
6882.70464,0.31766
6884.63311,0.23568
6886.56158,0.12642
6888.49005,0.13220
6890.41852,0.13676
6892.34699,0.09349
6894.27546,0.09735
6896.20393,0.13339
6898.13239,0.13383
6900.06086,0.07871
6901.98933,0.03774
6903.91780,0.01526
6905.84627,-0.09326
6907.77474,-0.17483
6909.70321,-0.08494
6911.63167,0.01019
6913.56014,-0.01133
6915.48861,-0.03522
6917.41708,0.04227
6919.34555,0.18110
6921.27402,0.19058
6923.20249,0.10862
6925.13096,0.10362
6927.05942,0.16020
6928.98789,0.19946
6930.91636,0.15280
6932.84483,0.05125
6934.77330,0.02192
6936.70177,0.08243
6938.63024,0.17818
6940.55870,0.20528
6942.48717,0.12547
6944.41564,0.07501
6946.34411,0.11179
6948.27258,0.10610
6950.20105,0.02575
6952.12952,-0.00217
6954.05799,0.05435
6955.98645,0.19749
6957.91492,0.30477
6959.84339,0.21715
6961.77186,0.05614
6963.70033,-0.01947
6965.62880,-0.01851
6967.55727,0.08037
6969.48573,0.19900
6971.41420,0.18805
6973.34267,0.12181
6975.27114,0.07187
6977.19961,-0.03788
6979.12808,-0.10815
6981.05655,0.01048
6982.98501,0.17463
6984.91348,0.18424
6986.84195,0.12743
6988.77042,0.05057
6990.69889,0.00039
6992.62736,0.06687
6994.55583,0.13055
6996.48430,0.04313
6998.41276,-0.10950
7000.34123,-0.15615
7002.26970,-0.12416
7004.19817,-0.09801
7006.12664,-0.09622
7008.05511,-0.07591
7009.98358,-0.03393
7011.91204,-0.05562
7013.84051,-0.13889
7015.76898,-0.11832
7017.69745,-0.01881
7019.62592,-0.01854
7021.55439,-0.12238
7023.48286,-0.15600
7025.41133,-0.01815
7027.33979,0.18036
7029.26826,0.30729
7031.19673,0.34294
7033.12520,0.31343
7035.05367,0.23068
7036.98214,0.17430
7038.91061,0.17389
7040.83907,0.13255
7042.76754,-0.02638
7044.69601,-0.13949
7046.62448,-0.10060
7048.55295,-0.11599
7050.48142,-0.21558
7052.40989,-0.17548
7054.33836,-0.01995
7056.26682,0.08123
7058.19529,0.17763
7060.12376,0.26881
7062.05223,0.32479
7063.98070,0.35394
7065.90917,0.30265
7067.83764,0.24670
7069.76610,0.29968
7071.69457,0.34592
7073.62304,0.21702
7075.55151,0.07652
7077.47998,0.09756
7079.40845,0.20111
7081.33692,0.17744
7083.26539,0.04587
7085.19385,0.00145
7087.12232,0.06936
7089.05079,0.15870
7090.97926,0.13742
7092.90773,-0.02989
7094.83620,-0.12969
7096.76467,-0.00288
7098.69313,0.11531
7100.62160,0.07657
7102.55007,0.09638
7104.47854,0.25472
7106.40701,0.42705
7108.33548,0.44389
7110.26395,0.36326
7112.19242,0.28481
7114.12088,0.14722
7116.04935,-0.02721
7117.97782,-0.09991
7119.90629,-0.07235
7121.83476,-0.01201
7123.76323,0.01673
7125.69170,-0.06290
7127.62016,-0.13223
7129.54863,-0.05976
7131.47710,0.08855
7133.40557,0.22402
7135.33404,0.25713
7137.26251,0.16434
7139.19098,0.07461
7141.11944,0.04429
7143.04791,0.05910
7144.97638,0.15361
7146.90485,0.22751
7148.83332,0.22074
7150.76179,0.15325
7152.69026,0.05201
7154.61873,0.05057
7156.54719,0.11344
7158.47566,0.08562
7160.40413,0.01328
7162.33260,0.01823
7164.26107,0.06458
7166.18954,0.09578
7168.11801,0.12849
7170.04647,0.18811
7171.97494,0.28131
7173.90341,0.27663
7175.83188,0.12184
7177.76035,-0.00011
7179.68882,-0.00513
7181.61729,0.04217
7183.54576,0.09891
7185.47422,0.03421
7187.40269,-0.10994
7189.33116,-0.13079
7191.25963,-0.09164
7193.18810,-0.15789
7195.11657,-0.15753
7197.04504,-0.06973
7198.97350,0.01608
7200.90197,0.11409
7202.83044,0.19330
7204.75891,0.18774
7206.68738,0.03576
7208.61585,-0.13868
7210.54432,-0.21917
7212.47279,-0.23437
7214.40125,-0.16419
7216.32972,0.00140
7218.25819,-0.01495
7220.18666,-0.19604
7222.11513,-0.22695
7224.04360,-0.18401
7225.97207,-0.13624
7227.90053,-0.10631
7229.82900,-0.08188
7231.75747,-0.03492
7233.68594,-0.01824
7235.61441,-0.06650
7237.54288,-0.10487
7239.47135,0.02302
7241.39982,0.23538
7243.32828,0.22498
7245.25675,0.10961
7247.18522,0.16042
7249.11369,0.33298
7251.04216,0.49409
7252.97063,0.39691
7254.89910,0.16460
7256.82756,0.10832
7258.75603,0.14262
7260.68450,0.20896
7262.61297,0.12531
7264.54144,-0.16265
7266.46991,-0.23861
7268.39838,-0.03152
7270.32685,0.29961
7272.25531,0.62789
7274.18378,0.57803
7276.11225,0.30260
7278.04072,0.23109
7279.96919,0.34532
7281.89766,0.27971
7283.82613,0.05105
7285.75459,-0.12760
7287.68306,-0.10263
7289.61153,0.09595
7291.54000,0.23982
7293.46847,0.16949
7295.39694,0.03406
7297.32541,0.05368
7299.25387,0.10466
7301.18234,0.06811
7303.11081,0.04251
7305.03928,0.05589
7306.96775,0.07594
7308.89622,0.10809
7310.82469,0.19791
7312.75316,0.32613
7314.68162,0.37210
7316.61009,0.27095
7318.53856,0.21200
7320.46703,0.29220
7322.39550,0.33026
7324.32397,0.20509
7326.25244,0.03840
7328.18090,-0.00568
7330.10937,0.01684
7332.03784,-0.11523
7333.96631,-0.21573
7335.89478,-0.13197
7337.82325,-0.05658
7339.75172,-0.06564
7341.68019,0.01563
7343.60865,0.10531
7345.53712,0.09329
7347.46559,-0.02609
7349.39406,-0.11923
7351.32253,-0.12401
7353.25100,0.00792
7355.17947,0.30043
7357.10793,0.60558
7359.03640,0.52508
7360.96487,0.06761
7362.89334,-0.24029
7364.82181,-0.33774
7366.75028,-0.31195
7368.67875,-0.17646
7370.60722,-0.17524
7372.53568,-0.32325
7374.46415,-0.34104
7376.39262,-0.12593
7378.32109,0.11504
7380.24956,0.39462
7382.17803,0.53726
7384.10650,0.38922
7386.03496,0.19649
7387.96343,0.10285
7389.89190,0.01253
7391.82037,-0.07654
7393.74884,-0.10318
7395.67731,-0.06454
7397.60578,0.02388
7399.53425,0.12679
7401.46271,0.17060
7403.39118,0.04333
7405.31965,-0.17017
7407.24812,-0.19566
7409.17659,-0.11013
7411.10506,-0.03564
7413.03353,0.07997
7414.96199,0.22140
7416.89046,0.23982
7418.81893,0.09941
7420.74740,0.08571
7422.67587,0.25969
7424.60434,0.39310
7426.53281,0.38619
7428.46128,0.25534
7430.38974,0.09746
7432.31821,0.08015
7434.24668,0.16609
7436.17515,0.31167
7438.10362,0.48817
7440.03209,0.48944
7441.96056,0.29328
7443.88902,0.18204
7445.81749,0.18224
7447.74596,0.02535
7449.67443,-0.24796
7451.60290,-0.27930
7453.53137,-0.07806
7455.45984,0.12152
7457.38831,0.25486
7459.31677,0.27661
7461.24524,0.23071
7463.17371,0.11854
7465.10218,-0.03756
7467.03065,0.01256
7468.95912,0.20735
7470.88759,0.25662
7472.81605,0.18684
7474.74452,0.21425
7476.67299,0.23033
7478.60146,0.15781
7480.52993,0.17446
7482.45840,0.21885
7484.38687,0.12343
7486.31533,0.05973
7488.24380,0.08868
7490.17227,-0.01112
7492.10074,-0.12777
7494.02921,-0.01608
7495.95768,0.19713
7497.88615,0.35168
