399.19301,7.75866
401.12148,1.23018
403.04995,0.31164
404.97842,0.02779
406.90689,0.02262
408.83536,0.08882
410.76382,0.05636
412.69229,-0.12602
414.62076,-0.21362
416.54923,-0.12094
418.47770,-0.08421
420.40617,-0.24181
422.33464,-0.19077
424.26311,0.04340
426.19157,0.14216
428.12004,0.04385
430.04851,-0.05346
431.97698,0.01018
433.90545,0.11890
435.83392,0.11949
437.76239,0.08790
439.69085,0.14328
441.61932,0.20048
443.54779,0.13402
445.47626,0.00070
447.40473,-0.07099
449.33320,0.03502
451.26167,0.20075
453.19013,0.25002
455.11860,0.26619
457.04707,0.32894
458.97554,0.27753
460.90401,0.12729
462.83248,0.03922
464.76095,0.04206
466.68942,0.07148
468.61788,0.05564
470.54635,0.01181
472.47482,0.00013
474.40329,0.05498
476.33176,0.09475
478.26023,0.10031
480.18870,0.09410
482.11716,0.07795
484.04563,0.06795
485.97410,0.08587
487.90257,0.10534
489.83104,0.05785
491.75951,-0.01413
493.68798,-0.04062
495.61645,-0.01528
497.54491,0.05039
499.47338,0.09750
501.40185,0.12629
503.33032,0.17103
505.25879,0.19479
507.18726,0.14685
509.11573,0.08909
511.04419,0.07576
512.97266,0.03595
514.90113,-0.02890
516.82960,-0.02873
518.75807,0.03379
520.68654,0.04940
522.61501,0.03910
524.54348,0.07115
526.47194,0.08287
528.40041,0.07489
530.32888,0.08964
532.25735,0.07672
534.18582,0.03007
536.11429,0.01001
538.04276,0.02100
539.97122,0.02583
541.89969,0.03005
543.82816,0.02647
545.75663,-0.00397
547.68510,-0.02352
549.61357,-0.03010
551.54204,-0.17768
553.47051,-0.38580
555.39897,-0.29877
557.32744,-0.01530
559.25591,0.10780
561.18438,0.09907
563.11285,0.07822
565.04132,0.06647
566.96979,0.05422
568.89825,0.02134
570.82672,-0.00067
572.75519,0.02280
574.68366,0.07359
576.61213,0.10110
578.54060,0.09445
580.46907,0.08759
582.39754,0.08691
584.32600,0.06063
586.25447,0.03443
588.18294,0.04722
590.11141,0.07228
592.03988,0.07878
593.96835,0.05934
595.89682,0.03946
597.82528,0.03982
599.75375,0.05649
601.68222,0.08786
603.61069,0.12494
605.53916,0.13919
607.46763,0.12401
609.39610,0.11374
611.32456,0.11533
613.25303,0.09646
615.18150,0.05342
617.10997,0.03310
619.03844,0.05169
620.96691,0.07697
622.89538,0.09867
624.82385,0.11345
626.75231,0.10693
628.68078,0.08480
630.60925,0.07923
632.53772,0.09773
634.46619,0.09647
636.39466,0.06282
638.32313,0.05047
640.25159,0.07290
642.18006,0.09200
644.10853,0.10799
646.03700,0.12096
647.96547,0.10885
649.89394,0.07702
651.82241,0.05335
653.75088,0.05637
655.67934,0.07748
657.60781,0.09038
659.53628,0.08882
661.46475,0.08130
663.39322,0.07080
665.32169,0.06102
667.25016,0.04683
669.17862,0.03968
671.10709,0.05238
673.03556,0.05388
674.96403,0.04533
676.89250,0.04388
678.82097,0.04587
680.74944,0.04882
682.67791,0.05812
684.60637,0.07144
686.53484,0.08638
688.46331,0.09232
690.39178,0.08551
692.32025,0.07831
694.24872,0.08366
696.17719,0.09664
698.10565,0.10046
700.03412,0.10887
701.96259,0.12879
703.89106,0.13738
705.81953,0.13313
707.74800,0.12453
709.67647,0.09799
711.60494,0.06317
713.53340,0.06376
715.46187,0.08983
717.39034,0.09742
719.31881,0.09127
721.24728,0.08560
723.17575,0.08128
725.10422,0.08732
727.03268,0.10292
728.96115,0.11561
730.88962,0.11584
732.81809,0.10578
734.74656,0.10326
736.67503,0.10646
738.60350,0.09783
740.53197,0.08460
742.46043,0.07908
744.38890,0.08638
746.31737,0.10565
748.24584,0.11890
750.17431,0.11231
752.10278,0.10048
754.03125,0.10210
755.95971,0.10613
757.88818,0.10578
759.81665,0.10542
761.74512,0.10273
763.67359,0.10427
765.60206,0.10338
767.53053,0.09037
769.45900,0.07768
771.38746,0.07601
773.31593,0.08365
775.24440,0.09253
777.17287,0.09594
779.10134,0.09524
781.02981,0.09272
782.95828,0.08236
784.88674,0.07076
786.81521,0.08051
788.74368,0.10859
790.67215,0.12381
792.60062,0.11514
794.52909,0.10300
796.45756,0.10500
798.38602,0.11336
800.31449,0.11287
802.24296,0.10459
804.17143,0.09834
806.09990,0.09899
808.02837,0.10420
809.95684,0.10111
811.88531,0.08557
813.81377,0.07148
815.74224,0.07535
817.67071,0.09195
819.59918,0.10075
821.52765,0.10469
823.45612,0.11501
825.38459,0.11956
827.31305,0.10985
829.24152,0.09615
831.16999,0.08519
833.09846,0.08318
835.02693,0.09327
836.95540,0.10338
838.88387,0.10651
840.81234,0.10713
842.74080,0.10541
844.66927,0.10094
846.59774,0.09798
848.52621,0.10069
850.45468,0.10976
852.38315,0.11465
854.31162,0.11212
856.24008,0.11402
858.16855,0.11922
860.09702,0.12650
862.02549,0.13139
863.95396,0.12068
865.88243,0.10671
867.81090,0.10655
869.73937,0.11393
871.66783,0.10528
873.59630,0.08494
875.52477,0.09036
877.45324,0.11647
879.38171,0.13090
881.31018,0.12539
883.23865,0.11456
885.16711,0.11641
887.09558,0.12222
889.02405,0.11440
890.95252,0.10335
892.88099,0.10560
894.80946,0.11307
896.73793,0.11431
898.66640,0.11209
900.59486,0.11148
902.52333,0.11067
904.45180,0.11010
906.38027,0.11371
908.30874,0.11421
910.23721,0.10854
912.16568,0.10411
914.09414,0.10597
916.02261,0.11207
917.95108,0.11875
919.87955,0.12604
921.80802,0.12841
923.73649,0.12515
925.66496,0.12328
927.59343,0.12175
929.52189,0.11787
931.45036,0.11445
933.37883,0.11329
935.30730,0.11330
937.23577,0.11386
939.16424,0.11352
941.09271,0.10880
943.02117,0.10257
944.94964,0.10306
946.87811,0.11064
948.80658,0.11768
950.73505,0.11901
952.66352,0.12153
954.59199,0.12832
956.52045,0.12445
958.44892,0.11316
960.37739,0.11478
962.30586,0.12301
964.23433,0.12394
966.16280,0.12655
968.09127,0.13455
970.01974,0.13296
971.94820,0.12158
973.87667,0.11919
975.80514,0.12572
977.73361,0.12263
979.66208,0.11247
981.59055,0.11240
983.51902,0.12188
985.44748,0.12858
987.37595,0.12645
989.30442,0.12222
991.23289,0.12426
993.16136,0.12714
995.08983,0.12235
997.01830,0.11420
998.94677,0.11677
1000.87523,0.13280
1002.80370,0.14737
1004.73217,0.15136
1006.66064,0.14468
1008.58911,0.13045
1010.51758,0.11858
1012.44605,0.11439
1014.37451,0.11666
1016.30298,0.12494
1018.23145,0.13274
1020.15992,0.12915
1022.08839,0.11812
1024.01686,0.11208
1025.94533,0.13039
1027.87380,0.17359
1029.80226,0.18362
1031.73073,0.14815
1033.65920,0.12286
1035.58767,0.11558
1037.51614,0.11465
1039.44461,0.12155
1041.37308,0.12793
1043.30154,0.13082
1045.23001,0.13212
1047.15848,0.12980
1049.08695,0.12196
1051.01542,0.11398
1052.94389,0.11298
1054.87236,0.11633
1056.80083,0.11944
1058.72929,0.12580
1060.65776,0.13161
1062.58623,0.13263
1064.51470,0.13953
1066.44317,0.14900
1068.37164,0.14659
1070.30011,0.13813
1072.22857,0.13898
1074.15704,0.14828
1076.08551,0.15509
1078.01398,0.15442
1079.94245,0.14665
1081.87092,0.14203
1083.79939,0.14483
1085.72786,0.14559
1087.65632,0.14637
1089.58479,0.15088
1091.51326,0.14990
1093.44173,0.14013
1095.37020,0.13189
1097.29867,0.13512
1099.22714,0.14328
1101.15560,0.14461
1103.08407,0.13916
1105.01254,0.13251
1106.94101,0.12826
1108.86948,0.12714
1110.79795,0.12840
1112.72642,0.13000
1114.65489,0.12880
1116.58335,0.12490
1118.51182,0.12367
1120.44029,0.12588
1122.36876,0.12775
1124.29723,0.13119
1126.22570,0.13216
1128.15417,0.12818
1130.08263,0.12893
1132.01110,0.13473
1133.93957,0.14083
1135.86804,0.14778
1137.79651,0.15065
1139.72498,0.14264
1141.65345,0.13327
1143.58191,0.13450
1145.51038,0.13806
1147.43885,0.13825
1149.36732,0.13883
1151.29579,0.13822
1153.22426,0.13735
1155.15273,0.13702
1157.08120,0.13788
1159.00966,0.14018
1160.93813,0.14139
1162.86660,0.14469
1164.79507,0.14685
1166.72354,0.14154
1168.65201,0.13649
1170.58048,0.13940
1172.50894,0.14511
1174.43741,0.14526
1176.36588,0.14230
1178.29435,0.14251
1180.22282,0.14276
1182.15129,0.14223
1184.07976,0.14711
1186.00823,0.15724
1187.93669,0.16328
1189.86516,0.15658
1191.79363,0.14317
1193.72210,0.13780
1195.65057,0.14322
1197.57904,0.14881
1199.50751,0.14539
1201.43597,0.13987
1203.36444,0.14128
1205.29291,0.14357
1207.22138,0.14131
1209.14985,0.13861
1211.07832,0.14051
1213.00679,0.14546
1214.93526,0.14810
1216.86372,0.14781
1218.79219,0.14504
1220.72066,0.14287
1222.64913,0.14685
1224.57760,0.15377
1226.50607,0.15791
1228.43454,0.16007
1230.36300,0.16168
1232.29147,0.16084
1234.21994,0.15746
1236.14841,0.15530
1238.07688,0.15423
1240.00535,0.15231
1241.93382,0.14984
1243.86229,0.14530
1245.79075,0.13872
1247.71922,0.13775
1249.64769,0.14556
1251.57616,0.14896
1253.50463,0.14113
1255.43310,0.13398
1257.36157,0.13270
1259.29003,0.13128
1261.21850,0.12996
1263.14697,0.13253
1265.07544,0.13689
1267.00391,0.13655
1268.93238,0.13158
1270.86085,0.13257
1272.78932,0.13955
1274.71778,0.14235
1276.64625,0.14331
1278.57472,0.14643
1280.50319,0.14285
1282.43166,0.13318
1284.36013,0.13279
1286.28860,0.14063
1288.21706,0.14584
1290.14553,0.15055
1292.07400,0.15102
1294.00247,0.14034
1295.93094,0.12849
1297.85941,0.12124
1299.78788,0.10910
1301.71634,0.08688
1303.64481,0.06717
1305.57328,0.07477
1307.50175,0.10985
1309.43022,0.14073
1311.35869,0.15374
1313.28716,0.15823
1315.21563,0.15884
1317.14409,0.15915
1319.07256,0.15882
1321.00103,0.15469
1322.92950,0.15062
1324.85797,0.14448
1326.78644,0.13738
1328.71491,0.13911
1330.64337,0.14093
1332.57184,0.13638
1334.50031,0.13473
1336.42878,0.13679
1338.35725,0.14068
1340.28572,0.13785
1342.21419,0.12867
1344.14266,0.12331
1346.07112,0.12068
1347.99959,0.12724
1349.92806,0.13690
1351.85653,0.13408
1353.78500,0.12824
1355.71347,0.13192
1357.64194,0.14217
1359.57040,0.15160
1361.49887,0.15909
1363.42734,0.16157
1365.35581,0.15701
1367.28428,0.15283
1369.21275,0.15308
1371.14122,0.15727
1373.06969,0.16282
1374.99815,0.16533
1376.92662,0.16399
1378.85509,0.16240
1380.78356,0.16209
1382.71203,0.16465
1384.64050,0.17010
1386.56897,0.17423
1388.49743,0.17402
1390.42590,0.17295
1392.35437,0.17460
1394.28284,0.17717
1396.21131,0.17855
1398.13978,0.17946
1400.06825,0.17764
1401.99672,0.17353
1403.92518,0.17023
1405.85365,0.16784
1407.78212,0.16501
1409.71059,0.16006
1411.63906,0.15563
1413.56753,0.16005
1415.49600,0.17437
1417.42446,0.19098
1419.35293,0.19583
1421.28140,0.18577
1423.20987,0.17374
1425.13834,0.16464
1427.06681,0.16542
1428.99528,0.17610
1430.92375,0.18249
1432.85221,0.17728
1434.78068,0.16968
1436.70915,0.16604
1438.63762,0.16647
1440.56609,0.16905
1442.49456,0.17154
1444.42303,0.17332
1446.35149,0.17573
1448.27996,0.17580
1450.20843,0.17401
1452.13690,0.17685
1454.06537,0.18567
1455.99384,0.19904
1457.92231,0.20512
1459.85077,0.19540
1461.77924,0.18837
1463.70771,0.18875
1465.63618,0.18759
1467.56465,0.18250
1469.49312,0.18637
1471.42159,0.20128
1473.35006,0.20702
1475.27852,0.19316
1477.20699,0.18255
1479.13546,0.18164
1481.06393,0.18169
1482.99240,0.18026
1484.92087,0.18448
1486.84934,0.19302
1488.77780,0.19786
1490.70627,0.19340
1492.63474,0.18768
1494.56321,0.19142
1496.49168,0.20099
1498.42015,0.19819
1500.34862,0.18543
1502.27709,0.17931
1504.20555,0.18620
1506.13402,0.21294
1508.06249,0.22492
1509.99096,0.20445
1511.91943,0.19174
1513.84790,0.19318
1515.77637,0.20794
1517.70483,0.22732
1519.63330,0.24133
1521.56177,0.24245
1523.49024,0.22416
1525.41871,0.20923
1527.34718,0.20113
1529.27565,0.19259
1531.20412,0.18921
1533.13258,0.19577
1535.06105,0.20286
1536.98952,0.21357
1538.91799,0.24589
1540.84646,0.27198
1542.77493,0.24406
1544.70340,0.21310
1546.63186,0.19867
1548.56033,0.19566
1550.48880,0.19312
1552.41727,0.19367
1554.34574,0.20439
1556.27421,0.22250
1558.20268,0.24186
1560.13115,0.22236
1562.05961,0.19806
1563.98808,0.19197
1565.91655,0.19336
1567.84502,0.19785
1569.77349,0.19840
1571.70196,0.19248
1573.63043,0.19559
1575.55889,0.20892
1577.48736,0.20723
1579.41583,0.19286
1581.34430,0.18565
1583.27277,0.18320
1585.20124,0.17947
1587.12971,0.17717
1589.05818,0.17961
1590.98664,0.18248
1592.91511,0.18314
1594.84358,0.18187
1596.77205,0.17976
1598.70052,0.17976
1600.62899,0.18035
1602.55746,0.18225
1604.48592,0.18705
1606.41439,0.18979
1608.34286,0.18931
1610.27133,0.18730
1612.19980,0.18589
1614.12827,0.19074
1616.05674,0.20166
1617.98521,0.20419
1619.91367,0.20113
1621.84214,0.20375
1623.77061,0.20703
1625.69908,0.20627
1627.62755,0.20066
1629.55602,0.18944
1631.48449,0.18719
1633.41295,0.20307
1635.34142,0.22459
1637.26989,0.21884
1639.19836,0.20335
1641.12683,0.19704
1643.05530,0.20087
1644.98377,0.21619
1646.91223,0.23003
1648.84070,0.22539
1650.76917,0.22431
1652.69764,0.23206
1654.62611,0.21940
1656.55458,0.20355
1658.48305,0.20537
1660.41152,0.22744
1662.33998,0.24777
1664.26845,0.22786
1666.19692,0.20052
1668.12539,0.20238
1670.05386,0.21764
1671.98233,0.21776
1673.91080,0.21501
1675.83926,0.21290
1677.76773,0.20866
1679.69620,0.20762
1681.62467,0.21663
1683.55314,0.23836
1685.48161,0.23997
1687.41008,0.22181
1689.33855,0.20918
1691.26701,0.20232
1693.19548,0.20428
1695.12395,0.21702
1697.05242,0.23093
1698.98089,0.23639
1700.90936,0.22870
1702.83783,0.21616
1704.76629,0.20848
1706.69476,0.20216
1708.62323,0.19866
1710.55170,0.19738
1712.48017,0.19859
1714.40864,0.20915
1716.33711,0.22497
1718.26558,0.21900
1720.19404,0.20006
1722.12251,0.18843
1724.05098,0.18234
1725.97945,0.18074
1727.90792,0.18630
1729.83639,0.19877
1731.76486,0.20947
1733.69332,0.20901
1735.62179,0.20253
1737.55026,0.20172
1739.47873,0.20136
1741.40720,0.19814
1743.33567,0.19832
1745.26414,0.20296
1747.19261,0.20718
1749.12107,0.20843
1751.04954,0.20477
1752.97801,0.19799
1754.90648,0.19504
1756.83495,0.19663
1758.76342,0.19802
1760.69189,0.19774
1762.62035,0.19249
1764.54882,0.18659
1766.47729,0.18936
1768.40576,0.19816
1770.33423,0.20822
1772.26270,0.21291
1774.19117,0.20197
1776.11964,0.18981
1778.04810,0.18592
1779.97657,0.18573
1781.90504,0.18560
1783.83351,0.18665
1785.76198,0.18797
1787.69045,0.18982
1789.61892,0.19637
1791.54738,0.20367
1793.47585,0.19963
1795.40432,0.19209
1797.33279,0.19105
1799.26126,0.19287
1801.18973,0.19053
1803.11820,0.18356
1805.04666,0.17864
1806.97513,0.17851
1808.90360,0.18252
1810.83207,0.18926
1812.76054,0.19380
1814.68901,0.19386
1816.61748,0.19686
1818.54595,0.21431
1820.47441,0.23500
1822.40288,0.23148
1824.33135,0.20699
1826.25982,0.19316
1828.18829,0.19819
1830.11676,0.20305
1832.04523,0.19483
1833.97369,0.18453
1835.90216,0.18244
1837.83063,0.18595
1839.75910,0.19007
1841.68757,0.19443
1843.61604,0.19685
1845.54451,0.19385
1847.47298,0.18960
1849.40144,0.18618
1851.32991,0.18301
1853.25838,0.18240
1855.18685,0.18374
1857.11532,0.18384
1859.04379,0.18391
1860.97226,0.18599
1862.90072,0.18818
1864.82919,0.19195
1866.75766,0.20042
1868.68613,0.20453
1870.61460,0.19677
1872.54307,0.18898
1874.47154,0.18573
1876.40001,0.18458
1878.32847,0.18420
1880.25694,0.18286
1882.18541,0.18152
1884.11388,0.18234
1886.04235,0.18502
1887.97082,0.18903
1889.89929,0.19119
1891.82775,0.19001
1893.75622,0.19099
1895.68469,0.19264
1897.61316,0.18809
1899.54163,0.18190
1901.47010,0.18149
1903.39857,0.18504
1905.32704,0.18860
1907.25550,0.19012
1909.18397,0.19016
1911.11244,0.19110
1913.04091,0.19193
1914.96938,0.19377
1916.89785,0.19814
1918.82632,0.20022
1920.75478,0.19871
1922.68325,0.19684
1924.61172,0.19422
1926.54019,0.19104
1928.46866,0.18701
1930.39713,0.18228
1932.32560,0.18127
1934.25407,0.18540
1936.18253,0.18889
1938.11100,0.18697
1940.03947,0.18475
1941.96794,0.18951
1943.89641,0.19570
1945.82488,0.19542
1947.75335,0.19152
1949.68181,0.18835
1951.61028,0.18652
1953.53875,0.18377
1955.46722,0.18052
1957.39569,0.18003
1959.32416,0.18215
1961.25263,0.18465
1963.18110,0.18717
1965.10956,0.18979
1967.03803,0.19162
1968.96650,0.19265
1970.89497,0.19469
1972.82344,0.19583
1974.75191,0.19067
1976.68038,0.18043
1978.60884,0.17363
1980.53731,0.17602
1982.46578,0.18390
1984.39425,0.18896
1986.32272,0.18922
1988.25119,0.18933
1990.17966,0.19137
1992.10812,0.19207
1994.03659,0.19030
1995.96506,0.18886
1997.89353,0.18854
1999.82200,0.18879
2001.75047,0.18832
2003.67894,0.18697
2005.60741,0.18739
2007.53587,0.18841
2009.46434,0.18772
2011.39281,0.18736
2013.32128,0.18920
2015.24975,0.19232
2017.17822,0.19211
2019.10669,0.18763
2021.03515,0.18530
2022.96362,0.18617
2024.89209,0.18687
2026.82056,0.18847
2028.74903,0.19000
2030.67750,0.18859
2032.60597,0.18729
2034.53444,0.18698
2036.46290,0.18576
2038.39137,0.18621
2040.31984,0.18916
2042.24831,0.19221
2044.17678,0.19378
2046.10525,0.19401
2048.03372,0.19321
2049.96218,0.19190
2051.89065,0.19168
2053.81912,0.19267
2055.74759,0.19429
2057.67606,0.19487
2059.60453,0.19263
2061.53300,0.18964
2063.46147,0.18776
2065.38993,0.18708
2067.31840,0.18762
2069.24687,0.18878
2071.17534,0.18978
2073.10381,0.18988
2075.03228,0.18954
2076.96075,0.19004
2078.88921,0.19122
2080.81768,0.19241
2082.74615,0.19249
2084.67462,0.19063
2086.60309,0.18907
2088.53156,0.18956
2090.46003,0.19047
2092.38850,0.19031
2094.31696,0.18914
2096.24543,0.18859
2098.17390,0.19024
2100.10237,0.19301
2102.03084,0.19462
2103.95931,0.19437
2105.88778,0.19377
2107.81624,0.19448
2109.74471,0.19677
2111.67318,0.19715
2113.60165,0.19324
2115.53012,0.19000
2117.45859,0.19092
2119.38706,0.19298
2121.31553,0.19330
2123.24399,0.19224
2125.17246,0.19129
2127.10093,0.19074
2129.02940,0.19125
2130.95787,0.19307
2132.88634,0.19018
2134.81481,0.17839
2136.74327,0.16678
2138.67174,0.16613
2140.60021,0.17572
2142.52868,0.18501
2144.45715,0.18878
2146.38562,0.19079
2148.31409,0.19051
2150.24255,0.19032
2152.17102,0.19464
2154.09949,0.19833
2156.02796,0.19795
2157.95643,0.19624
2159.88490,0.19440
2161.81337,0.19164
2163.74184,0.18982
2165.67030,0.19147
2167.59877,0.19335
2169.52724,0.19219
2171.45571,0.19079
2173.38418,0.19007
2175.31265,0.19002
2177.24112,0.19274
2179.16958,0.19536
2181.09805,0.19493
2183.02652,0.19284
2184.95499,0.19199
2186.88346,0.19337
2188.81193,0.19467
2190.74040,0.19508
2192.66887,0.19489
2194.59733,0.19431
2196.52580,0.19410
2198.45427,0.19495
2200.38274,0.19603
2202.31121,0.19511
2204.23968,0.19338
2206.16815,0.19315
2208.09661,0.19377
2210.02508,0.19486
2211.95355,0.19683
2213.88202,0.19702
2215.81049,0.19308
2217.73896,0.18858
2219.66743,0.18816
2221.59590,0.19129
2223.52436,0.19335
2225.45283,0.19187
2227.38130,0.19013
2229.30977,0.19099
2231.23824,0.19250
2233.16671,0.19307
2235.09518,0.19242
2237.02364,0.18957
2238.95211,0.18620
2240.88058,0.18751
2242.80905,0.19354
2244.73752,0.19739
2246.66599,0.19639
2248.59446,0.19392
2250.52293,0.19286
2252.45139,0.19147
2254.37986,0.18866
2256.30833,0.18938
2258.23680,0.19327
2260.16527,0.19452
2262.09374,0.19317
2264.02221,0.19136
2265.95067,0.19042
2267.87914,0.19163
2269.80761,0.19266
2271.73608,0.19143
2273.66455,0.19093
2275.59302,0.19274
2277.52149,0.19377
2279.44996,0.19280
2281.37842,0.19301
2283.30689,0.19660
2285.23536,0.19995
2287.16383,0.19852
2289.09230,0.19479
2291.02077,0.19221
2292.94924,0.19132
2294.87770,0.19224
2296.80617,0.19057
2298.73464,0.18676
2300.66311,0.18828
2302.59158,0.19391
2304.52005,0.19712
2306.44852,0.19463
2308.37699,0.19038
2310.30545,0.19112
2312.23392,0.19397
2314.16239,0.19316
2316.09086,0.18888
2318.01933,0.18478
2319.94780,0.18482
2321.87627,0.18810
2323.80473,0.18922
2325.73320,0.19081
2327.66167,0.20044
2329.59014,0.20816
2331.51861,0.20122
2333.44708,0.19619
2335.37555,0.20262
2337.30401,0.20291
2339.23248,0.19821
2341.16095,0.19991
2343.08942,0.19892
2345.01789,0.19651
2346.94636,0.20114
2348.87483,0.20377
2350.80330,0.20024
2352.73176,0.19748
2354.66023,0.19593
2356.58870,0.18992
2358.51717,0.19178
2360.44564,0.19870
2362.37411,0.20554
2364.30258,0.21818
2366.23104,0.21877
2368.15951,0.20331
2370.08798,0.19048
2372.01645,0.18418
2373.94492,0.18647
2375.87339,0.19475
2377.80186,0.19796
2379.73033,0.19489
2381.65879,0.19175
2383.58726,0.19293
2385.51573,0.19644
2387.44420,0.19796
2389.37267,0.19809
2391.30114,0.19840
2393.22961,0.19759
2395.15807,0.19484
2397.08654,0.19221
2399.01501,0.19155
2400.94348,0.19350
2402.87195,0.19752
2404.80042,0.19898
2406.72889,0.19664
2408.65736,0.19549
2410.58582,0.19736
2412.51429,0.20029
2414.44276,0.20170
2416.37123,0.20153
2418.29970,0.20161
2420.22817,0.20158
2422.15664,0.20146
2424.08510,0.20152
2426.01357,0.20132
2427.94204,0.20029
2429.87051,0.19869
2431.79898,0.19723
2433.72745,0.19410
2435.65592,0.19068
2437.58439,0.19004
2439.51285,0.18978
2441.44132,0.18879
2443.36979,0.18991
2445.29826,0.19240
2447.22673,0.19454
2449.15520,0.19598
2451.08367,0.18810
2453.01213,0.17027
2454.94060,0.16519
2456.86907,0.18057
2458.79754,0.19451
2460.72601,0.19717
2462.65448,0.19668
2464.58295,0.19531
2466.51142,0.19393
2468.43988,0.19369
2470.36835,0.19287
2472.29682,0.19347
2474.22529,0.19547
2476.15376,0.19445
2478.08223,0.19180
2480.01070,0.19182
2481.93916,0.19249
2483.86763,0.19238
2485.79610,0.19389
2487.72457,0.19649
2489.65304,0.19902
2491.58151,0.20086
2493.50998,0.20078
2495.43844,0.19910
2497.36691,0.19796
2499.29538,0.19821
2501.22385,0.19847
2503.15232,0.19906
2505.08079,0.20049
2507.00926,0.20067
2508.93773,0.19849
2510.86619,0.19693
2512.79466,0.19876
2514.72313,0.20166
2516.65160,0.20258
2518.58007,0.20111
2520.50854,0.19740
2522.43701,0.19504
2524.36547,0.19791
2526.29394,0.20073
2528.22241,0.19916
2530.15088,0.19695
2532.07935,0.19592
2534.00782,0.19776
2535.93629,0.20230
2537.86476,0.20234
2539.79322,0.19723
2541.72169,0.19500
2543.65016,0.19693
2545.57863,0.19852
2547.50710,0.19953
2549.43557,0.20159
2551.36404,0.20187
2553.29250,0.19810
2555.22097,0.19528
2557.14944,0.19698
2559.07791,0.20014
2561.00638,0.20252
2562.93485,0.20435
2564.86332,0.20569
2566.79179,0.20641
2568.72025,0.20554
2570.64872,0.20224
2572.57719,0.19942
2574.50566,0.20045
2576.43413,0.20391
2578.36260,0.20532
2580.29107,0.20216
2582.21953,0.19922
2584.14800,0.20038
2586.07647,0.20172
2588.00494,0.20260
2589.93341,0.20400
2591.86188,0.20235
2593.79035,0.19903
2595.71882,0.19934
2597.64728,0.20166
2599.57575,0.20104
2601.50422,0.19792
2603.43269,0.19602
2605.36116,0.19730
2607.28963,0.20151
2609.21810,0.20645
2611.14656,0.20740
2613.07503,0.20465
2615.00350,0.20450
2616.93197,0.20515
2618.86044,0.20216
2620.78891,0.19763
2622.71738,0.19428
2624.64585,0.19398
2626.57431,0.19588
2628.50278,0.19918
2630.43125,0.20391
2632.35972,0.20629
2634.28819,0.20557
2636.21666,0.20443
2638.14513,0.20368
2640.07359,0.20446
2642.00206,0.20522
2643.93053,0.20345
2645.85900,0.20116
2647.78747,0.20042
2649.71594,0.20183
2651.64441,0.20376
2653.57288,0.20368
2655.50134,0.20280
2657.42981,0.20219
2659.35828,0.20159
2661.28675,0.20071
2663.21522,0.19993
2665.14369,0.20136
2667.07216,0.20373
2669.00062,0.20334
2670.92909,0.20111
2672.85756,0.20160
2674.78603,0.20525
2676.71450,0.20694
2678.64297,0.20598
2680.57144,0.20606
2682.49990,0.20619
2684.42837,0.20536
2686.35684,0.20527
2688.28531,0.20631
2690.21378,0.20857
2692.14225,0.21104
2694.07072,0.21188
2695.99919,0.21023
2697.92765,0.20793
2699.85612,0.20893
2701.78459,0.21267
2703.71306,0.21522
2705.64153,0.21482
2707.57000,0.21123
2709.49847,0.20693
2711.42693,0.20633
2713.35540,0.20774
2715.28387,0.20773
2717.21234,0.20841
2719.14081,0.20900
2721.06928,0.20696
2722.99775,0.20585
2724.92622,0.20829
2726.85468,0.21064
2728.78315,0.21017
2730.71162,0.20895
2732.64009,0.20871
2734.56856,0.20863
2736.49703,0.20775
2738.42550,0.20623
2740.35396,0.20529
2742.28243,0.20759
2744.21090,0.21202
2746.13937,0.21279
2748.06784,0.21056
2749.99631,0.21083
2751.92478,0.21371
2753.85325,0.21454
2755.78171,0.21237
2757.71018,0.21210
2759.63865,0.21425
2761.56712,0.21454
2763.49559,0.21256
2765.42406,0.21085
2767.35253,0.20905
2769.28099,0.20579
2771.20946,0.20653
2773.13793,0.21408
2775.06640,0.21878
2776.99487,0.21730
2778.92334,0.21486
2780.85181,0.21114
2782.78028,0.20807
2784.70874,0.20833
2786.63721,0.20870
2788.56568,0.20849
2790.49415,0.21067
2792.42262,0.21346
2794.35109,0.21218
2796.27956,0.20915
2798.20802,0.20857
2800.13649,0.21055
2802.06496,0.21297
2803.99343,0.21311
2805.92190,0.21177
2807.85037,0.21206
2809.77884,0.21484
2811.70731,0.21862
2813.63577,0.21994
2815.56424,0.21571
2817.49271,0.20976
2819.42118,0.20892
2821.34965,0.21106
2823.27812,0.21199
2825.20659,0.21471
2827.13505,0.21852
2829.06352,0.21911
2830.99199,0.21859
2832.92046,0.21779
2834.84893,0.21652
2836.77740,0.21728
2838.70587,0.21832
2840.63433,0.21920
2842.56280,0.22250
2844.49127,0.22596
2846.41974,0.22478
2848.34821,0.21981
2850.27668,0.21550
2852.20515,0.21268
2854.13362,0.21080
2856.06208,0.21036
2857.99055,0.21303
2859.91902,0.21877
2861.84749,0.22101
2863.77596,0.21668
2865.70443,0.21297
2867.63290,0.21300
2869.56136,0.21407
2871.48983,0.21563
2873.41830,0.21659
2875.34677,0.21699
2877.27524,0.21801
2879.20371,0.21909
2881.13218,0.21708
2883.06065,0.20831
2884.98911,0.19957
2886.91758,0.20081
2888.84605,0.20683
2890.77452,0.20858
2892.70299,0.20845
2894.63146,0.20981
2896.55993,0.20981
2898.48839,0.20676
2900.41686,0.20588
2902.34533,0.21041
2904.27380,0.21063
2906.20227,0.20541
2908.13074,0.20686
2910.05921,0.21163
2911.98768,0.21103
2913.91614,0.20419
2915.84461,0.19384
2917.77308,0.19282
2919.70155,0.20311
2921.63002,0.21100
2923.55849,0.20927
2925.48696,0.19416
2927.41542,0.17833
2929.34389,0.18264
2931.27236,0.19956
2933.20083,0.20937
2935.12930,0.20254
2937.05777,0.18982
2938.98624,0.19315
2940.91471,0.20415
2942.84317,0.20536
2944.77164,0.19880
2946.70011,0.18757
2948.62858,0.18536
2950.55705,0.20007
2952.48552,0.21403
2954.41399,0.21089
2956.34245,0.18971
2958.27092,0.17551
2960.19939,0.18898
2962.12786,0.21140
2964.05633,0.22035
2965.98480,0.21074
2967.91327,0.19458
2969.84174,0.19468
2971.77020,0.20823
2973.69867,0.21670
2975.62714,0.21248
2977.55561,0.19596
2979.48408,0.18554
2981.41255,0.19551
2983.34102,0.21079
2985.26948,0.21242
2987.19795,0.19915
2989.12642,0.19163
2991.05489,0.20195
2992.98336,0.21466
2994.91183,0.21980
2996.84030,0.21874
2998.76877,0.21615
3000.69723,0.21588
3002.62570,0.21380
3004.55417,0.20953
3006.48264,0.20335
3008.41111,0.19145
3010.33958,0.16905
3012.26805,0.13167
3014.19651,0.08719
3016.12498,0.06215
3018.05345,0.08697
3019.98192,0.14824
3021.91039,0.19592
3023.83886,0.21427
3025.76733,0.21438
3027.69579,0.20349
3029.62426,0.19937
3031.55273,0.21237
3033.48120,0.22674
3035.40967,0.22641
3037.33814,0.21407
3039.26661,0.20660
3041.19508,0.21121
3043.12354,0.21723
3045.05201,0.21431
3046.98048,0.20389
3048.90895,0.20024
3050.83742,0.20770
3052.76589,0.21310
3054.69436,0.20480
3056.62282,0.19003
3058.55129,0.19328
3060.47976,0.21242
3062.40823,0.22231
3064.33670,0.21253
3066.26517,0.19427
3068.19364,0.19196
3070.12211,0.20640
3072.05057,0.21642
3073.97904,0.20930
3075.90751,0.19273
3077.83598,0.19293
3079.76445,0.21070
3081.69292,0.21813
3083.62139,0.20246
3085.54985,0.18618
3087.47832,0.19814
3089.40679,0.21963
3091.33526,0.21901
3093.26373,0.20043
3095.19220,0.18932
3097.12067,0.20062
3099.04914,0.21429
3100.97760,0.21035
3102.90607,0.19468
3104.83454,0.18780
3106.76301,0.19846
3108.69148,0.20753
3110.61995,0.20018
3112.54842,0.18766
3114.47688,0.19373
3116.40535,0.21420
3118.33382,0.22179
3120.26229,0.21020
3122.19076,0.19603
3124.11923,0.19905
3126.04770,0.21112
3127.97617,0.21120
3129.90463,0.20525
3131.83310,0.20973
3133.76157,0.22316
3135.69004,0.23105
3137.61851,0.22313
3139.54698,0.20850
3141.47545,0.20686
3143.40391,0.21399
3145.33238,0.21538
3147.26085,0.21453
3149.18932,0.22110
3151.11779,0.23094
3153.04626,0.23080
3154.97473,0.22237
3156.90320,0.21621
3158.83166,0.21744
3160.76013,0.22314
3162.68860,0.22341
3164.61707,0.21549
3166.54554,0.20989
3168.47401,0.21457
3170.40248,0.22123
3172.33094,0.22116
3174.25941,0.21762
3176.18788,0.21880
3178.11635,0.22663
3180.04482,0.23221
3181.97329,0.23159
3183.90176,0.22996
3185.83022,0.22964
3187.75869,0.23091
3189.68716,0.23271
3191.61563,0.23252
3193.54410,0.23070
3195.47257,0.22912
3197.40104,0.22802
3199.32951,0.22496
3201.25797,0.22099
3203.18644,0.22011
3205.11491,0.22202
3207.04338,0.22368
3208.97185,0.22371
3210.90032,0.22551
3212.82879,0.22776
3214.75725,0.22495
3216.68572,0.22181
3218.61419,0.22318
3220.54266,0.22601
3222.47113,0.22839
3224.39960,0.23076
3226.32807,0.23293
3228.25654,0.23374
3230.18500,0.23237
3232.11347,0.23064
3234.04194,0.23136
3235.97041,0.23280
3237.89888,0.22846
3239.82735,0.22183
3241.75582,0.22474
3243.68428,0.23313
3245.61275,0.23396
3247.54122,0.22813
3249.46969,0.22513
3251.39816,0.22555
3253.32663,0.22286
3255.25510,0.21834
3257.18357,0.21852
3259.11203,0.22256
3261.04050,0.22309
3262.96897,0.22058
3264.89744,0.22179
3266.82591,0.22549
3268.75438,0.22642
3270.68285,0.22546
3272.61131,0.22802
3274.53978,0.23516
3276.46825,0.24034
3278.39672,0.23595
3280.32519,0.22445
3282.25366,0.21671
3284.18213,0.21728
3286.11060,0.22249
3288.03906,0.22811
3289.96753,0.22798
3291.89600,0.22016
3293.82447,0.21644
3295.75294,0.22104
3297.68141,0.22349
3299.60988,0.22264
3301.53834,0.22375
3303.46681,0.22407
3305.39528,0.21946
3307.32375,0.21372
3309.25222,0.21440
3311.18069,0.21937
3313.10916,0.21942
3315.03763,0.21441
3316.96609,0.21237
3318.89456,0.21665
3320.82303,0.21787
3322.75150,0.21090
3324.67997,0.21134
3326.60844,0.22591
3328.53691,0.23736
3330.46537,0.23630
3332.39384,0.23154
3334.32231,0.22959
3336.25078,0.22857
3338.17925,0.22544
3340.10772,0.22240
3342.03619,0.22451
3343.96466,0.22815
3345.89312,0.22662
3347.82159,0.22281
3349.75006,0.22157
3351.67853,0.22116
3353.60700,0.21910
3355.53547,0.21570
3357.46394,0.21346
3359.39240,0.21532
3361.32087,0.21953
3363.24934,0.22399
3365.17781,0.22898
3367.10628,0.23399
3369.03475,0.23757
3370.96322,0.23771
3372.89168,0.23561
3374.82015,0.23066
3376.74862,0.22129
3378.67709,0.21609
3380.60556,0.22087
3382.53403,0.22527
3384.46250,0.22279
3386.39097,0.22230
3388.31943,0.22632
3390.24790,0.22649
3392.17637,0.22300
3394.10484,0.22251
3396.03331,0.22369
3397.96178,0.22248
3399.89025,0.21906
3401.81871,0.21521
3403.74718,0.21430
3405.67565,0.21548
3407.60412,0.21515
3409.53259,0.21497
3411.46106,0.21562
3413.38953,0.21254
3415.31800,0.20874
3417.24646,0.21378
3419.17493,0.22066
3421.10340,0.21740
3423.03187,0.21126
3424.96034,0.21114
3426.88881,0.21570
3428.81728,0.21983
3430.74574,0.21947
3432.67421,0.21895
3434.60268,0.22147
3436.53115,0.22083
3438.45962,0.21746
3440.38809,0.21890
3442.31656,0.22443
3444.24503,0.22510
3446.17349,0.21683
3448.10196,0.20897
3450.03043,0.20836
3451.95890,0.21011
3453.88737,0.21233
3455.81584,0.21296
3457.74431,0.20735
3459.67277,0.19835
3461.60124,0.19428
3463.52971,0.20132
3465.45818,0.21461
3467.38665,0.21888
3469.31512,0.21004
3471.24359,0.20227
3473.17206,0.20530
3475.10052,0.21224
3477.02899,0.21342
3478.95746,0.21042
3480.88593,0.20860
3482.81440,0.20624
3484.74287,0.20472
3486.67134,0.21020
3488.59980,0.21523
3490.52827,0.20989
3492.45674,0.20200
3494.38521,0.19837
3496.31368,0.19591
3498.24215,0.19357
3500.17062,0.19164
3502.09909,0.18875
3504.02755,0.18335
3505.95602,0.18020
3507.88449,0.18508
3509.81296,0.19015
3511.74143,0.18727
3513.66990,0.18361
3515.59837,0.18328
3517.52683,0.18187
3519.45530,0.18139
3521.38377,0.18673
3523.31224,0.19527
3525.24071,0.20204
3527.16918,0.20288
3529.09765,0.19600
3531.02611,0.18619
3532.95458,0.18294
3534.88305,0.18724
3536.81152,0.18719
3538.73999,0.18132
3540.66846,0.17857
3542.59693,0.17752
3544.52540,0.17610
3546.45386,0.17903
3548.38233,0.18452
3550.31080,0.18676
3552.23927,0.18528
3554.16774,0.17971
3556.09621,0.17349
3558.02468,0.17310
3559.95314,0.18045
3561.88161,0.18851
3563.81008,0.19069
3565.73855,0.19391
3567.66702,0.19524
3569.59549,0.18233
3571.52396,0.17076
3573.45243,0.16958
3575.38089,0.17201
3577.30936,0.17210
3579.23783,0.16949
3581.16630,0.16419
3583.09477,0.15896
3585.02324,0.15995
3586.95171,0.16545
3588.88017,0.16385
3590.80864,0.16220
3592.73711,0.16965
3594.66558,0.17688
3596.59405,0.17622
3598.52252,0.17297
3600.45099,0.16721
3602.37946,0.16213
3604.30792,0.16481
3606.23639,0.17213
3608.16486,0.17400
3610.09333,0.16934
3612.02180,0.17018
3613.95027,0.17411
3615.87874,0.17289
3617.80720,0.17039
3619.73567,0.16521
3621.66414,0.15610
3623.59261,0.15038
3625.52108,0.15192
3627.44955,0.16736
3629.37802,0.18328
3631.30649,0.16909
3633.23495,0.15085
3635.16342,0.14353
3637.09189,0.14174
3639.02036,0.14185
3640.94883,0.14299
3642.87730,0.14231
3644.80577,0.14411
3646.73423,0.15759
3648.66270,0.17488
3650.59117,0.17121
3652.51964,0.16064
3654.44811,0.15537
3656.37658,0.15143
3658.30505,0.14831
3660.23352,0.14930
3662.16198,0.15067
3664.09045,0.14842
3666.01892,0.14577
3667.94739,0.14884
3669.87586,0.15844
3671.80433,0.16500
3673.73280,0.16755
3675.66126,0.16001
3677.58973,0.14529
3679.51820,0.14058
3681.44667,0.13989
3683.37514,0.14012
3685.30361,0.14268
3687.23208,0.14804
3689.16055,0.15608
3691.08901,0.15244
3693.01748,0.13839
3694.94595,0.13098
3696.87442,0.13140
3698.80289,0.13348
3700.73136,0.13549
3702.65983,0.13719
3704.58829,0.13489
3706.51676,0.13333
3708.44523,0.14337
3710.37370,0.16070
3712.30217,0.15999
3714.23064,0.14542
3716.15911,0.13567
3718.08757,0.13277
3720.01604,0.13864
3721.94451,0.14873
3723.87298,0.14839
3725.80145,0.13658
3727.72992,0.12886
3729.65839,0.13243
3731.58686,0.14702
3733.51532,0.16572
3735.44379,0.16304
3737.37226,0.14345
3739.30073,0.13873
3741.22920,0.14856
3743.15767,0.16416
3745.08614,0.17229
3747.01460,0.16762
3748.94307,0.16380
3750.87154,0.15627
3752.80001,0.14165
3754.72848,0.13798
3756.65695,0.14770
3758.58542,0.15606
3760.51389,0.14633
3762.44235,0.13301
3764.37082,0.12993
3766.29929,0.13279
3768.22776,0.13684
3770.15623,0.13972
3772.08470,0.13833
3774.01317,0.13364
3775.94163,0.12842
3777.87010,0.12829
3779.79857,0.13623
3781.72704,0.14126
3783.65551,0.13614
3785.58398,0.12700
3787.51245,0.12247
3789.44092,0.12169
3791.36938,0.12187
3793.29785,0.12771
3795.22632,0.13969
3797.15479,0.14645
3799.08326,0.14522
3801.01173,0.14397
3802.94020,0.14167
3804.86866,0.13891
3806.79713,0.13694
3808.72560,0.13193
3810.65407,0.12442
3812.58254,0.11858
3814.51101,0.11933
3816.43948,0.12625
3818.36795,0.12898
3820.29641,0.12799
3822.22488,0.12748
3824.15335,0.12449
3826.08182,0.11802
3828.01029,0.11246
3829.93876,0.11465
3831.86723,0.12261
3833.79569,0.12820
3835.72416,0.13318
3837.65263,0.14364
3839.58110,0.14921
3841.50957,0.14198
3843.43804,0.13169
3845.36651,0.12689
3847.29498,0.12762
3849.22344,0.13063
3851.15191,0.13864
3853.08038,0.14871
3855.00885,0.13758
3856.93732,0.12562
3858.86579,0.12550
3860.79426,0.13303
3862.72272,0.14357
3864.65119,0.14490
3866.57966,0.13856
3868.50813,0.13892
3870.43660,0.13948
3872.36507,0.13140
3874.29354,0.12419
3876.22200,0.12149
3878.15047,0.12168
3880.07894,0.12369
3882.00741,0.12516
3883.93588,0.12665
3885.86435,0.12995
3887.79282,0.13133
3889.72129,0.12732
3891.64975,0.11967
3893.57822,0.11645
3895.50669,0.12245
3897.43516,0.13709
3899.36363,0.15326
3901.29210,0.15239
3903.22057,0.13195
3905.14903,0.11486
3907.07750,0.11324
3909.00597,0.11785
3910.93444,0.12073
3912.86291,0.12016
3914.79138,0.11815
3916.71985,0.11454
3918.64832,0.10872
3920.57678,0.10650
3922.50525,0.11064
3924.43372,0.11234
3926.36219,0.10610
3928.29066,0.10214
3930.21913,0.11086
3932.14760,0.12550
3934.07606,0.12686
3936.00453,0.11656
3937.93300,0.10824
3939.86147,0.10902
3941.78994,0.11844
3943.71841,0.12432
3945.64688,0.12221
3947.57535,0.12033
3949.50381,0.11430
3951.43228,0.10264
3953.36075,0.09535
3955.28922,0.09356
3957.21769,0.09591
3959.14616,0.09970
3961.07463,0.10063
3963.00309,0.10266
3964.93156,0.10490
3966.86003,0.09954
3968.78850,0.08995
3970.71697,0.08784
3972.64544,0.09520
3974.57391,0.10071
3976.50238,0.09783
3978.43084,0.09457
3980.35931,0.09629
3982.28778,0.09823
3984.21625,0.09719
3986.14472,0.09519
3988.07319,0.09580
3990.00166,0.09796
3991.93012,0.09643
3993.85859,0.09193
3995.78706,0.08942
3997.71553,0.09399
3999.64400,0.10379
4001.57247,0.10668
4003.50094,0.10065
4005.42941,0.09668
4007.35787,0.09911
4009.28634,0.10580
4011.21481,0.11130
4013.14328,0.11015
4015.07175,0.10701
4017.00022,0.10500
4018.92869,0.09853
4020.85715,0.09068
4022.78562,0.08952
4024.71409,0.09248
4026.64256,0.09505
4028.57103,0.09919
4030.49950,0.10025
4032.42797,0.09009
4034.35644,0.07752
4036.28490,0.07293
4038.21337,0.07266
4040.14184,0.07676
4042.07031,0.08560
4043.99878,0.09115
4045.92725,0.09221
4047.85572,0.09269
4049.78418,0.09293
4051.71265,0.09372
4053.64112,0.09395
4055.56959,0.09241
4057.49806,0.09149
4059.42653,0.09388
4061.35500,0.09677
4063.28346,0.09499
4065.21193,0.09256
4067.14040,0.09450
4069.06887,0.09477
4070.99734,0.08884
4072.92581,0.08266
4074.85428,0.08008
4076.78275,0.07992
4078.71121,0.08176
4080.63968,0.08107
4082.56815,0.07608
4084.49662,0.07483
4086.42509,0.08190
4088.35356,0.08977
4090.28203,0.09111
4092.21049,0.08865
4094.13896,0.08620
4096.06743,0.08355
4097.99590,0.08105
4099.92437,0.08150
4101.85284,0.08477
4103.78131,0.08739
4105.70978,0.08915
4107.63824,0.08852
4109.56671,0.08474
4111.49518,0.08120
4113.42365,0.07794
4115.35212,0.07452
4117.28059,0.07478
4119.20906,0.08160
4121.13752,0.08498
4123.06599,0.07799
4124.99446,0.07377
4126.92293,0.07575
4128.85140,0.07659
4130.77987,0.08120
4132.70834,0.08869
4134.63681,0.08713
4136.56527,0.07813
4138.49374,0.07273
4140.42221,0.07430
4142.35068,0.08111
4144.27915,0.08681
4146.20762,0.08571
4148.13609,0.08320
4150.06455,0.08318
4151.99302,0.07948
4153.92149,0.07190
4155.84996,0.06800
4157.77843,0.06695
4159.70690,0.06277
4161.63537,0.06024
4163.56384,0.06517
4165.49230,0.06926
4167.42077,0.06465
4169.34924,0.05672
4171.27771,0.05610
4173.20618,0.06211
4175.13465,0.06567
4177.06312,0.06514
4178.99158,0.06025
4180.92005,0.05280
4182.84852,0.05243
4184.77699,0.05983
4186.70546,0.06568
4188.63393,0.06742
4190.56240,0.06897
4192.49087,0.07501
4194.41933,0.08344
4196.34780,0.08325
4198.27627,0.07276
4200.20474,0.06297
4202.13321,0.06434
4204.06168,0.07341
4205.99015,0.07590
4207.91861,0.07011
4209.84708,0.06657
4211.77555,0.07082
4213.70402,0.07585
4215.63249,0.07345
4217.56096,0.07009
4219.48943,0.07201
4221.41789,0.07338
4223.34636,0.07040
4225.27483,0.06319
4227.20330,0.05537
4229.13177,0.05193
4231.06024,0.05048
4232.98871,0.04823
4234.91718,0.04177
4236.84564,0.03520
4238.77411,0.04146
4240.70258,0.05475
4242.63105,0.06235
4244.55952,0.06472
4246.48799,0.06176
4248.41646,0.05483
4250.34492,0.04988
4252.27339,0.04769
4254.20186,0.05079
4256.13033,0.05776
4258.05880,0.05859
4259.98727,0.05345
4261.91574,0.04921
4263.84421,0.04514
4265.77267,0.03881
4267.70114,0.03844
4269.62961,0.04657
4271.55808,0.05096
4273.48655,0.05187
4275.41502,0.05445
4277.34349,0.05498
4279.27195,0.05496
4281.20042,0.05533
4283.12889,0.05341
4285.05736,0.04819
4286.98583,0.04278
4288.91430,0.04608
4290.84277,0.05295
4292.77124,0.04778
4294.69970,0.03385
4296.62817,0.02690
4298.55664,0.02928
4300.48511,0.03221
4302.41358,0.03335
4304.34205,0.03116
4306.27052,0.02656
4308.19898,0.02571
4310.12745,0.02857
4312.05592,0.03214
4313.98439,0.03289
4315.91286,0.03224
4317.84133,0.03440
4319.76980,0.03769
4321.69827,0.04193
4323.62673,0.04411
4325.55520,0.03737
4327.48367,0.02847
4329.41214,0.03004
4331.34061,0.04132
4333.26908,0.04913
4335.19755,0.04232
4337.12601,0.03049
4339.05448,0.02746
4340.98295,0.02810
4342.91142,0.02663
4344.83989,0.02604
4346.76836,0.02812
4348.69683,0.03238
4350.62530,0.03518
4352.55376,0.03367
4354.48223,0.03458
4356.41070,0.03961
4358.33917,0.04248
4360.26764,0.04375
4362.19611,0.04624
4364.12458,0.04614
4366.05304,0.03389
4367.98151,0.01968
4369.90998,0.02075
4371.83845,0.02527
4373.76692,0.02241
4375.69539,0.01779
4377.62386,0.01482
4379.55232,0.01916
4381.48079,0.02939
4383.40926,0.03228
4385.33773,0.02636
4387.26620,0.02278
4389.19467,0.02430
4391.12314,0.02335
4393.05161,0.01759
4394.98007,0.01220
4396.90854,0.00984
4398.83701,0.00832
4400.76548,0.00920
4402.69395,0.01569
4404.62242,0.01945
4406.55089,0.01711
4408.47935,0.01768
4410.40782,0.01911
4412.33629,0.01746
4414.26476,0.01974
4416.19323,0.02413
4418.12170,0.02207
4420.05017,0.01704
4421.97864,0.01489
4423.90710,0.01133
4425.83557,0.00805
4427.76404,0.01199
4429.69251,0.01453
4431.62098,0.01104
4433.54945,0.01149
4435.47792,0.01553
4437.40638,0.01527
4439.33485,0.00891
4441.26332,0.00296
4443.19179,0.00138
4445.12026,0.00277
4447.04873,0.00996
4448.97720,0.01884
4450.90567,0.01998
4452.83413,0.01365
4454.76260,0.00756
4456.69107,0.00618
4458.61954,0.00513
4460.54801,0.00091
4462.47648,0.00041
4464.40495,0.00575
4466.33341,0.00692
4468.26188,0.00182
4470.19035,-0.00318
4472.11882,-0.00443
4474.04729,-0.00172
4475.97576,0.00163
4477.90423,0.00296
4479.83270,0.00034
4481.76116,-0.00315
4483.68963,0.00003
4485.61810,0.00987
4487.54657,0.02098
4489.47504,0.02731
4491.40351,0.02746
4493.33198,0.02746
4495.26044,0.02903
4497.18891,0.02528
4499.11738,0.01878
4501.04585,0.01647
4502.97432,0.01183
4504.90279,0.00533
4506.83126,0.00105
4508.75973,-0.00615
4510.68819,-0.00930
4512.61666,0.00030
4514.54513,0.00906
4516.47360,0.01049
4518.40207,0.01794
4520.33054,0.02657
4522.25901,0.02257
4524.18747,0.01206
4526.11594,0.00602
4528.04441,0.00889
4529.97288,0.01855
4531.90135,0.02423
4533.82982,0.02237
4535.75829,0.01813
4537.68676,0.00914
4539.61522,-0.00007
4541.54369,0.00338
4543.47216,0.01600
4545.40063,0.02091
4547.32910,0.01171
4549.25757,0.00209
4551.18604,0.00076
4553.11450,-0.00284
4555.04297,-0.01002
4556.97144,-0.00736
4558.89991,-0.00168
4560.82838,-0.00536
4562.75685,-0.00708
4564.68532,-0.00028
4566.61378,0.00586
4568.54225,0.01178
4570.47072,0.01938
4572.39919,0.01959
4574.32766,0.01438
4576.25613,0.01061
4578.18460,0.00528
4580.11307,0.00089
4582.04153,-0.00322
4583.97000,-0.01424
4585.89847,-0.02525
4587.82694,-0.02245
4589.75541,-0.00855
4591.68388,0.00175
4593.61235,0.00388
4595.54081,0.00494
4597.46928,0.00392
4599.39775,-0.00431
4601.32622,-0.00684
4603.25469,0.00415
4605.18316,0.01956
4607.11163,0.02712
4609.04010,0.01811
4610.96856,0.00537
4612.89703,0.00462
4614.82550,0.00721
4616.75397,0.00558
4618.68244,0.00427
4620.61091,0.00343
4622.53938,0.00117
4624.46784,-0.00058
4626.39631,-0.00208
4628.32478,-0.00097
4630.25325,0.00334
4632.18172,0.00477
4634.11019,0.00525
4636.03866,0.00921
4637.96713,0.01492
4639.89559,0.01781
4641.82406,0.01071
4643.75253,0.00283
4645.68100,0.00382
4647.60947,0.00160
4649.53794,-0.00525
4651.46641,-0.00826
4653.39487,-0.00834
4655.32334,-0.00415
4657.25181,0.00365
4659.18028,0.00849
4661.10875,0.00816
4663.03722,0.00417
4664.96569,0.00074
4666.89416,0.00619
4668.82262,0.01839
4670.75109,0.02348
4672.67956,0.02078
4674.60803,0.01247
4676.53650,-0.00161
4678.46497,-0.00956
4680.39344,-0.01276
4682.32190,-0.01833
4684.25037,-0.01842
4686.17884,-0.00890
4688.10731,0.00350
4690.03578,0.00794
4691.96425,0.00288
4693.89272,-0.00295
4695.82119,-0.00315
4697.74965,0.00263
4699.67812,0.01530
4701.60659,0.02551
4703.53506,0.02059
4705.46353,0.01406
4707.39200,0.01724
4709.32047,0.01761
4711.24893,0.00803
4713.17740,-0.00809
4715.10587,-0.01684
4717.03434,-0.01687
4718.96281,-0.02324
4720.89128,-0.02190
4722.81975,0.00260
4724.74821,0.02564
4726.67668,0.02193
4728.60515,-0.00135
4730.53362,-0.02089
4732.46209,-0.02312
4734.39056,-0.01205
4736.31903,0.00195
4738.24750,0.00468
4740.17596,-0.01086
4742.10443,-0.02480
4744.03290,-0.01750
4745.96137,-0.00153
4747.88984,0.00437
4749.81831,0.00670
4751.74678,0.01198
4753.67524,0.00985
4755.60371,0.00530
4757.53218,0.01416
4759.46065,0.02214
4761.38912,0.00807
4763.31759,-0.00501
4765.24606,0.00534
4767.17453,0.01993
4769.10299,0.02612
4771.03146,0.02442
4772.95993,0.01450
4774.88840,0.00647
4776.81687,0.00567
4778.74534,0.00846
4780.67381,0.00641
4782.60227,0.00280
4784.53074,0.00861
4786.45921,0.01307
4788.38768,0.01749
4790.31615,0.02297
4792.24462,0.00869
4794.17309,-0.01062
4796.10156,-0.00923
4798.03002,0.00468
4799.95849,0.01747
4801.88696,0.02158
4803.81543,0.01791
4805.74390,0.01500
4807.67237,0.01703
4809.60084,0.01770
4811.52930,0.01251
4813.45777,0.00950
4815.38624,0.00808
4817.31471,0.00594
4819.24318,0.00825
4821.17165,0.00449
4823.10012,-0.00794
4825.02859,-0.01103
4826.95705,0.00433
4828.88552,0.02830
4830.81399,0.03923
4832.74246,0.02603
4834.67093,-0.00249
4836.59940,-0.02694
4838.52787,-0.02564
4840.45633,-0.00294
4842.38480,0.00667
4844.31327,-0.00184
4846.24174,-0.00442
4848.17021,-0.00327
4850.09868,-0.00560
4852.02715,-0.00328
4853.95562,0.00219
4855.88408,0.00493
4857.81255,0.00532
4859.74102,0.00165
4861.66949,-0.00919
4863.59796,-0.01628
4865.52643,-0.00852
4867.45490,0.00826
4869.38336,0.01928
4871.31183,0.02077
4873.24030,0.01841
4875.16877,0.00683
4877.09724,-0.01092
4879.02571,-0.02028
4880.95418,-0.01206
4882.88265,0.01009
4884.81111,0.02594
4886.73958,0.03114
4888.66805,0.03509
4890.59652,0.02668
4892.52499,0.00715
4894.45346,0.00022
4896.38193,0.00621
4898.31039,0.01585
4900.23886,0.02448
4902.16733,0.01957
4904.09580,0.00737
4906.02427,0.00495
4907.95274,0.00628
4909.88121,0.00685
4911.80967,0.01354
4913.73814,0.01484
4915.66661,0.00297
4917.59508,-0.00129
4919.52355,0.00932
4921.45202,0.01913
4923.38049,0.01786
4925.30896,0.00716
4927.23742,-0.00061
4929.16589,0.00081
4931.09436,0.00643
4933.02283,0.00816
4934.95130,-0.00266
4936.87977,-0.02185
4938.80824,-0.03448
4940.73670,-0.02749
4942.66517,-0.00766
4944.59364,0.00867
4946.52211,0.01496
4948.45058,0.01802
4950.37905,0.02292
4952.30752,0.02281
4954.23599,0.01599
4956.16445,0.02090
4958.09292,0.03330
4960.02139,0.02547
4961.94986,0.01106
4963.87833,0.01759
4965.80680,0.02443
4967.73527,0.00745
4969.66373,-0.01840
4971.59220,-0.02872
4973.52067,-0.01438
4975.44914,0.00985
4977.37761,0.01906
4979.30608,0.01568
4981.23455,0.01414
4983.16302,0.01641
4985.09148,0.02047
4987.01995,0.02205
4988.94842,0.01810
4990.87689,0.01228
4992.80536,0.01177
4994.73383,0.01237
4996.66230,0.01464
4998.59076,0.03189
5000.51923,0.04316
5002.44770,0.02608
5004.37617,0.00674
5006.30464,0.00563
5008.23311,0.01056
5010.16158,0.01960
5012.09005,0.03383
5014.01851,0.03781
5015.94698,0.02810
5017.87545,0.02327
5019.80392,0.02994
5021.73239,0.02759
5023.66086,0.00358
5025.58933,-0.01846
5027.51779,-0.01244
5029.44626,0.01034
5031.37473,0.02381
5033.30320,0.02397
5035.23167,0.02550
5037.16014,0.02442
5039.08861,0.01096
5041.01708,0.00275
5042.94554,0.01551
5044.87401,0.02498
5046.80248,0.00145
5048.73095,-0.03721
5050.65942,-0.05425
5052.58789,-0.04549
5054.51636,-0.02230
5056.44482,0.00401
5058.37329,0.01625
5060.30176,0.01252
5062.23023,0.01277
5064.15870,0.01959
5066.08717,0.01139
5068.01564,-0.00538
5069.94410,0.00102
5071.87257,0.01729
5073.80104,0.01231
5075.72951,-0.00236
5077.65798,-0.00294
5079.58645,0.01391
5081.51492,0.02850
5083.44339,0.01775
5085.37185,-0.00626
5087.30032,-0.01256
5089.22879,-0.00148
5091.15726,0.00312
5093.08573,-0.00520
5095.01420,-0.01192
5096.94267,-0.00617
5098.87113,0.00347
5100.79960,0.00292
5102.72807,-0.00745
5104.65654,-0.01570
5106.58501,-0.01331
5108.51348,-0.00829
5110.44195,-0.00875
5112.37042,-0.00552
5114.29888,0.00630
5116.22735,0.01468
5118.15582,0.01534
5120.08429,0.01584
5122.01276,0.01485
5123.94123,0.01285
5125.86970,0.02191
5127.79816,0.04229
5129.72663,0.05224
5131.65510,0.03442
5133.58357,0.00581
5135.51204,-0.00210
5137.44051,0.01219
5139.36898,0.02360
5141.29745,0.02411
5143.22591,0.02737
5145.15438,0.03282
5147.08285,0.03023
5149.01132,0.02557
5150.93979,0.03017
5152.86826,0.04114
5154.79673,0.04557
5156.72519,0.02963
5158.65366,-0.00108
5160.58213,-0.02111
5162.51060,-0.01863
5164.43907,-0.00352
5166.36754,0.00694
5168.29601,0.01577
5170.22448,0.03933
5172.15294,0.06479
5174.08141,0.06532
5176.00988,0.04952
5177.93835,0.03773
5179.86682,0.02416
5181.79529,0.01313
5183.72376,0.01651
5185.65222,0.01434
5187.58069,0.00067
5189.50916,0.00358
5191.43763,0.02731
5193.36610,0.03958
5195.29457,0.02311
5197.22304,0.00576
5199.15151,0.01592
5201.07997,0.03791
5203.00844,0.04108
5204.93691,0.02166
5206.86538,0.00760
5208.79385,0.01129
5210.72232,0.01476
5212.65079,0.01603
5214.57925,0.02256
5216.50772,0.03310
5218.43619,0.02946
5220.36466,0.01632
5222.29313,0.02249
5224.22160,0.03725
5226.15007,0.04486
5228.07854,0.05046
5230.00700,0.04941
5231.93547,0.03744
5233.86394,0.02718
5235.79241,0.03222
5237.72088,0.04399
5239.64935,0.05169
5241.57782,0.05087
5243.50628,0.04035
5245.43475,0.03263
5247.36322,0.02702
5249.29169,0.02698
5251.22016,0.04514
5253.14863,0.05517
5255.07710,0.05183
5257.00556,0.06319
5258.93403,0.07176
5260.86250,0.05285
5262.79097,0.02829
5264.71944,0.02016
5266.64791,0.01365
5268.57638,0.01047
5270.50485,0.02854
5272.43331,0.04888
5274.36178,0.05061
5276.29025,0.04616
5278.21872,0.04764
5280.14719,0.04577
5282.07566,0.03210
5284.00413,0.01641
5285.93259,0.00795
5287.86106,0.01193
5289.78953,0.02528
5291.71800,0.02657
5293.64647,0.02542
5295.57494,0.04006
5297.50341,0.04553
5299.43188,0.03230
5301.36034,0.02077
5303.28881,0.01343
5305.21728,0.00558
5307.14575,0.01259
5309.07422,0.03384
5311.00269,0.03561
5312.93116,0.03154
5314.85962,0.05548
5316.78809,0.07365
5318.71656,0.05309
5320.64503,0.04139
5322.57350,0.06875
5324.50197,0.08208
5326.43044,0.05252
5328.35891,0.02927
5330.28737,0.03000
5332.21584,0.02989
5334.14431,0.03713
5336.07278,0.05590
5338.00125,0.05707
5339.92972,0.03661
5341.85819,0.02820
5343.78665,0.03593
5345.71512,0.03754
5347.64359,0.03789
5349.57206,0.04233
5351.50053,0.03978
5353.42900,0.04765
5355.35747,0.07657
5357.28594,0.08898
5359.21440,0.06398
5361.14287,0.02986
5363.07134,0.02021
5364.99981,0.02709
5366.92828,0.03705
5368.85675,0.04882
5370.78522,0.05513
5372.71368,0.06127
5374.64215,0.08063
5376.57062,0.09488
5378.49909,0.07444
5380.42756,0.04033
5382.35603,0.02287
5384.28450,0.02750
5386.21297,0.04377
5388.14143,0.05401
5390.06990,0.05636
5391.99837,0.05426
5393.92684,0.04242
5395.85531,0.03022
5397.78378,0.03441
5399.71225,0.05380
5401.64071,0.07587
5403.56918,0.10073
5405.49765,0.11619
5407.42612,0.09879
5409.35459,0.06995
5411.28306,0.04225
5413.21153,0.00876
5415.13999,0.01071
5417.06846,0.04613
5418.99693,0.07101
5420.92540,0.07698
5422.85387,0.06945
5424.78234,0.06349
5426.71081,0.07312
5428.63928,0.06344
5430.56774,0.02725
5432.49621,0.01479
5434.42468,0.03083
5436.35315,0.04433
5438.28162,0.04261
5440.21009,0.04453
5442.13856,0.05548
5444.06702,0.05670
5445.99549,0.05130
5447.92396,0.05113
5449.85243,0.06371
5451.78090,0.09105
5453.70937,0.11107
5455.63784,0.10099
5457.56631,0.06446
5459.49477,0.03829
5461.42324,0.04442
5463.35171,0.05916
5465.28018,0.06483
5467.20865,0.06238
5469.13712,0.05074
5471.06559,0.05199
5472.99405,0.08486
5474.92252,0.12350
5476.85099,0.12679
5478.77946,0.10036
5480.70793,0.06749
5482.63640,0.04127
5484.56487,0.02181
5486.49334,0.00217
5488.42180,0.00246
5490.35027,0.03697
5492.27874,0.07073
5494.20721,0.07121
5496.13568,0.05406
5498.06415,0.04838
5499.99262,0.07235
5501.92108,0.10189
5503.84955,0.10320
5505.77802,0.08486
5507.70649,0.06976
5509.63496,0.07128
5511.56343,0.08225
5513.49190,0.09857
5515.42037,0.10475
5517.34883,0.08182
5519.27730,0.06161
5521.20577,0.06395
5523.13424,0.06921
5525.06271,0.06539
5526.99118,0.06577
5528.91965,0.07877
5530.84811,0.09405
5532.77658,0.10499
5534.70505,0.08667
5536.63352,0.04076
5538.56199,0.01845
5540.49046,0.02285
5542.41893,0.01833
5544.34740,0.00882
5546.27586,0.01818
5548.20433,0.03935
5550.13280,0.04938
5552.06127,0.05806
5553.98974,0.08764
5555.91821,0.09494
5557.84668,0.04295
5559.77514,0.00422
5561.70361,0.02396
5563.63208,0.06522
5565.56055,0.10045
5567.48902,0.11251
5569.41749,0.10265
5571.34596,0.09173
5573.27443,0.06815
5575.20289,0.02916
5577.13136,0.01353
5579.05983,0.03197
5580.98830,0.04426
5582.91677,0.03040
5584.84524,0.02135
5586.77371,0.01314
5588.70217,-0.00925
5590.63064,-0.01426
5592.55911,0.00733
5594.48758,0.03078
5596.41605,0.05689
5598.34452,0.08112
5600.27299,0.07724
5602.20145,0.06378
5604.12992,0.06262
5606.05839,0.06008
5607.98686,0.06017
5609.91533,0.06685
5611.84380,0.06191
5613.77227,0.03411
5615.70074,0.00744
5617.62920,0.01454
5619.55767,0.04592
5621.48614,0.07570
5623.41461,0.09492
5625.34308,0.09840
5627.27155,0.08959
5629.20002,0.07747
5631.12848,0.07197
5633.05695,0.08009
5634.98542,0.08997
5636.91389,0.08665
5638.84236,0.07119
5640.77083,0.05621
5642.69930,0.05489
5644.62777,0.06864
5646.55623,0.07769
5648.48470,0.06484
5650.41317,0.06192
5652.34164,0.08661
5654.27011,0.09163
5656.19858,0.06521
5658.12705,0.03483
5660.05551,0.01333
5661.98398,0.01391
5663.91245,0.02756
5665.84092,0.04937
5667.76939,0.08614
5669.69786,0.11823
5671.62633,0.12823
5673.55480,0.11706
5675.48326,0.10538
5677.41173,0.10219
5679.34020,0.09106
5681.26867,0.08231
5683.19714,0.09034
5685.12561,0.09708
5687.05408,0.08550
5688.98254,0.06498
5690.91101,0.04538
5692.83948,0.03460
5694.76795,0.04121
5696.69642,0.05299
5698.62489,0.06788
5700.55336,0.08309
5702.48183,0.07800
5704.41029,0.06637
5706.33876,0.07086
5708.26723,0.08877
5710.19570,0.10516
5712.12417,0.09759
5714.05264,0.07642
5715.98111,0.07579
5717.90957,0.09162
5719.83804,0.09507
5721.76651,0.07872
5723.69498,0.06631
5725.62345,0.07106
5727.55192,0.07063
5729.48039,0.05845
5731.40886,0.06580
5733.33732,0.08607
5735.26579,0.08784
5737.19426,0.06537
5739.12273,0.02405
5741.05120,-0.01787
5742.97967,-0.04358
5744.90814,-0.03008
5746.83660,0.02551
5748.76507,0.06614
5750.69354,0.06578
5752.62201,0.05159
5754.55048,0.03318
5756.47895,0.02054
5758.40742,0.02504
5760.33588,0.01672
5762.26435,-0.00629
5764.19282,0.01177
5766.12129,0.06135
5768.04976,0.09800
5769.97823,0.11718
5771.90670,0.10691
5773.83517,0.06712
5775.76363,0.02923
5777.69210,0.03318
5779.62057,0.08146
5781.54904,0.09922
5783.47751,0.04629
5785.40598,0.00057
5787.33445,0.02938
5789.26291,0.07726
5791.19138,0.07788
5793.11985,0.05121
5795.04832,0.03211
5796.97679,0.03565
5798.90526,0.05744
5800.83373,0.06917
5802.76220,0.07211
5804.69066,0.08368
5806.61913,0.09605
5808.54760,0.10738
5810.47607,0.10150
5812.40454,0.05334
5814.33301,0.00281
5816.26148,-0.01161
5818.18994,-0.01480
5820.11841,-0.01616
5822.04688,0.01394
5823.97535,0.06724
5825.90382,0.10272
5827.83229,0.11295
5829.76076,0.10040
5831.68923,0.06335
5833.61769,0.03662
5835.54616,0.05259
5837.47463,0.09130
5839.40310,0.12571
5841.33157,0.13347
5843.26004,0.10226
5845.18851,0.06085
5847.11697,0.05721
5849.04544,0.09351
5850.97391,0.10331
5852.90238,0.06226
5854.83085,0.01732
5856.75932,0.00884
5858.68779,0.01408
5860.61626,-0.01826
5862.54472,-0.03961
5864.47319,0.00497
5866.40166,0.05449
5868.33013,0.08207
5870.25860,0.10013
5872.18707,0.06949
5874.11554,0.01073
5876.04400,-0.00743
5877.97247,0.01544
5879.90094,0.06426
5881.82941,0.11152
5883.75788,0.12213
5885.68635,0.09691
5887.61482,0.05098
5889.54329,0.03535
5891.47175,0.07553
5893.40022,0.13551
5895.32869,0.14893
5897.25716,0.08864
5899.18563,0.03708
5901.11410,0.04514
5903.04257,0.06457
5904.97103,0.06565
5906.89950,0.05430
5908.82797,0.04100
5910.75644,0.05341
5912.68491,0.07757
5914.61338,0.06316
5916.54185,0.02281
5918.47032,0.01026
5920.39878,0.04889
5922.32725,0.09841
5924.25572,0.11658
5926.18419,0.11037
5928.11266,0.09303
5930.04113,0.10307
5931.96960,0.14304
5933.89806,0.14542
5935.82653,0.12223
5937.75500,0.14242
5939.68347,0.19892
5941.61194,0.22294
5943.54041,0.15518
5945.46888,0.04851
5947.39734,-0.01432
5949.32581,-0.01694
5951.25428,0.03192
5953.18275,0.06567
5955.11122,0.06658
5957.03969,0.11069
5958.96816,0.15383
5960.89663,0.12662
5962.82509,0.10021
5964.75356,0.10140
5966.68203,0.09380
5968.61050,0.07225
5970.53897,0.02532
5972.46744,-0.02867
5974.39591,-0.00019
5976.32437,0.09220
5978.25284,0.12073
5980.18131,0.06696
5982.10978,0.00077
5984.03825,-0.03092
5985.96672,-0.00165
5987.89519,0.05691
5989.82366,0.07060
5991.75212,0.05146
5993.68059,0.06943
5995.60906,0.11025
5997.53753,0.09845
5999.46600,0.05920
6001.39447,0.05498
6003.32294,0.06778
6005.25140,0.05485
6007.17987,0.03857
6009.10834,0.05511
6011.03681,0.07491
6012.96528,0.06526
6014.89375,0.01957
6016.82222,-0.03244
6018.75069,-0.01980
6020.67915,0.04289
6022.60762,0.07608
6024.53609,0.05669
6026.46456,-0.00348
6028.39303,-0.07538
6030.32150,-0.09283
6032.24997,-0.04526
6034.17843,0.00233
6036.10690,0.04303
6038.03537,0.08597
6039.96384,0.10385
6041.89231,0.09693
6043.82078,0.08218
6045.74925,0.07695
6047.67772,0.06993
6049.60618,0.03944
6051.53465,-0.00431
6053.46312,-0.02359
6055.39159,0.01385
6057.32006,0.08043
6059.24853,0.12160
6061.17700,0.11746
6063.10546,0.09836
6065.03393,0.10579
6066.96240,0.13248
6068.89087,0.13983
6070.81934,0.08734
6072.74781,0.00607
6074.67628,-0.02143
6076.60475,0.00764
6078.53321,0.04342
6080.46168,0.07926
6082.39015,0.10509
6084.31862,0.09293
6086.24709,0.04776
6088.17556,0.02096
6090.10403,0.04824
6092.03249,0.06476
6093.96096,0.01708
6095.88943,-0.00554
6097.81790,0.05586
6099.74637,0.13506
6101.67484,0.15104
6103.60331,0.09702
6105.53177,0.05369
6107.46024,0.06909
6109.38871,0.08540
6111.31718,0.05862
6113.24565,0.01688
6115.17412,-0.02279
6117.10259,-0.04572
6119.03106,-0.03632
6120.95952,-0.00805
6122.88799,0.04795
6124.81646,0.11193
6126.74493,0.11598
6128.67340,0.08028
6130.60187,0.05522
6132.53034,0.01692
6134.45880,-0.01845
6136.38727,-0.01426
6138.31574,0.02009
6140.24421,0.07152
6142.17268,0.11943
6144.10115,0.13120
6146.02962,0.12268
6147.95809,0.12745
6149.88655,0.11972
6151.81502,0.07644
6153.74349,0.05546
6155.67196,0.08433
6157.60043,0.09098
6159.52890,0.02592
6161.45737,-0.02930
6163.38583,-0.01225
6165.31430,0.02019
6167.24277,0.05513
6169.17124,0.04491
6171.09971,-0.06862
6173.02818,-0.14874
6174.95665,-0.09429
6176.88512,0.01553
6178.81358,0.09714
6180.74205,0.12570
6182.67052,0.12015
6184.59899,0.08050
6186.52746,0.00212
6188.45593,-0.04151
6190.38440,-0.00730
6192.31286,0.05202
6194.24133,0.09813
6196.16980,0.09945
6198.09827,0.08166
6200.02674,0.11509
6201.95521,0.15313
6203.88368,0.11756
6205.81215,0.04573
6207.74061,-0.01008
6209.66908,-0.01682
6211.59755,0.04259
6213.52602,0.10453
6215.45449,0.15004
6217.38296,0.18351
6219.31143,0.18209
6221.23989,0.15558
6223.16836,0.11738
6225.09683,0.06253
6227.02530,0.00290
6228.95377,-0.03676
6230.88224,-0.03609
6232.81071,0.01904
6234.73918,0.08522
6236.66764,0.11329
6238.59611,0.12333
6240.52458,0.15056
6242.45305,0.16972
6244.38152,0.12296
6246.30999,0.05764
6248.23846,0.08151
6250.16692,0.17596
6252.09539,0.21172
6254.02386,0.18601
6255.95233,0.20960
6257.88080,0.23496
6259.80927,0.14306
6261.73774,0.01306
6263.66621,-0.02395
6265.59467,0.02450
6267.52314,0.07066
6269.45161,0.05907
6271.38008,0.03345
6273.30855,0.04355
6275.23702,0.07643
6277.16549,0.12126
6279.09395,0.13144
6281.02242,0.09282
6282.95089,0.06875
6284.87936,0.08611
6286.80783,0.13187
6288.73630,0.14864
6290.66477,0.12325
6292.59323,0.11033
6294.52170,0.07820
6296.45017,0.04490
6298.37864,0.08761
6300.30711,0.14554
6302.23558,0.12121
6304.16405,0.04481
6306.09252,-0.00471
6308.02098,-0.00482
6309.94945,0.01867
6311.87792,0.03151
6313.80639,0.03248
6315.73486,0.05943
6317.66333,0.11355
6319.59180,0.14288
6321.52026,0.11713
6323.44873,0.06587
6325.37720,0.02814
6327.30567,0.02795
6329.23414,0.08503
6331.16261,0.13403
6333.09108,0.11132
6335.01955,0.04481
6336.94801,-0.01454
6338.87648,-0.01225
6340.80495,0.02708
6342.73342,0.04349
6344.66189,0.08505
6346.59036,0.16109
6348.51883,0.14624
6350.44729,0.05186
6352.37576,0.03054
6354.30423,0.06958
6356.23270,0.07064
6358.16117,0.03141
6360.08964,-0.00141
6362.01811,-0.01914
6363.94658,-0.02304
6365.87504,0.00553
6367.80351,0.02496
6369.73198,-0.01255
6371.66045,-0.02285
6373.58892,0.02764
6375.51739,0.03440
6377.44586,0.01718
6379.37432,0.05182
6381.30279,0.12141
6383.23126,0.13840
6385.15973,0.05170
6387.08820,-0.03311
6389.01667,-0.04748
6390.94514,-0.03616
6392.87361,-0.03048
6394.80207,-0.01524
6396.73054,-0.03777
6398.65901,-0.04270
6400.58748,0.04537
6402.51595,0.07981
6404.44442,0.04538
6406.37289,0.07973
6408.30135,0.10503
6410.22982,0.02807
6412.15829,-0.05993
6414.08676,-0.08427
6416.01523,-0.09050
6417.94370,-0.09294
6419.87217,-0.06392
6421.80064,-0.02953
6423.72910,0.01297
6425.65757,0.07115
6427.58604,0.10232
6429.51451,0.09417
6431.44298,0.05567
6433.37145,0.01924
6435.29992,0.00889
6437.22838,-0.00562
6439.15685,0.02147
6441.08532,0.11970
6443.01379,0.17287
6444.94226,0.10439
6446.87073,-0.01128
6448.79920,-0.09602
6450.72766,-0.10760
6452.65613,-0.05107
6454.58460,0.01716
6456.51307,0.06298
6458.44154,0.10579
6460.37001,0.17089
6462.29848,0.21589
6464.22695,0.17214
6466.15541,0.07700
6468.08388,0.01990
6470.01235,0.00218
6471.94082,0.03430
6473.86929,0.14834
6475.79776,0.25891
6477.72623,0.26756
6479.65469,0.21172
6481.58316,0.17360
6483.51163,0.16945
6485.44010,0.15207
6487.36857,0.11617
6489.29704,0.11340
6491.22551,0.12023
6493.15398,0.05898
6495.08244,-0.01478
6497.01091,-0.00216
6498.93938,0.06523
6500.86785,0.08738
6502.79632,0.01629
6504.72479,-0.06743
6506.65326,-0.02833
6508.58172,0.08672
6510.51019,0.08425
6512.43866,-0.01402
6514.36713,-0.08153
6516.29560,-0.08276
6518.22407,-0.00180
6520.15254,0.06126
6522.08101,0.04302
6524.00947,-0.00416
6525.93794,-0.03572
6527.86641,-0.03547
6529.79488,-0.01493
6531.72335,0.01417
6533.65182,0.00852
6535.58029,-0.06045
6537.50875,-0.10502
6539.43722,-0.06012
6541.36569,0.00865
6543.29416,-0.00543
6545.22263,-0.04936
6547.15110,-0.03839
6549.07957,-0.04023
6551.00804,-0.07631
6552.93650,-0.07736
6554.86497,-0.02206
6556.79344,0.01173
6558.72191,-0.04120
6560.65038,-0.07035
6562.57885,-0.01162
6564.50732,0.03961
6566.43578,0.04013
6568.36425,0.02598
6570.29272,0.01618
6572.22119,-0.00446
6574.14966,-0.01132
6576.07813,0.02428
6578.00660,0.12359
6579.93507,0.15909
6581.86353,0.07695
6583.79200,0.01529
6585.72047,0.01486
6587.64894,0.02841
6589.57741,0.04881
6591.50588,0.02676
6593.43435,0.01077
6595.36281,0.03395
6597.29128,0.02295
6599.21975,-0.00893
6601.14822,-0.06750
6603.07669,-0.08441
6605.00516,-0.06080
6606.93363,-0.07987
6608.86210,-0.14830
6610.79056,-0.16777
6612.71903,-0.06960
6614.64750,0.07615
6616.57597,0.08797
6618.50444,-0.04540
6620.43291,-0.10805
6622.36138,-0.01686
6624.28984,0.07773
6626.21831,0.03569
6628.14678,-0.02635
6630.07525,0.00616
6632.00372,0.02725
6633.93219,0.01170
6635.86066,-0.01457
6637.78912,-0.08580
6639.71759,-0.13685
6641.64606,-0.09491
6643.57453,-0.01068
6645.50300,0.00495
6647.43147,-0.04401
6649.35994,-0.10207
6651.28841,-0.14563
6653.21687,-0.11345
6655.14534,0.03423
6657.07381,0.21595
6659.00228,0.26025
6660.93075,0.15315
6662.85922,0.07744
6664.78769,0.10557
6666.71615,0.12475
6668.64462,0.11870
6670.57309,0.18828
6672.50156,0.25786
6674.43003,0.20474
6676.35850,0.10251
6678.28697,0.01911
6680.21544,-0.00619
6682.14390,0.04471
6684.07237,0.08677
6686.00084,0.03069
6687.92931,-0.08362
6689.85778,-0.10324
6691.78625,0.00118
6693.71472,0.08505
6695.64318,0.08354
6697.57165,0.06828
6699.50012,0.07207
6701.42859,0.01833
6703.35706,-0.04832
6705.28553,-0.03290
6707.21400,0.06465
6709.14247,0.19741
6711.07093,0.25324
6712.99940,0.21131
6714.92787,0.17956
6716.85634,0.16084
6718.78481,0.05247
6720.71328,-0.05468
6722.64175,-0.01561
6724.57021,0.08365
6726.49868,0.13376
6728.42715,0.11199
6730.35562,0.05518
6732.28409,0.02208
6734.21256,-0.02586
6736.14103,-0.09127
6738.06950,-0.10695
6739.99796,-0.08381
6741.92643,-0.01927
6743.85490,0.08564
6745.78337,0.16054
6747.71184,0.19832
6749.64031,0.21846
6751.56878,0.17155
6753.49724,0.05034
6755.42571,-0.01352
6757.35418,0.00976
6759.28265,-0.03052
6761.21112,-0.12266
6763.13959,-0.11806
6765.06806,-0.03411
6766.99653,0.05969
6768.92499,0.09403
6770.85346,0.08654
6772.78193,0.09917
6774.71040,0.07915
6776.63887,0.00075
6778.56734,0.00937
6780.49581,0.09365
6782.42427,0.06866
6784.35274,-0.01399
6786.28121,0.02053
6788.20968,0.11345
6790.13815,0.13592
6792.06662,0.17071
6793.99509,0.28764
6795.92355,0.28642
6797.85202,0.15082
6799.78049,0.05306
6801.70896,-0.00730
6803.63743,-0.04520
6805.56590,-0.01256
6807.49437,0.05923
6809.42284,0.11913
6811.35130,0.07431
6813.27977,-0.04084
6815.20824,-0.04683
6817.13671,0.01491
6819.06518,0.05668
6820.99365,0.09180
6822.92212,0.10732
6824.85058,0.10304
6826.77905,0.07949
6828.70752,0.07196
6830.63599,0.10489
6832.56446,0.08080
6834.49293,0.00572
6836.42140,0.00798
6838.34987,0.02679
6840.27833,-0.00677
6842.20680,0.04641
6844.13527,0.17116
6846.06374,0.18930
6847.99221,0.10167
6849.92068,0.11501
6851.84915,0.21296
6853.77761,0.23074
6855.70608,0.16486
6857.63455,0.08144
6859.56302,0.02953
6861.49149,0.05036
6863.41996,0.14072
6865.34843,0.22460
6867.27690,0.21023
6869.20536,0.07271
6871.13383,-0.09958
6873.06230,-0.18723
6874.99077,-0.12505
6876.91924,0.04450
6878.84771,0.16911
6880.77618,0.08963
6882.70464,-0.03839
6884.63311,-0.07719
6886.56158,-0.06876
6888.49005,-0.02977
6890.41852,-0.01545
6892.34699,-0.03435
6894.27546,-0.01248
6896.20393,0.03084
6898.13239,0.05354
6900.06086,0.03008
6901.98933,-0.03490
6903.91780,-0.06164
6905.84627,0.00644
6907.77474,0.05362
6909.70321,-0.01172
6911.63167,-0.08994
6913.56014,-0.04033
6915.48861,0.07603
6917.41708,0.01186
6919.34555,-0.12793
6921.27402,-0.08695
6923.20249,0.00493
6925.13096,0.05385
6927.05942,0.10380
6928.98789,0.13656
6930.91636,0.14231
6932.84483,0.12138
6934.77330,0.07317
6936.70177,0.06499
6938.63024,0.07921
6940.55870,0.03412
6942.48717,0.01222
6944.41564,0.03275
6946.34411,0.01536
6948.27258,-0.01916
6950.20105,0.00456
6952.12952,0.10373
6954.05799,0.17692
6955.98645,0.14665
6957.91492,0.11357
6959.84339,0.09394
6961.77186,0.07819
6963.70033,0.09626
6965.62880,0.13178
6967.55727,0.23200
6969.48573,0.38418
6971.41420,0.39058
6973.34267,0.12783
6975.27114,-0.16338
6977.19961,-0.22988
6979.12808,-0.21330
6981.05655,-0.17527
6982.98501,-0.07309
6984.91348,0.08617
6986.84195,0.21919
6988.77042,0.18799
6990.69889,0.11256
6992.62736,0.12955
6994.55583,0.10176
6996.48430,-0.03965
6998.41276,-0.11761
7000.34123,-0.07375
7002.26970,-0.04648
7004.19817,-0.01916
7006.12664,0.01613
7008.05511,0.01771
7009.98358,0.02416
7011.91204,-0.01911
7013.84051,-0.12117
7015.76898,-0.12297
7017.69745,-0.02533
7019.62592,0.07068
7021.55439,0.10608
7023.48286,0.06324
7025.41133,0.02743
7027.33979,0.04693
7029.26826,0.10939
7031.19673,0.22988
7033.12520,0.27222
7035.05367,0.12942
7036.98214,0.01356
7038.91061,0.07301
7040.83907,0.15937
7042.76754,0.12156
7044.69601,0.03002
7046.62448,-0.05388
7048.55295,-0.11449
7050.48142,-0.10875
7052.40989,-0.03857
7054.33836,0.07703
7056.26682,0.17017
7058.19529,0.22647
7060.12376,0.23200
7062.05223,0.18503
7063.98070,0.15835
7065.90917,0.18227
7067.83764,0.22685
7069.76610,0.20875
7071.69457,0.07139
7073.62304,0.00868
7075.55151,0.07829
7077.47998,0.08994
7079.40845,0.00134
7081.33692,-0.01368
7083.26539,0.08076
7085.19385,0.07702
7087.12232,-0.05863
7089.05079,-0.13552
7090.97926,-0.05595
7092.90773,0.04460
7094.83620,0.04507
7096.76467,-0.00697
7098.69313,-0.05473
7100.62160,-0.01501
7102.55007,0.17301
7104.47854,0.33239
7106.40701,0.28621
7108.33548,0.16616
7110.26395,0.11331
7112.19242,0.11311
7114.12088,0.12743
7116.04935,0.10333
7117.97782,-0.01251
7119.90629,-0.12296
7121.83476,-0.13095
7123.76323,-0.10381
7125.69170,-0.03303
7127.62016,0.13014
7129.54863,0.25349
7131.47710,0.26457
7133.40557,0.26632
7135.33404,0.21107
7137.26251,0.05223
7139.19098,0.03154
7141.11944,0.23260
7143.04791,0.31085
7144.97638,0.13960
7146.90485,0.04273
7148.83332,0.09423
7150.76179,0.12043
7152.69026,0.15919
7154.61873,0.26374
7156.54719,0.32297
7158.47566,0.27430
7160.40413,0.18556
7162.33260,0.13419
7164.26107,0.14682
7166.18954,0.15537
7168.11801,0.07132
7170.04647,0.03748
7171.97494,0.12221
7173.90341,0.16172
7175.83188,0.20193
7177.76035,0.33509
7179.68882,0.49430
7181.61729,0.59114
7183.54576,0.44513
7185.47422,0.17076
7187.40269,0.07452
7189.33116,0.03785
7191.25963,-0.10804
7193.18810,-0.15309
7195.11657,0.02471
7197.04504,0.18550
7198.97350,0.16562
7200.90197,0.09943
7202.83044,0.13430
7204.75891,0.20432
7206.68738,0.13893
7208.61585,0.07393
7210.54432,0.08248
7212.47279,0.15653
7214.40125,0.28275
7216.32972,0.33450
7218.25819,0.14181
7220.18666,-0.15616
7222.11513,-0.26133
7224.04360,-0.19559
7225.97207,-0.06466
7227.90053,0.07486
7229.82900,0.16639
7231.75747,0.15096
7233.68594,0.09662
7235.61441,0.07627
7237.54288,0.08005
7239.47135,0.02794
7241.39982,-0.10951
7243.32828,-0.26164
7245.25675,-0.31448
7247.18522,-0.18509
7249.11369,0.05791
7251.04216,0.26364
7252.97063,0.38096
7254.89910,0.36236
7256.82756,0.23006
7258.75603,0.03060
7260.68450,-0.13789
7262.61297,-0.11890
7264.54144,-0.06829
7266.46991,-0.08297
7268.39838,-0.02192
7270.32685,0.16051
7272.25531,0.22777
7274.18378,0.10621
7276.11225,0.15118
7278.04072,0.32813
7279.96919,0.33456
7281.89766,0.13733
7283.82613,-0.00779
7285.75459,-0.02530
7287.68306,0.07545
7289.61153,0.20327
7291.54000,0.19235
7293.46847,0.17880
7295.39694,0.25287
7297.32541,0.25042
7299.25387,0.12770
7301.18234,0.03606
7303.11081,0.01910
7305.03928,0.00364
7306.96775,0.03200
7308.89622,0.03788
7310.82469,-0.06899
7312.75316,-0.10636
7314.68162,-0.06100
7316.61009,-0.01719
7318.53856,0.11555
7320.46703,0.35228
7322.39550,0.41125
7324.32397,0.27664
7326.25244,0.15655
7328.18090,0.07501
7330.10937,0.04554
7332.03784,0.07541
7333.96631,0.20350
7335.89478,0.39082
7337.82325,0.46820
7339.75172,0.25345
7341.68019,-0.05592
7343.60865,-0.18487
7345.53712,-0.16933
7347.46559,-0.11873
7349.39406,-0.12911
7351.32253,0.00758
7353.25100,0.18322
7355.17947,0.14521
7357.10793,0.03755
7359.03640,0.12002
7360.96487,0.29499
7362.89334,0.24423
7364.82181,0.04855
7366.75028,-0.12212
7368.67875,-0.20049
7370.60722,-0.10366
7372.53568,0.03567
7374.46415,0.07031
7376.39262,0.01321
7378.32109,-0.06059
7380.24956,-0.14495
7382.17803,-0.18775
7384.10650,-0.18911
7386.03496,-0.12257
7387.96343,-0.02092
7389.89190,-0.03068
7391.82037,-0.08221
7393.74884,-0.04010
7395.67731,0.13759
7397.60578,0.32017
7399.53425,0.37821
7401.46271,0.30886
7403.39118,0.10527
7405.31965,-0.12608
7407.24812,-0.30628
7409.17659,-0.47147
7411.10506,-0.46137
7413.03353,-0.26203
7414.96199,-0.10574
7416.89046,-0.09202
7418.81893,-0.10117
7420.74740,0.08932
7422.67587,0.37447
7424.60434,0.49291
7426.53281,0.48590
7428.46128,0.48049
7430.38974,0.40208
7432.31821,0.34949
7434.24668,0.41230
7436.17515,0.38447
7438.10362,0.35240
7440.03209,0.46326
7441.96056,0.45217
7443.88902,0.29386
7445.81749,0.13638
7447.74596,-0.10267
7449.67443,-0.27396
7451.60290,-0.12236
7453.53137,0.18258
7455.45984,0.35579
7457.38831,0.32678
7459.31677,0.22673
7461.24524,0.19836
7463.17371,0.10181
7465.10218,-0.04185
7467.03065,-0.15325
7468.95912,-0.28318
7470.88759,-0.37248
7472.81605,-0.37901
7474.74452,-0.28620
7476.67299,0.01625
7478.60146,0.25647
7480.52993,0.12644
7482.45840,-0.00901
7484.38687,0.04102
7486.31533,0.14347
7488.24380,0.17209
7490.17227,0.05833
7492.10074,-0.06298
7494.02921,-0.12842
7495.95768,-0.16776
7497.88615,-0.19178
