399.19301,1.20910
401.12148,-0.38243
403.04995,-0.26886
404.97842,-0.25901
406.90689,-0.23486
408.83536,-0.02284
410.76382,0.20974
412.69229,0.28662
414.62076,0.29262
416.54923,0.22179
418.47770,-0.01886
420.40617,-0.20135
422.33464,-0.11577
424.26311,0.04538
426.19157,0.13522
428.12004,0.16049
430.04851,0.16107
431.97698,0.14318
433.90545,0.14145
435.83392,0.09871
437.76239,0.03955
439.69085,0.07299
441.61932,0.17152
443.54779,0.21659
445.47626,0.20726
447.40473,0.21447
449.33320,0.23056
451.26167,0.20263
453.19013,0.13093
455.11860,0.09120
457.04707,0.07673
458.97554,0.03511
460.90401,0.04487
462.83248,0.06717
464.76095,0.02173
466.68942,-0.04329
468.61788,-0.06669
470.54635,-0.06223
472.47482,-0.02770
474.40329,0.06841
476.33176,0.08292
478.26023,0.02967
480.18870,0.03192
482.11716,0.09929
484.04563,0.11788
485.97410,0.04476
487.90257,0.00568
489.83104,0.03917
491.75951,0.02986
493.68798,-0.01937
495.61645,0.01640
497.54491,0.09033
499.47338,0.09378
501.40185,0.05947
503.33032,0.04934
505.25879,0.06907
507.18726,0.08970
509.11573,0.06850
511.04419,0.03668
512.97266,0.03968
514.90113,0.04625
516.82960,0.02592
518.75807,0.01979
520.68654,0.05592
522.61501,0.10722
524.54348,0.13884
526.47194,0.13901
528.40041,0.09365
530.32888,-0.00131
532.25735,-0.08036
534.18582,-0.09427
536.11429,-0.08858
538.04276,-0.07606
539.97122,-0.02292
541.89969,0.02970
543.82816,0.02248
545.75663,-0.01985
547.68510,-0.06094
549.61357,-0.10635
551.54204,-0.13192
553.47051,-0.14576
555.39897,-0.14789
557.32744,-0.06319
559.25591,0.06167
561.18438,0.10112
563.11285,0.09460
565.04132,0.10725
566.96979,0.13169
568.89825,0.10845
570.82672,0.05279
572.75519,0.03797
574.68366,0.07067
576.61213,0.09186
578.54060,0.06357
580.46907,0.01529
582.39754,0.00841
584.32600,0.04984
586.25447,0.07819
588.18294,0.07366
590.11141,0.08000
592.03988,0.10214
593.96835,0.09446
595.89682,0.05953
597.82528,0.04222
599.75375,0.05237
601.68222,0.06454
603.61069,0.06247
605.53916,0.05882
607.46763,0.06043
609.39610,0.05543
611.32456,0.05133
613.25303,0.05916
615.18150,0.07299
617.10997,0.09100
619.03844,0.10561
620.96691,0.10719
622.89538,0.09554
624.82385,0.07179
626.75231,0.04834
628.68078,0.05118
630.60925,0.07563
632.53772,0.08430
634.46619,0.06896
636.39466,0.05311
638.32313,0.06668
640.25159,0.11053
642.18006,0.13818
644.10853,0.14244
646.03700,0.14464
647.96547,0.13435
649.89394,0.11122
651.82241,0.09648
653.75088,0.09446
655.67934,0.09734
657.60781,0.10437
659.53628,0.10535
661.46475,0.08993
663.39322,0.07718
665.32169,0.09245
667.25016,0.14031
669.17862,0.14610
671.10709,0.08844
673.03556,0.05329
674.96403,0.05357
676.89250,0.07503
678.82097,0.09326
680.74944,0.09724
682.67791,0.09319
684.60637,0.09495
686.53484,0.10314
688.46331,0.10309
690.39178,0.09860
692.32025,0.09393
694.24872,0.08240
696.17719,0.07772
698.10565,0.08723
700.03412,0.09224
701.96259,0.09005
703.89106,0.08989
705.81953,0.09649
707.74800,0.10418
709.67647,0.10202
711.60494,0.09389
713.53340,0.07685
715.46187,0.05786
717.39034,0.05470
719.31881,0.06022
721.24728,0.06951
723.17575,0.08039
725.10422,0.08631
727.03268,0.09209
728.96115,0.09623
730.88962,0.09085
732.81809,0.07816
734.74656,0.07149
736.67503,0.08220
738.60350,0.10181
740.53197,0.11568
742.46043,0.12192
744.38890,0.12053
746.31737,0.11501
748.24584,0.11182
750.17431,0.10349
752.10278,0.08964
754.03125,0.08813
755.95971,0.09757
757.88818,0.10170
759.81665,0.10174
761.74512,0.10124
763.67359,0.09833
765.60206,0.09987
767.53053,0.10772
769.45900,0.11026
771.38746,0.10314
773.31593,0.09743
775.24440,0.10540
777.17287,0.12008
779.10134,0.12526
781.02981,0.12109
782.95828,0.11224
784.88674,0.10599
786.81521,0.11000
788.74368,0.11671
790.67215,0.11483
792.60062,0.10374
794.52909,0.09221
796.45756,0.09076
798.38602,0.10304
800.31449,0.11977
802.24296,0.12121
804.17143,0.09727
806.09990,0.07311
808.02837,0.07964
809.95684,0.10148
811.88531,0.10947
813.81377,0.10025
815.74224,0.08997
817.67071,0.09142
819.59918,0.09817
821.52765,0.10010
823.45612,0.09856
825.38459,0.10448
827.31305,0.11340
829.24152,0.11721
831.16999,0.11919
833.09846,0.11054
835.02693,0.09205
836.95540,0.08204
838.88387,0.08443
840.81234,0.09233
842.74080,0.10202
844.66927,0.10705
846.59774,0.10186
848.52621,0.09636
850.45468,0.10034
852.38315,0.10384
854.31162,0.10126
856.24008,0.10334
858.16855,0.11185
860.09702,0.11880
862.02549,0.12011
863.95396,0.11164
865.88243,0.09732
867.81090,0.09123
869.73937,0.09611
871.66783,0.10824
873.59630,0.11995
875.52477,0.12377
877.45324,0.12302
879.38171,0.11526
881.31018,0.10283
883.23865,0.09254
885.16711,0.08480
887.09558,0.08396
889.02405,0.08852
890.95252,0.09238
892.88099,0.09685
894.80946,0.10816
896.73793,0.11815
898.66640,0.11339
900.59486,0.10305
902.52333,0.09885
904.45180,0.09964
906.38027,0.10336
908.30874,0.10729
910.23721,0.11652
912.16568,0.13408
914.09414,0.14119
916.02261,0.13354
917.95108,0.12529
919.87955,0.11606
921.80802,0.11007
923.73649,0.11698
925.66496,0.12540
927.59343,0.12711
929.52189,0.12939
931.45036,0.12597
933.37883,0.11567
935.30730,0.11125
937.23577,0.11382
939.16424,0.11933
941.09271,0.12348
943.02117,0.12408
944.94964,0.12319
946.87811,0.11900
948.80658,0.10973
950.73505,0.10256
952.66352,0.10273
954.59199,0.10553
956.52045,0.10766
958.44892,0.11268
960.37739,0.11955
962.30586,0.11852
964.23433,0.10969
966.16280,0.10484
968.09127,0.10929
970.01974,0.11168
971.94820,0.10143
973.87667,0.09501
975.80514,0.10983
977.73361,0.13454
979.66208,0.14728
981.59055,0.14274
983.51902,0.13555
985.44748,0.13649
987.37595,0.13500
989.30442,0.12440
991.23289,0.11631
993.16136,0.11262
995.08983,0.11172
997.01830,0.12127
998.94677,0.13182
1000.87523,0.12881
1002.80370,0.12565
1004.73217,0.13114
1006.66064,0.13286
1008.58911,0.12560
1010.51758,0.11268
1012.44605,0.10598
1014.37451,0.11123
1016.30298,0.11832
1018.23145,0.12333
1020.15992,0.12951
1022.08839,0.12765
1024.01686,0.12927
1025.94533,0.15949
1027.87380,0.19176
1029.80226,0.19306
1031.73073,0.15967
1033.65920,0.12135
1035.58767,0.11901
1037.51614,0.13163
1039.44461,0.12899
1041.37308,0.11881
1043.30154,0.11287
1045.23001,0.11706
1047.15848,0.12755
1049.08695,0.13843
1051.01542,0.13720
1052.94389,0.11883
1054.87236,0.10287
1056.80083,0.10403
1058.72929,0.11372
1060.65776,0.12056
1062.58623,0.12453
1064.51470,0.12977
1066.44317,0.13727
1068.37164,0.14224
1070.30011,0.14262
1072.22857,0.14092
1074.15704,0.13558
1076.08551,0.12846
1078.01398,0.12766
1079.94245,0.13260
1081.87092,0.13374
1083.79939,0.12457
1085.72786,0.11313
1087.65632,0.11134
1089.58479,0.11528
1091.51326,0.12229
1093.44173,0.13336
1095.37020,0.13980
1097.29867,0.13349
1099.22714,0.11970
1101.15560,0.11712
1103.08407,0.13671
1105.01254,0.16237
1106.94101,0.17093
1108.86948,0.16209
1110.79795,0.15349
1112.72642,0.15542
1114.65489,0.16063
1116.58335,0.15523
1118.51182,0.14079
1120.44029,0.13447
1122.36876,0.13696
1124.29723,0.13829
1126.22570,0.14093
1128.15417,0.14140
1130.08263,0.13518
1132.01110,0.12959
1133.93957,0.12752
1135.86804,0.12616
1137.79651,0.12415
1139.72498,0.12602
1141.65345,0.13425
1143.58191,0.14122
1145.51038,0.14278
1147.43885,0.14112
1149.36732,0.13742
1151.29579,0.13769
1153.22426,0.14257
1155.15273,0.14394
1157.08120,0.14436
1159.00966,0.14590
1160.93813,0.14229
1162.86660,0.13680
1164.79507,0.13558
1166.72354,0.13650
1168.65201,0.13712
1170.58048,0.13750
1172.50894,0.13656
1174.43741,0.13431
1176.36588,0.13479
1178.29435,0.14039
1180.22282,0.14398
1182.15129,0.14316
1184.07976,0.14195
1186.00823,0.13597
1187.93669,0.13156
1189.86516,0.13731
1191.79363,0.14374
1193.72210,0.14527
1195.65057,0.14483
1197.57904,0.14499
1199.50751,0.14549
1201.43597,0.14475
1203.36444,0.14300
1205.29291,0.14138
1207.22138,0.14265
1209.14985,0.14512
1211.07832,0.14536
1213.00679,0.14444
1214.93526,0.14508
1216.86372,0.14731
1218.79219,0.14607
1220.72066,0.14209
1222.64913,0.14288
1224.57760,0.14645
1226.50607,0.14666
1228.43454,0.14593
1230.36300,0.14718
1232.29147,0.14895
1234.21994,0.14853
1236.14841,0.14479
1238.07688,0.14139
1240.00535,0.14158
1241.93382,0.14164
1243.86229,0.13619
1245.79075,0.12928
1247.71922,0.13015
1249.64769,0.13771
1251.57616,0.14046
1253.50463,0.13766
1255.43310,0.13989
1257.36157,0.14369
1259.29003,0.14090
1261.21850,0.13748
1263.14697,0.13791
1265.07544,0.13737
1267.00391,0.13560
1268.93238,0.13698
1270.86085,0.13881
1272.78932,0.13643
1274.71778,0.13552
1276.64625,0.14204
1278.57472,0.14870
1280.50319,0.14799
1282.43166,0.14490
1284.36013,0.14420
1286.28860,0.14133
1288.21706,0.13718
1290.14553,0.13901
1292.07400,0.14225
1294.00247,0.13986
1295.93094,0.13376
1297.85941,0.12616
1299.78788,0.11466
1301.71634,0.09369
1303.64481,0.07110
1305.57328,0.07434
1307.50175,0.10712
1309.43022,0.13607
1311.35869,0.14810
1313.28716,0.15488
1315.21563,0.15700
1317.14409,0.15538
1319.07256,0.15292
1321.00103,0.14904
1322.92950,0.14755
1324.85797,0.14469
1326.78644,0.14088
1328.71491,0.14451
1330.64337,0.14386
1332.57184,0.13616
1334.50031,0.13456
1336.42878,0.13553
1338.35725,0.13439
1340.28572,0.12773
1342.21419,0.12288
1344.14266,0.12717
1346.07112,0.13060
1347.99959,0.13261
1349.92806,0.13432
1351.85653,0.13462
1353.78500,0.13616
1355.71347,0.13689
1357.64194,0.13721
1359.57040,0.13966
1361.49887,0.14635
1363.42734,0.15303
1365.35581,0.15506
1367.28428,0.15688
1369.21275,0.15984
1371.14122,0.16285
1373.06969,0.16774
1374.99815,0.17403
1376.92662,0.17407
1378.85509,0.16865
1380.78356,0.16433
1382.71203,0.16264
1384.64050,0.16373
1386.56897,0.16812
1388.49743,0.17222
1390.42590,0.17281
1392.35437,0.17349
1394.28284,0.17812
1396.21131,0.18439
1398.13978,0.18380
1400.06825,0.17673
1401.99672,0.17176
1403.92518,0.17073
1405.85365,0.17157
1407.78212,0.17295
1409.71059,0.17414
1411.63906,0.17452
1413.56753,0.17599
1415.49600,0.18076
1417.42446,0.18624
1419.35293,0.18464
1421.28140,0.17949
1423.20987,0.17935
1425.13834,0.17839
1427.06681,0.17546
1428.99528,0.17563
1430.92375,0.17462
1432.85221,0.16979
1434.78068,0.16781
1436.70915,0.17182
1438.63762,0.17588
1440.56609,0.17610
1442.49456,0.17460
1444.42303,0.17429
1446.35149,0.17515
1448.27996,0.17429
1450.20843,0.17284
1452.13690,0.17540
1454.06537,0.18535
1455.99384,0.20221
1457.92231,0.20575
1459.85077,0.19023
1461.77924,0.18327
1463.70771,0.18480
1465.63618,0.18171
1467.56465,0.17625
1469.49312,0.18353
1471.42159,0.20295
1473.35006,0.21148
1475.27852,0.19980
1477.20699,0.18883
1479.13546,0.18475
1481.06393,0.18371
1482.99240,0.18088
1484.92087,0.18157
1486.84934,0.19040
1488.77780,0.19909
1490.70627,0.19573
1492.63474,0.18860
1494.56321,0.18883
1496.49168,0.19461
1498.42015,0.19669
1500.34862,0.19680
1502.27709,0.20192
1504.20555,0.21589
1506.13402,0.23809
1508.06249,0.23063
1509.99096,0.20566
1511.91943,0.19206
1513.84790,0.18950
1515.77637,0.19931
1517.70483,0.20702
1519.63330,0.20480
1521.56177,0.20914
1523.49024,0.21407
1525.41871,0.20930
1527.34718,0.20062
1529.27565,0.19680
1531.20412,0.20060
1533.13258,0.20290
1535.06105,0.19971
1536.98952,0.21024
1538.91799,0.24594
1540.84646,0.26401
1542.77493,0.23073
1544.70340,0.20782
1546.63186,0.19732
1548.56033,0.19367
1550.48880,0.19633
1552.41727,0.20306
1554.34574,0.21254
1556.27421,0.22879
1558.20268,0.25355
1560.13115,0.23363
1562.05961,0.20129
1563.98808,0.18937
1565.91655,0.18959
1567.84502,0.19926
1569.77349,0.20458
1571.70196,0.19806
1573.63043,0.19922
1575.55889,0.20656
1577.48736,0.20094
1579.41583,0.18978
1581.34430,0.18324
1583.27277,0.18064
1585.20124,0.18101
1587.12971,0.18259
1589.05818,0.18344
1590.98664,0.18211
1592.91511,0.18246
1594.84358,0.18551
1596.77205,0.18515
1598.70052,0.18240
1600.62899,0.18098
1602.55746,0.18008
1604.48592,0.17878
1606.41439,0.17786
1608.34286,0.17892
1610.27133,0.18065
1612.19980,0.18286
1614.12827,0.19098
1616.05674,0.20288
1617.98521,0.19972
1619.91367,0.19252
1621.84214,0.19799
1623.77061,0.20579
1625.69908,0.20544
1627.62755,0.20255
1629.55602,0.19856
1631.48449,0.19796
1633.41295,0.20782
1635.34142,0.22459
1637.26989,0.21980
1639.19836,0.20302
1641.12683,0.19533
1643.05530,0.19923
1644.98377,0.21675
1646.91223,0.23547
1648.84070,0.23137
1650.76917,0.23461
1652.69764,0.25880
1654.62611,0.24220
1656.55458,0.20827
1658.48305,0.19439
1660.41152,0.19150
1662.33998,0.19167
1664.26845,0.19358
1666.19692,0.20041
1668.12539,0.21220
1670.05386,0.21630
1671.98233,0.20954
1673.91080,0.20838
1675.83926,0.20999
1677.76773,0.20967
1679.69620,0.21242
1681.62467,0.22069
1683.55314,0.23003
1685.48161,0.22146
1687.41008,0.20793
1689.33855,0.20103
1691.26701,0.19801
1693.19548,0.20289
1695.12395,0.21458
1697.05242,0.21839
1698.98089,0.21313
1700.90936,0.20949
1702.83783,0.20931
1704.76629,0.21034
1706.69476,0.20570
1708.62323,0.19712
1710.55170,0.19329
1712.48017,0.19585
1714.40864,0.20596
1716.33711,0.22297
1718.26558,0.22381
1720.19404,0.20810
1722.12251,0.19606
1724.05098,0.18734
1725.97945,0.18214
1727.90792,0.18329
1729.83639,0.19243
1731.76486,0.20982
1733.69332,0.22320
1735.62179,0.21301
1737.55026,0.20257
1739.47873,0.20169
1741.40720,0.20018
1743.33567,0.19752
1745.26414,0.20064
1747.19261,0.20993
1749.12107,0.21647
1751.04954,0.20788
1752.97801,0.19366
1754.90648,0.18899
1756.83495,0.19199
1758.76342,0.19509
1760.69189,0.19709
1762.62035,0.19605
1764.54882,0.19356
1766.47729,0.19626
1768.40576,0.20411
1770.33423,0.21483
1772.26270,0.21957
1774.19117,0.20872
1776.11964,0.19694
1778.04810,0.19405
1779.97657,0.19660
1781.90504,0.19673
1783.83351,0.19403
1785.76198,0.19140
1787.69045,0.19182
1789.61892,0.19974
1791.54738,0.21073
1793.47585,0.21006
1795.40432,0.20067
1797.33279,0.19510
1799.26126,0.19536
1801.18973,0.19545
1803.11820,0.19103
1805.04666,0.18732
1806.97513,0.18908
1808.90360,0.19439
1810.83207,0.19667
1812.76054,0.19222
1814.68901,0.18660
1816.61748,0.18379
1818.54595,0.17987
1820.47441,0.17582
1822.40288,0.17913
1824.33135,0.18731
1826.25982,0.19132
1828.18829,0.19097
1830.11676,0.18629
1832.04523,0.18106
1833.97369,0.18158
1835.90216,0.18316
1837.83063,0.18285
1839.75910,0.18402
1841.68757,0.18810
1843.61604,0.19284
1845.54451,0.19389
1847.47298,0.19155
1849.40144,0.18804
1851.32991,0.18549
1853.25838,0.18521
1855.18685,0.18556
1857.11532,0.18577
1859.04379,0.18536
1860.97226,0.18372
1862.90072,0.18246
1864.82919,0.18464
1866.75766,0.19220
1868.68613,0.19972
1870.61460,0.19774
1872.54307,0.19167
1874.47154,0.18788
1876.40001,0.18718
1878.32847,0.19002
1880.25694,0.19206
1882.18541,0.18982
1884.11388,0.18796
1886.04235,0.18988
1887.97082,0.19309
1889.89929,0.19322
1891.82775,0.18996
1893.75622,0.18858
1895.68469,0.18906
1897.61316,0.18841
1899.54163,0.18762
1901.47010,0.18697
1903.39857,0.18642
1905.32704,0.18709
1907.25550,0.18970
1909.18397,0.19264
1911.11244,0.19269
1913.04091,0.19154
1914.96938,0.19264
1916.89785,0.19522
1918.82632,0.19528
1920.75478,0.19369
1922.68325,0.19390
1924.61172,0.19296
1926.54019,0.19009
1928.46866,0.18849
1930.39713,0.18746
1932.32560,0.18622
1934.25407,0.18585
1936.18253,0.18524
1938.11100,0.18394
1940.03947,0.18521
1941.96794,0.19018
1943.89641,0.19290
1945.82488,0.19061
1947.75335,0.18894
1949.68181,0.18935
1951.61028,0.18750
1953.53875,0.18513
1955.46722,0.18814
1957.39569,0.19272
1959.32416,0.19171
1961.25263,0.18844
1963.18110,0.18901
1965.10956,0.19256
1967.03803,0.19499
1968.96650,0.19390
1970.89497,0.19139
1972.82344,0.19011
1974.75191,0.18845
1976.68038,0.18859
1978.60884,0.19179
1980.53731,0.19161
1982.46578,0.18940
1984.39425,0.18848
1986.32272,0.18676
1988.25119,0.18763
1990.17966,0.19161
1992.10812,0.19228
1994.03659,0.18811
1995.96506,0.18426
1997.89353,0.18397
1999.82200,0.18483
2001.75047,0.18571
2003.67894,0.18860
2005.60741,0.19049
2007.53587,0.18813
2009.46434,0.18700
2011.39281,0.19044
2013.32128,0.19135
2015.24975,0.18646
2017.17822,0.18189
2019.10669,0.18215
2021.03515,0.18540
2022.96362,0.18683
2024.89209,0.18588
2026.82056,0.18634
2028.74903,0.18882
2030.67750,0.19209
2032.60597,0.19399
2034.53444,0.19177
2036.46290,0.18818
2038.39137,0.18670
2040.31984,0.18558
2042.24831,0.18385
2044.17678,0.18423
2046.10525,0.18845
2048.03372,0.19346
2049.96218,0.19468
2051.89065,0.19098
2053.81912,0.18571
2055.74759,0.18393
2057.67606,0.18611
2059.60453,0.18885
2061.53300,0.18995
2063.46147,0.18928
2065.38993,0.19034
2067.31840,0.19377
2069.24687,0.19360
2071.17534,0.18976
2073.10381,0.18843
2075.03228,0.19030
2076.96075,0.19122
2078.88921,0.18986
2080.81768,0.18958
2082.74615,0.19145
2084.67462,0.19128
2086.60309,0.18947
2088.53156,0.18924
2090.46003,0.18871
2092.38850,0.18722
2094.31696,0.18725
2096.24543,0.18803
2098.17390,0.18745
2100.10237,0.18671
2102.03084,0.18689
2103.95931,0.18802
2105.88778,0.19030
2107.81624,0.19219
2109.74471,0.19285
2111.67318,0.19313
2113.60165,0.19436
2115.53012,0.19492
2117.45859,0.19179
2119.38706,0.18810
2121.31553,0.18752
2123.24399,0.18892
2125.17246,0.18985
2127.10093,0.18907
2129.02940,0.18858
2130.95787,0.19041
2132.88634,0.19286
2134.81481,0.19318
2136.74327,0.19178
2138.67174,0.19124
2140.60021,0.19073
2142.52868,0.18887
2144.45715,0.18899
2146.38562,0.19285
2148.31409,0.19634
2150.24255,0.19526
2152.17102,0.19102
2154.09949,0.18797
2156.02796,0.18828
2157.95643,0.18995
2159.88490,0.18959
2161.81337,0.18838
2163.74184,0.18892
2165.67030,0.19025
2167.59877,0.19056
2169.52724,0.19091
2171.45571,0.19259
2173.38418,0.19357
2175.31265,0.19328
2177.24112,0.19351
2179.16958,0.19476
2181.09805,0.19503
2183.02652,0.19339
2184.95499,0.19322
2186.88346,0.19507
2188.81193,0.19640
2190.74040,0.19718
2192.66887,0.19785
2194.59733,0.19716
2196.52580,0.19521
2198.45427,0.19478
2200.38274,0.19537
2202.31121,0.19429
2204.23968,0.19302
2206.16815,0.19343
2208.09661,0.19305
2210.02508,0.19000
2211.95355,0.18903
2213.88202,0.19141
2215.81049,0.19108
2217.73896,0.18861
2219.66743,0.18848
2221.59590,0.18993
2223.52436,0.19146
2225.45283,0.19263
2227.38130,0.19249
2229.30977,0.19109
2231.23824,0.19005
2233.16671,0.19041
2235.09518,0.19248
2237.02364,0.19575
2238.95211,0.19925
2240.88058,0.20214
2242.80905,0.20186
2244.73752,0.19846
2246.66599,0.19412
2248.59446,0.18954
2250.52293,0.18880
2252.45139,0.19227
2254.37986,0.19373
2256.30833,0.19275
2258.23680,0.19230
2260.16527,0.19218
2262.09374,0.19237
2264.02221,0.19304
2265.95067,0.19336
2267.87914,0.19315
2269.80761,0.19244
2271.73608,0.19136
2273.66455,0.19081
2275.59302,0.19083
2277.52149,0.19209
2279.44996,0.19443
2281.37842,0.19524
2283.30689,0.19424
2285.23536,0.19341
2287.16383,0.19363
2289.09230,0.19315
2291.02077,0.19038
2292.94924,0.18813
2294.87770,0.18847
2296.80617,0.18890
2298.73464,0.18851
2300.66311,0.18826
2302.59158,0.18812
2304.52005,0.18812
2306.44852,0.18934
2308.37699,0.19261
2310.30545,0.19456
2312.23392,0.19598
2314.16239,0.20144
2316.09086,0.20601
2318.01933,0.20491
2319.94780,0.20046
2321.87627,0.19758
2323.80473,0.19676
2325.73320,0.19332
2327.66167,0.19299
2329.59014,0.20323
2331.51861,0.21399
2333.44708,0.21755
2335.37555,0.22261
2337.30401,0.22015
2339.23248,0.19687
2341.16095,0.17557
2343.08942,0.17734
2345.01789,0.19127
2346.94636,0.19800
2348.87483,0.19419
2350.80330,0.18814
2352.73176,0.18538
2354.66023,0.18600
2356.58870,0.19473
2358.51717,0.20706
2360.44564,0.21860
2362.37411,0.23331
2364.30258,0.23532
2366.23104,0.22500
2368.15951,0.21352
2370.08798,0.20441
2372.01645,0.20130
2373.94492,0.20174
2375.87339,0.19929
2377.80186,0.19707
2379.73033,0.20042
2381.65879,0.20141
2383.58726,0.19527
2385.51573,0.19026
2387.44420,0.19039
2389.37267,0.19193
2391.30114,0.19416
2393.22961,0.19711
2395.15807,0.19802
2397.08654,0.19691
2399.01501,0.19519
2400.94348,0.19365
2402.87195,0.19320
2404.80042,0.19350
2406.72889,0.19475
2408.65736,0.19610
2410.58582,0.19464
2412.51429,0.19104
2414.44276,0.18925
2416.37123,0.18960
2418.29970,0.19013
2420.22817,0.19144
2422.15664,0.19413
2424.08510,0.19659
2426.01357,0.19641
2427.94204,0.19357
2429.87051,0.19095
2431.79898,0.19126
2433.72745,0.19357
2435.65592,0.19328
2437.58439,0.18948
2439.51285,0.18684
2441.44132,0.18828
2443.36979,0.19170
2445.29826,0.19398
2447.22673,0.19369
2449.15520,0.19455
2451.08367,0.20241
2453.01213,0.21132
2454.94060,0.21148
2456.86907,0.20570
2458.79754,0.20214
2460.72601,0.20080
2462.65448,0.19713
2464.58295,0.19398
2466.51142,0.19438
2468.43988,0.19429
2470.36835,0.19253
2472.29682,0.19175
2474.22529,0.19286
2476.15376,0.19665
2478.08223,0.20063
2480.01070,0.20038
2481.93916,0.19876
2483.86763,0.19872
2485.79610,0.19716
2487.72457,0.19475
2489.65304,0.19515
2491.58151,0.19837
2493.50998,0.20216
2495.43844,0.20283
2497.36691,0.19905
2499.29538,0.19639
2501.22385,0.19665
2503.15232,0.19521
2505.08079,0.19207
2507.00926,0.18936
2508.93773,0.18820
2510.86619,0.18979
2512.79466,0.19233
2514.72313,0.19445
2516.65160,0.19703
2518.58007,0.19961
2520.50854,0.20122
2522.43701,0.20075
2524.36547,0.19898
2526.29394,0.19872
2528.22241,0.19885
2530.15088,0.19707
2532.07935,0.19420
2534.00782,0.19236
2535.93629,0.19348
2537.86476,0.19658
2539.79322,0.19946
2541.72169,0.20285
2543.65016,0.20529
2545.57863,0.20358
2547.50710,0.19935
2549.43557,0.19504
2551.36404,0.19279
2553.29250,0.19357
2555.22097,0.19484
2557.14944,0.19746
2559.07791,0.20166
2561.00638,0.20262
2562.93485,0.20074
2564.86332,0.20064
2566.79179,0.20161
2568.72025,0.20074
2570.64872,0.19918
2572.57719,0.19871
2574.50566,0.19799
2576.43413,0.19724
2578.36260,0.19865
2580.29107,0.20137
2582.21953,0.20250
2584.14800,0.20076
2586.07647,0.19791
2588.00494,0.19650
2589.93341,0.19721
2591.86188,0.19855
2593.79035,0.19978
2595.71882,0.20157
2597.64728,0.20355
2599.57575,0.20479
2601.50422,0.20445
2603.43269,0.20413
2605.36116,0.20486
2607.28963,0.20543
2609.21810,0.20823
2611.14656,0.21173
2613.07503,0.20792
2615.00350,0.20030
2616.93197,0.19989
2618.86044,0.20306
2620.78891,0.20300
2622.71738,0.20308
2624.64585,0.20341
2626.57431,0.20317
2628.50278,0.20455
2630.43125,0.20514
2632.35972,0.20338
2634.28819,0.20194
2636.21666,0.20193
2638.14513,0.20285
2640.07359,0.20338
2642.00206,0.20176
2643.93053,0.20024
2645.85900,0.20101
2647.78747,0.20170
2649.71594,0.20236
2651.64441,0.20425
2653.57288,0.20499
2655.50134,0.20444
2657.42981,0.20447
2659.35828,0.20496
2661.28675,0.20430
2663.21522,0.20210
2665.14369,0.20265
2667.07216,0.20673
2669.00062,0.20880
2670.92909,0.20715
2672.85756,0.20585
2674.78603,0.20797
2676.71450,0.20927
2678.64297,0.20613
2680.57144,0.20358
2682.49990,0.20330
2684.42837,0.20262
2686.35684,0.20269
2688.28531,0.20305
2690.21378,0.20448
2692.14225,0.20881
2694.07072,0.21124
2695.99919,0.21061
2697.92765,0.20944
2699.85612,0.20570
2701.78459,0.20104
2703.71306,0.20032
2705.64153,0.20440
2707.57000,0.20857
2709.49847,0.20765
2711.42693,0.20595
2713.35540,0.20783
2715.28387,0.20927
2717.21234,0.20939
2719.14081,0.21014
2721.06928,0.21034
2722.99775,0.20918
2724.92622,0.20738
2726.85468,0.20763
2728.78315,0.21166
2730.71162,0.21566
2732.64009,0.21563
2734.56856,0.21236
2736.49703,0.20897
2738.42550,0.20710
2740.35396,0.20534
2742.28243,0.20447
2744.21090,0.20596
2746.13937,0.20886
2748.06784,0.21306
2749.99631,0.21601
2751.92478,0.21423
2753.85325,0.20975
2755.78171,0.20790
2757.71018,0.20976
2759.63865,0.21132
2761.56712,0.21113
2763.49559,0.21149
2765.42406,0.21268
2767.35253,0.21303
2769.28099,0.21243
2771.20946,0.21166
2773.13793,0.21313
2775.06640,0.21725
2776.99487,0.21754
2778.92334,0.21393
2780.85181,0.21384
2782.78028,0.21631
2784.70874,0.21587
2786.63721,0.21288
2788.56568,0.21126
2790.49415,0.21061
2792.42262,0.20891
2794.35109,0.20763
2796.27956,0.20647
2798.20802,0.20444
2800.13649,0.20544
2802.06496,0.21224
2803.99343,0.21854
2805.92190,0.21839
2807.85037,0.21619
2809.77884,0.21701
2811.70731,0.21930
2813.63577,0.22048
2815.56424,0.21953
2817.49271,0.21634
2819.42118,0.21392
2821.34965,0.21453
2823.27812,0.21552
2825.20659,0.21426
2827.13505,0.21158
2829.06352,0.21204
2830.99199,0.21772
2832.92046,0.22149
2834.84893,0.21708
2836.77740,0.21001
2838.70587,0.20805
2840.63433,0.21206
2842.56280,0.21810
2844.49127,0.21988
2846.41974,0.21654
2848.34821,0.21273
2850.27668,0.20964
2852.20515,0.20868
2854.13362,0.20955
2856.06208,0.20903
2857.99055,0.21124
2859.91902,0.21763
2861.84749,0.22103
2863.77596,0.22111
2865.70443,0.22187
2867.63290,0.21974
2869.56136,0.21335
2871.48983,0.20939
2873.41830,0.20892
2875.34677,0.20883
2877.27524,0.21103
2879.20371,0.21558
2881.13218,0.21827
2883.06065,0.21667
2884.98911,0.21277
2886.91758,0.21117
2888.84605,0.21238
2890.77452,0.21103
2892.70299,0.20376
2894.63146,0.19551
2896.55993,0.19478
2898.48839,0.19942
2900.41686,0.20215
2902.34533,0.20312
2904.27380,0.20020
2906.20227,0.19471
2908.13074,0.19689
2910.05921,0.20654
2911.98768,0.21272
2913.91614,0.20512
2915.84461,0.18918
2917.77308,0.18589
2919.70155,0.19712
2921.63002,0.20854
2923.55849,0.21145
2925.48696,0.20178
2927.41542,0.19331
2929.34389,0.20110
2931.27236,0.21330
2933.20083,0.21354
2935.12930,0.19762
2937.05777,0.17939
2938.98624,0.18418
2940.91471,0.20473
2942.84317,0.21370
2944.77164,0.20434
2946.70011,0.18478
2948.62858,0.17834
2950.55705,0.19422
2952.48552,0.20883
2954.41399,0.20615
2956.34245,0.18639
2958.27092,0.17003
2960.19939,0.18203
2962.12786,0.20758
2964.05633,0.21685
2965.98480,0.20481
2967.91327,0.19090
2969.84174,0.19774
2971.77020,0.21555
2973.69867,0.22204
2975.62714,0.21280
2977.55561,0.19555
2979.48408,0.19215
2981.41255,0.20743
2983.34102,0.21948
2985.26948,0.21659
2987.19795,0.20229
2989.12642,0.19261
2991.05489,0.19910
2992.98336,0.21119
2994.91183,0.21823
2996.84030,0.21811
2998.76877,0.21429
3000.69723,0.21373
3002.62570,0.21278
3004.55417,0.20872
3006.48264,0.20477
3008.41111,0.19668
3010.33958,0.17768
3012.26805,0.14061
3014.19651,0.08994
3016.12498,0.05803
3018.05345,0.08249
3019.98192,0.14863
3021.91039,0.20020
3023.83886,0.22025
3025.76733,0.22299
3027.69579,0.21551
3029.62426,0.21197
3031.55273,0.22115
3033.48120,0.23212
3035.40967,0.23149
3037.33814,0.21995
3039.26661,0.21280
3041.19508,0.21407
3043.12354,0.21473
3045.05201,0.21049
3046.98048,0.20147
3048.90895,0.20039
3050.83742,0.21273
3052.76589,0.22053
3054.69436,0.21002
3056.62282,0.19016
3058.55129,0.18676
3060.47976,0.20243
3062.40823,0.21349
3064.33670,0.20566
3066.26517,0.18937
3068.19364,0.19033
3070.12211,0.20504
3072.05057,0.20944
3073.97904,0.19985
3075.90751,0.19032
3077.83598,0.19615
3079.76445,0.21009
3081.69292,0.21295
3083.62139,0.20150
3085.54985,0.19425
3087.47832,0.20603
3089.40679,0.21772
3091.33526,0.21282
3093.26373,0.19799
3095.19220,0.19081
3097.12067,0.20444
3099.04914,0.21961
3100.97760,0.21339
3102.90607,0.19210
3104.83454,0.18604
3106.76301,0.20705
3108.69148,0.22553
3110.61995,0.21878
3112.54842,0.19872
3114.47688,0.19279
3116.40535,0.20725
3118.33382,0.21925
3120.26229,0.21067
3122.19076,0.19653
3124.11923,0.20333
3126.04770,0.21995
3127.97617,0.22150
3129.90463,0.21052
3131.83310,0.20665
3133.76157,0.21615
3135.69004,0.22405
3137.61851,0.21964
3139.54698,0.21022
3141.47545,0.21055
3143.40391,0.21827
3145.33238,0.22131
3147.26085,0.21883
3149.18932,0.21627
3151.11779,0.21775
3153.04626,0.22071
3154.97473,0.22322
3156.90320,0.22641
3158.83166,0.22821
3160.76013,0.22695
3162.68860,0.22405
3164.61707,0.22338
3166.54554,0.22569
3168.47401,0.22758
3170.40248,0.22868
3172.33094,0.22835
3174.25941,0.22649
3176.18788,0.22782
3178.11635,0.23112
3180.04482,0.23118
3181.97329,0.23091
3183.90176,0.23364
3185.83022,0.23261
3187.75869,0.22488
3189.68716,0.22037
3191.61563,0.22579
3193.54410,0.23712
3195.47257,0.24487
3197.40104,0.24541
3199.32951,0.24077
3201.25797,0.23186
3203.18644,0.22444
3205.11491,0.22274
3207.04338,0.22500
3208.97185,0.22777
3210.90032,0.22640
3212.82879,0.22249
3214.75725,0.21944
3216.68572,0.21703
3218.61419,0.21834
3220.54266,0.22275
3222.47113,0.22392
3224.39960,0.22231
3226.32807,0.22388
3228.25654,0.22907
3230.18500,0.23232
3232.11347,0.23107
3234.04194,0.22702
3235.97041,0.22256
3237.89888,0.22063
3239.82735,0.22199
3241.75582,0.22108
3243.68428,0.21572
3245.61275,0.21282
3247.54122,0.21698
3249.46969,0.22507
3251.39816,0.22801
3253.32663,0.22446
3255.25510,0.22099
3257.18357,0.21763
3259.11203,0.21609
3261.04050,0.21872
3262.96897,0.22121
3264.89744,0.22109
3266.82591,0.22157
3268.75438,0.22240
3270.68285,0.21974
3272.61131,0.21892
3274.53978,0.22382
3276.46825,0.22758
3278.39672,0.22699
3280.32519,0.22584
3282.25366,0.22767
3284.18213,0.23131
3286.11060,0.23409
3288.03906,0.23751
3289.96753,0.24023
3291.89600,0.23505
3293.82447,0.22392
3295.75294,0.21890
3297.68141,0.22154
3299.60988,0.22207
3301.53834,0.21840
3303.46681,0.21799
3305.39528,0.22260
3307.32375,0.22516
3309.25222,0.22187
3311.18069,0.21786
3313.10916,0.21634
3315.03763,0.21536
3316.96609,0.21841
3318.89456,0.22582
3320.82303,0.23005
3322.75150,0.22900
3324.67997,0.22526
3326.60844,0.22401
3328.53691,0.22884
3330.46537,0.23416
3332.39384,0.23435
3334.32231,0.23035
3336.25078,0.22440
3338.17925,0.22067
3340.10772,0.22150
3342.03619,0.21938
3343.96466,0.21185
3345.89312,0.21155
3347.82159,0.22339
3349.75006,0.23524
3351.67853,0.24016
3353.60700,0.24265
3355.53547,0.24113
3357.46394,0.23302
3359.39240,0.22902
3361.32087,0.23403
3363.24934,0.23674
3365.17781,0.23273
3367.10628,0.22651
3369.03475,0.21976
3370.96322,0.21748
3372.89168,0.22295
3374.82015,0.23090
3376.74862,0.23596
3378.67709,0.23515
3380.60556,0.22879
3382.53403,0.22333
3384.46250,0.22200
3386.39097,0.22294
3388.31943,0.22489
3390.24790,0.22816
3392.17637,0.23284
3394.10484,0.23186
3396.03331,0.22511
3397.96178,0.22423
3399.89025,0.22867
3401.81871,0.23001
3403.74718,0.22822
3405.67565,0.22590
3407.60412,0.22408
3409.53259,0.22465
3411.46106,0.22708
3413.38953,0.22792
3415.31800,0.22521
3417.24646,0.21937
3419.17493,0.21292
3421.10340,0.21050
3423.03187,0.21237
3424.96034,0.21356
3426.88881,0.21387
3428.81728,0.21621
3430.74574,0.22121
3432.67421,0.22486
3434.60268,0.22388
3436.53115,0.22342
3438.45962,0.22571
3440.38809,0.22479
3442.31656,0.22016
3444.24503,0.21928
3446.17349,0.22204
3448.10196,0.21971
3450.03043,0.21544
3451.95890,0.21567
3453.88737,0.21320
3455.81584,0.20748
3457.74431,0.20797
3459.67277,0.21075
3461.60124,0.20560
3463.52971,0.19596
3465.45818,0.19315
3467.38665,0.19940
3469.31512,0.20573
3471.24359,0.20449
3473.17206,0.20127
3475.10052,0.20404
3477.02899,0.20689
3478.95746,0.20503
3480.88593,0.20173
3482.81440,0.19684
3484.74287,0.19120
3486.67134,0.18933
3488.59980,0.19142
3490.52827,0.19178
3492.45674,0.18863
3494.38521,0.18559
3496.31368,0.18563
3498.24215,0.19109
3500.17062,0.20064
3502.09909,0.20864
3504.02755,0.20919
3505.95602,0.20326
3507.88449,0.19803
3509.81296,0.19414
3511.74143,0.18855
3513.66990,0.18542
3515.59837,0.18702
3517.52683,0.18818
3519.45530,0.18942
3521.38377,0.19533
3523.31224,0.20040
3525.24071,0.19775
3527.16918,0.18798
3529.09765,0.17499
3531.02611,0.16595
3532.95458,0.16465
3534.88305,0.17020
3536.81152,0.17714
3538.73999,0.18155
3540.66846,0.18721
3542.59693,0.19274
3544.52540,0.19277
3546.45386,0.18848
3548.38233,0.18384
3550.31080,0.18260
3552.23927,0.18561
3554.16774,0.18754
3556.09621,0.18286
3558.02468,0.17295
3559.95314,0.16728
3561.88161,0.16938
3563.81008,0.17399
3565.73855,0.18079
3567.66702,0.18293
3569.59549,0.17616
3571.52396,0.17173
3573.45243,0.17099
3575.38089,0.16919
3577.30936,0.16665
3579.23783,0.16630
3581.16630,0.16705
3583.09477,0.17006
3585.02324,0.17433
3586.95171,0.17147
3588.88017,0.16496
3590.80864,0.16632
3592.73711,0.17183
3594.66558,0.17504
3596.59405,0.17224
3598.52252,0.16698
3600.45099,0.16303
3602.37946,0.15833
3604.30792,0.15599
3606.23639,0.16234
3608.16486,0.17185
3610.09333,0.17334
3612.02180,0.17292
3613.95027,0.17548
3615.87874,0.17563
3617.80720,0.17584
3619.73567,0.17427
3621.66414,0.16397
3623.59261,0.15517
3625.52108,0.15396
3627.44955,0.15806
3629.37802,0.16281
3631.30649,0.16279
3633.23495,0.16098
3635.16342,0.15812
3637.09189,0.15380
3639.02036,0.15273
3640.94883,0.15740
3642.87730,0.15913
3644.80577,0.15640
3646.73423,0.16068
3648.66270,0.17160
3650.59117,0.16868
3652.51964,0.16070
3654.44811,0.15748
3656.37658,0.15374
3658.30505,0.14747
3660.23352,0.14110
3662.16198,0.13661
3664.09045,0.13735
3666.01892,0.14357
3667.94739,0.15547
3669.87586,0.16802
3671.80433,0.16732
3673.73280,0.16606
3675.66126,0.17054
3677.58973,0.16027
3679.51820,0.14504
3681.44667,0.13923
3683.37514,0.13965
3685.30361,0.14418
3687.23208,0.15505
3689.16055,0.16084
3691.08901,0.14761
3693.01748,0.13644
3694.94595,0.13666
3696.87442,0.14022
3698.80289,0.14335
3700.73136,0.14878
3702.65983,0.15280
3704.58829,0.14967
3706.51676,0.14860
3708.44523,0.16014
3710.37370,0.17615
3712.30217,0.16915
3714.23064,0.14714
3716.15911,0.13248
3718.08757,0.12796
3720.01604,0.13121
3721.94451,0.13673
3723.87298,0.14221
3725.80145,0.14487
3727.72992,0.14329
3729.65839,0.14695
3731.58686,0.16292
3733.51532,0.18208
3735.44379,0.18309
3737.37226,0.16878
3739.30073,0.15938
3741.22920,0.15712
3743.15767,0.15259
3745.08614,0.13736
3747.01460,0.12804
3748.94307,0.13456
3750.87154,0.14656
3752.80001,0.14511
3754.72848,0.14063
3756.65695,0.14446
3758.58542,0.15205
3760.51389,0.15128
3762.44235,0.14589
3764.37082,0.14434
3766.29929,0.13958
3768.22776,0.12897
3770.15623,0.12415
3772.08470,0.12665
3774.01317,0.12824
3775.94163,0.13056
3777.87010,0.13513
3779.79857,0.13628
3781.72704,0.13432
3783.65551,0.13475
3785.58398,0.13602
3787.51245,0.13421
3789.44092,0.13023
3791.36938,0.12683
3793.29785,0.12603
3795.22632,0.12879
3797.15479,0.13121
3799.08326,0.12983
3801.01173,0.12881
3802.94020,0.13202
3804.86866,0.13787
3806.79713,0.14083
3808.72560,0.13624
3810.65407,0.13174
3812.58254,0.13107
3814.51101,0.13238
3816.43948,0.13367
3818.36795,0.13527
3820.29641,0.13768
3822.22488,0.13791
3824.15335,0.13628
3826.08182,0.13230
3828.01029,0.12753
3829.93876,0.12783
3831.86723,0.13473
3833.79569,0.14638
3835.72416,0.15898
3837.65263,0.16240
3839.58110,0.14936
3841.50957,0.13691
3843.43804,0.13032
3845.36651,0.12422
3847.29498,0.12044
3849.22344,0.12348
3851.15191,0.13812
3853.08038,0.15545
3855.00885,0.14605
3856.93732,0.13396
3858.86579,0.13201
3860.79426,0.13618
3862.72272,0.14436
3864.65119,0.14777
3866.57966,0.14378
3868.50813,0.14214
3870.43660,0.14370
3872.36507,0.14123
3874.29354,0.13210
3876.22200,0.12563
3878.15047,0.13091
3880.07894,0.14121
3882.00741,0.14246
3883.93588,0.13581
3885.86435,0.12625
3887.79282,0.12305
3889.72129,0.13108
3891.64975,0.13386
3893.57822,0.11901
3895.50669,0.10708
3897.43516,0.10967
3899.36363,0.12072
3901.29210,0.12716
3903.22057,0.12334
3905.14903,0.11457
3907.07750,0.11097
3909.00597,0.11273
3910.93444,0.11459
3912.86291,0.11466
3914.79138,0.11424
3916.71985,0.11342
3918.64832,0.11178
3920.57678,0.11399
3922.50525,0.11876
3924.43372,0.11846
3926.36219,0.11704
3928.29066,0.11986
3930.21913,0.12222
3932.14760,0.12383
3934.07606,0.12440
3936.00453,0.11966
3937.93300,0.11404
3939.86147,0.11523
3941.78994,0.12226
3943.71841,0.12398
3945.64688,0.11565
3947.57535,0.10699
3949.50381,0.10335
3951.43228,0.10128
3953.36075,0.10025
3955.28922,0.10264
3957.21769,0.10890
3959.14616,0.11545
3961.07463,0.11509
3963.00309,0.10605
3964.93156,0.09822
3966.86003,0.09952
3968.78850,0.10479
3970.71697,0.10881
3972.64544,0.11041
3974.57391,0.10597
3976.50238,0.09850
3978.43084,0.09898
3980.35931,0.10721
3982.28778,0.10978
3984.21625,0.10560
3986.14472,0.10333
3988.07319,0.10160
3990.00166,0.09985
3991.93012,0.10194
3993.85859,0.10363
3995.78706,0.09858
3997.71553,0.09205
3999.64400,0.09014
4001.57247,0.09010
4003.50094,0.09104
4005.42941,0.09536
4007.35787,0.09982
4009.28634,0.09997
4011.21481,0.09881
4013.14328,0.09803
4015.07175,0.09847
4017.00022,0.10181
4018.92869,0.10096
4020.85715,0.09330
4022.78562,0.08885
4024.71409,0.09205
4026.64256,0.09389
4028.57103,0.09089
4030.49950,0.09245
4032.42797,0.09934
4034.35644,0.10232
4036.28490,0.09843
4038.21337,0.08938
4040.14184,0.08079
4042.07031,0.08072
4043.99878,0.08291
4045.92725,0.08113
4047.85572,0.08364
4049.78418,0.09130
4051.71265,0.09711
4053.64112,0.09884
4055.56959,0.10103
4057.49806,0.10440
4059.42653,0.10386
4061.35500,0.10193
4063.28346,0.10064
4065.21193,0.09771
4067.14040,0.09504
4069.06887,0.09382
4070.99734,0.09177
4072.92581,0.08989
4074.85428,0.09078
4076.78275,0.09231
4078.71121,0.09174
4080.63968,0.08810
4082.56815,0.08280
4084.49662,0.07976
4086.42509,0.08235
4088.35356,0.08688
4090.28203,0.08435
4092.21049,0.07724
4094.13896,0.07582
4096.06743,0.08183
4097.99590,0.08730
4099.92437,0.08449
4101.85284,0.07895
4103.78131,0.07906
4105.70978,0.07930
4107.63824,0.07549
4109.56671,0.07532
4111.49518,0.08125
4113.42365,0.08282
4115.35212,0.07771
4117.28059,0.07728
4119.20906,0.08164
4121.13752,0.08456
4123.06599,0.08676
4124.99446,0.08957
4126.92293,0.09100
4128.85140,0.08645
4130.77987,0.07680
4132.70834,0.06860
4134.63681,0.06781
4136.56527,0.07270
4138.49374,0.07449
4140.42221,0.07115
4142.35068,0.06828
4144.27915,0.07004
4146.20762,0.07370
4148.13609,0.07392
4150.06455,0.06931
4151.99302,0.06169
4153.92149,0.05955
4155.84996,0.07125
4157.77843,0.08725
4159.70690,0.09275
4161.63537,0.08903
4163.56384,0.08162
4165.49230,0.07484
4167.42077,0.07191
4169.34924,0.07335
4171.27771,0.07906
4173.20618,0.07924
4175.13465,0.06978
4177.06312,0.06109
4178.99158,0.05511
4180.92005,0.04928
4182.84852,0.04886
4184.77699,0.05719
4186.70546,0.06849
4188.63393,0.07492
4190.56240,0.07263
4192.49087,0.06216
4194.41933,0.05489
4196.34780,0.06047
4198.27627,0.06925
4200.20474,0.07188
4202.13321,0.07217
4204.06168,0.07153
4205.99015,0.06930
4207.91861,0.06560
4209.84708,0.05689
4211.77555,0.04812
4213.70402,0.04743
4215.63249,0.04852
4217.56096,0.04706
4219.48943,0.04954
4221.41789,0.05707
4223.34636,0.06395
4225.27483,0.06550
4227.20330,0.06117
4229.13177,0.05595
4231.06024,0.05504
4232.98871,0.05585
4234.91718,0.05482
4236.84564,0.05305
4238.77411,0.05328
4240.70258,0.05874
4242.63105,0.06466
4244.55952,0.06222
4246.48799,0.05647
4248.41646,0.05720
4250.34492,0.05929
4252.27339,0.05725
4254.20186,0.05380
4256.13033,0.04912
4258.05880,0.04569
4259.98727,0.04490
4261.91574,0.04316
4263.84421,0.04026
4265.77267,0.03930
4267.70114,0.04079
4269.62961,0.04229
4271.55808,0.04373
4273.48655,0.04313
4275.41502,0.04134
4277.34349,0.04352
4279.27195,0.04569
4281.20042,0.04649
4283.12889,0.05035
4285.05736,0.05430
4286.98583,0.05262
4288.91430,0.04245
4290.84277,0.02863
4292.77124,0.02143
4294.69970,0.02370
4296.62817,0.02993
4298.55664,0.03609
4300.48511,0.04065
4302.41358,0.04114
4304.34205,0.03816
4306.27052,0.03515
4308.19898,0.03000
4310.12745,0.02145
4312.05592,0.02045
4313.98439,0.03150
4315.91286,0.04137
4317.84133,0.04057
4319.76980,0.03305
4321.69827,0.02668
4323.62673,0.02519
4325.55520,0.03131
4327.48367,0.04087
4329.41214,0.04091
4331.34061,0.03157
4333.26908,0.02435
4335.19755,0.02423
4337.12601,0.02867
4339.05448,0.03273
4340.98295,0.03426
4342.91142,0.03378
4344.83989,0.03526
4346.76836,0.04080
4348.69683,0.04223
4350.62530,0.03895
4352.55376,0.04030
4354.48223,0.04121
4356.41070,0.03321
4358.33917,0.02240
4360.26764,0.01754
4362.19611,0.01869
4364.12458,0.02012
4366.05304,0.02148
4367.98151,0.02576
4369.90998,0.02748
4371.83845,0.02279
4373.76692,0.02069
4375.69539,0.02592
4377.62386,0.03035
4379.55232,0.02715
4381.48079,0.01893
4383.40926,0.01273
4385.33773,0.01161
4387.26620,0.01601
4389.19467,0.01821
4391.12314,0.00934
4393.05161,-0.00034
4394.98007,0.00394
4396.90854,0.02048
4398.83701,0.03383
4400.76548,0.03627
4402.69395,0.03224
4404.62242,0.02508
4406.55089,0.01831
4408.47935,0.01236
4410.40782,0.00708
4412.33629,0.00774
4414.26476,0.01118
4416.19323,0.00688
4418.12170,-0.00088
4420.05017,0.00099
4421.97864,0.00755
4423.90710,0.00783
4425.83557,0.00743
4427.76404,0.01101
4429.69251,0.01087
4431.62098,0.00376
4433.54945,-0.00470
4435.47792,-0.01006
4437.40638,-0.01356
4439.33485,-0.01469
4441.26332,-0.01116
4443.19179,-0.00602
4445.12026,0.00256
4447.04873,0.01788
4448.97720,0.02929
4450.90567,0.02556
4452.83413,0.01159
4454.76260,0.00256
4456.69107,0.00282
4458.61954,0.00416
4460.54801,0.00273
4462.47648,0.00269
4464.40495,0.00622
4466.33341,0.01010
4468.26188,0.01015
4470.19035,0.00684
4472.11882,0.00550
4474.04729,0.00870
4475.97576,0.01338
4477.90423,0.01208
4479.83270,-0.00012
4481.76116,-0.01109
4483.68963,-0.00273
4485.61810,0.01620
4487.54657,0.02382
4489.47504,0.02065
4491.40351,0.02075
4493.33198,0.02395
4495.26044,0.01833
4497.18891,0.00321
4499.11738,-0.01068
4501.04585,-0.01472
4502.97432,-0.00752
4504.90279,0.00208
4506.83126,0.00237
4508.75973,-0.01235
4510.68819,-0.03147
4512.61666,-0.03519
4514.54513,-0.02192
4516.47360,-0.00636
4518.40207,0.00856
4520.33054,0.02165
4522.25901,0.02583
4524.18747,0.02534
4526.11594,0.02262
4528.04441,0.01504
4529.97288,0.00756
4531.90135,0.00839
4533.82982,0.01650
4535.75829,0.01816
4537.68676,0.01140
4539.61522,0.00998
4541.54369,0.01368
4543.47216,0.01397
4545.40063,0.00611
4547.32910,-0.00748
4549.25757,-0.01309
4551.18604,-0.00558
4553.11450,-0.00306
4555.04297,-0.00961
4556.97144,-0.01227
4558.89991,-0.00434
4560.82838,0.00993
4562.75685,0.01537
4564.68532,0.01055
4566.61378,0.00722
4568.54225,0.00008
4570.47072,-0.00633
4572.39919,-0.00418
4574.32766,-0.00138
4576.25613,-0.00601
4578.18460,-0.01337
4580.11307,-0.01636
4582.04153,-0.01259
4583.97000,0.00140
4585.89847,0.02018
4587.82694,0.03087
4589.75541,0.03165
4591.68388,0.02577
4593.61235,0.01412
4595.54081,0.00397
4597.46928,0.00318
4599.39775,0.00865
4601.32622,0.01382
4603.25469,0.01417
4605.18316,0.01138
4607.11163,0.01039
4609.04010,0.01352
4610.96856,0.01579
4612.89703,0.00792
4614.82550,0.00153
4616.75397,0.00868
4618.68244,0.01660
4620.61091,0.01658
4622.53938,0.01286
4624.46784,0.00841
4626.39631,0.00495
4628.32478,0.00047
4630.25325,-0.01233
4632.18172,-0.02525
4634.11019,-0.01979
4636.03866,-0.00375
4637.96713,0.00381
4639.89559,0.00413
4641.82406,0.00527
4643.75253,0.00703
4645.68100,0.01025
4647.60947,0.01482
4649.53794,0.00879
4651.46641,-0.00604
4653.39487,-0.00824
4655.32334,0.00003
4657.25181,0.00448
4659.18028,0.01216
4661.10875,0.02425
4663.03722,0.02547
4664.96569,0.01288
4666.89416,-0.00101
4668.82262,-0.00141
4670.75109,0.01405
4672.67956,0.02489
4674.60803,0.01733
4676.53650,0.00387
4678.46497,-0.00599
4680.39344,-0.01361
4682.32190,-0.01373
4684.25037,-0.00448
4686.17884,0.00275
4688.10731,0.00572
4690.03578,0.01094
4691.96425,0.01265
4693.89272,0.01093
4695.82119,0.01170
4697.74965,0.00916
4699.67812,0.00139
4701.60659,-0.00393
4703.53506,-0.00734
4705.46353,-0.01322
4707.39200,-0.01542
4709.32047,-0.01005
4711.24893,-0.00406
4713.17740,-0.00046
4715.10587,0.00160
4717.03434,0.00027
4718.96281,-0.00334
4720.89128,-0.00721
4722.81975,-0.00852
4724.74821,-0.01192
4726.67668,-0.01731
4728.60515,-0.01109
4730.53362,0.00157
4732.46209,0.00213
4734.39056,-0.00560
4736.31903,-0.00471
4738.24750,0.00315
4740.17596,0.00802
4742.10443,0.01108
4744.03290,0.01209
4745.96137,0.00894
4747.88984,0.00734
4749.81831,0.01087
4751.74678,0.01325
4753.67524,0.01181
4755.60371,0.01174
4757.53218,0.00981
4759.46065,0.00556
4761.38912,0.00314
4763.31759,-0.00238
4765.24606,-0.00520
4767.17453,0.00920
4769.10299,0.02026
4771.03146,0.00461
4772.95993,-0.01116
4774.88840,-0.00191
4776.81687,0.00796
4778.74534,-0.00279
4780.67381,-0.01717
4782.60227,-0.01415
4784.53074,0.00385
4786.45921,0.01652
4788.38768,0.01546
4790.31615,0.01110
4792.24462,0.01055
4794.17309,0.00856
4796.10156,0.00103
4798.03002,0.00018
4799.95849,0.01018
4801.88696,0.01422
4803.81543,0.00405
4805.74390,-0.00311
4807.67237,0.00342
4809.60084,0.00908
4811.52930,0.01559
4813.45777,0.02936
4815.38624,0.03590
4817.31471,0.02882
4819.24318,0.01093
4821.17165,-0.00482
4823.10012,-0.00077
4825.02859,0.01361
4826.95705,0.01923
4828.88552,0.01869
4830.81399,0.01525
4832.74246,0.00870
4834.67093,0.00818
4836.59940,0.00734
4838.52787,-0.00210
4840.45633,-0.00826
4842.38480,-0.01249
4844.31327,-0.02038
4846.24174,-0.02090
4848.17021,-0.01086
4850.09868,-0.00418
4852.02715,-0.00497
4853.95562,0.00295
4855.88408,0.01889
4857.81255,0.02025
4859.74102,0.00369
4861.66949,-0.00823
4863.59796,0.00021
4865.52643,0.01893
4867.45490,0.03639
4869.38336,0.04021
4871.31183,0.02398
4873.24030,0.00549
4875.16877,-0.00572
4877.09724,-0.00305
4879.02571,0.01067
4880.95418,0.01273
4882.88265,0.01582
4884.81111,0.02765
4886.73958,0.02155
4888.66805,0.00303
4890.59652,-0.00293
4892.52499,-0.00047
4894.45346,-0.00163
4896.38193,0.00113
4898.31039,0.00822
4900.23886,0.00601
4902.16733,-0.00243
4904.09580,-0.00366
4906.02427,0.00598
4907.95274,0.01369
4909.88121,0.01233
4911.80967,0.00606
4913.73814,-0.00166
4915.66661,-0.00001
4917.59508,0.01530
4919.52355,0.02777
4921.45202,0.02487
4923.38049,0.01421
4925.30896,0.00659
4927.23742,0.00140
4929.16589,-0.00517
4931.09436,-0.00895
4933.02283,-0.00489
4934.95130,0.00528
4936.87977,0.01882
4938.80824,0.02343
4940.73670,0.01136
4942.66517,0.00164
4944.59364,0.00787
4946.52211,0.01532
4948.45058,0.00666
4950.37905,-0.01443
4952.30752,-0.02785
4954.23599,-0.02163
4956.16445,-0.00722
4958.09292,0.01109
4960.02139,0.03168
4961.94986,0.03755
4963.87833,0.02704
4965.80680,0.01067
4967.73527,0.00401
4969.66373,0.01261
4971.59220,0.01955
4973.52067,0.02129
4975.44914,0.02415
4977.37761,0.02334
4979.30608,0.01610
4981.23455,0.00132
4983.16302,-0.01202
4985.09148,-0.00845
4987.01995,0.00850
4988.94842,0.01831
4990.87689,0.01362
4992.80536,0.01399
4994.73383,0.02344
4996.66230,0.02290
4998.59076,0.01898
5000.51923,0.02054
5002.44770,0.01479
5004.37617,0.00694
5006.30464,0.00570
5008.23311,0.00552
5010.16158,0.01030
5012.09005,0.02019
5014.01851,0.01932
5015.94698,0.00205
5017.87545,-0.01294
5019.80392,-0.01282
5021.73239,-0.01056
5023.66086,-0.01414
5025.58933,-0.01547
5027.51779,-0.01089
5029.44626,-0.00359
5031.37473,-0.00542
5033.30320,-0.01475
5035.23167,-0.00833
5037.16014,0.01104
5039.08861,0.02305
5041.01708,0.01941
5042.94554,0.01260
5044.87401,0.00807
5046.80248,-0.00121
5048.73095,0.00303
5050.65942,0.02713
5052.58789,0.03396
5054.51636,0.00665
5056.44482,-0.02415
5058.37329,-0.02418
5060.30176,0.00282
5062.23023,0.01906
5064.15870,0.01981
5066.08717,0.02803
5068.01564,0.03320
5069.94410,0.02266
5071.87257,0.00761
5073.80104,-0.00191
5075.72951,0.00172
5077.65798,0.01310
5079.58645,0.01801
5081.51492,0.01637
5083.44339,0.00863
5085.37185,-0.00590
5087.30032,-0.01427
5089.22879,-0.00537
5091.15726,0.01619
5093.08573,0.03659
5095.01420,0.04238
5096.94267,0.02978
5098.87113,0.01028
5100.79960,-0.00535
5102.72807,-0.00987
5104.65654,-0.00239
5106.58501,0.00298
5108.51348,0.00375
5110.44195,0.01023
5112.37042,0.02238
5114.29888,0.02580
5116.22735,0.01069
5118.15582,-0.01049
5120.08429,-0.01091
5122.01276,0.01313
5123.94123,0.03017
5125.86970,0.03553
5127.79816,0.03729
5129.72663,0.02709
5131.65510,0.02345
5133.58357,0.03367
5135.51204,0.02806
5137.44051,0.00165
5139.36898,-0.01659
5141.29745,-0.00541
5143.22591,0.02030
5145.15438,0.01824
5147.08285,-0.00845
5149.01132,-0.01337
5150.93979,0.00535
5152.86826,0.02327
5154.79673,0.03475
5156.72519,0.03769
5158.65366,0.03477
5160.58213,0.03693
5162.51060,0.03917
5164.43907,0.03425
5166.36754,0.03596
5168.29601,0.04546
5170.22448,0.03664
5172.15294,0.00603
5174.08141,-0.00944
5176.00988,0.00575
5177.93835,0.03107
5179.86682,0.04333
5181.79529,0.03644
5183.72376,0.02028
5185.65222,0.00948
5187.58069,0.01639
5189.50916,0.02209
5191.43763,0.01146
5193.36610,0.00590
5195.29457,0.01154
5197.22304,0.01805
5199.15151,0.02650
5201.07997,0.03362
5203.00844,0.03362
5204.93691,0.03423
5206.86538,0.04271
5208.79385,0.04598
5210.72232,0.03145
5212.65079,0.01316
5214.57925,0.00717
5216.50772,-0.00080
5218.43619,-0.01674
5220.36466,-0.01945
5222.29313,-0.00206
5224.22160,0.03159
5226.15007,0.06447
5228.07854,0.07092
5230.00700,0.05000
5231.93547,0.01702
5233.86394,0.00100
5235.79241,0.01393
5237.72088,0.03683
5239.64935,0.05861
5241.57782,0.07687
5243.50628,0.07653
5245.43475,0.05725
5247.36322,0.04397
5249.29169,0.03909
5251.22016,0.02237
5253.14863,0.00269
5255.07710,0.01760
5257.00556,0.05313
5258.93403,0.05388
5260.86250,0.03086
5262.79097,0.03280
5264.71944,0.05350
5266.64791,0.05522
5268.57638,0.04173
5270.50485,0.03227
5272.43331,0.02342
5274.36178,0.02348
5276.29025,0.04404
5278.21872,0.05166
5280.14719,0.04548
5282.07566,0.05359
5284.00413,0.04365
5285.93259,0.01043
5287.86106,0.00333
5289.78953,0.03295
5291.71800,0.05872
5293.64647,0.04759
5295.57494,0.02506
5297.50341,0.01977
5299.43188,0.03062
5301.36034,0.04292
5303.28881,0.04471
5305.21728,0.04431
5307.14575,0.05046
5309.07422,0.04718
5311.00269,0.02738
5312.93116,0.01499
5314.85962,0.02505
5316.78809,0.04243
5318.71656,0.05060
5320.64503,0.04887
5322.57350,0.04241
5324.50197,0.03655
5326.43044,0.03336
5328.35891,0.03298
5330.28737,0.02624
5332.21584,0.01360
5334.14431,0.00701
5336.07278,-0.00683
5338.00125,-0.01554
5339.92972,0.01885
5341.85819,0.07048
5343.78665,0.09734
5345.71512,0.07481
5347.64359,0.03878
5349.57206,0.03435
5351.50053,0.04310
5353.42900,0.03420
5355.35747,0.01338
5357.28594,0.00139
5359.21440,-0.00220
5361.14287,-0.00176
5363.07134,0.02151
5364.99981,0.06450
5366.92828,0.07531
5368.85675,0.04791
5370.78522,0.02839
5372.71368,0.02516
5374.64215,0.02156
5376.57062,0.02667
5378.49909,0.04056
5380.42756,0.04666
5382.35603,0.03681
5384.28450,0.02041
5386.21297,0.02087
5388.14143,0.02958
5390.06990,0.03532
5391.99837,0.04174
5393.92684,0.03874
5395.85531,0.02814
5397.78378,0.02697
5399.71225,0.04157
5401.64071,0.05840
5403.56918,0.06278
5405.49765,0.06755
5407.42612,0.08327
5409.35459,0.09130
5411.28306,0.06914
5413.21153,0.04505
5415.13999,0.05587
5417.06846,0.05955
5418.99693,0.03888
5420.92540,0.03429
5422.85387,0.04995
5424.78234,0.05818
5426.71081,0.06134
5428.63928,0.05754
5430.56774,0.04822
5432.49621,0.05836
5434.42468,0.06925
5436.35315,0.06154
5438.28162,0.06100
5440.21009,0.06513
5442.13856,0.06152
5444.06702,0.05704
5445.99549,0.04708
5447.92396,0.04322
5449.85243,0.04821
5451.78090,0.03728
5453.70937,0.03440
5455.63784,0.05640
5457.56631,0.06387
5459.49477,0.04970
5461.42324,0.04189
5463.35171,0.04936
5465.28018,0.07271
5467.20865,0.08797
5469.13712,0.07054
5471.06559,0.04848
5472.99405,0.04611
5474.92252,0.06092
5476.85099,0.09058
5478.77946,0.10232
5480.70793,0.08309
5482.63640,0.07135
5484.56487,0.08368
5486.49334,0.09245
5488.42180,0.09638
5490.35027,0.10834
5492.27874,0.11086
5494.20721,0.11310
5496.13568,0.12719
5498.06415,0.11139
5499.99262,0.06671
5501.92108,0.05254
5503.84955,0.06634
5505.77802,0.07570
5507.70649,0.08005
5509.63496,0.08410
5511.56343,0.08831
5513.49190,0.08232
5515.42037,0.06948
5517.34883,0.06561
5519.27730,0.05245
5521.20577,0.01999
5523.13424,0.00376
5525.06271,0.03107
5526.99118,0.07291
5528.91965,0.08530
5530.84811,0.07620
5532.77658,0.08581
5534.70505,0.10797
5536.63352,0.10758
5538.56199,0.08759
5540.49046,0.06799
5542.41893,0.05025
5544.34740,0.03600
5546.27586,0.02978
5548.20433,0.03553
5550.13280,0.05113
5552.06127,0.06915
5553.98974,0.08995
5555.91821,0.11692
5557.84668,0.13202
5559.77514,0.11013
5561.70361,0.06376
5563.63208,0.02486
5565.56055,0.01369
5567.48902,0.03311
5569.41749,0.05265
5571.34596,0.05274
5573.27443,0.05163
5575.20289,0.04741
5577.13136,0.03657
5579.05983,0.03980
5580.98830,0.05817
5582.91677,0.07334
5584.84524,0.06914
5586.77371,0.05865
5588.70217,0.06612
5590.63064,0.07290
5592.55911,0.05472
5594.48758,0.02773
5596.41605,0.02236
5598.34452,0.04606
5600.27299,0.07679
5602.20145,0.09556
5604.12992,0.10158
5606.05839,0.08609
5607.98686,0.05967
5609.91533,0.06975
5611.84380,0.10809
5613.77227,0.12367
5615.70074,0.11430
5617.62920,0.08964
5619.55767,0.07116
5621.48614,0.06831
5623.41461,0.04683
5625.34308,0.04142
5627.27155,0.07963
5629.20002,0.07635
5631.12848,0.03437
5633.05695,0.03091
5634.98542,0.05944
5636.91389,0.06941
5638.84236,0.05843
5640.77083,0.06171
5642.69930,0.06797
5644.62777,0.04192
5646.55623,0.00106
5648.48470,-0.00836
5650.41317,0.02032
5652.34164,0.05577
5654.27011,0.07521
5656.19858,0.07758
5658.12705,0.06099
5660.05551,0.03611
5661.98398,0.03477
5663.91245,0.05937
5665.84092,0.08885
5667.76939,0.10919
5669.69786,0.10588
5671.62633,0.08885
5673.55480,0.07930
5675.48326,0.06861
5677.41173,0.05293
5679.34020,0.05005
5681.26867,0.05004
5683.19714,0.04528
5685.12561,0.06096
5687.05408,0.10060
5688.98254,0.14047
5690.91101,0.16027
5692.83948,0.15188
5694.76795,0.11706
5696.69642,0.07642
5698.62489,0.05531
5700.55336,0.07209
5702.48183,0.12919
5704.41029,0.16123
5706.33876,0.12851
5708.26723,0.07689
5710.19570,0.03212
5712.12417,0.01678
5714.05264,0.03945
5715.98111,0.05352
5717.90957,0.06050
5719.83804,0.06561
5721.76651,0.05262
5723.69498,0.05609
5725.62345,0.06496
5727.55192,0.03402
5729.48039,0.00941
5731.40886,0.04145
5733.33732,0.08919
5735.26579,0.09779
5737.19426,0.06731
5739.12273,0.05385
5741.05120,0.07797
5742.97967,0.07672
5744.90814,0.02395
5746.83660,-0.01302
5748.76507,0.01364
5750.69354,0.06647
5752.62201,0.07980
5754.55048,0.05887
5756.47895,0.07765
5758.40742,0.12293
5760.33588,0.11593
5762.26435,0.07696
5764.19282,0.05077
5766.12129,0.03526
5768.04976,0.03325
5769.97823,0.02865
5771.90670,0.02000
5773.83517,0.01741
5775.76363,0.02395
5777.69210,0.04729
5779.62057,0.07810
5781.54904,0.10553
5783.47751,0.11809
5785.40598,0.09904
5787.33445,0.05942
5789.26291,0.03266
5791.19138,0.02846
5793.11985,0.04749
5795.04832,0.07921
5796.97679,0.08916
5798.90526,0.08340
5800.83373,0.08794
5802.76220,0.09072
5804.69066,0.07727
5806.61913,0.05632
5808.54760,0.04912
5810.47607,0.07689
5812.40454,0.11204
5814.33301,0.09091
5816.26148,0.02842
5818.18994,0.01290
5820.11841,0.05729
5822.04688,0.05498
5823.97535,-0.00219
5825.90382,0.00089
5827.83229,0.06274
5829.76076,0.09259
5831.68923,0.08201
5833.61769,0.05900
5835.54616,0.02881
5837.47463,0.01124
5839.40310,0.00947
5841.33157,0.01396
5843.26004,0.02308
5845.18851,0.02185
5847.11697,0.00712
5849.04544,0.01479
5850.97391,0.06071
5852.90238,0.11509
5854.83085,0.16722
5856.75932,0.18743
5858.68779,0.15421
5860.61626,0.12094
5862.54472,0.10559
5864.47319,0.05404
5866.40166,-0.00779
5868.33013,-0.02052
5870.25860,-0.02864
5872.18707,-0.04719
5874.11554,-0.04249
5876.04400,-0.03573
5877.97247,-0.04392
5879.90094,-0.04063
5881.82941,-0.00905
5883.75788,0.03145
5885.68635,0.06056
5887.61482,0.05969
5889.54329,0.03786
5891.47175,0.04040
5893.40022,0.04346
5895.32869,0.02579
5897.25716,0.04325
5899.18563,0.09345
5901.11410,0.11563
5903.04257,0.11594
5904.97103,0.11190
5906.89950,0.08045
5908.82797,0.04390
5910.75644,0.05807
5912.68491,0.12273
5914.61338,0.16009
5916.54185,0.14015
5918.47032,0.12546
5920.39878,0.10208
5922.32725,0.05432
5924.25572,0.03372
5926.18419,0.03386
5928.11266,0.04790
5930.04113,0.07162
5931.96960,0.07692
5933.89806,0.06676
5935.82653,0.04531
5937.75500,0.02540
5939.68347,0.04846
5941.61194,0.09480
5943.54041,0.07722
5945.46888,0.02937
5947.39734,0.05071
5949.32581,0.10178
5951.25428,0.10370
5953.18275,0.08280
5955.11122,0.07930
5957.03969,0.08003
5958.96816,0.08061
5960.89663,0.07169
5962.82509,0.03106
5964.75356,0.00012
5966.68203,0.00792
5968.61050,0.03875
5970.53897,0.07487
5972.46744,0.08170
5974.39591,0.05829
5976.32437,0.02201
5978.25284,-0.00784
5980.18131,0.01400
5982.10978,0.06612
5984.03825,0.08821
5985.96672,0.08793
5987.89519,0.09707
5989.82366,0.10036
5991.75212,0.07661
5993.68059,0.05506
5995.60906,0.06622
5997.53753,0.07993
5999.46600,0.05854
6001.39447,0.02606
6003.32294,0.02631
6005.25140,0.05157
6007.17987,0.05925
6009.10834,0.04497
6011.03681,0.05648
6012.96528,0.09431
6014.89375,0.09560
6016.82222,0.05745
6018.75069,0.04295
6020.67915,0.07380
6022.60762,0.09603
6024.53609,0.07094
6026.46456,0.04392
6028.39303,0.09478
6030.32150,0.19624
6032.24997,0.21223
6034.17843,0.12551
6036.10690,0.05719
6038.03537,0.04782
6039.96384,0.04792
6041.89231,0.05046
6043.82078,0.06280
6045.74925,0.07734
6047.67772,0.08937
6049.60618,0.09599
6051.53465,0.11385
6053.46312,0.12507
6055.39159,0.08998
6057.32006,0.03474
6059.24853,-0.01262
6061.17700,-0.00653
6063.10546,0.07988
6065.03393,0.13359
6066.96240,0.08898
6068.89087,0.00520
6070.81934,-0.03490
6072.74781,-0.01082
6074.67628,0.04536
6076.60475,0.09897
6078.53321,0.11108
6080.46168,0.09774
6082.39015,0.09847
6084.31862,0.12534
6086.24709,0.15415
6088.17556,0.11426
6090.10403,0.03167
6092.03249,-0.00207
6093.96096,0.02168
6095.88943,0.04621
6097.81790,0.02849
6099.74637,0.00690
6101.67484,0.03829
6103.60331,0.07877
6105.53177,0.06623
6107.46024,0.01871
6109.38871,0.00815
6111.31718,0.03497
6113.24565,0.01645
6115.17412,-0.00248
6117.10259,0.06078
6119.03106,0.12340
6120.95952,0.12203
6122.88799,0.11435
6124.81646,0.10308
6126.74493,0.06571
6128.67340,0.02526
6130.60187,0.01146
6132.53034,0.01005
6134.45880,0.01480
6136.38727,0.03956
6138.31574,0.05760
6140.24421,0.04236
6142.17268,0.02212
6144.10115,0.02448
6146.02962,0.04091
6147.95809,0.07114
6149.88655,0.10181
6151.81502,0.08290
6153.74349,0.02061
6155.67196,-0.00055
6157.60043,0.02692
6159.52890,0.05062
6161.45737,0.09122
6163.38583,0.12694
6165.31430,0.07817
6167.24277,0.01156
6169.17124,0.01486
6171.09971,0.05747
6173.02818,0.06615
6174.95665,0.05401
6176.88512,0.08946
6178.81358,0.13929
6180.74205,0.11777
6182.67052,0.05056
6184.59899,0.04152
6186.52746,0.09758
6188.45593,0.12544
6190.38440,0.11645
6192.31286,0.13176
6194.24133,0.16683
6196.16980,0.16218
6198.09827,0.08415
6200.02674,0.03038
6201.95521,0.07642
6203.88368,0.12766
6205.81215,0.11845
6207.74061,0.10364
6209.66908,0.06788
6211.59755,-0.00296
6213.52602,-0.02383
6215.45449,0.01569
6217.38296,0.05266
6219.31143,0.04965
6221.23989,0.00780
6223.16836,-0.03452
6225.09683,-0.03541
6227.02530,-0.00728
6228.95377,0.04671
6230.88224,0.14049
6232.81071,0.19168
6234.73918,0.11621
6236.66764,-0.00861
6238.59611,-0.05334
6240.52458,0.01802
6242.45305,0.11115
6244.38152,0.14795
6246.30999,0.14578
6248.23846,0.12907
6250.16692,0.10308
6252.09539,0.08545
6254.02386,0.09835
6255.95233,0.12083
6257.88080,0.14131
6259.80927,0.14721
6261.73774,0.09745
6263.66621,0.04824
6265.59467,0.07147
6267.52314,0.10917
6269.45161,0.13583
6271.38008,0.17191
6273.30855,0.18298
6275.23702,0.16068
6277.16549,0.14661
6279.09395,0.11923
6281.02242,0.04179
6282.95089,-0.04140
6284.87936,-0.08073
6286.80783,-0.10104
6288.73630,-0.10074
6290.66477,-0.04630
6292.59323,0.00330
6294.52170,0.01919
6296.45017,0.06209
6298.37864,0.10062
6300.30711,0.10462
6302.23558,0.14803
6304.16405,0.23727
6306.09252,0.29564
6308.02098,0.26813
6309.94945,0.18604
6311.87792,0.13945
6313.80639,0.13172
6315.73486,0.09120
6317.66333,0.02670
6319.59180,0.05837
6321.52026,0.16646
6323.44873,0.20719
6325.37720,0.20777
6327.30567,0.19255
6329.23414,0.11624
6331.16261,0.04254
6333.09108,0.03393
6335.01955,0.06203
6336.94801,0.08375
6338.87648,0.06381
6340.80495,0.01411
6342.73342,0.00296
6344.66189,0.05120
6346.59036,0.13621
6348.51883,0.20858
6350.44729,0.20004
6352.37576,0.14215
6354.30423,0.11867
6356.23270,0.11020
6358.16117,0.09257
6360.08964,0.09784
6362.01811,0.10083
6363.94658,0.04931
6365.87504,-0.02982
6367.80351,-0.06415
6369.73198,-0.02481
6371.66045,0.03101
6373.58892,0.08107
6375.51739,0.12896
6377.44586,0.12437
6379.37432,0.08176
6381.30279,0.05510
6383.23126,0.04218
6385.15973,0.03614
6387.08820,0.04548
6389.01667,0.05426
6390.94514,0.05580
6392.87361,0.04303
6394.80207,0.02105
6396.73054,0.01701
6398.65901,0.03801
6400.58748,0.11342
6402.51595,0.21139
6404.44442,0.25006
6406.37289,0.25984
6408.30135,0.27333
6410.22982,0.22858
6412.15829,0.13877
6414.08676,0.08674
6416.01523,0.06222
6417.94370,0.03200
6419.87217,0.00263
6421.80064,-0.03354
6423.72910,-0.05270
6425.65757,-0.01826
6427.58604,0.03252
6429.51451,0.08621
6431.44298,0.14350
6433.37145,0.13035
6435.29992,0.05411
6437.22838,-0.02466
6439.15685,-0.05153
6441.08532,-0.00174
6443.01379,0.04590
6444.94226,0.04833
6446.87073,0.05563
6448.79920,0.07773
6450.72766,0.11708
6452.65613,0.13365
6454.58460,0.09265
6456.51307,0.04566
6458.44154,0.02957
6460.37001,0.03237
6462.29848,0.05712
6464.22695,0.10886
6466.15541,0.15016
6468.08388,0.12786
6470.01235,0.05056
6471.94082,-0.01599
6473.86929,-0.05283
6475.79776,-0.04789
6477.72623,0.05073
6479.65469,0.18790
6481.58316,0.22472
6483.51163,0.14275
6485.44010,0.04785
6487.36857,-0.02901
6489.29704,-0.11284
6491.22551,-0.13712
6493.15398,-0.04707
6495.08244,0.04692
6497.01091,0.10026
6498.93938,0.12706
6500.86785,0.09988
6502.79632,0.07812
6504.72479,0.06705
6506.65326,0.00813
6508.58172,-0.02951
6510.51019,0.01300
6512.43866,0.05795
6514.36713,0.04462
6516.29560,0.01821
6518.22407,-0.01158
6520.15254,-0.06581
6522.08101,-0.06305
6524.00947,0.07192
6525.93794,0.19166
6527.86641,0.12101
6529.79488,0.01104
6531.72335,0.03154
6533.65182,0.06953
6535.58029,0.04072
6537.50875,0.02833
6539.43722,0.01859
6541.36569,-0.04777
6543.29416,-0.07551
6545.22263,0.01068
6547.15110,0.05989
6549.07957,-0.02951
6551.00804,-0.11341
6552.93650,-0.08986
6554.86497,-0.02731
6556.79344,0.03330
6558.72191,0.06823
6560.65038,0.08815
6562.57885,0.07683
6564.50732,0.02877
6566.43578,0.04522
6568.36425,0.09517
6570.29272,0.00352
6572.22119,-0.15309
6574.14966,-0.10895
6576.07813,0.05101
6578.00660,0.07784
6579.93507,0.04047
6581.86353,0.08028
6583.79200,0.15515
6585.72047,0.18759
6587.64894,0.14810
6589.57741,0.06837
6591.50588,-0.00421
6593.43435,-0.06594
6595.36281,-0.07528
6597.29128,0.02248
6599.21975,0.15172
6601.14822,0.17349
6603.07669,0.12185
6605.00516,0.09042
6606.93363,0.08537
6608.86210,0.07932
6610.79056,0.00060
6612.71903,-0.06849
6614.64750,0.00047
6616.57597,0.10659
6618.50444,0.10610
6620.43291,0.03500
6622.36138,-0.00447
6624.28984,0.00615
6626.21831,0.02929
6628.14678,0.02607
6630.07525,-0.00662
6632.00372,-0.03582
6633.93219,-0.06018
6635.86066,-0.09774
6637.78912,-0.15151
6639.71759,-0.13959
6641.64606,-0.04962
6643.57453,0.01282
6645.50300,0.03165
6647.43147,0.07308
6649.35994,0.10723
6651.28841,0.11996
6653.21687,0.15776
6655.14534,0.19666
6657.07381,0.19411
6659.00228,0.19601
6660.93075,0.20814
6662.85922,0.16834
6664.78769,0.08912
6666.71615,0.01787
6668.64462,-0.00976
6670.57309,0.01731
6672.50156,0.03549
6674.43003,0.02538
6676.35850,0.02771
6678.28697,-0.00106
6680.21544,-0.05979
6682.14390,-0.05326
6684.07237,0.01498
6686.00084,0.03652
6687.92931,0.01657
6689.85778,0.02222
6691.78625,0.05444
6693.71472,0.10434
6695.64318,0.14413
6697.57165,0.13920
6699.50012,0.09410
6701.42859,0.01298
6703.35706,-0.05433
6705.28553,-0.06046
6707.21400,-0.03059
6709.14247,-0.01567
6711.07093,-0.03281
6712.99940,-0.04899
6714.92787,-0.06872
6716.85634,-0.09386
6718.78481,-0.03273
6720.71328,0.07400
6722.64175,0.08328
6724.57021,0.03239
6726.49868,-0.02374
6728.42715,-0.07540
6730.35562,-0.07438
6732.28409,-0.04839
6734.21256,-0.03855
6736.14103,0.01168
6738.06950,0.08422
6739.99796,0.09859
6741.92643,0.09274
6743.85490,0.09238
6745.78337,0.06557
6747.71184,0.05493
6749.64031,0.05944
6751.56878,0.01030
6753.49724,-0.07579
6755.42571,-0.12145
6757.35418,-0.12076
6759.28265,-0.14815
6761.21112,-0.22703
6763.13959,-0.24913
6765.06806,-0.13336
6766.99653,0.03541
6768.92499,0.13699
6770.85346,0.13790
6772.78193,0.07260
6774.71040,-0.01601
6776.63887,-0.08293
6778.56734,-0.05284
6780.49581,0.02533
6782.42427,0.06237
6784.35274,0.06054
6786.28121,0.01273
6788.20968,-0.09719
6790.13815,-0.18902
6792.06662,-0.15258
6793.99509,-0.05810
6795.92355,0.01511
6797.85202,0.08868
6799.78049,0.15106
6801.70896,0.18134
6803.63743,0.17536
6805.56590,0.12224
6807.49437,0.04635
6809.42284,0.02643
6811.35130,0.12354
6813.27977,0.21073
6815.20824,0.12108
6817.13671,-0.05967
6819.06518,-0.11770
6820.99365,-0.00978
6822.92212,0.09249
6824.85058,0.09573
6826.77905,0.16293
6828.70752,0.28267
6830.63599,0.30257
6832.56446,0.16782
6834.49293,-0.00203
6836.42140,-0.00587
6838.34987,0.11180
6840.27833,0.15760
6842.20680,0.12384
6844.13527,0.06804
6846.06374,0.05174
6847.99221,0.12744
6849.92068,0.17399
6851.84915,0.08215
6853.77761,-0.03507
6855.70608,-0.13183
6857.63455,-0.18158
6859.56302,-0.11697
6861.49149,-0.01097
6863.41996,0.01540
6865.34843,0.03175
6867.27690,0.10137
6869.20536,0.15517
6871.13383,0.19070
6873.06230,0.26478
6874.99077,0.35352
6876.91924,0.37772
6878.84771,0.27770
6880.77618,0.08300
6882.70464,0.00764
6884.63311,0.08753
6886.56158,0.11044
6888.49005,0.04688
6890.41852,0.02422
6892.34699,-0.00785
6894.27546,-0.11485
6896.20393,-0.16482
6898.13239,-0.07001
6900.06086,0.02003
6901.98933,0.02837
6903.91780,0.03701
6905.84627,0.12014
6907.77474,0.21445
6909.70321,0.17249
6911.63167,-0.03333
6913.56014,-0.20090
6915.48861,-0.19338
6917.41708,-0.12375
6919.34555,0.07098
6921.27402,0.34525
6923.20249,0.39239
6925.13096,0.24356
6927.05942,0.11315
6928.98789,0.05682
6930.91636,0.00872
6932.84483,0.03553
6934.77330,0.12299
6936.70177,0.12935
6938.63024,0.12652
6940.55870,0.14675
6942.48717,0.05194
6944.41564,-0.03151
6946.34411,0.02038
6948.27258,0.09749
6950.20105,0.10873
6952.12952,0.04981
6954.05799,0.01690
6955.98645,0.12293
6957.91492,0.23332
6959.84339,0.21196
6961.77186,0.02773
6963.70033,-0.19243
6965.62880,-0.24564
6967.55727,-0.06031
6969.48573,0.26517
6971.41420,0.47576
6973.34267,0.50703
6975.27114,0.55635
6977.19961,0.52266
6979.12808,0.30520
6981.05655,0.10150
6982.98501,0.06316
6984.91348,0.11263
6986.84195,0.14386
6988.77042,0.20242
6990.69889,0.26630
6992.62736,0.24646
6994.55583,0.12858
6996.48430,-0.06298
6998.41276,-0.25911
7000.34123,-0.33209
7002.26970,-0.16995
7004.19817,0.07043
7006.12664,0.17411
7008.05511,0.20919
7009.98358,0.23787
7011.91204,0.20085
7013.84051,0.09633
7015.76898,-0.01768
7017.69745,-0.08476
7019.62592,-0.07335
7021.55439,-0.03699
7023.48286,-0.06591
7025.41133,-0.09107
7027.33979,-0.00434
7029.26826,0.08769
7031.19673,0.12142
7033.12520,0.17321
7035.05367,0.17466
7036.98214,0.12623
7038.91061,0.08978
7040.83907,0.00936
7042.76754,-0.08401
7044.69601,-0.08418
7046.62448,-0.00020
7048.55295,0.07667
7050.48142,0.03661
7052.40989,-0.03659
7054.33836,-0.03070
7056.26682,-0.02339
7058.19529,-0.05615
7060.12376,-0.04631
7062.05223,0.00961
7063.98070,0.01231
7065.90917,-0.10215
7067.83764,-0.24407
7069.76610,-0.25633
7071.69457,-0.09082
7073.62304,0.06477
7075.55151,0.06782
7077.47998,0.00473
7079.40845,0.03954
7081.33692,0.17022
7083.26539,0.18385
7085.19385,0.11603
7087.12232,0.11126
7089.05079,0.15305
7090.97926,0.19651
7092.90773,0.31583
7094.83620,0.43069
7096.76467,0.36909
7098.69313,0.19763
7100.62160,0.06133
7102.55007,-0.01834
7104.47854,-0.02560
7106.40701,0.06473
7108.33548,0.21473
7110.26395,0.28525
7112.19242,0.24979
7114.12088,0.22616
7116.04935,0.15622
7117.97782,-0.04091
7119.90629,-0.09124
7121.83476,0.07366
7123.76323,0.19435
7125.69170,0.17518
7127.62016,0.09233
7129.54863,0.05875
7131.47710,0.12127
7133.40557,0.15436
7135.33404,0.14378
7137.26251,0.17881
7139.19098,0.21072
7141.11944,0.19076
7143.04791,0.10649
7144.97638,-0.05787
7146.90485,-0.15846
7148.83332,-0.09208
7150.76179,-0.02007
7152.69026,-0.02254
7154.61873,-0.02605
7156.54719,-0.08093
7158.47566,-0.14091
7160.40413,-0.08404
7162.33260,-0.04458
7164.26107,-0.08836
7166.18954,-0.09120
7168.11801,-0.05792
7170.04647,-0.02230
7171.97494,0.00233
7173.90341,-0.01528
7175.83188,0.01602
7177.76035,0.08755
7179.68882,0.12657
7181.61729,0.19559
7183.54576,0.27840
7185.47422,0.26717
7187.40269,0.20064
7189.33116,0.14282
7191.25963,0.09214
7193.18810,0.06133
7195.11657,0.06526
7197.04504,0.08835
7198.97350,0.15353
7200.90197,0.29088
7202.83044,0.53868
7204.75891,0.69144
7206.68738,0.38147
7208.61585,-0.00193
7210.54432,-0.08466
7212.47279,0.05104
7214.40125,0.19265
7216.32972,0.28828
7218.25819,0.27749
7220.18666,0.14998
7222.11513,0.09973
7224.04360,0.15943
7225.97207,0.19246
7227.90053,0.06464
7229.82900,-0.12726
7231.75747,-0.16639
7233.68594,-0.11551
7235.61441,-0.10374
7237.54288,-0.06495
7239.47135,-0.04846
7241.39982,-0.16216
7243.32828,-0.26671
7245.25675,-0.09834
7247.18522,0.20370
7249.11369,0.39832
7251.04216,0.43821
7252.97063,0.45539
7254.89910,0.41334
7256.82756,0.22322
7258.75603,-0.02874
7260.68450,-0.12220
7262.61297,0.14051
7264.54144,0.33539
7266.46991,0.19894
7268.39838,0.17147
7270.32685,0.34092
7272.25531,0.35891
7274.18378,0.25359
7276.11225,0.24039
7278.04072,0.20225
7279.96919,0.00369
7281.89766,-0.25031
7283.82613,-0.33804
7285.75459,-0.28255
7287.68306,-0.13877
7289.61153,0.09608
7291.54000,0.23092
7293.46847,0.19175
7295.39694,0.18060
7297.32541,0.25313
7299.25387,0.31776
7301.18234,0.23281
7303.11081,0.00271
7305.03928,-0.11419
7306.96775,-0.02469
7308.89622,-0.02995
7310.82469,-0.15260
7312.75316,-0.06974
7314.68162,0.15997
7316.61009,0.36878
7318.53856,0.42122
7320.46703,0.31204
7322.39550,0.09743
7324.32397,-0.05744
7326.25244,0.02012
7328.18090,0.15059
7330.10937,0.05736
7332.03784,-0.06638
7333.96631,-0.08544
7335.89478,-0.09991
7337.82325,-0.13090
7339.75172,-0.04549
7341.68019,0.33506
7343.60865,0.67132
7345.53712,0.68521
7347.46559,0.39201
7349.39406,0.08059
7351.32253,-0.01915
7353.25100,0.07011
7355.17947,0.23111
7357.10793,0.31766
7359.03640,0.15890
7360.96487,-0.03707
7362.89334,0.05956
7364.82181,0.31527
7366.75028,0.38553
7368.67875,0.22094
7370.60722,0.07492
7372.53568,0.10503
7374.46415,0.31133
7376.39262,0.47638
7378.32109,0.38420
7380.24956,0.16874
7382.17803,-0.03595
7384.10650,-0.06682
7386.03496,-0.00528
7387.96343,-0.03161
7389.89190,-0.03653
7391.82037,0.05299
7393.74884,0.13384
7395.67731,0.05937
7397.60578,-0.11438
7399.53425,-0.14207
7401.46271,-0.05513
7403.39118,-0.00785
7405.31965,0.07576
7407.24812,0.10771
7409.17659,-0.00562
7411.10506,-0.11396
7413.03353,-0.12256
7414.96199,-0.08188
7416.89046,-0.13253
7418.81893,-0.35241
7420.74740,-0.41474
7422.67587,-0.27120
7424.60434,-0.12116
7426.53281,0.01054
7428.46128,0.13706
7430.38974,0.25641
7432.31821,0.26797
7434.24668,0.18874
7436.17515,0.12601
7438.10362,0.09153
7440.03209,0.04881
7441.96056,-0.02657
7443.88902,-0.08735
7445.81749,-0.01926
7447.74596,0.08775
7449.67443,0.02077
7451.60290,-0.09149
7453.53137,-0.05631
7455.45984,-0.12201
7457.38831,-0.21214
7459.31677,-0.11368
7461.24524,0.00570
7463.17371,0.02043
7465.10218,0.07923
7467.03065,0.24613
7468.95912,0.42151
7470.88759,0.46333
7472.81605,0.38055
7474.74452,0.27094
7476.67299,0.05152
7478.60146,-0.29502
7480.52993,-0.48283
7482.45840,-0.37726
7484.38687,-0.16444
7486.31533,0.12238
7488.24380,0.35867
7490.17227,0.30249
7492.10074,0.05842
7494.02921,-0.15075
7495.95768,-0.26459
7497.88615,-0.17200
