399.19301,3.72708
401.12148,0.03714
403.04995,0.07107
404.97842,0.17306
406.90689,0.13024
408.83536,0.14739
410.76382,0.33920
412.69229,0.43332
414.62076,0.37236
416.54923,0.39721
418.47770,0.53752
420.40617,0.40316
422.33464,0.12285
424.26311,-0.03535
426.19157,-0.07266
428.12004,-0.03442
430.04851,0.04505
431.97698,0.08218
433.90545,0.05633
435.83392,0.02026
437.76239,-0.02966
439.69085,-0.05425
441.61932,-0.03443
443.54779,-0.04114
445.47626,-0.07625
447.40473,-0.05577
449.33320,-0.02271
451.26167,-0.02543
453.19013,-0.00563
455.11860,0.03564
457.04707,0.12250
458.97554,0.22204
460.90401,0.21154
462.83248,0.15391
464.76095,0.11133
466.68942,0.05331
468.61788,-0.00459
470.54635,0.02393
472.47482,0.30424
474.40329,0.65718
476.33176,0.49329
478.26023,0.25587
480.18870,0.17581
482.11716,0.11121
484.04563,0.00674
485.97410,-0.04454
487.90257,-0.01793
489.83104,0.01282
491.75951,0.00880
493.68798,-0.00489
495.61645,-0.00334
497.54491,0.00809
499.47338,0.00336
501.40185,0.00202
503.33032,0.03078
505.25879,0.07610
507.18726,0.09759
509.11573,0.08677
511.04419,0.07862
512.97266,0.03074
514.90113,-0.05746
516.82960,-0.05629
518.75807,0.01630
520.68654,0.02455
522.61501,0.00194
524.54348,0.02533
526.47194,0.08011
528.40041,0.08892
530.32888,0.03724
532.25735,-0.01940
534.18582,-0.03334
536.11429,-0.00485
538.04276,0.03325
539.97122,0.06827
541.89969,0.11467
543.82816,0.14566
545.75663,0.13866
547.68510,0.12188
549.61357,0.18226
551.54204,0.51720
553.47051,0.86749
555.39897,0.68940
557.32744,0.24998
559.25591,0.07896
561.18438,0.06671
563.11285,0.04059
565.04132,0.02646
566.96979,0.04072
568.89825,0.06112
570.82672,0.08678
572.75519,0.11424
574.68366,0.11783
576.61213,0.11073
578.54060,0.11168
580.46907,0.10567
582.39754,0.08826
584.32600,0.08582
586.25447,0.09323
588.18294,0.09637
590.11141,0.09908
592.03988,0.08482
593.96835,0.06027
595.89682,0.05789
597.82528,0.07328
599.75375,0.08147
601.68222,0.08492
603.61069,0.09340
605.53916,0.09850
607.46763,0.09351
609.39610,0.07811
611.32456,0.05911
613.25303,0.05151
615.18150,0.05864
617.10997,0.07611
619.03844,0.09819
620.96691,0.10745
622.89538,0.10513
624.82385,0.09057
626.75231,0.05835
628.68078,0.03805
630.60925,0.04522
632.53772,0.05215
634.46619,0.04840
636.39466,0.06027
638.32313,0.08319
640.25159,0.08756
642.18006,0.08532
644.10853,0.10874
646.03700,0.14457
647.96547,0.14837
649.89394,0.11838
651.82241,0.09803
653.75088,0.10180
655.67934,0.11240
657.60781,0.12949
659.53628,0.14523
661.46475,0.12794
663.39322,0.09386
665.32169,0.08247
667.25016,0.10539
669.17862,0.12813
671.10709,0.11116
673.03556,0.09703
674.96403,0.08966
676.89250,0.07640
678.82097,0.07870
680.74944,0.10317
682.67791,0.12277
684.60637,0.12610
686.53484,0.11351
688.46331,0.09627
690.39178,0.09471
692.32025,0.10478
694.24872,0.10841
696.17719,0.10561
698.10565,0.10842
700.03412,0.11200
701.96259,0.11121
703.89106,0.12230
705.81953,0.14165
707.74800,0.12769
709.67647,0.05109
711.60494,-0.02292
713.53340,0.00279
715.46187,0.08119
717.39034,0.11517
719.31881,0.10539
721.24728,0.09256
723.17575,0.10684
725.10422,0.13009
727.03268,0.12901
728.96115,0.11403
730.88962,0.10841
732.81809,0.10902
734.74656,0.09673
736.67503,0.07591
738.60350,0.06783
740.53197,0.07390
742.46043,0.08297
744.38890,0.09152
746.31737,0.09967
748.24584,0.10592
750.17431,0.10623
752.10278,0.09762
754.03125,0.08625
755.95971,0.08569
757.88818,0.10325
759.81665,0.12570
761.74512,0.13214
763.67359,0.12130
765.60206,0.10431
767.53053,0.08493
769.45900,0.07164
771.38746,0.07346
773.31593,0.08392
775.24440,0.09520
777.17287,0.10470
779.10134,0.10558
781.02981,0.09858
782.95828,0.09501
784.88674,0.09245
786.81521,0.08533
788.74368,0.08172
790.67215,0.08537
792.60062,0.09083
794.52909,0.09580
796.45756,0.10373
798.38602,0.11042
800.31449,0.10948
802.24296,0.10630
804.17143,0.10789
806.09990,0.11067
808.02837,0.10682
809.95684,0.09910
811.88531,0.09617
813.81377,0.09721
815.74224,0.09901
817.67071,0.10674
819.59918,0.12041
821.52765,0.12980
823.45612,0.12730
825.38459,0.11437
827.31305,0.09987
829.24152,0.09057
831.16999,0.08690
833.09846,0.08852
835.02693,0.09300
836.95540,0.09484
838.88387,0.09467
840.81234,0.09502
842.74080,0.09678
844.66927,0.10431
846.59774,0.11741
848.52621,0.12879
850.45468,0.13259
852.38315,0.12663
854.31162,0.11103
856.24008,0.09912
858.16855,0.10092
860.09702,0.10824
862.02549,0.11587
863.95396,0.11810
865.88243,0.11105
867.81090,0.09097
869.73937,0.05995
871.66783,0.05073
873.59630,0.07361
875.52477,0.09292
877.45324,0.09075
879.38171,0.08513
881.31018,0.08953
883.23865,0.09365
885.16711,0.09129
887.09558,0.09307
889.02405,0.10252
890.95252,0.11224
892.88099,0.11397
894.80946,0.10696
896.73793,0.10731
898.66640,0.12197
900.59486,0.13176
902.52333,0.12142
904.45180,0.10005
906.38027,0.09045
908.30874,0.10309
910.23721,0.12096
912.16568,0.12394
914.09414,0.12063
916.02261,0.12289
917.95108,0.12321
919.87955,0.12286
921.80802,0.12309
923.73649,0.11676
925.66496,0.10928
927.59343,0.10545
929.52189,0.10567
931.45036,0.11057
933.37883,0.11461
935.30730,0.11679
937.23577,0.12122
939.16424,0.12731
941.09271,0.13158
943.02117,0.13018
944.94964,0.12324
946.87811,0.11748
948.80658,0.11653
950.73505,0.11739
952.66352,0.11736
954.59199,0.11631
956.52045,0.11434
958.44892,0.11077
960.37739,0.10921
962.30586,0.11520
964.23433,0.12407
966.16280,0.12117
968.09127,0.10752
970.01974,0.10560
971.94820,0.11952
973.87667,0.12969
975.80514,0.12801
977.73361,0.12062
979.66208,0.11449
981.59055,0.11688
983.51902,0.12682
985.44748,0.13042
987.37595,0.12582
989.30442,0.12608
991.23289,0.12764
993.16136,0.11899
995.08983,0.11121
997.01830,0.11325
998.94677,0.11252
1000.87523,0.10705
1002.80370,0.10790
1004.73217,0.11714
1006.66064,0.12939
1008.58911,0.14016
1010.51758,0.13767
1012.44605,0.11790
1014.37451,0.10654
1016.30298,0.11370
1018.23145,0.12367
1020.15992,0.13149
1022.08839,0.13204
1024.01686,0.12712
1025.94533,0.14355
1027.87380,0.18479
1029.80226,0.20026
1031.73073,0.16662
1033.65920,0.12932
1035.58767,0.12020
1037.51614,0.12542
1039.44461,0.12727
1041.37308,0.12809
1043.30154,0.13628
1045.23001,0.14837
1047.15848,0.15048
1049.08695,0.14003
1051.01542,0.13355
1052.94389,0.13394
1054.87236,0.13051
1056.80083,0.12716
1058.72929,0.12706
1060.65776,0.12442
1062.58623,0.12048
1064.51470,0.12056
1066.44317,0.12469
1068.37164,0.12651
1070.30011,0.12332
1072.22857,0.12286
1074.15704,0.13041
1076.08551,0.13496
1078.01398,0.12628
1079.94245,0.11923
1081.87092,0.12650
1083.79939,0.13609
1085.72786,0.13621
1087.65632,0.12942
1089.58479,0.12518
1091.51326,0.12347
1093.44173,0.11810
1095.37020,0.11475
1097.29867,0.12216
1099.22714,0.13612
1101.15560,0.14631
1103.08407,0.14966
1105.01254,0.14747
1106.94101,0.14566
1108.86948,0.14734
1110.79795,0.14232
1112.72642,0.13445
1114.65489,0.13866
1116.58335,0.14846
1118.51182,0.14925
1120.44029,0.14250
1122.36876,0.13657
1124.29723,0.13219
1126.22570,0.13132
1128.15417,0.13489
1130.08263,0.13782
1132.01110,0.14077
1133.93957,0.14196
1135.86804,0.13678
1137.79651,0.13527
1139.72498,0.14344
1141.65345,0.14736
1143.58191,0.14365
1145.51038,0.14117
1147.43885,0.14171
1149.36732,0.14661
1151.29579,0.15066
1153.22426,0.14701
1155.15273,0.14283
1157.08120,0.14271
1159.00966,0.14217
1160.93813,0.14097
1162.86660,0.13951
1164.79507,0.13860
1166.72354,0.13886
1168.65201,0.13551
1170.58048,0.13371
1172.50894,0.13979
1174.43741,0.14285
1176.36588,0.13825
1178.29435,0.13366
1180.22282,0.13072
1182.15129,0.12671
1184.07976,0.11114
1186.00823,0.08671
1187.93669,0.09168
1189.86516,0.13026
1191.79363,0.15421
1193.72210,0.15182
1195.65057,0.14735
1197.57904,0.14514
1199.50751,0.14166
1201.43597,0.14102
1203.36444,0.14075
1205.29291,0.13738
1207.22138,0.13604
1209.14985,0.14020
1211.07832,0.14657
1213.00679,0.14902
1214.93526,0.14748
1216.86372,0.14602
1218.79219,0.14243
1220.72066,0.13541
1222.64913,0.13295
1224.57760,0.13916
1226.50607,0.14369
1228.43454,0.14172
1230.36300,0.14082
1232.29147,0.14428
1234.21994,0.14996
1236.14841,0.15268
1238.07688,0.14976
1240.00535,0.14693
1241.93382,0.14730
1243.86229,0.14597
1245.79075,0.14152
1247.71922,0.13993
1249.64769,0.14399
1251.57616,0.15011
1253.50463,0.15400
1255.43310,0.15514
1257.36157,0.15679
1259.29003,0.15727
1261.21850,0.15264
1263.14697,0.14832
1265.07544,0.15061
1267.00391,0.15596
1268.93238,0.15703
1270.86085,0.15455
1272.78932,0.15544
1274.71778,0.15884
1276.64625,0.15878
1278.57472,0.15466
1280.50319,0.14928
1282.43166,0.14739
1284.36013,0.14924
1286.28860,0.14783
1288.21706,0.14352
1290.14553,0.14272
1292.07400,0.14470
1294.00247,0.14703
1295.93094,0.15015
1297.85941,0.15081
1299.78788,0.14623
1301.71634,0.14012
1303.64481,0.13615
1305.57328,0.13854
1307.50175,0.14824
1309.43022,0.15607
1311.35869,0.15956
1313.28716,0.16305
1315.21563,0.16318
1317.14409,0.16145
1319.07256,0.16242
1321.00103,0.16230
1322.92950,0.16068
1324.85797,0.15812
1326.78644,0.15283
1328.71491,0.14970
1330.64337,0.14989
1332.57184,0.14946
1334.50031,0.15041
1336.42878,0.15434
1338.35725,0.15841
1340.28572,0.15298
1342.21419,0.13208
1344.14266,0.10820
1346.07112,0.10128
1347.99959,0.12166
1349.92806,0.14859
1351.85653,0.15594
1353.78500,0.15187
1355.71347,0.15289
1357.64194,0.15639
1359.57040,0.15675
1361.49887,0.15853
1363.42734,0.16352
1365.35581,0.16491
1367.28428,0.16351
1369.21275,0.16215
1371.14122,0.16219
1373.06969,0.16591
1374.99815,0.17100
1376.92662,0.17223
1378.85509,0.17019
1380.78356,0.16768
1382.71203,0.16809
1384.64050,0.17442
1386.56897,0.18100
1388.49743,0.17739
1390.42590,0.17195
1392.35437,0.17644
1394.28284,0.18628
1396.21131,0.18982
1398.13978,0.18585
1400.06825,0.17858
1401.99672,0.17361
1403.92518,0.17444
1405.85365,0.17386
1407.78212,0.16706
1409.71059,0.16378
1411.63906,0.16791
1413.56753,0.17177
1415.49600,0.17486
1417.42446,0.18364
1419.35293,0.18794
1421.28140,0.18055
1423.20987,0.17790
1425.13834,0.17910
1427.06681,0.18091
1428.99528,0.18636
1430.92375,0.18805
1432.85221,0.18687
1434.78068,0.19408
1436.70915,0.19915
1438.63762,0.18674
1440.56609,0.17610
1442.49456,0.17348
1444.42303,0.17216
1446.35149,0.17342
1448.27996,0.17714
1450.20843,0.17641
1452.13690,0.17508
1454.06537,0.18283
1455.99384,0.20489
1457.92231,0.21857
1459.85077,0.20125
1461.77924,0.18747
1463.70771,0.18731
1465.63618,0.18814
1467.56465,0.18226
1469.49312,0.18366
1471.42159,0.19780
1473.35006,0.20881
1475.27852,0.19904
1477.20699,0.18487
1479.13546,0.17938
1481.06393,0.18080
1482.99240,0.18331
1484.92087,0.18643
1486.84934,0.19289
1488.77780,0.20142
1490.70627,0.19945
1492.63474,0.18929
1494.56321,0.18721
1496.49168,0.19582
1498.42015,0.20101
1500.34862,0.19481
1502.27709,0.18727
1504.20555,0.18937
1506.13402,0.21304
1508.06249,0.23006
1509.99096,0.21195
1511.91943,0.19300
1513.84790,0.18737
1515.77637,0.20017
1517.70483,0.21847
1519.63330,0.22697
1521.56177,0.22680
1523.49024,0.21581
1525.41871,0.20427
1527.34718,0.19765
1529.27565,0.19509
1531.20412,0.20031
1533.13258,0.21200
1535.06105,0.21298
1536.98952,0.21079
1538.91799,0.22800
1540.84646,0.25137
1542.77493,0.24140
1544.70340,0.22133
1546.63186,0.20241
1548.56033,0.19279
1550.48880,0.19329
1552.41727,0.19638
1554.34574,0.20264
1556.27421,0.22160
1558.20268,0.24610
1560.13115,0.21927
1562.05961,0.19175
1563.98808,0.18814
1565.91655,0.19177
1567.84502,0.19744
1569.77349,0.20020
1571.70196,0.19621
1573.63043,0.19938
1575.55889,0.20641
1577.48736,0.19724
1579.41583,0.18603
1581.34430,0.18257
1583.27277,0.18079
1585.20124,0.17959
1587.12971,0.17951
1589.05818,0.18086
1590.98664,0.18460
1592.91511,0.18907
1594.84358,0.18979
1596.77205,0.18554
1598.70052,0.18207
1600.62899,0.18307
1602.55746,0.18454
1604.48592,0.18159
1606.41439,0.17572
1608.34286,0.17074
1610.27133,0.16916
1612.19980,0.17331
1614.12827,0.18458
1616.05674,0.19796
1617.98521,0.19755
1619.91367,0.19312
1621.84214,0.19794
1623.77061,0.20405
1625.69908,0.20366
1627.62755,0.20045
1629.55602,0.19661
1631.48449,0.19511
1633.41295,0.20002
1635.34142,0.21122
1637.26989,0.21015
1639.19836,0.19956
1641.12683,0.19286
1643.05530,0.19263
1644.98377,0.20421
1646.91223,0.22076
1648.84070,0.21640
1650.76917,0.20772
1652.69764,0.20753
1654.62611,0.20229
1656.55458,0.19168
1658.48305,0.18854
1660.41152,0.20301
1662.33998,0.22472
1664.26845,0.22118
1666.19692,0.20883
1668.12539,0.21087
1670.05386,0.21387
1671.98233,0.20756
1673.91080,0.20568
1675.83926,0.20478
1677.76773,0.20215
1679.69620,0.20578
1681.62467,0.21965
1683.55314,0.23831
1685.48161,0.22995
1687.41008,0.20836
1689.33855,0.19813
1691.26701,0.19841
1693.19548,0.20542
1695.12395,0.21539
1697.05242,0.22430
1698.98089,0.23268
1700.90936,0.22905
1702.83783,0.21206
1704.76629,0.20194
1706.69476,0.20131
1708.62323,0.20099
1710.55170,0.19903
1712.48017,0.20150
1714.40864,0.21335
1716.33711,0.22865
1718.26558,0.22194
1720.19404,0.20248
1722.12251,0.19314
1724.05098,0.18997
1725.97945,0.18872
1727.90792,0.19223
1729.83639,0.19813
1731.76486,0.20198
1733.69332,0.20140
1735.62179,0.19595
1737.55026,0.19538
1739.47873,0.19896
1741.40720,0.19964
1743.33567,0.19629
1745.26414,0.19492
1747.19261,0.20088
1749.12107,0.20875
1751.04954,0.20557
1752.97801,0.19661
1754.90648,0.19346
1756.83495,0.19382
1758.76342,0.19103
1760.69189,0.18851
1762.62035,0.18967
1764.54882,0.19083
1766.47729,0.19438
1768.40576,0.20191
1770.33423,0.20871
1772.26270,0.20979
1774.19117,0.20263
1776.11964,0.19507
1778.04810,0.19282
1779.97657,0.19228
1781.90504,0.19028
1783.83351,0.19055
1785.76198,0.19186
1787.69045,0.19378
1789.61892,0.20095
1791.54738,0.20769
1793.47585,0.20091
1795.40432,0.19187
1797.33279,0.19204
1799.26126,0.19681
1801.18973,0.19717
1803.11820,0.19077
1805.04666,0.18454
1806.97513,0.18193
1808.90360,0.18405
1810.83207,0.18805
1812.76054,0.18717
1814.68901,0.18237
1816.61748,0.18739
1818.54595,0.20703
1820.47441,0.21356
1822.40288,0.20282
1824.33135,0.19806
1826.25982,0.19659
1828.18829,0.19693
1830.11676,0.20110
1832.04523,0.19792
1833.97369,0.19242
1835.90216,0.19088
1837.83063,0.19006
1839.75910,0.18955
1841.68757,0.19520
1843.61604,0.20339
1845.54451,0.20063
1847.47298,0.19319
1849.40144,0.19142
1851.32991,0.19092
1853.25838,0.18596
1855.18685,0.17974
1857.11532,0.17839
1859.04379,0.18283
1860.97226,0.18851
1862.90072,0.19174
1864.82919,0.19452
1866.75766,0.19872
1868.68613,0.20070
1870.61460,0.19698
1872.54307,0.19002
1874.47154,0.18362
1876.40001,0.18098
1878.32847,0.18298
1880.25694,0.18711
1882.18541,0.18895
1884.11388,0.18826
1886.04235,0.18920
1887.97082,0.19309
1889.89929,0.19461
1891.82775,0.19101
1893.75622,0.18788
1895.68469,0.18628
1897.61316,0.18497
1899.54163,0.18608
1901.47010,0.18918
1903.39857,0.19166
1905.32704,0.19228
1907.25550,0.19211
1909.18397,0.19252
1911.11244,0.19097
1913.04091,0.18843
1914.96938,0.18901
1916.89785,0.18950
1918.82632,0.18721
1920.75478,0.18693
1922.68325,0.18870
1924.61172,0.18726
1926.54019,0.18421
1928.46866,0.18358
1930.39713,0.18435
1932.32560,0.18638
1934.25407,0.18868
1936.18253,0.18854
1938.11100,0.18741
1940.03947,0.18905
1941.96794,0.19365
1943.89641,0.19506
1945.82488,0.19061
1947.75335,0.18612
1949.68181,0.18512
1951.61028,0.18551
1953.53875,0.18631
1955.46722,0.18915
1957.39569,0.19220
1959.32416,0.19268
1961.25263,0.19246
1963.18110,0.19276
1965.10956,0.19231
1967.03803,0.19159
1968.96650,0.19122
1970.89497,0.19094
1972.82344,0.19056
1974.75191,0.18979
1976.68038,0.18783
1978.60884,0.18636
1980.53731,0.18769
1982.46578,0.18885
1984.39425,0.18719
1986.32272,0.18625
1988.25119,0.19038
1990.17966,0.19650
1992.10812,0.19813
1994.03659,0.19506
1995.96506,0.19158
1997.89353,0.18984
1999.82200,0.18918
2001.75047,0.18932
2003.67894,0.18908
2005.60741,0.18792
2007.53587,0.18863
2009.46434,0.19025
2011.39281,0.19102
2013.32128,0.19354
2015.24975,0.19683
2017.17822,0.19644
2019.10669,0.19289
2021.03515,0.18962
2022.96362,0.18776
2024.89209,0.18780
2026.82056,0.18890
2028.74903,0.18837
2030.67750,0.18640
2032.60597,0.18553
2034.53444,0.18595
2036.46290,0.18709
2038.39137,0.19033
2040.31984,0.19547
2042.24831,0.19848
2044.17678,0.19798
2046.10525,0.19653
2048.03372,0.19522
2049.96218,0.19365
2051.89065,0.19090
2053.81912,0.18825
2055.74759,0.18833
2057.67606,0.18885
2059.60453,0.18788
2061.53300,0.18852
2063.46147,0.19008
2065.38993,0.18892
2067.31840,0.18712
2069.24687,0.18775
2071.17534,0.18873
2073.10381,0.18811
2075.03228,0.18845
2076.96075,0.19026
2078.88921,0.19019
2080.81768,0.18784
2082.74615,0.18597
2084.67462,0.18662
2086.60309,0.18834
2088.53156,0.18902
2090.46003,0.18889
2092.38850,0.18747
2094.31696,0.18474
2096.24543,0.18362
2098.17390,0.18597
2100.10237,0.18885
2102.03084,0.18967
2103.95931,0.19060
2105.88778,0.19226
2107.81624,0.19196
2109.74471,0.18985
2111.67318,0.18882
2113.60165,0.19039
2115.53012,0.19199
2117.45859,0.19102
2119.38706,0.19080
2121.31553,0.19266
2123.24399,0.19284
2125.17246,0.19214
2127.10093,0.19403
2129.02940,0.19669
2130.95787,0.19528
2132.88634,0.19018
2134.81481,0.18852
2136.74327,0.19465
2138.67174,0.20144
2140.60021,0.20044
2142.52868,0.19543
2144.45715,0.19339
2146.38562,0.19425
2148.31409,0.19571
2150.24255,0.19596
2152.17102,0.19428
2154.09949,0.19266
2156.02796,0.19326
2157.95643,0.19562
2159.88490,0.19722
2161.81337,0.19698
2163.74184,0.19570
2165.67030,0.19379
2167.59877,0.19332
2169.52724,0.19547
2171.45571,0.19758
2173.38418,0.19750
2175.31265,0.19530
2177.24112,0.19425
2179.16958,0.19668
2181.09805,0.19813
2183.02652,0.19566
2184.95499,0.19264
2186.88346,0.19131
2188.81193,0.19113
2190.74040,0.19150
2192.66887,0.19314
2194.59733,0.19567
2196.52580,0.19644
2198.45427,0.19613
2200.38274,0.19607
2202.31121,0.19487
2204.23968,0.19239
2206.16815,0.18839
2208.09661,0.18514
2210.02508,0.18644
2211.95355,0.18969
2213.88202,0.19362
2215.81049,0.19769
2217.73896,0.19739
2219.66743,0.19561
2221.59590,0.19549
2223.52436,0.19503
2225.45283,0.19494
2227.38130,0.19559
2229.30977,0.19759
2231.23824,0.20027
2233.16671,0.19993
2235.09518,0.19659
2237.02364,0.19338
2238.95211,0.19195
2240.88058,0.19257
2242.80905,0.19436
2244.73752,0.19420
2246.66599,0.19192
2248.59446,0.19101
2250.52293,0.19142
2252.45139,0.19122
2254.37986,0.19258
2256.30833,0.19545
2258.23680,0.19623
2260.16527,0.19569
2262.09374,0.19519
2264.02221,0.19323
2265.95067,0.19082
2267.87914,0.19050
2269.80761,0.19066
2271.73608,0.19056
2273.66455,0.19255
2275.59302,0.19542
2277.52149,0.19628
2279.44996,0.19594
2281.37842,0.19730
2283.30689,0.19866
2285.23536,0.19781
2287.16383,0.19658
2289.09230,0.19568
2291.02077,0.19192
2292.94924,0.18637
2294.87770,0.18321
2296.80617,0.17542
2298.73464,0.17054
2300.66311,0.18347
2302.59158,0.19736
2304.52005,0.20143
2306.44852,0.20181
2308.37699,0.19665
2310.30545,0.18792
2312.23392,0.18169
2314.16239,0.18197
2316.09086,0.18640
2318.01933,0.18762
2319.94780,0.18607
2321.87627,0.18856
2323.80473,0.19178
2325.73320,0.18556
2327.66167,0.17810
2329.59014,0.18451
2331.51861,0.19585
2333.44708,0.20041
2335.37555,0.20553
2337.30401,0.20704
2339.23248,0.19606
2341.16095,0.18333
2343.08942,0.18198
2345.01789,0.19067
2346.94636,0.20034
2348.87483,0.20338
2350.80330,0.19541
2352.73176,0.17888
2354.66023,0.17098
2356.58870,0.18524
2358.51717,0.20395
2360.44564,0.20638
2362.37411,0.20851
2364.30258,0.22237
2366.23104,0.22542
2368.15951,0.20610
2370.08798,0.18789
2372.01645,0.18707
2373.94492,0.19162
2375.87339,0.18972
2377.80186,0.18745
2379.73033,0.19024
2381.65879,0.19342
2383.58726,0.19511
2385.51573,0.19646
2387.44420,0.19732
2389.37267,0.19906
2391.30114,0.20106
2393.22961,0.19976
2395.15807,0.19682
2397.08654,0.19720
2399.01501,0.19888
2400.94348,0.19800
2402.87195,0.19640
2404.80042,0.19504
2406.72889,0.19293
2408.65736,0.19152
2410.58582,0.19250
2412.51429,0.19466
2414.44276,0.19589
2416.37123,0.19627
2418.29970,0.19514
2420.22817,0.19351
2422.15664,0.19515
2424.08510,0.19777
2426.01357,0.19773
2427.94204,0.19646
2429.87051,0.19542
2431.79898,0.19393
2433.72745,0.19191
2435.65592,0.19230
2437.58439,0.19632
2439.51285,0.20053
2441.44132,0.20030
2443.36979,0.19430
2445.29826,0.18728
2447.22673,0.18510
2449.15520,0.19226
2451.08367,0.21154
2453.01213,0.23070
2454.94060,0.22566
2456.86907,0.20228
2458.79754,0.19118
2460.72601,0.19495
2462.65448,0.19791
2464.58295,0.19611
2466.51142,0.19420
2468.43988,0.19571
2470.36835,0.19595
2472.29682,0.19393
2474.22529,0.19546
2476.15376,0.19931
2478.08223,0.20016
2480.01070,0.19797
2481.93916,0.19667
2483.86763,0.19637
2485.79610,0.19470
2487.72457,0.19372
2489.65304,0.19548
2491.58151,0.19817
2493.50998,0.19976
2495.43844,0.19868
2497.36691,0.19551
2499.29538,0.19449
2501.22385,0.19666
2503.15232,0.19818
2505.08079,0.19808
2507.00926,0.19872
2508.93773,0.20077
2510.86619,0.20358
2512.79466,0.20490
2514.72313,0.20314
2516.65160,0.20039
2518.58007,0.19833
2520.50854,0.19757
2522.43701,0.19855
2524.36547,0.19941
2526.29394,0.19889
2528.22241,0.19935
2530.15088,0.20212
2532.07935,0.20399
2534.00782,0.20254
2535.93629,0.19931
2537.86476,0.19624
2539.79322,0.19457
2541.72169,0.19473
2543.65016,0.19667
2545.57863,0.19873
2547.50710,0.19784
2549.43557,0.19664
2551.36404,0.19945
2553.29250,0.20464
2555.22097,0.20885
2557.14944,0.20853
2559.07791,0.20337
2561.00638,0.20007
2562.93485,0.20240
2564.86332,0.20547
2566.79179,0.20566
2568.72025,0.20517
2570.64872,0.20579
2572.57719,0.20483
2574.50566,0.20169
2576.43413,0.20253
2578.36260,0.20724
2580.29107,0.20824
2582.21953,0.20486
2584.14800,0.20136
2586.07647,0.20025
2588.00494,0.20191
2589.93341,0.20478
2591.86188,0.20752
2593.79035,0.20987
2595.71882,0.20869
2597.64728,0.20217
2599.57575,0.19669
2601.50422,0.19585
2603.43269,0.19690
2605.36116,0.19944
2607.28963,0.20367
2609.21810,0.20653
2611.14656,0.20366
2613.07503,0.19825
2615.00350,0.19845
2616.93197,0.20317
2618.86044,0.20567
2620.78891,0.20507
2622.71738,0.20531
2624.64585,0.20649
2626.57431,0.20629
2628.50278,0.20549
2630.43125,0.20215
2632.35972,0.19629
2634.28819,0.19583
2636.21666,0.20085
2638.14513,0.20266
2640.07359,0.20188
2642.00206,0.20373
2643.93053,0.20633
2645.85900,0.20612
2647.78747,0.20364
2649.71594,0.20220
2651.64441,0.20362
2653.57288,0.20602
2655.50134,0.20715
2657.42981,0.20852
2659.35828,0.21150
2661.28675,0.21263
2663.21522,0.21029
2665.14369,0.20627
2667.07216,0.20248
2669.00062,0.20142
2670.92909,0.20289
2672.85756,0.20452
2674.78603,0.20515
2676.71450,0.20552
2678.64297,0.20749
2680.57144,0.20890
2682.49990,0.20728
2684.42837,0.20651
2686.35684,0.20833
2688.28531,0.20897
2690.21378,0.20756
2692.14225,0.20695
2694.07072,0.20811
2695.99919,0.20830
2697.92765,0.20589
2699.85612,0.20353
2701.78459,0.20342
2703.71306,0.20348
2705.64153,0.20098
2707.57000,0.19742
2709.49847,0.19813
2711.42693,0.20344
2713.35540,0.20734
2715.28387,0.20908
2717.21234,0.21059
2719.14081,0.20901
2721.06928,0.20379
2722.99775,0.20017
2724.92622,0.20132
2726.85468,0.20412
2728.78315,0.20558
2730.71162,0.20628
2732.64009,0.20631
2734.56856,0.20627
2736.49703,0.20921
2738.42550,0.21458
2740.35396,0.21767
2742.28243,0.21679
2744.21090,0.21326
2746.13937,0.20921
2748.06784,0.20776
2749.99631,0.21002
2751.92478,0.21198
2753.85325,0.21034
2755.78171,0.20833
2757.71018,0.20956
2759.63865,0.21315
2761.56712,0.21444
2763.49559,0.21031
2765.42406,0.20564
2767.35253,0.20532
2769.28099,0.20522
2771.20946,0.20571
2773.13793,0.21021
2775.06640,0.21281
2776.99487,0.21464
2778.92334,0.21799
2780.85181,0.21675
2782.78028,0.21402
2784.70874,0.21363
2786.63721,0.21364
2788.56568,0.21408
2790.49415,0.21438
2792.42262,0.21376
2794.35109,0.21253
2796.27956,0.21108
2798.20802,0.21056
2800.13649,0.21356
2802.06496,0.21822
2803.99343,0.21972
2805.92190,0.21755
2807.85037,0.21344
2809.77884,0.21028
2811.70731,0.21264
2813.63577,0.22121
2815.56424,0.22884
2817.49271,0.22865
2819.42118,0.22203
2821.34965,0.21580
2823.27812,0.21388
2825.20659,0.21350
2827.13505,0.21217
2829.06352,0.21292
2830.99199,0.21860
2832.92046,0.22393
2834.84893,0.22288
2836.77740,0.21871
2838.70587,0.21575
2840.63433,0.21346
2842.56280,0.21241
2844.49127,0.21372
2846.41974,0.21589
2848.34821,0.21803
2850.27668,0.22083
2852.20515,0.22436
2854.13362,0.22590
2856.06208,0.22367
2857.99055,0.22010
2859.91902,0.21651
2861.84749,0.21525
2863.77596,0.21831
2865.70443,0.21941
2867.63290,0.21437
2869.56136,0.20989
2871.48983,0.21172
2873.41830,0.21646
2875.34677,0.21793
2877.27524,0.21522
2879.20371,0.21214
2881.13218,0.21029
2883.06065,0.20952
2884.98911,0.21001
2886.91758,0.20944
2888.84605,0.20822
2890.77452,0.20859
2892.70299,0.20953
2894.63146,0.21030
2896.55993,0.21027
2898.48839,0.20900
2900.41686,0.20923
2902.34533,0.21151
2904.27380,0.21302
2906.20227,0.21438
2908.13074,0.21628
2910.05921,0.21816
2911.98768,0.21987
2913.91614,0.21952
2915.84461,0.21600
2917.77308,0.21095
2919.70155,0.20730
2921.63002,0.20766
2923.55849,0.21495
2925.48696,0.21780
2927.41542,0.20493
2929.34389,0.20123
2931.27236,0.21770
2933.20083,0.22432
2935.12930,0.21351
2937.05777,0.20480
2938.98624,0.20484
2940.91471,0.21021
2942.84317,0.21746
2944.77164,0.21795
2946.70011,0.21075
2948.62858,0.21058
2950.55705,0.22075
2952.48552,0.22711
2954.41399,0.22398
2956.34245,0.21718
2958.27092,0.21238
2960.19939,0.21358
2962.12786,0.21807
2964.05633,0.21970
2965.98480,0.21872
2967.91327,0.21527
2969.84174,0.21238
2971.77020,0.21573
2973.69867,0.22050
2975.62714,0.21967
2977.55561,0.21514
2979.48408,0.21358
2981.41255,0.21695
2983.34102,0.22144
2985.26948,0.22168
2987.19795,0.21493
2989.12642,0.20961
2991.05489,0.21248
2992.98336,0.21675
2994.91183,0.21914
2996.84030,0.22037
2998.76877,0.21860
3000.69723,0.21878
3002.62570,0.22508
3004.55417,0.23044
3006.48264,0.22931
3008.41111,0.22533
3010.33958,0.21880
3012.26805,0.20417
3014.19651,0.18254
3016.12498,0.16576
3018.05345,0.17015
3019.98192,0.19495
3021.91039,0.21614
3023.83886,0.22113
3025.76733,0.21966
3027.69579,0.21990
3029.62426,0.22121
3031.55273,0.22211
3033.48120,0.22303
3035.40967,0.22570
3037.33814,0.22834
3039.26661,0.22643
3041.19508,0.22129
3043.12354,0.21757
3045.05201,0.21708
3046.98048,0.21779
3048.90895,0.21700
3050.83742,0.21551
3052.76589,0.21501
3054.69436,0.21673
3056.62282,0.21961
3058.55129,0.22169
3060.47976,0.22123
3062.40823,0.21772
3064.33670,0.21441
3066.26517,0.21097
3068.19364,0.20980
3070.12211,0.21639
3072.05057,0.22358
3073.97904,0.22205
3075.90751,0.21681
3077.83598,0.21751
3079.76445,0.22039
3081.69292,0.21466
3083.62139,0.20410
3085.54985,0.20852
3087.47832,0.22839
3089.40679,0.23537
3091.33526,0.22292
3093.26373,0.21068
3095.19220,0.20769
3097.12067,0.21359
3099.04914,0.22317
3100.97760,0.22493
3102.90607,0.21611
3104.83454,0.21116
3106.76301,0.21770
3108.69148,0.22576
3110.61995,0.22715
3112.54842,0.22490
3114.47688,0.22688
3116.40535,0.23315
3118.33382,0.23644
3120.26229,0.23331
3122.19076,0.22731
3124.11923,0.22492
3126.04770,0.22583
3127.97617,0.22438
3129.90463,0.22216
3131.83310,0.22531
3133.76157,0.23048
3135.69004,0.23374
3137.61851,0.23936
3139.54698,0.24291
3141.47545,0.23509
3143.40391,0.22167
3145.33238,0.21499
3147.26085,0.21596
3149.18932,0.21947
3151.11779,0.22391
3153.04626,0.22736
3154.97473,0.22792
3156.90320,0.22747
3158.83166,0.22811
3160.76013,0.22892
3162.68860,0.22790
3164.61707,0.22792
3166.54554,0.23316
3168.47401,0.23749
3170.40248,0.23581
3172.33094,0.23350
3174.25941,0.23352
3176.18788,0.23464
3178.11635,0.23405
3180.04482,0.23150
3181.97329,0.23157
3183.90176,0.23323
3185.83022,0.23400
3187.75869,0.23745
3189.68716,0.24058
3191.61563,0.23629
3193.54410,0.22966
3195.47257,0.22685
3197.40104,0.22914
3199.32951,0.23590
3201.25797,0.23650
3203.18644,0.22872
3205.11491,0.22417
3207.04338,0.22374
3208.97185,0.22404
3210.90032,0.22839
3212.82879,0.23360
3214.75725,0.23482
3216.68572,0.23582
3218.61419,0.23643
3220.54266,0.23206
3222.47113,0.22804
3224.39960,0.23041
3226.32807,0.23320
3228.25654,0.23203
3230.18500,0.22881
3232.11347,0.22545
3234.04194,0.22567
3235.97041,0.22723
3237.89888,0.22574
3239.82735,0.22244
3241.75582,0.21841
3243.68428,0.21857
3245.61275,0.22406
3247.54122,0.22447
3249.46969,0.21986
3251.39816,0.22112
3253.32663,0.22579
3255.25510,0.22617
3257.18357,0.22512
3259.11203,0.22470
3261.04050,0.22190
3262.96897,0.21825
3264.89744,0.21914
3266.82591,0.22425
3268.75438,0.22772
3270.68285,0.22721
3272.61131,0.22407
3274.53978,0.22340
3276.46825,0.22585
3278.39672,0.22091
3280.32519,0.21245
3282.25366,0.21490
3284.18213,0.22373
3286.11060,0.22766
3288.03906,0.22686
3289.96753,0.22485
3291.89600,0.22234
3293.82447,0.22258
3295.75294,0.22485
3297.68141,0.22224
3299.60988,0.21608
3301.53834,0.21303
3303.46681,0.21442
3305.39528,0.21829
3307.32375,0.22221
3309.25222,0.22193
3311.18069,0.21819
3313.10916,0.21869
3315.03763,0.22373
3316.96609,0.22794
3318.89456,0.22849
3320.82303,0.22681
3322.75150,0.22683
3324.67997,0.22638
3326.60844,0.22344
3328.53691,0.22346
3330.46537,0.22732
3332.39384,0.22828
3334.32231,0.22514
3336.25078,0.22247
3338.17925,0.22038
3340.10772,0.21800
3342.03619,0.21998
3343.96466,0.22531
3345.89312,0.22429
3347.82159,0.21893
3349.75006,0.22004
3351.67853,0.22552
3353.60700,0.22868
3355.53547,0.22992
3357.46394,0.22823
3359.39240,0.22463
3361.32087,0.22383
3363.24934,0.22618
3365.17781,0.23009
3367.10628,0.23212
3369.03475,0.23126
3370.96322,0.23365
3372.89168,0.23980
3374.82015,0.23967
3376.74862,0.22966
3378.67709,0.22132
3380.60556,0.22173
3382.53403,0.22489
3384.46250,0.22812
3386.39097,0.23161
3388.31943,0.23140
3390.24790,0.22689
3392.17637,0.22032
3394.10484,0.21638
3396.03331,0.21862
3397.96178,0.22052
3399.89025,0.22222
3401.81871,0.23010
3403.74718,0.23446
3405.67565,0.22775
3407.60412,0.22242
3409.53259,0.22592
3411.46106,0.23001
3413.38953,0.23085
3415.31800,0.22787
3417.24646,0.22012
3419.17493,0.21626
3421.10340,0.22252
3423.03187,0.22949
3424.96034,0.22574
3426.88881,0.21577
3428.81728,0.21116
3430.74574,0.21091
3432.67421,0.21016
3434.60268,0.21104
3436.53115,0.21383
3438.45962,0.21675
3440.38809,0.21960
3442.31656,0.22022
3444.24503,0.21706
3446.17349,0.21359
3448.10196,0.20920
3450.03043,0.20402
3451.95890,0.20562
3453.88737,0.21154
3455.81584,0.21321
3457.74431,0.21148
3459.67277,0.20966
3461.60124,0.20779
3463.52971,0.20713
3465.45818,0.20784
3467.38665,0.20466
3469.31512,0.19821
3471.24359,0.19721
3473.17206,0.20086
3475.10052,0.20111
3477.02899,0.19843
3478.95746,0.19972
3480.88593,0.20821
3482.81440,0.21540
3484.74287,0.21059
3486.67134,0.19992
3488.59980,0.19592
3490.52827,0.19686
3492.45674,0.19243
3494.38521,0.18694
3496.31368,0.19043
3498.24215,0.19803
3500.17062,0.20155
3502.09909,0.19914
3504.02755,0.19171
3505.95602,0.18555
3507.88449,0.18624
3509.81296,0.19000
3511.74143,0.19138
3513.66990,0.18890
3515.59837,0.18319
3517.52683,0.18019
3519.45530,0.18131
3521.38377,0.18330
3523.31224,0.18705
3525.24071,0.19132
3527.16918,0.19127
3529.09765,0.18758
3531.02611,0.18475
3532.95458,0.18184
3534.88305,0.17931
3536.81152,0.17674
3538.73999,0.17254
3540.66846,0.17169
3542.59693,0.17459
3544.52540,0.17863
3546.45386,0.18369
3548.38233,0.18392
3550.31080,0.17777
3552.23927,0.17175
3554.16774,0.17054
3556.09621,0.17455
3558.02468,0.17858
3559.95314,0.17865
3561.88161,0.17874
3563.81008,0.18320
3565.73855,0.19214
3567.66702,0.19261
3569.59549,0.18029
3571.52396,0.17397
3573.45243,0.17548
3575.38089,0.17634
3577.30936,0.17398
3579.23783,0.16980
3581.16630,0.16499
3583.09477,0.16167
3585.02324,0.16233
3586.95171,0.16838
3588.88017,0.17279
3590.80864,0.17010
3592.73711,0.16584
3594.66558,0.16211
3596.59405,0.16326
3598.52252,0.17049
3600.45099,0.17158
3602.37946,0.16701
3604.30792,0.16846
3606.23639,0.17036
3608.16486,0.16389
3610.09333,0.15809
3612.02180,0.16338
3613.95027,0.17150
3615.87874,0.17361
3617.80720,0.17452
3619.73567,0.17254
3621.66414,0.16335
3623.59261,0.15474
3625.52108,0.15380
3627.44955,0.16268
3629.37802,0.16787
3631.30649,0.15753
3633.23495,0.14812
3635.16342,0.14631
3637.09189,0.14930
3639.02036,0.15215
3640.94883,0.15348
3642.87730,0.15298
3644.80577,0.15302
3646.73423,0.16114
3648.66270,0.17816
3650.59117,0.17555
3652.51964,0.15606
3654.44811,0.14456
3656.37658,0.14154
3658.30505,0.13894
3660.23352,0.13760
3662.16198,0.13883
3664.09045,0.14000
3666.01892,0.14306
3667.94739,0.14931
3669.87586,0.15240
3671.80433,0.15012
3673.73280,0.15833
3675.66126,0.17208
3677.58973,0.16289
3679.51820,0.14956
3681.44667,0.14654
3683.37514,0.14707
3685.30361,0.14553
3687.23208,0.14461
3689.16055,0.14986
3691.08901,0.15057
3693.01748,0.14032
3694.94595,0.13208
3696.87442,0.13149
3698.80289,0.13551
3700.73136,0.14120
3702.65983,0.14578
3704.58829,0.14538
3706.51676,0.14433
3708.44523,0.15058
3710.37370,0.15997
3712.30217,0.15675
3714.23064,0.14797
3716.15911,0.14064
3718.08757,0.13463
3720.01604,0.14005
3721.94451,0.15890
3723.87298,0.16778
3725.80145,0.15398
3727.72992,0.14108
3729.65839,0.14264
3731.58686,0.15167
3733.51532,0.16706
3735.44379,0.18064
3737.37226,0.17620
3739.30073,0.16691
3741.22920,0.16473
3743.15767,0.16497
3745.08614,0.15692
3747.01460,0.14757
3748.94307,0.14677
3750.87154,0.14874
3752.80001,0.14807
3754.72848,0.14987
3756.65695,0.15319
3758.58542,0.15219
3760.51389,0.14371
3762.44235,0.13666
3764.37082,0.13750
3766.29929,0.14158
3768.22776,0.14481
3770.15623,0.14454
3772.08470,0.13699
3774.01317,0.13063
3775.94163,0.13042
3777.87010,0.13393
3779.79857,0.13669
3781.72704,0.13503
3783.65551,0.13417
3785.58398,0.13613
3787.51245,0.13411
3789.44092,0.12971
3791.36938,0.12903
3793.29785,0.12949
3795.22632,0.13040
3797.15479,0.13576
3799.08326,0.14219
3801.01173,0.14520
3802.94020,0.14128
3804.86866,0.13891
3806.79713,0.14219
3808.72560,0.13741
3810.65407,0.12743
3812.58254,0.12401
3814.51101,0.12724
3816.43948,0.13422
3818.36795,0.14097
3820.29641,0.14815
3822.22488,0.14829
3824.15335,0.13831
3826.08182,0.12973
3828.01029,0.12588
3829.93876,0.12591
3831.86723,0.12817
3833.79569,0.13308
3835.72416,0.14338
3837.65263,0.15149
3839.58110,0.14742
3841.50957,0.14561
3843.43804,0.14606
3845.36651,0.13599
3847.29498,0.12544
3849.22344,0.12941
3851.15191,0.14733
3853.08038,0.16108
3855.00885,0.14869
3856.93732,0.13639
3858.86579,0.13397
3860.79426,0.13921
3862.72272,0.14678
3864.65119,0.14242
3866.57966,0.12891
3868.50813,0.12929
3870.43660,0.14198
3872.36507,0.13830
3874.29354,0.12304
3876.22200,0.11611
3878.15047,0.12206
3880.07894,0.13437
3882.00741,0.13428
3883.93588,0.12276
3885.86435,0.11575
3887.79282,0.11584
3889.72129,0.11903
3891.64975,0.11986
3893.57822,0.11395
3895.50669,0.11213
3897.43516,0.12121
3899.36363,0.13293
3901.29210,0.13184
3903.22057,0.12076
3905.14903,0.11208
3907.07750,0.10699
3909.00597,0.10612
3910.93444,0.11141
3912.86291,0.11666
3914.79138,0.11814
3916.71985,0.11806
3918.64832,0.11405
3920.57678,0.11029
3922.50525,0.11135
3924.43372,0.11153
3926.36219,0.10942
3928.29066,0.11162
3930.21913,0.11719
3932.14760,0.11528
3934.07606,0.10744
3936.00453,0.10422
3937.93300,0.10259
3939.86147,0.09955
3941.78994,0.09911
3943.71841,0.10147
3945.64688,0.10341
3947.57535,0.10535
3949.50381,0.10707
3951.43228,0.10591
3953.36075,0.10262
3955.28922,0.10150
3957.21769,0.10422
3959.14616,0.10861
3961.07463,0.10965
3963.00309,0.10479
3964.93156,0.10088
3966.86003,0.10003
3968.78850,0.09861
3970.71697,0.10147
3972.64544,0.10809
3974.57391,0.10955
3976.50238,0.10605
3978.43084,0.10421
3980.35931,0.10536
3982.28778,0.10570
3984.21625,0.10484
3986.14472,0.10747
3988.07319,0.11221
3990.00166,0.11276
3991.93012,0.11138
3993.85859,0.11363
3995.78706,0.11559
3997.71553,0.11222
3999.64400,0.10752
4001.57247,0.10648
4003.50094,0.10568
4005.42941,0.10193
4007.35787,0.09927
4009.28634,0.09900
4011.21481,0.09808
4013.14328,0.09535
4015.07175,0.09479
4017.00022,0.10214
4018.92869,0.11116
4020.85715,0.10983
4022.78562,0.10157
4024.71409,0.09678
4026.64256,0.09522
4028.57103,0.09285
4030.49950,0.09107
4032.42797,0.09173
4034.35644,0.09292
4036.28490,0.09187
4038.21337,0.08691
4040.14184,0.08083
4042.07031,0.08207
4043.99878,0.08930
4045.92725,0.09337
4047.85572,0.09349
4049.78418,0.08943
4051.71265,0.08318
4053.64112,0.08529
4055.56959,0.09402
4057.49806,0.09591
4059.42653,0.09124
4061.35500,0.08812
4063.28346,0.08686
4065.21193,0.08539
4067.14040,0.08483
4069.06887,0.08612
4070.99734,0.08623
4072.92581,0.08343
4074.85428,0.08158
4076.78275,0.08179
4078.71121,0.07912
4080.63968,0.07740
4082.56815,0.08327
4084.49662,0.08949
4086.42509,0.09183
4088.35356,0.09115
4090.28203,0.08760
4092.21049,0.08812
4094.13896,0.09183
4096.06743,0.09089
4097.99590,0.08484
4099.92437,0.07728
4101.85284,0.07407
4103.78131,0.08044
4105.70978,0.09323
4107.63824,0.09904
4109.56671,0.09022
4111.49518,0.07774
4113.42365,0.07153
4115.35212,0.07064
4117.28059,0.07453
4119.20906,0.07906
4121.13752,0.07809
4123.06599,0.07313
4124.99446,0.07016
4126.92293,0.07303
4128.85140,0.07712
4130.77987,0.07736
4132.70834,0.07852
4134.63681,0.07949
4136.56527,0.07251
4138.49374,0.06507
4140.42221,0.06704
4142.35068,0.07177
4144.27915,0.07376
4146.20762,0.07437
4148.13609,0.07204
4150.06455,0.07044
4151.99302,0.07319
4153.92149,0.07485
4155.84996,0.07707
4157.77843,0.08150
4159.70690,0.07712
4161.63537,0.06569
4163.56384,0.06124
4165.49230,0.06521
4167.42077,0.06978
4169.34924,0.06974
4171.27771,0.06656
4173.20618,0.06770
4175.13465,0.07447
4177.06312,0.07869
4178.99158,0.07812
4180.92005,0.07579
4182.84852,0.07174
4184.77699,0.06652
4186.70546,0.06397
4188.63393,0.06697
4190.56240,0.07061
4192.49087,0.07386
4194.41933,0.08034
4196.34780,0.07934
4198.27627,0.06186
4200.20474,0.05049
4202.13321,0.05912
4204.06168,0.06266
4205.99015,0.05802
4207.91861,0.06189
4209.84708,0.06427
4211.77555,0.05639
4213.70402,0.04929
4215.63249,0.05005
4217.56096,0.05318
4219.48943,0.05589
4221.41789,0.05624
4223.34636,0.05127
4225.27483,0.04831
4227.20330,0.05109
4229.13177,0.05419
4231.06024,0.05417
4232.98871,0.05355
4234.91718,0.05676
4236.84564,0.06128
4238.77411,0.06153
4240.70258,0.05631
4242.63105,0.04873
4244.55952,0.04430
4246.48799,0.04474
4248.41646,0.04594
4250.34492,0.04606
4252.27339,0.04568
4254.20186,0.04575
4256.13033,0.04942
4258.05880,0.05718
4259.98727,0.06397
4261.91574,0.06153
4263.84421,0.05459
4265.77267,0.05343
4267.70114,0.05065
4269.62961,0.04465
4271.55808,0.04606
4273.48655,0.05097
4275.41502,0.05099
4277.34349,0.04800
4279.27195,0.04730
4281.20042,0.04943
4283.12889,0.04675
4285.05736,0.03709
4286.98583,0.02906
4288.91430,0.02438
4290.84277,0.02325
4292.77124,0.03092
4294.69970,0.04206
4296.62817,0.04737
4298.55664,0.04704
4300.48511,0.04263
4302.41358,0.03434
4304.34205,0.03020
4306.27052,0.03477
4308.19898,0.03769
4310.12745,0.03383
4312.05592,0.03326
4313.98439,0.03959
4315.91286,0.04210
4317.84133,0.03781
4319.76980,0.03483
4321.69827,0.03420
4323.62673,0.03475
4325.55520,0.03728
4327.48367,0.03953
4329.41214,0.04083
4331.34061,0.04080
4333.26908,0.04173
4335.19755,0.04304
4337.12601,0.04036
4339.05448,0.04031
4340.98295,0.04544
4342.91142,0.04798
4344.83989,0.04670
4346.76836,0.04277
4348.69683,0.03383
4350.62530,0.02675
4352.55376,0.02695
4354.48223,0.02628
4356.41070,0.03147
4358.33917,0.03872
4360.26764,0.02968
4362.19611,0.02382
4364.12458,0.03167
4366.05304,0.03748
4367.98151,0.04248
4369.90998,0.04417
4371.83845,0.03410
4373.76692,0.01810
4375.69539,0.01059
4377.62386,0.01531
4379.55232,0.01947
4381.48079,0.01996
4383.40926,0.02083
4385.33773,0.01876
4387.26620,0.02123
4389.19467,0.03435
4391.12314,0.04222
4393.05161,0.03502
4394.98007,0.02433
4396.90854,0.02211
4398.83701,0.02589
4400.76548,0.02461
4402.69395,0.01865
4404.62242,0.01948
4406.55089,0.02556
4408.47935,0.02740
4410.40782,0.02228
4412.33629,0.01031
4414.26476,0.00069
4416.19323,0.00574
4418.12170,0.01539
4420.05017,0.01159
4421.97864,0.00077
4423.90710,-0.00186
4425.83557,0.00231
4427.76404,0.00524
4429.69251,0.00557
4431.62098,0.00912
4433.54945,0.01874
4435.47792,0.02551
4437.40638,0.02380
4439.33485,0.02178
4441.26332,0.02461
4443.19179,0.02607
4445.12026,0.02220
4447.04873,0.01774
4448.97720,0.01694
4450.90567,0.01985
4452.83413,0.02407
4454.76260,0.02200
4456.69107,0.01373
4458.61954,0.01043
4460.54801,0.00862
4462.47648,0.00288
4464.40495,0.00592
4466.33341,0.01695
4468.26188,0.02214
4470.19035,0.01942
4472.11882,0.01190
4474.04729,0.00376
4475.97576,0.00057
4477.90423,0.00473
4479.83270,0.01290
4481.76116,0.01675
4483.68963,0.01589
4485.61810,0.02079
4487.54657,0.03315
4489.47504,0.03927
4491.40351,0.03184
4493.33198,0.01967
4495.26044,0.01043
4497.18891,0.00342
4499.11738,0.00021
4501.04585,0.00435
4502.97432,0.00924
4504.90279,0.00790
4506.83126,0.00475
4508.75973,0.00378
4510.68819,0.00284
4512.61666,-0.00047
4514.54513,0.00023
4516.47360,0.00353
4518.40207,-0.00394
4520.33054,-0.01343
4522.25901,-0.01101
4524.18747,-0.00061
4526.11594,0.01176
4528.04441,0.01649
4529.97288,0.01127
4531.90135,0.00362
4533.82982,-0.00584
4535.75829,-0.00928
4537.68676,-0.00058
4539.61522,0.00632
4541.54369,0.00754
4543.47216,0.00271
4545.40063,-0.00805
4547.32910,-0.01153
4549.25757,-0.00795
4551.18604,-0.00459
4553.11450,0.00724
4555.04297,0.01983
4556.97144,0.01511
4558.89991,-0.00013
4560.82838,-0.00720
4562.75685,-0.00045
4564.68532,0.00682
4566.61378,0.00552
4568.54225,0.00369
4570.47072,0.00683
4572.39919,0.01413
4574.32766,0.02202
4576.25613,0.02717
4578.18460,0.02708
4580.11307,0.02220
4582.04153,0.01682
4583.97000,0.01078
4585.89847,0.00193
4587.82694,-0.00355
4589.75541,0.00215
4591.68388,0.00868
4593.61235,-0.00014
4595.54081,-0.01496
4597.46928,-0.01897
4599.39775,-0.01132
4601.32622,0.00280
4603.25469,0.01818
4605.18316,0.02358
4607.11163,0.01623
4609.04010,0.01075
4610.96856,0.01344
4612.89703,0.01569
4614.82550,0.00975
4616.75397,0.00393
4618.68244,0.01165
4620.61091,0.02202
4622.53938,0.01969
4624.46784,0.00771
4626.39631,-0.00411
4628.32478,-0.00496
4630.25325,0.00716
4632.18172,0.01605
4634.11019,0.01034
4636.03866,0.00168
4637.96713,-0.00206
4639.89559,-0.00567
4641.82406,-0.00320
4643.75253,0.01307
4645.68100,0.02384
4647.60947,0.01712
4649.53794,0.00897
4651.46641,0.00510
4653.39487,0.00718
4655.32334,0.01452
4657.25181,0.01538
4659.18028,0.00981
4661.10875,0.00567
4663.03722,0.00766
4664.96569,0.01299
4666.89416,0.01689
4668.82262,0.02392
4670.75109,0.03081
4672.67956,0.02706
4674.60803,0.01283
4676.53650,0.00219
4678.46497,0.00346
4680.39344,0.00108
4682.32190,-0.00551
4684.25037,-0.00542
4686.17884,-0.01235
4688.10731,-0.02606
4690.03578,-0.02630
4691.96425,-0.01105
4693.89272,0.00562
4695.82119,0.01617
4697.74965,0.02261
4699.67812,0.01721
4701.60659,0.00314
4703.53506,0.00315
4705.46353,0.01363
4707.39200,0.01682
4709.32047,0.02005
4711.24893,0.02591
4713.17740,0.02116
4715.10587,0.01358
4717.03434,0.01337
4718.96281,0.01234
4720.89128,0.00813
4722.81975,0.00501
4724.74821,0.00712
4726.67668,0.01309
4728.60515,0.01002
4730.53362,-0.00138
4732.46209,0.00248
4734.39056,0.01741
4736.31903,0.01619
4738.24750,0.00901
4740.17596,0.00712
4742.10443,-0.00216
4744.03290,-0.00976
4745.96137,-0.00408
4747.88984,-0.00211
4749.81831,-0.01108
4751.74678,-0.01134
4753.67524,0.00238
4755.60371,0.01503
4757.53218,0.02052
4759.46065,0.02345
4761.38912,0.01946
4763.31759,0.00931
4765.24606,0.01043
4767.17453,0.01377
4769.10299,-0.00058
4771.03146,-0.01351
4772.95993,-0.00656
4774.88840,0.01057
4776.81687,0.02107
4778.74534,0.01679
4780.67381,0.00867
4782.60227,0.00385
4784.53074,0.00084
4786.45921,0.00111
4788.38768,-0.00688
4790.31615,-0.02167
4792.24462,-0.02346
4794.17309,-0.01259
4796.10156,-0.00894
4798.03002,-0.01341
4799.95849,-0.01228
4801.88696,-0.00678
4803.81543,0.00158
4805.74390,0.00764
4807.67237,-0.00169
4809.60084,-0.01602
4811.52930,-0.01170
4813.45777,0.01372
4815.38624,0.03984
4817.31471,0.04446
4819.24318,0.02716
4821.17165,0.00845
4823.10012,-0.00063
4825.02859,-0.00901
4826.95705,-0.01747
4828.88552,-0.01597
4830.81399,-0.00795
4832.74246,0.00282
4834.67093,0.01861
4836.59940,0.02965
4838.52787,0.02258
4840.45633,-0.00109
4842.38480,-0.01907
4844.31327,-0.01569
4846.24174,-0.00225
4848.17021,0.00237
4850.09868,0.00199
4852.02715,0.01351
4853.95562,0.02485
4855.88408,0.02000
4857.81255,0.01342
4859.74102,0.01472
4861.66949,0.02039
4863.59796,0.02766
4865.52643,0.03109
4867.45490,0.02630
4869.38336,0.01602
4871.31183,0.00883
4873.24030,0.00730
4875.16877,0.00762
4877.09724,0.01357
4879.02571,0.02262
4880.95418,0.01986
4882.88265,0.01249
4884.81111,0.01562
4886.73958,0.01602
4888.66805,0.01094
4890.59652,0.01291
4892.52499,0.00929
4894.45346,-0.00178
4896.38193,0.00028
4898.31039,0.01530
4900.23886,0.02301
4902.16733,0.01139
4904.09580,-0.00684
4906.02427,-0.01792
4907.95274,-0.02602
4909.88121,-0.02136
4911.80967,0.00478
4913.73814,0.02204
4915.66661,0.00584
4917.59508,-0.02200
4919.52355,-0.02756
4921.45202,-0.01161
4923.38049,-0.00008
4925.30896,0.00584
4927.23742,0.02048
4929.16589,0.02671
4931.09436,0.01273
4933.02283,0.00496
4934.95130,0.01201
4936.87977,0.01521
4938.80824,0.01188
4940.73670,0.01276
4942.66517,0.02017
4944.59364,0.02264
4946.52211,0.01397
4948.45058,0.00502
4950.37905,0.00654
4952.30752,0.01472
4954.23599,0.01328
4956.16445,-0.00003
4958.09292,-0.00367
4960.02139,0.00812
4961.94986,0.01284
4963.87833,0.00256
4965.80680,-0.00835
4967.73527,-0.01588
4969.66373,-0.01600
4971.59220,-0.00638
4973.52067,-0.00217
4975.44914,0.00102
4977.37761,0.01371
4979.30608,0.02541
4981.23455,0.03151
4983.16302,0.03637
4985.09148,0.04092
4987.01995,0.04072
4988.94842,0.03014
4990.87689,0.01521
4992.80536,0.02122
4994.73383,0.04323
4996.66230,0.03767
4998.59076,0.01461
5000.51923,0.00894
5002.44770,0.01330
5004.37617,0.02202
5006.30464,0.03444
5008.23311,0.03672
5010.16158,0.02860
5012.09005,0.01466
5014.01851,-0.01062
5015.94698,-0.02898
5017.87545,-0.01821
5019.80392,0.00131
5021.73239,0.01069
5023.66086,0.01866
5025.58933,0.02889
5027.51779,0.03413
5029.44626,0.02784
5031.37473,0.01700
5033.30320,0.01710
5035.23167,0.02527
5037.16014,0.02718
5039.08861,0.02234
5041.01708,0.01525
5042.94554,0.00641
5044.87401,0.00112
5046.80248,0.00524
5048.73095,0.00569
5050.65942,-0.01577
5052.58789,-0.03582
5054.51636,-0.02154
5056.44482,0.00571
5058.37329,0.01241
5060.30176,0.00905
5062.23023,0.02013
5064.15870,0.03190
5066.08717,0.02276
5068.01564,0.00680
5069.94410,-0.00139
5071.87257,-0.01373
5073.80104,-0.02934
5075.72951,-0.02403
5077.65798,-0.00678
5079.58645,-0.00647
5081.51492,-0.00716
5083.44339,0.00484
5085.37185,0.01154
5087.30032,0.00849
5089.22879,0.00675
5091.15726,0.00021
5093.08573,-0.01821
5095.01420,-0.02651
5096.94267,-0.02187
5098.87113,-0.01766
5100.79960,-0.00051
5102.72807,0.03021
5104.65654,0.05016
5106.58501,0.05519
5108.51348,0.05730
5110.44195,0.05234
5112.37042,0.03878
5114.29888,0.02158
5116.22735,0.00627
5118.15582,0.00335
5120.08429,0.00818
5122.01276,0.01030
5123.94123,0.01313
5125.86970,0.01851
5127.79816,0.01243
5129.72663,-0.00135
5131.65510,-0.00295
5133.58357,0.00487
5135.51204,0.01268
5137.44051,0.01370
5139.36898,0.01347
5141.29745,0.02925
5143.22591,0.05917
5145.15438,0.07334
5147.08285,0.04936
5149.01132,0.01611
5150.93979,0.00426
5152.86826,0.00033
5154.79673,0.00022
5156.72519,0.01166
5158.65366,0.01643
5160.58213,0.01401
5162.51060,0.02094
5164.43907,0.02545
5166.36754,0.01672
5168.29601,0.01344
5170.22448,0.02594
5172.15294,0.04427
5174.08141,0.05466
5176.00988,0.04009
5177.93835,0.01210
5179.86682,-0.00250
5181.79529,-0.00183
5183.72376,0.00424
5185.65222,0.00678
5187.58069,0.01135
5189.50916,0.01503
5191.43763,0.00619
5193.36610,0.00716
5195.29457,0.03335
5197.22304,0.05438
5199.15151,0.04596
5201.07997,0.03291
5203.00844,0.04037
5204.93691,0.05466
5206.86538,0.05140
5208.79385,0.04141
5210.72232,0.04255
5212.65079,0.03812
5214.57925,0.02055
5216.50772,0.01018
5218.43619,0.02164
5220.36466,0.04188
5222.29313,0.04731
5224.22160,0.03553
5226.15007,0.01163
5228.07854,-0.01566
5230.00700,-0.01640
5231.93547,0.01703
5233.86394,0.04633
5235.79241,0.04646
5237.72088,0.03154
5239.64935,0.02811
5241.57782,0.04005
5243.50628,0.04733
5245.43475,0.05272
5247.36322,0.06172
5249.29169,0.05144
5251.22016,0.03001
5253.14863,0.02855
5255.07710,0.03934
5257.00556,0.04066
5258.93403,0.04586
5260.86250,0.05561
5262.79097,0.03568
5264.71944,-0.00354
5266.64791,-0.02011
5268.57638,-0.01777
5270.50485,-0.00770
5272.43331,0.01161
5274.36178,0.03087
5276.29025,0.04450
5278.21872,0.05379
5280.14719,0.04771
5282.07566,0.03079
5284.00413,0.02723
5285.93259,0.03970
5287.86106,0.05137
5289.78953,0.04703
5291.71800,0.02267
5293.64647,0.00235
5295.57494,-0.00132
5297.50341,0.00578
5299.43188,0.02173
5301.36034,0.03673
5303.28881,0.05339
5305.21728,0.06402
5307.14575,0.04529
5309.07422,0.02699
5311.00269,0.04335
5312.93116,0.06755
5314.85962,0.07260
5316.78809,0.06794
5318.71656,0.05988
5320.64503,0.04904
5322.57350,0.04548
5324.50197,0.04048
5326.43044,0.03284
5328.35891,0.03697
5330.28737,0.05155
5332.21584,0.06536
5334.14431,0.06669
5336.07278,0.07409
5338.00125,0.09938
5339.92972,0.09448
5341.85819,0.04726
5343.78665,0.00650
5345.71512,0.01190
5347.64359,0.04777
5349.57206,0.08466
5351.50053,0.09928
5353.42900,0.07639
5355.35747,0.05140
5357.28594,0.04971
5359.21440,0.05970
5361.14287,0.07793
5363.07134,0.08877
5364.99981,0.08040
5366.92828,0.06891
5368.85675,0.06042
5370.78522,0.05504
5372.71368,0.06345
5374.64215,0.06906
5376.57062,0.05156
5378.49909,0.02362
5380.42756,-0.00764
5382.35603,-0.02656
5384.28450,-0.01720
5386.21297,0.01927
5388.14143,0.06922
5390.06990,0.10768
5391.99837,0.12180
5393.92684,0.11290
5395.85531,0.08964
5397.78378,0.06522
5399.71225,0.05860
5401.64071,0.06456
5403.56918,0.06795
5405.49765,0.06419
5407.42612,0.04014
5409.35459,0.01443
5411.28306,0.01266
5413.21153,0.02812
5415.13999,0.04681
5417.06846,0.05936
5418.99693,0.07222
5420.92540,0.07864
5422.85387,0.07709
5424.78234,0.08218
5426.71081,0.08290
5428.63928,0.07403
5430.56774,0.06050
5432.49621,0.04287
5434.42468,0.03892
5436.35315,0.04682
5438.28162,0.04317
5440.21009,0.03104
5442.13856,0.02196
5444.06702,0.01839
5445.99549,0.02952
5447.92396,0.04335
5449.85243,0.02909
5451.78090,0.01179
5453.70937,0.03465
5455.63784,0.08479
5457.56631,0.10402
5459.49477,0.07503
5461.42324,0.04206
5463.35171,0.03666
5465.28018,0.05438
5467.20865,0.07075
5469.13712,0.07551
5471.06559,0.08504
5472.99405,0.09339
5474.92252,0.07765
5476.85099,0.06169
5478.77946,0.08020
5480.70793,0.11707
5482.63640,0.13735
5484.56487,0.12387
5486.49334,0.08982
5488.42180,0.05231
5490.35027,0.02166
5492.27874,0.01343
5494.20721,0.03144
5496.13568,0.05088
5498.06415,0.06277
5499.99262,0.06312
5501.92108,0.03199
5503.84955,0.00076
5505.77802,0.01959
5507.70649,0.06180
5509.63496,0.06712
5511.56343,0.04363
5513.49190,0.03680
5515.42037,0.04181
5517.34883,0.03571
5519.27730,0.02921
5521.20577,0.02859
5523.13424,0.02775
5525.06271,0.01168
5526.99118,-0.01492
5528.91965,-0.00349
5530.84811,0.06100
5532.77658,0.12230
5534.70505,0.13660
5536.63352,0.09734
5538.56199,0.04286
5540.49046,0.04182
5542.41893,0.09017
5544.34740,0.10869
5546.27586,0.07107
5548.20433,0.02563
5550.13280,-0.00014
5552.06127,-0.00943
5553.98974,-0.00590
5555.91821,-0.01639
5557.84668,-0.03556
5559.77514,-0.01975
5561.70361,0.02771
5563.63208,0.06453
5565.56055,0.06995
5567.48902,0.06407
5569.41749,0.05985
5571.34596,0.05274
5573.27443,0.05216
5575.20289,0.06543
5577.13136,0.08651
5579.05983,0.09933
5580.98830,0.08724
5582.91677,0.06289
5584.84524,0.05180
5586.77371,0.05988
5588.70217,0.06785
5590.63064,0.05706
5592.55911,0.05337
5594.48758,0.06928
5596.41605,0.07768
5598.34452,0.08955
5600.27299,0.10825
5602.20145,0.08421
5604.12992,0.04267
5606.05839,0.04324
5607.98686,0.05745
5609.91533,0.05886
5611.84380,0.06422
5613.77227,0.07327
5615.70074,0.07893
5617.62920,0.06996
5619.55767,0.04657
5621.48614,0.03540
5623.41461,0.04822
5625.34308,0.07823
5627.27155,0.10399
5629.20002,0.09777
5631.12848,0.07486
5633.05695,0.06334
5634.98542,0.05181
5636.91389,0.02960
5638.84236,0.01225
5640.77083,0.00228
5642.69930,0.02383
5644.62777,0.08499
5646.55623,0.12014
5648.48470,0.11455
5650.41317,0.10449
5652.34164,0.08297
5654.27011,0.06105
5656.19858,0.06753
5658.12705,0.08933
5660.05551,0.09984
5661.98398,0.10074
5663.91245,0.10089
5665.84092,0.10791
5667.76939,0.13150
5669.69786,0.15468
5671.62633,0.13805
5673.55480,0.08904
5675.48326,0.05898
5677.41173,0.06303
5679.34020,0.07716
5681.26867,0.08489
5683.19714,0.08428
5685.12561,0.07161
5687.05408,0.06087
5688.98254,0.06866
5690.91101,0.07365
5692.83948,0.06646
5694.76795,0.05493
5696.69642,0.03654
5698.62489,0.01923
5700.55336,0.02759
5702.48183,0.06706
5704.41029,0.10048
5706.33876,0.09985
5708.26723,0.07876
5710.19570,0.07088
5712.12417,0.09460
5714.05264,0.11197
5715.98111,0.09346
5717.90957,0.08780
5719.83804,0.11426
5721.76651,0.12636
5723.69498,0.10690
5725.62345,0.08644
5727.55192,0.08843
5729.48039,0.10207
5731.40886,0.12007
5733.33732,0.13112
5735.26579,0.11801
5737.19426,0.09072
5739.12273,0.06010
5741.05120,0.05001
5742.97967,0.07500
5744.90814,0.08423
5746.83660,0.06099
5748.76507,0.05830
5750.69354,0.07920
5752.62201,0.09838
5754.55048,0.11915
5756.47895,0.11814
5758.40742,0.09304
5760.33588,0.07154
5762.26435,0.06017
5764.19282,0.07296
5766.12129,0.11523
5768.04976,0.13910
5769.97823,0.13314
5771.90670,0.12011
5773.83517,0.08074
5775.76363,0.03120
5777.69210,0.01529
5779.62057,0.01390
5781.54904,0.00344
5783.47751,0.01304
5785.40598,0.04816
5787.33445,0.07264
5789.26291,0.09732
5791.19138,0.13742
5793.11985,0.15326
5795.04832,0.12602
5796.97679,0.07590
5798.90526,0.02613
5800.83373,0.00957
5802.76220,0.03361
5804.69066,0.04704
5806.61913,0.03986
5808.54760,0.03870
5810.47607,0.04096
5812.40454,0.05940
5814.33301,0.06991
5816.26148,0.04285
5818.18994,0.01940
5820.11841,0.02758
5822.04688,0.05779
5823.97535,0.07873
5825.90382,0.08898
5827.83229,0.11549
5829.76076,0.12221
5831.68923,0.10781
5833.61769,0.11767
5835.54616,0.12355
5837.47463,0.12626
5839.40310,0.16199
5841.33157,0.18146
5843.26004,0.15735
5845.18851,0.14191
5847.11697,0.14135
5849.04544,0.13358
5850.97391,0.13253
5852.90238,0.14075
5854.83085,0.12986
5856.75932,0.09824
5858.68779,0.08513
5860.61626,0.10772
5862.54472,0.14742
5864.47319,0.16741
5866.40166,0.14084
5868.33013,0.10324
5870.25860,0.09721
5872.18707,0.10659
5874.11554,0.10635
5876.04400,0.08586
5877.97247,0.04274
5879.90094,0.00586
5881.82941,0.00015
5883.75788,0.00192
5885.68635,-0.00512
5887.61482,0.00207
5889.54329,0.03599
5891.47175,0.07865
5893.40022,0.10894
5895.32869,0.12225
5897.25716,0.10627
5899.18563,0.05726
5901.11410,0.02288
5903.04257,0.02957
5904.97103,0.04197
5906.89950,0.03594
5908.82797,0.02734
5910.75644,0.03770
5912.68491,0.04882
5914.61338,0.04361
5916.54185,0.06551
5918.47032,0.11151
5920.39878,0.11148
5922.32725,0.07211
5924.25572,0.02169
5926.18419,-0.01717
5928.11266,0.00503
5930.04113,0.04334
5931.96960,0.02514
5933.89806,-0.00080
5935.82653,0.02591
5937.75500,0.06013
5939.68347,0.06822
5941.61194,0.06274
5943.54041,0.05482
5945.46888,0.05495
5947.39734,0.05209
5949.32581,0.02225
5951.25428,-0.02742
5953.18275,-0.03502
5955.11122,0.02473
5957.03969,0.08998
5958.96816,0.10875
5960.89663,0.09327
5962.82509,0.06836
5964.75356,0.05743
5966.68203,0.10108
5968.61050,0.15148
5970.53897,0.12715
5972.46744,0.07570
5974.39591,0.07025
5976.32437,0.08994
5978.25284,0.08747
5980.18131,0.07569
5982.10978,0.07970
5984.03825,0.07566
5985.96672,0.05235
5987.89519,0.04853
5989.82366,0.05918
5991.75212,0.03607
5993.68059,0.00292
5995.60906,-0.01055
5997.53753,-0.02808
5999.46600,-0.02494
6001.39447,0.02443
6003.32294,0.09087
6005.25140,0.11813
6007.17987,0.09089
6009.10834,0.08455
6011.03681,0.10418
6012.96528,0.10152
6014.89375,0.11065
6016.82222,0.11920
6018.75069,0.09910
6020.67915,0.10618
6022.60762,0.11850
6024.53609,0.10093
6026.46456,0.08477
6028.39303,0.06421
6030.32150,0.06724
6032.24997,0.11169
6034.17843,0.12981
6036.10690,0.11027
6038.03537,0.10725
6039.96384,0.13501
6041.89231,0.14390
6043.82078,0.10166
6045.74925,0.04094
6047.67772,0.00968
6049.60618,0.03376
6051.53465,0.07884
6053.46312,0.12516
6055.39159,0.14747
6057.32006,0.10111
6059.24853,0.05182
6061.17700,0.06239
6063.10546,0.09562
6065.03393,0.10537
6066.96240,0.08623
6068.89087,0.07278
6070.81934,0.09221
6072.74781,0.10193
6074.67628,0.08031
6076.60475,0.07007
6078.53321,0.08038
6080.46168,0.08585
6082.39015,0.06122
6084.31862,-0.00168
6086.24709,-0.05660
6088.17556,-0.06028
6090.10403,-0.06303
6092.03249,-0.07458
6093.96096,-0.03392
6095.88943,0.03284
6097.81790,0.07899
6099.74637,0.11139
6101.67484,0.10601
6103.60331,0.06146
6105.53177,0.04814
6107.46024,0.09018
6109.38871,0.12542
6111.31718,0.11410
6113.24565,0.10372
6115.17412,0.10040
6117.10259,0.05515
6119.03106,0.04440
6120.95952,0.12207
6122.88799,0.17711
6124.81646,0.17576
6126.74493,0.14918
6128.67340,0.10845
6130.60187,0.08451
6132.53034,0.09513
6134.45880,0.13252
6136.38727,0.19170
6138.31574,0.21492
6140.24421,0.16329
6142.17268,0.11499
6144.10115,0.11079
6146.02962,0.11993
6147.95809,0.13498
6149.88655,0.12255
6151.81502,0.09153
6153.74349,0.10426
6155.67196,0.09818
6157.60043,0.03952
6159.52890,0.02304
6161.45737,0.07028
6163.38583,0.12592
6165.31430,0.12294
6167.24277,0.06477
6169.17124,0.04582
6171.09971,0.08380
6173.02818,0.12865
6174.95665,0.14143
6176.88512,0.09370
6178.81358,0.02643
6180.74205,-0.00686
6182.67052,-0.03133
6184.59899,-0.07397
6186.52746,-0.08840
6188.45593,-0.00601
6190.38440,0.10497
6192.31286,0.14036
6194.24133,0.13207
6196.16980,0.12126
6198.09827,0.08255
6200.02674,0.04544
6201.95521,0.08121
6203.88368,0.13898
6205.81215,0.14222
6207.74061,0.14387
6209.66908,0.13724
6211.59755,0.07655
6213.52602,0.04404
6215.45449,0.07212
6217.38296,0.10174
6219.31143,0.12969
6221.23989,0.17449
6223.16836,0.18518
6225.09683,0.12714
6227.02530,0.06585
6228.95377,0.05236
6230.88224,0.01249
6232.81071,-0.08853
6234.73918,-0.08785
6236.66764,0.03165
6238.59611,0.10418
6240.52458,0.11485
6242.45305,0.12167
6244.38152,0.09348
6246.30999,0.03397
6248.23846,0.01819
6250.16692,0.05034
6252.09539,0.05541
6254.02386,0.06181
6255.95233,0.10892
6257.88080,0.11657
6259.80927,0.06090
6261.73774,0.04341
6263.66621,0.10749
6265.59467,0.14707
6267.52314,0.12145
6269.45161,0.10279
6271.38008,0.07324
6273.30855,0.03278
6275.23702,0.02916
6277.16549,0.03079
6279.09395,0.00732
6281.02242,-0.02877
6282.95089,-0.06348
6284.87936,-0.06225
6286.80783,-0.05163
6288.73630,-0.05957
6290.66477,-0.01563
6292.59323,0.03088
6294.52170,-0.00616
6296.45017,-0.03204
6298.37864,-0.01465
6300.30711,0.00546
6302.23558,0.00635
6304.16405,-0.03867
6306.09252,-0.05637
6308.02098,0.01864
6309.94945,0.09916
6311.87792,0.08121
6313.80639,0.01089
6315.73486,-0.02130
6317.66333,-0.01518
6319.59180,-0.00009
6321.52026,0.01531
6323.44873,0.03331
6325.37720,0.04749
6327.30567,0.04582
6329.23414,0.03834
6331.16261,0.06393
6333.09108,0.12259
6335.01955,0.15402
6336.94801,0.13944
6338.87648,0.09383
6340.80495,0.03600
6342.73342,0.04453
6344.66189,0.11661
6346.59036,0.13228
6348.51883,0.07012
6350.44729,-0.01493
6352.37576,-0.03857
6354.30423,0.01871
6356.23270,0.05349
6358.16117,0.07538
6360.08964,0.12509
6362.01811,0.11295
6363.94658,0.01699
6365.87504,-0.07278
6367.80351,-0.07315
6369.73198,0.01664
6371.66045,0.06737
6373.58892,0.02796
6375.51739,0.02725
6377.44586,0.09224
6379.37432,0.14138
6381.30279,0.15944
6383.23126,0.16029
6385.15973,0.12075
6387.08820,0.09547
6389.01667,0.13667
6390.94514,0.15660
6392.87361,0.09657
6394.80207,0.06654
6396.73054,0.10946
6398.65901,0.14629
6400.58748,0.16293
6402.51595,0.16998
6404.44442,0.19126
6406.37289,0.25452
6408.30135,0.27312
6410.22982,0.18464
6412.15829,0.10347
6414.08676,0.10746
6416.01523,0.10970
6417.94370,0.03791
6419.87217,-0.06606
6421.80064,-0.06851
6423.72910,0.04223
6425.65757,0.08819
6427.58604,0.04397
6429.51451,0.05954
6431.44298,0.12310
6433.37145,0.12363
6435.29992,0.04546
6437.22838,-0.07574
6439.15685,-0.15218
6441.08532,-0.12569
6443.01379,-0.02311
6444.94226,0.08906
6446.87073,0.11662
6448.79920,0.07027
6450.72766,0.01358
6452.65613,-0.03194
6454.58460,-0.02961
6456.51307,-0.00222
6458.44154,-0.01444
6460.37001,-0.04953
6462.29848,-0.04760
6464.22695,0.01792
6466.15541,0.08326
6468.08388,0.07342
6470.01235,0.00830
6471.94082,-0.06871
6473.86929,-0.10808
6475.79776,-0.07025
6477.72623,-0.04210
6479.65469,-0.02767
6481.58316,0.10036
6483.51163,0.25275
6485.44010,0.23080
6487.36857,0.12292
6489.29704,0.06654
6491.22551,0.05293
6493.15398,0.05614
6495.08244,0.06131
6497.01091,0.06281
6498.93938,0.07175
6500.86785,0.05680
6502.79632,0.02780
6504.72479,0.03342
6506.65326,0.06590
6508.58172,0.11838
6510.51019,0.16192
6512.43866,0.11255
6514.36713,0.03160
6516.29560,-0.00469
6518.22407,-0.00137
6520.15254,-0.01935
6522.08101,-0.06351
6524.00947,-0.04663
6525.93794,0.00373
6527.86641,-0.01700
6529.79488,-0.01162
6531.72335,0.04132
6533.65182,0.03346
6535.58029,-0.00808
6537.50875,-0.00979
6539.43722,0.02515
6541.36569,0.04313
6543.29416,0.03481
6545.22263,0.03613
6547.15110,0.03106
6549.07957,-0.00098
6551.00804,-0.01809
6552.93650,0.03061
6554.86497,0.09195
6556.79344,0.09864
6558.72191,0.11258
6560.65038,0.18422
6562.57885,0.22301
6564.50732,0.17115
6566.43578,0.09568
6568.36425,0.05424
6570.29272,0.05741
6572.22119,0.04798
6574.14966,-0.02015
6576.07813,-0.05379
6578.00660,-0.01791
6579.93507,0.02127
6581.86353,0.06245
6583.79200,0.09199
6585.72047,0.04856
6587.64894,-0.02417
6589.57741,-0.02342
6591.50588,0.02071
6593.43435,0.04703
6595.36281,0.06066
6597.29128,0.05828
6599.21975,0.05792
6601.14822,0.02753
6603.07669,-0.04403
6605.00516,-0.04160
6606.93363,0.02966
6608.86210,0.03708
6610.79056,-0.01575
6612.71903,-0.00175
6614.64750,0.06233
6616.57597,0.07587
6618.50444,0.05755
6620.43291,0.07308
6622.36138,0.12296
6624.28984,0.16482
6626.21831,0.15406
6628.14678,0.13329
6630.07525,0.17038
6632.00372,0.21666
6633.93219,0.20622
6635.86066,0.16300
6637.78912,0.13269
6639.71759,0.10262
6641.64606,0.07545
6643.57453,0.07012
6645.50300,0.07632
6647.43147,0.07537
6649.35994,0.07204
6651.28841,0.08383
6653.21687,0.11313
6655.14534,0.15379
6657.07381,0.17144
6659.00228,0.16261
6660.93075,0.15116
6662.85922,0.13872
6664.78769,0.09056
6666.71615,-0.01319
6668.64462,-0.05855
6670.57309,0.00296
6672.50156,0.04699
6674.43003,-0.01306
6676.35850,-0.07431
6678.28697,-0.02245
6680.21544,0.06328
6682.14390,0.11176
6684.07237,0.17433
6686.00084,0.20043
6687.92931,0.12497
6689.85778,0.03301
6691.78625,-0.03356
6693.71472,-0.08678
6695.64318,-0.11034
6697.57165,-0.06678
6699.50012,0.04736
6701.42859,0.08450
6703.35706,-0.00381
6705.28553,-0.02493
6707.21400,0.07583
6709.14247,0.12087
6711.07093,0.06268
6712.99940,0.00781
6714.92787,0.02920
6716.85634,0.12076
6718.78481,0.16803
6720.71328,0.15252
6722.64175,0.20420
6724.57021,0.31460
6726.49868,0.35353
6728.42715,0.25627
6730.35562,0.08718
6732.28409,-0.00597
6734.21256,0.01859
6736.14103,0.06266
6738.06950,0.07607
6739.99796,0.12917
6741.92643,0.21613
6743.85490,0.24634
6745.78337,0.20277
6747.71184,0.12465
6749.64031,0.07502
6751.56878,0.05165
6753.49724,0.02300
6755.42571,0.02746
6757.35418,0.09808
6759.28265,0.16556
6761.21112,0.09943
6763.13959,-0.01761
6765.06806,-0.02147
6766.99653,0.02076
6768.92499,-0.01169
6770.85346,-0.10534
6772.78193,-0.20763
6774.71040,-0.24321
6776.63887,-0.13650
6778.56734,-0.01300
6780.49581,-0.02465
6782.42427,-0.10684
6784.35274,-0.08427
6786.28121,0.04158
6788.20968,0.13896
6790.13815,0.15262
6792.06662,0.05212
6793.99509,-0.04678
6795.92355,-0.03097
6797.85202,0.00805
6799.78049,0.00874
6801.70896,-0.04311
6803.63743,-0.11657
6805.56590,-0.12238
6807.49437,-0.10975
6809.42284,-0.14327
6811.35130,-0.14875
6813.27977,-0.07354
6815.20824,0.02936
6817.13671,0.17228
6819.06518,0.28632
6820.99365,0.24400
6822.92212,0.08798
6824.85058,0.04115
6826.77905,0.08391
6828.70752,0.07269
6830.63599,0.07636
6832.56446,0.09597
6834.49293,0.05071
6836.42140,0.01951
6838.34987,0.04556
6840.27833,0.09598
6842.20680,0.17452
6844.13527,0.24610
6846.06374,0.26304
6847.99221,0.24698
6849.92068,0.21757
6851.84915,0.12524
6853.77761,-0.01187
6855.70608,-0.08267
6857.63455,-0.03890
6859.56302,0.04339
6861.49149,0.12056
6863.41996,0.12254
6865.34843,0.00963
6867.27690,-0.11396
6869.20536,-0.09403
6871.13383,0.05737
6873.06230,0.17068
6874.99077,0.14744
6876.91924,0.04960
6878.84771,-0.06462
6880.77618,-0.12076
6882.70464,-0.10300
6884.63311,-0.09286
6886.56158,-0.10263
6888.49005,-0.03618
6890.41852,0.08562
6892.34699,0.15259
6894.27546,0.16029
6896.20393,0.12843
6898.13239,0.12373
6900.06086,0.21577
6901.98933,0.27690
6903.91780,0.20425
6905.84627,0.14270
6907.77474,0.19021
6909.70321,0.22124
6911.63167,0.19460
6913.56014,0.14555
6915.48861,0.09203
6917.41708,0.05161
6919.34555,0.04447
6921.27402,0.05956
6923.20249,0.08052
6925.13096,0.08132
6927.05942,0.00964
6928.98789,-0.08014
6930.91636,-0.07938
6932.84483,-0.02137
6934.77330,0.08547
6936.70177,0.26282
6938.63024,0.36268
6940.55870,0.20638
6942.48717,-0.02202
6944.41564,-0.07877
6946.34411,-0.03317
6948.27258,0.01946
6950.20105,0.04738
6952.12952,0.00493
6954.05799,-0.06350
6955.98645,-0.06299
6957.91492,-0.05440
6959.84339,-0.07318
6961.77186,-0.04484
6963.70033,0.03250
6965.62880,0.15725
6967.55727,0.28785
6969.48573,0.23341
6971.41420,0.00503
6973.34267,-0.15118
6975.27114,-0.15991
6977.19961,-0.08112
6979.12808,0.02759
6981.05655,0.09368
6982.98501,0.02262
6984.91348,-0.16064
6986.84195,-0.23857
6988.77042,-0.09808
6990.69889,0.08604
6992.62736,0.16570
6994.55583,0.23869
6996.48430,0.32045
6998.41276,0.25160
7000.34123,0.06338
7002.26970,-0.07877
7004.19817,-0.08842
7006.12664,-0.03806
7008.05511,-0.05635
7009.98358,-0.03761
7011.91204,0.09291
7013.84051,0.22384
7015.76898,0.25384
7017.69745,0.17447
7019.62592,0.06291
7021.55439,0.04019
7023.48286,0.01572
7025.41133,-0.12955
7027.33979,-0.24615
7029.26826,-0.13667
7031.19673,0.06393
7033.12520,0.08831
7035.05367,-0.02020
7036.98214,-0.02029
7038.91061,0.08796
7040.83907,0.18163
7042.76754,0.24795
7044.69601,0.30528
7046.62448,0.23562
7048.55295,0.11053
7050.48142,0.10243
7052.40989,0.09795
7054.33836,0.08092
7056.26682,0.18324
7058.19529,0.29349
7060.12376,0.27424
7062.05223,0.20721
7063.98070,0.15533
7065.90917,0.13383
7067.83764,0.09479
7069.76610,0.00574
7071.69457,-0.10145
7073.62304,-0.05664
7075.55151,0.09293
7077.47998,0.19738
7079.40845,0.28091
7081.33692,0.35510
7083.26539,0.30664
7085.19385,0.17920
7087.12232,0.10504
7089.05079,0.11624
7090.97926,0.11596
7092.90773,0.07351
7094.83620,0.07941
7096.76467,0.19771
7098.69313,0.30387
7100.62160,0.28429
7102.55007,0.27719
7104.47854,0.22247
7106.40701,-0.01198
7108.33548,-0.11536
7110.26395,-0.02515
7112.19242,-0.01587
7114.12088,-0.05333
7116.04935,0.01222
7117.97782,0.13918
7119.90629,0.14494
7121.83476,0.03887
7123.76323,-0.01940
7125.69170,0.01077
7127.62016,0.13920
7129.54863,0.29416
7131.47710,0.25617
7133.40557,0.08492
7135.33404,0.07289
7137.26251,0.22554
7139.19098,0.39951
7141.11944,0.49380
7143.04791,0.52938
7144.97638,0.55481
7146.90485,0.49734
7148.83332,0.34259
7150.76179,0.16287
7152.69026,0.02409
7154.61873,-0.07646
7156.54719,-0.10187
7158.47566,-0.01773
7160.40413,0.08177
7162.33260,0.15618
7164.26107,0.19744
7166.18954,0.14194
7168.11801,0.05207
7170.04647,0.06286
7171.97494,0.05932
7173.90341,-0.10937
7175.83188,-0.26166
7177.76035,-0.24046
7179.68882,-0.20654
7181.61729,-0.21309
7183.54576,-0.10332
7185.47422,0.07263
7187.40269,0.09311
7189.33116,-0.08771
7191.25963,-0.33631
7193.18810,-0.43057
7195.11657,-0.34987
7197.04504,-0.17804
7198.97350,0.03804
7200.90197,0.20882
7202.83044,0.21737
7204.75891,0.11019
7206.68738,0.17797
7208.61585,0.27063
7210.54432,0.16466
7212.47279,0.06667
7214.40125,0.14605
7216.32972,0.22559
7218.25819,0.17493
7220.18666,0.09335
7222.11513,0.03252
7224.04360,0.05006
7225.97207,0.12606
7227.90053,0.12115
7229.82900,0.09748
7231.75747,0.10128
7233.68594,0.03253
7235.61441,0.01013
7237.54288,0.03988
7239.47135,0.03001
7241.39982,0.10241
7243.32828,0.26169
7245.25675,0.26099
7247.18522,0.14760
7249.11369,0.11497
7251.04216,0.19556
7252.97063,0.23320
7254.89910,0.11832
7256.82756,-0.01407
7258.75603,-0.08300
7260.68450,-0.02143
7262.61297,0.12351
7264.54144,0.08726
7266.46991,-0.07610
7268.39838,-0.17537
7270.32685,-0.20881
7272.25531,-0.07239
7274.18378,0.13057
7276.11225,0.17732
7278.04072,0.20420
7279.96919,0.21475
7281.89766,0.05207
7283.82613,-0.07128
7285.75459,-0.00016
7287.68306,0.12219
7289.61153,0.09075
7291.54000,-0.03880
7293.46847,-0.08876
7295.39694,-0.16955
7297.32541,-0.27560
7299.25387,-0.13479
7301.18234,0.19916
7303.11081,0.37657
7305.03928,0.29708
7306.96775,0.17659
7308.89622,0.25905
7310.82469,0.42476
7312.75316,0.35492
7314.68162,0.18957
7316.61009,0.08387
7318.53856,-0.04992
7320.46703,-0.16920
7322.39550,-0.12465
7324.32397,-0.01214
7326.25244,-0.00347
7328.18090,0.01530
7330.10937,0.10952
7332.03784,0.14370
7333.96631,0.14319
7335.89478,0.12282
7337.82325,0.09326
7339.75172,0.13919
7341.68019,0.22419
7343.60865,0.28160
7345.53712,0.32411
7347.46559,0.26588
7349.39406,0.21390
7351.32253,0.25144
7353.25100,0.26667
7355.17947,0.33402
7357.10793,0.35307
7359.03640,0.01801
7360.96487,-0.22148
7362.89334,-0.09924
7364.82181,-0.03811
7366.75028,-0.03970
7368.67875,0.08175
7370.60722,0.22115
7372.53568,0.29227
7374.46415,0.30482
7376.39262,0.22437
7378.32109,0.15148
7380.24956,0.12302
7382.17803,0.05928
7384.10650,-0.00690
7386.03496,-0.02318
7387.96343,-0.01316
7389.89190,0.07534
7391.82037,0.14326
7393.74884,0.08369
7395.67731,0.03841
7397.60578,0.09480
7399.53425,0.23936
7401.46271,0.40416
7403.39118,0.34904
7405.31965,0.00717
7407.24812,-0.22880
7409.17659,-0.21337
7411.10506,-0.09336
7413.03353,-0.02716
7414.96199,-0.05890
7416.89046,-0.02584
7418.81893,0.25711
7420.74740,0.40610
7422.67587,0.19867
7424.60434,-0.02139
7426.53281,-0.05889
7428.46128,0.16253
7430.38974,0.39911
7432.31821,0.14915
7434.24668,-0.32277
7436.17515,-0.43096
7438.10362,-0.13143
7440.03209,0.01259
7441.96056,-0.15123
7443.88902,-0.24145
7445.81749,-0.17747
7447.74596,-0.07090
7449.67443,0.08485
7451.60290,0.22617
7453.53137,0.27440
7455.45984,0.23303
7457.38831,0.05324
7459.31677,-0.17365
7461.24524,-0.12365
7463.17371,0.03690
7465.10218,0.04154
7467.03065,0.01618
7468.95912,0.02326
7470.88759,0.07712
7472.81605,0.28755
7474.74452,0.53388
7476.67299,0.60737
7478.60146,0.50953
7480.52993,0.42731
7482.45840,0.40431
7484.38687,0.32195
7486.31533,0.11906
7488.24380,-0.10318
7490.17227,-0.12959
7492.10074,-0.00028
7494.02921,0.02109
7495.95768,-0.11570
7497.88615,-0.19871
