399.19301,12.02588
401.12148,1.73264
403.04995,0.79380
404.97842,0.34313
406.90689,0.04982
408.83536,-0.04997
410.76382,-0.05416
412.69229,0.02317
414.62076,0.14880
416.54923,0.16548
418.47770,0.12032
420.40617,0.06234
422.33464,-0.03473
424.26311,-0.04776
426.19157,0.01685
428.12004,0.00954
430.04851,0.04134
431.97698,0.13529
433.90545,0.07024
435.83392,0.00156
437.76239,0.02382
439.69085,0.02642
441.61932,-0.02639
443.54779,-0.05981
445.47626,-0.07041
447.40473,-0.10682
449.33320,-0.09798
451.26167,0.00769
453.19013,0.12012
455.11860,0.16701
457.04707,0.20146
458.97554,0.21728
460.90401,0.12938
462.83248,-0.01775
464.76095,-0.09656
466.68942,-0.07039
468.61788,-0.03306
470.54635,0.00978
472.47482,0.07393
474.40329,0.06184
476.33176,0.02083
478.26023,0.04162
480.18870,0.05239
482.11716,0.02609
484.04563,0.04304
485.97410,0.12196
487.90257,0.20272
489.83104,0.24378
491.75951,0.22288
493.68798,0.18233
495.61645,0.13957
497.54491,0.08215
499.47338,0.03839
501.40185,0.05900
503.33032,0.11500
505.25879,0.11317
507.18726,0.06217
509.11573,0.05460
511.04419,0.08670
512.97266,0.09426
514.90113,0.07082
516.82960,0.03952
518.75807,0.05746
520.68654,0.11855
522.61501,0.15426
524.54348,0.17252
526.47194,0.16550
528.40041,0.09186
530.32888,0.02908
532.25735,0.04630
534.18582,0.07785
536.11429,0.08954
538.04276,0.10419
539.97122,0.09763
541.89969,0.06649
543.82816,0.04893
545.75663,0.04894
547.68510,0.06083
549.61357,0.10339
551.54204,0.20676
553.47051,0.30893
555.39897,0.24935
557.32744,0.10933
559.25591,0.07015
561.18438,0.07039
563.11285,0.06630
565.04132,0.07492
566.96979,0.06697
568.89825,0.04675
570.82672,0.04030
572.75519,0.03182
574.68366,0.02613
576.61213,0.05192
578.54060,0.07880
580.46907,0.07794
582.39754,0.05547
584.32600,0.04179
586.25447,0.05569
588.18294,0.08261
590.11141,0.09991
592.03988,0.08130
593.96835,0.04080
595.89682,0.01917
597.82528,0.02143
599.75375,0.03577
601.68222,0.04182
603.61069,0.02860
605.53916,0.02476
607.46763,0.04850
609.39610,0.07076
611.32456,0.06002
613.25303,0.03627
615.18150,0.04354
617.10997,0.07556
619.03844,0.09338
620.96691,0.08122
622.89538,0.06037
624.82385,0.06303
626.75231,0.08142
628.68078,0.08573
630.60925,0.07656
632.53772,0.06481
634.46619,0.06089
636.39466,0.06874
638.32313,0.07017
640.25159,0.06857
642.18006,0.07702
644.10853,0.08764
646.03700,0.10785
647.96547,0.13050
649.89394,0.13445
651.82241,0.13397
653.75088,0.12381
655.67934,0.09283
657.60781,0.06141
659.53628,0.04761
661.46475,0.05795
663.39322,0.07244
665.32169,0.08297
667.25016,0.10263
669.17862,0.09968
671.10709,0.08079
673.03556,0.09333
674.96403,0.10669
676.89250,0.08101
678.82097,0.04672
680.74944,0.05569
682.67791,0.09675
684.60637,0.11765
686.53484,0.09568
688.46331,0.06242
690.39178,0.05683
692.32025,0.07446
694.24872,0.09323
696.17719,0.10408
698.10565,0.10213
700.03412,0.09023
701.96259,0.08358
703.89106,0.08287
705.81953,0.07182
707.74800,0.05884
709.67647,0.04955
711.60494,0.03564
713.53340,0.04210
715.46187,0.07214
717.39034,0.09341
719.31881,0.10117
721.24728,0.09768
723.17575,0.08544
725.10422,0.08291
727.03268,0.09600
728.96115,0.10495
730.88962,0.09415
732.81809,0.07601
734.74656,0.06819
736.67503,0.07838
738.60350,0.09940
740.53197,0.10508
742.46043,0.08861
744.38890,0.07027
746.31737,0.06919
748.24584,0.08565
750.17431,0.10036
752.10278,0.10614
754.03125,0.11273
755.95971,0.11915
757.88818,0.11652
759.81665,0.10736
761.74512,0.10281
763.67359,0.10594
765.60206,0.10853
767.53053,0.10143
769.45900,0.08488
771.38746,0.07490
773.31593,0.08291
775.24440,0.09625
777.17287,0.10126
779.10134,0.09962
781.02981,0.09383
782.95828,0.08488
784.88674,0.08261
786.81521,0.08939
788.74368,0.07997
790.67215,0.05253
792.60062,0.04725
794.52909,0.07288
796.45756,0.09682
798.38602,0.09967
800.31449,0.09192
802.24296,0.09419
804.17143,0.10674
806.09990,0.11788
808.02837,0.12457
809.95684,0.13166
811.88531,0.13267
813.81377,0.11710
815.74224,0.09735
817.67071,0.09147
819.59918,0.10082
821.52765,0.11206
823.45612,0.11450
825.38459,0.10985
827.31305,0.10677
829.24152,0.10547
831.16999,0.10012
833.09846,0.09497
835.02693,0.09476
836.95540,0.09977
838.88387,0.10773
840.81234,0.11216
842.74080,0.10796
844.66927,0.09509
846.59774,0.08501
848.52621,0.09029
850.45468,0.10392
852.38315,0.11163
854.31162,0.10865
856.24008,0.10467
858.16855,0.10763
860.09702,0.10977
862.02549,0.11219
863.95396,0.11010
865.88243,0.10334
867.81090,0.09841
869.73937,0.08461
871.66783,0.08551
873.59630,0.11161
875.52477,0.12112
877.45324,0.10486
879.38171,0.09291
881.31018,0.10251
883.23865,0.11790
885.16711,0.12271
887.09558,0.12198
889.02405,0.11749
890.95252,0.11293
892.88099,0.11482
894.80946,0.11540
896.73793,0.10959
898.66640,0.10640
900.59486,0.11307
902.52333,0.12333
904.45180,0.12574
906.38027,0.11984
908.30874,0.11652
910.23721,0.11853
912.16568,0.11318
914.09414,0.10058
916.02261,0.09782
917.95108,0.10835
919.87955,0.11829
921.80802,0.12298
923.73649,0.12757
925.66496,0.13079
927.59343,0.12880
929.52189,0.12114
931.45036,0.11679
933.37883,0.11868
935.30730,0.11797
937.23577,0.11860
939.16424,0.12467
941.09271,0.12527
943.02117,0.11569
944.94964,0.10642
946.87811,0.10647
948.80658,0.11089
950.73505,0.11180
952.66352,0.11086
954.59199,0.10978
956.52045,0.10975
958.44892,0.11690
960.37739,0.12835
962.30586,0.13411
964.23433,0.13301
966.16280,0.13153
968.09127,0.13238
970.01974,0.13286
971.94820,0.12900
973.87667,0.12246
975.80514,0.12107
977.73361,0.12139
979.66208,0.11696
981.59055,0.11766
983.51902,0.12685
985.44748,0.13350
987.37595,0.13187
989.30442,0.12326
991.23289,0.11699
993.16136,0.12018
995.08983,0.12292
997.01830,0.11553
998.94677,0.10815
1000.87523,0.11480
1002.80370,0.13045
1004.73217,0.13816
1006.66064,0.13301
1008.58911,0.12773
1010.51758,0.12803
1012.44605,0.12682
1014.37451,0.12503
1016.30298,0.12232
1018.23145,0.11234
1020.15992,0.10655
1022.08839,0.11833
1024.01686,0.13216
1025.94533,0.14337
1027.87380,0.16644
1029.80226,0.18202
1031.73073,0.16872
1033.65920,0.14425
1035.58767,0.12934
1037.51614,0.12812
1039.44461,0.13030
1041.37308,0.12479
1043.30154,0.11756
1045.23001,0.11659
1047.15848,0.11878
1049.08695,0.12441
1051.01542,0.13327
1052.94389,0.13360
1054.87236,0.12579
1056.80083,0.12441
1058.72929,0.12819
1060.65776,0.12991
1062.58623,0.13375
1064.51470,0.14022
1066.44317,0.14362
1068.37164,0.14576
1070.30011,0.14745
1072.22857,0.14569
1074.15704,0.14756
1076.08551,0.15068
1078.01398,0.14284
1079.94245,0.13659
1081.87092,0.14315
1083.79939,0.14844
1085.72786,0.14273
1087.65632,0.13134
1089.58479,0.12676
1091.51326,0.13496
1093.44173,0.14834
1095.37020,0.15779
1097.29867,0.15827
1099.22714,0.14978
1101.15560,0.13908
1103.08407,0.13212
1105.01254,0.12963
1106.94101,0.12955
1108.86948,0.12724
1110.79795,0.12806
1112.72642,0.13671
1114.65489,0.13961
1116.58335,0.13358
1118.51182,0.13238
1120.44029,0.13605
1122.36876,0.13301
1124.29723,0.12517
1126.22570,0.12048
1128.15417,0.11727
1130.08263,0.11672
1132.01110,0.12383
1133.93957,0.13423
1135.86804,0.13853
1137.79651,0.13548
1139.72498,0.13485
1141.65345,0.13914
1143.58191,0.14001
1145.51038,0.14142
1147.43885,0.14824
1149.36732,0.15100
1151.29579,0.14423
1153.22426,0.13676
1155.15273,0.13930
1157.08120,0.14523
1159.00966,0.14420
1160.93813,0.13847
1162.86660,0.13446
1164.79507,0.13955
1166.72354,0.14844
1168.65201,0.14675
1170.58048,0.13996
1172.50894,0.14067
1174.43741,0.14342
1176.36588,0.14164
1178.29435,0.14038
1180.22282,0.14143
1182.15129,0.13907
1184.07976,0.13091
1186.00823,0.11810
1187.93669,0.11000
1189.86516,0.11814
1191.79363,0.13105
1193.72210,0.13733
1195.65057,0.14297
1197.57904,0.14699
1199.50751,0.14841
1201.43597,0.15235
1203.36444,0.15521
1205.29291,0.15276
1207.22138,0.15114
1209.14985,0.15247
1211.07832,0.15372
1213.00679,0.15660
1214.93526,0.15631
1216.86372,0.14963
1218.79219,0.14629
1220.72066,0.14764
1222.64913,0.14731
1224.57760,0.14755
1226.50607,0.15088
1228.43454,0.15296
1230.36300,0.15108
1232.29147,0.15024
1234.21994,0.15331
1236.14841,0.15418
1238.07688,0.15004
1240.00535,0.14383
1241.93382,0.13884
1243.86229,0.13891
1245.79075,0.14219
1247.71922,0.14451
1249.64769,0.14976
1251.57616,0.15729
1253.50463,0.15872
1255.43310,0.15569
1257.36157,0.15157
1259.29003,0.14615
1261.21850,0.14461
1263.14697,0.14810
1265.07544,0.15237
1267.00391,0.15467
1268.93238,0.15390
1270.86085,0.15067
1272.78932,0.14794
1274.71778,0.15028
1276.64625,0.15516
1278.57472,0.15359
1280.50319,0.14581
1282.43166,0.14286
1284.36013,0.14743
1286.28860,0.15181
1288.21706,0.15087
1290.14553,0.14836
1292.07400,0.15197
1294.00247,0.15728
1295.93094,0.15538
1297.85941,0.14922
1299.78788,0.14381
1301.71634,0.13915
1303.64481,0.13542
1305.57328,0.13654
1307.50175,0.14345
1309.43022,0.15069
1311.35869,0.15614
1313.28716,0.15831
1315.21563,0.15669
1317.14409,0.15722
1319.07256,0.16021
1321.00103,0.16224
1322.92950,0.16325
1324.85797,0.16270
1326.78644,0.16130
1328.71491,0.15831
1330.64337,0.15419
1332.57184,0.15317
1334.50031,0.15359
1336.42878,0.15358
1338.35725,0.15715
1340.28572,0.16001
1342.21419,0.16193
1344.14266,0.17194
1346.07112,0.17910
1347.99959,0.17050
1349.92806,0.15776
1351.85653,0.15392
1353.78500,0.15508
1355.71347,0.15661
1357.64194,0.16074
1359.57040,0.16614
1361.49887,0.16882
1363.42734,0.16582
1365.35581,0.15949
1367.28428,0.15639
1369.21275,0.15735
1371.14122,0.15989
1373.06969,0.16297
1374.99815,0.16319
1376.92662,0.16296
1378.85509,0.16902
1380.78356,0.17412
1382.71203,0.17110
1384.64050,0.16891
1386.56897,0.17339
1388.49743,0.17726
1390.42590,0.17829
1392.35437,0.17943
1394.28284,0.17671
1396.21131,0.16945
1398.13978,0.16642
1400.06825,0.16770
1401.99672,0.16839
1403.92518,0.17012
1405.85365,0.17159
1407.78212,0.16891
1409.71059,0.16444
1411.63906,0.16054
1413.56753,0.15949
1415.49600,0.16369
1417.42446,0.17161
1419.35293,0.17729
1421.28140,0.18168
1423.20987,0.18757
1425.13834,0.18610
1427.06681,0.17729
1428.99528,0.16997
1430.92375,0.16655
1432.85221,0.16824
1434.78068,0.17417
1436.70915,0.17683
1438.63762,0.17257
1440.56609,0.17017
1442.49456,0.17256
1444.42303,0.17921
1446.35149,0.18634
1448.27996,0.18581
1450.20843,0.18015
1452.13690,0.18085
1454.06537,0.18983
1455.99384,0.20630
1457.92231,0.21306
1459.85077,0.19602
1461.77924,0.18481
1463.70771,0.18352
1465.63618,0.18132
1467.56465,0.17813
1469.49312,0.18226
1471.42159,0.19267
1473.35006,0.19562
1475.27852,0.18964
1477.20699,0.18568
1479.13546,0.18068
1481.06393,0.17567
1482.99240,0.17401
1484.92087,0.17877
1486.84934,0.19212
1488.77780,0.20510
1490.70627,0.20043
1492.63474,0.19029
1494.56321,0.19273
1496.49168,0.20417
1498.42015,0.20427
1500.34862,0.19129
1502.27709,0.18197
1504.20555,0.18583
1506.13402,0.21139
1508.06249,0.22743
1509.99096,0.21162
1511.91943,0.20026
1513.84790,0.19879
1515.77637,0.20376
1517.70483,0.20961
1519.63330,0.21383
1521.56177,0.21538
1523.49024,0.21039
1525.41871,0.20503
1527.34718,0.19652
1529.27565,0.18629
1531.20412,0.18563
1533.13258,0.19333
1535.06105,0.19558
1536.98952,0.19968
1538.91799,0.22339
1540.84646,0.24599
1542.77493,0.22951
1544.70340,0.20997
1546.63186,0.19775
1548.56033,0.19368
1550.48880,0.19266
1552.41727,0.19242
1554.34574,0.20069
1556.27421,0.22382
1558.20268,0.25844
1560.13115,0.23977
1562.05961,0.20688
1563.98808,0.19889
1565.91655,0.19811
1567.84502,0.19793
1569.77349,0.19999
1571.70196,0.20042
1573.63043,0.20505
1575.55889,0.21261
1577.48736,0.20346
1579.41583,0.18881
1581.34430,0.18226
1583.27277,0.18020
1585.20124,0.18041
1587.12971,0.18080
1589.05818,0.17974
1590.98664,0.17764
1592.91511,0.17706
1594.84358,0.18061
1596.77205,0.18425
1598.70052,0.18249
1600.62899,0.17894
1602.55746,0.17939
1604.48592,0.18173
1606.41439,0.18396
1608.34286,0.18764
1610.27133,0.18951
1612.19980,0.18993
1614.12827,0.19551
1616.05674,0.20415
1617.98521,0.20109
1619.91367,0.19428
1621.84214,0.19528
1623.77061,0.19658
1625.69908,0.19441
1627.62755,0.19553
1629.55602,0.19640
1631.48449,0.19724
1633.41295,0.20927
1635.34142,0.23206
1637.26989,0.22751
1639.19836,0.20787
1641.12683,0.19957
1643.05530,0.20049
1644.98377,0.21194
1646.91223,0.22813
1648.84070,0.22542
1650.76917,0.22187
1652.69764,0.23638
1654.62611,0.23461
1656.55458,0.21321
1658.48305,0.20027
1660.41152,0.18919
1662.33998,0.17468
1664.26845,0.17373
1666.19692,0.18751
1668.12539,0.20338
1670.05386,0.21114
1671.98233,0.20622
1673.91080,0.20412
1675.83926,0.20486
1677.76773,0.20342
1679.69620,0.20799
1681.62467,0.21977
1683.55314,0.22955
1685.48161,0.22172
1687.41008,0.20937
1689.33855,0.20167
1691.26701,0.19708
1693.19548,0.19970
1695.12395,0.21358
1697.05242,0.23004
1698.98089,0.23350
1700.90936,0.22349
1702.83783,0.21197
1704.76629,0.20563
1706.69476,0.19980
1708.62323,0.19246
1710.55170,0.18814
1712.48017,0.19264
1714.40864,0.20975
1716.33711,0.23134
1718.26558,0.22657
1720.19404,0.20272
1722.12251,0.18741
1724.05098,0.18161
1725.97945,0.18148
1727.90792,0.18636
1729.83639,0.19390
1731.76486,0.20101
1733.69332,0.20590
1735.62179,0.20214
1737.55026,0.19901
1739.47873,0.20010
1741.40720,0.19947
1743.33567,0.19881
1745.26414,0.20150
1747.19261,0.20710
1749.12107,0.21355
1751.04954,0.20950
1752.97801,0.19690
1754.90648,0.19094
1756.83495,0.19095
1758.76342,0.19247
1760.69189,0.19697
1762.62035,0.19981
1764.54882,0.19868
1766.47729,0.19879
1768.40576,0.20092
1770.33423,0.20500
1772.26270,0.20477
1774.19117,0.19529
1776.11964,0.18914
1778.04810,0.19054
1779.97657,0.19348
1781.90504,0.19244
1783.83351,0.19052
1785.76198,0.19110
1787.69045,0.19371
1789.61892,0.20004
1791.54738,0.20683
1793.47585,0.20459
1795.40432,0.19832
1797.33279,0.19365
1799.26126,0.19067
1801.18973,0.18948
1803.11820,0.18878
1805.04666,0.18912
1806.97513,0.18975
1808.90360,0.19016
1810.83207,0.19133
1812.76054,0.19015
1814.68901,0.18695
1816.61748,0.18418
1818.54595,0.17048
1820.47441,0.15258
1822.40288,0.16266
1824.33135,0.18875
1826.25982,0.19406
1828.18829,0.19137
1830.11676,0.19178
1832.04523,0.18674
1833.97369,0.18283
1835.90216,0.18301
1837.83063,0.18555
1839.75910,0.19032
1841.68757,0.19840
1843.61604,0.20655
1845.54451,0.20491
1847.47298,0.19786
1849.40144,0.19326
1851.32991,0.19040
1853.25838,0.18840
1855.18685,0.18719
1857.11532,0.18622
1859.04379,0.18562
1860.97226,0.18534
1862.90072,0.18553
1864.82919,0.18996
1866.75766,0.19886
1868.68613,0.20233
1870.61460,0.19593
1872.54307,0.18885
1874.47154,0.18533
1876.40001,0.18539
1878.32847,0.18673
1880.25694,0.18635
1882.18541,0.18629
1884.11388,0.18828
1886.04235,0.18839
1887.97082,0.18665
1889.89929,0.18728
1891.82775,0.18987
1893.75622,0.19038
1895.68469,0.18742
1897.61316,0.18440
1899.54163,0.18357
1901.47010,0.18431
1903.39857,0.18533
1905.32704,0.18605
1907.25550,0.18916
1909.18397,0.19357
1911.11244,0.19465
1913.04091,0.19386
1914.96938,0.19366
1916.89785,0.19439
1918.82632,0.19647
1920.75478,0.19922
1922.68325,0.19927
1924.61172,0.19444
1926.54019,0.19042
1928.46866,0.18844
1930.39713,0.18403
1932.32560,0.18022
1934.25407,0.18027
1936.18253,0.18104
1938.11100,0.18183
1940.03947,0.18526
1941.96794,0.19003
1943.89641,0.19158
1945.82488,0.19027
1947.75335,0.18871
1949.68181,0.18699
1951.61028,0.18662
1953.53875,0.18878
1955.46722,0.19111
1957.39569,0.19146
1959.32416,0.19077
1961.25263,0.19053
1963.18110,0.18957
1965.10956,0.18843
1967.03803,0.18841
1968.96650,0.18749
1970.89497,0.18668
1972.82344,0.18849
1974.75191,0.18962
1976.68038,0.18417
1978.60884,0.17482
1980.53731,0.17210
1982.46578,0.17988
1984.39425,0.18853
1986.32272,0.18982
1988.25119,0.18784
1990.17966,0.18785
1992.10812,0.18995
1994.03659,0.19112
1995.96506,0.18893
1997.89353,0.18532
1999.82200,0.18424
2001.75047,0.18712
2003.67894,0.19052
2005.60741,0.19115
2007.53587,0.19047
2009.46434,0.18979
2011.39281,0.18801
2013.32128,0.18890
2015.24975,0.19429
2017.17822,0.19640
2019.10669,0.19354
2021.03515,0.19164
2022.96362,0.19126
2024.89209,0.19093
2026.82056,0.19077
2028.74903,0.19150
2030.67750,0.19443
2032.60597,0.19838
2034.53444,0.20008
2036.46290,0.19759
2038.39137,0.19273
2040.31984,0.18847
2042.24831,0.18448
2044.17678,0.18339
2046.10525,0.18663
2048.03372,0.18955
2049.96218,0.19031
2051.89065,0.18921
2053.81912,0.18838
2055.74759,0.18976
2057.67606,0.19026
2059.60453,0.18796
2061.53300,0.18520
2063.46147,0.18490
2065.38993,0.18790
2067.31840,0.19138
2069.24687,0.19183
2071.17534,0.18992
2073.10381,0.18825
2075.03228,0.18765
2076.96075,0.18751
2078.88921,0.18891
2080.81768,0.19298
2082.74615,0.19575
2084.67462,0.19424
2086.60309,0.19133
2088.53156,0.18931
2090.46003,0.18783
2092.38850,0.18660
2094.31696,0.18622
2096.24543,0.18831
2098.17390,0.19346
2100.10237,0.19807
2102.03084,0.19836
2103.95931,0.19617
2105.88778,0.19394
2107.81624,0.19168
2109.74471,0.19156
2111.67318,0.19240
2113.60165,0.19053
2115.53012,0.18872
2117.45859,0.18875
2119.38706,0.18888
2121.31553,0.19081
2123.24399,0.19400
2125.17246,0.19476
2127.10093,0.19318
2129.02940,0.19149
2130.95787,0.19096
2132.88634,0.19348
2134.81481,0.20057
2136.74327,0.20785
2138.67174,0.20849
2140.60021,0.20290
2142.52868,0.19700
2144.45715,0.19311
2146.38562,0.18907
2148.31409,0.18722
2150.24255,0.19015
2152.17102,0.19266
2154.09949,0.19208
2156.02796,0.19121
2157.95643,0.19239
2159.88490,0.19577
2161.81337,0.19837
2163.74184,0.19726
2165.67030,0.19291
2167.59877,0.18981
2169.52724,0.19103
2171.45571,0.19375
2173.38418,0.19455
2175.31265,0.19455
2177.24112,0.19616
2179.16958,0.19830
2181.09805,0.19779
2183.02652,0.19392
2184.95499,0.19025
2186.88346,0.19092
2188.81193,0.19390
2190.74040,0.19327
2192.66887,0.18971
2194.59733,0.18857
2196.52580,0.19061
2198.45427,0.19332
2200.38274,0.19506
2202.31121,0.19551
2204.23968,0.19534
2206.16815,0.19487
2208.09661,0.19524
2210.02508,0.19732
2211.95355,0.19828
2213.88202,0.19739
2215.81049,0.19725
2217.73896,0.19745
2219.66743,0.19730
2221.59590,0.19695
2223.52436,0.19522
2225.45283,0.19320
2227.38130,0.19338
2229.30977,0.19438
2231.23824,0.19372
2233.16671,0.19119
2235.09518,0.18750
2237.02364,0.18570
2238.95211,0.18870
2240.88058,0.19418
2242.80905,0.19786
2244.73752,0.19862
2246.66599,0.19770
2248.59446,0.19609
2250.52293,0.19576
2252.45139,0.19775
2254.37986,0.19978
2256.30833,0.19940
2258.23680,0.19664
2260.16527,0.19422
2262.09374,0.19404
2264.02221,0.19600
2265.95067,0.19834
2267.87914,0.19758
2269.80761,0.19459
2271.73608,0.19327
2273.66455,0.19315
2275.59302,0.19225
2277.52149,0.19058
2279.44996,0.18908
2281.37842,0.18969
2283.30689,0.19318
2285.23536,0.19564
2287.16383,0.19419
2289.09230,0.19218
2291.02077,0.19198
2292.94924,0.18923
2294.87770,0.18294
2296.80617,0.18411
2298.73464,0.19324
2300.66311,0.19576
2302.59158,0.19152
2304.52005,0.18808
2306.44852,0.18731
2308.37699,0.19081
2310.30545,0.19461
2312.23392,0.19546
2314.16239,0.19780
2316.09086,0.20217
2318.01933,0.20205
2319.94780,0.19775
2321.87627,0.19390
2323.80473,0.18415
2325.73320,0.17510
2327.66167,0.18311
2329.59014,0.19617
2331.51861,0.19997
2333.44708,0.20018
2335.37555,0.19982
2337.30401,0.20413
2339.23248,0.21232
2341.16095,0.20836
2343.08942,0.19185
2345.01789,0.18297
2346.94636,0.18772
2348.87483,0.19340
2350.80330,0.19592
2352.73176,0.19932
2354.66023,0.20710
2356.58870,0.21588
2358.51717,0.20984
2360.44564,0.18701
2362.37411,0.17437
2364.30258,0.18001
2366.23104,0.19811
2368.15951,0.21759
2370.08798,0.21997
2372.01645,0.21013
2373.94492,0.20056
2375.87339,0.19482
2377.80186,0.19101
2379.73033,0.18716
2381.65879,0.18787
2383.58726,0.19261
2385.51573,0.19626
2387.44420,0.19793
2389.37267,0.19665
2391.30114,0.19402
2393.22961,0.19451
2395.15807,0.19783
2397.08654,0.20004
2399.01501,0.19964
2400.94348,0.19940
2402.87195,0.20129
2404.80042,0.20319
2406.72889,0.20314
2408.65736,0.20375
2410.58582,0.20529
2412.51429,0.20292
2414.44276,0.19776
2416.37123,0.19420
2418.29970,0.19235
2420.22817,0.19224
2422.15664,0.19306
2424.08510,0.19381
2426.01357,0.19414
2427.94204,0.19234
2429.87051,0.19098
2431.79898,0.19348
2433.72745,0.19688
2435.65592,0.19737
2437.58439,0.19508
2439.51285,0.19160
2441.44132,0.18939
2443.36979,0.19025
2445.29826,0.19152
2447.22673,0.19063
2449.15520,0.19227
2451.08367,0.19847
2453.01213,0.19778
2454.94060,0.19462
2456.86907,0.20226
2458.79754,0.20475
2460.72601,0.19708
2462.65448,0.19379
2464.58295,0.19384
2466.51142,0.19586
2468.43988,0.19925
2470.36835,0.19935
2472.29682,0.19744
2474.22529,0.19628
2476.15376,0.19618
2478.08223,0.19665
2480.01070,0.19786
2481.93916,0.19917
2483.86763,0.19836
2485.79610,0.19591
2487.72457,0.19547
2489.65304,0.19749
2491.58151,0.19749
2493.50998,0.19405
2495.43844,0.19276
2497.36691,0.19578
2499.29538,0.19945
2501.22385,0.20102
2503.15232,0.19914
2505.08079,0.19686
2507.00926,0.19644
2508.93773,0.19526
2510.86619,0.19425
2512.79466,0.19635
2514.72313,0.19926
2516.65160,0.19847
2518.58007,0.19381
2520.50854,0.19059
2522.43701,0.19214
2524.36547,0.19439
2526.29394,0.19586
2528.22241,0.19807
2530.15088,0.19882
2532.07935,0.19895
2534.00782,0.19989
2535.93629,0.19904
2537.86476,0.19765
2539.79322,0.19873
2541.72169,0.20039
2543.65016,0.20144
2545.57863,0.20227
2547.50710,0.20187
2549.43557,0.20031
2551.36404,0.19858
2553.29250,0.19858
2555.22097,0.19869
2557.14944,0.19651
2559.07791,0.19637
2561.00638,0.19966
2562.93485,0.20315
2564.86332,0.20413
2566.79179,0.20132
2568.72025,0.19902
2570.64872,0.20102
2572.57719,0.20470
2574.50566,0.20656
2576.43413,0.20501
2578.36260,0.20048
2580.29107,0.19742
2582.21953,0.19876
2584.14800,0.20139
2586.07647,0.20281
2588.00494,0.20272
2589.93341,0.20105
2591.86188,0.20078
2593.79035,0.20339
2595.71882,0.20453
2597.64728,0.20243
2599.57575,0.20238
2601.50422,0.20576
2603.43269,0.20669
2605.36116,0.20203
2607.28963,0.19705
2609.21810,0.20043
2611.14656,0.20902
2613.07503,0.21150
2615.00350,0.20721
2616.93197,0.20289
2618.86044,0.20150
2620.78891,0.20097
2622.71738,0.19922
2624.64585,0.19760
2626.57431,0.19769
2628.50278,0.20050
2630.43125,0.20515
2632.35972,0.20611
2634.28819,0.20274
2636.21666,0.20159
2638.14513,0.20405
2640.07359,0.20765
2642.00206,0.21032
2643.93053,0.20935
2645.85900,0.20506
2647.78747,0.20095
2649.71594,0.19995
2651.64441,0.20181
2653.57288,0.20355
2655.50134,0.20307
2657.42981,0.20229
2659.35828,0.20377
2661.28675,0.20729
2663.21522,0.21156
2665.14369,0.21422
2667.07216,0.21284
2669.00062,0.20757
2670.92909,0.20189
2672.85756,0.20073
2674.78603,0.20571
2676.71450,0.21194
2678.64297,0.21430
2680.57144,0.21321
2682.49990,0.20966
2684.42837,0.20511
2686.35684,0.20211
2688.28531,0.20097
2690.21378,0.20130
2692.14225,0.20349
2694.07072,0.20586
2695.99919,0.20613
2697.92765,0.20515
2699.85612,0.20378
2701.78459,0.20162
2703.71306,0.20083
2705.64153,0.20379
2707.57000,0.20819
2709.49847,0.21007
2711.42693,0.20822
2713.35540,0.20551
2715.28387,0.20546
2717.21234,0.20588
2719.14081,0.20602
2721.06928,0.20984
2722.99775,0.21534
2724.92622,0.21628
2726.85468,0.21202
2728.78315,0.20616
2730.71162,0.20245
2732.64009,0.20386
2734.56856,0.20650
2736.49703,0.20590
2738.42550,0.20655
2740.35396,0.21116
2742.28243,0.21428
2744.21090,0.21368
2746.13937,0.21321
2748.06784,0.21178
2749.99631,0.20717
2751.92478,0.20363
2753.85325,0.20399
2755.78171,0.20714
2757.71018,0.21098
2759.63865,0.21276
2761.56712,0.21059
2763.49559,0.20716
2765.42406,0.20884
2767.35253,0.21500
2769.28099,0.21913
2771.20946,0.22037
2773.13793,0.22077
2775.06640,0.22003
2776.99487,0.21594
2778.92334,0.20966
2780.85181,0.20914
2782.78028,0.21370
2784.70874,0.21475
2786.63721,0.21375
2788.56568,0.21468
2790.49415,0.21539
2792.42262,0.21436
2794.35109,0.21333
2796.27956,0.21224
2798.20802,0.21110
2800.13649,0.21227
2802.06496,0.21325
2803.99343,0.21348
2805.92190,0.21645
2807.85037,0.21941
2809.77884,0.21910
2811.70731,0.21713
2813.63577,0.21641
2815.56424,0.21798
2817.49271,0.21950
2819.42118,0.21934
2821.34965,0.21715
2823.27812,0.21367
2825.20659,0.21384
2827.13505,0.21955
2829.06352,0.22537
2830.99199,0.22610
2832.92046,0.22190
2834.84893,0.21857
2836.77740,0.22049
2838.70587,0.22206
2840.63433,0.21808
2842.56280,0.21320
2844.49127,0.20998
2846.41974,0.20851
2848.34821,0.20948
2850.27668,0.20955
2852.20515,0.21057
2854.13362,0.21637
2856.06208,0.22281
2857.99055,0.22527
2859.91902,0.22548
2861.84749,0.22561
2863.77596,0.22343
2865.70443,0.22066
2867.63290,0.22016
2869.56136,0.21993
2871.48983,0.22134
2873.41830,0.22521
2875.34677,0.22568
2877.27524,0.22196
2879.20371,0.22026
2881.13218,0.22004
2883.06065,0.21660
2884.98911,0.21276
2886.91758,0.21241
2888.84605,0.21194
2890.77452,0.20962
2892.70299,0.20996
2894.63146,0.21355
2896.55993,0.21618
2898.48839,0.21643
2900.41686,0.21600
2902.34533,0.21589
2904.27380,0.21606
2906.20227,0.21680
2908.13074,0.21652
2910.05921,0.21234
2911.98768,0.20824
2913.91614,0.20867
2915.84461,0.20974
2917.77308,0.21068
2919.70155,0.21060
2921.63002,0.20684
2923.55849,0.20331
2925.48696,0.20190
2927.41542,0.20332
2929.34389,0.20629
2931.27236,0.20658
2933.20083,0.20637
2935.12930,0.20779
2937.05777,0.20996
2938.98624,0.21422
2940.91471,0.21859
2942.84317,0.21721
2944.77164,0.21104
2946.70011,0.20540
2948.62858,0.20409
2950.55705,0.20799
2952.48552,0.21269
2954.41399,0.21507
2956.34245,0.21154
2958.27092,0.20578
2960.19939,0.20951
2962.12786,0.21895
2964.05633,0.22342
2965.98480,0.22031
2967.91327,0.21291
2969.84174,0.21176
2971.77020,0.22017
2973.69867,0.22650
2975.62714,0.22247
2977.55561,0.21377
2979.48408,0.21076
2981.41255,0.21567
2983.34102,0.22180
2985.26948,0.22495
2987.19795,0.22556
2989.12642,0.22545
2991.05489,0.22891
2992.98336,0.23263
2994.91183,0.22791
2996.84030,0.21913
2998.76877,0.21665
3000.69723,0.22168
3002.62570,0.22758
3004.55417,0.22733
3006.48264,0.22166
3008.41111,0.21412
3010.33958,0.20457
3012.26805,0.19230
3014.19651,0.17419
3016.12498,0.15712
3018.05345,0.16332
3019.98192,0.19297
3021.91039,0.21887
3023.83886,0.22925
3025.76733,0.23064
3027.69579,0.22914
3029.62426,0.22738
3031.55273,0.22428
3033.48120,0.22303
3035.40967,0.22622
3037.33814,0.22803
3039.26661,0.22711
3041.19508,0.22541
3043.12354,0.22155
3045.05201,0.21620
3046.98048,0.21161
3048.90895,0.21231
3050.83742,0.22004
3052.76589,0.22589
3054.69436,0.22198
3056.62282,0.21347
3058.55129,0.21234
3060.47976,0.21880
3062.40823,0.22109
3064.33670,0.21331
3066.26517,0.20272
3068.19364,0.20148
3070.12211,0.20772
3072.05057,0.21090
3073.97904,0.20886
3075.90751,0.20701
3077.83598,0.21323
3079.76445,0.22266
3081.69292,0.22243
3083.62139,0.21228
3085.54985,0.20498
3087.47832,0.21041
3089.40679,0.21989
3091.33526,0.22138
3093.26373,0.21578
3095.19220,0.21254
3097.12067,0.21384
3099.04914,0.21387
3100.97760,0.21409
3102.90607,0.21265
3104.83454,0.21101
3106.76301,0.21637
3108.69148,0.22367
3110.61995,0.22351
3112.54842,0.21665
3114.47688,0.21451
3116.40535,0.21890
3118.33382,0.22167
3120.26229,0.22170
3122.19076,0.22295
3124.11923,0.22788
3126.04770,0.23242
3127.97617,0.23245
3129.90463,0.22845
3131.83310,0.22291
3133.76157,0.22046
3135.69004,0.22432
3137.61851,0.22945
3139.54698,0.23009
3141.47545,0.22982
3143.40391,0.23011
3145.33238,0.22755
3147.26085,0.22326
3149.18932,0.22224
3151.11779,0.22586
3153.04626,0.22779
3154.97473,0.22388
3156.90320,0.21970
3158.83166,0.22055
3160.76013,0.22499
3162.68860,0.23075
3164.61707,0.23420
3166.54554,0.23291
3168.47401,0.23100
3170.40248,0.23157
3172.33094,0.23257
3174.25941,0.22992
3176.18788,0.22513
3178.11635,0.22657
3180.04482,0.23068
3181.97329,0.22845
3183.90176,0.22595
3185.83022,0.22736
3187.75869,0.22964
3189.68716,0.23208
3191.61563,0.23135
3193.54410,0.22628
3195.47257,0.22245
3197.40104,0.22370
3199.32951,0.22646
3201.25797,0.22690
3203.18644,0.22479
3205.11491,0.22154
3207.04338,0.22100
3208.97185,0.22361
3210.90032,0.22572
3212.82879,0.22738
3214.75725,0.22942
3216.68572,0.22855
3218.61419,0.22497
3220.54266,0.22245
3222.47113,0.22178
3224.39960,0.22222
3226.32807,0.22262
3228.25654,0.22274
3230.18500,0.22265
3232.11347,0.22188
3234.04194,0.22026
3235.97041,0.21715
3237.89888,0.21585
3239.82735,0.22131
3241.75582,0.22357
3243.68428,0.20801
3245.61275,0.19258
3247.54122,0.20177
3249.46969,0.21748
3251.39816,0.21875
3253.32663,0.21523
3255.25510,0.21616
3257.18357,0.22020
3259.11203,0.22613
3261.04050,0.23325
3262.96897,0.23886
3264.89744,0.23783
3266.82591,0.23197
3268.75438,0.22809
3270.68285,0.22735
3272.61131,0.22624
3274.53978,0.22080
3276.46825,0.21305
3278.39672,0.21114
3280.32519,0.21552
3282.25366,0.21824
3284.18213,0.21877
3286.11060,0.21779
3288.03906,0.21367
3289.96753,0.21111
3291.89600,0.21023
3293.82447,0.20960
3295.75294,0.21021
3297.68141,0.20871
3299.60988,0.20754
3301.53834,0.21317
3303.46681,0.22354
3305.39528,0.23164
3307.32375,0.23392
3309.25222,0.23392
3311.18069,0.23739
3313.10916,0.24153
3315.03763,0.24314
3316.96609,0.24263
3318.89456,0.23377
3320.82303,0.21887
3322.75150,0.21352
3324.67997,0.22113
3326.60844,0.22934
3328.53691,0.23071
3330.46537,0.23055
3332.39384,0.23075
3334.32231,0.22707
3336.25078,0.22465
3338.17925,0.22977
3340.10772,0.23759
3342.03619,0.24145
3343.96466,0.23796
3345.89312,0.23023
3347.82159,0.22521
3349.75006,0.22241
3351.67853,0.22119
3353.60700,0.22376
3355.53547,0.22793
3357.46394,0.23137
3359.39240,0.23215
3361.32087,0.22863
3363.24934,0.22482
3365.17781,0.22718
3367.10628,0.23416
3369.03475,0.23704
3370.96322,0.23229
3372.89168,0.22597
3374.82015,0.22438
3376.74862,0.22580
3378.67709,0.22599
3380.60556,0.22414
3382.53403,0.22278
3384.46250,0.22562
3386.39097,0.23035
3388.31943,0.22959
3390.24790,0.22593
3392.17637,0.22790
3394.10484,0.23111
3396.03331,0.23052
3397.96178,0.23058
3399.89025,0.22614
3401.81871,0.21315
3403.74718,0.20178
3405.67565,0.19805
3407.60412,0.20506
3409.53259,0.21933
3411.46106,0.22418
3413.38953,0.21919
3415.31800,0.21695
3417.24646,0.22097
3419.17493,0.22614
3421.10340,0.22452
3423.03187,0.22044
3424.96034,0.21983
3426.88881,0.21827
3428.81728,0.21477
3430.74574,0.21067
3432.67421,0.20744
3434.60268,0.20925
3436.53115,0.21424
3438.45962,0.21591
3440.38809,0.21364
3442.31656,0.21073
3444.24503,0.21042
3446.17349,0.20800
3448.10196,0.20068
3450.03043,0.20028
3451.95890,0.20491
3453.88737,0.20495
3455.81584,0.20230
3457.74431,0.19970
3459.67277,0.19959
3461.60124,0.20081
3463.52971,0.20190
3465.45818,0.20398
3467.38665,0.20142
3469.31512,0.19428
3471.24359,0.19135
3473.17206,0.19496
3475.10052,0.20107
3477.02899,0.20713
3478.95746,0.21368
3480.88593,0.21635
3482.81440,0.21035
3484.74287,0.20244
3486.67134,0.19692
3488.59980,0.19196
3490.52827,0.18934
3492.45674,0.19017
3494.38521,0.19373
3496.31368,0.19740
3498.24215,0.19676
3500.17062,0.19072
3502.09909,0.18407
3504.02755,0.18414
3505.95602,0.18895
3507.88449,0.19303
3509.81296,0.19749
3511.74143,0.20038
3513.66990,0.19851
3515.59837,0.19418
3517.52683,0.18961
3519.45530,0.18806
3521.38377,0.19109
3523.31224,0.19193
3525.24071,0.18889
3527.16918,0.19061
3529.09765,0.19684
3531.02611,0.19826
3532.95458,0.19200
3534.88305,0.18084
3536.81152,0.16996
3538.73999,0.16725
3540.66846,0.17399
3542.59693,0.18390
3544.52540,0.19257
3546.45386,0.19459
3548.38233,0.18767
3550.31080,0.18105
3552.23927,0.17625
3554.16774,0.16845
3556.09621,0.16453
3558.02468,0.16853
3559.95314,0.16985
3561.88161,0.16100
3563.81008,0.15355
3565.73855,0.16201
3567.66702,0.17641
3569.59549,0.17398
3571.52396,0.16561
3573.45243,0.16254
3575.38089,0.16125
3577.30936,0.16106
3579.23783,0.16265
3581.16630,0.16455
3583.09477,0.17188
3585.02324,0.18307
3586.95171,0.18911
3588.88017,0.18946
3590.80864,0.18735
3592.73711,0.18236
3594.66558,0.17523
3596.59405,0.16888
3598.52252,0.16827
3600.45099,0.17195
3602.37946,0.17025
3604.30792,0.16245
3606.23639,0.15822
3608.16486,0.16231
3610.09333,0.16843
3612.02180,0.17255
3613.95027,0.17342
3615.87874,0.17116
3617.80720,0.17049
3619.73567,0.16946
3621.66414,0.16267
3623.59261,0.15347
3625.52108,0.14917
3627.44955,0.15497
3629.37802,0.16423
3631.30649,0.16266
3633.23495,0.15671
3635.16342,0.15154
3637.09189,0.14671
3639.02036,0.14235
3640.94883,0.14000
3642.87730,0.14050
3644.80577,0.14711
3646.73423,0.16504
3648.66270,0.18835
3650.59117,0.18166
3652.51964,0.15891
3654.44811,0.14921
3656.37658,0.14789
3658.30505,0.14580
3660.23352,0.14229
3662.16198,0.13847
3664.09045,0.13778
3666.01892,0.14143
3667.94739,0.14711
3669.87586,0.15123
3671.80433,0.15297
3673.73280,0.16088
3675.66126,0.16668
3677.58973,0.15385
3679.51820,0.14029
3681.44667,0.13213
3683.37514,0.12737
3685.30361,0.12972
3687.23208,0.14157
3689.16055,0.15634
3691.08901,0.15755
3693.01748,0.14929
3694.94595,0.14239
3696.87442,0.13384
3698.80289,0.12486
3700.73136,0.12304
3702.65983,0.12931
3704.58829,0.14084
3706.51676,0.15487
3708.44523,0.16573
3710.37370,0.16709
3712.30217,0.15902
3714.23064,0.15075
3716.15911,0.14449
3718.08757,0.13644
3720.01604,0.12641
3721.94451,0.12158
3723.87298,0.12797
3725.80145,0.13605
3727.72992,0.13365
3729.65839,0.13211
3731.58686,0.14462
3733.51532,0.16325
3735.44379,0.16751
3737.37226,0.15762
3739.30073,0.15199
3741.22920,0.15323
3743.15767,0.15605
3745.08614,0.15650
3747.01460,0.15510
3748.94307,0.16005
3750.87154,0.16510
3752.80001,0.15293
3754.72848,0.14262
3756.65695,0.14240
3758.58542,0.14518
3760.51389,0.14405
3762.44235,0.14081
3764.37082,0.14099
3766.29929,0.14351
3768.22776,0.14290
3770.15623,0.13694
3772.08470,0.12976
3774.01317,0.12589
3775.94163,0.12697
3777.87010,0.13538
3779.79857,0.14338
3781.72704,0.14089
3783.65551,0.13663
3785.58398,0.13322
3787.51245,0.12491
3789.44092,0.11788
3791.36938,0.11965
3793.29785,0.12627
3795.22632,0.13447
3797.15479,0.14401
3799.08326,0.14892
3801.01173,0.14657
3802.94020,0.13818
3804.86866,0.13186
3806.79713,0.13067
3808.72560,0.12866
3810.65407,0.12474
3812.58254,0.12173
3814.51101,0.11923
3816.43948,0.12284
3818.36795,0.13851
3820.29641,0.15683
3822.22488,0.15688
3824.15335,0.14373
3826.08182,0.13360
3828.01029,0.12850
3829.93876,0.13114
3831.86723,0.13612
3833.79569,0.13747
3835.72416,0.13924
3837.65263,0.14046
3839.58110,0.13897
3841.50957,0.13819
3843.43804,0.13407
3845.36651,0.12930
3847.29498,0.13050
3849.22344,0.13838
3851.15191,0.15277
3853.08038,0.16221
3855.00885,0.14792
3856.93732,0.13578
3858.86579,0.13013
3860.79426,0.12733
3862.72272,0.13038
3864.65119,0.13383
3866.57966,0.13160
3868.50813,0.13136
3870.43660,0.13511
3872.36507,0.14017
3874.29354,0.14186
3876.22200,0.13359
3878.15047,0.12214
3880.07894,0.11618
3882.00741,0.11862
3883.93588,0.12462
3885.86435,0.12726
3887.79282,0.12521
3889.72129,0.12295
3891.64975,0.12027
3893.57822,0.11617
3895.50669,0.11295
3897.43516,0.11237
3899.36363,0.11370
3901.29210,0.11171
3903.22057,0.10988
3905.14903,0.11801
3907.07750,0.12502
3909.00597,0.11938
3910.93444,0.10769
3912.86291,0.10218
3914.79138,0.10450
3916.71985,0.10904
3918.64832,0.11425
3920.57678,0.11962
3922.50525,0.12184
3924.43372,0.12052
3926.36219,0.11621
3928.29066,0.10957
3930.21913,0.10358
3932.14760,0.09958
3934.07606,0.10037
3936.00453,0.10607
3937.93300,0.11113
3939.86147,0.11590
3941.78994,0.11907
3943.71841,0.11488
3945.64688,0.11076
3947.57535,0.11361
3949.50381,0.11752
3951.43228,0.11649
3953.36075,0.11369
3955.28922,0.11243
3957.21769,0.10979
3959.14616,0.10534
3961.07463,0.10098
3963.00309,0.09782
3964.93156,0.10074
3966.86003,0.10752
3968.78850,0.11126
3970.71697,0.11142
3972.64544,0.10496
3974.57391,0.09500
3976.50238,0.09286
3978.43084,0.09465
3980.35931,0.09389
3982.28778,0.09702
3984.21625,0.10675
3986.14472,0.11452
3988.07319,0.11555
3990.00166,0.11374
3991.93012,0.10947
3993.85859,0.10271
3995.78706,0.10002
3997.71553,0.10219
3999.64400,0.10173
4001.57247,0.09611
4003.50094,0.08884
4005.42941,0.08322
4007.35787,0.08368
4009.28634,0.08988
4011.21481,0.09547
4013.14328,0.09987
4015.07175,0.10547
4017.00022,0.11228
4018.92869,0.11537
4020.85715,0.10741
4022.78562,0.09551
4024.71409,0.09086
4026.64256,0.09238
4028.57103,0.09612
4030.49950,0.09904
4032.42797,0.10276
4034.35644,0.10770
4036.28490,0.10441
4038.21337,0.09236
4040.14184,0.08234
4042.07031,0.08071
4043.99878,0.08470
4045.92725,0.08744
4047.85572,0.08782
4049.78418,0.08838
4051.71265,0.08871
4053.64112,0.08784
4055.56959,0.08960
4057.49806,0.09671
4059.42653,0.10290
4061.35500,0.10170
4063.28346,0.09628
4065.21193,0.09194
4067.14040,0.08762
4069.06887,0.08379
4070.99734,0.08439
4072.92581,0.08855
4074.85428,0.09171
4076.78275,0.09274
4078.71121,0.09419
4080.63968,0.09351
4082.56815,0.08734
4084.49662,0.08381
4086.42509,0.08932
4088.35356,0.09444
4090.28203,0.09299
4092.21049,0.08971
4094.13896,0.08822
4096.06743,0.08911
4097.99590,0.08695
4099.92437,0.08147
4101.85284,0.08224
4103.78131,0.08906
4105.70978,0.09299
4107.63824,0.08931
4109.56671,0.07994
4111.49518,0.07357
4113.42365,0.07437
4115.35212,0.07827
4117.28059,0.08668
4119.20906,0.09728
4121.13752,0.09865
4123.06599,0.09096
4124.99446,0.08552
4126.92293,0.08565
4128.85140,0.08485
4130.77987,0.08017
4132.70834,0.07665
4134.63681,0.07939
4136.56527,0.08418
4138.49374,0.08461
4140.42221,0.08236
4142.35068,0.08085
4144.27915,0.07807
4146.20762,0.07000
4148.13609,0.06462
4150.06455,0.06900
4151.99302,0.07230
4153.92149,0.06976
4155.84996,0.07089
4157.77843,0.07650
4159.70690,0.07806
4161.63537,0.07791
4163.56384,0.08283
4165.49230,0.08452
4167.42077,0.07345
4169.34924,0.05883
4171.27771,0.05448
4173.20618,0.06038
4175.13465,0.06646
4177.06312,0.06469
4178.99158,0.06224
4180.92005,0.06860
4182.84852,0.07679
4184.77699,0.07803
4186.70546,0.07588
4188.63393,0.07532
4190.56240,0.07331
4192.49087,0.06878
4194.41933,0.06560
4196.34780,0.06794
4198.27627,0.07577
4200.20474,0.07914
4202.13321,0.07453
4204.06168,0.06910
4205.99015,0.06423
4207.91861,0.06256
4209.84708,0.06791
4211.77555,0.07040
4213.70402,0.06248
4215.63249,0.05313
4217.56096,0.04990
4219.48943,0.05047
4221.41789,0.05097
4223.34636,0.04930
4225.27483,0.04877
4227.20330,0.05468
4229.13177,0.06250
4231.06024,0.06532
4232.98871,0.06411
4234.91718,0.05955
4236.84564,0.05158
4238.77411,0.04490
4240.70258,0.04390
4242.63105,0.04535
4244.55952,0.04337
4246.48799,0.03921
4248.41646,0.03847
4250.34492,0.04563
4252.27339,0.05724
4254.20186,0.06453
4256.13033,0.06472
4258.05880,0.05825
4259.98727,0.04896
4261.91574,0.04588
4263.84421,0.04871
4265.77267,0.04681
4267.70114,0.03723
4269.62961,0.02945
4271.55808,0.03109
4273.48655,0.03607
4275.41502,0.03558
4277.34349,0.03397
4279.27195,0.03803
4281.20042,0.04346
4283.12889,0.04255
4285.05736,0.03843
4286.98583,0.03913
4288.91430,0.04446
4290.84277,0.05141
4292.77124,0.05296
4294.69970,0.04387
4296.62817,0.03586
4298.55664,0.03788
4300.48511,0.04054
4302.41358,0.04091
4304.34205,0.04436
4306.27052,0.04500
4308.19898,0.03705
4310.12745,0.03030
4312.05592,0.03399
4313.98439,0.03787
4315.91286,0.03416
4317.84133,0.02903
4319.76980,0.02166
4321.69827,0.01749
4323.62673,0.02762
4325.55520,0.03975
4327.48367,0.04111
4329.41214,0.04027
4331.34061,0.03860
4333.26908,0.03083
4335.19755,0.02521
4337.12601,0.02663
4339.05448,0.02703
4340.98295,0.02434
4342.91142,0.02788
4344.83989,0.03689
4346.76836,0.03949
4348.69683,0.03656
4350.62530,0.03376
4352.55376,0.02674
4354.48223,0.01528
4356.41070,0.00975
4358.33917,0.01530
4360.26764,0.02745
4362.19611,0.04195
4364.12458,0.04984
4366.05304,0.03999
4367.98151,0.02506
4369.90998,0.02264
4371.83845,0.02413
4373.76692,0.02207
4375.69539,0.02143
4377.62386,0.02417
4379.55232,0.02675
4381.48079,0.02222
4383.40926,0.01524
4385.33773,0.01821
4387.26620,0.02567
4389.19467,0.02359
4391.12314,0.01680
4393.05161,0.01910
4394.98007,0.02984
4396.90854,0.03621
4398.83701,0.03287
4400.76548,0.02646
4402.69395,0.02089
4404.62242,0.01804
4406.55089,0.01865
4408.47935,0.02231
4410.40782,0.02464
4412.33629,0.01398
4414.26476,0.00084
4416.19323,0.00559
4418.12170,0.01688
4420.05017,0.02063
4421.97864,0.02320
4423.90710,0.02435
4425.83557,0.02002
4427.76404,0.01616
4429.69251,0.01512
4431.62098,0.01678
4433.54945,0.02167
4435.47792,0.02557
4437.40638,0.02419
4439.33485,0.01906
4441.26332,0.01765
4443.19179,0.01720
4445.12026,0.01228
4447.04873,0.01099
4448.97720,0.01344
4450.90567,0.01122
4452.83413,0.00676
4454.76260,0.00680
4456.69107,0.00868
4458.61954,0.00783
4460.54801,0.00879
4462.47648,0.01513
4464.40495,0.02000
4466.33341,0.01499
4468.26188,0.00600
4470.19035,0.00517
4472.11882,0.00669
4474.04729,0.00283
4475.97576,0.00441
4477.90423,0.01463
4479.83270,0.02113
4481.76116,0.02041
4483.68963,0.01505
4485.61810,0.00709
4487.54657,0.00110
4489.47504,-0.00295
4491.40351,-0.00694
4493.33198,-0.00992
4495.26044,-0.01046
4497.18891,-0.00922
4499.11738,-0.01014
4501.04585,-0.00777
4502.97432,0.00431
4504.90279,0.00997
4506.83126,-0.00005
4508.75973,-0.00814
4510.68819,-0.00334
4512.61666,0.00790
4514.54513,0.01366
4516.47360,0.00503
4518.40207,-0.00992
4520.33054,-0.01547
4522.25901,-0.01156
4524.18747,-0.00248
4526.11594,0.01336
4528.04441,0.02473
4529.97288,0.02085
4531.90135,0.00968
4533.82982,-0.00010
4535.75829,-0.00644
4537.68676,-0.00590
4539.61522,0.00303
4541.54369,0.01422
4543.47216,0.01739
4545.40063,0.00954
4547.32910,0.00353
4549.25757,0.00262
4551.18604,0.00110
4553.11450,0.00678
4555.04297,0.01401
4556.97144,0.00712
4558.89991,-0.00676
4560.82838,-0.00632
4562.75685,0.00669
4564.68532,0.00878
4566.61378,0.00701
4568.54225,0.01343
4570.47072,0.00860
4572.39919,-0.00779
4574.32766,-0.01509
4576.25613,-0.01084
4578.18460,-0.00445
4580.11307,-0.00263
4582.04153,-0.00192
4583.97000,0.00628
4585.89847,0.01294
4587.82694,0.00682
4589.75541,0.00091
4591.68388,0.00387
4593.61235,0.00253
4595.54081,-0.00976
4597.46928,-0.01731
4599.39775,-0.00689
4601.32622,0.00774
4603.25469,0.01094
4605.18316,0.00815
4607.11163,0.00545
4609.04010,0.00199
4610.96856,-0.00014
4612.89703,-0.00084
4614.82550,0.00161
4616.75397,0.00973
4618.68244,0.01622
4620.61091,0.00959
4622.53938,-0.00348
4624.46784,0.00064
4626.39631,0.01691
4628.32478,0.02048
4630.25325,0.01438
4632.18172,0.01069
4634.11019,0.01128
4636.03866,0.01293
4637.96713,0.01318
4639.89559,0.01471
4641.82406,0.01539
4643.75253,0.00945
4645.68100,0.00393
4647.60947,0.01022
4649.53794,0.01841
4651.46641,0.01211
4653.39487,-0.00169
4655.32334,-0.00013
4657.25181,0.01914
4659.18028,0.02852
4661.10875,0.01290
4663.03722,-0.00360
4664.96569,0.00387
4666.89416,0.01859
4668.82262,0.01911
4670.75109,0.00947
4672.67956,-0.00023
4674.60803,-0.00213
4676.53650,0.00085
4678.46497,0.00489
4680.39344,0.01170
4682.32190,0.01907
4684.25037,0.01949
4686.17884,0.00899
4688.10731,-0.00178
4690.03578,-0.00695
4691.96425,-0.01670
4693.89272,-0.03428
4695.82119,-0.03282
4697.74965,-0.00624
4699.67812,0.00740
4701.60659,0.00213
4703.53506,0.00261
4705.46353,0.00956
4707.39200,0.01472
4709.32047,0.01196
4711.24893,0.00161
4713.17740,-0.00273
4715.10587,0.00465
4717.03434,0.01421
4718.96281,0.01542
4720.89128,0.01008
4722.81975,0.00243
4724.74821,-0.01056
4726.67668,-0.01920
4728.60515,-0.00768
4730.53362,0.00669
4732.46209,-0.00176
4734.39056,-0.02311
4736.31903,-0.02728
4738.24750,-0.01337
4740.17596,0.00269
4742.10443,0.01769
4744.03290,0.02566
4745.96137,0.01913
4747.88984,0.00507
4749.81831,0.00061
4751.74678,0.00542
4753.67524,0.01253
4755.60371,0.02508
4757.53218,0.02682
4759.46065,0.00877
4761.38912,-0.00566
4763.31759,-0.00231
4765.24606,0.00869
4767.17453,0.00829
4769.10299,-0.00106
4771.03146,0.00153
4772.95993,0.02019
4774.88840,0.04028
4776.81687,0.04199
4778.74534,0.02852
4780.67381,0.01915
4782.60227,0.01094
4784.53074,0.00035
4786.45921,-0.01476
4788.38768,-0.03488
4790.31615,-0.03382
4792.24462,-0.00896
4794.17309,0.00993
4796.10156,0.01324
4798.03002,0.00966
4799.95849,0.00916
4801.88696,0.01978
4803.81543,0.03054
4805.74390,0.02395
4807.67237,0.01151
4809.60084,0.00506
4811.52930,-0.00128
4813.45777,-0.00544
4815.38624,-0.00656
4817.31471,-0.00443
4819.24318,0.00459
4821.17165,0.01204
4823.10012,0.00882
4825.02859,0.00506
4826.95705,0.00750
4828.88552,0.00158
4830.81399,-0.00389
4832.74246,0.00790
4834.67093,0.01345
4836.59940,0.00012
4838.52787,-0.00949
4840.45633,-0.00860
4842.38480,-0.00944
4844.31327,-0.01110
4846.24174,-0.00432
4848.17021,0.00242
4850.09868,0.00241
4852.02715,0.01130
4853.95562,0.02345
4855.88408,0.01977
4857.81255,0.01566
4859.74102,0.02021
4861.66949,0.01756
4863.59796,0.01311
4865.52643,0.01224
4867.45490,0.00055
4869.38336,-0.01426
4871.31183,-0.01405
4873.24030,-0.00541
4875.16877,0.00107
4877.09724,0.00253
4879.02571,-0.00553
4880.95418,-0.01714
4882.88265,-0.01406
4884.81111,0.00172
4886.73958,0.01227
4888.66805,0.01543
4890.59652,0.01271
4892.52499,0.00737
4894.45346,0.01295
4896.38193,0.02258
4898.31039,0.01656
4900.23886,0.00110
4902.16733,-0.01044
4904.09580,-0.01527
4906.02427,-0.00818
4907.95274,0.00430
4909.88121,0.00979
4911.80967,0.01140
4913.73814,0.01121
4915.66661,0.00588
4917.59508,-0.00180
4919.52355,-0.00295
4921.45202,0.00329
4923.38049,0.00532
4925.30896,0.00377
4927.23742,0.01029
4929.16589,0.01958
4931.09436,0.01721
4933.02283,0.00503
4934.95130,-0.00249
4936.87977,-0.00019
4938.80824,0.00372
4940.73670,0.00412
4942.66517,0.01500
4944.59364,0.03123
4946.52211,0.02565
4948.45058,0.00733
4950.37905,0.00484
4952.30752,0.01116
4954.23599,0.00846
4956.16445,0.00269
4958.09292,-0.00207
4960.02139,-0.00566
4961.94986,0.00721
4963.87833,0.02695
4965.80680,0.02762
4967.73527,0.01583
4969.66373,0.00552
4971.59220,0.00021
4973.52067,-0.00011
4975.44914,0.00395
4977.37761,0.01027
4979.30608,0.00732
4981.23455,-0.00340
4983.16302,0.00086
4985.09148,0.01133
4987.01995,-0.00107
4988.94842,-0.01552
4990.87689,-0.00150
4992.80536,0.01086
4994.73383,-0.00647
4996.66230,-0.02064
4998.59076,-0.01651
5000.51923,-0.01584
5002.44770,-0.00618
5004.37617,0.01657
5006.30464,0.02212
5008.23311,0.00891
5010.16158,-0.00130
5012.09005,0.00210
5014.01851,0.01278
5015.94698,0.02124
5017.87545,0.02132
5019.80392,0.00802
5021.73239,-0.00761
5023.66086,-0.01345
5025.58933,-0.01657
5027.51779,-0.01777
5029.44626,-0.00518
5031.37473,0.01512
5033.30320,0.02754
5035.23167,0.03045
5037.16014,0.02940
5039.08861,0.02115
5041.01708,0.00605
5042.94554,0.00031
5044.87401,0.00484
5046.80248,-0.00164
5048.73095,-0.01756
5050.65942,-0.02651
5052.58789,-0.02574
5054.51636,-0.01802
5056.44482,-0.00866
5058.37329,-0.00357
5060.30176,-0.00043
5062.23023,0.00591
5064.15870,0.01578
5066.08717,0.02231
5068.01564,0.02163
5069.94410,0.01274
5071.87257,0.00014
5073.80104,-0.00016
5075.72951,0.00705
5077.65798,0.00488
5079.58645,-0.00001
5081.51492,-0.00320
5083.44339,-0.00970
5085.37185,-0.01488
5087.30032,-0.01607
5089.22879,-0.01750
5091.15726,-0.01176
5093.08573,-0.00159
5095.01420,-0.00600
5096.94267,-0.02336
5098.87113,-0.03382
5100.79960,-0.01640
5102.72807,0.01718
5104.65654,0.03804
5106.58501,0.03884
5108.51348,0.02703
5110.44195,0.02282
5112.37042,0.02988
5114.29888,0.03613
5116.22735,0.03843
5118.15582,0.02873
5120.08429,0.01783
5122.01276,0.01986
5123.94123,0.01797
5125.86970,0.01415
5127.79816,0.01916
5129.72663,0.01722
5131.65510,0.01507
5133.58357,0.02307
5135.51204,0.02379
5137.44051,0.01170
5139.36898,-0.00177
5141.29745,-0.00011
5143.22591,0.03040
5145.15438,0.08112
5147.08285,0.11035
5149.01132,0.08525
5150.93979,0.03423
5152.86826,0.00889
5154.79673,0.01362
5156.72519,0.02194
5158.65366,0.03716
5160.58213,0.06030
5162.51060,0.05826
5164.43907,0.03568
5166.36754,0.02721
5168.29601,0.02834
5170.22448,0.01809
5172.15294,0.00099
5174.08141,0.00369
5176.00988,0.02539
5177.93835,0.03550
5179.86682,0.02533
5181.79529,0.01416
5183.72376,0.01578
5185.65222,0.01957
5187.58069,0.02138
5189.50916,0.03569
5191.43763,0.05116
5193.36610,0.04416
5195.29457,0.02166
5197.22304,0.00292
5199.15151,-0.00480
5201.07997,0.00444
5203.00844,0.02510
5204.93691,0.02964
5206.86538,0.01801
5208.79385,0.02173
5210.72232,0.02931
5212.65079,0.02758
5214.57925,0.02763
5216.50772,0.02414
5218.43619,0.01538
5220.36466,0.00984
5222.29313,0.00132
5224.22160,-0.00290
5226.15007,0.01746
5228.07854,0.04338
5230.00700,0.04196
5231.93547,0.03073
5233.86394,0.03780
5235.79241,0.05012
5237.72088,0.06077
5239.64935,0.06971
5241.57782,0.06073
5243.50628,0.04903
5245.43475,0.05478
5247.36322,0.05735
5249.29169,0.04072
5251.22016,0.01617
5253.14863,0.01295
5255.07710,0.03214
5257.00556,0.04259
5258.93403,0.04020
5260.86250,0.03304
5262.79097,0.03589
5264.71944,0.04654
5266.64791,0.03590
5268.57638,0.02163
5270.50485,0.02965
5272.43331,0.03946
5274.36178,0.02340
5276.29025,-0.01018
5278.21872,-0.03390
5280.14719,-0.03616
5282.07566,-0.02293
5284.00413,-0.00346
5285.93259,0.00921
5287.86106,0.00482
5289.78953,-0.00486
5291.71800,-0.00170
5293.64647,0.01629
5295.57494,0.03156
5297.50341,0.01990
5299.43188,-0.00074
5301.36034,0.00983
5303.28881,0.03898
5305.21728,0.05394
5307.14575,0.05177
5309.07422,0.04960
5311.00269,0.06201
5312.93116,0.06872
5314.85962,0.05258
5316.78809,0.03907
5318.71656,0.04438
5320.64503,0.04699
5322.57350,0.03750
5324.50197,0.04094
5326.43044,0.05666
5328.35891,0.05032
5330.28737,0.03456
5332.21584,0.02904
5334.14431,0.02398
5336.07278,0.01936
5338.00125,0.00975
5339.92972,0.00221
5341.85819,0.01906
5343.78665,0.04304
5345.71512,0.05083
5347.64359,0.04657
5349.57206,0.02622
5351.50053,0.00712
5353.42900,0.02131
5355.35747,0.03875
5357.28594,0.03453
5359.21440,0.03611
5361.14287,0.04795
5363.07134,0.05883
5364.99981,0.06632
5366.92828,0.06462
5368.85675,0.04750
5370.78522,0.01738
5372.71368,0.00375
5374.64215,0.02442
5376.57062,0.03047
5378.49909,0.00282
5380.42756,-0.00591
5382.35603,0.00930
5384.28450,0.02235
5386.21297,0.03867
5388.14143,0.06542
5390.06990,0.08065
5391.99837,0.08416
5393.92684,0.08482
5395.85531,0.07347
5397.78378,0.05075
5399.71225,0.02923
5401.64071,0.02531
5403.56918,0.03945
5405.49765,0.05235
5407.42612,0.05654
5409.35459,0.05062
5411.28306,0.04575
5413.21153,0.05586
5415.13999,0.06597
5417.06846,0.06034
5418.99693,0.04197
5420.92540,0.02161
5422.85387,0.01304
5424.78234,0.02631
5426.71081,0.04391
5428.63928,0.04547
5430.56774,0.04688
5432.49621,0.05970
5434.42468,0.08044
5436.35315,0.09389
5438.28162,0.08210
5440.21009,0.05353
5442.13856,0.03665
5444.06702,0.03998
5445.99549,0.04364
5447.92396,0.04982
5449.85243,0.06028
5451.78090,0.05353
5453.70937,0.03513
5455.63784,0.03132
5457.56631,0.05984
5459.49477,0.08357
5461.42324,0.05259
5463.35171,0.01361
5465.28018,0.02794
5467.20865,0.05783
5469.13712,0.04699
5471.06559,0.01139
5472.99405,-0.00207
5474.92252,0.02701
5476.85099,0.07765
5478.77946,0.09720
5480.70793,0.08289
5482.63640,0.06396
5484.56487,0.05169
5486.49334,0.05315
5488.42180,0.07143
5490.35027,0.08387
5492.27874,0.07476
5494.20721,0.06975
5496.13568,0.07642
5498.06415,0.07382
5499.99262,0.05727
5501.92108,0.04051
5503.84955,0.05960
5505.77802,0.10760
5507.70649,0.11973
5509.63496,0.08805
5511.56343,0.04397
5513.49190,0.00358
5515.42037,-0.00971
5517.34883,0.00009
5519.27730,0.00981
5521.20577,0.01363
5523.13424,0.02354
5525.06271,0.03973
5526.99118,0.04889
5528.91965,0.05034
5530.84811,0.04505
5532.77658,0.05750
5534.70505,0.09928
5536.63352,0.12239
5538.56199,0.09889
5540.49046,0.06569
5542.41893,0.06448
5544.34740,0.09472
5546.27586,0.13044
5548.20433,0.13248
5550.13280,0.08758
5552.06127,0.04450
5553.98974,0.04629
5555.91821,0.07406
5557.84668,0.08083
5559.77514,0.07674
5561.70361,0.08056
5563.63208,0.05241
5565.56055,0.01140
5567.48902,0.01294
5569.41749,0.02988
5571.34596,0.03048
5573.27443,0.03076
5575.20289,0.03580
5577.13136,0.03489
5579.05983,0.03599
5580.98830,0.05494
5582.91677,0.07975
5584.84524,0.07630
5586.77371,0.05153
5588.70217,0.04597
5590.63064,0.05357
5592.55911,0.04675
5594.48758,0.05103
5596.41605,0.07907
5598.34452,0.08810
5600.27299,0.07143
5602.20145,0.06238
5604.12992,0.07303
5606.05839,0.09863
5607.98686,0.10459
5609.91533,0.06020
5611.84380,0.00907
5613.77227,0.02546
5615.70074,0.09541
5617.62920,0.12895
5619.55767,0.07879
5621.48614,0.00676
5623.41461,-0.00568
5625.34308,0.02532
5627.27155,0.05251
5629.20002,0.06393
5631.12848,0.06519
5633.05695,0.08399
5634.98542,0.12165
5636.91389,0.14214
5638.84236,0.13843
5640.77083,0.14042
5642.69930,0.14898
5644.62777,0.11433
5646.55623,0.05109
5648.48470,0.05244
5650.41317,0.10075
5652.34164,0.10535
5654.27011,0.08032
5656.19858,0.07110
5658.12705,0.06890
5660.05551,0.07433
5661.98398,0.09275
5663.91245,0.09495
5665.84092,0.06024
5667.76939,0.01575
5669.69786,0.00464
5671.62633,0.02665
5673.55480,0.05182
5675.48326,0.07302
5677.41173,0.07382
5679.34020,0.04033
5681.26867,0.01494
5683.19714,0.02388
5685.12561,0.03107
5687.05408,0.03121
5688.98254,0.05670
5690.91101,0.09072
5692.83948,0.11236
5694.76795,0.13297
5696.69642,0.14297
5698.62489,0.13449
5700.55336,0.12078
5702.48183,0.11222
5704.41029,0.12242
5706.33876,0.14483
5708.26723,0.13918
5710.19570,0.09899
5712.12417,0.07320
5714.05264,0.07520
5715.98111,0.06759
5717.90957,0.05345
5719.83804,0.06484
5721.76651,0.08319
5723.69498,0.06857
5725.62345,0.04503
5727.55192,0.04768
5729.48039,0.04922
5731.40886,0.05224
5733.33732,0.08494
5735.26579,0.10552
5737.19426,0.09183
5739.12273,0.11080
5741.05120,0.14793
5742.97967,0.12932
5744.90814,0.10446
5746.83660,0.11379
5748.76507,0.09023
5750.69354,0.03358
5752.62201,0.02107
5754.55048,0.03254
5756.47895,0.02417
5758.40742,0.02843
5760.33588,0.04732
5762.26435,0.05166
5764.19282,0.05957
5766.12129,0.06981
5768.04976,0.05074
5769.97823,0.02760
5771.90670,0.02184
5773.83517,0.00892
5775.76363,0.00374
5777.69210,0.01739
5779.62057,0.02818
5781.54904,0.03683
5783.47751,0.04586
5785.40598,0.06320
5787.33445,0.08348
5789.26291,0.07256
5791.19138,0.03248
5793.11985,0.00525
5795.04832,0.02408
5796.97679,0.05246
5798.90526,0.03029
5800.83373,0.01685
5802.76220,0.06146
5804.69066,0.08164
5806.61913,0.04896
5808.54760,0.02747
5810.47607,0.04542
5812.40454,0.07894
5814.33301,0.08525
5816.26148,0.05672
5818.18994,0.02470
5820.11841,0.01453
5822.04688,0.01590
5823.97535,0.02139
5825.90382,0.01723
5827.83229,0.00101
5829.76076,0.01385
5831.68923,0.05863
5833.61769,0.10159
5835.54616,0.11686
5837.47463,0.09898
5839.40310,0.07331
5841.33157,0.07858
5843.26004,0.10889
5845.18851,0.10787
5847.11697,0.08404
5849.04544,0.08858
5850.97391,0.10093
5852.90238,0.09939
5854.83085,0.11442
5856.75932,0.13588
5858.68779,0.13648
5860.61626,0.13522
5862.54472,0.12554
5864.47319,0.08753
5866.40166,0.08860
5868.33013,0.14840
5870.25860,0.17250
5872.18707,0.14275
5874.11554,0.09434
5876.04400,0.04842
5877.97247,0.02365
5879.90094,0.01853
5881.82941,0.05139
5883.75788,0.07928
5885.68635,0.04930
5887.61482,0.03793
5889.54329,0.07751
5891.47175,0.09080
5893.40022,0.07227
5895.32869,0.06350
5897.25716,0.07066
5899.18563,0.07261
5901.11410,0.04401
5903.04257,0.00680
5904.97103,-0.00327
5906.89950,0.02087
5908.82797,0.05197
5910.75644,0.04132
5912.68491,0.00594
5914.61338,-0.02318
5916.54185,-0.04974
5918.47032,-0.05858
5920.39878,-0.02649
5922.32725,0.03001
5924.25572,0.06833
5926.18419,0.07512
5928.11266,0.07132
5930.04113,0.07083
5931.96960,0.08078
5933.89806,0.10462
5935.82653,0.11983
5937.75500,0.13549
5939.68347,0.16176
5941.61194,0.16139
5943.54041,0.13983
5945.46888,0.10436
5947.39734,0.04055
5949.32581,0.00690
5951.25428,0.03398
5953.18275,0.03603
5955.11122,0.00215
5957.03969,0.00600
5958.96816,0.03566
5960.89663,0.06005
5962.82509,0.11161
5964.75356,0.17412
5966.68203,0.16760
5968.61050,0.07924
5970.53897,0.00751
5972.46744,0.01492
5974.39591,0.04498
5976.32437,0.04779
5978.25284,0.06939
5980.18131,0.11952
5982.10978,0.14976
5984.03825,0.14239
5985.96672,0.08064
5987.89519,-0.01025
5989.82366,-0.06191
5991.75212,-0.09371
5993.68059,-0.12123
5995.60906,-0.07997
5997.53753,0.00325
5999.46600,0.04905
6001.39447,0.07695
6003.32294,0.09689
6005.25140,0.07416
6007.17987,0.02120
6009.10834,-0.02577
6011.03681,-0.02066
6012.96528,0.04619
6014.89375,0.09460
6016.82222,0.07307
6018.75069,0.03546
6020.67915,0.05280
6022.60762,0.09275
6024.53609,0.08628
6026.46456,0.05746
6028.39303,0.06135
6030.32150,0.08021
6032.24997,0.08462
6034.17843,0.09812
6036.10690,0.12973
6038.03537,0.14240
6039.96384,0.12407
6041.89231,0.10152
6043.82078,0.08221
6045.74925,0.07359
6047.67772,0.07856
6049.60618,0.07412
6051.53465,0.09236
6053.46312,0.13626
6055.39159,0.13658
6057.32006,0.11157
6059.24853,0.10320
6061.17700,0.10336
6063.10546,0.11719
6065.03393,0.12674
6066.96240,0.10597
6068.89087,0.06287
6070.81934,0.01173
6072.74781,-0.03127
6074.67628,-0.02348
6076.60475,0.03286
6078.53321,0.06661
6080.46168,0.04852
6082.39015,0.01222
6084.31862,-0.00565
6086.24709,0.01613
6088.17556,0.05424
6090.10403,0.07197
6092.03249,0.08268
6093.96096,0.09065
6095.88943,0.08669
6097.81790,0.06174
6099.74637,0.02335
6101.67484,0.03150
6103.60331,0.07450
6105.53177,0.08031
6107.46024,0.03098
6109.38871,-0.03238
6111.31718,-0.03332
6113.24565,0.01916
6115.17412,0.05513
6117.10259,0.07825
6119.03106,0.11017
6120.95952,0.12711
6122.88799,0.11765
6124.81646,0.08318
6126.74493,0.03056
6128.67340,-0.00244
6130.60187,0.00255
6132.53034,0.02952
6134.45880,0.06182
6136.38727,0.07173
6138.31574,0.06353
6140.24421,0.06809
6142.17268,0.05454
6144.10115,0.00645
6146.02962,-0.00785
6147.95809,0.02476
6149.88655,0.05552
6151.81502,0.05456
6153.74349,0.03264
6155.67196,0.04404
6157.60043,0.10129
6159.52890,0.15824
6161.45737,0.18688
6163.38583,0.16777
6165.31430,0.10550
6167.24277,0.07230
6169.17124,0.09442
6171.09971,0.10323
6173.02818,0.04761
6174.95665,-0.01342
6176.88512,0.00266
6178.81358,0.07834
6180.74205,0.11551
6182.67052,0.08926
6184.59899,0.06161
6186.52746,0.07202
6188.45593,0.10168
6190.38440,0.08778
6192.31286,0.04617
6194.24133,0.05052
6196.16980,0.07757
6198.09827,0.08463
6200.02674,0.09927
6201.95521,0.11567
6203.88368,0.09100
6205.81215,0.03791
6207.74061,0.02788
6209.66908,0.07294
6211.59755,0.08487
6213.52602,0.05764
6215.45449,0.04685
6217.38296,0.05816
6219.31143,0.11404
6221.23989,0.16055
6223.16836,0.13624
6225.09683,0.10184
6227.02530,0.06633
6228.95377,0.01237
6230.88224,-0.01521
6232.81071,0.01326
6234.73918,0.07566
6236.66764,0.10061
6238.59611,0.07391
6240.52458,0.05628
6242.45305,0.08973
6244.38152,0.14344
6246.30999,0.15459
6248.23846,0.13813
6250.16692,0.14350
6252.09539,0.14212
6254.02386,0.13104
6255.95233,0.15106
6257.88080,0.14759
6259.80927,0.08242
6261.73774,0.04244
6263.66621,0.05493
6265.59467,0.03709
6267.52314,0.01690
6269.45161,0.06406
6271.38008,0.10631
6273.30855,0.09162
6275.23702,0.06149
6277.16549,0.04558
6279.09395,0.03095
6281.02242,0.03015
6282.95089,0.06580
6284.87936,0.10579
6286.80783,0.09019
6288.73630,0.05615
6290.66477,0.08314
6292.59323,0.11921
6294.52170,0.11558
6296.45017,0.12017
6298.37864,0.13816
6300.30711,0.13412
6302.23558,0.06856
6304.16405,-0.03337
6306.09252,-0.07969
6308.02098,-0.05027
6309.94945,-0.00270
6311.87792,0.04844
6313.80639,0.11030
6315.73486,0.13405
6317.66333,0.11816
6319.59180,0.12961
6321.52026,0.13416
6323.44873,0.07751
6325.37720,0.05937
6327.30567,0.10236
6329.23414,0.07998
6331.16261,0.00559
6333.09108,0.02232
6335.01955,0.13034
6336.94801,0.19864
6338.87648,0.15765
6340.80495,0.11497
6342.73342,0.15289
6344.66189,0.15756
6346.59036,0.08854
6348.51883,0.06936
6350.44729,0.09441
6352.37576,0.08027
6354.30423,0.07672
6356.23270,0.11308
6358.16117,0.12185
6360.08964,0.06932
6362.01811,0.02964
6363.94658,0.06829
6365.87504,0.12324
6367.80351,0.13270
6369.73198,0.10713
6371.66045,0.04435
6373.58892,0.00461
6375.51739,0.03678
6377.44586,0.07209
6379.37432,0.09133
6381.30279,0.15224
6383.23126,0.19063
6385.15973,0.09419
6387.08820,0.03055
6389.01667,0.10600
6390.94514,0.15638
6392.87361,0.12002
6394.80207,0.11725
6396.73054,0.13281
6398.65901,0.13628
6400.58748,0.15969
6402.51595,0.18094
6404.44442,0.17464
6406.37289,0.17580
6408.30135,0.21757
6410.22982,0.26217
6412.15829,0.26528
6414.08676,0.21879
6416.01523,0.17718
6417.94370,0.19452
6419.87217,0.20149
6421.80064,0.13292
6423.72910,0.03228
6425.65757,-0.00211
6427.58604,0.06835
6429.51451,0.13419
6431.44298,0.13053
6433.37145,0.11118
6435.29992,0.08274
6437.22838,0.03597
6439.15685,0.03537
6441.08532,0.10211
6443.01379,0.17084
6444.94226,0.19345
6446.87073,0.16486
6448.79920,0.10127
6450.72766,0.09328
6452.65613,0.15941
6454.58460,0.22458
6456.51307,0.26027
6458.44154,0.18952
6460.37001,0.02065
6462.29848,-0.04837
6464.22695,0.03202
6466.15541,0.08183
6468.08388,0.04107
6470.01235,0.03120
6471.94082,0.13804
6473.86929,0.25233
6475.79776,0.24949
6477.72623,0.19577
6479.65469,0.15546
6481.58316,0.06751
6483.51163,-0.03087
6485.44010,-0.03787
6487.36857,0.02412
6489.29704,0.07143
6491.22551,0.05792
6493.15398,-0.00211
6495.08244,-0.00680
6497.01091,0.05317
6498.93938,0.09956
6500.86785,0.14533
6502.79632,0.18023
6504.72479,0.17144
6506.65326,0.15684
6508.58172,0.11231
6510.51019,0.01446
6512.43866,-0.04445
6514.36713,-0.02284
6516.29560,0.03329
6518.22407,0.08491
6520.15254,0.08693
6522.08101,0.03413
6524.00947,0.00025
6525.93794,0.04557
6527.86641,0.08819
6529.79488,0.08470
6531.72335,0.07473
6533.65182,0.03737
6535.58029,-0.00914
6537.50875,0.00822
6539.43722,0.12338
6541.36569,0.26230
6543.29416,0.24257
6545.22263,0.08144
6547.15110,-0.00789
6549.07957,0.01739
6551.00804,0.06636
6552.93650,0.06916
6554.86497,0.05694
6556.79344,0.07346
6558.72191,0.07925
6560.65038,0.07159
6562.57885,0.10108
6564.50732,0.12528
6566.43578,0.06357
6568.36425,-0.04170
6570.29272,-0.06946
6572.22119,-0.00909
6574.14966,0.02512
6576.07813,0.03322
6578.00660,0.08390
6579.93507,0.09336
6581.86353,0.01527
6583.79200,-0.03566
6585.72047,-0.02254
6587.64894,0.00041
6589.57741,0.01652
6591.50588,0.01792
6593.43435,-0.01242
6595.36281,-0.02326
6597.29128,0.01728
6599.21975,0.04910
6601.14822,0.07936
6603.07669,0.10409
6605.00516,0.08706
6606.93363,0.08934
6608.86210,0.15004
6610.79056,0.24753
6612.71903,0.32654
6614.64750,0.30304
6616.57597,0.14425
6618.50444,0.01231
6620.43291,0.04164
6622.36138,0.06526
6624.28984,-0.02638
6626.21831,-0.10056
6628.14678,-0.06424
6630.07525,0.00007
6632.00372,-0.00884
6633.93219,0.00860
6635.86066,0.10585
6637.78912,0.12432
6639.71759,0.07145
6641.64606,0.06958
6643.57453,0.11666
6645.50300,0.18108
6647.43147,0.16488
6649.35994,0.07534
6651.28841,0.05154
6653.21687,0.05853
6655.14534,0.05034
6657.07381,0.03888
6659.00228,-0.00355
6660.93075,-0.01768
6662.85922,0.02804
6664.78769,0.07068
6666.71615,0.09834
6668.64462,0.13584
6670.57309,0.11951
6672.50156,-0.01479
6674.43003,-0.15431
6676.35850,-0.17978
6678.28697,-0.13981
6680.21544,-0.07793
6682.14390,0.02383
6684.07237,0.07576
6686.00084,0.02448
6687.92931,0.01987
6689.85778,0.13507
6691.78625,0.19928
6693.71472,0.15341
6695.64318,0.09010
6697.57165,0.03135
6699.50012,-0.00614
6701.42859,0.09726
6703.35706,0.26074
6705.28553,0.23923
6707.21400,0.08250
6709.14247,0.04839
6711.07093,0.06265
6712.99940,-0.04532
6714.92787,-0.14534
6716.85634,-0.08565
6718.78481,0.00476
6720.71328,0.02765
6722.64175,0.09230
6724.57021,0.17391
6726.49868,0.17936
6728.42715,0.15418
6730.35562,0.17445
6732.28409,0.15038
6734.21256,0.04512
6736.14103,0.00747
6738.06950,0.06368
6739.99796,0.12267
6741.92643,0.18685
6743.85490,0.23130
6745.78337,0.21540
6747.71184,0.15928
6749.64031,0.08766
6751.56878,0.04792
6753.49724,0.03131
6755.42571,-0.00439
6757.35418,-0.01814
6759.28265,-0.00079
6761.21112,0.02072
6763.13959,0.03727
6765.06806,0.03058
6766.99653,0.04132
6768.92499,0.10869
6770.85346,0.18675
6772.78193,0.24400
6774.71040,0.25204
6776.63887,0.18350
6778.56734,0.08505
6780.49581,-0.03499
6782.42427,-0.13549
6784.35274,-0.10342
6786.28121,0.02330
6788.20968,0.07872
6790.13815,0.03101
6792.06662,-0.03071
6793.99509,-0.03739
6795.92355,0.02687
6797.85202,0.13621
6799.78049,0.22528
6801.70896,0.22912
6803.63743,0.18353
6805.56590,0.16061
6807.49437,0.13466
6809.42284,0.04628
6811.35130,-0.01807
6813.27977,0.09239
6815.20824,0.21085
6817.13671,0.16394
6819.06518,0.05572
6820.99365,-0.01487
6822.92212,-0.04814
6824.85058,-0.10764
6826.77905,-0.11379
6828.70752,0.06203
6830.63599,0.21482
6832.56446,0.17971
6834.49293,0.11414
6836.42140,0.04099
6838.34987,-0.06348
6840.27833,-0.08313
6842.20680,-0.00932
6844.13527,0.06366
6846.06374,0.15052
6847.99221,0.26629
6849.92068,0.22559
6851.84915,0.09190
6853.77761,0.09751
6855.70608,0.15427
6857.63455,0.10832
6859.56302,0.02500
6861.49149,-0.02163
6863.41996,-0.00006
6865.34843,0.10580
6867.27690,0.24845
6869.20536,0.30890
6871.13383,0.22066
6873.06230,0.04632
6874.99077,-0.02903
6876.91924,0.01546
6878.84771,0.06465
6880.77618,0.03626
6882.70464,0.02587
6884.63311,0.15982
6886.56158,0.29911
6888.49005,0.27344
6890.41852,0.13782
6892.34699,-0.02581
6894.27546,-0.13511
6896.20393,-0.08122
6898.13239,0.04895
6900.06086,0.07789
6901.98933,0.07226
6903.91780,0.11858
6905.84627,0.19049
6907.77474,0.19044
6909.70321,0.10334
6911.63167,0.04521
6913.56014,0.06375
6915.48861,0.10782
6917.41708,0.15239
6919.34555,0.17713
6921.27402,0.14104
6923.20249,0.05074
6925.13096,0.03576
6927.05942,0.16113
6928.98789,0.21022
6930.91636,0.09429
6932.84483,0.10093
6934.77330,0.17482
6936.70177,0.13655
6938.63024,0.02935
6940.55870,-0.12391
6942.48717,-0.18283
6944.41564,-0.10463
6946.34411,-0.01904
6948.27258,0.02542
6950.20105,0.06075
6952.12952,0.09847
6954.05799,0.07715
6955.98645,-0.04345
6957.91492,-0.11291
6959.84339,-0.01118
6961.77186,0.12309
6963.70033,0.11862
6965.62880,0.05236
6967.55727,0.04479
6969.48573,0.04395
6971.41420,-0.03645
6973.34267,-0.06402
6975.27114,-0.01893
6977.19961,-0.08551
6979.12808,-0.20381
6981.05655,-0.21858
6982.98501,-0.10049
6984.91348,0.02628
6986.84195,0.04598
6988.77042,0.06320
6990.69889,0.17069
6992.62736,0.24226
6994.55583,0.19025
6996.48430,0.08100
6998.41276,-0.01391
7000.34123,-0.05627
7002.26970,-0.01591
7004.19817,0.10092
7006.12664,0.25686
7008.05511,0.28966
7009.98358,0.17891
7011.91204,0.10000
7013.84051,0.06309
7015.76898,-0.01550
7017.69745,-0.05322
7019.62592,0.02020
7021.55439,0.13244
7023.48286,0.26702
7025.41133,0.40659
7027.33979,0.39182
7029.26826,0.17935
7031.19673,0.07483
7033.12520,0.18801
7035.05367,0.23292
7036.98214,0.09095
7038.91061,-0.01409
7040.83907,-0.02117
7042.76754,0.02167
7044.69601,0.06375
7046.62448,0.06324
7048.55295,0.08480
7050.48142,0.15320
7052.40989,0.16511
7054.33836,0.07110
7056.26682,-0.04019
7058.19529,-0.06869
7060.12376,-0.02391
7062.05223,-0.01864
7063.98070,-0.05330
7065.90917,-0.01660
7067.83764,0.05321
7069.76610,0.09955
7071.69457,0.16878
7073.62304,0.21246
7075.55151,0.11957
7077.47998,-0.09398
7079.40845,-0.32543
7081.33692,-0.35883
7083.26539,-0.12957
7085.19385,0.07142
7087.12232,0.11540
7089.05079,0.04412
7090.97926,-0.06380
7092.90773,-0.06068
7094.83620,0.10863
7096.76467,0.26261
7098.69313,0.26660
7100.62160,0.14632
7102.55007,-0.04365
7104.47854,-0.18045
7106.40701,-0.14523
7108.33548,-0.06586
7110.26395,-0.00969
7112.19242,0.09582
7114.12088,0.20126
7116.04935,0.18577
7117.97782,0.04456
7119.90629,-0.11068
7121.83476,-0.22470
7123.76323,-0.16246
7125.69170,0.05650
7127.62016,0.19676
7129.54863,0.20333
7131.47710,0.15762
7133.40557,0.09270
7135.33404,0.04677
7137.26251,0.10073
7139.19098,0.31648
7141.11944,0.51186
7143.04791,0.43567
7144.97638,0.21253
7146.90485,0.11214
7148.83332,0.11138
7150.76179,0.06911
7152.69026,0.01260
7154.61873,0.07010
7156.54719,0.13137
7158.47566,0.09122
7160.40413,0.03807
7162.33260,0.10425
7164.26107,0.23843
7166.18954,0.17629
7168.11801,0.00159
7170.04647,-0.01749
7171.97494,-0.01229
7173.90341,-0.08355
7175.83188,-0.08158
7177.76035,0.01674
7179.68882,0.09519
7181.61729,0.11580
7183.54576,0.06919
7185.47422,0.01019
7187.40269,0.00551
7189.33116,0.01028
7191.25963,-0.04915
7193.18810,-0.15300
7195.11657,-0.19899
7197.04504,-0.12926
7198.97350,0.00034
7200.90197,0.15740
7202.83044,0.36314
7204.75891,0.40434
7206.68738,0.20769
7208.61585,0.10193
7210.54432,0.11927
7212.47279,0.19862
7214.40125,0.30322
7216.32972,0.46318
7218.25819,0.54490
7220.18666,0.29959
7222.11513,0.04154
7224.04360,0.00513
7225.97207,0.07157
7227.90053,0.09230
7229.82900,0.09899
7231.75747,0.05677
7233.68594,0.03594
7235.61441,0.11534
7237.54288,0.19060
7239.47135,0.19039
7241.39982,0.15745
7243.32828,0.21012
7245.25675,0.26625
7247.18522,0.17562
7249.11369,0.06001
7251.04216,0.03312
7252.97063,0.04428
7254.89910,0.03114
7256.82756,-0.03219
7258.75603,-0.08198
7260.68450,0.06822
7262.61297,0.29539
7264.54144,0.32491
7266.46991,0.24833
7268.39838,0.07779
7270.32685,-0.17520
7272.25531,-0.16812
7274.18378,0.10868
7276.11225,0.18315
7278.04072,0.13191
7279.96919,0.14808
7281.89766,0.13183
7283.82613,0.04663
7285.75459,0.02347
7287.68306,0.07715
7289.61153,0.06913
7291.54000,-0.10456
7293.46847,-0.25262
7295.39694,-0.17590
7297.32541,0.02765
7299.25387,0.20190
7301.18234,0.24715
7303.11081,0.15750
7305.03928,0.09017
7306.96775,0.10731
7308.89622,0.15584
7310.82469,0.26397
7312.75316,0.40750
7314.68162,0.48511
7316.61009,0.48860
7318.53856,0.40574
7320.46703,0.20573
7322.39550,0.02744
7324.32397,-0.04589
7326.25244,-0.02200
7328.18090,0.13328
7330.10937,0.21505
7332.03784,0.10044
7333.96631,0.05402
7335.89478,0.10424
7337.82325,0.18206
7339.75172,0.21874
7341.68019,0.05758
7343.60865,-0.07456
7345.53712,-0.10020
7347.46559,-0.15264
7349.39406,-0.20406
7351.32253,-0.19615
7353.25100,-0.12849
7355.17947,-0.00185
7357.10793,0.11665
7359.03640,0.13457
7360.96487,0.15693
7362.89334,0.21542
7364.82181,0.17166
7366.75028,0.02997
7368.67875,-0.05738
7370.60722,-0.00909
7372.53568,0.07260
7374.46415,0.17416
7376.39262,0.29891
7378.32109,0.32330
7380.24956,0.26553
7382.17803,0.18351
7384.10650,0.13318
7386.03496,0.05555
7387.96343,-0.00920
7389.89190,0.09703
7391.82037,0.23640
7393.74884,0.20081
7395.67731,0.09057
7397.60578,0.13652
7399.53425,0.20459
7401.46271,0.10851
7403.39118,-0.01253
7405.31965,-0.01337
7407.24812,0.03945
7409.17659,0.11850
7411.10506,0.13990
7413.03353,0.10542
7414.96199,0.17377
7416.89046,0.32756
7418.81893,0.36814
7420.74740,0.36501
7422.67587,0.40648
7424.60434,0.35101
7426.53281,0.25250
7428.46128,0.13006
7430.38974,-0.03842
7432.31821,-0.08058
7434.24668,-0.03885
7436.17515,-0.07688
7438.10362,-0.07847
7440.03209,0.11807
7441.96056,0.20783
7443.88902,0.04313
7445.81749,-0.14640
7447.74596,-0.24901
7449.67443,-0.27555
7451.60290,-0.23132
7453.53137,-0.10251
7455.45984,0.03419
7457.38831,0.22553
7459.31677,0.51256
7461.24524,0.55198
7463.17371,0.20563
7465.10218,-0.21510
7467.03065,-0.32330
7468.95912,-0.13082
7470.88759,0.04173
7472.81605,0.00479
7474.74452,-0.27148
7476.67299,-0.53829
7478.60146,-0.56588
7480.52993,-0.53426
7482.45840,-0.50925
7484.38687,-0.37045
7486.31533,-0.22269
7488.24380,-0.13680
7490.17227,-0.04988
7492.10074,0.08607
7494.02921,0.25105
7495.95768,0.38346
7497.88615,0.34212
