399.19301,2.34843
401.12148,0.42950
403.04995,0.04380
404.97842,-0.03073
406.90689,0.13057
408.83536,0.29989
410.76382,0.25750
412.69229,0.10107
414.62076,0.00712
416.54923,-0.07265
418.47770,-0.16221
420.40617,-0.09042
422.33464,0.07179
424.26311,0.13814
426.19157,0.08096
428.12004,-0.00264
430.04851,0.04156
431.97698,0.19634
433.90545,0.18846
435.83392,0.08283
437.76239,0.05204
439.69085,0.02159
441.61932,-0.09738
443.54779,-0.18718
445.47626,-0.11815
447.40473,0.06067
449.33320,0.16712
451.26167,0.13156
453.19013,0.05617
455.11860,-0.01856
457.04707,-0.04319
458.97554,0.02541
460.90401,0.06671
462.83248,0.02847
464.76095,-0.00127
466.68942,-0.01144
468.61788,-0.03217
470.54635,0.01499
472.47482,0.17138
474.40329,0.21754
476.33176,0.07740
478.26023,0.03228
480.18870,0.07521
482.11716,0.10626
484.04563,0.07302
485.97410,0.01279
487.90257,-0.02212
489.83104,-0.01264
491.75951,0.04378
493.68798,0.13543
495.61645,0.22929
497.54491,0.22675
499.47338,0.14783
501.40185,0.11332
503.33032,0.12308
505.25879,0.12949
507.18726,0.09981
509.11573,0.01886
511.04419,-0.04463
512.97266,-0.01160
514.90113,0.07351
516.82960,0.08601
518.75807,0.04098
520.68654,0.03831
522.61501,0.04411
524.54348,0.01465
526.47194,0.00340
528.40041,0.01808
530.32888,0.02654
532.25735,0.02551
534.18582,0.05196
536.11429,0.11131
538.04276,0.12519
539.97122,0.09091
541.89969,0.07696
543.82816,0.08066
545.75663,0.06621
547.68510,0.04921
549.61357,0.19360
551.54204,0.94715
553.47051,1.77299
555.39897,1.39963
557.32744,0.38879
559.25591,0.01072
561.18438,0.02288
563.11285,0.03373
565.04132,0.05551
566.96979,0.06816
568.89825,0.06041
570.82672,0.04546
572.75519,0.06286
574.68366,0.10536
576.61213,0.10880
578.54060,0.06766
580.46907,0.05686
582.39754,0.07960
584.32600,0.07568
586.25447,0.04344
588.18294,0.03596
590.11141,0.06962
592.03988,0.08117
593.96835,0.03976
595.89682,-0.00271
597.82528,-0.01372
599.75375,-0.00742
601.68222,0.01025
603.61069,0.04194
605.53916,0.07441
607.46763,0.09516
609.39610,0.10276
611.32456,0.09494
613.25303,0.07515
615.18150,0.06372
617.10997,0.07241
619.03844,0.07826
620.96691,0.06067
622.89538,0.05012
624.82385,0.06928
626.75231,0.09665
628.68078,0.10703
630.60925,0.09318
632.53772,0.07001
634.46619,0.06700
636.39466,0.08395
638.32313,0.09459
640.25159,0.09240
642.18006,0.08067
644.10853,0.06894
646.03700,0.06302
647.96547,0.05868
649.89394,0.06392
651.82241,0.08282
653.75088,0.10557
655.67934,0.12328
657.60781,0.12460
659.53628,0.10445
661.46475,0.08989
663.39322,0.09358
665.32169,0.09334
667.25016,0.07636
669.17862,0.05763
671.10709,0.05738
673.03556,0.05972
674.96403,0.06279
676.89250,0.06946
678.82097,0.08537
680.74944,0.10309
682.67791,0.10170
684.60637,0.09747
686.53484,0.10870
688.46331,0.11736
690.39178,0.11205
692.32025,0.09840
694.24872,0.09116
696.17719,0.10196
698.10565,0.11198
700.03412,0.10842
701.96259,0.10239
703.89106,0.08969
705.81953,0.07566
707.74800,0.07196
709.67647,0.04275
711.60494,-0.00666
713.53340,0.00201
715.46187,0.05496
717.39034,0.08282
719.31881,0.09608
721.24728,0.10935
723.17575,0.10201
725.10422,0.08137
727.03268,0.07868
728.96115,0.09454
730.88962,0.10991
732.81809,0.11780
734.74656,0.11007
736.67503,0.09229
738.60350,0.08313
740.53197,0.08722
742.46043,0.09955
744.38890,0.11475
746.31737,0.12513
748.24584,0.12439
750.17431,0.11298
752.10278,0.10118
754.03125,0.09882
755.95971,0.10570
757.88818,0.11125
759.81665,0.10407
761.74512,0.09445
763.67359,0.09260
765.60206,0.08878
767.53053,0.08684
769.45900,0.09824
771.38746,0.11361
773.31593,0.11911
775.24440,0.11352
777.17287,0.11060
779.10134,0.11687
781.02981,0.11332
782.95828,0.09580
784.88674,0.08675
786.81521,0.09890
788.74368,0.11780
790.67215,0.12064
792.60062,0.10562
794.52909,0.09036
796.45756,0.09030
798.38602,0.09518
800.31449,0.09282
802.24296,0.09231
804.17143,0.09710
806.09990,0.09549
808.02837,0.08785
809.95684,0.09236
811.88531,0.10593
813.81377,0.10498
815.74224,0.09294
817.67071,0.08801
819.59918,0.08760
821.52765,0.09105
823.45612,0.10104
825.38459,0.10734
827.31305,0.10588
829.24152,0.10219
831.16999,0.10540
833.09846,0.11756
835.02693,0.12435
836.95540,0.11807
838.88387,0.11159
840.81234,0.11189
842.74080,0.11476
844.66927,0.12451
846.59774,0.13095
848.52621,0.12141
850.45468,0.11251
852.38315,0.10989
854.31162,0.10505
856.24008,0.10317
858.16855,0.10711
860.09702,0.11224
862.02549,0.11165
863.95396,0.10364
865.88243,0.09788
867.81090,0.10254
869.73937,0.11427
871.66783,0.11771
873.59630,0.10735
875.52477,0.10047
877.45324,0.10353
879.38171,0.10223
881.31018,0.09295
883.23865,0.09078
885.16711,0.10078
887.09558,0.10931
889.02405,0.10894
890.95252,0.10021
892.88099,0.09190
894.80946,0.10019
896.73793,0.11531
898.66640,0.11981
900.59486,0.12407
902.52333,0.12957
904.45180,0.12802
906.38027,0.12969
908.30874,0.13253
910.23721,0.12689
912.16568,0.12245
914.09414,0.12466
916.02261,0.12621
917.95108,0.12436
919.87955,0.12135
921.80802,0.11558
923.73649,0.10679
925.66496,0.10272
927.59343,0.10669
929.52189,0.11301
931.45036,0.11711
933.37883,0.11749
935.30730,0.11488
937.23577,0.10949
939.16424,0.10212
941.09271,0.10013
943.02117,0.10599
944.94964,0.11027
946.87811,0.10960
948.80658,0.10945
950.73505,0.10971
952.66352,0.10909
954.59199,0.10951
956.52045,0.10988
958.44892,0.10981
960.37739,0.11274
962.30586,0.12074
964.23433,0.12717
966.16280,0.12404
968.09127,0.11898
970.01974,0.11647
971.94820,0.10912
973.87667,0.10424
975.80514,0.11279
977.73361,0.12628
979.66208,0.13116
981.59055,0.12923
983.51902,0.12458
985.44748,0.11573
987.37595,0.11215
989.30442,0.11948
991.23289,0.12956
993.16136,0.13197
995.08983,0.12799
997.01830,0.12993
998.94677,0.13073
1000.87523,0.12172
1002.80370,0.11423
1004.73217,0.11461
1006.66064,0.12124
1008.58911,0.13049
1010.51758,0.13531
1012.44605,0.13533
1014.37451,0.13617
1016.30298,0.13901
1018.23145,0.14063
1020.15992,0.13758
1022.08839,0.13465
1024.01686,0.13617
1025.94533,0.15391
1027.87380,0.19197
1029.80226,0.19594
1031.73073,0.15322
1033.65920,0.13232
1035.58767,0.14146
1037.51614,0.14440
1039.44461,0.14078
1041.37308,0.13970
1043.30154,0.13752
1045.23001,0.13105
1047.15848,0.12613
1049.08695,0.12870
1051.01542,0.13295
1052.94389,0.12923
1054.87236,0.12866
1056.80083,0.13987
1058.72929,0.14349
1060.65776,0.13700
1062.58623,0.13967
1064.51470,0.15066
1066.44317,0.15753
1068.37164,0.15738
1070.30011,0.15292
1072.22857,0.14724
1074.15704,0.13825
1076.08551,0.12740
1078.01398,0.12428
1079.94245,0.12985
1081.87092,0.13839
1083.79939,0.15018
1085.72786,0.16077
1087.65632,0.15915
1089.58479,0.15009
1091.51326,0.14798
1093.44173,0.15552
1095.37020,0.16154
1097.29867,0.15696
1099.22714,0.15096
1101.15560,0.14998
1103.08407,0.14732
1105.01254,0.14117
1106.94101,0.13613
1108.86948,0.13465
1110.79795,0.13527
1112.72642,0.13787
1114.65489,0.13956
1116.58335,0.13797
1118.51182,0.13745
1120.44029,0.13884
1122.36876,0.13879
1124.29723,0.13581
1126.22570,0.13296
1128.15417,0.13712
1130.08263,0.14388
1132.01110,0.14201
1133.93957,0.13744
1135.86804,0.13856
1137.79651,0.14079
1139.72498,0.14055
1141.65345,0.14048
1143.58191,0.14268
1145.51038,0.14387
1147.43885,0.14229
1149.36732,0.13831
1151.29579,0.13418
1153.22426,0.13583
1155.15273,0.14286
1157.08120,0.14875
1159.00966,0.14785
1160.93813,0.14052
1162.86660,0.13374
1164.79507,0.13577
1166.72354,0.14655
1168.65201,0.15278
1170.58048,0.14782
1172.50894,0.14174
1174.43741,0.14058
1176.36588,0.13989
1178.29435,0.13818
1180.22282,0.13989
1182.15129,0.14799
1184.07976,0.15815
1186.00823,0.16338
1187.93669,0.16067
1189.86516,0.15187
1191.79363,0.14523
1193.72210,0.14500
1195.65057,0.14757
1197.57904,0.15248
1199.50751,0.15829
1201.43597,0.15993
1203.36444,0.15747
1205.29291,0.15300
1207.22138,0.14713
1209.14985,0.14224
1211.07832,0.13964
1213.00679,0.13823
1214.93526,0.13759
1216.86372,0.13947
1218.79219,0.14442
1220.72066,0.14779
1222.64913,0.14493
1224.57760,0.13899
1226.50607,0.13842
1228.43454,0.14422
1230.36300,0.14992
1232.29147,0.15357
1234.21994,0.15531
1236.14841,0.15488
1238.07688,0.15482
1240.00535,0.15326
1241.93382,0.14846
1243.86229,0.14714
1245.79075,0.14873
1247.71922,0.14714
1249.64769,0.14671
1251.57616,0.15016
1253.50463,0.15133
1255.43310,0.14920
1257.36157,0.14898
1259.29003,0.15001
1261.21850,0.14673
1263.14697,0.13952
1265.07544,0.13430
1267.00391,0.13626
1268.93238,0.14420
1270.86085,0.14898
1272.78932,0.14863
1274.71778,0.15159
1276.64625,0.15827
1278.57472,0.16080
1280.50319,0.15702
1282.43166,0.15365
1284.36013,0.15235
1286.28860,0.14676
1288.21706,0.14236
1290.14553,0.14840
1292.07400,0.15820
1294.00247,0.16134
1295.93094,0.15743
1297.85941,0.15242
1299.78788,0.14833
1301.71634,0.14096
1303.64481,0.13079
1305.57328,0.13082
1307.50175,0.14579
1309.43022,0.15859
1311.35869,0.16164
1313.28716,0.16258
1315.21563,0.16315
1317.14409,0.16355
1319.07256,0.16076
1321.00103,0.15444
1322.92950,0.15392
1324.85797,0.15793
1326.78644,0.15740
1328.71491,0.15148
1330.64337,0.14444
1332.57184,0.14066
1334.50031,0.14250
1336.42878,0.15002
1338.35725,0.16011
1340.28572,0.15978
1342.21419,0.14256
1344.14266,0.12407
1346.07112,0.12066
1347.99959,0.13377
1349.92806,0.14837
1351.85653,0.15359
1353.78500,0.15285
1355.71347,0.14979
1357.64194,0.14798
1359.57040,0.15251
1361.49887,0.16389
1363.42734,0.17107
1365.35581,0.16594
1367.28428,0.15910
1369.21275,0.15672
1371.14122,0.15921
1373.06969,0.16670
1374.99815,0.17140
1376.92662,0.16815
1378.85509,0.16493
1380.78356,0.16500
1382.71203,0.16553
1384.64050,0.16855
1386.56897,0.17345
1388.49743,0.17232
1390.42590,0.16930
1392.35437,0.16925
1394.28284,0.16844
1396.21131,0.17080
1398.13978,0.17613
1400.06825,0.17242
1401.99672,0.16456
1403.92518,0.16243
1405.85365,0.16421
1407.78212,0.16551
1409.71059,0.16585
1411.63906,0.16749
1413.56753,0.17292
1415.49600,0.18262
1417.42446,0.19210
1419.35293,0.19053
1421.28140,0.18431
1423.20987,0.18262
1425.13834,0.17791
1427.06681,0.17216
1428.99528,0.17334
1430.92375,0.17698
1432.85221,0.17736
1434.78068,0.17815
1436.70915,0.17896
1438.63762,0.17861
1440.56609,0.17944
1442.49456,0.17970
1444.42303,0.18074
1446.35149,0.18378
1448.27996,0.18267
1450.20843,0.17747
1452.13690,0.17648
1454.06537,0.18145
1455.99384,0.19286
1457.92231,0.20241
1459.85077,0.19599
1461.77924,0.19062
1463.70771,0.19045
1465.63618,0.18432
1467.56465,0.17430
1469.49312,0.17335
1471.42159,0.18235
1473.35006,0.18970
1475.27852,0.18443
1477.20699,0.17829
1479.13546,0.17921
1481.06393,0.18142
1482.99240,0.17750
1484.92087,0.17574
1486.84934,0.18565
1488.77780,0.19656
1490.70627,0.18981
1492.63474,0.17837
1494.56321,0.18000
1496.49168,0.19389
1498.42015,0.19716
1500.34862,0.18652
1502.27709,0.18457
1504.20555,0.19972
1506.13402,0.22730
1508.06249,0.22584
1509.99096,0.20781
1511.91943,0.20158
1513.84790,0.20362
1515.77637,0.21054
1517.70483,0.21456
1519.63330,0.21928
1521.56177,0.22394
1523.49024,0.21624
1525.41871,0.20904
1527.34718,0.20275
1529.27565,0.19515
1531.20412,0.19534
1533.13258,0.20223
1535.06105,0.20337
1536.98952,0.20742
1538.91799,0.22783
1540.84646,0.23816
1542.77493,0.21750
1544.70340,0.19946
1546.63186,0.18980
1548.56033,0.19285
1550.48880,0.19960
1552.41727,0.19899
1554.34574,0.19845
1556.27421,0.20740
1558.20268,0.22455
1560.13115,0.21346
1562.05961,0.19578
1563.98808,0.19193
1565.91655,0.19196
1567.84502,0.19392
1569.77349,0.19756
1571.70196,0.19728
1573.63043,0.19761
1575.55889,0.19749
1577.48736,0.18799
1579.41583,0.18050
1581.34430,0.18158
1583.27277,0.18339
1585.20124,0.18024
1587.12971,0.17679
1589.05818,0.17735
1590.98664,0.17974
1592.91511,0.18216
1594.84358,0.18534
1596.77205,0.18666
1598.70052,0.18366
1600.62899,0.18031
1602.55746,0.18031
1604.48592,0.18243
1606.41439,0.18499
1608.34286,0.18608
1610.27133,0.18446
1612.19980,0.18419
1614.12827,0.18891
1616.05674,0.19630
1617.98521,0.19804
1619.91367,0.19765
1621.84214,0.20098
1623.77061,0.20243
1625.69908,0.20043
1627.62755,0.19838
1629.55602,0.19490
1631.48449,0.19610
1633.41295,0.20830
1635.34142,0.22312
1637.26989,0.21357
1639.19836,0.19678
1641.12683,0.19133
1643.05530,0.19703
1644.98377,0.21346
1646.91223,0.23060
1648.84070,0.22812
1650.76917,0.22602
1652.69764,0.23662
1654.62611,0.22686
1656.55458,0.20766
1658.48305,0.19940
1660.41152,0.19504
1662.33998,0.19165
1664.26845,0.19412
1666.19692,0.20127
1668.12539,0.20888
1670.05386,0.21037
1671.98233,0.20770
1673.91080,0.20832
1675.83926,0.20540
1677.76773,0.20022
1679.69620,0.20452
1681.62467,0.22321
1683.55314,0.24653
1685.48161,0.23821
1687.41008,0.21762
1689.33855,0.20641
1691.26701,0.20070
1693.19548,0.20309
1695.12395,0.21551
1697.05242,0.23017
1698.98089,0.23687
1700.90936,0.22913
1702.83783,0.22147
1704.76629,0.22368
1706.69476,0.21719
1708.62323,0.19920
1710.55170,0.18898
1712.48017,0.19410
1714.40864,0.21274
1716.33711,0.23108
1718.26558,0.21760
1720.19404,0.19225
1722.12251,0.18280
1724.05098,0.18356
1725.97945,0.18715
1727.90792,0.19237
1729.83639,0.19976
1731.76486,0.21021
1733.69332,0.21714
1735.62179,0.20786
1737.55026,0.19853
1739.47873,0.19503
1741.40720,0.19504
1743.33567,0.19799
1745.26414,0.20149
1747.19261,0.20623
1749.12107,0.20881
1751.04954,0.20269
1752.97801,0.19424
1754.90648,0.19145
1756.83495,0.19408
1758.76342,0.19578
1760.69189,0.19479
1762.62035,0.19331
1764.54882,0.19306
1766.47729,0.19765
1768.40576,0.20688
1770.33423,0.21596
1772.26270,0.21491
1774.19117,0.20089
1776.11964,0.19062
1778.04810,0.19005
1779.97657,0.19397
1781.90504,0.19384
1783.83351,0.19001
1785.76198,0.18775
1787.69045,0.19087
1789.61892,0.20208
1791.54738,0.21270
1793.47585,0.20746
1795.40432,0.19663
1797.33279,0.19434
1799.26126,0.19963
1801.18973,0.19830
1803.11820,0.18699
1805.04666,0.18113
1806.97513,0.18440
1808.90360,0.18958
1810.83207,0.19146
1812.76054,0.19137
1814.68901,0.19144
1816.61748,0.18376
1818.54595,0.16415
1820.47441,0.15863
1822.40288,0.18014
1824.33135,0.19715
1826.25982,0.19646
1828.18829,0.19775
1830.11676,0.19819
1832.04523,0.19268
1833.97369,0.19001
1835.90216,0.19158
1837.83063,0.19343
1839.75910,0.19341
1841.68757,0.19414
1843.61604,0.19417
1845.54451,0.18802
1847.47298,0.18380
1849.40144,0.18590
1851.32991,0.18732
1853.25838,0.18692
1855.18685,0.18790
1857.11532,0.19014
1859.04379,0.19155
1860.97226,0.18975
1862.90072,0.18686
1864.82919,0.19011
1866.75766,0.20147
1868.68613,0.20723
1870.61460,0.19850
1872.54307,0.19019
1874.47154,0.18706
1876.40001,0.18550
1878.32847,0.18526
1880.25694,0.18565
1882.18541,0.18717
1884.11388,0.19050
1886.04235,0.19315
1887.97082,0.19449
1889.89929,0.19234
1891.82775,0.18727
1893.75622,0.18673
1895.68469,0.18795
1897.61316,0.18381
1899.54163,0.18005
1901.47010,0.18121
1903.39857,0.18284
1905.32704,0.18447
1907.25550,0.18870
1909.18397,0.19209
1911.11244,0.18933
1913.04091,0.18465
1914.96938,0.18601
1916.89785,0.19217
1918.82632,0.19587
1920.75478,0.19611
1922.68325,0.19545
1924.61172,0.19289
1926.54019,0.19015
1928.46866,0.18961
1930.39713,0.19027
1932.32560,0.19073
1934.25407,0.19087
1936.18253,0.19188
1938.11100,0.19287
1940.03947,0.19394
1941.96794,0.19728
1943.89641,0.19902
1945.82488,0.19578
1947.75335,0.19128
1949.68181,0.18896
1951.61028,0.18940
1953.53875,0.19125
1955.46722,0.19149
1957.39569,0.18839
1959.32416,0.18491
1961.25263,0.18462
1963.18110,0.18800
1965.10956,0.19184
1967.03803,0.19135
1968.96650,0.18806
1970.89497,0.18681
1972.82344,0.18677
1974.75191,0.18774
1976.68038,0.19208
1978.60884,0.19673
1980.53731,0.19695
1982.46578,0.19352
1984.39425,0.19049
1986.32272,0.19038
1988.25119,0.19116
1990.17966,0.19185
1992.10812,0.19240
1994.03659,0.18925
1995.96506,0.18551
1997.89353,0.18534
1999.82200,0.18578
2001.75047,0.18579
2003.67894,0.18726
2005.60741,0.18972
2007.53587,0.18972
2009.46434,0.18653
2011.39281,0.18447
2013.32128,0.18651
2015.24975,0.19188
2017.17822,0.19634
2019.10669,0.19639
2021.03515,0.19422
2022.96362,0.19302
2024.89209,0.19337
2026.82056,0.19352
2028.74903,0.19197
2030.67750,0.18984
2032.60597,0.18891
2034.53444,0.18996
2036.46290,0.19185
2038.39137,0.19211
2040.31984,0.19071
2042.24831,0.18980
2044.17678,0.18914
2046.10525,0.18735
2048.03372,0.18758
2049.96218,0.19111
2051.89065,0.19113
2053.81912,0.18676
2055.74759,0.18689
2057.67606,0.19133
2059.60453,0.19036
2061.53300,0.18612
2063.46147,0.18785
2065.38993,0.19214
2067.31840,0.19276
2069.24687,0.19167
2071.17534,0.19156
2073.10381,0.19249
2075.03228,0.19370
2076.96075,0.19419
2078.88921,0.19321
2080.81768,0.19152
2082.74615,0.19050
2084.67462,0.19162
2086.60309,0.19377
2088.53156,0.19371
2090.46003,0.19198
2092.38850,0.19155
2094.31696,0.19286
2096.24543,0.19249
2098.17390,0.19005
2100.10237,0.18928
2102.03084,0.18991
2103.95931,0.19066
2105.88778,0.19101
2107.81624,0.18984
2109.74471,0.18903
2111.67318,0.18980
2113.60165,0.18959
2115.53012,0.18820
2117.45859,0.18872
2119.38706,0.19124
2121.31553,0.19314
2123.24399,0.19413
2125.17246,0.19589
2127.10093,0.19809
2129.02940,0.19857
2130.95787,0.19626
2132.88634,0.19507
2134.81481,0.20034
2136.74327,0.20552
2138.67174,0.20222
2140.60021,0.19623
2142.52868,0.19406
2144.45715,0.19277
2146.38562,0.18888
2148.31409,0.18577
2150.24255,0.18817
2152.17102,0.19279
2154.09949,0.19442
2156.02796,0.19390
2157.95643,0.19287
2159.88490,0.19185
2161.81337,0.19205
2163.74184,0.19307
2165.67030,0.19413
2167.59877,0.19445
2169.52724,0.19377
2171.45571,0.19442
2173.38418,0.19651
2175.31265,0.19664
2177.24112,0.19394
2179.16958,0.19242
2181.09805,0.19464
2183.02652,0.19696
2184.95499,0.19781
2186.88346,0.19939
2188.81193,0.20048
2190.74040,0.19831
2192.66887,0.19351
2194.59733,0.19000
2196.52580,0.19137
2198.45427,0.19552
2200.38274,0.19649
2202.31121,0.19504
2204.23968,0.19469
2206.16815,0.19326
2208.09661,0.19120
2210.02508,0.19144
2211.95355,0.19310
2213.88202,0.19482
2215.81049,0.19610
2217.73896,0.19691
2219.66743,0.19714
2221.59590,0.19684
2223.52436,0.19660
2225.45283,0.19622
2227.38130,0.19587
2229.30977,0.19644
2231.23824,0.19676
2233.16671,0.19545
2235.09518,0.19441
2237.02364,0.19600
2238.95211,0.19931
2240.88058,0.20057
2242.80905,0.19854
2244.73752,0.19492
2246.66599,0.19155
2248.59446,0.19120
2250.52293,0.19297
2252.45139,0.19369
2254.37986,0.19449
2256.30833,0.19561
2258.23680,0.19447
2260.16527,0.19199
2262.09374,0.19255
2264.02221,0.19671
2265.95067,0.19917
2267.87914,0.19673
2269.80761,0.19314
2271.73608,0.19233
2273.66455,0.19272
2275.59302,0.19286
2277.52149,0.19427
2279.44996,0.19601
2281.37842,0.19582
2283.30689,0.19488
2285.23536,0.19484
2287.16383,0.19421
2289.09230,0.19059
2291.02077,0.18592
2292.94924,0.18666
2294.87770,0.19252
2296.80617,0.19560
2298.73464,0.19636
2300.66311,0.19752
2302.59158,0.19400
2304.52005,0.18754
2306.44852,0.18600
2308.37699,0.18826
2310.30545,0.18787
2312.23392,0.18564
2314.16239,0.18652
2316.09086,0.18860
2318.01933,0.18783
2319.94780,0.18855
2321.87627,0.19628
2323.80473,0.20392
2325.73320,0.20446
2327.66167,0.20326
2329.59014,0.20225
2331.51861,0.19733
2333.44708,0.19645
2335.37555,0.21237
2337.30401,0.23181
2339.23248,0.22664
2341.16095,0.20059
2343.08942,0.18582
2345.01789,0.19249
2346.94636,0.20248
2348.87483,0.20738
2350.80330,0.20875
2352.73176,0.20823
2354.66023,0.20295
2356.58870,0.19473
2358.51717,0.20148
2360.44564,0.20833
2362.37411,0.19989
2364.30258,0.20201
2366.23104,0.21414
2368.15951,0.21154
2370.08798,0.20306
2372.01645,0.20739
2373.94492,0.21365
2375.87339,0.21382
2377.80186,0.21018
2379.73033,0.20268
2381.65879,0.19622
2383.58726,0.19346
2385.51573,0.19116
2387.44420,0.19034
2389.37267,0.19498
2391.30114,0.20069
2393.22961,0.20041
2395.15807,0.19811
2397.08654,0.19891
2399.01501,0.19825
2400.94348,0.19533
2402.87195,0.19583
2404.80042,0.19830
2406.72889,0.19986
2408.65736,0.20094
2410.58582,0.19919
2412.51429,0.19620
2414.44276,0.19703
2416.37123,0.19914
2418.29970,0.19766
2420.22817,0.19601
2422.15664,0.19690
2424.08510,0.19809
2426.01357,0.19890
2427.94204,0.19766
2429.87051,0.19545
2431.79898,0.19577
2433.72745,0.19688
2435.65592,0.19660
2437.58439,0.19558
2439.51285,0.19462
2441.44132,0.19339
2443.36979,0.19241
2445.29826,0.19434
2447.22673,0.19927
2449.15520,0.20075
2451.08367,0.18983
2453.01213,0.17739
2454.94060,0.18630
2456.86907,0.20312
2458.79754,0.20466
2460.72601,0.20050
2462.65448,0.19874
2464.58295,0.19621
2466.51142,0.19457
2468.43988,0.19388
2470.36835,0.19386
2472.29682,0.19661
2474.22529,0.20036
2476.15376,0.20058
2478.08223,0.19768
2480.01070,0.19477
2481.93916,0.19282
2483.86763,0.19102
2485.79610,0.18927
2487.72457,0.19050
2489.65304,0.19456
2491.58151,0.19619
2493.50998,0.19492
2495.43844,0.19552
2497.36691,0.19669
2499.29538,0.19581
2501.22385,0.19624
2503.15232,0.19842
2505.08079,0.19969
2507.00926,0.19957
2508.93773,0.19769
2510.86619,0.19563
2512.79466,0.19500
2514.72313,0.19518
2516.65160,0.19707
2518.58007,0.19928
2520.50854,0.19927
2522.43701,0.20017
2524.36547,0.20187
2526.29394,0.20005
2528.22241,0.19736
2530.15088,0.19673
2532.07935,0.19714
2534.00782,0.19734
2535.93629,0.19672
2537.86476,0.19774
2539.79322,0.20007
2541.72169,0.20090
2543.65016,0.20008
2545.57863,0.19847
2547.50710,0.19795
2549.43557,0.19766
2551.36404,0.19583
2553.29250,0.19501
2555.22097,0.19587
2557.14944,0.19628
2559.07791,0.19794
2561.00638,0.20101
2562.93485,0.20208
2564.86332,0.20157
2566.79179,0.20114
2568.72025,0.20104
2570.64872,0.20129
2572.57719,0.20166
2574.50566,0.20274
2576.43413,0.20274
2578.36260,0.20051
2580.29107,0.19958
2582.21953,0.19962
2584.14800,0.19771
2586.07647,0.19725
2588.00494,0.20030
2589.93341,0.20246
2591.86188,0.20109
2593.79035,0.19799
2595.71882,0.19612
2597.64728,0.19683
2599.57575,0.19875
2601.50422,0.20178
2603.43269,0.20618
2605.36116,0.20746
2607.28963,0.20401
2609.21810,0.19950
2611.14656,0.19641
2613.07503,0.19750
2615.00350,0.20213
2616.93197,0.20508
2618.86044,0.20491
2620.78891,0.20330
2622.71738,0.20050
2624.64585,0.19783
2626.57431,0.19898
2628.50278,0.20385
2630.43125,0.20680
2632.35972,0.20574
2634.28819,0.20375
2636.21666,0.20409
2638.14513,0.20800
2640.07359,0.21099
2642.00206,0.20864
2643.93053,0.20335
2645.85900,0.19915
2647.78747,0.19806
2649.71594,0.20051
2651.64441,0.20320
2653.57288,0.20327
2655.50134,0.20369
2657.42981,0.20461
2659.35828,0.20299
2661.28675,0.20070
2663.21522,0.20068
2665.14369,0.20274
2667.07216,0.20509
2669.00062,0.20674
2670.92909,0.20683
2672.85756,0.20557
2674.78603,0.20447
2676.71450,0.20466
2678.64297,0.20641
2680.57144,0.20680
2682.49990,0.20430
2684.42837,0.20130
2686.35684,0.20049
2688.28531,0.20195
2690.21378,0.20221
2692.14225,0.20228
2694.07072,0.20455
2695.99919,0.20647
2697.92765,0.20852
2699.85612,0.21168
2701.78459,0.21447
2703.71306,0.21611
2705.64153,0.21434
2707.57000,0.21057
2709.49847,0.21007
2711.42693,0.21172
2713.35540,0.21146
2715.28387,0.21048
2717.21234,0.20989
2719.14081,0.20887
2721.06928,0.20964
2722.99775,0.21308
2724.92622,0.21559
2726.85468,0.21707
2728.78315,0.21987
2730.71162,0.22140
2732.64009,0.21936
2734.56856,0.21476
2736.49703,0.20999
2738.42550,0.20924
2740.35396,0.20998
2742.28243,0.20785
2744.21090,0.20787
2746.13937,0.21227
2748.06784,0.21707
2749.99631,0.21856
2751.92478,0.21523
2753.85325,0.21202
2755.78171,0.21265
2757.71018,0.21510
2759.63865,0.21518
2761.56712,0.20970
2763.49559,0.20306
2765.42406,0.20090
2767.35253,0.20339
2769.28099,0.20759
2771.20946,0.21024
2773.13793,0.21152
2775.06640,0.21162
2776.99487,0.20982
2778.92334,0.20811
2780.85181,0.20773
2782.78028,0.20829
2784.70874,0.20989
2786.63721,0.21128
2788.56568,0.21091
2790.49415,0.20843
2792.42262,0.20701
2794.35109,0.21069
2796.27956,0.21684
2798.20802,0.22114
2800.13649,0.22218
2802.06496,0.22071
2803.99343,0.21871
2805.92190,0.21545
2807.85037,0.21066
2809.77884,0.21037
2811.70731,0.21776
2813.63577,0.22262
2815.56424,0.21941
2817.49271,0.21598
2819.42118,0.21465
2821.34965,0.21288
2823.27812,0.21330
2825.20659,0.21802
2827.13505,0.22268
2829.06352,0.22368
2830.99199,0.22290
2832.92046,0.22172
2834.84893,0.21977
2836.77740,0.21900
2838.70587,0.22121
2840.63433,0.22204
2842.56280,0.21831
2844.49127,0.21336
2846.41974,0.21098
2848.34821,0.21263
2850.27668,0.21621
2852.20515,0.21785
2854.13362,0.21733
2856.06208,0.21800
2857.99055,0.22087
2859.91902,0.22375
2861.84749,0.22310
2863.77596,0.21735
2865.70443,0.21309
2867.63290,0.21543
2869.56136,0.21854
2871.48983,0.21770
2873.41830,0.21510
2875.34677,0.21312
2877.27524,0.21308
2879.20371,0.21550
2881.13218,0.21808
2883.06065,0.21542
2884.98911,0.21021
2886.91758,0.21121
2888.84605,0.21535
2890.77452,0.21747
2892.70299,0.21819
2894.63146,0.21677
2896.55993,0.21557
2898.48839,0.21484
2900.41686,0.21140
2902.34533,0.20804
2904.27380,0.20809
2906.20227,0.21218
2908.13074,0.22088
2910.05921,0.22623
2911.98768,0.22241
2913.91614,0.21797
2915.84461,0.21676
2917.77308,0.21660
2919.70155,0.21806
2921.63002,0.21772
2923.55849,0.21619
2925.48696,0.21977
2927.41542,0.22666
2929.34389,0.22945
2931.27236,0.22584
2933.20083,0.22091
2935.12930,0.21609
2937.05777,0.20771
2938.98624,0.20350
2940.91471,0.20894
2942.84317,0.21470
2944.77164,0.21407
2946.70011,0.20780
2948.62858,0.20423
2950.55705,0.20898
2952.48552,0.21598
2954.41399,0.21906
2956.34245,0.21410
2958.27092,0.20577
2960.19939,0.20611
2962.12786,0.21488
2964.05633,0.22158
2965.98480,0.21928
2967.91327,0.21346
2969.84174,0.21442
2971.77020,0.21857
2973.69867,0.21951
2975.62714,0.21804
2977.55561,0.21401
2979.48408,0.21178
2981.41255,0.21581
2983.34102,0.22201
2985.26948,0.22319
2987.19795,0.21836
2989.12642,0.21615
2991.05489,0.22026
2992.98336,0.22497
2994.91183,0.22705
2996.84030,0.22777
2998.76877,0.22835
3000.69723,0.22801
3002.62570,0.22641
3004.55417,0.22280
3006.48264,0.21685
3008.41111,0.21284
3010.33958,0.20934
3012.26805,0.19650
3014.19651,0.17277
3016.12498,0.15383
3018.05345,0.16018
3019.98192,0.18791
3021.91039,0.21211
3023.83886,0.22293
3025.76733,0.22500
3027.69579,0.22219
3029.62426,0.22048
3031.55273,0.22489
3033.48120,0.23082
3035.40967,0.22992
3037.33814,0.22329
3039.26661,0.22016
3041.19508,0.22368
3043.12354,0.22556
3045.05201,0.21868
3046.98048,0.21055
3048.90895,0.21361
3050.83742,0.22383
3052.76589,0.22599
3054.69436,0.21397
3056.62282,0.19820
3058.55129,0.19689
3060.47976,0.20906
3062.40823,0.21708
3064.33670,0.21355
3066.26517,0.20609
3068.19364,0.20793
3070.12211,0.21897
3072.05057,0.22691
3073.97904,0.22447
3075.90751,0.21597
3077.83598,0.21447
3079.76445,0.21867
3081.69292,0.21523
3083.62139,0.20527
3085.54985,0.19986
3087.47832,0.20432
3089.40679,0.21359
3091.33526,0.21641
3093.26373,0.20776
3095.19220,0.20174
3097.12067,0.21149
3099.04914,0.22457
3100.97760,0.22539
3102.90607,0.21618
3104.83454,0.21069
3106.76301,0.21512
3108.69148,0.22122
3110.61995,0.22087
3112.54842,0.21659
3114.47688,0.21560
3116.40535,0.21779
3118.33382,0.22143
3120.26229,0.22426
3122.19076,0.21941
3124.11923,0.20931
3126.04770,0.20542
3127.97617,0.21090
3129.90463,0.21460
3131.83310,0.21201
3133.76157,0.21499
3135.69004,0.22487
3137.61851,0.22803
3139.54698,0.22217
3141.47545,0.21882
3143.40391,0.22141
3145.33238,0.22491
3147.26085,0.22891
3149.18932,0.23078
3151.11779,0.22659
3153.04626,0.22129
3154.97473,0.22090
3156.90320,0.22454
3158.83166,0.22760
3160.76013,0.22789
3162.68860,0.22572
3164.61707,0.22238
3166.54554,0.22084
3168.47401,0.22164
3170.40248,0.22529
3172.33094,0.23027
3174.25941,0.22955
3176.18788,0.22590
3178.11635,0.22928
3180.04482,0.23294
3181.97329,0.22686
3183.90176,0.22270
3185.83022,0.22781
3187.75869,0.23145
3189.68716,0.23079
3191.61563,0.23103
3193.54410,0.23299
3195.47257,0.23321
3197.40104,0.22803
3199.32951,0.22366
3201.25797,0.22741
3203.18644,0.23116
3205.11491,0.22648
3207.04338,0.21829
3208.97185,0.21457
3210.90032,0.21728
3212.82879,0.22318
3214.75725,0.22936
3216.68572,0.23212
3218.61419,0.23025
3220.54266,0.22863
3222.47113,0.22703
3224.39960,0.22128
3226.32807,0.21730
3228.25654,0.21984
3230.18500,0.22209
3232.11347,0.22275
3234.04194,0.22359
3235.97041,0.22350
3237.89888,0.22614
3239.82735,0.22887
3241.75582,0.22475
3243.68428,0.21827
3245.61275,0.21285
3247.54122,0.20863
3249.46969,0.21508
3251.39816,0.22811
3253.32663,0.22843
3255.25510,0.21668
3257.18357,0.21299
3259.11203,0.22416
3261.04050,0.23142
3262.96897,0.22616
3264.89744,0.22159
3266.82591,0.22138
3268.75438,0.22149
3270.68285,0.22200
3272.61131,0.22433
3274.53978,0.22880
3276.46825,0.23083
3278.39672,0.22943
3280.32519,0.22980
3282.25366,0.23149
3284.18213,0.22917
3286.11060,0.22351
3288.03906,0.22426
3289.96753,0.23373
3291.89600,0.23885
3293.82447,0.23401
3295.75294,0.22713
3297.68141,0.22272
3299.60988,0.22101
3301.53834,0.22122
3303.46681,0.22214
3305.39528,0.22368
3307.32375,0.22383
3309.25222,0.22102
3311.18069,0.21704
3313.10916,0.21474
3315.03763,0.21667
3316.96609,0.22237
3318.89456,0.22574
3320.82303,0.22252
3322.75150,0.21923
3324.67997,0.22027
3326.60844,0.22225
3328.53691,0.22504
3330.46537,0.22788
3332.39384,0.22895
3334.32231,0.22789
3336.25078,0.22632
3338.17925,0.22679
3340.10772,0.22525
3342.03619,0.22125
3343.96466,0.22067
3345.89312,0.22304
3347.82159,0.22647
3349.75006,0.23031
3351.67853,0.23215
3353.60700,0.23193
3355.53547,0.22966
3357.46394,0.22662
3359.39240,0.22723
3361.32087,0.22973
3363.24934,0.22908
3365.17781,0.22595
3367.10628,0.22552
3369.03475,0.22996
3370.96322,0.23408
3372.89168,0.23495
3374.82015,0.23228
3376.74862,0.22566
3378.67709,0.22337
3380.60556,0.22947
3382.53403,0.23326
3384.46250,0.23201
3386.39097,0.23275
3388.31943,0.23364
3390.24790,0.23314
3392.17637,0.23193
3394.10484,0.22771
3396.03331,0.22471
3397.96178,0.22640
3399.89025,0.22942
3401.81871,0.22724
3403.74718,0.21859
3405.67565,0.21190
3407.60412,0.21113
3409.53259,0.21300
3411.46106,0.21590
3413.38953,0.21919
3415.31800,0.21953
3417.24646,0.21655
3419.17493,0.21702
3421.10340,0.22227
3423.03187,0.22424
3424.96034,0.22008
3426.88881,0.21653
3428.81728,0.21932
3430.74574,0.22596
3432.67421,0.22864
3434.60268,0.22538
3436.53115,0.22277
3438.45962,0.22399
3440.38809,0.22681
3442.31656,0.22614
3444.24503,0.22082
3446.17349,0.21692
3448.10196,0.21217
3450.03043,0.20389
3451.95890,0.20051
3453.88737,0.20257
3455.81584,0.20326
3457.74431,0.20324
3459.67277,0.20677
3461.60124,0.21352
3463.52971,0.21840
3465.45818,0.21840
3467.38665,0.21367
3469.31512,0.20350
3471.24359,0.19627
3473.17206,0.20071
3475.10052,0.20566
3477.02899,0.20099
3478.95746,0.19189
3480.88593,0.18646
3482.81440,0.19147
3484.74287,0.20308
3486.67134,0.20911
3488.59980,0.20423
3490.52827,0.19367
3492.45674,0.18529
3494.38521,0.18225
3496.31368,0.18266
3498.24215,0.18717
3500.17062,0.19803
3502.09909,0.20743
3504.02755,0.20759
3505.95602,0.20358
3507.88449,0.19983
3509.81296,0.19610
3511.74143,0.19205
3513.66990,0.18650
3515.59837,0.18114
3517.52683,0.18001
3519.45530,0.18419
3521.38377,0.19017
3523.31224,0.19425
3525.24071,0.19654
3527.16918,0.19272
3529.09765,0.17974
3531.02611,0.16840
3532.95458,0.16578
3534.88305,0.16957
3536.81152,0.17439
3538.73999,0.17693
3540.66846,0.17911
3542.59693,0.18158
3544.52540,0.18539
3546.45386,0.18818
3548.38233,0.18226
3550.31080,0.17250
3552.23927,0.17314
3554.16774,0.18036
3556.09621,0.17849
3558.02468,0.17222
3559.95314,0.17015
3561.88161,0.16991
3563.81008,0.17038
3565.73855,0.17169
3567.66702,0.16947
3569.59549,0.16367
3571.52396,0.16014
3573.45243,0.16282
3575.38089,0.16923
3577.30936,0.17206
3579.23783,0.17248
3581.16630,0.17377
3583.09477,0.17446
3585.02324,0.17788
3586.95171,0.18400
3588.88017,0.18020
3590.80864,0.17246
3592.73711,0.17046
3594.66558,0.16765
3596.59405,0.16483
3598.52252,0.16736
3600.45099,0.16592
3602.37946,0.15757
3604.30792,0.15470
3606.23639,0.16117
3608.16486,0.16733
3610.09333,0.16670
3612.02180,0.16370
3613.95027,0.16014
3615.87874,0.16028
3617.80720,0.16617
3619.73567,0.16756
3621.66414,0.16239
3623.59261,0.15976
3625.52108,0.16147
3627.44955,0.17045
3629.37802,0.17612
3631.30649,0.16347
3633.23495,0.15229
3635.16342,0.14984
3637.09189,0.14888
3639.02036,0.14688
3640.94883,0.14906
3642.87730,0.15423
3644.80577,0.15878
3646.73423,0.16320
3648.66270,0.16422
3650.59117,0.15696
3652.51964,0.15181
3654.44811,0.15141
3656.37658,0.14866
3658.30505,0.14509
3660.23352,0.14510
3662.16198,0.14257
3664.09045,0.13935
3666.01892,0.14298
3667.94739,0.15191
3669.87586,0.15920
3671.80433,0.16503
3673.73280,0.17562
3675.66126,0.17797
3677.58973,0.16335
3679.51820,0.15070
3681.44667,0.14069
3683.37514,0.13531
3685.30361,0.13779
3687.23208,0.14555
3689.16055,0.15252
3691.08901,0.15084
3693.01748,0.14632
3694.94595,0.14291
3696.87442,0.14019
3698.80289,0.14070
3700.73136,0.14101
3702.65983,0.13623
3704.58829,0.12928
3706.51676,0.12337
3708.44523,0.12613
3710.37370,0.13957
3712.30217,0.14058
3714.23064,0.12898
3716.15911,0.12669
3718.08757,0.13758
3720.01604,0.15362
3721.94451,0.16191
3723.87298,0.15912
3725.80145,0.15203
3727.72992,0.14580
3729.65839,0.14290
3731.58686,0.14568
3733.51532,0.15128
3735.44379,0.15350
3737.37226,0.15170
3739.30073,0.14722
3741.22920,0.14585
3743.15767,0.15206
3745.08614,0.15751
3747.01460,0.15609
3748.94307,0.16035
3750.87154,0.16827
3752.80001,0.16645
3754.72848,0.15797
3756.65695,0.14854
3758.58542,0.14352
3760.51389,0.14423
3762.44235,0.14353
3764.37082,0.13680
3766.29929,0.13014
3768.22776,0.13436
3770.15623,0.14108
3772.08470,0.13904
3774.01317,0.13522
3775.94163,0.13459
3777.87010,0.13611
3779.79857,0.13684
3781.72704,0.13692
3783.65551,0.13758
3785.58398,0.13591
3787.51245,0.13320
3789.44092,0.13175
3791.36938,0.13081
3793.29785,0.13148
3795.22632,0.13274
3797.15479,0.13303
3799.08326,0.13801
3801.01173,0.14935
3802.94020,0.14863
3804.86866,0.13585
3806.79713,0.12687
3808.72560,0.12574
3810.65407,0.12859
3812.58254,0.13448
3814.51101,0.14483
3816.43948,0.15154
3818.36795,0.15152
3820.29641,0.15849
3822.22488,0.15784
3824.15335,0.14073
3826.08182,0.12893
3828.01029,0.12937
3829.93876,0.13252
3831.86723,0.13517
3833.79569,0.14329
3835.72416,0.15274
3837.65263,0.15428
3839.58110,0.14396
3841.50957,0.13400
3843.43804,0.13337
3845.36651,0.13449
3847.29498,0.13195
3849.22344,0.13085
3851.15191,0.13977
3853.08038,0.15663
3855.00885,0.14825
3856.93732,0.13062
3858.86579,0.12652
3860.79426,0.13294
3862.72272,0.13519
3864.65119,0.12432
3866.57966,0.11921
3868.50813,0.12696
3870.43660,0.13533
3872.36507,0.13785
3874.29354,0.13374
3876.22200,0.12265
3878.15047,0.11805
3880.07894,0.12808
3882.00741,0.13735
3883.93588,0.13427
3885.86435,0.12862
3887.79282,0.12514
3889.72129,0.12419
3891.64975,0.12495
3893.57822,0.12146
3895.50669,0.11864
3897.43516,0.12157
3899.36363,0.12587
3901.29210,0.13069
3903.22057,0.13624
3905.14903,0.13187
3907.07750,0.12279
3909.00597,0.12091
3910.93444,0.12146
3912.86291,0.11993
3914.79138,0.11900
3916.71985,0.11833
3918.64832,0.11825
3920.57678,0.11942
3922.50525,0.12069
3924.43372,0.11787
3926.36219,0.11079
3928.29066,0.10921
3930.21913,0.11302
3932.14760,0.11497
3934.07606,0.11278
3936.00453,0.10852
3937.93300,0.10667
3939.86147,0.10899
3941.78994,0.11459
3943.71841,0.11791
3945.64688,0.11307
3947.57535,0.10800
3949.50381,0.10910
3951.43228,0.10866
3953.36075,0.10368
3955.28922,0.09947
3957.21769,0.09827
3959.14616,0.09875
3961.07463,0.09821
3963.00309,0.09775
3964.93156,0.10079
3966.86003,0.10504
3968.78850,0.10755
3970.71697,0.10786
3972.64544,0.10610
3974.57391,0.10604
3976.50238,0.11054
3978.43084,0.11635
3980.35931,0.11674
3982.28778,0.11028
3984.21625,0.10590
3986.14472,0.10478
3988.07319,0.09982
3990.00166,0.09398
3991.93012,0.09303
3993.85859,0.09547
3995.78706,0.09676
3997.71553,0.09697
3999.64400,0.10077
4001.57247,0.10623
4003.50094,0.10623
4005.42941,0.10105
4007.35787,0.09594
4009.28634,0.09312
4011.21481,0.09285
4013.14328,0.09468
4015.07175,0.09601
4017.00022,0.09653
4018.92869,0.10011
4020.85715,0.10372
4022.78562,0.10216
4024.71409,0.09927
4026.64256,0.09701
4028.57103,0.09466
4030.49950,0.09565
4032.42797,0.10091
4034.35644,0.10426
4036.28490,0.10013
4038.21337,0.09337
4040.14184,0.09252
4042.07031,0.09472
4043.99878,0.09343
4045.92725,0.09199
4047.85572,0.09396
4049.78418,0.09569
4051.71265,0.09172
4053.64112,0.08301
4055.56959,0.07868
4057.49806,0.08083
4059.42653,0.08266
4061.35500,0.08622
4063.28346,0.09505
4065.21193,0.09922
4067.14040,0.09291
4069.06887,0.08351
4070.99734,0.07988
4072.92581,0.08284
4074.85428,0.08622
4076.78275,0.08595
4078.71121,0.08093
4080.63968,0.07724
4082.56815,0.07979
4084.49662,0.08571
4086.42509,0.09253
4088.35356,0.09453
4090.28203,0.09211
4092.21049,0.09266
4094.13896,0.09423
4096.06743,0.09245
4097.99590,0.08710
4099.92437,0.08048
4101.85284,0.07889
4103.78131,0.08326
4105.70978,0.08790
4107.63824,0.09077
4109.56671,0.09318
4111.49518,0.09593
4113.42365,0.09383
4115.35212,0.08419
4117.28059,0.07579
4119.20906,0.07384
4121.13752,0.07303
4123.06599,0.07087
4124.99446,0.07429
4126.92293,0.08422
4128.85140,0.08713
4130.77987,0.07682
4132.70834,0.06915
4134.63681,0.07282
4136.56527,0.07425
4138.49374,0.07067
4140.42221,0.07119
4142.35068,0.07448
4144.27915,0.07546
4146.20762,0.07256
4148.13609,0.07020
4150.06455,0.07226
4151.99302,0.07263
4153.92149,0.06810
4155.84996,0.06324
4157.77843,0.06189
4159.70690,0.06472
4161.63537,0.06876
4163.56384,0.07401
4165.49230,0.08085
4167.42077,0.08441
4169.34924,0.08069
4171.27771,0.07504
4173.20618,0.07411
4175.13465,0.07304
4177.06312,0.06683
4178.99158,0.06160
4180.92005,0.06757
4182.84852,0.08038
4184.77699,0.08562
4186.70546,0.08116
4188.63393,0.07603
4190.56240,0.07357
4192.49087,0.06422
4194.41933,0.05192
4196.34780,0.05245
4198.27627,0.06121
4200.20474,0.06475
4202.13321,0.06180
4204.06168,0.05988
4205.99015,0.06307
4207.91861,0.06403
4209.84708,0.05869
4211.77555,0.05636
4213.70402,0.05983
4215.63249,0.06398
4217.56096,0.06589
4219.48943,0.06096
4221.41789,0.05586
4223.34636,0.05948
4225.27483,0.06070
4227.20330,0.05510
4229.13177,0.05599
4231.06024,0.06244
4232.98871,0.06087
4234.91718,0.04984
4236.84564,0.04013
4238.77411,0.04095
4240.70258,0.04948
4242.63105,0.05742
4244.55952,0.06050
4246.48799,0.05758
4248.41646,0.05301
4250.34492,0.05180
4252.27339,0.05241
4254.20186,0.05396
4256.13033,0.05623
4258.05880,0.05716
4259.98727,0.05928
4261.91574,0.06388
4263.84421,0.06565
4265.77267,0.06268
4267.70114,0.05987
4269.62961,0.05554
4271.55808,0.04594
4273.48655,0.03890
4275.41502,0.03848
4277.34349,0.04137
4279.27195,0.04574
4281.20042,0.04583
4283.12889,0.04361
4285.05736,0.04893
4286.98583,0.05411
4288.91430,0.05080
4290.84277,0.04723
4292.77124,0.04591
4294.69970,0.04203
4296.62817,0.03539
4298.55664,0.03461
4300.48511,0.04066
4302.41358,0.04287
4304.34205,0.04069
4306.27052,0.03715
4308.19898,0.03544
4310.12745,0.03694
4312.05592,0.03587
4313.98439,0.03424
4315.91286,0.03443
4317.84133,0.03353
4319.76980,0.03695
4321.69827,0.04554
4323.62673,0.04670
4325.55520,0.03991
4327.48367,0.03442
4329.41214,0.02662
4331.34061,0.01860
4333.26908,0.02535
4335.19755,0.04338
4337.12601,0.05304
4339.05448,0.04767
4340.98295,0.03966
4342.91142,0.03776
4344.83989,0.03275
4346.76836,0.01966
4348.69683,0.00269
4350.62530,-0.00856
4352.55376,-0.00412
4354.48223,0.00504
4356.41070,0.01255
4358.33917,0.02478
4360.26764,0.02995
4362.19611,0.02133
4364.12458,0.01306
4366.05304,0.01562
4367.98151,0.02408
4369.90998,0.02588
4371.83845,0.01840
4373.76692,0.01056
4375.69539,0.00953
4377.62386,0.01709
4379.55232,0.02655
4381.48079,0.02755
4383.40926,0.02205
4385.33773,0.01729
4387.26620,0.01118
4389.19467,0.00997
4391.12314,0.02090
4393.05161,0.02992
4394.98007,0.02990
4396.90854,0.02704
4398.83701,0.02280
4400.76548,0.01910
4402.69395,0.02033
4404.62242,0.02655
4406.55089,0.02897
4408.47935,0.02380
4410.40782,0.01854
4412.33629,0.01556
4414.26476,0.01429
4416.19323,0.01559
4418.12170,0.01514
4420.05017,0.01518
4421.97864,0.02070
4423.90710,0.02491
4425.83557,0.02186
4427.76404,0.01092
4429.69251,-0.00308
4431.62098,-0.00686
4433.54945,0.00189
4435.47792,0.01437
4437.40638,0.02477
4439.33485,0.02526
4441.26332,0.01600
4443.19179,0.00871
4445.12026,0.00625
4447.04873,0.00562
4448.97720,0.00761
4450.90567,0.00831
4452.83413,0.00679
4454.76260,0.01003
4456.69107,0.01533
4458.61954,0.01631
4460.54801,0.01334
4462.47648,0.00707
4464.40495,0.00030
4466.33341,0.00081
4468.26188,0.01012
4470.19035,0.01346
4472.11882,0.00583
4474.04729,0.00467
4475.97576,0.01401
4477.90423,0.02009
4479.83270,0.01907
4481.76116,0.01579
4483.68963,0.01009
4485.61810,0.00543
4487.54657,0.00951
4489.47504,0.01669
4491.40351,0.01672
4493.33198,0.01312
4495.26044,0.01324
4497.18891,0.01264
4499.11738,0.00688
4501.04585,0.00397
4502.97432,0.00760
4504.90279,0.01075
4506.83126,0.01504
4508.75973,0.02548
4510.68819,0.03147
4512.61666,0.02370
4514.54513,0.01127
4516.47360,0.00809
4518.40207,0.01650
4520.33054,0.02248
4522.25901,0.01876
4524.18747,0.01411
4526.11594,0.01248
4528.04441,0.01389
4529.97288,0.01211
4531.90135,0.00201
4533.82982,-0.00529
4535.75829,-0.00333
4537.68676,0.00599
4539.61522,0.01875
4541.54369,0.02208
4543.47216,0.01449
4545.40063,0.00782
4547.32910,0.00140
4549.25757,-0.00225
4551.18604,0.00209
4553.11450,0.00276
4555.04297,-0.00259
4556.97144,-0.00026
4558.89991,0.00922
4560.82838,0.01386
4562.75685,0.00791
4564.68532,-0.00442
4566.61378,-0.00874
4568.54225,-0.00420
4570.47072,-0.00453
4572.39919,-0.00471
4574.32766,0.00568
4576.25613,0.01452
4578.18460,0.00910
4580.11307,-0.00032
4582.04153,0.00245
4583.97000,0.01298
4585.89847,0.01717
4587.82694,0.01332
4589.75541,0.00807
4591.68388,0.00505
4593.61235,0.00052
4595.54081,-0.00275
4597.46928,0.00349
4599.39775,0.01271
4601.32622,0.01205
4603.25469,0.00435
4605.18316,0.00157
4607.11163,0.00592
4609.04010,0.01413
4610.96856,0.02111
4612.89703,0.02166
4614.82550,0.01565
4616.75397,0.00743
4618.68244,0.00171
4620.61091,0.00311
4622.53938,0.01226
4624.46784,0.01428
4626.39631,0.00693
4628.32478,0.00936
4630.25325,0.01958
4632.18172,0.01911
4634.11019,0.00678
4636.03866,-0.00428
4637.96713,-0.00824
4639.89559,-0.00399
4641.82406,0.00333
4643.75253,0.00178
4645.68100,-0.00511
4647.60947,-0.00547
4649.53794,-0.00566
4651.46641,-0.01015
4653.39487,-0.00752
4655.32334,-0.00056
4657.25181,0.00281
4659.18028,0.00871
4661.10875,0.01797
4663.03722,0.02410
4664.96569,0.02112
4666.89416,0.00562
4668.82262,-0.01145
4670.75109,-0.00974
4672.67956,0.01078
4674.60803,0.02514
4676.53650,0.01827
4678.46497,0.00698
4680.39344,0.00726
4682.32190,0.01349
4684.25037,0.01610
4686.17884,0.01165
4688.10731,0.00588
4690.03578,0.00496
4691.96425,0.00690
4693.89272,0.00499
4695.82119,-0.00381
4697.74965,-0.01444
4699.67812,-0.01204
4701.60659,0.00937
4703.53506,0.02348
4705.46353,0.01514
4707.39200,0.00533
4709.32047,0.00591
4711.24893,0.00777
4713.17740,0.00426
4715.10587,-0.00124
4717.03434,-0.00395
4718.96281,-0.00078
4720.89128,0.00330
4722.81975,-0.00233
4724.74821,-0.00897
4726.67668,-0.00758
4728.60515,-0.00119
4730.53362,0.00902
4732.46209,0.01054
4734.39056,-0.00064
4736.31903,0.00044
4738.24750,0.01039
4740.17596,0.00771
4742.10443,0.00253
4744.03290,0.00227
4745.96137,-0.00256
4747.88984,-0.01120
4749.81831,-0.00778
4751.74678,0.00823
4753.67524,0.01189
4755.60371,-0.00204
4757.53218,-0.01205
4759.46065,-0.01072
4761.38912,-0.00611
4763.31759,0.00054
4765.24606,0.01131
4767.17453,0.01563
4769.10299,0.00987
4771.03146,0.00558
4772.95993,0.00406
4774.88840,-0.00042
4776.81687,-0.00368
4778.74534,0.00256
4780.67381,0.01211
4782.60227,0.01087
4784.53074,0.00243
4786.45921,-0.00121
4788.38768,-0.00036
4790.31615,-0.00335
4792.24462,-0.01128
4794.17309,-0.01566
4796.10156,-0.01842
4798.03002,-0.02136
4799.95849,-0.01739
4801.88696,-0.00601
4803.81543,0.00075
4805.74390,-0.00740
4807.67237,-0.01485
4809.60084,-0.00459
4811.52930,0.00734
4813.45777,0.00539
4815.38624,0.00595
4817.31471,0.01810
4819.24318,0.02063
4821.17165,0.01257
4823.10012,0.01262
4825.02859,0.01415
4826.95705,0.00209
4828.88552,-0.01243
4830.81399,-0.01370
4832.74246,-0.00741
4834.67093,-0.00424
4836.59940,-0.00475
4838.52787,-0.00238
4840.45633,0.00963
4842.38480,0.02547
4844.31327,0.03191
4846.24174,0.02546
4848.17021,0.01597
4850.09868,0.01794
4852.02715,0.02708
4853.95562,0.02826
4855.88408,0.02473
4857.81255,0.02200
4859.74102,0.01378
4861.66949,-0.00828
4863.59796,-0.02636
4865.52643,-0.01114
4867.45490,0.02517
4869.38336,0.04241
4871.31183,0.02379
4873.24030,-0.00414
4875.16877,-0.00733
4877.09724,0.00831
4879.02571,0.01268
4880.95418,-0.00247
4882.88265,-0.01564
4884.81111,-0.01538
4886.73958,-0.00444
4888.66805,0.00894
4890.59652,0.01215
4892.52499,0.01112
4894.45346,0.01651
4896.38193,0.01784
4898.31039,0.00990
4900.23886,0.01275
4902.16733,0.02506
4904.09580,0.02727
4906.02427,0.02294
4907.95274,0.01363
4909.88121,0.00001
4911.80967,-0.01262
4913.73814,-0.02054
4915.66661,-0.01200
4917.59508,0.00047
4919.52355,-0.00331
4921.45202,-0.00745
4923.38049,0.00418
4925.30896,0.02055
4927.23742,0.02411
4929.16589,0.01339
4931.09436,0.00695
4933.02283,0.01270
4934.95130,0.01774
4936.87977,0.02277
4938.80824,0.03177
4940.73670,0.02993
4942.66517,0.01091
4944.59364,-0.00389
4946.52211,0.00602
4948.45058,0.02169
4950.37905,0.01412
4952.30752,-0.00598
4954.23599,-0.01411
4956.16445,-0.00730
4958.09292,0.00465
4960.02139,0.01212
4961.94986,0.01632
4963.87833,0.02502
4965.80680,0.03447
4967.73527,0.03396
4969.66373,0.03118
4971.59220,0.03650
4973.52067,0.04014
4975.44914,0.03648
4977.37761,0.02889
4979.30608,0.02183
4981.23455,0.02308
4983.16302,0.02642
4985.09148,0.01417
4987.01995,-0.00839
4988.94842,-0.01758
4990.87689,-0.01210
4992.80536,-0.00014
4994.73383,0.01732
4996.66230,0.02893
4998.59076,0.02806
5000.51923,0.02109
5002.44770,0.01200
5004.37617,0.00215
5006.30464,0.00264
5008.23311,0.01712
5010.16158,0.02747
5012.09005,0.02380
5014.01851,0.01596
5015.94698,0.01353
5017.87545,0.01434
5019.80392,0.00960
5021.73239,0.00769
5023.66086,0.02048
5025.58933,0.02581
5027.51779,0.00729
5029.44626,-0.01078
5031.37473,-0.01637
5033.30320,-0.02376
5035.23167,-0.03236
5037.16014,-0.02608
5039.08861,-0.01400
5041.01708,-0.00820
5042.94554,0.00219
5044.87401,0.01675
5046.80248,0.02665
5048.73095,0.03453
5050.65942,0.04027
5052.58789,0.03130
5054.51636,0.00436
5056.44482,-0.01586
5058.37329,-0.00960
5060.30176,0.00712
5062.23023,0.01821
5064.15870,0.03005
5066.08717,0.03909
5068.01564,0.03337
5069.94410,0.01809
5071.87257,0.00807
5073.80104,0.00857
5075.72951,0.01080
5077.65798,0.01296
5079.58645,0.01804
5081.51492,0.01615
5083.44339,0.00997
5085.37185,0.01016
5087.30032,0.01402
5089.22879,0.01604
5091.15726,0.00988
5093.08573,0.00422
5095.01420,0.00808
5096.94267,0.00790
5098.87113,0.00256
5100.79960,0.00676
5102.72807,0.02140
5104.65654,0.03344
5106.58501,0.02756
5108.51348,0.00568
5110.44195,-0.00864
5112.37042,-0.00424
5114.29888,0.01456
5116.22735,0.03504
5118.15582,0.03637
5120.08429,0.02627
5122.01276,0.02761
5123.94123,0.03030
5125.86970,0.01430
5127.79816,-0.00776
5129.72663,-0.01607
5131.65510,-0.01688
5133.58357,-0.01763
5135.51204,-0.01363
5137.44051,-0.00217
5139.36898,0.01857
5141.29745,0.05647
5143.22591,0.10219
5145.15438,0.12126
5147.08285,0.09466
5149.01132,0.05451
5150.93979,0.04240
5152.86826,0.04479
5154.79673,0.03622
5156.72519,0.01926
5158.65366,0.00014
5160.58213,-0.00866
5162.51060,-0.00155
5164.43907,0.01037
5166.36754,0.02154
5168.29601,0.02749
5170.22448,0.02389
5172.15294,0.01671
5174.08141,0.01020
5176.00988,-0.00732
5177.93835,-0.04178
5179.86682,-0.05706
5181.79529,-0.02926
5183.72376,0.00689
5185.65222,0.02862
5187.58069,0.03828
5189.50916,0.03741
5191.43763,0.03689
5193.36610,0.03954
5195.29457,0.04396
5197.22304,0.05124
5199.15151,0.04775
5201.07997,0.03290
5203.00844,0.02182
5204.93691,0.01356
5206.86538,0.00136
5208.79385,-0.00286
5210.72232,0.01018
5212.65079,0.02324
5214.57925,0.02465
5216.50772,0.01837
5218.43619,0.00690
5220.36466,0.00644
5222.29313,0.02115
5224.22160,0.03344
5226.15007,0.05326
5228.07854,0.07290
5230.00700,0.05871
5231.93547,0.03148
5233.86394,0.01535
5235.79241,0.00404
5237.72088,0.01215
5239.64935,0.03755
5241.57782,0.04957
5243.50628,0.04601
5245.43475,0.04315
5247.36322,0.03421
5249.29169,0.01214
5251.22016,-0.00020
5253.14863,0.01704
5255.07710,0.05179
5257.00556,0.06409
5258.93403,0.05189
5260.86250,0.05308
5262.79097,0.06718
5264.71944,0.06118
5266.64791,0.03714
5268.57638,0.01886
5270.50485,0.00669
5272.43331,-0.00388
5274.36178,0.00044
5276.29025,0.00754
5278.21872,-0.00027
5280.14719,0.00061
5282.07566,0.00748
5284.00413,0.00454
5285.93259,0.00865
5287.86106,0.01919
5289.78953,0.02520
5291.71800,0.01727
5293.64647,-0.00598
5295.57494,-0.01349
5297.50341,0.01379
5299.43188,0.03136
5301.36034,0.00431
5303.28881,-0.00722
5305.21728,0.02415
5307.14575,0.03148
5309.07422,0.00240
5311.00269,0.00290
5312.93116,0.04398
5314.85962,0.07681
5316.78809,0.08263
5318.71656,0.07957
5320.64503,0.06929
5322.57350,0.05092
5324.50197,0.03474
5326.43044,0.02739
5328.35891,0.03254
5330.28737,0.04414
5332.21584,0.05816
5334.14431,0.06858
5336.07278,0.05402
5338.00125,0.02384
5339.92972,0.01368
5341.85819,0.02301
5343.78665,0.03060
5345.71512,0.02694
5347.64359,0.02628
5349.57206,0.02533
5351.50053,0.02209
5353.42900,0.03498
5355.35747,0.04352
5357.28594,0.03418
5359.21440,0.03716
5361.14287,0.05058
5363.07134,0.04251
5364.99981,0.02147
5366.92828,0.01031
5368.85675,0.01294
5370.78522,0.03472
5372.71368,0.05926
5374.64215,0.07098
5376.57062,0.07082
5378.49909,0.07047
5380.42756,0.07874
5382.35603,0.07846
5384.28450,0.07213
5386.21297,0.07332
5388.14143,0.07827
5390.06990,0.08768
5391.99837,0.09135
5393.92684,0.08382
5395.85531,0.07581
5397.78378,0.06460
5399.71225,0.05082
5401.64071,0.05671
5403.56918,0.08399
5405.49765,0.09724
5407.42612,0.08270
5409.35459,0.06272
5411.28306,0.06931
5413.21153,0.09754
5415.13999,0.10420
5417.06846,0.09663
5418.99693,0.08550
5420.92540,0.06632
5422.85387,0.06551
5424.78234,0.08514
5426.71081,0.09785
5428.63928,0.10386
5430.56774,0.10115
5432.49621,0.07134
5434.42468,0.03103
5436.35315,0.02750
5438.28162,0.05409
5440.21009,0.06119
5442.13856,0.03865
5444.06702,0.00903
5445.99549,-0.01155
5447.92396,-0.00316
5449.85243,0.00690
5451.78090,-0.00842
5453.70937,-0.00255
5455.63784,0.04703
5457.56631,0.09619
5459.49477,0.09986
5461.42324,0.05908
5463.35171,0.02108
5465.28018,0.01546
5467.20865,0.02105
5469.13712,0.03196
5471.06559,0.05156
5472.99405,0.06371
5474.92252,0.06007
5476.85099,0.04642
5478.77946,0.03463
5480.70793,0.03074
5482.63640,0.03921
5484.56487,0.06147
5486.49334,0.07880
5488.42180,0.08177
5490.35027,0.07946
5492.27874,0.05917
5494.20721,0.04380
5496.13568,0.06776
5498.06415,0.09074
5499.99262,0.08599
5501.92108,0.07198
5503.84955,0.05938
5505.77802,0.06110
5507.70649,0.07148
5509.63496,0.06406
5511.56343,0.05334
5513.49190,0.04914
5515.42037,0.03449
5517.34883,0.02190
5519.27730,0.01980
5521.20577,0.01899
5523.13424,0.02223
5525.06271,0.03378
5526.99118,0.05340
5528.91965,0.06087
5530.84811,0.05436
5532.77658,0.06141
5534.70505,0.06436
5536.63352,0.05132
5538.56199,0.05511
5540.49046,0.06224
5542.41893,0.03728
5544.34740,0.01300
5546.27586,0.02500
5548.20433,0.03953
5550.13280,0.03737
5552.06127,0.04472
5553.98974,0.07144
5555.91821,0.10673
5557.84668,0.11756
5559.77514,0.09449
5561.70361,0.07516
5563.63208,0.07507
5565.56055,0.08685
5567.48902,0.09513
5569.41749,0.08384
5571.34596,0.07047
5573.27443,0.07828
5575.20289,0.09365
5577.13136,0.09822
5579.05983,0.09645
5580.98830,0.09401
5582.91677,0.10176
5584.84524,0.11696
5586.77371,0.12109
5588.70217,0.10647
5590.63064,0.08229
5592.55911,0.07458
5594.48758,0.08550
5596.41605,0.09564
5598.34452,0.10483
5600.27299,0.11204
5602.20145,0.11065
5604.12992,0.10060
5606.05839,0.08301
5607.98686,0.08231
5609.91533,0.11463
5611.84380,0.13543
5613.77227,0.10987
5615.70074,0.08187
5617.62920,0.08569
5619.55767,0.09347
5621.48614,0.09510
5623.41461,0.10583
5625.34308,0.11299
5627.27155,0.10207
5629.20002,0.07719
5631.12848,0.05984
5633.05695,0.05621
5634.98542,0.06183
5636.91389,0.08805
5638.84236,0.11018
5640.77083,0.09978
5642.69930,0.07131
5644.62777,0.04347
5646.55623,0.05034
5648.48470,0.10580
5650.41317,0.15257
5652.34164,0.14875
5654.27011,0.12841
5656.19858,0.11907
5658.12705,0.09770
5660.05551,0.06920
5661.98398,0.06073
5663.91245,0.06574
5665.84092,0.08734
5667.76939,0.10104
5669.69786,0.06528
5671.62633,0.03224
5673.55480,0.04768
5675.48326,0.07791
5677.41173,0.10558
5679.34020,0.10899
5681.26867,0.08024
5683.19714,0.07066
5685.12561,0.08350
5687.05408,0.08469
5688.98254,0.08513
5690.91101,0.09094
5692.83948,0.07413
5694.76795,0.03811
5696.69642,0.03974
5698.62489,0.09386
5700.55336,0.13397
5702.48183,0.11660
5704.41029,0.08271
5706.33876,0.09060
5708.26723,0.12878
5710.19570,0.15446
5712.12417,0.15559
5714.05264,0.13315
5715.98111,0.08014
5717.90957,0.01797
5719.83804,0.00173
5721.76651,0.03636
5723.69498,0.06434
5725.62345,0.04213
5727.55192,-0.00029
5729.48039,-0.00275
5731.40886,0.02874
5733.33732,0.05683
5735.26579,0.05071
5737.19426,0.00914
5739.12273,0.00101
5741.05120,0.04063
5742.97967,0.07294
5744.90814,0.09790
5746.83660,0.11139
5748.76507,0.09994
5750.69354,0.08683
5752.62201,0.07968
5754.55048,0.07328
5756.47895,0.05722
5758.40742,0.03330
5760.33588,0.02518
5762.26435,0.04034
5764.19282,0.04955
5766.12129,0.02322
5768.04976,-0.00315
5769.97823,0.01226
5771.90670,0.05728
5773.83517,0.10160
5775.76363,0.12619
5777.69210,0.12437
5779.62057,0.10044
5781.54904,0.08552
5783.47751,0.10096
5785.40598,0.12058
5787.33445,0.11599
5789.26291,0.09008
5791.19138,0.08038
5793.11985,0.09504
5795.04832,0.09212
5796.97679,0.08214
5798.90526,0.09301
5800.83373,0.10187
5802.76220,0.09305
5804.69066,0.07962
5806.61913,0.07537
5808.54760,0.09061
5810.47607,0.11787
5812.40454,0.11219
5814.33301,0.07488
5816.26148,0.06232
5818.18994,0.07912
5820.11841,0.10251
5822.04688,0.12250
5823.97535,0.11902
5825.90382,0.09275
5827.83229,0.07577
5829.76076,0.07368
5831.68923,0.06196
5833.61769,0.04451
5835.54616,0.03427
5837.47463,0.02997
5839.40310,0.03667
5841.33157,0.05405
5843.26004,0.09102
5845.18851,0.13310
5847.11697,0.12407
5849.04544,0.07676
5850.97391,0.06609
5852.90238,0.10324
5854.83085,0.13269
5856.75932,0.10855
5858.68779,0.06692
5860.61626,0.05524
5862.54472,0.05964
5864.47319,0.05472
5866.40166,0.04223
5868.33013,0.04046
5870.25860,0.04811
5872.18707,0.04362
5874.11554,0.02503
5876.04400,0.01223
5877.97247,0.01073
5879.90094,0.02604
5881.82941,0.04227
5883.75788,0.03137
5885.68635,0.02906
5887.61482,0.05256
5889.54329,0.05501
5891.47175,0.03261
5893.40022,0.02106
5895.32869,0.01204
5897.25716,-0.00443
5899.18563,0.00599
5901.11410,0.06321
5903.04257,0.14482
5904.97103,0.20522
5906.89950,0.21098
5908.82797,0.14940
5910.75644,0.06377
5912.68491,0.03849
5914.61338,0.06722
5916.54185,0.07461
5918.47032,0.06407
5920.39878,0.04981
5922.32725,0.01123
5924.25572,-0.01584
5926.18419,0.00680
5928.11266,0.05117
5930.04113,0.06160
5931.96960,0.02352
5933.89806,-0.02447
5935.82653,-0.04752
5937.75500,-0.04422
5939.68347,-0.01674
5941.61194,0.03648
5943.54041,0.06987
5945.46888,0.05410
5947.39734,0.04097
5949.32581,0.05537
5951.25428,0.08805
5953.18275,0.13712
5955.11122,0.17416
5957.03969,0.15447
5958.96816,0.06527
5960.89663,0.01443
5962.82509,0.07083
5964.75356,0.12715
5966.68203,0.11831
5968.61050,0.08724
5970.53897,0.07978
5972.46744,0.08568
5974.39591,0.06822
5976.32437,0.04597
5978.25284,0.06297
5980.18131,0.10514
5982.10978,0.12658
5984.03825,0.11991
5985.96672,0.09426
5987.89519,0.07931
5989.82366,0.11255
5991.75212,0.13585
5993.68059,0.10277
5995.60906,0.07544
5997.53753,0.07408
5999.46600,0.04503
6001.39447,0.00380
6003.32294,0.02174
6005.25140,0.10258
6007.17987,0.14777
6009.10834,0.08295
6011.03681,-0.03511
6012.96528,-0.08027
6014.89375,-0.00984
6016.82222,0.10629
6018.75069,0.18333
6020.67915,0.17295
6022.60762,0.10038
6024.53609,0.05738
6026.46456,0.06883
6028.39303,0.07412
6030.32150,0.04476
6032.24997,0.00822
6034.17843,-0.02955
6036.10690,-0.06675
6038.03537,-0.06950
6039.96384,-0.01207
6041.89231,0.09012
6043.82078,0.17110
6045.74925,0.19136
6047.67772,0.16326
6049.60618,0.11279
6051.53465,0.07164
6053.46312,0.03086
6055.39159,-0.00966
6057.32006,-0.01223
6059.24853,0.03829
6061.17700,0.10227
6063.10546,0.12889
6065.03393,0.12318
6066.96240,0.11719
6068.89087,0.09303
6070.81934,0.04286
6072.74781,0.03767
6074.67628,0.08467
6076.60475,0.09411
6078.53321,0.05919
6080.46168,0.05241
6082.39015,0.07145
6084.31862,0.06745
6086.24709,0.07416
6088.17556,0.13622
6090.10403,0.21811
6092.03249,0.26515
6093.96096,0.24303
6095.88943,0.17781
6097.81790,0.11950
6099.74637,0.07713
6101.67484,0.07923
6103.60331,0.11712
6105.53177,0.10531
6107.46024,0.07536
6109.38871,0.12026
6111.31718,0.18829
6113.24565,0.18968
6115.17412,0.13881
6117.10259,0.10283
6119.03106,0.08385
6120.95952,0.06542
6122.88799,0.08479
6124.81646,0.11996
6126.74493,0.10822
6128.67340,0.06718
6130.60187,0.07033
6132.53034,0.10889
6134.45880,0.11427
6136.38727,0.06003
6138.31574,-0.00959
6140.24421,-0.02740
6142.17268,0.01628
6144.10115,0.08381
6146.02962,0.10551
6147.95809,0.03502
6149.88655,-0.03902
6151.81502,-0.01581
6153.74349,0.01605
6155.67196,-0.01228
6157.60043,-0.01470
6159.52890,0.02807
6161.45737,0.06101
6163.38583,0.05998
6165.31430,0.02055
6167.24277,-0.00555
6169.17124,0.03075
6171.09971,0.09230
6173.02818,0.13076
6174.95665,0.16295
6176.88512,0.19580
6178.81358,0.18506
6180.74205,0.13266
6182.67052,0.09065
6184.59899,0.06977
6186.52746,0.06348
6188.45593,0.05567
6190.38440,0.02714
6192.31286,0.01752
6194.24133,0.05555
6196.16980,0.10086
6198.09827,0.09011
6200.02674,0.02178
6201.95521,-0.03909
6203.88368,-0.02924
6205.81215,0.05203
6207.74061,0.13063
6209.66908,0.16736
6211.59755,0.16015
6213.52602,0.11207
6215.45449,0.08459
6217.38296,0.10327
6219.31143,0.09719
6221.23989,0.06736
6223.16836,0.07280
6225.09683,0.11582
6227.02530,0.14968
6228.95377,0.14703
6230.88224,0.14498
6232.81071,0.15477
6234.73918,0.14907
6236.66764,0.13160
6238.59611,0.10757
6240.52458,0.10724
6242.45305,0.15662
6244.38152,0.19780
6246.30999,0.16249
6248.23846,0.13328
6250.16692,0.18412
6252.09539,0.21617
6254.02386,0.19452
6255.95233,0.14807
6257.88080,0.08540
6259.80927,0.04051
6261.73774,0.02074
6263.66621,0.02838
6265.59467,0.07427
6267.52314,0.12155
6269.45161,0.09921
6271.38008,0.03767
6273.30855,0.02740
6275.23702,0.08852
6277.16549,0.14166
6279.09395,0.11970
6281.02242,0.04001
6282.95089,-0.05504
6284.87936,-0.10849
6286.80783,-0.09134
6288.73630,-0.01703
6290.66477,0.06454
6292.59323,0.08156
6294.52170,0.05924
6296.45017,0.06243
6298.37864,0.10355
6300.30711,0.14832
6302.23558,0.16099
6304.16405,0.14366
6306.09252,0.09083
6308.02098,0.03043
6309.94945,0.00400
6311.87792,-0.03418
6313.80639,-0.07853
6315.73486,-0.04534
6317.66333,0.05467
6319.59180,0.15068
6321.52026,0.19619
6323.44873,0.16098
6325.37720,0.06324
6327.30567,-0.02029
6329.23414,-0.00550
6331.16261,0.04797
6333.09108,0.03302
6335.01955,-0.00614
6336.94801,-0.02606
6338.87648,-0.03331
6340.80495,-0.00466
6342.73342,0.02442
6344.66189,-0.00283
6346.59036,-0.02674
6348.51883,0.02687
6350.44729,0.11241
6352.37576,0.16295
6354.30423,0.15747
6356.23270,0.09036
6358.16117,-0.01159
6360.08964,-0.09396
6362.01811,-0.13190
6363.94658,-0.10941
6365.87504,-0.05881
6367.80351,-0.05664
6369.73198,-0.04636
6371.66045,0.04085
6373.58892,0.15335
6375.51739,0.22303
6377.44586,0.21446
6379.37432,0.16476
6381.30279,0.12497
6383.23126,0.08293
6385.15973,0.05492
6387.08820,0.04073
6389.01667,-0.01260
6390.94514,-0.08479
6392.87361,-0.10257
6394.80207,-0.04443
6396.73054,0.00754
6398.65901,-0.01213
6400.58748,-0.03674
6402.51595,-0.00423
6404.44442,0.01809
6406.37289,0.02919
6408.30135,0.08358
6410.22982,0.15539
6412.15829,0.18509
6414.08676,0.13598
6416.01523,0.06208
6417.94370,0.03581
6419.87217,0.04512
6421.80064,0.05792
6423.72910,0.09146
6425.65757,0.13003
6427.58604,0.16158
6429.51451,0.21090
6431.44298,0.19963
6433.37145,0.11919
6435.29992,0.09172
6437.22838,0.07684
6439.15685,0.03175
6441.08532,0.03215
6443.01379,0.08553
6444.94226,0.13591
6446.87073,0.11654
6448.79920,0.06944
6450.72766,0.11649
6452.65613,0.22600
6454.58460,0.27355
6456.51307,0.22845
6458.44154,0.15071
6460.37001,0.10290
6462.29848,0.06737
6464.22695,0.03146
6466.15541,0.02960
6468.08388,0.05118
6470.01235,0.05513
6471.94082,0.07728
6473.86929,0.13112
6475.79776,0.12513
6477.72623,0.00924
6479.65469,-0.08815
6481.58316,-0.06803
6483.51163,-0.04311
6485.44010,-0.05705
6487.36857,-0.02341
6489.29704,0.03044
6491.22551,0.01407
6493.15398,-0.00613
6495.08244,0.04604
6497.01091,0.08929
6498.93938,0.14297
6500.86785,0.20927
6502.79632,0.13528
6504.72479,-0.01848
6506.65326,-0.09934
6508.58172,-0.10754
6510.51019,-0.08332
6512.43866,-0.03779
6514.36713,0.02210
6516.29560,0.05030
6518.22407,0.01740
6520.15254,-0.03417
6522.08101,-0.02710
6524.00947,0.07295
6525.93794,0.14697
6527.86641,0.10353
6529.79488,0.04305
6531.72335,0.04639
6533.65182,0.09683
6535.58029,0.14449
6537.50875,0.14305
6539.43722,0.07776
6541.36569,-0.01601
6543.29416,-0.06497
6545.22263,-0.02294
6547.15110,0.05874
6549.07957,0.14806
6551.00804,0.24144
6552.93650,0.22479
6554.86497,0.07745
6556.79344,-0.01003
6558.72191,0.02782
6560.65038,0.07522
6562.57885,0.10633
6564.50732,0.21094
6566.43578,0.31627
6568.36425,0.25814
6570.29272,0.11140
6572.22119,0.01094
6574.14966,-0.02368
6576.07813,0.03195
6578.00660,0.11244
6579.93507,0.07967
6581.86353,0.00591
6583.79200,0.00126
6585.72047,0.01391
6587.64894,0.03598
6589.57741,0.09480
6591.50588,0.10461
6593.43435,0.02983
6595.36281,0.01748
6597.29128,0.04861
6599.21975,0.00903
6601.14822,-0.00879
6603.07669,0.04334
6605.00516,0.08771
6606.93363,0.13434
6608.86210,0.22861
6610.79056,0.34421
6612.71903,0.33788
6614.64750,0.17264
6616.57597,0.03437
6618.50444,-0.02382
6620.43291,-0.08639
6622.36138,-0.12106
6624.28984,-0.09465
6626.21831,-0.01462
6628.14678,0.04523
6630.07525,0.01065
6632.00372,0.00730
6633.93219,0.07097
6635.86066,0.06567
6637.78912,0.03310
6639.71759,0.07712
6641.64606,0.11332
6643.57453,0.06191
6645.50300,0.00782
6647.43147,0.05356
6649.35994,0.10890
6651.28841,0.09044
6653.21687,0.04748
6655.14534,0.02268
6657.07381,0.03977
6659.00228,0.01470
6660.93075,-0.04313
6662.85922,0.01459
6664.78769,0.08837
6666.71615,0.10316
6668.64462,0.15005
6670.57309,0.16983
6672.50156,0.10218
6674.43003,0.04626
6676.35850,0.05154
6678.28697,0.07682
6680.21544,0.09855
6682.14390,0.07653
6684.07237,0.00103
6686.00084,-0.05861
6687.92931,-0.04576
6689.85778,0.01296
6691.78625,0.07514
6693.71472,0.13638
6695.64318,0.17934
6697.57165,0.18374
6699.50012,0.13432
6701.42859,0.07868
6703.35706,0.07955
6705.28553,0.06083
6707.21400,0.04308
6709.14247,0.11710
6711.07093,0.16178
6712.99940,0.11609
6714.92787,0.04189
6716.85634,0.00970
6718.78481,0.05465
6720.71328,0.10991
6722.64175,0.14243
6724.57021,0.16186
6726.49868,0.13019
6728.42715,0.05614
6730.35562,-0.01342
6732.28409,-0.04911
6734.21256,-0.06815
6736.14103,-0.01735
6738.06950,0.13494
6739.99796,0.24511
6741.92643,0.18726
6743.85490,0.02222
6745.78337,-0.10039
6747.71184,-0.11368
6749.64031,-0.06572
6751.56878,-0.03706
6753.49724,-0.07855
6755.42571,-0.14717
6757.35418,-0.15536
6759.28265,-0.08212
6761.21112,0.01888
6763.13959,0.05337
6765.06806,0.06567
6766.99653,0.10486
6768.92499,0.11542
6770.85346,0.10951
6772.78193,0.11244
6774.71040,0.04329
6776.63887,-0.07086
6778.56734,-0.12685
6780.49581,-0.15181
6782.42427,-0.10680
6784.35274,0.01143
6786.28121,0.11072
6788.20968,0.19732
6790.13815,0.27689
6792.06662,0.28726
6793.99509,0.24908
6795.92355,0.18558
6797.85202,0.07979
6799.78049,-0.01871
6801.70896,-0.08457
6803.63743,-0.07580
6805.56590,0.05037
6807.49437,0.16902
6809.42284,0.19011
6811.35130,0.10014
6813.27977,-0.06610
6815.20824,-0.19920
6817.13671,-0.25643
6819.06518,-0.22034
6820.99365,-0.06697
6822.92212,0.14806
6824.85058,0.22639
6826.77905,0.13926
6828.70752,-0.00367
6830.63599,-0.08225
6832.56446,-0.01993
6834.49293,0.12761
6836.42140,0.19004
6838.34987,0.07061
6840.27833,-0.05710
6842.20680,-0.04492
6844.13527,0.06234
6846.06374,0.15901
6847.99221,0.16203
6849.92068,0.09317
6851.84915,0.05945
6853.77761,0.05487
6855.70608,0.06921
6857.63455,0.08828
6859.56302,0.05849
6861.49149,-0.01571
6863.41996,-0.03830
6865.34843,0.06511
6867.27690,0.17829
6869.20536,0.18015
6871.13383,0.15525
6873.06230,0.12534
6874.99077,0.09345
6876.91924,0.15499
6878.84771,0.25851
6880.77618,0.30044
6882.70464,0.28456
6884.63311,0.21868
6886.56158,0.17485
6888.49005,0.19856
6890.41852,0.22669
6892.34699,0.21656
6894.27546,0.16610
6896.20393,0.08139
6898.13239,-0.03123
6900.06086,-0.13717
6901.98933,-0.18425
6903.91780,-0.14042
6905.84627,-0.07434
6907.77474,-0.04793
6909.70321,0.00225
6911.63167,0.07084
6913.56014,0.09147
6915.48861,0.09644
6917.41708,0.13299
6919.34555,0.15129
6921.27402,0.14947
6923.20249,0.13183
6925.13096,0.08326
6927.05942,0.08023
6928.98789,0.12767
6930.91636,0.12578
6932.84483,0.02946
6934.77330,-0.06112
6936.70177,-0.06745
6938.63024,0.01552
6940.55870,0.15271
6942.48717,0.16589
6944.41564,0.06534
6946.34411,0.03907
6948.27258,0.05007
6950.20105,-0.02487
6952.12952,-0.10294
6954.05799,-0.07934
6955.98645,0.03696
6957.91492,0.10591
6959.84339,0.06992
6961.77186,0.03847
6963.70033,0.10190
6965.62880,0.18811
6967.55727,0.19763
6969.48573,0.20727
6971.41420,0.28120
6973.34267,0.27396
6975.27114,0.14460
6977.19961,0.04870
6979.12808,0.02664
6981.05655,-0.05491
6982.98501,-0.24208
6984.91348,-0.33218
6986.84195,-0.20165
6988.77042,0.01183
6990.69889,0.10890
6992.62736,0.08534
6994.55583,0.07176
6996.48430,0.07323
6998.41276,0.02448
7000.34123,-0.01815
7002.26970,-0.01129
7004.19817,0.01089
7006.12664,0.05574
7008.05511,0.11367
7009.98358,0.11079
7011.91204,0.03777
7013.84051,-0.01977
7015.76898,-0.08104
7017.69745,-0.19049
7019.62592,-0.20428
7021.55439,-0.13573
7023.48286,-0.09789
7025.41133,-0.07434
7027.33979,-0.03570
7029.26826,0.07119
7031.19673,0.14241
7033.12520,0.09653
7035.05367,0.03455
7036.98214,0.00103
7038.91061,-0.01396
7040.83907,0.00769
7042.76754,0.05431
7044.69601,0.10829
7046.62448,0.12292
7048.55295,0.03793
7050.48142,-0.03573
7052.40989,-0.03718
7054.33836,0.01795
7056.26682,0.11851
7058.19529,0.13206
7060.12376,0.08058
7062.05223,0.12158
7063.98070,0.13876
7065.90917,-0.03353
7067.83764,-0.24771
7069.76610,-0.23402
7071.69457,0.02676
7073.62304,0.20226
7075.55151,0.14872
7077.47998,-0.00108
7079.40845,-0.08687
7081.33692,-0.01291
7083.26539,0.09074
7085.19385,0.12432
7087.12232,0.14695
7089.05079,0.13204
7090.97926,0.04090
7092.90773,-0.00177
7094.83620,0.10853
7096.76467,0.18234
7098.69313,0.07941
7100.62160,0.05112
7102.55007,0.19549
7104.47854,0.31674
7106.40701,0.24132
7108.33548,0.05422
7110.26395,-0.02584
7112.19242,-0.03042
7114.12088,-0.06051
7116.04935,-0.08252
7117.97782,-0.10956
7119.90629,-0.06562
7121.83476,0.09690
7123.76323,0.15821
7125.69170,0.07774
7127.62016,-0.00098
7129.54863,-0.03924
7131.47710,-0.02965
7133.40557,-0.01571
7135.33404,-0.05666
7137.26251,-0.10410
7139.19098,-0.04620
7141.11944,0.19705
7143.04791,0.36615
7144.97638,0.19379
7146.90485,0.03116
7148.83332,0.11049
7150.76179,0.16928
7152.69026,0.13417
7154.61873,0.08995
7156.54719,0.01534
7158.47566,-0.07865
7160.40413,-0.15746
7162.33260,-0.25455
7164.26107,-0.26823
7166.18954,-0.10828
7168.11801,0.06148
7170.04647,0.11192
7171.97494,0.12941
7173.90341,0.27085
7175.83188,0.46810
7177.76035,0.46964
7179.68882,0.32138
7181.61729,0.21502
7183.54576,0.10548
7185.47422,-0.08330
7187.40269,-0.22001
7189.33116,-0.17290
7191.25963,0.02365
7193.18810,0.09084
7195.11657,-0.08101
7197.04504,-0.21901
7198.97350,-0.03757
7200.90197,0.30236
7202.83044,0.47003
7204.75891,0.41589
7206.68738,0.37356
7208.61585,0.28947
7210.54432,0.11632
7212.47279,0.04939
7214.40125,0.12544
7216.32972,0.13165
7218.25819,0.05107
7220.18666,0.07969
7222.11513,0.04172
7224.04360,-0.08998
7225.97207,-0.07225
7227.90053,0.11331
7229.82900,0.20072
7231.75747,0.12214
7233.68594,0.14687
7235.61441,0.32075
7237.54288,0.37360
7239.47135,0.23773
7241.39982,0.18800
7243.32828,0.28293
7245.25675,0.24613
7247.18522,0.06383
7249.11369,-0.06716
7251.04216,0.06303
7252.97063,0.46253
7254.89910,0.60588
7256.82756,0.41280
7258.75603,0.24726
7260.68450,0.21058
7262.61297,0.09690
7264.54144,-0.02726
7266.46991,0.04603
7268.39838,0.15083
7270.32685,0.17386
7272.25531,0.13705
7274.18378,0.12810
7276.11225,0.19204
7278.04072,0.22198
7279.96919,0.15855
7281.89766,0.10664
7283.82613,0.03533
7285.75459,0.00932
7287.68306,0.14572
7289.61153,0.21458
7291.54000,0.01151
7293.46847,-0.19999
7295.39694,-0.19636
7297.32541,-0.14214
7299.25387,-0.14816
7301.18234,-0.15567
7303.11081,-0.16220
7305.03928,-0.14381
7306.96775,-0.03456
7308.89622,0.05759
7310.82469,-0.08242
7312.75316,-0.21825
7314.68162,-0.07116
7316.61009,0.21123
7318.53856,0.18849
7320.46703,-0.01167
7322.39550,0.03009
7324.32397,0.24855
7326.25244,0.25826
7328.18090,0.10756
7330.10937,0.02893
7332.03784,-0.00179
7333.96631,-0.01302
7335.89478,0.02811
7337.82325,0.03444
7339.75172,-0.00767
7341.68019,0.00992
7343.60865,-0.02723
7345.53712,-0.16718
7347.46559,-0.21301
7349.39406,0.01018
7351.32253,0.28380
7353.25100,0.31932
7355.17947,0.19548
7357.10793,0.04974
7359.03640,-0.06770
7360.96487,-0.08077
7362.89334,0.07188
7364.82181,0.23864
7366.75028,0.26755
7368.67875,0.22891
7370.60722,0.16382
7372.53568,0.11290
7374.46415,0.15985
7376.39262,0.13284
7378.32109,-0.08269
7380.24956,-0.28331
7382.17803,-0.34490
7384.10650,-0.30778
7386.03496,-0.25895
7387.96343,-0.20343
7389.89190,-0.11239
7391.82037,-0.06953
7393.74884,-0.01696
7395.67731,0.12634
7397.60578,0.20640
7399.53425,0.21751
7401.46271,0.28699
7403.39118,0.43418
7405.31965,0.43139
7407.24812,0.16206
7409.17659,-0.04076
7411.10506,-0.00289
7413.03353,0.05038
7414.96199,-0.00690
7416.89046,-0.08030
7418.81893,-0.19784
7420.74740,-0.29834
7422.67587,-0.19429
7424.60434,-0.10489
7426.53281,-0.09017
7428.46128,0.01678
7430.38974,0.18101
7432.31821,0.35236
7434.24668,0.53983
7436.17515,0.53256
7438.10362,0.31487
7440.03209,0.07857
7441.96056,-0.02770
7443.88902,-0.02625
7445.81749,-0.01540
7447.74596,-0.02454
7449.67443,-0.13118
7451.60290,-0.21271
7453.53137,-0.06969
7455.45984,0.01727
7457.38831,-0.05852
7459.31677,-0.01865
7461.24524,0.28770
7463.17371,0.38830
7465.10218,0.00578
7467.03065,-0.40691
7468.95912,-0.43184
7470.88759,-0.20688
7472.81605,0.02990
7474.74452,0.14736
7476.67299,0.25348
7478.60146,0.40917
7480.52993,0.48648
7482.45840,0.44606
7484.38687,0.29301
7486.31533,0.08730
7488.24380,-0.01441
7490.17227,0.09031
7492.10074,0.24176
7494.02921,0.20115
7495.95768,0.11609
7497.88615,0.22751
