399.19301,1.09484
401.12148,0.19431
403.04995,0.15212
404.97842,-0.01453
406.90689,-0.14581
408.83536,-0.20810
410.76382,-0.25616
412.69229,-0.22321
414.62076,-0.06025
416.54923,0.14239
418.47770,0.26294
420.40617,0.23259
422.33464,0.20329
424.26311,0.15501
426.19157,0.06090
428.12004,0.00549
430.04851,-0.03716
431.97698,-0.10810
433.90545,-0.12228
435.83392,-0.07369
437.76239,-0.02680
439.69085,0.02826
441.61932,0.10947
443.54779,0.15301
445.47626,0.10309
447.40473,-0.00282
449.33320,-0.09773
451.26167,-0.10489
453.19013,-0.04032
455.11860,0.01087
457.04707,0.00894
458.97554,-0.01929
460.90401,-0.01621
462.83248,0.01002
464.76095,0.05558
466.68942,0.09745
468.61788,0.11840
470.54635,0.14892
472.47482,0.19917
474.40329,0.22930
476.33176,0.19055
478.26023,0.15252
480.18870,0.11681
482.11716,0.07026
484.04563,0.02518
485.97410,-0.00685
487.90257,-0.01839
489.83104,-0.03110
491.75951,-0.05486
493.68798,-0.05708
495.61645,-0.00847
497.54491,0.04182
499.47338,0.05474
501.40185,0.05547
503.33032,0.03827
505.25879,-0.01113
507.18726,-0.03402
509.11573,-0.00371
511.04419,0.01024
512.97266,0.00946
514.90113,0.03202
516.82960,0.06537
518.75807,0.06734
520.68654,0.05621
522.61501,0.06403
524.54348,0.08193
526.47194,0.09938
528.40041,0.10325
530.32888,0.08836
532.25735,0.05929
534.18582,0.03198
536.11429,0.01838
538.04276,0.02961
539.97122,0.05022
541.89969,0.07327
543.82816,0.10427
545.75663,0.10652
547.68510,0.07849
549.61357,0.07053
551.54204,0.10244
553.47051,0.11126
555.39897,0.07122
557.32744,0.04112
559.25591,0.04459
561.18438,0.05205
563.11285,0.05657
565.04132,0.07353
566.96979,0.09039
568.89825,0.10811
570.82672,0.13361
572.75519,0.13543
574.68366,0.10905
576.61213,0.09571
578.54060,0.09821
580.46907,0.09748
582.39754,0.09776
584.32600,0.09908
586.25447,0.09584
588.18294,0.07864
590.11141,0.06951
592.03988,0.08414
593.96835,0.07620
595.89682,0.03799
597.82528,0.02708
599.75375,0.06009
601.68222,0.08278
603.61069,0.07424
605.53916,0.07663
607.46763,0.09164
609.39610,0.08863
611.32456,0.08149
613.25303,0.08272
615.18150,0.07350
617.10997,0.06206
619.03844,0.06075
620.96691,0.05296
622.89538,0.04418
624.82385,0.05635
626.75231,0.07960
628.68078,0.09262
630.60925,0.09363
632.53772,0.09638
634.46619,0.10147
636.39466,0.09347
638.32313,0.08015
640.25159,0.07247
642.18006,0.06149
644.10853,0.04863
646.03700,0.04727
647.96547,0.05420
649.89394,0.05614
651.82241,0.05603
653.75088,0.06466
655.67934,0.08129
657.60781,0.09008
659.53628,0.08456
661.46475,0.08277
663.39322,0.08936
665.32169,0.09355
667.25016,0.09786
669.17862,0.09869
671.10709,0.08701
673.03556,0.08369
674.96403,0.09292
676.89250,0.09883
678.82097,0.09528
680.74944,0.08430
682.67791,0.07863
684.60637,0.08817
686.53484,0.09702
688.46331,0.09914
690.39178,0.09647
692.32025,0.08497
694.24872,0.07575
696.17719,0.07944
698.10565,0.08679
700.03412,0.09032
701.96259,0.09009
703.89106,0.08530
705.81953,0.08752
707.74800,0.10547
709.67647,0.12419
711.60494,0.12033
713.53340,0.09498
715.46187,0.07510
717.39034,0.07538
719.31881,0.08802
721.24728,0.09992
723.17575,0.10016
725.10422,0.09248
727.03268,0.09510
728.96115,0.10401
730.88962,0.10056
732.81809,0.08850
734.74656,0.08436
736.67503,0.09279
738.60350,0.10158
740.53197,0.09765
742.46043,0.08430
744.38890,0.07830
746.31737,0.08535
748.24584,0.09410
750.17431,0.09568
752.10278,0.09304
754.03125,0.08976
755.95971,0.08799
757.88818,0.08903
759.81665,0.08664
761.74512,0.08208
763.67359,0.08110
765.60206,0.08605
767.53053,0.09259
769.45900,0.09352
771.38746,0.09204
773.31593,0.08968
775.24440,0.08404
777.17287,0.07796
779.10134,0.08021
781.02981,0.09346
782.95828,0.10289
784.88674,0.09599
786.81521,0.08327
788.74368,0.08114
790.67215,0.09115
792.60062,0.10299
794.52909,0.10549
796.45756,0.10237
798.38602,0.10228
800.31449,0.10186
802.24296,0.09618
804.17143,0.09022
806.09990,0.09373
808.02837,0.10622
809.95684,0.11053
811.88531,0.10032
813.81377,0.09208
815.74224,0.09182
817.67071,0.09322
819.59918,0.09155
821.52765,0.08756
823.45612,0.08933
825.38459,0.09411
827.31305,0.09348
829.24152,0.09335
831.16999,0.09843
833.09846,0.09778
835.02693,0.09047
836.95540,0.08993
838.88387,0.09699
840.81234,0.10135
842.74080,0.10068
844.66927,0.10593
846.59774,0.11964
848.52621,0.12755
850.45468,0.11982
852.38315,0.10366
854.31162,0.09493
856.24008,0.10078
858.16855,0.11027
860.09702,0.11022
862.02549,0.10408
863.95396,0.09864
865.88243,0.09845
867.81090,0.10964
869.73937,0.12495
871.66783,0.12783
873.59630,0.11725
875.52477,0.10998
877.45324,0.11120
879.38171,0.11089
881.31018,0.10948
883.23865,0.11173
885.16711,0.11660
887.09558,0.12286
889.02405,0.12629
890.95252,0.12267
892.88099,0.11583
894.80946,0.11223
896.73793,0.11485
898.66640,0.11776
900.59486,0.11168
902.52333,0.10373
904.45180,0.10347
906.38027,0.10531
908.30874,0.10747
910.23721,0.11581
912.16568,0.12598
914.09414,0.12758
916.02261,0.12179
917.95108,0.11375
919.87955,0.10626
921.80802,0.10291
923.73649,0.10270
925.66496,0.10507
927.59343,0.11222
929.52189,0.11792
931.45036,0.11521
933.37883,0.11019
935.30730,0.10941
937.23577,0.11210
939.16424,0.11583
941.09271,0.11694
943.02117,0.11346
944.94964,0.10960
946.87811,0.10898
948.80658,0.10884
950.73505,0.10941
952.66352,0.11379
954.59199,0.11892
956.52045,0.11885
958.44892,0.11453
960.37739,0.10957
962.30586,0.10733
964.23433,0.11295
966.16280,0.12217
968.09127,0.12617
970.01974,0.12287
971.94820,0.11769
973.87667,0.11795
975.80514,0.12084
977.73361,0.12428
979.66208,0.13149
981.59055,0.13663
983.51902,0.13396
985.44748,0.12819
987.37595,0.12456
989.30442,0.12451
991.23289,0.12647
993.16136,0.12780
995.08983,0.12830
997.01830,0.12901
998.94677,0.13005
1000.87523,0.12873
1002.80370,0.12284
1004.73217,0.11472
1006.66064,0.11041
1008.58911,0.11288
1010.51758,0.11848
1012.44605,0.12225
1014.37451,0.11999
1016.30298,0.11554
1018.23145,0.11470
1020.15992,0.11292
1022.08839,0.10837
1024.01686,0.10655
1025.94533,0.10999
1027.87380,0.11697
1029.80226,0.12285
1031.73073,0.12324
1033.65920,0.12132
1035.58767,0.11884
1037.51614,0.11306
1039.44461,0.10925
1041.37308,0.11184
1043.30154,0.12062
1045.23001,0.12994
1047.15848,0.13035
1049.08695,0.12546
1051.01542,0.12581
1052.94389,0.13210
1054.87236,0.13537
1056.80083,0.13111
1058.72929,0.12615
1060.65776,0.12672
1062.58623,0.12835
1064.51470,0.12569
1066.44317,0.12377
1068.37164,0.12837
1070.30011,0.13570
1072.22857,0.13757
1074.15704,0.13543
1076.08551,0.13490
1078.01398,0.13283
1079.94245,0.13003
1081.87092,0.13165
1083.79939,0.13297
1085.72786,0.13120
1087.65632,0.13105
1089.58479,0.13271
1091.51326,0.13275
1093.44173,0.12818
1095.37020,0.12241
1097.29867,0.12276
1099.22714,0.12815
1101.15560,0.13065
1103.08407,0.12527
1105.01254,0.12036
1106.94101,0.12710
1108.86948,0.13838
1110.79795,0.13978
1112.72642,0.13375
1114.65489,0.13273
1116.58335,0.13551
1118.51182,0.13312
1120.44029,0.13148
1122.36876,0.13758
1124.29723,0.14088
1126.22570,0.13497
1128.15417,0.12783
1130.08263,0.12363
1132.01110,0.12079
1133.93957,0.11948
1135.86804,0.12062
1137.79651,0.12624
1139.72498,0.13308
1141.65345,0.13326
1143.58191,0.12829
1145.51038,0.12628
1147.43885,0.12980
1149.36732,0.13363
1151.29579,0.13370
1153.22426,0.13336
1155.15273,0.13529
1157.08120,0.13669
1159.00966,0.13629
1160.93813,0.13717
1162.86660,0.13838
1164.79507,0.13677
1166.72354,0.13492
1168.65201,0.13436
1170.58048,0.13361
1172.50894,0.13478
1174.43741,0.13874
1176.36588,0.14112
1178.29435,0.14021
1180.22282,0.13840
1182.15129,0.13886
1184.07976,0.14382
1186.00823,0.14742
1187.93669,0.14319
1189.86516,0.13681
1191.79363,0.13486
1193.72210,0.13556
1195.65057,0.13588
1197.57904,0.13540
1199.50751,0.13513
1201.43597,0.13595
1203.36444,0.13746
1205.29291,0.14038
1207.22138,0.14243
1209.14985,0.13839
1211.07832,0.13407
1213.00679,0.13767
1214.93526,0.14407
1216.86372,0.14625
1218.79219,0.14506
1220.72066,0.14497
1222.64913,0.14782
1224.57760,0.15037
1226.50607,0.15020
1228.43454,0.14967
1230.36300,0.15067
1232.29147,0.15095
1234.21994,0.14877
1236.14841,0.14674
1238.07688,0.14636
1240.00535,0.14612
1241.93382,0.14638
1243.86229,0.14916
1245.79075,0.15247
1247.71922,0.15090
1249.64769,0.14568
1251.57616,0.14419
1253.50463,0.14706
1255.43310,0.14783
1257.36157,0.14578
1259.29003,0.14406
1261.21850,0.14268
1263.14697,0.14326
1265.07544,0.14639
1267.00391,0.15100
1268.93238,0.15487
1270.86085,0.15413
1272.78932,0.15089
1274.71778,0.14854
1276.64625,0.14751
1278.57472,0.14923
1280.50319,0.15202
1282.43166,0.15190
1284.36013,0.14851
1286.28860,0.14448
1288.21706,0.14400
1290.14553,0.14727
1292.07400,0.15006
1294.00247,0.15200
1295.93094,0.15448
1297.85941,0.15541
1299.78788,0.15437
1301.71634,0.15283
1303.64481,0.14961
1305.57328,0.14600
1307.50175,0.14543
1309.43022,0.14798
1311.35869,0.15229
1313.28716,0.15519
1315.21563,0.15378
1317.14409,0.15194
1319.07256,0.15388
1321.00103,0.15758
1322.92950,0.15990
1324.85797,0.15867
1326.78644,0.15650
1328.71491,0.15768
1330.64337,0.15847
1332.57184,0.15486
1334.50031,0.15168
1336.42878,0.15465
1338.35725,0.16169
1340.28572,0.16270
1342.21419,0.15115
1344.14266,0.14084
1346.07112,0.14377
1347.99959,0.14971
1349.92806,0.15010
1351.85653,0.14946
1353.78500,0.15093
1355.71347,0.15489
1357.64194,0.15865
1359.57040,0.16181
1361.49887,0.16567
1363.42734,0.16453
1365.35581,0.15906
1367.28428,0.15768
1369.21275,0.15942
1371.14122,0.16090
1373.06969,0.16414
1374.99815,0.16596
1376.92662,0.16283
1378.85509,0.16008
1380.78356,0.15822
1382.71203,0.15633
1384.64050,0.15949
1386.56897,0.16712
1388.49743,0.16881
1390.42590,0.16509
1392.35437,0.16476
1394.28284,0.16893
1396.21131,0.17314
1398.13978,0.17286
1400.06825,0.16819
1401.99672,0.16455
1403.92518,0.16516
1405.85365,0.16610
1407.78212,0.16384
1409.71059,0.16206
1411.63906,0.16377
1413.56753,0.16836
1415.49600,0.17330
1417.42446,0.17667
1419.35293,0.17574
1421.28140,0.17261
1423.20987,0.17063
1425.13834,0.16551
1427.06681,0.16065
1428.99528,0.16224
1430.92375,0.16601
1432.85221,0.16851
1434.78068,0.17348
1436.70915,0.17904
1438.63762,0.17746
1440.56609,0.17167
1442.49456,0.16606
1444.42303,0.16374
1446.35149,0.16676
1448.27996,0.17161
1450.20843,0.17363
1452.13690,0.17549
1454.06537,0.18229
1455.99384,0.19880
1457.92231,0.20899
1459.85077,0.19543
1461.77924,0.18316
1463.70771,0.17619
1465.63618,0.17122
1467.56465,0.17032
1469.49312,0.17497
1471.42159,0.18132
1473.35006,0.18127
1475.27852,0.17755
1477.20699,0.17466
1479.13546,0.17237
1481.06393,0.17171
1482.99240,0.17153
1484.92087,0.17406
1486.84934,0.18234
1488.77780,0.19108
1490.70627,0.18806
1492.63474,0.17854
1494.56321,0.17360
1496.49168,0.17493
1498.42015,0.18165
1500.34862,0.18911
1502.27709,0.19326
1504.20555,0.19645
1506.13402,0.20358
1508.06249,0.20417
1509.99096,0.19440
1511.91943,0.18647
1513.84790,0.18381
1515.77637,0.18838
1517.70483,0.19678
1519.63330,0.20392
1521.56177,0.20671
1523.49024,0.20249
1525.41871,0.19604
1527.34718,0.18592
1529.27565,0.17838
1531.20412,0.18087
1533.13258,0.18625
1535.06105,0.18542
1536.98952,0.18813
1538.91799,0.20238
1540.84646,0.21617
1542.77493,0.21146
1544.70340,0.20020
1546.63186,0.18893
1548.56033,0.18302
1550.48880,0.18179
1552.41727,0.18291
1554.34574,0.18740
1556.27421,0.20018
1558.20268,0.22408
1560.13115,0.21481
1562.05961,0.19135
1563.98808,0.18304
1565.91655,0.18329
1567.84502,0.18810
1569.77349,0.18938
1571.70196,0.18512
1573.63043,0.18654
1575.55889,0.19163
1577.48736,0.18797
1579.41583,0.18071
1581.34430,0.17726
1583.27277,0.17584
1585.20124,0.17434
1587.12971,0.17279
1589.05818,0.17269
1590.98664,0.17370
1592.91511,0.17520
1594.84358,0.17670
1596.77205,0.17576
1598.70052,0.17268
1600.62899,0.17149
1602.55746,0.17407
1604.48592,0.17688
1606.41439,0.17843
1608.34286,0.18013
1610.27133,0.18003
1612.19980,0.17832
1614.12827,0.18001
1616.05674,0.18547
1617.98521,0.18575
1619.91367,0.18460
1621.84214,0.18791
1623.77061,0.18828
1625.69908,0.18380
1627.62755,0.18239
1629.55602,0.18446
1631.48449,0.18778
1633.41295,0.19327
1635.34142,0.20120
1637.26989,0.19935
1639.19836,0.18964
1641.12683,0.18526
1643.05530,0.18972
1644.98377,0.20346
1646.91223,0.21593
1648.84070,0.21177
1650.76917,0.21345
1652.69764,0.22848
1654.62611,0.21766
1656.55458,0.19738
1658.48305,0.19342
1660.41152,0.19839
1662.33998,0.19742
1664.26845,0.19013
1666.19692,0.19140
1668.12539,0.20044
1670.05386,0.20334
1671.98233,0.19707
1673.91080,0.19263
1675.83926,0.18732
1677.76773,0.18433
1679.69620,0.18919
1681.62467,0.19917
1683.55314,0.20883
1685.48161,0.20546
1687.41008,0.19487
1689.33855,0.18715
1691.26701,0.18481
1693.19548,0.18961
1695.12395,0.20052
1697.05242,0.20967
1698.98089,0.21076
1700.90936,0.20604
1702.83783,0.20045
1704.76629,0.19698
1706.69476,0.19139
1708.62323,0.18467
1710.55170,0.18268
1712.48017,0.18801
1714.40864,0.20175
1716.33711,0.21629
1718.26558,0.20833
1720.19404,0.19016
1722.12251,0.18211
1724.05098,0.17906
1725.97945,0.17610
1727.90792,0.17711
1729.83639,0.18354
1731.76486,0.19123
1733.69332,0.19476
1735.62179,0.19074
1737.55026,0.18740
1739.47873,0.18690
1741.40720,0.18693
1743.33567,0.18707
1745.26414,0.18941
1747.19261,0.19513
1749.12107,0.19959
1751.04954,0.19494
1752.97801,0.18767
1754.90648,0.18715
1756.83495,0.18933
1758.76342,0.18835
1760.69189,0.18657
1762.62035,0.18371
1764.54882,0.18158
1766.47729,0.18457
1768.40576,0.18982
1770.33423,0.19469
1772.26270,0.19659
1774.19117,0.19043
1776.11964,0.18419
1778.04810,0.18285
1779.97657,0.18322
1781.90504,0.18294
1783.83351,0.18241
1785.76198,0.18011
1787.69045,0.17762
1789.61892,0.17993
1791.54738,0.18649
1793.47585,0.18883
1795.40432,0.18722
1797.33279,0.18828
1799.26126,0.19063
1801.18973,0.18852
1803.11820,0.18200
1805.04666,0.17837
1806.97513,0.18019
1808.90360,0.18316
1810.83207,0.18231
1812.76054,0.17814
1814.68901,0.17653
1816.61748,0.17890
1818.54595,0.17917
1820.47441,0.17619
1822.40288,0.17793
1824.33135,0.18436
1826.25982,0.18625
1828.18829,0.18439
1830.11676,0.18463
1832.04523,0.18590
1833.97369,0.18513
1835.90216,0.18233
1837.83063,0.18045
1839.75910,0.18179
1841.68757,0.18583
1843.61604,0.18973
1845.54451,0.18724
1847.47298,0.18123
1849.40144,0.17908
1851.32991,0.17912
1853.25838,0.17745
1855.18685,0.17669
1857.11532,0.17915
1859.04379,0.18180
1860.97226,0.18271
1862.90072,0.18387
1864.82919,0.18725
1866.75766,0.19229
1868.68613,0.19454
1870.61460,0.18919
1872.54307,0.18149
1874.47154,0.17713
1876.40001,0.17648
1878.32847,0.17755
1880.25694,0.17909
1882.18541,0.18064
1884.11388,0.18109
1886.04235,0.18090
1887.97082,0.18204
1889.89929,0.18407
1891.82775,0.18441
1893.75622,0.18292
1895.68469,0.18159
1897.61316,0.18132
1899.54163,0.18072
1901.47010,0.17992
1903.39857,0.18208
1905.32704,0.18563
1907.25550,0.18607
1909.18397,0.18445
1911.11244,0.18313
1913.04091,0.18252
1914.96938,0.18326
1916.89785,0.18426
1918.82632,0.18361
1920.75478,0.18330
1922.68325,0.18422
1924.61172,0.18317
1926.54019,0.18073
1928.46866,0.17861
1930.39713,0.17614
1932.32560,0.17467
1934.25407,0.17585
1936.18253,0.17860
1938.11100,0.18081
1940.03947,0.18227
1941.96794,0.18379
1943.89641,0.18342
1945.82488,0.18053
1947.75335,0.17752
1949.68181,0.17604
1951.61028,0.17706
1953.53875,0.17984
1955.46722,0.18202
1957.39569,0.18214
1959.32416,0.18139
1961.25263,0.18208
1963.18110,0.18354
1965.10956,0.18344
1967.03803,0.18141
1968.96650,0.17955
1970.89497,0.18074
1972.82344,0.18353
1974.75191,0.18453
1976.68038,0.18384
1978.60884,0.18251
1980.53731,0.18141
1982.46578,0.18144
1984.39425,0.18293
1986.32272,0.18528
1988.25119,0.18591
1990.17966,0.18361
1992.10812,0.17993
1994.03659,0.17676
1995.96506,0.17610
1997.89353,0.17921
1999.82200,0.18333
2001.75047,0.18447
2003.67894,0.18379
2005.60741,0.18374
2007.53587,0.18254
2009.46434,0.18012
2011.39281,0.17893
2013.32128,0.17862
2015.24975,0.17948
2017.17822,0.18235
2019.10669,0.18432
2021.03515,0.18348
2022.96362,0.18246
2024.89209,0.18223
2026.82056,0.18067
2028.74903,0.17932
2030.67750,0.18005
2032.60597,0.18030
2034.53444,0.17962
2036.46290,0.18087
2038.39137,0.18257
2040.31984,0.18082
2042.24831,0.17729
2044.17678,0.17693
2046.10525,0.17998
2048.03372,0.18251
2049.96218,0.18248
2051.89065,0.18084
2053.81912,0.17902
2055.74759,0.17824
2057.67606,0.17948
2059.60453,0.18228
2061.53300,0.18471
2063.46147,0.18581
2065.38993,0.18591
2067.31840,0.18544
2069.24687,0.18519
2071.17534,0.18477
2073.10381,0.18314
2075.03228,0.18183
2076.96075,0.18217
2078.88921,0.18380
2080.81768,0.18547
2082.74615,0.18601
2084.67462,0.18637
2086.60309,0.18615
2088.53156,0.18398
2090.46003,0.18224
2092.38850,0.18314
2094.31696,0.18550
2096.24543,0.18631
2098.17390,0.18491
2100.10237,0.18451
2102.03084,0.18509
2103.95931,0.18529
2105.88778,0.18577
2107.81624,0.18512
2109.74471,0.18331
2111.67318,0.18278
2113.60165,0.18488
2115.53012,0.18736
2117.45859,0.18602
2119.38706,0.18288
2121.31553,0.18237
2123.24399,0.18269
2125.17246,0.18279
2127.10093,0.18516
2129.02940,0.18775
2130.95787,0.18736
2132.88634,0.18516
2134.81481,0.18370
2136.74327,0.18443
2138.67174,0.18552
2140.60021,0.18433
2142.52868,0.18335
2144.45715,0.18477
2146.38562,0.18610
2148.31409,0.18570
2150.24255,0.18439
2152.17102,0.18446
2154.09949,0.18606
2156.02796,0.18665
2157.95643,0.18622
2159.88490,0.18617
2161.81337,0.18681
2163.74184,0.18736
2165.67030,0.18557
2167.59877,0.18125
2169.52724,0.17945
2171.45571,0.18227
2173.38418,0.18491
2175.31265,0.18573
2177.24112,0.18688
2179.16958,0.18825
2181.09805,0.18804
2183.02652,0.18572
2184.95499,0.18371
2186.88346,0.18382
2188.81193,0.18412
2190.74040,0.18389
2192.66887,0.18498
2194.59733,0.18590
2196.52580,0.18435
2198.45427,0.18313
2200.38274,0.18450
2202.31121,0.18536
2204.23968,0.18420
2206.16815,0.18441
2208.09661,0.18662
2210.02508,0.18751
2211.95355,0.18684
2213.88202,0.18679
2215.81049,0.18814
2217.73896,0.18932
2219.66743,0.18816
2221.59590,0.18604
2223.52436,0.18591
2225.45283,0.18773
2227.38130,0.18894
2229.30977,0.18749
2231.23824,0.18432
2233.16671,0.18363
2235.09518,0.18693
2237.02364,0.18936
2238.95211,0.18816
2240.88058,0.18662
2242.80905,0.18693
2244.73752,0.18688
2246.66599,0.18433
2248.59446,0.18114
2250.52293,0.18057
2252.45139,0.18193
2254.37986,0.18266
2256.30833,0.18360
2258.23680,0.18565
2260.16527,0.18665
2262.09374,0.18566
2264.02221,0.18520
2265.95067,0.18560
2267.87914,0.18527
2269.80761,0.18625
2271.73608,0.18865
2273.66455,0.18983
2275.59302,0.18963
2277.52149,0.18852
2279.44996,0.18686
2281.37842,0.18590
2283.30689,0.18634
2285.23536,0.18790
2287.16383,0.18988
2289.09230,0.19070
2291.02077,0.18884
2292.94924,0.18670
2294.87770,0.18876
2296.80617,0.19279
2298.73464,0.19335
2300.66311,0.19224
2302.59158,0.19400
2304.52005,0.19853
2306.44852,0.20326
2308.37699,0.20574
2310.30545,0.20542
2312.23392,0.20573
2314.16239,0.20691
2316.09086,0.20690
2318.01933,0.20867
2319.94780,0.21088
2321.87627,0.21126
2323.80473,0.21417
2325.73320,0.21813
2327.66167,0.21901
2329.59014,0.21803
2331.51861,0.21727
2333.44708,0.21859
2335.37555,0.22274
2337.30401,0.22408
2339.23248,0.21939
2341.16095,0.21471
2343.08942,0.21348
2345.01789,0.21383
2346.94636,0.21225
2348.87483,0.21108
2350.80330,0.21340
2352.73176,0.22070
2354.66023,0.23510
2356.58870,0.24837
2358.51717,0.24631
2360.44564,0.23888
2362.37411,0.24677
2364.30258,0.26229
2366.23104,0.25884
2368.15951,0.23579
2370.08798,0.21957
2372.01645,0.21960
2373.94492,0.21923
2375.87339,0.21210
2377.80186,0.20693
2379.73033,0.20438
2381.65879,0.20014
2383.58726,0.19483
2385.51573,0.19048
2387.44420,0.18908
2389.37267,0.18937
2391.30114,0.18765
2393.22961,0.18628
2395.15807,0.18756
2397.08654,0.18897
2399.01501,0.18955
2400.94348,0.18884
2402.87195,0.18672
2404.80042,0.18443
2406.72889,0.18334
2408.65736,0.18557
2410.58582,0.18976
2412.51429,0.19116
2414.44276,0.18962
2416.37123,0.18859
2418.29970,0.18936
2420.22817,0.19115
2422.15664,0.19177
2424.08510,0.19003
2426.01357,0.18785
2427.94204,0.18692
2429.87051,0.18718
2431.79898,0.18841
2433.72745,0.18918
2435.65592,0.18873
2437.58439,0.18883
2439.51285,0.18869
2441.44132,0.18572
2443.36979,0.18294
2445.29826,0.18423
2447.22673,0.18515
2449.15520,0.18170
2451.08367,0.17943
2453.01213,0.18291
2454.94060,0.18756
2456.86907,0.18736
2458.79754,0.18451
2460.72601,0.18454
2462.65448,0.18703
2464.58295,0.18925
2466.51142,0.19020
2468.43988,0.18938
2470.36835,0.18836
2472.29682,0.18900
2474.22529,0.19081
2476.15376,0.19377
2478.08223,0.19619
2480.01070,0.19486
2481.93916,0.19102
2483.86763,0.18733
2485.79610,0.18520
2487.72457,0.18577
2489.65304,0.18750
2491.58151,0.18772
2493.50998,0.18678
2495.43844,0.18695
2497.36691,0.18771
2499.29538,0.18738
2501.22385,0.18686
2503.15232,0.18759
2505.08079,0.18930
2507.00926,0.19060
2508.93773,0.19087
2510.86619,0.19031
2512.79466,0.18944
2514.72313,0.18880
2516.65160,0.18874
2518.58007,0.19023
2520.50854,0.19289
2522.43701,0.19430
2524.36547,0.19300
2526.29394,0.19062
2528.22241,0.18953
2530.15088,0.18927
2532.07935,0.18978
2534.00782,0.19119
2535.93629,0.19236
2537.86476,0.19326
2539.79322,0.19193
2541.72169,0.18775
2543.65016,0.18611
2545.57863,0.18886
2547.50710,0.19082
2549.43557,0.19031
2551.36404,0.18893
2553.29250,0.18666
2555.22097,0.18622
2557.14944,0.18845
2559.07791,0.19015
2561.00638,0.19006
2562.93485,0.18854
2564.86332,0.18820
2566.79179,0.19037
2568.72025,0.19227
2570.64872,0.19274
2572.57719,0.19195
2574.50566,0.18987
2576.43413,0.18946
2578.36260,0.19231
2580.29107,0.19537
2582.21953,0.19638
2584.14800,0.19398
2586.07647,0.19050
2588.00494,0.19113
2589.93341,0.19406
2591.86188,0.19408
2593.79035,0.19185
2595.71882,0.19154
2597.64728,0.19445
2599.57575,0.19720
2601.50422,0.19638
2603.43269,0.19299
2605.36116,0.19026
2607.28963,0.19076
2609.21810,0.19396
2611.14656,0.19644
2613.07503,0.19702
2615.00350,0.19647
2616.93197,0.19405
2618.86044,0.18959
2620.78891,0.18620
2622.71738,0.18801
2624.64585,0.19417
2626.57431,0.19944
2628.50278,0.20172
2630.43125,0.20160
2632.35972,0.19989
2634.28819,0.19832
2636.21666,0.19679
2638.14513,0.19592
2640.07359,0.19730
2642.00206,0.19963
2643.93053,0.20037
2645.85900,0.19830
2647.78747,0.19612
2649.71594,0.19684
2651.64441,0.19798
2653.57288,0.19716
2655.50134,0.19746
2657.42981,0.20000
2659.35828,0.20122
2661.28675,0.19993
2663.21522,0.19742
2665.14369,0.19523
2667.07216,0.19535
2669.00062,0.19679
2670.92909,0.19652
2672.85756,0.19396
2674.78603,0.19101
2676.71450,0.18966
2678.64297,0.19007
2680.57144,0.19209
2682.49990,0.19567
2684.42837,0.19858
2686.35684,0.19897
2688.28531,0.19702
2690.21378,0.19454
2692.14225,0.19425
2694.07072,0.19610
2695.99919,0.19830
2697.92765,0.19969
2699.85612,0.19984
2701.78459,0.19918
2703.71306,0.19771
2705.64153,0.19622
2707.57000,0.19594
2709.49847,0.19730
2711.42693,0.19914
2713.35540,0.19845
2715.28387,0.19570
2717.21234,0.19498
2719.14081,0.19545
2721.06928,0.19364
2722.99775,0.19271
2724.92622,0.19493
2726.85468,0.19670
2728.78315,0.19722
2730.71162,0.19788
2732.64009,0.19930
2734.56856,0.20104
2736.49703,0.20188
2738.42550,0.20236
2740.35396,0.20302
2742.28243,0.20277
2744.21090,0.20109
2746.13937,0.20071
2748.06784,0.20297
2749.99631,0.20442
2751.92478,0.20366
2753.85325,0.20160
2755.78171,0.19911
2757.71018,0.19875
2759.63865,0.20104
2761.56712,0.20448
2763.49559,0.20669
2765.42406,0.20591
2767.35253,0.20625
2769.28099,0.20823
2771.20946,0.20748
2773.13793,0.20544
2775.06640,0.20393
2776.99487,0.20154
2778.92334,0.19945
2780.85181,0.20101
2782.78028,0.20496
2784.70874,0.20687
2786.63721,0.20507
2788.56568,0.20159
2790.49415,0.20061
2792.42262,0.20252
2794.35109,0.20609
2796.27956,0.20980
2798.20802,0.20949
2800.13649,0.20648
2802.06496,0.20431
2803.99343,0.20197
2805.92190,0.20041
2807.85037,0.20084
2809.77884,0.20210
2811.70731,0.20399
2813.63577,0.20525
2815.56424,0.20530
2817.49271,0.20610
2819.42118,0.20730
2821.34965,0.20715
2823.27812,0.20571
2825.20659,0.20421
2827.13505,0.20275
2829.06352,0.20112
2830.99199,0.20040
2832.92046,0.20071
2834.84893,0.20182
2836.77740,0.20423
2838.70587,0.20738
2840.63433,0.21013
2842.56280,0.21113
2844.49127,0.20937
2846.41974,0.20714
2848.34821,0.20726
2850.27668,0.20769
2852.20515,0.20658
2854.13362,0.20523
2856.06208,0.20359
2857.99055,0.20213
2859.91902,0.20214
2861.84749,0.20389
2863.77596,0.20754
2865.70443,0.20963
2867.63290,0.20700
2869.56136,0.20411
2871.48983,0.20528
2873.41830,0.20742
2875.34677,0.20733
2877.27524,0.20706
2879.20371,0.20738
2881.13218,0.20669
2883.06065,0.20542
2884.98911,0.20418
2886.91758,0.20305
2888.84605,0.20306
2890.77452,0.20424
2892.70299,0.20483
2894.63146,0.20463
2896.55993,0.20469
2898.48839,0.20470
2900.41686,0.20427
2902.34533,0.20412
2904.27380,0.20412
2906.20227,0.20308
2908.13074,0.20215
2910.05921,0.20257
2911.98768,0.20286
2913.91614,0.20229
2915.84461,0.20325
2917.77308,0.20583
2919.70155,0.20772
2921.63002,0.20937
2923.55849,0.20992
2925.48696,0.21016
2927.41542,0.21095
2929.34389,0.20901
2931.27236,0.20587
2933.20083,0.20461
2935.12930,0.20382
2937.05777,0.20281
2938.98624,0.20417
2940.91471,0.20866
2942.84317,0.21213
2944.77164,0.21167
2946.70011,0.20908
2948.62858,0.20702
2950.55705,0.20564
2952.48552,0.20482
2954.41399,0.20580
2956.34245,0.20836
2958.27092,0.20816
2960.19939,0.20442
2962.12786,0.20336
2964.05633,0.20560
2965.98480,0.20832
2967.91327,0.21125
2969.84174,0.21228
2971.77020,0.21019
2973.69867,0.20732
2975.62714,0.20794
2977.55561,0.21349
2979.48408,0.21846
2981.41255,0.21772
2983.34102,0.21510
2985.26948,0.21453
2987.19795,0.21465
2989.12642,0.21528
2991.05489,0.21438
2992.98336,0.21005
2994.91183,0.20586
2996.84030,0.20543
2998.76877,0.20889
3000.69723,0.21231
3002.62570,0.21117
3004.55417,0.20884
3006.48264,0.21103
3008.41111,0.21437
3010.33958,0.21482
3012.26805,0.21378
3014.19651,0.21209
3016.12498,0.21126
3018.05345,0.21297
3019.98192,0.21417
3021.91039,0.21420
3023.83886,0.21713
3025.76733,0.21860
3027.69579,0.21479
3029.62426,0.21412
3031.55273,0.21837
3033.48120,0.22008
3035.40967,0.21952
3037.33814,0.21909
3039.26661,0.21694
3041.19508,0.21376
3043.12354,0.21157
3045.05201,0.21125
3046.98048,0.21261
3048.90895,0.21278
3050.83742,0.21194
3052.76589,0.21290
3054.69436,0.21367
3056.62282,0.21327
3058.55129,0.21407
3060.47976,0.21459
3062.40823,0.21239
3064.33670,0.20763
3066.26517,0.20359
3068.19364,0.20371
3070.12211,0.20583
3072.05057,0.20742
3073.97904,0.20894
3075.90751,0.21084
3077.83598,0.21407
3079.76445,0.21659
3081.69292,0.21454
3083.62139,0.21174
3085.54985,0.21264
3087.47832,0.21464
3089.40679,0.21671
3091.33526,0.21705
3093.26373,0.21384
3095.19220,0.21126
3097.12067,0.21083
3099.04914,0.21168
3100.97760,0.21404
3102.90607,0.21449
3104.83454,0.21276
3106.76301,0.21415
3108.69148,0.21772
3110.61995,0.21797
3112.54842,0.21548
3114.47688,0.21445
3116.40535,0.21634
3118.33382,0.21866
3120.26229,0.21953
3122.19076,0.21938
3124.11923,0.21649
3126.04770,0.21220
3127.97617,0.21139
3129.90463,0.21272
3131.83310,0.21288
3133.76157,0.21423
3135.69004,0.21745
3137.61851,0.21809
3139.54698,0.21730
3141.47545,0.21907
3143.40391,0.22040
3145.33238,0.21895
3147.26085,0.21744
3149.18932,0.21902
3151.11779,0.22115
3153.04626,0.21758
3154.97473,0.21210
3156.90320,0.21166
3158.83166,0.21497
3160.76013,0.21928
3162.68860,0.22024
3164.61707,0.21469
3166.54554,0.20914
3168.47401,0.21054
3170.40248,0.21461
3172.33094,0.21463
3174.25941,0.21241
3176.18788,0.21360
3178.11635,0.21797
3180.04482,0.21962
3181.97329,0.21801
3183.90176,0.21708
3185.83022,0.21687
3187.75869,0.21701
3189.68716,0.21773
3191.61563,0.21829
3193.54410,0.21996
3195.47257,0.22231
3197.40104,0.22032
3199.32951,0.21447
3201.25797,0.21283
3203.18644,0.21662
3205.11491,0.21977
3207.04338,0.21969
3208.97185,0.21639
3210.90032,0.21163
3212.82879,0.21077
3214.75725,0.21392
3216.68572,0.21432
3218.61419,0.21132
3220.54266,0.21023
3222.47113,0.21052
3224.39960,0.21020
3226.32807,0.21238
3228.25654,0.21669
3230.18500,0.21606
3232.11347,0.20762
3234.04194,0.20132
3235.97041,0.20502
3237.89888,0.20746
3239.82735,0.19995
3241.75582,0.19548
3243.68428,0.20156
3245.61275,0.20744
3247.54122,0.20875
3249.46969,0.20841
3251.39816,0.20618
3253.32663,0.20396
3255.25510,0.20463
3257.18357,0.20696
3259.11203,0.20835
3261.04050,0.21038
3262.96897,0.21269
3264.89744,0.21161
3266.82591,0.20942
3268.75438,0.21068
3270.68285,0.21377
3272.61131,0.21269
3274.53978,0.21109
3276.46825,0.21600
3278.39672,0.21750
3280.32519,0.21035
3282.25366,0.20692
3284.18213,0.21017
3286.11060,0.21175
3288.03906,0.21060
3289.96753,0.21032
3291.89600,0.20914
3293.82447,0.20668
3295.75294,0.20479
3297.68141,0.20253
3299.60988,0.20242
3301.53834,0.20469
3303.46681,0.20543
3305.39528,0.20639
3307.32375,0.20836
3309.25222,0.20835
3311.18069,0.20694
3313.10916,0.20591
3315.03763,0.20573
3316.96609,0.20712
3318.89456,0.21061
3320.82303,0.21443
3322.75150,0.21568
3324.67997,0.21545
3326.60844,0.21495
3328.53691,0.21184
3330.46537,0.20714
3332.39384,0.20575
3334.32231,0.20829
3336.25078,0.21239
3338.17925,0.21804
3340.10772,0.21981
3342.03619,0.21206
3343.96466,0.20191
3345.89312,0.19952
3347.82159,0.20561
3349.75006,0.21205
3351.67853,0.21277
3353.60700,0.21030
3355.53547,0.20987
3357.46394,0.21164
3359.39240,0.21258
3361.32087,0.21428
3363.24934,0.21642
3365.17781,0.21445
3367.10628,0.21128
3369.03475,0.21223
3370.96322,0.21420
3372.89168,0.21189
3374.82015,0.20826
3376.74862,0.20864
3378.67709,0.21086
3380.60556,0.21103
3382.53403,0.21002
3384.46250,0.21158
3386.39097,0.21615
3388.31943,0.21818
3390.24790,0.21688
3392.17637,0.21587
3394.10484,0.21332
3396.03331,0.20977
3397.96178,0.21100
3399.89025,0.21608
3401.81871,0.21645
3403.74718,0.21107
3405.67565,0.20864
3407.60412,0.21138
3409.53259,0.21320
3411.46106,0.21085
3413.38953,0.20697
3415.31800,0.20523
3417.24646,0.20488
3419.17493,0.20324
3421.10340,0.20124
3423.03187,0.20037
3424.96034,0.19967
3426.88881,0.19846
3428.81728,0.19868
3430.74574,0.20271
3432.67421,0.20573
3434.60268,0.20394
3436.53115,0.20209
3438.45962,0.20129
3440.38809,0.20113
3442.31656,0.20257
3444.24503,0.20305
3446.17349,0.20334
3448.10196,0.20468
3450.03043,0.20308
3451.95890,0.19801
3453.88737,0.19197
3455.81584,0.18700
3457.74431,0.18626
3459.67277,0.18964
3461.60124,0.19250
3463.52971,0.19283
3465.45818,0.19406
3467.38665,0.19795
3469.31512,0.20148
3471.24359,0.20178
3473.17206,0.19818
3475.10052,0.19371
3477.02899,0.19122
3478.95746,0.18825
3480.88593,0.18483
3482.81440,0.18525
3484.74287,0.18749
3486.67134,0.18722
3488.59980,0.18539
3490.52827,0.18370
3492.45674,0.18178
3494.38521,0.17953
3496.31368,0.17926
3498.24215,0.18226
3500.17062,0.18669
3502.09909,0.19039
3504.02755,0.18921
3505.95602,0.18470
3507.88449,0.18427
3509.81296,0.18534
3511.74143,0.18197
3513.66990,0.17791
3515.59837,0.17687
3517.52683,0.17873
3519.45530,0.18231
3521.38377,0.18370
3523.31224,0.18046
3525.24071,0.17596
3527.16918,0.17329
3529.09765,0.17111
3531.02611,0.16903
3532.95458,0.16955
3534.88305,0.17278
3536.81152,0.17403
3538.73999,0.17210
3540.66846,0.17211
3542.59693,0.17486
3544.52540,0.17771
3546.45386,0.17873
3548.38233,0.17724
3550.31080,0.17752
3552.23927,0.17916
3554.16774,0.17244
3556.09621,0.15922
3558.02468,0.15338
3559.95314,0.15856
3561.88161,0.16682
3563.81008,0.17215
3565.73855,0.17341
3567.66702,0.16973
3569.59549,0.16295
3571.52396,0.15800
3573.45243,0.15626
3575.38089,0.15633
3577.30936,0.15663
3579.23783,0.15547
3581.16630,0.15416
3583.09477,0.15830
3585.02324,0.16947
3586.95171,0.17876
3588.88017,0.17387
3590.80864,0.16442
3592.73711,0.15994
3594.66558,0.15808
3596.59405,0.15649
3598.52252,0.15501
3600.45099,0.15310
3602.37946,0.15126
3604.30792,0.15111
3606.23639,0.15249
3608.16486,0.15173
3610.09333,0.15069
3612.02180,0.15707
3613.95027,0.16594
3615.87874,0.16793
3617.80720,0.16357
3619.73567,0.15287
3621.66414,0.14280
3623.59261,0.14095
3625.52108,0.14596
3627.44955,0.15520
3629.37802,0.15751
3631.30649,0.15010
3633.23495,0.14553
3635.16342,0.14179
3637.09189,0.13772
3639.02036,0.13685
3640.94883,0.13855
3642.87730,0.13836
3644.80577,0.14071
3646.73423,0.15531
3648.66270,0.17361
3650.59117,0.16616
3652.51964,0.14811
3654.44811,0.13922
3656.37658,0.13980
3658.30505,0.14201
3660.23352,0.14041
3662.16198,0.13759
3664.09045,0.13495
3666.01892,0.13483
3667.94739,0.13999
3669.87586,0.14392
3671.80433,0.14257
3673.73280,0.14641
3675.66126,0.14817
3677.58973,0.13997
3679.51820,0.13602
3681.44667,0.13478
3683.37514,0.13244
3685.30361,0.13281
3687.23208,0.13705
3689.16055,0.13773
3691.08901,0.12863
3693.01748,0.12069
3694.94595,0.12037
3696.87442,0.12486
3698.80289,0.12976
3700.73136,0.13100
3702.65983,0.12759
3704.58829,0.12545
3706.51676,0.12693
3708.44523,0.13212
3710.37370,0.13989
3712.30217,0.14088
3714.23064,0.13631
3716.15911,0.13338
3718.08757,0.13223
3720.01604,0.13489
3721.94451,0.14031
3723.87298,0.14168
3725.80145,0.13921
3727.72992,0.13802
3729.65839,0.13953
3731.58686,0.14513
3733.51532,0.15416
3735.44379,0.15778
3737.37226,0.15031
3739.30073,0.14347
3741.22920,0.14592
3743.15767,0.15647
3745.08614,0.16323
3747.01460,0.15651
3748.94307,0.14654
3750.87154,0.13761
3752.80001,0.13078
3754.72848,0.12757
3756.65695,0.13058
3758.58542,0.13671
3760.51389,0.13597
3762.44235,0.13276
3764.37082,0.13247
3766.29929,0.12989
3768.22776,0.12516
3770.15623,0.12129
3772.08470,0.11949
3774.01317,0.12050
3775.94163,0.12278
3777.87010,0.12747
3779.79857,0.13242
3781.72704,0.13108
3783.65551,0.12862
3785.58398,0.12817
3787.51245,0.12513
3789.44092,0.11997
3791.36938,0.11665
3793.29785,0.11817
3795.22632,0.12354
3797.15479,0.12717
3799.08326,0.12774
3801.01173,0.12683
3802.94020,0.12492
3804.86866,0.12483
3806.79713,0.12256
3808.72560,0.11813
3810.65407,0.11958
3812.58254,0.12621
3814.51101,0.13378
3816.43948,0.13812
3818.36795,0.13921
3820.29641,0.13819
3822.22488,0.13122
3824.15335,0.12633
3826.08182,0.12572
3828.01029,0.12397
3829.93876,0.12249
3831.86723,0.12588
3833.79569,0.13092
3835.72416,0.13160
3837.65263,0.13196
3839.58110,0.13623
3841.50957,0.13429
3843.43804,0.12537
3845.36651,0.11883
3847.29498,0.11673
3849.22344,0.11855
3851.15191,0.12780
3853.08038,0.14109
3855.00885,0.13680
3856.93732,0.12640
3858.86579,0.12099
3860.79426,0.12167
3862.72272,0.12878
3864.65119,0.13123
3866.57966,0.12413
3868.50813,0.11709
3870.43660,0.11249
3872.36507,0.11013
3874.29354,0.11042
3876.22200,0.11362
3878.15047,0.11724
3880.07894,0.11549
3882.00741,0.11148
3883.93588,0.11637
3885.86435,0.12417
3887.79282,0.12404
3889.72129,0.12083
3891.64975,0.11960
3893.57822,0.11997
3895.50669,0.12011
3897.43516,0.12130
3899.36363,0.12535
3901.29210,0.12625
3903.22057,0.11939
3905.14903,0.11367
3907.07750,0.11439
3909.00597,0.11662
3910.93444,0.11587
3912.86291,0.11302
3914.79138,0.11261
3916.71985,0.11524
3918.64832,0.11724
3920.57678,0.11765
3922.50525,0.11784
3924.43372,0.11592
3926.36219,0.11198
3928.29066,0.11043
3930.21913,0.11062
3932.14760,0.10729
3934.07606,0.10291
3936.00453,0.10374
3937.93300,0.10565
3939.86147,0.10545
3941.78994,0.10572
3943.71841,0.10587
3945.64688,0.10690
3947.57535,0.10873
3949.50381,0.10846
3951.43228,0.10856
3953.36075,0.10972
3955.28922,0.10963
3957.21769,0.10819
3959.14616,0.10501
3961.07463,0.10061
3963.00309,0.09810
3964.93156,0.10017
3966.86003,0.10457
3968.78850,0.10627
3970.71697,0.10430
3972.64544,0.10218
3974.57391,0.10212
3976.50238,0.10099
3978.43084,0.09783
3980.35931,0.09882
3982.28778,0.10409
3984.21625,0.10729
3986.14472,0.10769
3988.07319,0.10660
3990.00166,0.10512
3991.93012,0.10477
3993.85859,0.10317
3995.78706,0.09953
3997.71553,0.09780
3999.64400,0.09824
4001.57247,0.09739
4003.50094,0.09522
4005.42941,0.09336
4007.35787,0.09112
4009.28634,0.08906
4011.21481,0.08995
4013.14328,0.09359
4015.07175,0.09692
4017.00022,0.09762
4018.92869,0.09442
4020.85715,0.08984
4022.78562,0.08814
4024.71409,0.08717
4026.64256,0.08620
4028.57103,0.08897
4030.49950,0.09160
4032.42797,0.08885
4034.35644,0.08429
4036.28490,0.08438
4038.21337,0.08834
4040.14184,0.09055
4042.07031,0.09173
4043.99878,0.09633
4045.92725,0.10088
4047.85572,0.09824
4049.78418,0.09264
4051.71265,0.08888
4053.64112,0.08441
4055.56959,0.08242
4057.49806,0.08486
4059.42653,0.08637
4061.35500,0.08479
4063.28346,0.08326
4065.21193,0.08301
4067.14040,0.08233
4069.06887,0.08147
4070.99734,0.08179
4072.92581,0.08189
4074.85428,0.08096
4076.78275,0.08275
4078.71121,0.08748
4080.63968,0.09058
4082.56815,0.08982
4084.49662,0.08578
4086.42509,0.08400
4088.35356,0.08883
4090.28203,0.09478
4092.21049,0.09496
4094.13896,0.08875
4096.06743,0.08161
4097.99590,0.08145
4099.92437,0.08681
4101.85284,0.08865
4103.78131,0.08591
4105.70978,0.08357
4107.63824,0.08125
4109.56671,0.07798
4111.49518,0.07528
4113.42365,0.07243
4115.35212,0.07163
4117.28059,0.07452
4119.20906,0.07679
4121.13752,0.07616
4123.06599,0.07333
4124.99446,0.07066
4126.92293,0.07060
4128.85140,0.07134
4130.77987,0.07086
4132.70834,0.06822
4134.63681,0.06274
4136.56527,0.06044
4138.49374,0.06613
4140.42221,0.07215
4142.35068,0.07158
4144.27915,0.06840
4146.20762,0.06766
4148.13609,0.06823
4150.06455,0.06791
4151.99302,0.06856
4153.92149,0.07139
4155.84996,0.07508
4157.77843,0.07782
4159.70690,0.07616
4161.63537,0.07074
4163.56384,0.06803
4165.49230,0.07008
4167.42077,0.07185
4169.34924,0.07025
4171.27771,0.06780
4173.20618,0.06694
4175.13465,0.06741
4177.06312,0.06739
4178.99158,0.06548
4180.92005,0.06279
4182.84852,0.06088
4184.77699,0.05928
4186.70546,0.05773
4188.63393,0.05687
4190.56240,0.05649
4192.49087,0.05589
4194.41933,0.05427
4196.34780,0.05365
4198.27627,0.05738
4200.20474,0.06097
4202.13321,0.05943
4204.06168,0.05884
4205.99015,0.06222
4207.91861,0.06390
4209.84708,0.06264
4211.77555,0.05881
4213.70402,0.05485
4215.63249,0.05686
4217.56096,0.06105
4219.48943,0.06156
4221.41789,0.06048
4223.34636,0.05747
4225.27483,0.05177
4227.20330,0.04891
4229.13177,0.05132
4231.06024,0.05464
4232.98871,0.05412
4234.91718,0.04859
4236.84564,0.04530
4238.77411,0.05016
4240.70258,0.05741
4242.63105,0.06285
4244.55952,0.06455
4246.48799,0.05843
4248.41646,0.04941
4250.34492,0.04386
4252.27339,0.04349
4254.20186,0.04818
4256.13033,0.04884
4258.05880,0.04350
4259.98727,0.04132
4261.91574,0.04256
4263.84421,0.04211
4265.77267,0.03770
4267.70114,0.03337
4269.62961,0.03669
4271.55808,0.04451
4273.48655,0.04545
4275.41502,0.03784
4277.34349,0.03221
4279.27195,0.03381
4281.20042,0.03843
4283.12889,0.04208
4285.05736,0.04201
4286.98583,0.04112
4288.91430,0.04306
4290.84277,0.04454
4292.77124,0.04788
4294.69970,0.05146
4296.62817,0.04836
4298.55664,0.04547
4300.48511,0.04504
4302.41358,0.04078
4304.34205,0.03507
4306.27052,0.03332
4308.19898,0.03600
4310.12745,0.03750
4312.05592,0.03497
4313.98439,0.03363
4315.91286,0.03503
4317.84133,0.03458
4319.76980,0.03279
4321.69827,0.03166
4323.62673,0.02873
4325.55520,0.02648
4327.48367,0.03062
4329.41214,0.03744
4331.34061,0.03890
4333.26908,0.03493
4335.19755,0.03137
4337.12601,0.03284
4339.05448,0.03444
4340.98295,0.03171
4342.91142,0.03039
4344.83989,0.03151
4346.76836,0.03266
4348.69683,0.03410
4350.62530,0.03305
4352.55376,0.02926
4354.48223,0.02788
4356.41070,0.02940
4358.33917,0.02878
4360.26764,0.02521
4362.19611,0.02073
4364.12458,0.01724
4366.05304,0.01732
4367.98151,0.02076
4369.90998,0.02262
4371.83845,0.02200
4373.76692,0.02311
4375.69539,0.02551
4377.62386,0.02883
4379.55232,0.03119
4381.48079,0.02765
4383.40926,0.02246
4385.33773,0.02161
4387.26620,0.02621
4389.19467,0.03585
4391.12314,0.04254
4393.05161,0.03891
4394.98007,0.03084
4396.90854,0.02703
4398.83701,0.02302
4400.76548,0.01264
4402.69395,0.00594
4404.62242,0.00955
4406.55089,0.01553
4408.47935,0.01907
4410.40782,0.01877
4412.33629,0.01480
4414.26476,0.01093
4416.19323,0.01073
4418.12170,0.01501
4420.05017,0.01858
4421.97864,0.01817
4423.90710,0.01639
4425.83557,0.01519
4427.76404,0.01550
4429.69251,0.01536
4431.62098,0.01445
4433.54945,0.01540
4435.47792,0.01468
4437.40638,0.01354
4439.33485,0.01946
4441.26332,0.02472
4443.19179,0.01763
4445.12026,0.00565
4447.04873,0.00028
4448.97720,0.00257
4450.90567,0.00966
4452.83413,0.01370
4454.76260,0.01107
4456.69107,0.00918
4458.61954,0.00936
4460.54801,0.00708
4462.47648,0.00367
4464.40495,0.00184
4466.33341,0.00198
4468.26188,0.00426
4470.19035,0.00685
4472.11882,0.00584
4474.04729,-0.00002
4475.97576,-0.00533
4477.90423,-0.00020
4479.83270,0.01152
4481.76116,0.01577
4483.68963,0.01347
4485.61810,0.01113
4487.54657,0.00997
4489.47504,0.01393
4491.40351,0.02052
4493.33198,0.01891
4495.26044,0.01167
4497.18891,0.00952
4499.11738,0.01273
4501.04585,0.02017
4502.97432,0.02793
4504.90279,0.02841
4506.83126,0.02366
4508.75973,0.01766
4510.68819,0.00848
4512.61666,-0.00351
4514.54513,-0.01101
4516.47360,-0.00975
4518.40207,-0.00418
4520.33054,0.00027
4522.25901,0.00297
4524.18747,0.00643
4526.11594,0.00888
4528.04441,0.00977
4529.97288,0.01053
4531.90135,0.00677
4533.82982,-0.00008
4535.75829,-0.00198
4537.68676,0.00178
4539.61522,0.00557
4541.54369,0.00322
4543.47216,-0.00699
4545.40063,-0.01585
4547.32910,-0.01172
4549.25757,-0.00439
4551.18604,-0.00866
4553.11450,-0.01733
4555.04297,-0.02134
4556.97144,-0.01610
4558.89991,-0.00153
4560.82838,0.00610
4562.75685,0.00108
4564.68532,-0.00161
4566.61378,0.00261
4568.54225,0.00540
4570.47072,0.00662
4572.39919,0.00731
4574.32766,0.00308
4576.25613,-0.00227
4578.18460,-0.00439
4580.11307,-0.00439
4582.04153,-0.00098
4583.97000,0.00309
4585.89847,0.00224
4587.82694,-0.00215
4589.75541,-0.00336
4591.68388,0.00008
4593.61235,0.00407
4595.54081,0.00680
4597.46928,0.00630
4599.39775,0.00358
4601.32622,0.00286
4603.25469,0.00189
4605.18316,-0.00020
4607.11163,0.00144
4609.04010,0.00242
4610.96856,0.00090
4612.89703,0.00610
4614.82550,0.01483
4616.75397,0.01602
4618.68244,0.00952
4620.61091,0.00275
4622.53938,-0.00219
4624.46784,-0.00612
4626.39631,-0.00464
4628.32478,-0.00017
4630.25325,0.00247
4632.18172,0.00596
4634.11019,0.00570
4636.03866,-0.00277
4637.96713,-0.00749
4639.89559,-0.00215
4641.82406,0.00240
4643.75253,0.00111
4645.68100,0.00204
4647.60947,0.00889
4649.53794,0.01437
4651.46641,0.01488
4653.39487,0.01320
4655.32334,0.00966
4657.25181,0.00537
4659.18028,0.00375
4661.10875,0.00580
4663.03722,0.00641
4664.96569,0.00429
4666.89416,0.00371
4668.82262,0.00318
4670.75109,0.00020
4672.67956,-0.00164
4674.60803,0.00186
4676.53650,0.00661
4678.46497,0.00961
4680.39344,0.01369
4682.32190,0.01480
4684.25037,0.01310
4686.17884,0.01230
4688.10731,0.00663
4690.03578,-0.00240
4691.96425,-0.00586
4693.89272,-0.00149
4695.82119,0.00783
4697.74965,0.01346
4699.67812,0.01141
4701.60659,0.00941
4703.53506,0.00851
4705.46353,0.00508
4707.39200,0.00211
4709.32047,0.00099
4711.24893,-0.00218
4713.17740,-0.00920
4715.10587,-0.01243
4717.03434,-0.00909
4718.96281,-0.00649
4720.89128,-0.00285
4722.81975,0.00472
4724.74821,0.01073
4726.67668,0.00982
4728.60515,0.00185
4730.53362,-0.00538
4732.46209,-0.00169
4734.39056,0.00784
4736.31903,0.01160
4738.24750,0.00666
4740.17596,-0.00298
4742.10443,-0.01303
4744.03290,-0.01763
4745.96137,-0.00865
4747.88984,0.00257
4749.81831,0.00373
4751.74678,0.00218
4753.67524,-0.00029
4755.60371,0.00007
4757.53218,0.00510
4759.46065,0.00659
4761.38912,0.00238
4763.31759,-0.00273
4765.24606,-0.00954
4767.17453,-0.01586
4769.10299,-0.01307
4771.03146,-0.00908
4772.95993,-0.00876
4774.88840,0.00180
4776.81687,0.01741
4778.74534,0.02083
4780.67381,0.01639
4782.60227,0.01051
4784.53074,0.00207
4786.45921,0.00050
4788.38768,0.00620
4790.31615,0.00729
4792.24462,0.00577
4794.17309,0.01177
4796.10156,0.02043
4798.03002,0.02081
4799.95849,0.01438
4801.88696,0.00376
4803.81543,-0.00817
4805.74390,-0.00972
4807.67237,0.00159
4809.60084,0.01256
4811.52930,0.01311
4813.45777,0.00875
4815.38624,0.00430
4817.31471,-0.00187
4819.24318,-0.00506
4821.17165,-0.00229
4823.10012,0.00274
4825.02859,0.00553
4826.95705,0.00813
4828.88552,0.01216
4830.81399,0.00942
4832.74246,0.00136
4834.67093,0.00099
4836.59940,0.00718
4838.52787,0.00830
4840.45633,0.00389
4842.38480,0.00324
4844.31327,0.01016
4846.24174,0.01597
4848.17021,0.01481
4850.09868,0.01065
4852.02715,0.00918
4853.95562,0.01135
4855.88408,0.00943
4857.81255,0.00604
4859.74102,0.00603
4861.66949,0.00607
4863.59796,0.00443
4865.52643,0.00362
4867.45490,0.00779
4869.38336,0.01071
4871.31183,0.00353
4873.24030,-0.00898
4875.16877,-0.01286
4877.09724,-0.01018
4879.02571,-0.01235
4880.95418,-0.01973
4882.88265,-0.02484
4884.81111,-0.02062
4886.73958,-0.00461
4888.66805,0.00818
4890.59652,0.00300
4892.52499,-0.00507
4894.45346,0.00294
4896.38193,0.01802
4898.31039,0.02725
4900.23886,0.02896
4902.16733,0.02129
4904.09580,0.01484
4906.02427,0.01929
4907.95274,0.02149
4909.88121,0.01620
4911.80967,0.01077
4913.73814,0.00381
4915.66661,-0.00613
4917.59508,-0.01113
4919.52355,-0.00989
4921.45202,-0.00996
4923.38049,-0.00976
4925.30896,-0.00242
4927.23742,0.00499
4929.16589,0.00489
4931.09436,0.00706
4933.02283,0.01363
4934.95130,0.01209
4936.87977,0.00761
4938.80824,0.01556
4940.73670,0.02858
4942.66517,0.03234
4944.59364,0.02550
4946.52211,0.01326
4948.45058,-0.00168
4950.37905,-0.01440
4952.30752,-0.01106
4954.23599,0.00222
4956.16445,0.00350
4958.09292,-0.00586
4960.02139,-0.00528
4961.94986,0.01133
4963.87833,0.02097
4965.80680,0.01343
4967.73527,0.00978
4969.66373,0.01554
4971.59220,0.01550
4973.52067,0.00635
4975.44914,-0.00053
4977.37761,-0.00076
4979.30608,-0.00328
4981.23455,-0.01012
4983.16302,-0.01267
4985.09148,-0.00764
4987.01995,-0.00134
4988.94842,-0.00077
4990.87689,-0.00468
4992.80536,-0.00574
4994.73383,0.00061
4996.66230,0.00858
4998.59076,0.00837
5000.51923,-0.00013
5002.44770,-0.01027
5004.37617,-0.01291
5006.30464,-0.00466
5008.23311,0.00879
5010.16158,0.01810
5012.09005,0.01518
5014.01851,0.00322
5015.94698,-0.00414
5017.87545,0.00225
5019.80392,0.01401
5021.73239,0.01591
5023.66086,0.00874
5025.58933,0.00444
5027.51779,0.00905
5029.44626,0.01602
5031.37473,0.01145
5033.30320,-0.00419
5035.23167,-0.00928
5037.16014,0.00366
5039.08861,0.01501
5041.01708,0.01354
5042.94554,0.00596
5044.87401,-0.00177
5046.80248,-0.00000
5048.73095,0.01364
5050.65942,0.02053
5052.58789,0.00991
5054.51636,-0.00624
5056.44482,-0.01185
5058.37329,-0.00405
5060.30176,0.00599
5062.23023,0.01189
5064.15870,0.01235
5066.08717,0.00961
5068.01564,0.01464
5069.94410,0.02453
5071.87257,0.02262
5073.80104,0.01227
5075.72951,0.00707
5077.65798,0.00159
5079.58645,-0.00222
5081.51492,0.00157
5083.44339,0.00252
5085.37185,0.00284
5087.30032,0.00857
5089.22879,0.01407
5091.15726,0.01364
5093.08573,0.00472
5095.01420,-0.00566
5096.94267,-0.00831
5098.87113,-0.00550
5100.79960,-0.00082
5102.72807,0.00374
5104.65654,0.00549
5106.58501,0.00618
5108.51348,0.00494
5110.44195,0.00415
5112.37042,0.01033
5114.29888,0.02119
5116.22735,0.02954
5118.15582,0.03428
5120.08429,0.03181
5122.01276,0.01734
5123.94123,0.00778
5125.86970,0.00888
5127.79816,0.00196
5129.72663,-0.00696
5131.65510,0.00289
5133.58357,0.02244
5135.51204,0.02331
5137.44051,0.00575
5139.36898,-0.00338
5141.29745,0.00491
5143.22591,0.01405
5145.15438,0.01096
5147.08285,0.00314
5149.01132,0.00276
5150.93979,0.00618
5152.86826,0.00561
5154.79673,0.00645
5156.72519,0.01335
5158.65366,0.02423
5160.58213,0.03516
5162.51060,0.03855
5164.43907,0.03781
5166.36754,0.04402
5168.29601,0.04901
5170.22448,0.03768
5172.15294,0.01864
5174.08141,0.01271
5176.00988,0.02463
5177.93835,0.04204
5179.86682,0.04581
5181.79529,0.03624
5183.72376,0.03370
5185.65222,0.03658
5187.58069,0.03140
5189.50916,0.02207
5191.43763,0.01519
5193.36610,0.01457
5195.29457,0.01260
5197.22304,0.00197
5199.15151,-0.00473
5201.07997,-0.00124
5203.00844,0.00210
5204.93691,-0.00065
5206.86538,-0.00171
5208.79385,0.00979
5210.72232,0.03142
5212.65079,0.04810
5214.57925,0.04268
5216.50772,0.02515
5218.43619,0.02366
5220.36466,0.03124
5222.29313,0.02338
5224.22160,0.01621
5226.15007,0.02884
5228.07854,0.03293
5230.00700,0.02221
5231.93547,0.02613
5233.86394,0.03696
5235.79241,0.03450
5237.72088,0.03087
5239.64935,0.04047
5241.57782,0.05131
5243.50628,0.04181
5245.43475,0.01894
5247.36322,0.01020
5249.29169,0.01713
5251.22016,0.02430
5253.14863,0.03121
5255.07710,0.03736
5257.00556,0.03451
5258.93403,0.02074
5260.86250,0.00772
5262.79097,0.01113
5264.71944,0.02659
5266.64791,0.03271
5268.57638,0.01447
5270.50485,-0.00710
5272.43331,0.00243
5274.36178,0.02627
5276.29025,0.03337
5278.21872,0.03231
5280.14719,0.04469
5282.07566,0.06238
5284.00413,0.06670
5285.93259,0.06185
5287.86106,0.05936
5289.78953,0.05961
5291.71800,0.05801
5293.64647,0.05199
5295.57494,0.04293
5297.50341,0.03278
5299.43188,0.03126
5301.36034,0.04569
5303.28881,0.05599
5305.21728,0.05160
5307.14575,0.04313
5309.07422,0.02809
5311.00269,0.02403
5312.93116,0.04908
5314.85962,0.07784
5316.78809,0.08690
5318.71656,0.07282
5320.64503,0.04356
5322.57350,0.02760
5324.50197,0.03152
5326.43044,0.02985
5328.35891,0.02009
5330.28737,0.02365
5332.21584,0.04134
5334.14431,0.05294
5336.07278,0.05599
5338.00125,0.05891
5339.92972,0.05046
5341.85819,0.02512
5343.78665,0.00451
5345.71512,0.01423
5347.64359,0.02766
5349.57206,0.02191
5351.50053,0.01350
5353.42900,0.01604
5355.35747,0.02584
5357.28594,0.02739
5359.21440,0.02620
5361.14287,0.03663
5363.07134,0.04974
5364.99981,0.05197
5366.92828,0.04526
5368.85675,0.04040
5370.78522,0.04418
5372.71368,0.05483
5374.64215,0.06358
5376.57062,0.05592
5378.49909,0.03791
5380.42756,0.03183
5382.35603,0.04306
5384.28450,0.06286
5386.21297,0.06763
5388.14143,0.05037
5390.06990,0.03222
5391.99837,0.02833
5393.92684,0.04540
5395.85531,0.06358
5397.78378,0.06533
5399.71225,0.06266
5401.64071,0.06415
5403.56918,0.06333
5405.49765,0.05693
5407.42612,0.06076
5409.35459,0.06337
5411.28306,0.05171
5413.21153,0.06018
5415.13999,0.07855
5417.06846,0.07285
5418.99693,0.05576
5420.92540,0.04875
5422.85387,0.05523
5424.78234,0.06084
5426.71081,0.06839
5428.63928,0.07916
5430.56774,0.07700
5432.49621,0.08126
5434.42468,0.09865
5436.35315,0.09326
5438.28162,0.07154
5440.21009,0.05980
5442.13856,0.04834
5444.06702,0.03685
5445.99549,0.05294
5447.92396,0.08158
5449.85243,0.08122
5451.78090,0.06027
5453.70937,0.03692
5455.63784,0.02057
5457.56631,0.02833
5459.49477,0.04998
5461.42324,0.06259
5463.35171,0.05650
5465.28018,0.03549
5467.20865,0.01740
5469.13712,0.01679
5471.06559,0.03836
5472.99405,0.06166
5474.92252,0.05833
5476.85099,0.04557
5478.77946,0.04759
5480.70793,0.05012
5482.63640,0.05092
5484.56487,0.05622
5486.49334,0.05642
5488.42180,0.04762
5490.35027,0.04409
5492.27874,0.05673
5494.20721,0.07842
5496.13568,0.08892
5498.06415,0.08509
5499.99262,0.07797
5501.92108,0.07068
5503.84955,0.06408
5505.77802,0.05349
5507.70649,0.03571
5509.63496,0.02746
5511.56343,0.03421
5513.49190,0.04141
5515.42037,0.04521
5517.34883,0.05559
5519.27730,0.06646
5521.20577,0.05750
5523.13424,0.03431
5525.06271,0.02449
5526.99118,0.02738
5528.91965,0.02850
5530.84811,0.03540
5532.77658,0.05174
5534.70505,0.05888
5536.63352,0.05765
5538.56199,0.07153
5540.49046,0.08330
5542.41893,0.06594
5544.34740,0.03520
5546.27586,0.01759
5548.20433,0.02770
5550.13280,0.05855
5552.06127,0.08948
5553.98974,0.09832
5555.91821,0.08663
5557.84668,0.07318
5559.77514,0.05361
5561.70361,0.02889
5563.63208,0.02051
5565.56055,0.02745
5567.48902,0.03079
5569.41749,0.03539
5571.34596,0.05133
5573.27443,0.07376
5575.20289,0.09547
5577.13136,0.09389
5579.05983,0.06330
5580.98830,0.04236
5582.91677,0.04986
5584.84524,0.05290
5586.77371,0.03285
5588.70217,0.01585
5590.63064,0.03333
5592.55911,0.06493
5594.48758,0.07250
5596.41605,0.05957
5598.34452,0.05344
5600.27299,0.06414
5602.20145,0.07664
5604.12992,0.07396
5606.05839,0.05624
5607.98686,0.04825
5609.91533,0.06358
5611.84380,0.06980
5613.77227,0.04607
5615.70074,0.02452
5617.62920,0.02980
5619.55767,0.04483
5621.48614,0.05843
5623.41461,0.06878
5625.34308,0.06564
5627.27155,0.05864
5629.20002,0.05083
5631.12848,0.04194
5633.05695,0.04137
5634.98542,0.04140
5636.91389,0.04134
5638.84236,0.04689
5640.77083,0.05541
5642.69930,0.07241
5644.62777,0.09104
5646.55623,0.08604
5648.48470,0.05997
5650.41317,0.03566
5652.34164,0.02107
5654.27011,0.02905
5656.19858,0.06125
5658.12705,0.08588
5660.05551,0.08025
5661.98398,0.05509
5663.91245,0.04106
5665.84092,0.05208
5667.76939,0.06436
5669.69786,0.07420
5671.62633,0.09543
5673.55480,0.10581
5675.48326,0.09559
5677.41173,0.09147
5679.34020,0.10575
5681.26867,0.12503
5683.19714,0.12941
5685.12561,0.11345
5687.05408,0.09952
5688.98254,0.08997
5690.91101,0.05458
5692.83948,0.01946
5694.76795,0.03216
5696.69642,0.07467
5698.62489,0.10434
5700.55336,0.10270
5702.48183,0.08063
5704.41029,0.06340
5706.33876,0.06601
5708.26723,0.07232
5710.19570,0.05729
5712.12417,0.04327
5714.05264,0.05256
5715.98111,0.05037
5717.90957,0.02885
5719.83804,0.03275
5721.76651,0.05889
5723.69498,0.06536
5725.62345,0.06442
5727.55192,0.07888
5729.48039,0.08267
5731.40886,0.06289
5733.33732,0.04784
5735.26579,0.05425
5737.19426,0.06363
5739.12273,0.05655
5741.05120,0.03614
5742.97967,0.02088
5744.90814,0.02826
5746.83660,0.05203
5748.76507,0.07231
5750.69354,0.08566
5752.62201,0.08762
5754.55048,0.06781
5756.47895,0.04673
5758.40742,0.04681
5760.33588,0.06578
5762.26435,0.09976
5764.19282,0.12976
5766.12129,0.11828
5768.04976,0.07967
5769.97823,0.06257
5771.90670,0.06755
5773.83517,0.07440
5775.76363,0.07980
5777.69210,0.08073
5779.62057,0.06279
5781.54904,0.02557
5783.47751,0.01541
5785.40598,0.05109
5787.33445,0.08951
5789.26291,0.10017
5791.19138,0.08800
5793.11985,0.07629
5795.04832,0.07640
5796.97679,0.07560
5798.90526,0.06292
5800.83373,0.04922
5802.76220,0.04101
5804.69066,0.02862
5806.61913,0.03081
5808.54760,0.05542
5810.47607,0.07854
5812.40454,0.08687
5814.33301,0.07731
5816.26148,0.06600
5818.18994,0.06550
5820.11841,0.06447
5822.04688,0.05171
5823.97535,0.04656
5825.90382,0.06878
5827.83229,0.09184
5829.76076,0.09975
5831.68923,0.10614
5833.61769,0.10065
5835.54616,0.06506
5837.47463,0.01000
5839.40310,-0.02114
5841.33157,-0.00114
5843.26004,0.03245
5845.18851,0.04205
5847.11697,0.03517
5849.04544,0.01248
5850.97391,-0.01975
5852.90238,-0.01756
5854.83085,0.03749
5856.75932,0.10267
5858.68779,0.13510
5860.61626,0.13886
5862.54472,0.12016
5864.47319,0.08223
5866.40166,0.05240
5868.33013,0.04412
5870.25860,0.04544
5872.18707,0.06320
5874.11554,0.09872
5876.04400,0.10858
5877.97247,0.08545
5879.90094,0.07060
5881.82941,0.05461
5883.75788,0.04614
5885.68635,0.07986
5887.61482,0.10894
5889.54329,0.09388
5891.47175,0.07456
5893.40022,0.06595
5895.32869,0.05634
5897.25716,0.05777
5899.18563,0.06599
5901.11410,0.06242
5903.04257,0.04879
5904.97103,0.04320
5906.89950,0.05994
5908.82797,0.07186
5910.75644,0.05437
5912.68491,0.03674
5914.61338,0.04830
5916.54185,0.08606
5918.47032,0.11953
5920.39878,0.12472
5922.32725,0.11011
5924.25572,0.09014
5926.18419,0.07228
5928.11266,0.06183
5930.04113,0.06627
5931.96960,0.09331
5933.89806,0.10929
5935.82653,0.07946
5937.75500,0.05488
5939.68347,0.05935
5941.61194,0.04842
5943.54041,0.02032
5945.46888,0.01975
5947.39734,0.04682
5949.32581,0.05621
5951.25428,0.04810
5953.18275,0.05449
5955.11122,0.05884
5957.03969,0.03099
5958.96816,-0.01241
5960.89663,-0.01593
5962.82509,0.04026
5964.75356,0.11271
5966.68203,0.13327
5968.61050,0.08175
5970.53897,0.01432
5972.46744,-0.00778
5974.39591,0.03106
5976.32437,0.08344
5978.25284,0.09969
5980.18131,0.09715
5982.10978,0.11178
5984.03825,0.12020
5985.96672,0.08311
5987.89519,0.03613
5989.82366,0.02516
5991.75212,0.02516
5993.68059,0.03461
5995.60906,0.08243
5997.53753,0.11584
5999.46600,0.10576
6001.39447,0.10293
6003.32294,0.10731
6005.25140,0.08242
6007.17987,0.05717
6009.10834,0.06351
6011.03681,0.06763
6012.96528,0.05146
6014.89375,0.05334
6016.82222,0.08431
6018.75069,0.09127
6020.67915,0.05241
6022.60762,0.01108
6024.53609,-0.01070
6026.46456,-0.01432
6028.39303,0.00229
6030.32150,0.02554
6032.24997,0.03143
6034.17843,0.01238
6036.10690,0.00251
6038.03537,0.03738
6039.96384,0.06474
6041.89231,0.03671
6043.82078,-0.00122
6045.74925,0.00000
6047.67772,0.03772
6049.60618,0.08225
6051.53465,0.09028
6053.46312,0.07846
6055.39159,0.10630
6057.32006,0.16311
6059.24853,0.18649
6061.17700,0.16036
6063.10546,0.11841
6065.03393,0.09462
6066.96240,0.08557
6068.89087,0.08463
6070.81934,0.08961
6072.74781,0.09526
6074.67628,0.09545
6076.60475,0.08868
6078.53321,0.07438
6080.46168,0.03994
6082.39015,0.01051
6084.31862,0.02591
6086.24709,0.06235
6088.17556,0.07796
6090.10403,0.08529
6092.03249,0.09593
6093.96096,0.09663
6095.88943,0.09132
6097.81790,0.07473
6099.74637,0.04825
6101.67484,0.04507
6103.60331,0.06456
6105.53177,0.07816
6107.46024,0.07440
6109.38871,0.06999
6111.31718,0.07409
6113.24565,0.07030
6115.17412,0.07144
6117.10259,0.08887
6119.03106,0.11911
6120.95952,0.15897
6122.88799,0.17024
6124.81646,0.13187
6126.74493,0.07848
6128.67340,0.04385
6130.60187,0.03069
6132.53034,0.04086
6134.45880,0.06909
6136.38727,0.10235
6138.31574,0.12787
6140.24421,0.13236
6142.17268,0.12176
6144.10115,0.09335
6146.02962,0.05102
6147.95809,0.02855
6149.88655,0.03151
6151.81502,0.03718
6153.74349,0.04261
6155.67196,0.05966
6157.60043,0.07688
6159.52890,0.08492
6161.45737,0.07642
6163.38583,0.03977
6165.31430,-0.00339
6167.24277,-0.02723
6169.17124,-0.01704
6171.09971,0.03351
6173.02818,0.08356
6174.95665,0.09422
6176.88512,0.08530
6178.81358,0.07143
6180.74205,0.04334
6182.67052,0.02475
6184.59899,0.04356
6186.52746,0.09953
6188.45593,0.15729
6190.38440,0.17538
6192.31286,0.17209
6194.24133,0.15077
6196.16980,0.09542
6198.09827,0.05527
6200.02674,0.07427
6201.95521,0.10220
6203.88368,0.05867
6205.81215,-0.02588
6207.74061,-0.03647
6209.66908,0.01980
6211.59755,0.04228
6213.52602,0.03140
6215.45449,0.02469
6217.38296,-0.00156
6219.31143,-0.02109
6221.23989,0.02136
6223.16836,0.08980
6225.09683,0.10882
6227.02530,0.07885
6228.95377,0.05738
6230.88224,0.06880
6232.81071,0.05893
6234.73918,0.00923
6236.66764,0.00134
6238.59611,0.05178
6240.52458,0.08162
6242.45305,0.05011
6244.38152,0.00779
6246.30999,0.00719
6248.23846,0.01783
6250.16692,-0.00791
6252.09539,-0.04172
6254.02386,-0.05471
6255.95233,-0.05766
6257.88080,-0.03318
6259.80927,0.02307
6261.73774,0.07313
6263.66621,0.12082
6265.59467,0.17055
6267.52314,0.16573
6269.45161,0.12794
6271.38008,0.10230
6273.30855,0.07303
6275.23702,0.03452
6277.16549,0.01199
6279.09395,0.04445
6281.02242,0.09850
6282.95089,0.10062
6284.87936,0.08353
6286.80783,0.10495
6288.73630,0.12835
6290.66477,0.12353
6292.59323,0.12179
6294.52170,0.11669
6296.45017,0.09426
6298.37864,0.09367
6300.30711,0.08888
6302.23558,0.02554
6304.16405,-0.03884
6306.09252,-0.06250
6308.02098,-0.04181
6309.94945,0.02575
6311.87792,0.07753
6313.80639,0.08507
6315.73486,0.08310
6317.66333,0.08770
6319.59180,0.09607
6321.52026,0.09569
6323.44873,0.09251
6325.37720,0.08977
6327.30567,0.08284
6329.23414,0.09478
6331.16261,0.09867
6333.09108,0.03978
6335.01955,-0.02702
6336.94801,-0.01598
6338.87648,0.06743
6340.80495,0.14215
6342.73342,0.13370
6344.66189,0.04280
6346.59036,-0.02530
6348.51883,0.01313
6350.44729,0.06109
6352.37576,0.06016
6354.30423,0.08357
6356.23270,0.11355
6358.16117,0.08304
6360.08964,0.03295
6362.01811,0.05244
6363.94658,0.11527
6365.87504,0.12687
6367.80351,0.07916
6369.73198,0.03805
6371.66045,0.03833
6373.58892,0.07510
6375.51739,0.09743
6377.44586,0.08773
6379.37432,0.08176
6381.30279,0.09352
6383.23126,0.10508
6385.15973,0.08070
6387.08820,0.05773
6389.01667,0.06702
6390.94514,0.05653
6392.87361,0.02866
6394.80207,0.04146
6396.73054,0.08805
6398.65901,0.09786
6400.58748,0.04126
6402.51595,0.00568
6404.44442,0.02244
6406.37289,0.01772
6408.30135,-0.03021
6410.22982,-0.07162
6412.15829,-0.07733
6414.08676,-0.05142
6416.01523,0.01479
6417.94370,0.08549
6419.87217,0.09539
6421.80064,0.07248
6423.72910,0.04884
6425.65757,0.03162
6427.58604,0.04487
6429.51451,0.08363
6431.44298,0.09221
6433.37145,0.05375
6435.29992,0.04744
6437.22838,0.09263
6439.15685,0.13806
6441.08532,0.16851
6443.01379,0.15877
6444.94226,0.11291
6446.87073,0.08916
6448.79920,0.09219
6450.72766,0.08740
6452.65613,0.06741
6454.58460,0.05814
6456.51307,0.05267
6458.44154,0.04357
6460.37001,0.04803
6462.29848,0.05430
6464.22695,0.06182
6466.15541,0.07881
6468.08388,0.08640
6470.01235,0.11067
6471.94082,0.16058
6473.86929,0.15982
6475.79776,0.11288
6477.72623,0.10597
6479.65469,0.11043
6481.58316,0.06180
6483.51163,0.03144
6485.44010,0.03189
6487.36857,0.00500
6489.29704,-0.00356
6491.22551,0.05184
6493.15398,0.11857
6495.08244,0.14175
6497.01091,0.15590
6498.93938,0.19351
6500.86785,0.19123
6502.79632,0.12729
6504.72479,0.07292
6506.65326,0.03408
6508.58172,0.01048
6510.51019,0.01073
6512.43866,0.00241
6514.36713,0.02175
6516.29560,0.07407
6518.22407,0.06218
6520.15254,0.02710
6522.08101,0.05269
6524.00947,0.07201
6525.93794,0.03923
6527.86641,0.03478
6529.79488,0.07720
6531.72335,0.13337
6533.65182,0.19247
6535.58029,0.23007
6537.50875,0.22965
6539.43722,0.18913
6541.36569,0.12410
6543.29416,0.07683
6545.22263,0.06111
6547.15110,0.06428
6549.07957,0.09047
6551.00804,0.14240
6552.93650,0.19276
6554.86497,0.18141
6556.79344,0.10690
6558.72191,0.07708
6560.65038,0.12300
6562.57885,0.16364
6564.50732,0.16376
6566.43578,0.12697
6568.36425,0.06814
6570.29272,0.00186
6572.22119,-0.02239
6574.14966,0.02711
6576.07813,0.07446
6578.00660,0.07592
6579.93507,0.04605
6581.86353,0.01661
6583.79200,0.03190
6585.72047,0.05357
6587.64894,0.04157
6589.57741,0.03427
6591.50588,0.05436
6593.43435,0.06012
6595.36281,0.04027
6597.29128,0.05408
6599.21975,0.06973
6601.14822,0.04561
6603.07669,0.06690
6605.00516,0.12870
6606.93363,0.12506
6608.86210,0.04816
6610.79056,-0.01448
6612.71903,-0.02365
6614.64750,-0.01139
6616.57597,0.01836
6618.50444,0.07646
6620.43291,0.13433
6622.36138,0.15292
6624.28984,0.12444
6626.21831,0.08996
6628.14678,0.07161
6630.07525,0.09667
6632.00372,0.14302
6633.93219,0.14326
6635.86066,0.10163
6637.78912,0.03594
6639.71759,-0.02342
6641.64606,-0.05150
6643.57453,-0.04769
6645.50300,-0.00646
6647.43147,0.04965
6649.35994,0.09977
6651.28841,0.11879
6653.21687,0.07632
6655.14534,0.01354
6657.07381,0.02949
6659.00228,0.12731
6660.93075,0.16432
6662.85922,0.11476
6664.78769,0.06376
6666.71615,0.02487
6668.64462,0.01616
6670.57309,0.06672
6672.50156,0.11010
6674.43003,0.07349
6676.35850,0.01506
6678.28697,0.01196
6680.21544,0.05640
6682.14390,0.11217
6684.07237,0.12206
6686.00084,0.06083
6687.92931,0.06365
6689.85778,0.16850
6691.78625,0.20148
6693.71472,0.16325
6695.64318,0.11467
6697.57165,0.04958
6699.50012,0.01183
6701.42859,0.02980
6703.35706,0.05345
6705.28553,0.03925
6707.21400,0.00695
6709.14247,0.01538
6711.07093,0.05816
6712.99940,0.09219
6714.92787,0.08736
6716.85634,0.02851
6718.78481,-0.00958
6720.71328,0.01770
6722.64175,0.03260
6724.57021,0.01317
6726.49868,-0.02940
6728.42715,-0.08726
6730.35562,-0.08199
6732.28409,-0.00392
6734.21256,0.03701
6736.14103,0.00260
6738.06950,-0.02566
6739.99796,0.00878
6741.92643,0.03515
6743.85490,-0.00527
6745.78337,-0.00975
6747.71184,0.07364
6749.64031,0.16013
6751.56878,0.16465
6753.49724,0.08961
6755.42571,0.03452
6757.35418,0.04967
6759.28265,0.05847
6761.21112,0.01889
6763.13959,-0.01537
6765.06806,-0.01902
6766.99653,-0.01755
6768.92499,-0.04602
6770.85346,-0.07658
6772.78193,-0.02847
6774.71040,0.04558
6776.63887,-0.00134
6778.56734,-0.07896
6780.49581,-0.04222
6782.42427,0.05163
6784.35274,0.11658
6786.28121,0.12763
6788.20968,0.08685
6790.13815,0.01275
6792.06662,-0.03906
6793.99509,0.00516
6795.92355,0.09931
6797.85202,0.12138
6799.78049,0.06983
6801.70896,0.04436
6803.63743,0.13263
6805.56590,0.28068
6807.49437,0.33041
6809.42284,0.25574
6811.35130,0.13566
6813.27977,0.05909
6815.20824,0.05302
6817.13671,0.07235
6819.06518,0.07353
6820.99365,0.08677
6822.92212,0.13206
6824.85058,0.11270
6826.77905,0.02930
6828.70752,-0.04003
6830.63599,-0.07390
6832.56446,-0.06593
6834.49293,-0.04358
6836.42140,-0.01051
6838.34987,0.04375
6840.27833,0.08885
6842.20680,0.12103
6844.13527,0.16421
6846.06374,0.20136
6847.99221,0.16122
6849.92068,0.07220
6851.84915,0.07014
6853.77761,0.14672
6855.70608,0.16528
6857.63455,0.08925
6859.56302,0.05569
6861.49149,0.09190
6863.41996,0.16204
6865.34843,0.20537
6867.27690,0.13029
6869.20536,-0.01722
6871.13383,-0.11712
6873.06230,-0.10191
6874.99077,-0.03413
6876.91924,-0.01270
6878.84771,-0.03988
6880.77618,-0.08430
6882.70464,-0.09539
6884.63311,-0.06716
6886.56158,-0.02819
6888.49005,0.04852
6890.41852,0.14898
6892.34699,0.17576
6894.27546,0.19002
6896.20393,0.24183
6898.13239,0.21123
6900.06086,0.14780
6901.98933,0.16355
6903.91780,0.20109
6905.84627,0.20720
6907.77474,0.19078
6909.70321,0.14353
6911.63167,0.10766
6913.56014,0.12079
6915.48861,0.10908
6917.41708,0.04853
6919.34555,0.01450
6921.27402,0.02933
6923.20249,0.06263
6925.13096,0.13372
6927.05942,0.20758
6928.98789,0.18219
6930.91636,0.06982
6932.84483,0.04184
6934.77330,0.12103
6936.70177,0.14464
6938.63024,0.07318
6940.55870,0.00273
6942.48717,0.01834
6944.41564,0.05398
6946.34411,0.04342
6948.27258,0.04159
6950.20105,0.06104
6952.12952,0.02928
6954.05799,-0.05812
6955.98645,-0.08710
6957.91492,-0.02388
6959.84339,0.00650
6961.77186,-0.00360
6963.70033,-0.03063
6965.62880,-0.06594
6967.55727,-0.05871
6969.48573,-0.03296
6971.41420,-0.04261
6973.34267,-0.07536
6975.27114,-0.08812
6977.19961,-0.08240
6979.12808,-0.06408
6981.05655,0.00734
6982.98501,0.09509
6984.91348,0.09672
6986.84195,-0.00933
6988.77042,-0.14177
6990.69889,-0.15663
6992.62736,-0.07920
6994.55583,-0.05290
6996.48430,-0.05055
6998.41276,0.00229
7000.34123,0.04057
7002.26970,0.05718
7004.19817,0.08480
7006.12664,0.11613
7008.05511,0.14550
7009.98358,0.15422
7011.91204,0.13433
7013.84051,0.07610
7015.76898,-0.00105
7017.69745,-0.02303
7019.62592,0.01064
7021.55439,-0.00692
7023.48286,-0.04849
7025.41133,0.00176
7027.33979,0.06875
7029.26826,0.08843
7031.19673,0.14090
7033.12520,0.16953
7035.05367,0.06233
7036.98214,-0.12391
7038.91061,-0.24318
7040.83907,-0.21484
7042.76754,-0.12172
7044.69601,-0.08473
7046.62448,-0.05197
7048.55295,0.03132
7050.48142,0.17181
7052.40989,0.32513
7054.33836,0.40816
7056.26682,0.41828
7058.19529,0.37866
7060.12376,0.27887
7062.05223,0.15219
7063.98070,0.05394
7065.90917,0.04578
7067.83764,0.12152
7069.76610,0.17381
7071.69457,0.12015
7073.62304,0.09607
7075.55151,0.11550
7077.47998,0.05246
7079.40845,-0.03934
7081.33692,-0.02268
7083.26539,0.01069
7085.19385,-0.04240
7087.12232,-0.07844
7089.05079,-0.01667
7090.97926,0.04029
7092.90773,0.01876
7094.83620,-0.03484
7096.76467,-0.02182
7098.69313,0.05899
7100.62160,0.07139
7102.55007,0.03184
7104.47854,-0.00453
7106.40701,-0.03478
7108.33548,-0.05110
7110.26395,-0.11665
7112.19242,-0.19398
7114.12088,-0.17158
7116.04935,-0.08737
7117.97782,-0.05226
7119.90629,-0.14614
7121.83476,-0.21702
7123.76323,-0.14462
7125.69170,-0.02702
7127.62016,0.07065
7129.54863,0.12584
7131.47710,0.09769
7133.40557,0.05607
7135.33404,0.05423
7137.26251,0.04203
7139.19098,0.06170
7141.11944,0.17906
7143.04791,0.21237
7144.97638,0.09845
7146.90485,0.11565
7148.83332,0.28828
7150.76179,0.33565
7152.69026,0.18919
7154.61873,0.07506
7156.54719,0.06565
7158.47566,0.03536
7160.40413,0.01154
7162.33260,0.02512
7164.26107,0.02275
7166.18954,-0.01018
7168.11801,0.00293
7170.04647,0.11375
7171.97494,0.24215
7173.90341,0.27257
7175.83188,0.18315
7177.76035,0.04312
7179.68882,-0.03123
7181.61729,0.00953
7183.54576,0.09082
7185.47422,0.10774
7187.40269,0.09071
7189.33116,0.03458
7191.25963,-0.07460
7193.18810,-0.17795
7195.11657,-0.18123
7197.04504,-0.03747
7198.97350,0.09950
7200.90197,0.11361
7202.83044,0.08880
7204.75891,0.05983
7206.68738,0.06679
7208.61585,0.16569
7210.54432,0.24793
7212.47279,0.19319
7214.40125,0.02905
7216.32972,-0.11592
7218.25819,-0.10952
7220.18666,-0.04350
7222.11513,-0.01660
7224.04360,0.05585
7225.97207,0.16969
7227.90053,0.19695
7229.82900,0.14287
7231.75747,0.10191
7233.68594,0.10456
7235.61441,0.08697
7237.54288,0.02297
7239.47135,-0.00667
7241.39982,-0.00704
7243.32828,-0.00981
7245.25675,0.05036
7247.18522,0.06887
7249.11369,0.01062
7251.04216,-0.02113
7252.97063,-0.06115
7254.89910,-0.13725
7256.82756,-0.12291
7258.75603,0.00700
7260.68450,0.17846
7262.61297,0.28799
7264.54144,0.26329
7266.46991,0.09283
7268.39838,-0.03135
7270.32685,-0.00446
7272.25531,0.02896
7274.18378,-0.08898
7276.11225,-0.21444
7278.04072,-0.20457
7279.96919,-0.04154
7281.89766,0.08428
7283.82613,0.09536
7285.75459,0.10683
7287.68306,0.07443
7289.61153,-0.02161
7291.54000,-0.02601
7293.46847,0.07701
7295.39694,0.04801
7297.32541,-0.07100
7299.25387,-0.09103
7301.18234,-0.03172
7303.11081,0.11000
7305.03928,0.29116
7306.96775,0.27396
7308.89622,0.11634
7310.82469,0.11716
7312.75316,0.17722
7314.68162,0.19343
7316.61009,0.21428
7318.53856,0.22914
7320.46703,0.14489
7322.39550,0.06793
7324.32397,0.09939
7326.25244,0.13463
7328.18090,0.08797
7330.10937,0.00460
7332.03784,0.00019
7333.96631,0.04677
7335.89478,0.06279
7337.82325,0.08155
7339.75172,0.20850
7341.68019,0.27437
7343.60865,0.11249
7345.53712,-0.07621
7347.46559,-0.14042
7349.39406,-0.15268
7351.32253,-0.16374
7353.25100,-0.12426
7355.17947,-0.04053
7357.10793,0.02346
7359.03640,0.04156
7360.96487,0.04915
7362.89334,0.00442
7364.82181,-0.05321
7366.75028,-0.00018
7368.67875,0.08429
7370.60722,0.07554
7372.53568,0.02106
7374.46415,-0.03894
7376.39262,-0.05297
7378.32109,0.02324
7380.24956,0.15085
7382.17803,0.23431
7384.10650,0.16166
7386.03496,0.00565
7387.96343,-0.04063
7389.89190,0.03260
7391.82037,0.07661
7393.74884,0.09512
7395.67731,0.17821
7397.60578,0.26830
7399.53425,0.24493
7401.46271,0.22278
7403.39118,0.32888
7405.31965,0.32166
7407.24812,0.16452
7409.17659,0.09125
7411.10506,0.11784
7413.03353,0.15368
7414.96199,0.09226
7416.89046,-0.06380
7418.81893,-0.16093
7420.74740,-0.07750
7422.67587,0.08878
7424.60434,0.15971
7426.53281,0.06648
7428.46128,-0.14196
7430.38974,-0.33930
7432.31821,-0.31372
7434.24668,-0.06407
7436.17515,0.23933
7438.10362,0.40354
7440.03209,0.35409
7441.96056,0.21573
7443.88902,0.15700
7445.81749,0.20653
7447.74596,0.25694
7449.67443,0.18795
7451.60290,0.03766
7453.53137,-0.00799
7455.45984,0.06194
7457.38831,0.16974
7459.31677,0.27506
7461.24524,0.25857
7463.17371,0.15728
7465.10218,0.09844
7467.03065,0.10563
7468.95912,0.12158
7470.88759,0.08403
7472.81605,0.12018
7474.74452,0.28271
7476.67299,0.43198
7478.60146,0.49503
7480.52993,0.38259
7482.45840,0.15260
7484.38687,0.08688
7486.31533,0.12659
7488.24380,0.07119
7490.17227,0.01193
7492.10074,0.08377
7494.02921,0.13147
7495.95768,0.06241
7497.88615,-0.01480
