399.19301,0.82384
401.12148,-0.09506
403.04995,-0.27483
404.97842,-0.11393
406.90689,-0.07486
408.83536,-0.19904
410.76382,-0.20474
412.69229,0.03182
414.62076,0.20966
416.54923,0.20612
418.47770,0.13027
420.40617,0.04183
422.33464,-0.05106
424.26311,-0.10174
426.19157,-0.03275
428.12004,0.09202
430.04851,0.14311
431.97698,0.08286
433.90545,0.01226
435.83392,-0.00684
437.76239,0.00055
439.69085,-0.00655
441.61932,-0.02196
443.54779,0.02385
445.47626,0.10482
447.40473,0.12620
449.33320,0.11137
451.26167,0.09009
453.19013,0.04235
455.11860,-0.00395
457.04707,-0.00385
458.97554,0.06031
460.90401,0.12333
462.83248,0.15285
464.76095,0.18661
466.68942,0.16380
468.61788,0.08263
470.54635,0.08607
472.47482,0.19880
474.40329,0.20261
476.33176,0.07310
478.26023,0.01129
480.18870,-0.00431
482.11716,0.01694
484.04563,0.10187
485.97410,0.17684
487.90257,0.14860
489.83104,0.06897
491.75951,0.02063
493.68798,-0.00630
495.61645,-0.00157
497.54491,0.03272
499.47338,0.04151
501.40185,0.01391
503.33032,-0.02508
505.25879,-0.02651
507.18726,0.01742
509.11573,0.04885
511.04419,0.05413
512.97266,0.06292
514.90113,0.08287
516.82960,0.11655
518.75807,0.12159
520.68654,0.06917
522.61501,0.03936
524.54348,0.09354
526.47194,0.16944
528.40041,0.16628
530.32888,0.09598
532.25735,0.03331
534.18582,0.02383
536.11429,0.05855
538.04276,0.10814
539.97122,0.14798
541.89969,0.15799
543.82816,0.13977
545.75663,0.10852
547.68510,0.07888
549.61357,0.12950
551.54204,0.45449
553.47051,0.80540
555.39897,0.63324
557.32744,0.20314
559.25591,0.05757
561.18438,0.08145
563.11285,0.09544
565.04132,0.09752
566.96979,0.09972
568.89825,0.10858
570.82672,0.09823
572.75519,0.05978
574.68366,0.02424
576.61213,0.02201
578.54060,0.05248
580.46907,0.09408
582.39754,0.10608
584.32600,0.08723
586.25447,0.06227
588.18294,0.04536
590.11141,0.04682
592.03988,0.04863
593.96835,0.04664
595.89682,0.07091
597.82528,0.10465
599.75375,0.11380
601.68222,0.11528
603.61069,0.11844
605.53916,0.10133
607.46763,0.06824
609.39610,0.05662
611.32456,0.07758
613.25303,0.09743
615.18150,0.09374
617.10997,0.08233
619.03844,0.08120
620.96691,0.08188
622.89538,0.08099
624.82385,0.08732
626.75231,0.09875
628.68078,0.10603
630.60925,0.10171
632.53772,0.08970
634.46619,0.07723
636.39466,0.06508
638.32313,0.05420
640.25159,0.04962
642.18006,0.05659
644.10853,0.06831
646.03700,0.07235
647.96547,0.06843
649.89394,0.06439
651.82241,0.06811
653.75088,0.07752
655.67934,0.08393
657.60781,0.08033
659.53628,0.06296
661.46475,0.04706
663.39322,0.04598
665.32169,0.05642
667.25016,0.07272
669.17862,0.08650
671.10709,0.10156
673.03556,0.11180
674.96403,0.10120
676.89250,0.08175
678.82097,0.07474
680.74944,0.07433
682.67791,0.07507
684.60637,0.08385
686.53484,0.10188
688.46331,0.12435
690.39178,0.13630
692.32025,0.13016
694.24872,0.11607
696.17719,0.10281
698.10565,0.09225
700.03412,0.08358
701.96259,0.08208
703.89106,0.08879
705.81953,0.09250
707.74800,0.08014
709.67647,0.04519
711.60494,0.01201
713.53340,0.02414
715.46187,0.06864
717.39034,0.08999
719.31881,0.08800
721.24728,0.09408
723.17575,0.10940
725.10422,0.12071
727.03268,0.11540
728.96115,0.09736
730.88962,0.09038
732.81809,0.10268
734.74656,0.11296
736.67503,0.10864
738.60350,0.10304
740.53197,0.10225
742.46043,0.09963
744.38890,0.09581
746.31737,0.09895
748.24584,0.10349
750.17431,0.09556
752.10278,0.08495
754.03125,0.08694
755.95971,0.09770
757.88818,0.11025
759.81665,0.11439
761.74512,0.10276
763.67359,0.08957
765.60206,0.08874
767.53053,0.09306
769.45900,0.09691
771.38746,0.10546
773.31593,0.11208
775.24440,0.10511
777.17287,0.09268
779.10134,0.08701
781.02981,0.08779
782.95828,0.09489
784.88674,0.10288
786.81521,0.10075
788.74368,0.08991
790.67215,0.08187
792.60062,0.08654
794.52909,0.09861
796.45756,0.10461
798.38602,0.10839
800.31449,0.11619
802.24296,0.11711
804.17143,0.10895
806.09990,0.10860
808.02837,0.11362
809.95684,0.11078
811.88531,0.10559
813.81377,0.10635
815.74224,0.10877
817.67071,0.10310
819.59918,0.09643
821.52765,0.10045
823.45612,0.10576
825.38459,0.10349
827.31305,0.09908
829.24152,0.09333
831.16999,0.09011
833.09846,0.09705
835.02693,0.10485
836.95540,0.10801
838.88387,0.11612
840.81234,0.12670
842.74080,0.12569
844.66927,0.11625
846.59774,0.10980
848.52621,0.10301
850.45468,0.09432
852.38315,0.08663
854.31162,0.08395
856.24008,0.08960
858.16855,0.09629
860.09702,0.09828
862.02549,0.10319
863.95396,0.11358
865.88243,0.12004
867.81090,0.12394
869.73937,0.12839
871.66783,0.12679
873.59630,0.11852
875.52477,0.11060
877.45324,0.10896
879.38171,0.10920
881.31018,0.10589
883.23865,0.10605
885.16711,0.11306
887.09558,0.11573
889.02405,0.11133
890.95252,0.11171
892.88099,0.11700
894.80946,0.11835
896.73793,0.11773
898.66640,0.11991
900.59486,0.12263
902.52333,0.12268
904.45180,0.11988
906.38027,0.11534
908.30874,0.11295
910.23721,0.11466
912.16568,0.11751
914.09414,0.12278
916.02261,0.12821
917.95108,0.12600
919.87955,0.11907
921.80802,0.11401
923.73649,0.10930
925.66496,0.10494
927.59343,0.10682
929.52189,0.11411
931.45036,0.12056
933.37883,0.12379
935.30730,0.12392
937.23577,0.12256
939.16424,0.11931
941.09271,0.11603
943.02117,0.11939
944.94964,0.12524
946.87811,0.12118
948.80658,0.11255
950.73505,0.11232
952.66352,0.11585
954.59199,0.11817
956.52045,0.12289
958.44892,0.12749
960.37739,0.12644
962.30586,0.11973
964.23433,0.11588
966.16280,0.12176
968.09127,0.12743
970.01974,0.12238
971.94820,0.11608
973.87667,0.11559
975.80514,0.11557
977.73361,0.11668
979.66208,0.11954
981.59055,0.12256
983.51902,0.12365
985.44748,0.11747
987.37595,0.10796
989.30442,0.10602
991.23289,0.11279
993.16136,0.12156
995.08983,0.12895
997.01830,0.13206
998.94677,0.12856
1000.87523,0.12222
1002.80370,0.11844
1004.73217,0.12049
1006.66064,0.12716
1008.58911,0.13255
1010.51758,0.13328
1012.44605,0.12933
1014.37451,0.12249
1016.30298,0.11902
1018.23145,0.12080
1020.15992,0.12194
1022.08839,0.11963
1024.01686,0.12069
1025.94533,0.13110
1027.87380,0.14017
1029.80226,0.13783
1031.73073,0.13394
1033.65920,0.13223
1035.58767,0.12609
1037.51614,0.12061
1039.44461,0.11859
1041.37308,0.11973
1043.30154,0.12964
1045.23001,0.14199
1047.15848,0.14598
1049.08695,0.14275
1051.01542,0.13464
1052.94389,0.12263
1054.87236,0.12003
1056.80083,0.13150
1058.72929,0.14054
1060.65776,0.14203
1062.58623,0.14320
1064.51470,0.14387
1066.44317,0.14338
1068.37164,0.14750
1070.30011,0.15500
1072.22857,0.15316
1074.15704,0.14024
1076.08551,0.13066
1078.01398,0.13336
1079.94245,0.14253
1081.87092,0.14749
1083.79939,0.14433
1085.72786,0.13911
1087.65632,0.13771
1089.58479,0.13878
1091.51326,0.14132
1093.44173,0.14413
1095.37020,0.14324
1097.29867,0.13995
1099.22714,0.13896
1101.15560,0.13734
1103.08407,0.12925
1105.01254,0.11880
1106.94101,0.11548
1108.86948,0.12000
1110.79795,0.12537
1112.72642,0.12589
1114.65489,0.12343
1116.58335,0.12566
1118.51182,0.13300
1120.44029,0.13896
1122.36876,0.13941
1124.29723,0.13609
1126.22570,0.13525
1128.15417,0.13681
1130.08263,0.13428
1132.01110,0.12909
1133.93957,0.12735
1135.86804,0.12779
1137.79651,0.12700
1139.72498,0.12656
1141.65345,0.12798
1143.58191,0.13110
1145.51038,0.13734
1147.43885,0.14427
1149.36732,0.14589
1151.29579,0.14194
1153.22426,0.13706
1155.15273,0.13665
1157.08120,0.14167
1159.00966,0.14559
1160.93813,0.14411
1162.86660,0.14067
1164.79507,0.14023
1166.72354,0.14232
1168.65201,0.14276
1170.58048,0.14140
1172.50894,0.14123
1174.43741,0.14078
1176.36588,0.13889
1178.29435,0.13881
1180.22282,0.13928
1182.15129,0.13929
1184.07976,0.14410
1186.00823,0.14964
1187.93669,0.14508
1189.86516,0.13648
1191.79363,0.13655
1193.72210,0.14201
1195.65057,0.14623
1197.57904,0.14903
1199.50751,0.14815
1201.43597,0.14444
1203.36444,0.14312
1205.29291,0.14223
1207.22138,0.13789
1209.14985,0.13483
1211.07832,0.13694
1213.00679,0.14080
1214.93526,0.14247
1216.86372,0.14029
1218.79219,0.13777
1220.72066,0.14011
1222.64913,0.14448
1224.57760,0.14639
1226.50607,0.14597
1228.43454,0.14354
1230.36300,0.14114
1232.29147,0.14153
1234.21994,0.14244
1236.14841,0.14087
1238.07688,0.14026
1240.00535,0.14340
1241.93382,0.14606
1243.86229,0.14450
1245.79075,0.14017
1247.71922,0.13854
1249.64769,0.14200
1251.57616,0.14347
1253.50463,0.13919
1255.43310,0.13703
1257.36157,0.13994
1259.29003,0.14132
1261.21850,0.14071
1263.14697,0.14125
1265.07544,0.13991
1267.00391,0.13544
1268.93238,0.13166
1270.86085,0.13167
1272.78932,0.13438
1274.71778,0.13752
1276.64625,0.14306
1278.57472,0.14814
1280.50319,0.14354
1282.43166,0.13460
1284.36013,0.13353
1286.28860,0.13594
1288.21706,0.13610
1290.14553,0.13728
1292.07400,0.13798
1294.00247,0.13713
1295.93094,0.13716
1297.85941,0.13474
1299.78788,0.12314
1301.71634,0.09929
1303.64481,0.07610
1305.57328,0.08062
1307.50175,0.11323
1309.43022,0.14096
1311.35869,0.15014
1313.28716,0.15198
1315.21563,0.15243
1317.14409,0.15375
1319.07256,0.15436
1321.00103,0.15110
1322.92950,0.14744
1324.85797,0.14138
1326.78644,0.13378
1328.71491,0.13257
1330.64337,0.13210
1332.57184,0.13112
1334.50031,0.13526
1336.42878,0.13938
1338.35725,0.14233
1340.28572,0.13688
1342.21419,0.12251
1344.14266,0.11674
1346.07112,0.12146
1347.99959,0.13074
1349.92806,0.13773
1351.85653,0.13740
1353.78500,0.13475
1355.71347,0.13582
1357.64194,0.14164
1359.57040,0.14729
1361.49887,0.14865
1363.42734,0.14591
1365.35581,0.14438
1367.28428,0.14836
1369.21275,0.15383
1371.14122,0.15713
1373.06969,0.15992
1374.99815,0.16254
1376.92662,0.16349
1378.85509,0.16146
1380.78356,0.15756
1382.71203,0.15589
1384.64050,0.15958
1386.56897,0.16811
1388.49743,0.17413
1390.42590,0.17340
1392.35437,0.17311
1394.28284,0.17756
1396.21131,0.18122
1398.13978,0.17882
1400.06825,0.17262
1401.99672,0.16841
1403.92518,0.16722
1405.85365,0.16339
1407.78212,0.15939
1409.71059,0.16344
1411.63906,0.17026
1413.56753,0.17144
1415.49600,0.17291
1417.42446,0.18018
1419.35293,0.18181
1421.28140,0.17302
1423.20987,0.16602
1425.13834,0.16210
1427.06681,0.16132
1428.99528,0.16529
1430.92375,0.16906
1432.85221,0.16986
1434.78068,0.17260
1436.70915,0.17486
1438.63762,0.17199
1440.56609,0.16839
1442.49456,0.16457
1444.42303,0.16352
1446.35149,0.16828
1448.27996,0.17250
1450.20843,0.17222
1452.13690,0.17393
1454.06537,0.18155
1455.99384,0.19690
1457.92231,0.20537
1459.85077,0.19108
1461.77924,0.17993
1463.70771,0.17968
1465.63618,0.18167
1467.56465,0.18010
1469.49312,0.18448
1471.42159,0.19901
1473.35006,0.20741
1475.27852,0.19713
1477.20699,0.18510
1479.13546,0.17932
1481.06393,0.17768
1482.99240,0.17646
1484.92087,0.17915
1486.84934,0.18906
1488.77780,0.19828
1490.70627,0.19302
1492.63474,0.18349
1494.56321,0.18444
1496.49168,0.19265
1498.42015,0.19063
1500.34862,0.17606
1502.27709,0.16431
1504.20555,0.16726
1506.13402,0.19544
1508.06249,0.21255
1509.99096,0.19618
1511.91943,0.18541
1513.84790,0.18463
1515.77637,0.19359
1517.70483,0.20865
1519.63330,0.22207
1521.56177,0.22660
1523.49024,0.21644
1525.41871,0.20728
1527.34718,0.19895
1529.27565,0.18831
1531.20412,0.18652
1533.13258,0.19545
1535.06105,0.19981
1536.98952,0.20346
1538.91799,0.22132
1540.84646,0.23359
1542.77493,0.21841
1544.70340,0.20567
1546.63186,0.19627
1548.56033,0.19122
1550.48880,0.19225
1552.41727,0.19733
1554.34574,0.20517
1556.27421,0.21581
1558.20268,0.22595
1560.13115,0.20918
1562.05961,0.18946
1563.98808,0.18160
1565.91655,0.18068
1567.84502,0.18514
1569.77349,0.18885
1571.70196,0.18608
1573.63043,0.18571
1575.55889,0.19154
1577.48736,0.19211
1579.41583,0.18524
1581.34430,0.17900
1583.27277,0.17444
1585.20124,0.17278
1587.12971,0.17341
1589.05818,0.17382
1590.98664,0.17456
1592.91511,0.17677
1594.84358,0.17837
1596.77205,0.17646
1598.70052,0.17240
1600.62899,0.17076
1602.55746,0.17390
1604.48592,0.17811
1606.41439,0.17906
1608.34286,0.17900
1610.27133,0.18001
1612.19980,0.18088
1614.12827,0.18534
1616.05674,0.19426
1617.98521,0.19407
1619.91367,0.18996
1621.84214,0.19317
1623.77061,0.19565
1625.69908,0.19278
1627.62755,0.19098
1629.55602,0.18814
1631.48449,0.18637
1633.41295,0.19427
1635.34142,0.21024
1637.26989,0.20798
1639.19836,0.19492
1641.12683,0.18919
1643.05530,0.19094
1644.98377,0.20190
1646.91223,0.21802
1648.84070,0.21910
1650.76917,0.21940
1652.69764,0.23044
1654.62611,0.21846
1656.55458,0.20014
1658.48305,0.20188
1660.41152,0.21991
1662.33998,0.22903
1664.26845,0.20914
1666.19692,0.19211
1668.12539,0.19634
1670.05386,0.20732
1671.98233,0.20734
1673.91080,0.20364
1675.83926,0.19729
1677.76773,0.19311
1679.69620,0.19774
1681.62467,0.20942
1683.55314,0.22134
1685.48161,0.21375
1687.41008,0.19943
1689.33855,0.19340
1691.26701,0.19307
1693.19548,0.19826
1695.12395,0.21204
1697.05242,0.22604
1698.98089,0.22477
1700.90936,0.21155
1702.83783,0.20519
1704.76629,0.20488
1706.69476,0.19812
1708.62323,0.18993
1710.55170,0.18877
1712.48017,0.19258
1714.40864,0.20158
1716.33711,0.21328
1718.26558,0.21019
1720.19404,0.19575
1722.12251,0.18566
1724.05098,0.18007
1725.97945,0.17790
1727.90792,0.18149
1729.83639,0.19035
1731.76486,0.19970
1733.69332,0.20360
1735.62179,0.19726
1737.55026,0.19285
1739.47873,0.19457
1741.40720,0.19621
1743.33567,0.19504
1745.26414,0.19458
1747.19261,0.19660
1749.12107,0.19947
1751.04954,0.19589
1752.97801,0.18852
1754.90648,0.18738
1756.83495,0.18986
1758.76342,0.19033
1760.69189,0.19161
1762.62035,0.19187
1764.54882,0.18912
1766.47729,0.18944
1768.40576,0.19364
1770.33423,0.20047
1772.26270,0.20585
1774.19117,0.19993
1776.11964,0.19020
1778.04810,0.18512
1779.97657,0.18454
1781.90504,0.18475
1783.83351,0.18395
1785.76198,0.18281
1787.69045,0.18415
1789.61892,0.19143
1791.54738,0.20032
1793.47585,0.20000
1795.40432,0.19458
1797.33279,0.19169
1799.26126,0.19063
1801.18973,0.18920
1803.11820,0.18625
1805.04666,0.18289
1806.97513,0.18241
1808.90360,0.18579
1810.83207,0.18740
1812.76054,0.18297
1814.68901,0.18059
1816.61748,0.18872
1818.54595,0.20100
1820.47441,0.20356
1822.40288,0.19698
1824.33135,0.19130
1826.25982,0.19092
1828.18829,0.19377
1830.11676,0.19311
1832.04523,0.18611
1833.97369,0.18110
1835.90216,0.18201
1837.83063,0.18493
1839.75910,0.18646
1841.68757,0.18877
1843.61604,0.19074
1845.54451,0.18833
1847.47298,0.18484
1849.40144,0.18316
1851.32991,0.18335
1853.25838,0.18377
1855.18685,0.18298
1857.11532,0.18223
1859.04379,0.18149
1860.97226,0.17999
1862.90072,0.17985
1864.82919,0.18343
1866.75766,0.19063
1868.68613,0.19423
1870.61460,0.18818
1872.54307,0.18217
1874.47154,0.18087
1876.40001,0.18077
1878.32847,0.18109
1880.25694,0.18304
1882.18541,0.18496
1884.11388,0.18495
1886.04235,0.18475
1887.97082,0.18761
1889.89929,0.19023
1891.82775,0.18718
1893.75622,0.18273
1895.68469,0.18114
1897.61316,0.18134
1899.54163,0.18214
1901.47010,0.18328
1903.39857,0.18522
1905.32704,0.18833
1907.25550,0.19115
1909.18397,0.19148
1911.11244,0.18920
1913.04091,0.18680
1914.96938,0.18735
1916.89785,0.18982
1918.82632,0.18827
1920.75478,0.18425
1922.68325,0.18439
1924.61172,0.18665
1926.54019,0.18601
1928.46866,0.18290
1930.39713,0.18067
1932.32560,0.18192
1934.25407,0.18369
1936.18253,0.18265
1938.11100,0.18133
1940.03947,0.18185
1941.96794,0.18301
1943.89641,0.18268
1945.82488,0.18185
1947.75335,0.18310
1949.68181,0.18523
1951.61028,0.18569
1953.53875,0.18458
1955.46722,0.18393
1957.39569,0.18377
1959.32416,0.18402
1961.25263,0.18584
1963.18110,0.18764
1965.10956,0.18874
1967.03803,0.18895
1968.96650,0.18673
1970.89497,0.18380
1972.82344,0.18080
1974.75191,0.17712
1976.68038,0.17480
1978.60884,0.17589
1980.53731,0.17985
1982.46578,0.18305
1984.39425,0.18409
1986.32272,0.18598
1988.25119,0.18861
1990.17966,0.18948
1992.10812,0.18895
1994.03659,0.18733
1995.96506,0.18550
1997.89353,0.18491
1999.82200,0.18393
2001.75047,0.18275
2003.67894,0.18363
2005.60741,0.18364
2007.53587,0.18073
2009.46434,0.17948
2011.39281,0.18197
2013.32128,0.18572
2015.24975,0.18909
2017.17822,0.18991
2019.10669,0.18711
2021.03515,0.18382
2022.96362,0.18293
2024.89209,0.18358
2026.82056,0.18331
2028.74903,0.18225
2030.67750,0.18184
2032.60597,0.18124
2034.53444,0.18016
2036.46290,0.18083
2038.39137,0.18282
2040.31984,0.18321
2042.24831,0.18303
2044.17678,0.18465
2046.10525,0.18751
2048.03372,0.18905
2049.96218,0.18673
2051.89065,0.18366
2053.81912,0.18483
2055.74759,0.18815
2057.67606,0.18972
2059.60453,0.19021
2061.53300,0.19065
2063.46147,0.19000
2065.38993,0.18792
2067.31840,0.18518
2069.24687,0.18295
2071.17534,0.18168
2073.10381,0.18133
2075.03228,0.18302
2076.96075,0.18465
2078.88921,0.18406
2080.81768,0.18416
2082.74615,0.18538
2084.67462,0.18567
2086.60309,0.18535
2088.53156,0.18563
2090.46003,0.18690
2092.38850,0.18861
2094.31696,0.18954
2096.24543,0.18929
2098.17390,0.18960
2100.10237,0.19033
2102.03084,0.18929
2103.95931,0.18682
2105.88778,0.18575
2107.81624,0.18732
2109.74471,0.18910
2111.67318,0.18997
2113.60165,0.19070
2115.53012,0.19040
2117.45859,0.18879
2119.38706,0.18623
2121.31553,0.18332
2123.24399,0.18270
2125.17246,0.18526
2127.10093,0.18791
2129.02940,0.18818
2130.95787,0.18723
2132.88634,0.18853
2134.81481,0.19289
2136.74327,0.19508
2138.67174,0.19186
2140.60021,0.18802
2142.52868,0.18667
2144.45715,0.18624
2146.38562,0.18609
2148.31409,0.18648
2150.24255,0.18747
2152.17102,0.18731
2154.09949,0.18608
2156.02796,0.18661
2157.95643,0.18800
2159.88490,0.18916
2161.81337,0.19077
2163.74184,0.19217
2165.67030,0.19344
2167.59877,0.19373
2169.52724,0.19171
2171.45571,0.18969
2173.38418,0.18997
2175.31265,0.19108
2177.24112,0.19055
2179.16958,0.18775
2181.09805,0.18457
2183.02652,0.18396
2184.95499,0.18644
2186.88346,0.18928
2188.81193,0.19035
2190.74040,0.19032
2192.66887,0.18980
2194.59733,0.18950
2196.52580,0.19054
2198.45427,0.19033
2200.38274,0.18754
2202.31121,0.18612
2204.23968,0.18716
2206.16815,0.18796
2208.09661,0.18653
2210.02508,0.18448
2211.95355,0.18558
2213.88202,0.18808
2215.81049,0.18824
2217.73896,0.18746
2219.66743,0.18680
2221.59590,0.18598
2223.52436,0.18600
2225.45283,0.18530
2227.38130,0.18336
2229.30977,0.18467
2231.23824,0.18883
2233.16671,0.18997
2235.09518,0.18830
2237.02364,0.18756
2238.95211,0.18776
2240.88058,0.18777
2242.80905,0.18876
2244.73752,0.19114
2246.66599,0.19179
2248.59446,0.18935
2250.52293,0.18685
2252.45139,0.18633
2254.37986,0.18726
2256.30833,0.18889
2258.23680,0.18946
2260.16527,0.18872
2262.09374,0.18883
2264.02221,0.19013
2265.95067,0.19215
2267.87914,0.19356
2269.80761,0.19272
2271.73608,0.19132
2273.66455,0.19187
2275.59302,0.19370
2277.52149,0.19417
2279.44996,0.19305
2281.37842,0.19321
2283.30689,0.19440
2285.23536,0.19374
2287.16383,0.19177
2289.09230,0.19069
2291.02077,0.19262
2292.94924,0.19673
2294.87770,0.20007
2296.80617,0.20135
2298.73464,0.19928
2300.66311,0.19765
2302.59158,0.19846
2304.52005,0.19808
2306.44852,0.19863
2308.37699,0.20150
2310.30545,0.20478
2312.23392,0.20706
2314.16239,0.20701
2316.09086,0.20819
2318.01933,0.21454
2319.94780,0.22567
2321.87627,0.23555
2323.80473,0.23375
2325.73320,0.22808
2327.66167,0.23906
2329.59014,0.25778
2331.51861,0.26027
2333.44708,0.25449
2335.37555,0.25447
2337.30401,0.24818
2339.23248,0.23305
2341.16095,0.22940
2343.08942,0.23464
2345.01789,0.22972
2346.94636,0.22030
2348.87483,0.21579
2350.80330,0.21929
2352.73176,0.23354
2354.66023,0.25153
2356.58870,0.26652
2358.51717,0.27339
2360.44564,0.26142
2362.37411,0.24150
2364.30258,0.23348
2366.23104,0.23743
2368.15951,0.23373
2370.08798,0.22324
2372.01645,0.21674
2373.94492,0.20972
2375.87339,0.20233
2377.80186,0.19883
2379.73033,0.19823
2381.65879,0.19884
2383.58726,0.19847
2385.51573,0.19521
2387.44420,0.19046
2389.37267,0.18716
2391.30114,0.18727
2393.22961,0.18999
2395.15807,0.19220
2397.08654,0.19244
2399.01501,0.19182
2400.94348,0.19128
2402.87195,0.19064
2404.80042,0.19010
2406.72889,0.19112
2408.65736,0.19333
2410.58582,0.19326
2412.51429,0.19005
2414.44276,0.18684
2416.37123,0.18649
2418.29970,0.18939
2420.22817,0.19236
2422.15664,0.19150
2424.08510,0.18746
2426.01357,0.18480
2427.94204,0.18569
2429.87051,0.18768
2431.79898,0.18887
2433.72745,0.19040
2435.65592,0.19187
2437.58439,0.19107
2439.51285,0.18887
2441.44132,0.18817
2443.36979,0.18974
2445.29826,0.19225
2447.22673,0.19392
2449.15520,0.19270
2451.08367,0.18753
2453.01213,0.18205
2454.94060,0.18155
2456.86907,0.18531
2458.79754,0.18844
2460.72601,0.18937
2462.65448,0.18961
2464.58295,0.18952
2466.51142,0.18858
2468.43988,0.18734
2470.36835,0.18685
2472.29682,0.18792
2474.22529,0.18984
2476.15376,0.19169
2478.08223,0.19450
2480.01070,0.19660
2481.93916,0.19391
2483.86763,0.18846
2485.79610,0.18704
2487.72457,0.19062
2489.65304,0.19320
2491.58151,0.19250
2493.50998,0.19186
2495.43844,0.19130
2497.36691,0.18843
2499.29538,0.18571
2501.22385,0.18692
2503.15232,0.19064
2505.08079,0.19304
2507.00926,0.19319
2508.93773,0.19292
2510.86619,0.19163
2512.79466,0.18946
2514.72313,0.18905
2516.65160,0.18932
2518.58007,0.18973
2520.50854,0.19071
2522.43701,0.18967
2524.36547,0.18823
2526.29394,0.19047
2528.22241,0.19513
2530.15088,0.19836
2532.07935,0.19747
2534.00782,0.19344
2535.93629,0.19101
2537.86476,0.19157
2539.79322,0.19291
2541.72169,0.19385
2543.65016,0.19423
2545.57863,0.19490
2547.50710,0.19417
2549.43557,0.19105
2551.36404,0.19030
2553.29250,0.19270
2555.22097,0.19387
2557.14944,0.19323
2559.07791,0.19379
2561.00638,0.19550
2562.93485,0.19501
2564.86332,0.19281
2566.79179,0.19193
2568.72025,0.19282
2570.64872,0.19391
2572.57719,0.19313
2574.50566,0.19206
2576.43413,0.19362
2578.36260,0.19504
2580.29107,0.19420
2582.21953,0.19348
2584.14800,0.19437
2586.07647,0.19626
2588.00494,0.19637
2589.93341,0.19439
2591.86188,0.19403
2593.79035,0.19466
2595.71882,0.19285
2597.64728,0.19003
2599.57575,0.18887
2601.50422,0.18952
2603.43269,0.19113
2605.36116,0.19248
2607.28963,0.19456
2609.21810,0.19903
2611.14656,0.20246
2613.07503,0.20112
2615.00350,0.19852
2616.93197,0.19912
2618.86044,0.20112
2620.78891,0.20050
2622.71738,0.19812
2624.64585,0.19798
2626.57431,0.19881
2628.50278,0.19696
2630.43125,0.19481
2632.35972,0.19591
2634.28819,0.19753
2636.21666,0.19591
2638.14513,0.19363
2640.07359,0.19509
2642.00206,0.19927
2643.93053,0.20152
2645.85900,0.20094
2647.78747,0.19998
2649.71594,0.19815
2651.64441,0.19577
2653.57288,0.19620
2655.50134,0.19822
2657.42981,0.19801
2659.35828,0.19829
2661.28675,0.20085
2663.21522,0.20089
2665.14369,0.19680
2667.07216,0.19270
2669.00062,0.19258
2670.92909,0.19509
2672.85756,0.19683
2674.78603,0.19696
2676.71450,0.19614
2678.64297,0.19604
2680.57144,0.19707
2682.49990,0.19760
2684.42837,0.19653
2686.35684,0.19564
2688.28531,0.19694
2690.21378,0.19934
2692.14225,0.20087
2694.07072,0.20112
2695.99919,0.19992
2697.92765,0.19821
2699.85612,0.19950
2701.78459,0.20295
2703.71306,0.20393
2705.64153,0.20143
2707.57000,0.19883
2709.49847,0.19840
2711.42693,0.19725
2713.35540,0.19523
2715.28387,0.19554
2717.21234,0.19890
2719.14081,0.20447
2721.06928,0.20861
2722.99775,0.20730
2724.92622,0.20272
2726.85468,0.20072
2728.78315,0.20243
2730.71162,0.20538
2732.64009,0.20807
2734.56856,0.20820
2736.49703,0.20603
2738.42550,0.20463
2740.35396,0.20333
2742.28243,0.20260
2744.21090,0.20436
2746.13937,0.20480
2748.06784,0.20280
2749.99631,0.20301
2751.92478,0.20594
2753.85325,0.20792
2755.78171,0.20739
2757.71018,0.20513
2759.63865,0.20277
2761.56712,0.20279
2763.49559,0.20482
2765.42406,0.20594
2767.35253,0.20669
2769.28099,0.20848
2771.20946,0.20811
2773.13793,0.20376
2775.06640,0.20092
2776.99487,0.20307
2778.92334,0.20577
2780.85181,0.20465
2782.78028,0.20131
2784.70874,0.20172
2786.63721,0.20560
2788.56568,0.20535
2790.49415,0.20264
2792.42262,0.20343
2794.35109,0.20513
2796.27956,0.20586
2798.20802,0.20687
2800.13649,0.20775
2802.06496,0.20780
2803.99343,0.20732
2805.92190,0.20699
2807.85037,0.20607
2809.77884,0.20644
2811.70731,0.21022
2813.63577,0.21140
2815.56424,0.20615
2817.49271,0.20067
2819.42118,0.20065
2821.34965,0.20399
2823.27812,0.20548
2825.20659,0.20557
2827.13505,0.20783
2829.06352,0.21189
2830.99199,0.21413
2832.92046,0.21264
2834.84893,0.21086
2836.77740,0.21128
2838.70587,0.21206
2840.63433,0.21154
2842.56280,0.20853
2844.49127,0.20432
2846.41974,0.20365
2848.34821,0.20780
2850.27668,0.21240
2852.20515,0.21375
2854.13362,0.21173
2856.06208,0.20922
2857.99055,0.20980
2859.91902,0.21194
2861.84749,0.21193
2863.77596,0.21039
2865.70443,0.20859
2867.63290,0.20656
2869.56136,0.20740
2871.48983,0.21074
2873.41830,0.20968
2875.34677,0.20613
2877.27524,0.20729
2879.20371,0.21043
2881.13218,0.20894
2883.06065,0.20394
2884.98911,0.20223
2886.91758,0.20399
2888.84605,0.20553
2890.77452,0.20791
2892.70299,0.20893
2894.63146,0.20494
2896.55993,0.20163
2898.48839,0.20428
2900.41686,0.20900
2902.34533,0.20996
2904.27380,0.20397
2906.20227,0.19709
2908.13074,0.19775
2910.05921,0.20149
2911.98768,0.20224
2913.91614,0.19697
2915.84461,0.18772
2917.77308,0.18672
2919.70155,0.19474
2921.63002,0.20103
2923.55849,0.19957
2925.48696,0.18913
2927.41542,0.18257
2929.34389,0.19087
2931.27236,0.20161
2933.20083,0.20098
2935.12930,0.18805
2937.05777,0.17714
2938.98624,0.18524
2940.91471,0.20173
2942.84317,0.20898
2944.77164,0.20201
2946.70011,0.18337
2948.62858,0.17510
2950.55705,0.18680
2952.48552,0.19905
2954.41399,0.19869
2956.34245,0.18339
2958.27092,0.17119
2960.19939,0.18397
2962.12786,0.20585
2964.05633,0.21309
2965.98480,0.20328
2967.91327,0.19003
2969.84174,0.19370
2971.77020,0.20776
2973.69867,0.21173
2975.62714,0.20289
2977.55561,0.18751
2979.48408,0.18186
2981.41255,0.19441
2983.34102,0.20991
2985.26948,0.21194
2987.19795,0.20014
2989.12642,0.19410
2991.05489,0.20345
2992.98336,0.21272
2994.91183,0.21324
2996.84030,0.20825
2998.76877,0.20365
3000.69723,0.20526
3002.62570,0.20915
3004.55417,0.20791
3006.48264,0.20156
3008.41111,0.19324
3010.33958,0.17840
3012.26805,0.14789
3014.19651,0.10415
3016.12498,0.07317
3018.05345,0.09162
3019.98192,0.15106
3021.91039,0.19959
3023.83886,0.21669
3025.76733,0.21466
3027.69579,0.20680
3029.62426,0.20609
3031.55273,0.21248
3033.48120,0.21647
3035.40967,0.21373
3037.33814,0.20633
3039.26661,0.20349
3041.19508,0.20689
3043.12354,0.20936
3045.05201,0.20556
3046.98048,0.19627
3048.90895,0.19498
3050.83742,0.20490
3052.76589,0.21054
3054.69436,0.20219
3056.62282,0.18642
3058.55129,0.18456
3060.47976,0.19913
3062.40823,0.20813
3064.33670,0.20000
3066.26517,0.18498
3068.19364,0.18517
3070.12211,0.20066
3072.05057,0.21031
3073.97904,0.20447
3075.90751,0.19439
3077.83598,0.19885
3079.76445,0.21145
3081.69292,0.21083
3083.62139,0.19328
3085.54985,0.17890
3087.47832,0.18755
3089.40679,0.20725
3091.33526,0.21433
3093.26373,0.19983
3095.19220,0.18431
3097.12067,0.19370
3099.04914,0.21030
3100.97760,0.20588
3102.90607,0.18566
3104.83454,0.17894
3106.76301,0.19602
3108.69148,0.21295
3110.61995,0.20900
3112.54842,0.19341
3114.47688,0.19247
3116.40535,0.20732
3118.33382,0.21380
3120.26229,0.20117
3122.19076,0.18643
3124.11923,0.19029
3126.04770,0.20176
3127.97617,0.20248
3129.90463,0.19748
3131.83310,0.19842
3133.76157,0.20474
3135.69004,0.20773
3137.61851,0.20490
3139.54698,0.20270
3141.47545,0.20770
3143.40391,0.21515
3145.33238,0.21823
3147.26085,0.21674
3149.18932,0.21337
3151.11779,0.21451
3153.04626,0.21964
3154.97473,0.21885
3156.90320,0.21163
3158.83166,0.20751
3160.76013,0.20813
3162.68860,0.20995
3164.61707,0.21309
3166.54554,0.21693
3168.47401,0.21943
3170.40248,0.22002
3172.33094,0.21993
3174.25941,0.21913
3176.18788,0.21788
3178.11635,0.21899
3180.04482,0.22214
3181.97329,0.22262
3183.90176,0.22034
3185.83022,0.21864
3187.75869,0.21606
3189.68716,0.21368
3191.61563,0.21467
3193.54410,0.21777
3195.47257,0.22154
3197.40104,0.22434
3199.32951,0.22538
3201.25797,0.22400
3203.18644,0.21859
3205.11491,0.21329
3207.04338,0.21299
3208.97185,0.21421
3210.90032,0.21440
3212.82879,0.21671
3214.75725,0.21946
3216.68572,0.21839
3218.61419,0.21656
3220.54266,0.21937
3222.47113,0.22392
3224.39960,0.22353
3226.32807,0.21922
3228.25654,0.21591
3230.18500,0.21547
3232.11347,0.21751
3234.04194,0.21948
3235.97041,0.21810
3237.89888,0.21435
3239.82735,0.21232
3241.75582,0.21215
3243.68428,0.21221
3245.61275,0.21115
3247.54122,0.21011
3249.46969,0.21367
3251.39816,0.22010
3253.32663,0.22208
3255.25510,0.21707
3257.18357,0.21272
3259.11203,0.21441
3261.04050,0.21538
3262.96897,0.21330
3264.89744,0.21235
3266.82591,0.21296
3268.75438,0.21428
3270.68285,0.21637
3272.61131,0.21982
3274.53978,0.22268
3276.46825,0.22107
3278.39672,0.21578
3280.32519,0.21261
3282.25366,0.21633
3284.18213,0.22284
3286.11060,0.22173
3288.03906,0.21338
3289.96753,0.20853
3291.89600,0.20891
3293.82447,0.20809
3295.75294,0.20812
3297.68141,0.21320
3299.60988,0.21821
3301.53834,0.22046
3303.46681,0.22079
3305.39528,0.21704
3307.32375,0.21123
3309.25222,0.20676
3311.18069,0.20544
3313.10916,0.20878
3315.03763,0.21223
3316.96609,0.21205
3318.89456,0.21147
3320.82303,0.21376
3322.75150,0.21820
3324.67997,0.22112
3326.60844,0.22078
3328.53691,0.21834
3330.46537,0.21642
3332.39384,0.21748
3334.32231,0.21977
3336.25078,0.22071
3338.17925,0.22109
3340.10772,0.22250
3342.03619,0.22361
3343.96466,0.22239
3345.89312,0.22148
3347.82159,0.22271
3349.75006,0.22237
3351.67853,0.22056
3353.60700,0.22131
3355.53547,0.22038
3357.46394,0.21445
3359.39240,0.21319
3361.32087,0.21947
3363.24934,0.22109
3365.17781,0.21581
3367.10628,0.21685
3369.03475,0.22563
3370.96322,0.22908
3372.89168,0.22633
3374.82015,0.22463
3376.74862,0.22386
3378.67709,0.22430
3380.60556,0.22407
3382.53403,0.21962
3384.46250,0.21305
3386.39097,0.20848
3388.31943,0.20768
3390.24790,0.20869
3392.17637,0.21042
3394.10484,0.21348
3396.03331,0.21886
3397.96178,0.22325
3399.89025,0.21965
3401.81871,0.21133
3403.74718,0.20790
3405.67565,0.21137
3407.60412,0.21650
3409.53259,0.21714
3411.46106,0.21184
3413.38953,0.20729
3415.31800,0.20975
3417.24646,0.21536
3419.17493,0.21534
3421.10340,0.20805
3423.03187,0.20240
3424.96034,0.20392
3426.88881,0.20544
3428.81728,0.20088
3430.74574,0.19833
3432.67421,0.20416
3434.60268,0.21042
3436.53115,0.21268
3438.45962,0.21446
3440.38809,0.21390
3442.31656,0.20998
3444.24503,0.20899
3446.17349,0.21106
3448.10196,0.21115
3450.03043,0.20965
3451.95890,0.20840
3453.88737,0.20641
3455.81584,0.20314
3457.74431,0.20222
3459.67277,0.20305
3461.60124,0.20101
3463.52971,0.19739
3465.45818,0.19476
3467.38665,0.19474
3469.31512,0.19713
3471.24359,0.19908
3473.17206,0.20053
3475.10052,0.20110
3477.02899,0.19974
3478.95746,0.19750
3480.88593,0.19378
3482.81440,0.19025
3484.74287,0.19045
3486.67134,0.18988
3488.59980,0.18416
3490.52827,0.18106
3492.45674,0.18580
3494.38521,0.18946
3496.31368,0.18687
3498.24215,0.18526
3500.17062,0.18673
3502.09909,0.18551
3504.02755,0.18141
3505.95602,0.17917
3507.88449,0.17882
3509.81296,0.17782
3511.74143,0.17421
3513.66990,0.17023
3515.59837,0.17101
3517.52683,0.17613
3519.45530,0.18161
3521.38377,0.18495
3523.31224,0.18473
3525.24071,0.18278
3527.16918,0.18238
3529.09765,0.18140
3531.02611,0.17746
3532.95458,0.17574
3534.88305,0.17967
3536.81152,0.18324
3538.73999,0.17875
3540.66846,0.17250
3542.59693,0.17508
3544.52540,0.18304
3546.45386,0.18758
3548.38233,0.18636
3550.31080,0.18166
3552.23927,0.17655
3554.16774,0.17195
3556.09621,0.16754
3558.02468,0.16327
3559.95314,0.16118
3561.88161,0.16442
3563.81008,0.17332
3565.73855,0.18562
3567.66702,0.18810
3569.59549,0.17457
3571.52396,0.16286
3573.45243,0.16032
3575.38089,0.16377
3577.30936,0.16609
3579.23783,0.16252
3581.16630,0.15823
3583.09477,0.16113
3585.02324,0.17154
3586.95171,0.17919
3588.88017,0.17347
3590.80864,0.16781
3592.73711,0.16995
3594.66558,0.16982
3596.59405,0.16051
3598.52252,0.15193
3600.45099,0.15123
3602.37946,0.15453
3604.30792,0.15771
3606.23639,0.16147
3608.16486,0.16541
3610.09333,0.16687
3612.02180,0.16624
3613.95027,0.16219
3615.87874,0.15783
3617.80720,0.16108
3619.73567,0.16414
3621.66414,0.15509
3623.59261,0.14599
3625.52108,0.14786
3627.44955,0.16171
3629.37802,0.17145
3631.30649,0.16346
3633.23495,0.15417
3635.16342,0.14628
3637.09189,0.14181
3639.02036,0.14342
3640.94883,0.14673
3642.87730,0.14998
3644.80577,0.15688
3646.73423,0.17028
3648.66270,0.18232
3650.59117,0.17382
3652.51964,0.16062
3654.44811,0.15409
3656.37658,0.14718
3658.30505,0.13812
3660.23352,0.13249
3662.16198,0.13174
3664.09045,0.13423
3666.01892,0.13532
3667.94739,0.13369
3669.87586,0.13223
3671.80433,0.13496
3673.73280,0.14471
3675.66126,0.15307
3677.58973,0.14689
3679.51820,0.13871
3681.44667,0.13266
3683.37514,0.13027
3685.30361,0.13348
3687.23208,0.13887
3689.16055,0.14597
3691.08901,0.15144
3693.01748,0.14896
3694.94595,0.14399
3696.87442,0.14101
3698.80289,0.13972
3700.73136,0.13848
3702.65983,0.13621
3704.58829,0.13274
3706.51676,0.13079
3708.44523,0.13493
3710.37370,0.14447
3712.30217,0.14661
3714.23064,0.13909
3716.15911,0.13217
3718.08757,0.12719
3720.01604,0.12650
3721.94451,0.13383
3723.87298,0.14261
3725.80145,0.14605
3727.72992,0.14481
3729.65839,0.13967
3731.58686,0.13418
3733.51532,0.13603
3735.44379,0.14161
3737.37226,0.13787
3739.30073,0.13421
3741.22920,0.13699
3743.15767,0.14036
3745.08614,0.13803
3747.01460,0.13563
3748.94307,0.13914
3750.87154,0.14635
3752.80001,0.14801
3754.72848,0.14550
3756.65695,0.14591
3758.58542,0.14656
3760.51389,0.13905
3762.44235,0.13135
3764.37082,0.13045
3766.29929,0.13006
3768.22776,0.12801
3770.15623,0.12755
3772.08470,0.12795
3774.01317,0.12871
3775.94163,0.13045
3777.87010,0.13300
3779.79857,0.13257
3781.72704,0.12675
3783.65551,0.12289
3785.58398,0.12406
3787.51245,0.12386
3789.44092,0.12014
3791.36938,0.11779
3793.29785,0.12230
3795.22632,0.13357
3797.15479,0.14336
3799.08326,0.14963
3801.01173,0.15527
3802.94020,0.14973
3804.86866,0.13897
3806.79713,0.13134
3808.72560,0.12392
3810.65407,0.11782
3812.58254,0.11763
3814.51101,0.12519
3816.43948,0.13006
3818.36795,0.12782
3820.29641,0.13299
3822.22488,0.13781
3824.15335,0.13300
3826.08182,0.12703
3828.01029,0.12216
3829.93876,0.12161
3831.86723,0.12749
3833.79569,0.13485
3835.72416,0.13629
3837.65263,0.13429
3839.58110,0.13391
3841.50957,0.13455
3843.43804,0.13522
3845.36651,0.13189
3847.29498,0.12512
3849.22344,0.12197
3851.15191,0.13044
3853.08038,0.14548
3855.00885,0.13825
3856.93732,0.12475
3858.86579,0.11869
3860.79426,0.12091
3862.72272,0.13031
3864.65119,0.13434
3866.57966,0.12766
3868.50813,0.12164
3870.43660,0.12214
3872.36507,0.12533
3874.29354,0.12365
3876.22200,0.11734
3878.15047,0.11486
3880.07894,0.11847
3882.00741,0.12391
3883.93588,0.12762
3885.86435,0.12563
3887.79282,0.12072
3889.72129,0.12085
3891.64975,0.12369
3893.57822,0.12264
3895.50669,0.12038
3897.43516,0.12042
3899.36363,0.12377
3901.29210,0.13142
3903.22057,0.13568
3905.14903,0.12908
3907.07750,0.11985
3909.00597,0.11369
3910.93444,0.11043
3912.86291,0.11028
3914.79138,0.10988
3916.71985,0.10845
3918.64832,0.10959
3920.57678,0.11065
3922.50525,0.10852
3924.43372,0.10560
3926.36219,0.10690
3928.29066,0.11158
3930.21913,0.11333
3932.14760,0.10972
3934.07606,0.10411
3936.00453,0.10174
3937.93300,0.10397
3939.86147,0.10731
3941.78994,0.10834
3943.71841,0.10637
3945.64688,0.10503
3947.57535,0.10651
3949.50381,0.10805
3951.43228,0.10758
3953.36075,0.10534
3955.28922,0.10248
3957.21769,0.10064
3959.14616,0.10003
3961.07463,0.09961
3963.00309,0.09905
3964.93156,0.09868
3966.86003,0.09843
3968.78850,0.10147
3970.71697,0.10856
3972.64544,0.11235
3974.57391,0.11014
3976.50238,0.10586
3978.43084,0.10174
3980.35931,0.09865
3982.28778,0.09703
3984.21625,0.09713
3986.14472,0.09985
3988.07319,0.10156
3990.00166,0.09911
3991.93012,0.09827
3993.85859,0.10047
3995.78706,0.10173
3997.71553,0.10256
3999.64400,0.10313
4001.57247,0.10266
4003.50094,0.10154
4005.42941,0.09914
4007.35787,0.09472
4009.28634,0.09033
4011.21481,0.08676
4013.14328,0.08304
4015.07175,0.08353
4017.00022,0.09131
4018.92869,0.09969
4020.85715,0.10026
4022.78562,0.09310
4024.71409,0.08647
4026.64256,0.08810
4028.57103,0.09359
4030.49950,0.09605
4032.42797,0.09893
4034.35644,0.10282
4036.28490,0.10315
4038.21337,0.10148
4040.14184,0.10067
4042.07031,0.09961
4043.99878,0.09789
4045.92725,0.09633
4047.85572,0.09285
4049.78418,0.08692
4051.71265,0.08308
4053.64112,0.08173
4055.56959,0.07873
4057.49806,0.07814
4059.42653,0.08569
4061.35500,0.09311
4063.28346,0.09153
4065.21193,0.08559
4067.14040,0.08282
4069.06887,0.08645
4070.99734,0.09111
4072.92581,0.08928
4074.85428,0.08542
4076.78275,0.08625
4078.71121,0.08901
4080.63968,0.08784
4082.56815,0.08376
4084.49662,0.08308
4086.42509,0.08704
4088.35356,0.09057
4090.28203,0.08888
4092.21049,0.08422
4094.13896,0.08205
4096.06743,0.08141
4097.99590,0.07878
4099.92437,0.07711
4101.85284,0.08040
4103.78131,0.08432
4105.70978,0.08469
4107.63824,0.08283
4109.56671,0.07806
4111.49518,0.07373
4113.42365,0.07609
4115.35212,0.08368
4117.28059,0.08784
4119.20906,0.07976
4121.13752,0.06727
4123.06599,0.06533
4124.99446,0.06966
4126.92293,0.07184
4128.85140,0.07338
4130.77987,0.07499
4132.70834,0.07690
4134.63681,0.07995
4136.56527,0.07868
4138.49374,0.07286
4140.42221,0.07355
4142.35068,0.07922
4144.27915,0.08063
4146.20762,0.07988
4148.13609,0.07721
4150.06455,0.07146
4151.99302,0.06816
4153.92149,0.06963
4155.84996,0.07209
4157.77843,0.07232
4159.70690,0.07175
4161.63537,0.07203
4163.56384,0.07085
4165.49230,0.06610
4167.42077,0.05932
4169.34924,0.05458
4171.27771,0.05230
4173.20618,0.05090
4175.13465,0.05536
4177.06312,0.06633
4178.99158,0.07205
4180.92005,0.06849
4182.84852,0.06454
4184.77699,0.06399
4186.70546,0.06519
4188.63393,0.06641
4190.56240,0.06468
4192.49087,0.06350
4194.41933,0.06714
4196.34780,0.06975
4198.27627,0.06887
4200.20474,0.06831
4202.13321,0.06517
4204.06168,0.05829
4205.99015,0.05448
4207.91861,0.05577
4209.84708,0.05800
4211.77555,0.05761
4213.70402,0.05523
4215.63249,0.05389
4217.56096,0.05245
4219.48943,0.05176
4221.41789,0.05445
4223.34636,0.05593
4225.27483,0.05484
4227.20330,0.05520
4229.13177,0.05515
4231.06024,0.05206
4232.98871,0.05139
4234.91718,0.05598
4236.84564,0.05702
4238.77411,0.05117
4240.70258,0.04455
4242.63105,0.04026
4244.55952,0.04136
4246.48799,0.04658
4248.41646,0.04914
4250.34492,0.04993
4252.27339,0.05306
4254.20186,0.05491
4256.13033,0.05232
4258.05880,0.04984
4259.98727,0.04957
4261.91574,0.05024
4263.84421,0.05115
4265.77267,0.05110
4267.70114,0.05250
4269.62961,0.05367
4271.55808,0.05092
4273.48655,0.04932
4275.41502,0.05056
4277.34349,0.05170
4279.27195,0.05085
4281.20042,0.04473
4283.12889,0.03815
4285.05736,0.03746
4286.98583,0.03874
4288.91430,0.04068
4290.84277,0.04360
4292.77124,0.04429
4294.69970,0.04562
4296.62817,0.04896
4298.55664,0.04945
4300.48511,0.04644
4302.41358,0.04313
4304.34205,0.04152
4306.27052,0.04155
4308.19898,0.04103
4310.12745,0.03688
4312.05592,0.03200
4313.98439,0.03170
4315.91286,0.03191
4317.84133,0.02871
4319.76980,0.02731
4321.69827,0.03186
4323.62673,0.03520
4325.55520,0.03079
4327.48367,0.02936
4329.41214,0.03850
4331.34061,0.04453
4333.26908,0.03594
4335.19755,0.02305
4337.12601,0.02026
4339.05448,0.02547
4340.98295,0.02893
4342.91142,0.02823
4344.83989,0.02659
4346.76836,0.02534
4348.69683,0.02520
4350.62530,0.02435
4352.55376,0.02026
4354.48223,0.01815
4356.41070,0.02062
4358.33917,0.02506
4360.26764,0.03121
4362.19611,0.03388
4364.12458,0.02642
4366.05304,0.01593
4367.98151,0.01629
4369.90998,0.02521
4371.83845,0.03033
4373.76692,0.03124
4375.69539,0.03061
4377.62386,0.02655
4379.55232,0.02255
4381.48079,0.02072
4383.40926,0.01770
4385.33773,0.01657
4387.26620,0.02087
4389.19467,0.02514
4391.12314,0.02611
4393.05161,0.02225
4394.98007,0.01327
4396.90854,0.00913
4398.83701,0.01354
4400.76548,0.01533
4402.69395,0.01222
4404.62242,0.01391
4406.55089,0.01778
4408.47935,0.01820
4410.40782,0.01981
4412.33629,0.02247
4414.26476,0.02308
4416.19323,0.01952
4418.12170,0.01659
4420.05017,0.02115
4421.97864,0.02150
4423.90710,0.01317
4425.83557,0.01117
4427.76404,0.01460
4429.69251,0.01356
4431.62098,0.01307
4433.54945,0.01462
4435.47792,0.01413
4437.40638,0.01509
4439.33485,0.01557
4441.26332,0.01069
4443.19179,0.00558
4445.12026,0.00309
4447.04873,0.00091
4448.97720,0.00272
4450.90567,0.00535
4452.83413,-0.00070
4454.76260,-0.00663
4456.69107,0.00207
4458.61954,0.01608
4460.54801,0.01641
4462.47648,0.00579
4464.40495,-0.00276
4466.33341,-0.00546
4468.26188,-0.00347
4470.19035,0.00259
4472.11882,0.00960
4474.04729,0.01214
4475.97576,0.01133
4477.90423,0.00815
4479.83270,0.00457
4481.76116,0.00733
4483.68963,0.01479
4485.61810,0.01926
4487.54657,0.01636
4489.47504,0.00886
4491.40351,0.00302
4493.33198,0.00047
4495.26044,-0.00135
4497.18891,-0.00111
4499.11738,0.00261
4501.04585,0.00512
4502.97432,0.00723
4504.90279,0.00920
4506.83126,0.00715
4508.75973,0.00341
4510.68819,-0.00071
4512.61666,-0.00238
4514.54513,0.00211
4516.47360,0.00534
4518.40207,0.00091
4520.33054,-0.00667
4522.25901,-0.00934
4524.18747,-0.00411
4526.11594,0.00429
4528.04441,0.00768
4529.97288,0.00398
4531.90135,-0.00055
4533.82982,-0.00649
4535.75829,-0.01390
4537.68676,-0.01273
4539.61522,-0.00586
4541.54369,-0.00354
4543.47216,-0.00434
4545.40063,-0.00503
4547.32910,-0.00453
4549.25757,-0.00154
4551.18604,0.00146
4553.11450,0.00419
4555.04297,0.01005
4556.97144,0.01425
4558.89991,0.01064
4560.82838,0.00517
4562.75685,0.00632
4564.68532,0.01465
4566.61378,0.02197
4568.54225,0.01934
4570.47072,0.00894
4572.39919,0.00440
4574.32766,0.00686
4576.25613,0.00970
4578.18460,0.00452
4580.11307,-0.00858
4582.04153,-0.01470
4583.97000,-0.00927
4585.89847,-0.00318
4587.82694,0.00146
4589.75541,0.00834
4591.68388,0.01370
4593.61235,0.01739
4595.54081,0.01706
4597.46928,0.00887
4599.39775,0.00342
4601.32622,0.00501
4603.25469,0.00663
4605.18316,0.00958
4607.11163,0.01380
4609.04010,0.00731
4610.96856,-0.00658
4612.89703,-0.00816
4614.82550,-0.00052
4616.75397,0.00007
4618.68244,0.00032
4620.61091,0.00995
4622.53938,0.01685
4624.46784,0.01420
4626.39631,0.01070
4628.32478,0.00863
4630.25325,0.00583
4632.18172,0.00325
4634.11019,0.00103
4636.03866,0.00171
4637.96713,0.00751
4639.89559,0.01484
4641.82406,0.01690
4643.75253,0.01091
4645.68100,0.00333
4647.60947,0.00395
4649.53794,0.01125
4651.46641,0.01361
4653.39487,0.01115
4655.32334,0.01325
4657.25181,0.01880
4659.18028,0.01642
4661.10875,0.00539
4663.03722,0.00261
4664.96569,0.01211
4666.89416,0.01799
4668.82262,0.01607
4670.75109,0.01064
4672.67956,0.00412
4674.60803,0.00259
4676.53650,0.00100
4678.46497,-0.00716
4680.39344,-0.01252
4682.32190,-0.01106
4684.25037,-0.00731
4686.17884,-0.00223
4688.10731,0.00228
4690.03578,0.00133
4691.96425,-0.00064
4693.89272,0.00301
4695.82119,0.00952
4697.74965,0.01589
4699.67812,0.02056
4701.60659,0.01767
4703.53506,0.00677
4705.46353,0.00086
4707.39200,0.00794
4709.32047,0.01920
4711.24893,0.01874
4713.17740,0.00754
4715.10587,-0.00108
4717.03434,-0.00746
4718.96281,-0.01294
4720.89128,-0.00998
4722.81975,-0.00008
4724.74821,0.00433
4726.67668,0.00359
4728.60515,0.00813
4730.53362,0.01666
4732.46209,0.02098
4734.39056,0.01873
4736.31903,0.01233
4738.24750,0.00667
4740.17596,0.00744
4742.10443,0.00653
4744.03290,-0.00185
4745.96137,-0.00734
4747.88984,-0.00646
4749.81831,-0.00355
4751.74678,-0.00029
4753.67524,0.00104
4755.60371,0.00139
4757.53218,0.00513
4759.46065,0.00865
4761.38912,0.00960
4763.31759,0.00923
4765.24606,0.00299
4767.17453,-0.00534
4769.10299,-0.00356
4771.03146,0.00854
4772.95993,0.01783
4774.88840,0.01535
4776.81687,0.00481
4778.74534,0.00139
4780.67381,0.00942
4782.60227,0.01215
4784.53074,0.00821
4786.45921,0.00398
4788.38768,-0.00253
4790.31615,-0.00708
4792.24462,-0.00699
4794.17309,-0.00223
4796.10156,0.00055
4798.03002,-0.00041
4799.95849,0.00768
4801.88696,0.01950
4803.81543,0.01783
4805.74390,0.00758
4807.67237,0.00716
4809.60084,0.01671
4811.52930,0.01689
4813.45777,0.00064
4815.38624,-0.01332
4817.31471,-0.01423
4819.24318,-0.01131
4821.17165,-0.00187
4823.10012,0.01119
4825.02859,0.01209
4826.95705,0.00891
4828.88552,0.01159
4830.81399,0.00881
4832.74246,0.00156
4834.67093,0.00239
4836.59940,0.00957
4838.52787,0.01292
4840.45633,0.00814
4842.38480,0.00430
4844.31327,0.00429
4846.24174,-0.00221
4848.17021,-0.00259
4850.09868,0.01534
4852.02715,0.02855
4853.95562,0.02264
4855.88408,0.00953
4857.81255,0.00380
4859.74102,0.00257
4861.66949,-0.00227
4863.59796,0.00112
4865.52643,0.01326
4867.45490,0.02022
4869.38336,0.02309
4871.31183,0.02367
4873.24030,0.01726
4875.16877,0.00409
4877.09724,-0.00783
4879.02571,-0.01033
4880.95418,-0.00488
4882.88265,0.00320
4884.81111,0.01052
4886.73958,0.01629
4888.66805,0.01871
4890.59652,0.01745
4892.52499,0.01578
4894.45346,0.00998
4896.38193,-0.00298
4898.31039,-0.01403
4900.23886,-0.01907
4902.16733,-0.02164
4904.09580,-0.01797
4906.02427,-0.00833
4907.95274,-0.00164
4909.88121,-0.00310
4911.80967,-0.00741
4913.73814,-0.00596
4915.66661,-0.00272
4917.59508,-0.00568
4919.52355,-0.01210
4921.45202,-0.01472
4923.38049,-0.00963
4925.30896,0.00216
4927.23742,0.01311
4929.16589,0.01477
4931.09436,0.00759
4933.02283,0.00191
4934.95130,0.00026
4936.87977,-0.00803
4938.80824,-0.01991
4940.73670,-0.01766
4942.66517,0.00011
4944.59364,0.01405
4946.52211,0.01276
4948.45058,0.00309
4950.37905,-0.00205
4952.30752,0.00379
4954.23599,0.01581
4956.16445,0.02361
4958.09292,0.01686
4960.02139,0.00208
4961.94986,0.00131
4963.87833,0.01029
4965.80680,0.01213
4967.73527,0.01288
4969.66373,0.01356
4971.59220,0.01317
4973.52067,0.02159
4975.44914,0.03266
4977.37761,0.03282
4979.30608,0.02001
4981.23455,0.00418
4983.16302,-0.00255
4985.09148,-0.00218
4987.01995,0.00158
4988.94842,0.00657
4990.87689,0.00763
4992.80536,0.00648
4994.73383,0.00678
4996.66230,0.00764
4998.59076,0.00448
5000.51923,0.00124
5002.44770,0.00186
5004.37617,-0.00202
5006.30464,0.00072
5008.23311,0.01814
5010.16158,0.02402
5012.09005,0.00782
5014.01851,-0.00352
5015.94698,0.00536
5017.87545,0.01473
5019.80392,0.01889
5021.73239,0.02556
5023.66086,0.01822
5025.58933,0.00026
5027.51779,-0.00161
5029.44626,0.01119
5031.37473,0.02218
5033.30320,0.02607
5035.23167,0.02497
5037.16014,0.01670
5039.08861,0.00377
5041.01708,-0.00322
5042.94554,-0.00642
5044.87401,-0.00458
5046.80248,0.00909
5048.73095,0.02179
5050.65942,0.02005
5052.58789,0.00698
5054.51636,-0.00318
5056.44482,0.00141
5058.37329,0.01176
5060.30176,0.01105
5062.23023,0.00177
5064.15870,-0.00284
5066.08717,-0.00079
5068.01564,0.00321
5069.94410,0.01287
5071.87257,0.02648
5073.80104,0.02678
5075.72951,0.01138
5077.65798,0.00271
5079.58645,0.01567
5081.51492,0.03059
5083.44339,0.02482
5085.37185,0.01017
5087.30032,0.00431
5089.22879,0.00914
5091.15726,0.01963
5093.08573,0.02452
5095.01420,0.01506
5096.94267,0.00055
5098.87113,-0.00104
5100.79960,0.01187
5102.72807,0.02035
5104.65654,0.01681
5106.58501,0.01480
5108.51348,0.01015
5110.44195,-0.00117
5112.37042,0.00029
5114.29888,0.01160
5116.22735,0.01545
5118.15582,0.01507
5120.08429,0.01160
5122.01276,0.00169
5123.94123,-0.00093
5125.86970,0.00894
5127.79816,0.01319
5129.72663,0.00537
5131.65510,0.00218
5133.58357,0.01674
5135.51204,0.03407
5137.44051,0.03380
5139.36898,0.02619
5141.29745,0.02706
5143.22591,0.03120
5145.15438,0.03282
5147.08285,0.03501
5149.01132,0.03922
5150.93979,0.04123
5152.86826,0.03967
5154.79673,0.03846
5156.72519,0.03496
5158.65366,0.02764
5160.58213,0.02258
5162.51060,0.02310
5164.43907,0.02684
5166.36754,0.02870
5168.29601,0.02634
5170.22448,0.02014
5172.15294,0.01494
5174.08141,0.01603
5176.00988,0.02604
5177.93835,0.04110
5179.86682,0.04398
5181.79529,0.02880
5183.72376,0.01449
5185.65222,0.01556
5187.58069,0.02440
5189.50916,0.02906
5191.43763,0.02868
5193.36610,0.02398
5195.29457,0.01411
5197.22304,0.00443
5199.15151,0.00331
5201.07997,0.01191
5203.00844,0.01872
5204.93691,0.01338
5206.86538,0.00924
5208.79385,0.01669
5210.72232,0.01949
5212.65079,0.01389
5214.57925,0.00446
5216.50772,-0.00164
5218.43619,0.00960
5220.36466,0.02959
5222.29313,0.03545
5224.22160,0.02481
5226.15007,0.01454
5228.07854,0.01489
5230.00700,0.01114
5231.93547,0.00699
5233.86394,0.01585
5235.79241,0.01867
5237.72088,0.00525
5239.64935,-0.00245
5241.57782,0.00545
5243.50628,0.01538
5245.43475,0.02280
5247.36322,0.03475
5249.29169,0.03930
5251.22016,0.02743
5253.14863,0.02199
5255.07710,0.03027
5257.00556,0.03119
5258.93403,0.01573
5260.86250,0.00260
5262.79097,0.01410
5264.71944,0.03530
5266.64791,0.04570
5268.57638,0.04600
5270.50485,0.03387
5272.43331,0.01697
5274.36178,0.00575
5276.29025,0.01137
5278.21872,0.03685
5280.14719,0.05952
5282.07566,0.06231
5284.00413,0.05471
5285.93259,0.04845
5287.86106,0.04253
5289.78953,0.03486
5291.71800,0.02374
5293.64647,0.01741
5295.57494,0.03217
5297.50341,0.05991
5299.43188,0.06714
5301.36034,0.05073
5303.28881,0.04947
5305.21728,0.06717
5307.14575,0.06597
5309.07422,0.03589
5311.00269,0.01242
5312.93116,0.01931
5314.85962,0.03673
5316.78809,0.04076
5318.71656,0.04165
5320.64503,0.05548
5322.57350,0.07157
5324.50197,0.07512
5326.43044,0.07067
5328.35891,0.06588
5330.28737,0.06037
5332.21584,0.04891
5334.14431,0.03624
5336.07278,0.02998
5338.00125,0.02241
5339.92972,0.01622
5341.85819,0.02398
5343.78665,0.04361
5345.71512,0.05912
5347.64359,0.05990
5349.57206,0.05861
5351.50053,0.05948
5353.42900,0.04759
5355.35747,0.03387
5357.28594,0.03770
5359.21440,0.04120
5361.14287,0.03214
5363.07134,0.01595
5364.99981,0.00958
5366.92828,0.03077
5368.85675,0.06033
5370.78522,0.06465
5372.71368,0.05034
5374.64215,0.05413
5376.57062,0.07277
5378.49909,0.08156
5380.42756,0.08200
5382.35603,0.06125
5384.28450,0.02748
5386.21297,0.01051
5388.14143,0.00679
5390.06990,0.01730
5391.99837,0.04828
5393.92684,0.07402
5395.85531,0.07912
5397.78378,0.08834
5399.71225,0.09466
5401.64071,0.07791
5403.56918,0.05268
5405.49765,0.04433
5407.42612,0.05934
5409.35459,0.06991
5411.28306,0.05450
5413.21153,0.03782
5415.13999,0.04227
5417.06846,0.05035
5418.99693,0.05031
5420.92540,0.04323
5422.85387,0.02985
5424.78234,0.02648
5426.71081,0.04044
5428.63928,0.06464
5430.56774,0.08609
5432.49621,0.08012
5434.42468,0.05379
5436.35315,0.03439
5438.28162,0.02787
5440.21009,0.02625
5442.13856,0.02459
5444.06702,0.03988
5445.99549,0.07975
5447.92396,0.10723
5449.85243,0.09224
5451.78090,0.06105
5453.70937,0.05000
5455.63784,0.05396
5457.56631,0.05711
5459.49477,0.06329
5461.42324,0.06211
5463.35171,0.05646
5465.28018,0.06979
5467.20865,0.08144
5469.13712,0.07221
5471.06559,0.06574
5472.99405,0.06581
5474.92252,0.05353
5476.85099,0.03185
5478.77946,0.01718
5480.70793,0.01249
5482.63640,0.01995
5484.56487,0.04381
5486.49334,0.06708
5488.42180,0.06893
5490.35027,0.06229
5492.27874,0.05694
5494.20721,0.04913
5496.13568,0.05291
5498.06415,0.06539
5499.99262,0.06753
5501.92108,0.05485
5503.84955,0.03490
5505.77802,0.03067
5507.70649,0.05488
5509.63496,0.07818
5511.56343,0.07783
5513.49190,0.05865
5515.42037,0.04126
5517.34883,0.03475
5519.27730,0.03147
5521.20577,0.03272
5523.13424,0.03522
5525.06271,0.03830
5526.99118,0.05149
5528.91965,0.06620
5530.84811,0.05865
5532.77658,0.03839
5534.70505,0.03671
5536.63352,0.06011
5538.56199,0.10255
5540.49046,0.13783
5542.41893,0.12697
5544.34740,0.08017
5546.27586,0.04583
5548.20433,0.03832
5550.13280,0.03926
5552.06127,0.04542
5553.98974,0.05118
5555.91821,0.04506
5557.84668,0.03801
5559.77514,0.04389
5561.70361,0.06291
5563.63208,0.07590
5565.56055,0.06177
5567.48902,0.04735
5569.41749,0.05750
5571.34596,0.06976
5573.27443,0.06927
5575.20289,0.05268
5577.13136,0.03104
5579.05983,0.02110
5580.98830,0.01913
5582.91677,0.03001
5584.84524,0.05594
5586.77371,0.08471
5588.70217,0.10201
5590.63064,0.08913
5592.55911,0.06134
5594.48758,0.04789
5596.41605,0.04500
5598.34452,0.04353
5600.27299,0.04398
5602.20145,0.05157
5604.12992,0.06835
5606.05839,0.08661
5607.98686,0.10450
5609.91533,0.10670
5611.84380,0.08207
5613.77227,0.06326
5615.70074,0.06880
5617.62920,0.07639
5619.55767,0.07075
5621.48614,0.05581
5623.41461,0.04731
5625.34308,0.06024
5627.27155,0.06513
5629.20002,0.03506
5631.12848,0.02410
5633.05695,0.05554
5634.98542,0.08225
5636.91389,0.08924
5638.84236,0.08986
5640.77083,0.08399
5642.69930,0.07745
5644.62777,0.07504
5646.55623,0.08157
5648.48470,0.09839
5650.41317,0.10843
5652.34164,0.10177
5654.27011,0.08222
5656.19858,0.05322
5658.12705,0.02721
5660.05551,0.01584
5661.98398,0.01760
5663.91245,0.02513
5665.84092,0.03617
5667.76939,0.06172
5669.69786,0.08787
5671.62633,0.07571
5673.55480,0.03643
5675.48326,0.02407
5677.41173,0.05890
5679.34020,0.09522
5681.26867,0.09452
5683.19714,0.07527
5685.12561,0.06580
5687.05408,0.05616
5688.98254,0.02841
5690.91101,0.01583
5692.83948,0.03257
5694.76795,0.04797
5696.69642,0.06048
5698.62489,0.07036
5700.55336,0.06951
5702.48183,0.06745
5704.41029,0.05856
5706.33876,0.03691
5708.26723,0.03622
5710.19570,0.06925
5712.12417,0.09114
5714.05264,0.08037
5715.98111,0.05938
5717.90957,0.03912
5719.83804,0.02236
5721.76651,0.02666
5723.69498,0.04253
5725.62345,0.03995
5727.55192,0.03244
5729.48039,0.04432
5731.40886,0.06280
5733.33732,0.06497
5735.26579,0.05949
5737.19426,0.07316
5739.12273,0.09410
5741.05120,0.10037
5742.97967,0.08754
5744.90814,0.06809
5746.83660,0.07044
5748.76507,0.08632
5750.69354,0.06880
5752.62201,0.02776
5754.55048,0.01990
5756.47895,0.04442
5758.40742,0.07263
5760.33588,0.09469
5762.26435,0.10704
5764.19282,0.11067
5766.12129,0.09420
5768.04976,0.05599
5769.97823,0.02470
5771.90670,0.01930
5773.83517,0.03721
5775.76363,0.06693
5777.69210,0.08554
5779.62057,0.08828
5781.54904,0.10567
5783.47751,0.13001
5785.40598,0.11328
5787.33445,0.06823
5789.26291,0.05379
5791.19138,0.07085
5793.11985,0.07238
5795.04832,0.05431
5796.97679,0.04708
5798.90526,0.05910
5800.83373,0.08131
5802.76220,0.08801
5804.69066,0.07301
5806.61913,0.06252
5808.54760,0.06806
5810.47607,0.08732
5812.40454,0.10010
5814.33301,0.09416
5816.26148,0.08605
5818.18994,0.07254
5820.11841,0.04645
5822.04688,0.03930
5823.97535,0.05977
5825.90382,0.06652
5827.83229,0.04802
5829.76076,0.03976
5831.68923,0.05342
5833.61769,0.05934
5835.54616,0.05019
5837.47463,0.03036
5839.40310,-0.00280
5841.33157,-0.01329
5843.26004,0.01995
5845.18851,0.05776
5847.11697,0.08088
5849.04544,0.09883
5850.97391,0.09321
5852.90238,0.06362
5854.83085,0.04815
5856.75932,0.06218
5858.68779,0.08722
5860.61626,0.09315
5862.54472,0.07509
5864.47319,0.07590
5866.40166,0.10392
5868.33013,0.10647
5870.25860,0.07950
5872.18707,0.06773
5874.11554,0.09478
5876.04400,0.13151
5877.97247,0.10242
5879.90094,0.04093
5881.82941,0.05982
5883.75788,0.11898
5885.68635,0.12192
5887.61482,0.08468
5889.54329,0.06233
5891.47175,0.07029
5893.40022,0.08826
5895.32869,0.09217
5897.25716,0.08016
5899.18563,0.06302
5901.11410,0.05241
5903.04257,0.04057
5904.97103,0.02138
5906.89950,0.02873
5908.82797,0.06091
5910.75644,0.07408
5912.68491,0.07586
5914.61338,0.08078
5916.54185,0.07964
5918.47032,0.07801
5920.39878,0.07618
5922.32725,0.07561
5924.25572,0.09320
5926.18419,0.11619
5928.11266,0.12221
5930.04113,0.12668
5931.96960,0.12851
5933.89806,0.10449
5935.82653,0.07253
5937.75500,0.06604
5939.68347,0.07508
5941.61194,0.07227
5943.54041,0.05666
5945.46888,0.03755
5947.39734,0.01679
5949.32581,0.01144
5951.25428,0.03667
5953.18275,0.07310
5955.11122,0.08909
5957.03969,0.08746
5958.96816,0.09034
5960.89663,0.08897
5962.82509,0.07858
5964.75356,0.07428
5966.68203,0.06848
5968.61050,0.06500
5970.53897,0.08133
5972.46744,0.09623
5974.39591,0.10395
5976.32437,0.11904
5978.25284,0.11894
5980.18131,0.09698
5982.10978,0.07141
5984.03825,0.05700
5985.96672,0.05808
5987.89519,0.06407
5989.82366,0.07915
5991.75212,0.09940
5993.68059,0.10510
5995.60906,0.09139
5997.53753,0.07084
5999.46600,0.06237
6001.39447,0.06393
6003.32294,0.07208
6005.25140,0.08171
6007.17987,0.07276
6009.10834,0.07216
6011.03681,0.10026
6012.96528,0.10613
6014.89375,0.08841
6016.82222,0.10013
6018.75069,0.13196
6020.67915,0.13003
6022.60762,0.08738
6024.53609,0.05616
6026.46456,0.06513
6028.39303,0.07648
6030.32150,0.06380
6032.24997,0.05052
6034.17843,0.04900
6036.10690,0.05231
6038.03537,0.05460
6039.96384,0.04402
6041.89231,0.03667
6043.82078,0.04654
6045.74925,0.04851
6047.67772,0.04776
6049.60618,0.06664
6051.53465,0.09084
6053.46312,0.10234
6055.39159,0.10495
6057.32006,0.09126
6059.24853,0.05510
6061.17700,0.03175
6063.10546,0.04756
6065.03393,0.07049
6066.96240,0.05644
6068.89087,0.01662
6070.81934,0.00079
6072.74781,0.01839
6074.67628,0.02392
6076.60475,0.00540
6078.53321,0.00942
6080.46168,0.03530
6082.39015,0.03692
6084.31862,0.01664
6086.24709,0.00065
6088.17556,-0.00805
6090.10403,0.00499
6092.03249,0.03265
6093.96096,0.04768
6095.88943,0.08331
6097.81790,0.13238
6099.74637,0.12835
6101.67484,0.08418
6103.60331,0.05254
6105.53177,0.02987
6107.46024,0.00179
6109.38871,-0.00971
6111.31718,0.00987
6113.24565,0.03707
6115.17412,0.04297
6117.10259,0.02658
6119.03106,0.02567
6120.95952,0.05931
6122.88799,0.08927
6124.81646,0.09154
6126.74493,0.08417
6128.67340,0.07536
6130.60187,0.04241
6132.53034,0.00985
6134.45880,0.00892
6136.38727,0.00740
6138.31574,0.00220
6140.24421,0.02443
6142.17268,0.06629
6144.10115,0.09174
6146.02962,0.07505
6147.95809,0.05713
6149.88655,0.07589
6151.81502,0.07643
6153.74349,0.03721
6155.67196,0.02127
6157.60043,0.04398
6159.52890,0.08664
6161.45737,0.10544
6163.38583,0.06670
6165.31430,0.02901
6167.24277,0.03856
6169.17124,0.06256
6171.09971,0.06784
6173.02818,0.03877
6174.95665,-0.01328
6176.88512,-0.02849
6178.81358,0.01266
6180.74205,0.06622
6182.67052,0.11329
6184.59899,0.13892
6186.52746,0.13072
6188.45593,0.08876
6190.38440,0.04593
6192.31286,0.03846
6194.24133,0.04729
6196.16980,0.06093
6198.09827,0.07363
6200.02674,0.06378
6201.95521,0.02861
6203.88368,-0.02246
6205.81215,-0.06139
6207.74061,-0.06174
6209.66908,-0.02796
6211.59755,0.01548
6213.52602,0.04358
6215.45449,0.04010
6217.38296,0.02593
6219.31143,0.03186
6221.23989,0.04292
6223.16836,0.07236
6225.09683,0.12236
6227.02530,0.10825
6228.95377,0.04164
6230.88224,0.03413
6232.81071,0.07694
6234.73918,0.07764
6236.66764,0.04607
6238.59611,0.04251
6240.52458,0.07223
6242.45305,0.09398
6244.38152,0.07929
6246.30999,0.04724
6248.23846,0.03960
6250.16692,0.05412
6252.09539,0.05083
6254.02386,0.03658
6255.95233,0.04385
6257.88080,0.05614
6259.80927,0.05375
6261.73774,0.06180
6263.66621,0.08471
6265.59467,0.08968
6267.52314,0.05040
6269.45161,-0.01875
6271.38008,-0.05908
6273.30855,-0.04587
6275.23702,-0.02221
6277.16549,0.00209
6279.09395,0.05185
6281.02242,0.08345
6282.95089,0.06330
6284.87936,0.05469
6286.80783,0.06549
6288.73630,0.03062
6290.66477,-0.01012
6292.59323,-0.00775
6294.52170,-0.00001
6296.45017,0.01128
6298.37864,0.03378
6300.30711,0.04693
6302.23558,0.04369
6304.16405,0.03217
6306.09252,0.03921
6308.02098,0.08020
6309.94945,0.11827
6311.87792,0.11285
6313.80639,0.07193
6315.73486,0.04196
6317.66333,0.04064
6319.59180,0.04286
6321.52026,0.04481
6323.44873,0.05679
6325.37720,0.06899
6327.30567,0.06765
6329.23414,0.05015
6331.16261,0.03823
6333.09108,0.05948
6335.01955,0.08786
6336.94801,0.08426
6338.87648,0.09115
6340.80495,0.11856
6342.73342,0.10783
6344.66189,0.08477
6346.59036,0.06318
6348.51883,0.01091
6350.44729,-0.01032
6352.37576,0.01540
6354.30423,0.04252
6356.23270,0.07349
6358.16117,0.07979
6360.08964,0.05190
6362.01811,0.01124
6363.94658,-0.04470
6365.87504,-0.08002
6367.80351,-0.05637
6369.73198,-0.01104
6371.66045,0.00975
6373.58892,0.00755
6375.51739,0.01235
6377.44586,0.02974
6379.37432,0.05414
6381.30279,0.09185
6383.23126,0.14231
6385.15973,0.16339
6387.08820,0.13058
6389.01667,0.10483
6390.94514,0.12164
6392.87361,0.11696
6394.80207,0.08114
6396.73054,0.07540
6398.65901,0.06839
6400.58748,0.05951
6402.51595,0.09902
6404.44442,0.11379
6406.37289,0.04848
6408.30135,0.02728
6410.22982,0.08602
6412.15829,0.08862
6414.08676,0.04521
6416.01523,0.04040
6417.94370,0.03443
6419.87217,0.01261
6421.80064,0.02427
6423.72910,0.06831
6425.65757,0.10839
6427.58604,0.12998
6429.51451,0.16273
6431.44298,0.19251
6433.37145,0.16490
6435.29992,0.11378
6437.22838,0.10432
6439.15685,0.10545
6441.08532,0.08249
6443.01379,0.08311
6444.94226,0.12523
6446.87073,0.14729
6448.79920,0.12048
6450.72766,0.10738
6452.65613,0.13032
6454.58460,0.13753
6456.51307,0.11125
6458.44154,0.06723
6460.37001,0.02225
6462.29848,-0.02006
6464.22695,-0.01845
6466.15541,0.03815
6468.08388,0.08098
6470.01235,0.08045
6471.94082,0.05426
6473.86929,0.03215
6475.79776,0.03658
6477.72623,0.05466
6479.65469,0.08320
6481.58316,0.10438
6483.51163,0.09290
6485.44010,0.08431
6487.36857,0.08683
6489.29704,0.08654
6491.22551,0.11462
6493.15398,0.15495
6495.08244,0.12475
6497.01091,0.03995
6498.93938,0.00925
6500.86785,0.05792
6502.79632,0.08945
6504.72479,0.08629
6506.65326,0.10026
6508.58172,0.12841
6510.51019,0.12709
6512.43866,0.05010
6514.36713,-0.02560
6516.29560,0.00100
6518.22407,0.07158
6520.15254,0.11193
6522.08101,0.12568
6524.00947,0.12292
6525.93794,0.12526
6527.86641,0.14323
6529.79488,0.13309
6531.72335,0.05907
6533.65182,-0.01396
6535.58029,-0.03417
6537.50875,-0.01994
6539.43722,0.02264
6541.36569,0.03590
6543.29416,-0.00728
6545.22263,-0.00303
6547.15110,0.08298
6549.07957,0.17289
6551.00804,0.19568
6552.93650,0.12893
6554.86497,0.02494
6556.79344,-0.01796
6558.72191,-0.01482
6560.65038,-0.02044
6562.57885,-0.01846
6564.50732,-0.01714
6566.43578,-0.02968
6568.36425,-0.00320
6570.29272,0.07752
6572.22119,0.11848
6574.14966,0.10079
6576.07813,0.10528
6578.00660,0.12691
6579.93507,0.11887
6581.86353,0.07675
6583.79200,0.03685
6585.72047,0.01170
6587.64894,-0.04910
6589.57741,-0.12280
6591.50588,-0.11723
6593.43435,-0.04317
6595.36281,-0.01800
6597.29128,-0.06612
6599.21975,-0.10756
6601.14822,-0.07096
6603.07669,0.00208
6605.00516,0.01412
6606.93363,0.01712
6608.86210,0.11362
6610.79056,0.19761
6612.71903,0.13475
6614.64750,0.04943
6616.57597,0.04506
6618.50444,0.10317
6620.43291,0.17387
6622.36138,0.17040
6624.28984,0.12651
6626.21831,0.13458
6628.14678,0.15547
6630.07525,0.10321
6632.00372,0.03523
6633.93219,0.05970
6635.86066,0.11359
6637.78912,0.12268
6639.71759,0.14952
6641.64606,0.18203
6643.57453,0.15923
6645.50300,0.09127
6647.43147,0.05301
6649.35994,0.06302
6651.28841,0.05307
6653.21687,0.03599
6655.14534,0.05052
6657.07381,0.07122
6659.00228,0.09946
6660.93075,0.13194
6662.85922,0.11761
6664.78769,0.04527
6666.71615,-0.02405
6668.64462,-0.03289
6670.57309,0.00651
6672.50156,0.08142
6674.43003,0.13028
6676.35850,0.07962
6678.28697,0.00148
6680.21544,-0.00190
6682.14390,0.04218
6684.07237,0.06240
6686.00084,0.07002
6687.92931,0.09500
6689.85778,0.08808
6691.78625,0.04438
6693.71472,0.03077
6695.64318,0.06463
6697.57165,0.08845
6699.50012,0.05528
6701.42859,-0.00190
6703.35706,-0.07087
6705.28553,-0.12410
6707.21400,-0.11352
6709.14247,-0.06990
6711.07093,-0.02942
6712.99940,-0.01522
6714.92787,-0.00933
6716.85634,0.04226
6718.78481,0.07722
6720.71328,0.03202
6722.64175,-0.00230
6724.57021,0.02430
6726.49868,0.03650
6728.42715,0.01672
6730.35562,0.04534
6732.28409,0.10271
6734.21256,0.11724
6736.14103,0.11270
6738.06950,0.09263
6739.99796,0.06095
6741.92643,0.05740
6743.85490,0.06894
6745.78337,0.08132
6747.71184,0.05956
6749.64031,-0.02038
6751.56878,-0.07576
6753.49724,-0.05800
6755.42571,-0.00356
6757.35418,0.04898
6759.28265,0.08932
6761.21112,0.12300
6763.13959,0.13116
6765.06806,0.07893
6766.99653,0.02773
6768.92499,0.03207
6770.85346,0.04247
6772.78193,0.06750
6774.71040,0.12542
6776.63887,0.11246
6778.56734,0.04823
6780.49581,0.08884
6782.42427,0.18659
6784.35274,0.19484
6786.28121,0.13364
6788.20968,0.07696
6790.13815,0.05166
6792.06662,0.07770
6793.99509,0.11141
6795.92355,0.11119
6797.85202,0.07950
6799.78049,0.01501
6801.70896,-0.02828
6803.63743,0.01117
6805.56590,0.09756
6807.49437,0.14454
6809.42284,0.11473
6811.35130,0.05839
6813.27977,-0.00975
6815.20824,-0.09178
6817.13671,-0.07973
6819.06518,0.02782
6820.99365,0.10898
6822.92212,0.08688
6824.85058,0.01952
6826.77905,-0.02311
6828.70752,-0.07932
6830.63599,-0.14481
6832.56446,-0.11739
6834.49293,-0.00180
6836.42140,0.04144
6838.34987,-0.02611
6840.27833,-0.03183
6842.20680,0.06819
6844.13527,0.14290
6846.06374,0.10078
6847.99221,-0.02004
6849.92068,-0.09636
6851.84915,-0.09279
6853.77761,-0.06247
6855.70608,-0.01783
6857.63455,-0.01932
6859.56302,-0.04827
6861.49149,-0.05207
6863.41996,-0.03258
6865.34843,0.03385
6867.27690,0.11641
6869.20536,0.12360
6871.13383,0.08367
6873.06230,0.09431
6874.99077,0.11588
6876.91924,0.07620
6878.84771,0.00302
6880.77618,-0.05440
6882.70464,-0.02928
6884.63311,0.03394
6886.56158,0.04709
6888.49005,0.06474
6890.41852,0.13803
6892.34699,0.17754
6894.27546,0.15279
6896.20393,0.13924
6898.13239,0.14051
6900.06086,0.11894
6901.98933,0.07798
6903.91780,0.02485
6905.84627,-0.00429
6907.77474,0.01157
6909.70321,0.04255
6911.63167,0.06668
6913.56014,0.07883
6915.48861,0.08907
6917.41708,0.10743
6919.34555,0.10702
6921.27402,0.04345
6923.20249,-0.03737
6925.13096,-0.04055
6927.05942,0.03173
6928.98789,0.07161
6930.91636,0.02744
6932.84483,-0.00581
6934.77330,0.02578
6936.70177,0.05703
6938.63024,0.04583
6940.55870,0.06566
6942.48717,0.15093
6944.41564,0.19809
6946.34411,0.18731
6948.27258,0.11217
6950.20105,0.02788
6952.12952,0.04782
6954.05799,0.10958
6955.98645,0.09733
6957.91492,0.06583
6959.84339,0.06517
6961.77186,0.07716
6963.70033,0.08441
6965.62880,0.08320
6967.55727,0.08931
6969.48573,0.11915
6971.41420,0.12887
6973.34267,0.04701
6975.27114,-0.05218
6977.19961,-0.03063
6979.12808,0.06500
6981.05655,0.13185
6982.98501,0.10872
6984.91348,0.03340
6986.84195,0.03190
6988.77042,0.08877
6990.69889,0.08708
6992.62736,0.05253
6994.55583,0.01474
6996.48430,-0.04112
6998.41276,-0.05538
7000.34123,-0.04331
7002.26970,-0.05803
7004.19817,-0.04883
7006.12664,-0.03464
7008.05511,-0.03840
7009.98358,-0.02218
7011.91204,0.02240
7013.84051,0.05205
7015.76898,0.04849
7017.69745,0.04188
7019.62592,0.02239
7021.55439,-0.01001
7023.48286,0.00487
7025.41133,0.06107
7027.33979,0.08752
7029.26826,0.06986
7031.19673,0.06605
7033.12520,0.06880
7035.05367,0.03431
7036.98214,-0.02090
7038.91061,-0.08419
7040.83907,-0.18257
7042.76754,-0.21324
7044.69601,-0.11950
7046.62448,-0.04497
7048.55295,-0.00821
7050.48142,0.01450
7052.40989,0.03571
7054.33836,0.11718
7056.26682,0.21834
7058.19529,0.23127
7060.12376,0.17220
7062.05223,0.11011
7063.98070,0.01154
7065.90917,-0.13219
7067.83764,-0.19287
7069.76610,-0.04976
7071.69457,0.17541
7073.62304,0.21579
7075.55151,0.08972
7077.47998,-0.02636
7079.40845,-0.06317
7081.33692,-0.02790
7083.26539,0.03723
7085.19385,0.06993
7087.12232,0.04888
7089.05079,-0.00173
7090.97926,-0.01327
7092.90773,0.03699
7094.83620,0.11737
7096.76467,0.16561
7098.69313,0.11896
7100.62160,0.03089
7102.55007,-0.04152
7104.47854,-0.07417
7106.40701,-0.03272
7108.33548,-0.00583
7110.26395,-0.02081
7112.19242,-0.00473
7114.12088,-0.00659
7116.04935,-0.08997
7117.97782,-0.13552
7119.90629,-0.05734
7121.83476,0.01739
7123.76323,0.03642
7125.69170,0.01692
7127.62016,0.00154
7129.54863,0.00506
7131.47710,0.00396
7133.40557,-0.00075
7135.33404,-0.00319
7137.26251,-0.00487
7139.19098,-0.00440
7141.11944,0.01490
7143.04791,0.01062
7144.97638,-0.03170
7146.90485,0.07027
7148.83332,0.25060
7150.76179,0.26295
7152.69026,0.09997
7154.61873,-0.03987
7156.54719,-0.00591
7158.47566,0.08447
7160.40413,0.12110
7162.33260,0.11635
7164.26107,0.11301
7166.18954,0.14266
7168.11801,0.18818
7170.04647,0.14635
7171.97494,-0.00067
7173.90341,-0.03142
7175.83188,0.14351
7177.76035,0.23683
7179.68882,0.06213
7181.61729,-0.21152
7183.54576,-0.34168
7185.47422,-0.22906
7187.40269,-0.03146
7189.33116,0.08788
7191.25963,0.04748
7193.18810,-0.08970
7195.11657,-0.20534
7197.04504,-0.22773
7198.97350,-0.11626
7200.90197,0.05007
7202.83044,0.18295
7204.75891,0.20210
7206.68738,0.04761
7208.61585,-0.07106
7210.54432,-0.03973
7212.47279,0.02952
7214.40125,0.03148
7216.32972,-0.04130
7218.25819,-0.10123
7220.18666,-0.03440
7222.11513,0.06132
7224.04360,0.04864
7225.97207,-0.00248
7227.90053,0.08902
7229.82900,0.17416
7231.75747,0.12460
7233.68594,0.10796
7235.61441,0.10140
7237.54288,-0.02367
7239.47135,-0.16957
7241.39982,-0.13495
7243.32828,0.05780
7245.25675,0.17076
7247.18522,0.24905
7249.11369,0.40845
7251.04216,0.53973
7252.97063,0.40980
7254.89910,0.10292
7256.82756,-0.05011
7258.75603,-0.06346
7260.68450,-0.04617
7262.61297,-0.06499
7264.54144,-0.18558
7266.46991,-0.28889
7268.39838,-0.20553
7270.32685,0.00701
7272.25531,0.07845
7274.18378,-0.08754
7276.11225,-0.16209
7278.04072,-0.09763
7279.96919,0.01020
7281.89766,0.08609
7283.82613,0.10962
7285.75459,0.12073
7287.68306,0.16054
7289.61153,0.15352
7291.54000,0.04117
7293.46847,-0.07949
7295.39694,-0.15504
7297.32541,-0.18474
7299.25387,-0.13194
7301.18234,-0.00863
7303.11081,0.14712
7305.03928,0.24489
7306.96775,0.18455
7308.89622,0.00216
7310.82469,-0.12112
7312.75316,-0.07869
7314.68162,0.04023
7316.61009,0.02081
7318.53856,-0.17628
7320.46703,-0.25761
7322.39550,-0.12499
7324.32397,0.03597
7326.25244,0.09093
7328.18090,0.05083
7330.10937,-0.04279
7332.03784,-0.02857
7333.96631,0.01567
7335.89478,-0.08377
7337.82325,-0.23846
7339.75172,-0.14413
7341.68019,0.15790
7343.60865,0.25003
7345.53712,0.20988
7347.46559,0.18447
7349.39406,0.27863
7351.32253,0.38152
7353.25100,0.27836
7355.17947,0.09659
7357.10793,0.14696
7359.03640,0.40990
7360.96487,0.43973
7362.89334,0.28943
7364.82181,0.30769
7366.75028,0.39043
7368.67875,0.26690
7370.60722,0.08189
7372.53568,0.05205
7374.46415,0.09195
7376.39262,0.09355
7378.32109,0.08305
7380.24956,0.03190
7382.17803,-0.02291
7384.10650,0.04063
7386.03496,0.20318
7387.96343,0.31429
7389.89190,0.27203
7391.82037,0.15910
7393.74884,0.12348
7395.67731,0.09612
7397.60578,-0.03476
7399.53425,-0.09167
7401.46271,-0.03315
7403.39118,0.01027
7405.31965,0.01193
7407.24812,0.02029
7409.17659,0.00801
7411.10506,-0.04293
7413.03353,-0.08539
7414.96199,-0.12451
7416.89046,-0.18407
7418.81893,-0.09790
7420.74740,0.11850
7422.67587,0.16362
7424.60434,0.13746
7426.53281,0.12946
7428.46128,0.07474
7430.38974,-0.00816
7432.31821,-0.07736
7434.24668,-0.18677
7436.17515,-0.29014
7438.10362,-0.29930
7440.03209,-0.20266
7441.96056,-0.00240
7443.88902,0.19950
7445.81749,0.31286
7447.74596,0.27790
7449.67443,0.14262
7451.60290,0.08556
7453.53137,0.16396
7455.45984,0.30355
7457.38831,0.41230
7459.31677,0.33060
7461.24524,0.10779
7463.17371,0.07666
7465.10218,0.15781
7467.03065,0.17393
7468.95912,0.19294
7470.88759,0.21851
7472.81605,0.22556
7474.74452,0.25479
7476.67299,0.26651
7478.60146,0.23504
7480.52993,0.23062
7482.45840,0.19580
7484.38687,0.08513
7486.31533,0.02012
7488.24380,0.06526
7490.17227,0.16074
7492.10074,0.16973
7494.02921,0.11889
7495.95768,0.09646
7497.88615,0.05676
