399.19301,0.49036
401.12148,0.28363
403.04995,0.16428
404.97842,0.17879
406.90689,0.09930
408.83536,0.00155
410.76382,0.05201
412.69229,0.07085
414.62076,-0.03662
416.54923,-0.10448
418.47770,-0.02585
420.40617,0.06202
422.33464,0.06191
424.26311,0.08292
426.19157,0.09997
428.12004,0.07918
430.04851,0.03368
431.97698,-0.05520
433.90545,-0.10819
435.83392,-0.06564
437.76239,-0.00577
439.69085,0.00838
441.61932,-0.00527
443.54779,-0.05913
445.47626,-0.10016
447.40473,-0.00454
449.33320,0.12354
451.26167,0.12805
453.19013,0.07399
455.11860,0.02129
457.04707,-0.03803
458.97554,-0.03525
460.90401,0.02069
462.83248,0.04286
464.76095,0.04709
466.68942,0.06952
468.61788,0.10251
470.54635,0.12878
472.47482,0.12697
474.40329,0.12009
476.33176,0.10163
478.26023,0.06241
480.18870,0.05268
482.11716,0.04711
484.04563,0.01853
485.97410,0.04359
487.90257,0.12446
489.83104,0.15723
491.75951,0.12575
493.68798,0.10082
495.61645,0.10171
497.54491,0.09746
499.47338,0.08431
501.40185,0.07962
503.33032,0.07331
505.25879,0.05014
507.18726,0.03038
509.11573,0.05343
511.04419,0.09784
512.97266,0.10894
514.90113,0.09453
516.82960,0.07916
518.75807,0.05362
520.68654,0.04233
522.61501,0.06551
524.54348,0.09567
526.47194,0.09638
528.40041,0.06596
530.32888,0.04703
532.25735,0.04912
534.18582,0.03663
536.11429,0.02419
538.04276,0.03366
539.97122,0.05275
541.89969,0.08355
543.82816,0.10870
545.75663,0.10541
547.68510,0.09116
549.61357,0.08879
551.54204,0.10231
553.47051,0.12129
555.39897,0.12107
557.32744,0.10250
559.25591,0.10547
561.18438,0.12731
563.11285,0.11916
565.04132,0.08070
566.96979,0.04943
568.89825,0.05671
570.82672,0.09161
572.75519,0.08954
574.68366,0.05262
576.61213,0.04776
578.54060,0.07391
580.46907,0.08736
582.39754,0.08381
584.32600,0.09218
586.25447,0.10218
588.18294,0.09684
590.11141,0.10065
592.03988,0.11449
593.96835,0.11193
595.89682,0.09448
597.82528,0.08041
599.75375,0.07677
601.68222,0.07646
603.61069,0.07776
605.53916,0.08623
607.46763,0.09190
609.39610,0.08110
611.32456,0.06558
613.25303,0.06232
615.18150,0.07063
617.10997,0.07801
619.03844,0.06824
620.96691,0.05462
622.89538,0.05737
624.82385,0.06479
626.75231,0.06926
628.68078,0.07488
630.60925,0.08087
632.53772,0.08751
634.46619,0.09800
636.39466,0.10279
638.32313,0.09069
640.25159,0.07749
642.18006,0.07922
644.10853,0.08764
646.03700,0.08816
647.96547,0.07355
649.89394,0.06161
651.82241,0.06858
653.75088,0.08236
655.67934,0.08869
657.60781,0.08650
659.53628,0.08553
661.46475,0.08668
663.39322,0.08379
665.32169,0.07946
667.25016,0.08358
669.17862,0.09903
671.10709,0.10162
673.03556,0.10004
674.96403,0.10489
676.89250,0.10723
678.82097,0.09303
680.74944,0.07275
682.67791,0.07412
684.60637,0.08811
686.53484,0.09405
688.46331,0.09610
690.39178,0.09184
692.32025,0.07772
694.24872,0.06614
696.17719,0.06956
698.10565,0.07926
700.03412,0.08058
701.96259,0.07797
703.89106,0.07678
705.81953,0.07926
707.74800,0.08944
709.67647,0.10559
711.60494,0.11250
713.53340,0.09981
715.46187,0.08924
717.39034,0.09476
719.31881,0.10374
721.24728,0.10467
723.17575,0.09435
725.10422,0.08002
727.03268,0.07336
728.96115,0.07821
730.88962,0.08889
732.81809,0.09794
734.74656,0.09911
736.67503,0.09505
738.60350,0.09275
740.53197,0.09481
742.46043,0.09996
744.38890,0.10036
746.31737,0.09595
748.24584,0.09444
750.17431,0.09609
752.10278,0.09853
754.03125,0.09955
755.95971,0.09804
757.88818,0.09789
759.81665,0.09827
761.74512,0.09709
763.67359,0.09778
765.60206,0.09758
767.53053,0.09773
769.45900,0.10001
771.38746,0.09594
773.31593,0.09247
775.24440,0.09783
777.17287,0.10017
779.10134,0.09713
781.02981,0.09166
782.95828,0.08398
784.88674,0.08428
786.81521,0.09200
788.74368,0.09666
790.67215,0.09949
792.60062,0.10850
794.52909,0.12110
796.45756,0.12508
798.38602,0.11911
800.31449,0.10989
802.24296,0.10454
804.17143,0.10476
806.09990,0.10319
808.02837,0.09868
809.95684,0.09878
811.88531,0.10298
813.81377,0.10528
815.74224,0.10847
817.67071,0.11657
819.59918,0.11910
821.52765,0.10833
823.45612,0.09668
825.38459,0.09371
827.31305,0.09675
829.24152,0.09828
831.16999,0.09426
833.09846,0.09195
835.02693,0.09344
836.95540,0.09339
838.88387,0.09390
840.81234,0.09632
842.74080,0.10029
844.66927,0.10772
846.59774,0.11279
848.52621,0.11332
850.45468,0.11434
852.38315,0.11577
854.31162,0.11334
856.24008,0.10340
858.16855,0.09926
860.09702,0.11149
862.02549,0.12198
863.95396,0.11923
865.88243,0.11248
867.81090,0.10424
869.73937,0.09412
871.66783,0.09208
873.59630,0.09773
875.52477,0.09944
877.45324,0.09921
879.38171,0.10393
881.31018,0.10841
883.23865,0.11054
885.16711,0.11235
887.09558,0.10737
889.02405,0.09591
890.95252,0.08728
892.88099,0.08627
894.80946,0.09238
896.73793,0.10235
898.66640,0.11506
900.59486,0.12308
902.52333,0.11836
904.45180,0.11428
906.38027,0.12133
908.30874,0.12973
910.23721,0.13226
912.16568,0.12764
914.09414,0.11922
916.02261,0.11271
917.95108,0.10929
919.87955,0.10861
921.80802,0.10899
923.73649,0.11128
925.66496,0.11638
927.59343,0.11889
929.52189,0.11759
931.45036,0.11846
933.37883,0.12315
935.30730,0.12545
937.23577,0.12176
939.16424,0.12048
941.09271,0.12299
943.02117,0.11655
944.94964,0.10739
946.87811,0.10994
948.80658,0.11399
950.73505,0.11013
952.66352,0.10471
954.59199,0.10156
956.52045,0.10100
958.44892,0.10694
960.37739,0.11668
962.30586,0.12101
964.23433,0.12191
966.16280,0.12544
968.09127,0.12761
970.01974,0.12330
971.94820,0.11840
973.87667,0.11816
975.80514,0.12014
977.73361,0.12518
979.66208,0.12944
981.59055,0.12851
983.51902,0.12722
985.44748,0.12910
987.37595,0.13223
989.30442,0.13187
991.23289,0.12559
993.16136,0.11825
995.08983,0.11969
997.01830,0.12604
998.94677,0.12270
1000.87523,0.11405
1002.80370,0.11368
1004.73217,0.12019
1006.66064,0.12543
1008.58911,0.12890
1010.51758,0.13208
1012.44605,0.13236
1014.37451,0.13104
1016.30298,0.13149
1018.23145,0.13458
1020.15992,0.13791
1022.08839,0.13616
1024.01686,0.12817
1025.94533,0.11228
1027.87380,0.09895
1029.80226,0.10346
1031.73073,0.10963
1033.65920,0.10630
1035.58767,0.10705
1037.51614,0.11691
1039.44461,0.12983
1041.37308,0.13577
1043.30154,0.13442
1045.23001,0.13837
1047.15848,0.14672
1049.08695,0.14517
1051.01542,0.13367
1052.94389,0.12391
1054.87236,0.12378
1056.80083,0.13040
1058.72929,0.13410
1060.65776,0.13582
1062.58623,0.13947
1064.51470,0.14156
1066.44317,0.14093
1068.37164,0.13693
1070.30011,0.12920
1072.22857,0.12524
1074.15704,0.12949
1076.08551,0.13465
1078.01398,0.13682
1079.94245,0.14076
1081.87092,0.14593
1083.79939,0.14514
1085.72786,0.14019
1087.65632,0.13820
1089.58479,0.13520
1091.51326,0.12999
1093.44173,0.13073
1095.37020,0.13566
1097.29867,0.13647
1099.22714,0.12940
1101.15560,0.11689
1103.08407,0.11015
1105.01254,0.11603
1106.94101,0.12687
1108.86948,0.13361
1110.79795,0.13747
1112.72642,0.14221
1114.65489,0.14412
1116.58335,0.13918
1118.51182,0.13353
1120.44029,0.13510
1122.36876,0.13883
1124.29723,0.13738
1126.22570,0.13342
1128.15417,0.13097
1130.08263,0.13041
1132.01110,0.13210
1133.93957,0.13338
1135.86804,0.13136
1137.79651,0.12899
1139.72498,0.12574
1141.65345,0.12147
1143.58191,0.12099
1145.51038,0.12509
1147.43885,0.13225
1149.36732,0.13759
1151.29579,0.13635
1153.22426,0.13281
1155.15273,0.13213
1157.08120,0.13333
1159.00966,0.13562
1160.93813,0.13827
1162.86660,0.13758
1164.79507,0.13517
1166.72354,0.13571
1168.65201,0.13770
1170.58048,0.13781
1172.50894,0.13767
1174.43741,0.14023
1176.36588,0.14356
1178.29435,0.14472
1180.22282,0.14491
1182.15129,0.14452
1184.07976,0.14280
1186.00823,0.14377
1187.93669,0.14722
1189.86516,0.14636
1191.79363,0.14164
1193.72210,0.13857
1195.65057,0.13912
1197.57904,0.14143
1199.50751,0.14300
1201.43597,0.14159
1203.36444,0.13743
1205.29291,0.13502
1207.22138,0.13574
1209.14985,0.13716
1211.07832,0.13853
1213.00679,0.14023
1214.93526,0.14249
1216.86372,0.14503
1218.79219,0.14684
1220.72066,0.14753
1222.64913,0.14788
1224.57760,0.14799
1226.50607,0.14654
1228.43454,0.14371
1230.36300,0.14231
1232.29147,0.14198
1234.21994,0.13858
1236.14841,0.13292
1238.07688,0.13044
1240.00535,0.13233
1241.93382,0.13583
1243.86229,0.13834
1245.79075,0.13917
1247.71922,0.14159
1249.64769,0.14463
1251.57616,0.14224
1253.50463,0.13631
1255.43310,0.13358
1257.36157,0.13424
1259.29003,0.13536
1261.21850,0.13634
1263.14697,0.13758
1265.07544,0.13829
1267.00391,0.13512
1268.93238,0.13167
1270.86085,0.13496
1272.78932,0.13958
1274.71778,0.14029
1276.64625,0.14225
1278.57472,0.14591
1280.50319,0.14414
1282.43166,0.13850
1284.36013,0.13751
1286.28860,0.13978
1288.21706,0.14161
1290.14553,0.14497
1292.07400,0.14590
1294.00247,0.14112
1295.93094,0.13513
1297.85941,0.13012
1299.78788,0.12166
1301.71634,0.10388
1303.64481,0.08487
1305.57328,0.08758
1307.50175,0.11473
1309.43022,0.13837
1311.35869,0.14668
1313.28716,0.15092
1315.21563,0.15293
1317.14409,0.15161
1319.07256,0.14832
1321.00103,0.14465
1322.92950,0.14414
1324.85797,0.14284
1326.78644,0.14021
1328.71491,0.14211
1330.64337,0.14104
1332.57184,0.13637
1334.50031,0.13686
1336.42878,0.13946
1338.35725,0.13899
1340.28572,0.11627
1342.21419,0.07996
1344.14266,0.06681
1346.07112,0.08146
1347.99959,0.11207
1349.92806,0.13493
1351.85653,0.14028
1353.78500,0.14148
1355.71347,0.14260
1357.64194,0.14519
1359.57040,0.14856
1361.49887,0.15104
1363.42734,0.15173
1365.35581,0.14908
1367.28428,0.14826
1369.21275,0.15175
1371.14122,0.15773
1373.06969,0.16418
1374.99815,0.16550
1376.92662,0.16072
1378.85509,0.15826
1380.78356,0.15948
1382.71203,0.16124
1384.64050,0.16393
1386.56897,0.16639
1388.49743,0.16457
1390.42590,0.16234
1392.35437,0.16519
1394.28284,0.17166
1396.21131,0.17657
1398.13978,0.17429
1400.06825,0.16653
1401.99672,0.16175
1403.92518,0.16284
1405.85365,0.16521
1407.78212,0.16504
1409.71059,0.16533
1411.63906,0.16657
1413.56753,0.16746
1415.49600,0.17042
1417.42446,0.17674
1419.35293,0.17877
1421.28140,0.17418
1423.20987,0.17090
1425.13834,0.16795
1427.06681,0.16637
1428.99528,0.16855
1430.92375,0.17189
1432.85221,0.17514
1434.78068,0.17878
1436.70915,0.17695
1438.63762,0.16863
1440.56609,0.16371
1442.49456,0.16356
1444.42303,0.16661
1446.35149,0.17080
1448.27996,0.17356
1450.20843,0.17478
1452.13690,0.17706
1454.06537,0.18280
1455.99384,0.19436
1457.92231,0.20054
1459.85077,0.19054
1461.77924,0.18331
1463.70771,0.18137
1465.63618,0.17821
1467.56465,0.17473
1469.49312,0.17792
1471.42159,0.19133
1473.35006,0.20264
1475.27852,0.19646
1477.20699,0.18647
1479.13546,0.17974
1481.06393,0.17646
1482.99240,0.17574
1484.92087,0.17790
1486.84934,0.18472
1488.77780,0.19372
1490.70627,0.19268
1492.63474,0.18505
1494.56321,0.18519
1496.49168,0.19250
1498.42015,0.19076
1500.34862,0.17448
1502.27709,0.16676
1504.20555,0.18528
1506.13402,0.22034
1508.06249,0.21830
1509.99096,0.19932
1511.91943,0.19284
1513.84790,0.19714
1515.77637,0.20847
1517.70483,0.21316
1519.63330,0.21111
1521.56177,0.21167
1523.49024,0.20735
1525.41871,0.19592
1527.34718,0.18305
1529.27565,0.17754
1531.20412,0.18257
1533.13258,0.19202
1535.06105,0.19545
1536.98952,0.20014
1538.91799,0.21845
1540.84646,0.23157
1542.77493,0.21791
1544.70340,0.20231
1546.63186,0.19079
1548.56033,0.18759
1550.48880,0.18799
1552.41727,0.18871
1554.34574,0.19466
1556.27421,0.20826
1558.20268,0.22914
1560.13115,0.22027
1562.05961,0.19748
1563.98808,0.18603
1565.91655,0.18182
1567.84502,0.18580
1569.77349,0.19359
1571.70196,0.19362
1573.63043,0.19153
1575.55889,0.19110
1577.48736,0.18549
1579.41583,0.17893
1581.34430,0.17596
1583.27277,0.17575
1585.20124,0.17767
1587.12971,0.17966
1589.05818,0.17975
1590.98664,0.17868
1592.91511,0.17743
1594.84358,0.17494
1596.77205,0.17270
1598.70052,0.17408
1600.62899,0.17672
1602.55746,0.17591
1604.48592,0.17481
1606.41439,0.17804
1608.34286,0.18171
1610.27133,0.18168
1612.19980,0.18119
1614.12827,0.18701
1616.05674,0.19940
1617.98521,0.20060
1619.91367,0.19463
1621.84214,0.19638
1623.77061,0.19864
1625.69908,0.19622
1627.62755,0.19286
1629.55602,0.18744
1631.48449,0.18613
1633.41295,0.19429
1635.34142,0.20688
1637.26989,0.20416
1639.19836,0.19316
1641.12683,0.18851
1643.05530,0.19148
1644.98377,0.20237
1646.91223,0.21573
1648.84070,0.21617
1650.76917,0.21803
1652.69764,0.23083
1654.62611,0.22011
1656.55458,0.19497
1658.48305,0.17794
1660.41152,0.17248
1662.33998,0.17956
1664.26845,0.18697
1666.19692,0.19324
1668.12539,0.20575
1670.05386,0.21314
1671.98233,0.20782
1673.91080,0.20412
1675.83926,0.20122
1677.76773,0.19898
1679.69620,0.20220
1681.62467,0.21031
1683.55314,0.21912
1685.48161,0.21350
1687.41008,0.20126
1689.33855,0.19514
1691.26701,0.19383
1693.19548,0.19742
1695.12395,0.20794
1697.05242,0.21735
1698.98089,0.21719
1700.90936,0.20972
1702.83783,0.20358
1704.76629,0.20270
1706.69476,0.19777
1708.62323,0.18882
1710.55170,0.18574
1712.48017,0.19226
1714.40864,0.20954
1716.33711,0.22674
1718.26558,0.21729
1720.19404,0.19920
1722.12251,0.19171
1724.05098,0.18792
1725.97945,0.18424
1727.90792,0.18475
1729.83639,0.19041
1731.76486,0.19780
1733.69332,0.20441
1735.62179,0.20375
1737.55026,0.20069
1739.47873,0.20008
1741.40720,0.19986
1743.33567,0.19924
1745.26414,0.19914
1747.19261,0.20261
1749.12107,0.20842
1751.04954,0.20505
1752.97801,0.19345
1754.90648,0.18626
1756.83495,0.18608
1758.76342,0.18746
1760.69189,0.18777
1762.62035,0.18588
1764.54882,0.18207
1766.47729,0.18192
1768.40576,0.18761
1770.33423,0.19707
1772.26270,0.20168
1774.19117,0.19406
1776.11964,0.18597
1778.04810,0.18505
1779.97657,0.18783
1781.90504,0.18615
1783.83351,0.17995
1785.76198,0.17496
1787.69045,0.17629
1789.61892,0.18491
1791.54738,0.19497
1793.47585,0.19683
1795.40432,0.19224
1797.33279,0.18874
1799.26126,0.18779
1801.18973,0.18651
1803.11820,0.18356
1805.04666,0.18242
1806.97513,0.18516
1808.90360,0.18937
1810.83207,0.19078
1812.76054,0.18793
1814.68901,0.18491
1816.61748,0.18603
1818.54595,0.18860
1820.47441,0.18756
1822.40288,0.18581
1824.33135,0.18647
1826.25982,0.18903
1828.18829,0.19375
1830.11676,0.19505
1832.04523,0.18985
1833.97369,0.18624
1835.90216,0.18524
1837.83063,0.18411
1839.75910,0.18556
1841.68757,0.19041
1843.61604,0.19301
1845.54451,0.18943
1847.47298,0.18447
1849.40144,0.18141
1851.32991,0.18000
1853.25838,0.17913
1855.18685,0.17994
1857.11532,0.18297
1859.04379,0.18392
1860.97226,0.18196
1862.90072,0.18067
1864.82919,0.18257
1866.75766,0.18848
1868.68613,0.19227
1870.61460,0.18796
1872.54307,0.18159
1874.47154,0.17839
1876.40001,0.17981
1878.32847,0.18351
1880.25694,0.18447
1882.18541,0.18221
1884.11388,0.18075
1886.04235,0.18257
1887.97082,0.18761
1889.89929,0.19085
1891.82775,0.18899
1893.75622,0.18688
1895.68469,0.18506
1897.61316,0.18202
1899.54163,0.17966
1901.47010,0.17913
1903.39857,0.18012
1905.32704,0.18100
1907.25550,0.18165
1909.18397,0.18318
1911.11244,0.18410
1913.04091,0.18440
1914.96938,0.18630
1916.89785,0.18841
1918.82632,0.18786
1920.75478,0.18752
1922.68325,0.18960
1924.61172,0.18941
1926.54019,0.18538
1928.46866,0.18133
1930.39713,0.18027
1932.32560,0.18239
1934.25407,0.18476
1936.18253,0.18595
1938.11100,0.18737
1940.03947,0.19004
1941.96794,0.19250
1943.89641,0.19195
1945.82488,0.18948
1947.75335,0.18687
1949.68181,0.18437
1951.61028,0.18332
1953.53875,0.18419
1955.46722,0.18418
1957.39569,0.18216
1959.32416,0.18183
1961.25263,0.18317
1963.18110,0.18379
1965.10956,0.18587
1967.03803,0.18797
1968.96650,0.18615
1970.89497,0.18400
1972.82344,0.18390
1974.75191,0.18328
1976.68038,0.18254
1978.60884,0.18310
1980.53731,0.18456
1982.46578,0.18589
1984.39425,0.18528
1986.32272,0.18331
1988.25119,0.18242
1990.17966,0.18388
1992.10812,0.18681
1994.03659,0.18753
1995.96506,0.18564
1997.89353,0.18458
1999.82200,0.18428
2001.75047,0.18388
2003.67894,0.18509
2005.60741,0.18664
2007.53587,0.18624
2009.46434,0.18461
2011.39281,0.18359
2013.32128,0.18462
2015.24975,0.18691
2017.17822,0.18783
2019.10669,0.18610
2021.03515,0.18407
2022.96362,0.18402
2024.89209,0.18507
2026.82056,0.18539
2028.74903,0.18567
2030.67750,0.18738
2032.60597,0.18859
2034.53444,0.18715
2036.46290,0.18485
2038.39137,0.18404
2040.31984,0.18443
2042.24831,0.18514
2044.17678,0.18617
2046.10525,0.18617
2048.03372,0.18431
2049.96218,0.18353
2051.89065,0.18541
2053.81912,0.18654
2055.74759,0.18466
2057.67606,0.18189
2059.60453,0.18157
2061.53300,0.18445
2063.46147,0.18774
2065.38993,0.18880
2067.31840,0.18783
2069.24687,0.18550
2071.17534,0.18183
2073.10381,0.17964
2075.03228,0.18115
2076.96075,0.18342
2078.88921,0.18470
2080.81768,0.18731
2082.74615,0.18991
2084.67462,0.18905
2086.60309,0.18799
2088.53156,0.18955
2090.46003,0.19091
2092.38850,0.19090
2094.31696,0.19031
2096.24543,0.18958
2098.17390,0.18844
2100.10237,0.18756
2102.03084,0.18794
2103.95931,0.18760
2105.88778,0.18705
2107.81624,0.18784
2109.74471,0.18768
2111.67318,0.18682
2113.60165,0.18728
2115.53012,0.18778
2117.45859,0.18704
2119.38706,0.18668
2121.31553,0.18799
2123.24399,0.19004
2125.17246,0.19092
2127.10093,0.18923
2129.02940,0.18654
2130.95787,0.18518
2132.88634,0.18581
2134.81481,0.18852
2136.74327,0.19078
2138.67174,0.19041
2140.60021,0.18979
2142.52868,0.18990
2144.45715,0.18953
2146.38562,0.18959
2148.31409,0.18948
2150.24255,0.18816
2152.17102,0.18771
2154.09949,0.18873
2156.02796,0.18846
2157.95643,0.18658
2159.88490,0.18705
2161.81337,0.19024
2163.74184,0.19155
2165.67030,0.19091
2167.59877,0.19089
2169.52724,0.19020
2171.45571,0.18813
2173.38418,0.18518
2175.31265,0.18236
2177.24112,0.18264
2179.16958,0.18603
2181.09805,0.18851
2183.02652,0.18786
2184.95499,0.18689
2186.88346,0.18721
2188.81193,0.18624
2190.74040,0.18504
2192.66887,0.18704
2194.59733,0.18960
2196.52580,0.18847
2198.45427,0.18573
2200.38274,0.18493
2202.31121,0.18584
2204.23968,0.18727
2206.16815,0.18901
2208.09661,0.19008
2210.02508,0.18960
2211.95355,0.18833
2213.88202,0.18659
2215.81049,0.18493
2217.73896,0.18432
2219.66743,0.18417
2221.59590,0.18482
2223.52436,0.18725
2225.45283,0.18935
2227.38130,0.18794
2229.30977,0.18516
2231.23824,0.18477
2233.16671,0.18578
2235.09518,0.18755
2237.02364,0.18974
2238.95211,0.18972
2240.88058,0.18811
2242.80905,0.18772
2244.73752,0.18838
2246.66599,0.18824
2248.59446,0.18734
2250.52293,0.18811
2252.45139,0.19031
2254.37986,0.19067
2256.30833,0.18958
2258.23680,0.18954
2260.16527,0.19016
2262.09374,0.19037
2264.02221,0.19025
2265.95067,0.19039
2267.87914,0.19150
2269.80761,0.19326
2271.73608,0.19368
2273.66455,0.19063
2275.59302,0.18635
2277.52149,0.18555
2279.44996,0.18769
2281.37842,0.18932
2283.30689,0.18909
2285.23536,0.18804
2287.16383,0.18935
2289.09230,0.19173
2291.02077,0.19142
2292.94924,0.19086
2294.87770,0.19241
2296.80617,0.19458
2298.73464,0.19686
2300.66311,0.19861
2302.59158,0.20054
2304.52005,0.20336
2306.44852,0.20338
2308.37699,0.20183
2310.30545,0.20408
2312.23392,0.20836
2314.16239,0.21188
2316.09086,0.21551
2318.01933,0.21953
2319.94780,0.22227
2321.87627,0.22123
2323.80473,0.21951
2325.73320,0.22367
2327.66167,0.22974
2329.59014,0.23457
2331.51861,0.24329
2333.44708,0.24847
2335.37555,0.24487
2337.30401,0.23832
2339.23248,0.23254
2341.16095,0.23436
2343.08942,0.23881
2345.01789,0.23049
2346.94636,0.21897
2348.87483,0.21823
2350.80330,0.22741
2352.73176,0.24473
2354.66023,0.26519
2356.58870,0.27423
2358.51717,0.26928
2360.44564,0.26720
2362.37411,0.26717
2364.30258,0.25972
2366.23104,0.24837
2368.15951,0.23379
2370.08798,0.22207
2372.01645,0.22033
2373.94492,0.21795
2375.87339,0.20723
2377.80186,0.19772
2379.73033,0.19540
2381.65879,0.19575
2383.58726,0.19658
2385.51573,0.19751
2387.44420,0.19502
2389.37267,0.18849
2391.30114,0.18386
2393.22961,0.18511
2395.15807,0.18941
2397.08654,0.19325
2399.01501,0.19546
2400.94348,0.19532
2402.87195,0.19347
2404.80042,0.19195
2406.72889,0.19117
2408.65736,0.19053
2410.58582,0.18973
2412.51429,0.18876
2414.44276,0.18869
2416.37123,0.18917
2418.29970,0.18947
2420.22817,0.18994
2422.15664,0.18892
2424.08510,0.18650
2426.01357,0.18593
2427.94204,0.18783
2429.87051,0.18993
2431.79898,0.19179
2433.72745,0.19387
2435.65592,0.19454
2437.58439,0.19375
2439.51285,0.19302
2441.44132,0.19223
2443.36979,0.19071
2445.29826,0.18894
2447.22673,0.18634
2449.15520,0.18186
2451.08367,0.17972
2453.01213,0.18349
2454.94060,0.18869
2456.86907,0.19029
2458.79754,0.18947
2460.72601,0.19052
2462.65448,0.19337
2464.58295,0.19414
2466.51142,0.19303
2468.43988,0.19311
2470.36835,0.19365
2472.29682,0.19151
2474.22529,0.18769
2476.15376,0.18718
2478.08223,0.19100
2480.01070,0.19351
2481.93916,0.19244
2483.86763,0.19159
2485.79610,0.19227
2487.72457,0.19398
2489.65304,0.19609
2491.58151,0.19591
2493.50998,0.19330
2495.43844,0.19151
2497.36691,0.19222
2499.29538,0.19396
2501.22385,0.19427
2503.15232,0.19203
2505.08079,0.18885
2507.00926,0.18740
2508.93773,0.18787
2510.86619,0.19007
2512.79466,0.19333
2514.72313,0.19440
2516.65160,0.19325
2518.58007,0.19255
2520.50854,0.19279
2522.43701,0.19440
2524.36547,0.19612
2526.29394,0.19583
2528.22241,0.19465
2530.15088,0.19318
2532.07935,0.19147
2534.00782,0.19160
2535.93629,0.19344
2537.86476,0.19464
2539.79322,0.19442
2541.72169,0.19403
2543.65016,0.19504
2545.57863,0.19683
2547.50710,0.19706
2549.43557,0.19599
2551.36404,0.19624
2553.29250,0.19718
2555.22097,0.19703
2557.14944,0.19610
2559.07791,0.19410
2561.00638,0.19255
2562.93485,0.19337
2564.86332,0.19427
2566.79179,0.19347
2568.72025,0.19246
2570.64872,0.19248
2572.57719,0.19305
2574.50566,0.19455
2576.43413,0.19668
2578.36260,0.19678
2580.29107,0.19526
2582.21953,0.19448
2584.14800,0.19455
2586.07647,0.19510
2588.00494,0.19630
2589.93341,0.19744
2591.86188,0.19752
2593.79035,0.19721
2595.71882,0.19722
2597.64728,0.19775
2599.57575,0.19928
2601.50422,0.20081
2603.43269,0.20143
2605.36116,0.20211
2607.28963,0.20386
2609.21810,0.20547
2611.14656,0.20345
2613.07503,0.19668
2615.00350,0.19037
2616.93197,0.18854
2618.86044,0.18786
2620.78891,0.18722
2622.71738,0.19011
2624.64585,0.19411
2626.57431,0.19583
2628.50278,0.19673
2630.43125,0.19567
2632.35972,0.19288
2634.28819,0.19223
2636.21666,0.19338
2638.14513,0.19376
2640.07359,0.19287
2642.00206,0.19214
2643.93053,0.19268
2645.85900,0.19391
2647.78747,0.19483
2649.71594,0.19416
2651.64441,0.19348
2653.57288,0.19382
2655.50134,0.19329
2657.42981,0.19398
2659.35828,0.19625
2661.28675,0.19569
2663.21522,0.19345
2665.14369,0.19370
2667.07216,0.19499
2669.00062,0.19519
2670.92909,0.19567
2672.85756,0.19736
2674.78603,0.20035
2676.71450,0.20330
2678.64297,0.20452
2680.57144,0.20410
2682.49990,0.20142
2684.42837,0.19786
2686.35684,0.19622
2688.28531,0.19551
2690.21378,0.19618
2692.14225,0.19998
2694.07072,0.20337
2695.99919,0.20375
2697.92765,0.20398
2699.85612,0.20491
2701.78459,0.20388
2703.71306,0.20120
2705.64153,0.19945
2707.57000,0.20008
2709.49847,0.20234
2711.42693,0.20342
2713.35540,0.20287
2715.28387,0.20215
2717.21234,0.20198
2719.14081,0.20248
2721.06928,0.20340
2722.99775,0.20387
2724.92622,0.20217
2726.85468,0.19852
2728.78315,0.19552
2730.71162,0.19595
2732.64009,0.20030
2734.56856,0.20553
2736.49703,0.20779
2738.42550,0.20492
2740.35396,0.19993
2742.28243,0.19909
2744.21090,0.20199
2746.13937,0.20342
2748.06784,0.20350
2749.99631,0.20387
2751.92478,0.20304
2753.85325,0.20237
2755.78171,0.20344
2757.71018,0.20300
2759.63865,0.20165
2761.56712,0.20485
2763.49559,0.21075
2765.42406,0.21264
2767.35253,0.21109
2769.28099,0.20976
2771.20946,0.20735
2773.13793,0.20404
2775.06640,0.20330
2776.99487,0.20484
2778.92334,0.20549
2780.85181,0.20627
2782.78028,0.20941
2784.70874,0.21126
2786.63721,0.21043
2788.56568,0.20946
2790.49415,0.20863
2792.42262,0.20948
2794.35109,0.21193
2796.27956,0.21212
2798.20802,0.20996
2800.13649,0.20871
2802.06496,0.20898
2803.99343,0.21017
2805.92190,0.21181
2807.85037,0.21218
2809.77884,0.21170
2811.70731,0.21169
2813.63577,0.21010
2815.56424,0.20682
2817.49271,0.20470
2819.42118,0.20317
2821.34965,0.20127
2823.27812,0.20021
2825.20659,0.20183
2827.13505,0.20528
2829.06352,0.20572
2830.99199,0.20496
2832.92046,0.20802
2834.84893,0.21034
2836.77740,0.20822
2838.70587,0.20656
2840.63433,0.20731
2842.56280,0.20785
2844.49127,0.20790
2846.41974,0.20866
2848.34821,0.21040
2850.27668,0.21165
2852.20515,0.21113
2854.13362,0.21101
2856.06208,0.21299
2857.99055,0.21296
2859.91902,0.20863
2861.84749,0.20529
2863.77596,0.20495
2865.70443,0.20487
2867.63290,0.20628
2869.56136,0.20917
2871.48983,0.20868
2873.41830,0.20448
2875.34677,0.20169
2877.27524,0.20304
2879.20371,0.20654
2881.13218,0.20794
2883.06065,0.20542
2884.98911,0.20215
2886.91758,0.20383
2888.84605,0.20994
2890.77452,0.21329
2892.70299,0.20967
2894.63146,0.20358
2896.55993,0.20408
2898.48839,0.20875
2900.41686,0.21000
2902.34533,0.20874
2904.27380,0.20533
2906.20227,0.20134
2908.13074,0.20260
2910.05921,0.20706
2911.98768,0.20754
2913.91614,0.19987
2915.84461,0.18803
2917.77308,0.18661
2919.70155,0.19734
2921.63002,0.20413
2923.55849,0.19556
2925.48696,0.17742
2927.41542,0.17360
2929.34389,0.18866
2931.27236,0.20135
2933.20083,0.20380
2935.12930,0.19570
2937.05777,0.18443
2938.98624,0.18836
2940.91471,0.20130
2942.84317,0.20590
2944.77164,0.19939
2946.70011,0.18551
2948.62858,0.18149
2950.55705,0.19352
2952.48552,0.20323
2954.41399,0.19985
2956.34245,0.18360
2958.27092,0.17209
2960.19939,0.18206
2962.12786,0.19782
2964.05633,0.20206
2965.98480,0.19268
2967.91327,0.18023
2969.84174,0.18443
2971.77020,0.19982
2973.69867,0.20848
2975.62714,0.20775
2977.55561,0.19928
2979.48408,0.19626
2981.41255,0.20763
2983.34102,0.21828
2985.26948,0.21547
2987.19795,0.20212
2989.12642,0.19417
2991.05489,0.19919
2992.98336,0.20407
2994.91183,0.20556
2996.84030,0.20694
2998.76877,0.20503
3000.69723,0.20482
3002.62570,0.20795
3004.55417,0.20675
3006.48264,0.20022
3008.41111,0.19307
3010.33958,0.18037
3012.26805,0.14964
3014.19651,0.10450
3016.12498,0.07433
3018.05345,0.09439
3019.98192,0.15337
3021.91039,0.19950
3023.83886,0.21358
3025.76733,0.20823
3027.69579,0.19971
3029.62426,0.20240
3031.55273,0.21215
3033.48120,0.21664
3035.40967,0.21252
3037.33814,0.20474
3039.26661,0.20489
3041.19508,0.21068
3043.12354,0.20906
3045.05201,0.20123
3046.98048,0.19450
3048.90895,0.19634
3050.83742,0.20483
3052.76589,0.20659
3054.69436,0.19777
3056.62282,0.18700
3058.55129,0.18964
3060.47976,0.20412
3062.40823,0.21250
3064.33670,0.20474
3066.26517,0.18624
3068.19364,0.18161
3070.12211,0.19666
3072.05057,0.20959
3073.97904,0.20768
3075.90751,0.19790
3077.83598,0.19829
3079.76445,0.20650
3081.69292,0.20519
3083.62139,0.19084
3085.54985,0.17895
3087.47832,0.18784
3089.40679,0.20499
3091.33526,0.20849
3093.26373,0.19762
3095.19220,0.18923
3097.12067,0.19771
3099.04914,0.20931
3100.97760,0.20495
3102.90607,0.18883
3104.83454,0.18475
3106.76301,0.19947
3108.69148,0.21160
3110.61995,0.20703
3112.54842,0.19443
3114.47688,0.19361
3116.40535,0.20346
3118.33382,0.20692
3120.26229,0.19969
3122.19076,0.19161
3124.11923,0.19555
3126.04770,0.20433
3127.97617,0.20315
3129.90463,0.19634
3131.83310,0.19829
3133.76157,0.20796
3135.69004,0.21203
3137.61851,0.20690
3139.54698,0.19855
3141.47545,0.19686
3143.40391,0.20406
3145.33238,0.21202
3147.26085,0.21201
3149.18932,0.20874
3151.11779,0.21327
3153.04626,0.21704
3154.97473,0.21300
3156.90320,0.21058
3158.83166,0.21308
3160.76013,0.21568
3162.68860,0.21641
3164.61707,0.21659
3166.54554,0.21717
3168.47401,0.21786
3170.40248,0.21792
3172.33094,0.21704
3174.25941,0.21580
3176.18788,0.21701
3178.11635,0.22049
3180.04482,0.22218
3181.97329,0.22229
3183.90176,0.22272
3185.83022,0.22123
3187.75869,0.21762
3189.68716,0.21684
3191.61563,0.21798
3193.54410,0.21632
3195.47257,0.21215
3197.40104,0.20878
3199.32951,0.20980
3201.25797,0.21356
3203.18644,0.21478
3205.11491,0.21371
3207.04338,0.21551
3208.97185,0.21980
3210.90032,0.21927
3212.82879,0.21375
3214.75725,0.21148
3216.68572,0.21598
3218.61419,0.22271
3220.54266,0.22601
3222.47113,0.22645
3224.39960,0.22565
3226.32807,0.22159
3228.25654,0.21808
3230.18500,0.21889
3232.11347,0.21877
3234.04194,0.21605
3235.97041,0.21629
3237.89888,0.21828
3239.82735,0.21752
3241.75582,0.21595
3243.68428,0.21424
3245.61275,0.21148
3247.54122,0.20991
3249.46969,0.21226
3251.39816,0.21871
3253.32663,0.22391
3255.25510,0.22403
3257.18357,0.22136
3259.11203,0.21795
3261.04050,0.21376
3262.96897,0.21058
3264.89744,0.21159
3266.82591,0.21390
3268.75438,0.21514
3270.68285,0.21740
3272.61131,0.21697
3274.53978,0.21488
3276.46825,0.21622
3278.39672,0.21594
3280.32519,0.21187
3282.25366,0.20930
3284.18213,0.20890
3286.11060,0.20873
3288.03906,0.21082
3289.96753,0.21458
3291.89600,0.21503
3293.82447,0.21238
3295.75294,0.21014
3297.68141,0.20852
3299.60988,0.20806
3301.53834,0.21058
3303.46681,0.21501
3305.39528,0.21773
3307.32375,0.21630
3309.25222,0.21451
3311.18069,0.21540
3313.10916,0.21538
3315.03763,0.21597
3316.96609,0.21731
3318.89456,0.21394
3320.82303,0.21116
3322.75150,0.21469
3324.67997,0.21767
3326.60844,0.21825
3328.53691,0.22140
3330.46537,0.22552
3332.39384,0.22694
3334.32231,0.22560
3336.25078,0.22182
3338.17925,0.21751
3340.10772,0.21712
3342.03619,0.21855
3343.96466,0.21523
3345.89312,0.21021
3347.82159,0.21157
3349.75006,0.21814
3351.67853,0.22248
3353.60700,0.22372
3355.53547,0.22229
3357.46394,0.21599
3359.39240,0.21321
3361.32087,0.21902
3363.24934,0.22142
3365.17781,0.21563
3367.10628,0.21121
3369.03475,0.21379
3370.96322,0.21874
3372.89168,0.22039
3374.82015,0.21947
3376.74862,0.21734
3378.67709,0.21574
3380.60556,0.21487
3382.53403,0.21341
3384.46250,0.21513
3386.39097,0.21869
3388.31943,0.21824
3390.24790,0.21532
3392.17637,0.21560
3394.10484,0.21993
3396.03331,0.22154
3397.96178,0.21705
3399.89025,0.21177
3401.81871,0.21111
3403.74718,0.21252
3405.67565,0.21136
3407.60412,0.21028
3409.53259,0.21157
3411.46106,0.21243
3413.38953,0.21277
3415.31800,0.21591
3417.24646,0.22053
3419.17493,0.22245
3421.10340,0.22064
3423.03187,0.21621
3424.96034,0.21154
3426.88881,0.20669
3428.81728,0.20376
3430.74574,0.20562
3432.67421,0.20727
3434.60268,0.20568
3436.53115,0.20472
3438.45962,0.20683
3440.38809,0.20988
3442.31656,0.21140
3444.24503,0.21121
3446.17349,0.21026
3448.10196,0.20896
3450.03043,0.20526
3451.95890,0.19860
3453.88737,0.19462
3455.81584,0.19752
3457.74431,0.19989
3459.67277,0.19807
3461.60124,0.19744
3463.52971,0.19775
3465.45818,0.19735
3467.38665,0.19658
3469.31512,0.19619
3471.24359,0.19672
3473.17206,0.19407
3475.10052,0.18711
3477.02899,0.18405
3478.95746,0.18823
3480.88593,0.19098
3482.81440,0.18752
3484.74287,0.18377
3486.67134,0.18231
3488.59980,0.17968
3490.52827,0.17763
3492.45674,0.17936
3494.38521,0.18063
3496.31368,0.17832
3498.24215,0.17608
3500.17062,0.17707
3502.09909,0.18078
3504.02755,0.18329
3505.95602,0.17942
3507.88449,0.17561
3509.81296,0.18083
3511.74143,0.18482
3513.66990,0.18042
3515.59837,0.17916
3517.52683,0.18411
3519.45530,0.18743
3521.38377,0.18744
3523.31224,0.18665
3525.24071,0.18607
3527.16918,0.18351
3529.09765,0.17697
3531.02611,0.17194
3532.95458,0.17165
3534.88305,0.17234
3536.81152,0.17106
3538.73999,0.16971
3540.66846,0.17212
3542.59693,0.17638
3544.52540,0.17839
3546.45386,0.17738
3548.38233,0.17375
3550.31080,0.16968
3552.23927,0.16749
3554.16774,0.16635
3556.09621,0.16561
3558.02468,0.16854
3559.95314,0.17387
3561.88161,0.17664
3563.81008,0.17912
3565.73855,0.18539
3567.66702,0.18833
3569.59549,0.17865
3571.52396,0.16761
3573.45243,0.16321
3575.38089,0.16170
3577.30936,0.15871
3579.23783,0.15615
3581.16630,0.15789
3583.09477,0.16307
3585.02324,0.17061
3586.95171,0.17697
3588.88017,0.17350
3590.80864,0.16984
3592.73711,0.17185
3594.66558,0.17066
3596.59405,0.16554
3598.52252,0.16307
3600.45099,0.15965
3602.37946,0.15499
3604.30792,0.15450
3606.23639,0.15732
3608.16486,0.16019
3610.09333,0.16142
3612.02180,0.16166
3613.95027,0.16197
3615.87874,0.16436
3617.80720,0.16837
3619.73567,0.16743
3621.66414,0.15934
3623.59261,0.15267
3625.52108,0.15301
3627.44955,0.15827
3629.37802,0.15796
3631.30649,0.15093
3633.23495,0.14638
3635.16342,0.14474
3637.09189,0.14372
3639.02036,0.14114
3640.94883,0.13993
3642.87730,0.14353
3644.80577,0.15303
3646.73423,0.17183
3648.66270,0.18800
3650.59117,0.17178
3652.51964,0.15192
3654.44811,0.14683
3656.37658,0.14638
3658.30505,0.14113
3660.23352,0.13350
3662.16198,0.12901
3664.09045,0.12991
3666.01892,0.13467
3667.94739,0.14227
3669.87586,0.14897
3671.80433,0.14828
3673.73280,0.14886
3675.66126,0.15480
3677.58973,0.15236
3679.51820,0.14205
3681.44667,0.13409
3683.37514,0.13152
3685.30361,0.13306
3687.23208,0.13697
3689.16055,0.14022
3691.08901,0.13686
3693.01748,0.12906
3694.94595,0.12502
3696.87442,0.12592
3698.80289,0.12929
3700.73136,0.13593
3702.65983,0.14154
3704.58829,0.13995
3706.51676,0.13762
3708.44523,0.14124
3710.37370,0.14857
3712.30217,0.14679
3714.23064,0.13742
3716.15911,0.13430
3718.08757,0.13881
3720.01604,0.14551
3721.94451,0.15091
3723.87298,0.15245
3725.80145,0.14640
3727.72992,0.13919
3729.65839,0.13984
3731.58686,0.14681
3733.51532,0.15244
3735.44379,0.15373
3737.37226,0.15519
3739.30073,0.15273
3741.22920,0.14882
3743.15767,0.15148
3745.08614,0.15443
3747.01460,0.14798
3748.94307,0.14610
3750.87154,0.14886
3752.80001,0.14220
3754.72848,0.13710
3756.65695,0.13988
3758.58542,0.14533
3760.51389,0.14552
3762.44235,0.14009
3764.37082,0.13432
3766.29929,0.12959
3768.22776,0.13001
3770.15623,0.13519
3772.08470,0.13507
3774.01317,0.13053
3775.94163,0.12712
3777.87010,0.12698
3779.79857,0.12957
3781.72704,0.13218
3783.65551,0.13524
3785.58398,0.13527
3787.51245,0.13111
3789.44092,0.12914
3791.36938,0.12789
3793.29785,0.12572
3795.22632,0.12584
3797.15479,0.12642
3799.08326,0.12802
3801.01173,0.13324
3802.94020,0.13519
3804.86866,0.13175
3806.79713,0.12680
3808.72560,0.12288
3810.65407,0.12215
3812.58254,0.12561
3814.51101,0.13390
3816.43948,0.14352
3818.36795,0.14932
3820.29641,0.14947
3822.22488,0.13973
3824.15335,0.13135
3826.08182,0.12991
3828.01029,0.13076
3829.93876,0.13229
3831.86723,0.13467
3833.79569,0.13512
3835.72416,0.13538
3837.65263,0.14024
3839.58110,0.14022
3841.50957,0.13048
3843.43804,0.12180
3845.36651,0.11730
3847.29498,0.11780
3849.22344,0.12613
3851.15191,0.14054
3853.08038,0.14992
3855.00885,0.14046
3856.93732,0.12799
3858.86579,0.12013
3860.79426,0.11829
3862.72272,0.12185
3864.65119,0.12308
3866.57966,0.11911
3868.50813,0.11945
3870.43660,0.12452
3872.36507,0.12126
3874.29354,0.11322
3876.22200,0.11346
3878.15047,0.12096
3880.07894,0.12681
3882.00741,0.12741
3883.93588,0.12572
3885.86435,0.11922
3887.79282,0.11459
3889.72129,0.12016
3891.64975,0.12494
3893.57822,0.11934
3895.50669,0.11929
3897.43516,0.12892
3899.36363,0.13372
3901.29210,0.12621
3903.22057,0.11844
3905.14903,0.11527
3907.07750,0.11311
3909.00597,0.11181
3910.93444,0.11167
3912.86291,0.11349
3914.79138,0.11669
3916.71985,0.11676
3918.64832,0.11311
3920.57678,0.11285
3922.50525,0.11815
3924.43372,0.12314
3926.36219,0.12153
3928.29066,0.11627
3930.21913,0.11433
3932.14760,0.11509
3934.07606,0.11316
3936.00453,0.10903
3937.93300,0.10550
3939.86147,0.10459
3941.78994,0.10589
3943.71841,0.10485
3945.64688,0.10186
3947.57535,0.10110
3949.50381,0.10100
3951.43228,0.10120
3953.36075,0.10222
3955.28922,0.10064
3957.21769,0.09946
3959.14616,0.10174
3961.07463,0.10256
3963.00309,0.10381
3964.93156,0.10798
3966.86003,0.10753
3968.78850,0.10239
3970.71697,0.10001
3972.64544,0.10221
3974.57391,0.10724
3976.50238,0.11039
3978.43084,0.10843
3980.35931,0.10429
3982.28778,0.10155
3984.21625,0.10012
3986.14472,0.09837
3988.07319,0.09685
3990.00166,0.09702
3991.93012,0.09781
3993.85859,0.09744
3995.78706,0.09809
3997.71553,0.10006
3999.64400,0.10007
4001.57247,0.09782
4003.50094,0.09420
4005.42941,0.09007
4007.35787,0.08872
4009.28634,0.09194
4011.21481,0.09481
4013.14328,0.09511
4015.07175,0.09872
4017.00022,0.10461
4018.92869,0.10504
4020.85715,0.10140
4022.78562,0.10038
4024.71409,0.10137
4026.64256,0.09940
4028.57103,0.09501
4030.49950,0.09183
4032.42797,0.08854
4034.35644,0.08506
4036.28490,0.08363
4038.21337,0.08448
4040.14184,0.08847
4042.07031,0.09298
4043.99878,0.09443
4045.92725,0.09396
4047.85572,0.09349
4049.78418,0.09392
4051.71265,0.09467
4053.64112,0.09367
4055.56959,0.09234
4057.49806,0.09530
4059.42653,0.09881
4061.35500,0.09655
4063.28346,0.09285
4065.21193,0.09271
4067.14040,0.09459
4069.06887,0.09471
4070.99734,0.09332
4072.92581,0.09377
4074.85428,0.09409
4076.78275,0.09071
4078.71121,0.08543
4080.63968,0.08272
4082.56815,0.08190
4084.49662,0.07962
4086.42509,0.07803
4088.35356,0.07886
4090.28203,0.08018
4092.21049,0.08164
4094.13896,0.08337
4096.06743,0.08175
4097.99590,0.07565
4099.92437,0.07353
4101.85284,0.07838
4103.78131,0.08163
4105.70978,0.08113
4107.63824,0.08266
4109.56671,0.08638
4111.49518,0.08701
4113.42365,0.08373
4115.35212,0.08159
4117.28059,0.08275
4119.20906,0.08222
4121.13752,0.07521
4123.06599,0.06505
4124.99446,0.06005
4126.92293,0.06308
4128.85140,0.06905
4130.77987,0.07265
4132.70834,0.07311
4134.63681,0.07311
4136.56527,0.07501
4138.49374,0.07719
4140.42221,0.07772
4142.35068,0.07713
4144.27915,0.07564
4146.20762,0.07365
4148.13609,0.07520
4150.06455,0.08067
4151.99302,0.08185
4153.92149,0.07704
4155.84996,0.07066
4157.77843,0.06521
4159.70690,0.06626
4161.63537,0.06973
4163.56384,0.06785
4165.49230,0.06538
4167.42077,0.06373
4169.34924,0.05997
4171.27771,0.05762
4173.20618,0.05799
4175.13465,0.05945
4177.06312,0.06288
4178.99158,0.06599
4180.92005,0.06585
4182.84852,0.06363
4184.77699,0.06082
4186.70546,0.05837
4188.63393,0.05554
4190.56240,0.05194
4192.49087,0.05159
4194.41933,0.05662
4196.34780,0.06036
4198.27627,0.06025
4200.20474,0.06190
4202.13321,0.06241
4204.06168,0.05959
4205.99015,0.06016
4207.91861,0.06369
4209.84708,0.06389
4211.77555,0.06104
4213.70402,0.05945
4215.63249,0.06026
4217.56096,0.06121
4219.48943,0.05990
4221.41789,0.05657
4223.34636,0.05234
4225.27483,0.05199
4227.20330,0.05971
4229.13177,0.06771
4231.06024,0.06536
4232.98871,0.05217
4234.91718,0.03980
4236.84564,0.03884
4238.77411,0.04480
4240.70258,0.04938
4242.63105,0.05267
4244.55952,0.05761
4246.48799,0.06245
4248.41646,0.06405
4250.34492,0.06272
4252.27339,0.05755
4254.20186,0.05030
4256.13033,0.04751
4258.05880,0.04969
4259.98727,0.05312
4261.91574,0.05451
4263.84421,0.05534
4265.77267,0.05947
4267.70114,0.06018
4269.62961,0.05298
4271.55808,0.04416
4273.48655,0.03870
4275.41502,0.03986
4277.34349,0.04703
4279.27195,0.05193
4281.20042,0.04962
4283.12889,0.04581
4285.05736,0.04545
4286.98583,0.04607
4288.91430,0.04264
4290.84277,0.03733
4292.77124,0.03704
4294.69970,0.03976
4296.62817,0.04026
4298.55664,0.03743
4300.48511,0.03431
4302.41358,0.03494
4304.34205,0.03906
4306.27052,0.04312
4308.19898,0.04258
4310.12745,0.03900
4312.05592,0.03744
4313.98439,0.03713
4315.91286,0.03686
4317.84133,0.03840
4319.76980,0.03972
4321.69827,0.03737
4323.62673,0.03227
4325.55520,0.02630
4327.48367,0.02311
4329.41214,0.02578
4331.34061,0.03009
4333.26908,0.03092
4335.19755,0.02987
4337.12601,0.03081
4339.05448,0.03359
4340.98295,0.03585
4342.91142,0.03757
4344.83989,0.03850
4346.76836,0.03771
4348.69683,0.03456
4350.62530,0.02793
4352.55376,0.02251
4354.48223,0.02413
4356.41070,0.02776
4358.33917,0.02519
4360.26764,0.02000
4362.19611,0.02093
4364.12458,0.02433
4366.05304,0.02373
4367.98151,0.02418
4369.90998,0.03037
4371.83845,0.03981
4373.76692,0.04469
4375.69539,0.03823
4377.62386,0.02631
4379.55232,0.02002
4381.48079,0.02229
4383.40926,0.02573
4385.33773,0.02223
4387.26620,0.01729
4389.19467,0.01998
4391.12314,0.02670
4393.05161,0.02783
4394.98007,0.02268
4396.90854,0.01804
4398.83701,0.01724
4400.76548,0.01927
4402.69395,0.02143
4404.62242,0.01900
4406.55089,0.00829
4408.47935,-0.00299
4410.40782,-0.00367
4412.33629,0.00530
4414.26476,0.01654
4416.19323,0.02068
4418.12170,0.01561
4420.05017,0.01022
4421.97864,0.00977
4423.90710,0.00948
4425.83557,0.00550
4427.76404,0.00591
4429.69251,0.01190
4431.62098,0.01249
4433.54945,0.00800
4435.47792,0.00629
4437.40638,0.01120
4439.33485,0.01680
4441.26332,0.01287
4443.19179,0.00654
4445.12026,0.00808
4447.04873,0.01209
4448.97720,0.01363
4450.90567,0.01334
4452.83413,0.00852
4454.76260,-0.00101
4456.69107,-0.00455
4458.61954,0.00043
4460.54801,0.00327
4462.47648,0.00478
4464.40495,0.01136
4466.33341,0.01691
4468.26188,0.01316
4470.19035,0.00650
4472.11882,0.00341
4474.04729,-0.00026
4475.97576,-0.00173
4477.90423,-0.00078
4479.83270,-0.00431
4481.76116,-0.00753
4483.68963,-0.00413
4485.61810,0.00476
4487.54657,0.01406
4489.47504,0.01455
4491.40351,0.00994
4493.33198,0.01144
4495.26044,0.01394
4497.18891,0.01054
4499.11738,0.00570
4501.04585,0.00663
4502.97432,0.01100
4504.90279,0.00943
4506.83126,0.00141
4508.75973,-0.00666
4510.68819,-0.00967
4512.61666,-0.00219
4514.54513,0.00855
4516.47360,0.00781
4518.40207,0.00186
4520.33054,0.00034
4522.25901,-0.00167
4524.18747,-0.00594
4526.11594,-0.00782
4528.04441,-0.00205
4529.97288,0.00666
4531.90135,0.00793
4533.82982,0.00312
4535.75829,0.00077
4537.68676,0.00205
4539.61522,0.00080
4541.54369,-0.00093
4543.47216,0.00121
4545.40063,0.00398
4547.32910,0.00702
4549.25757,0.01278
4551.18604,0.01581
4553.11450,0.00967
4555.04297,0.00135
4556.97144,-0.00083
4558.89991,0.00076
4560.82838,0.00279
4562.75685,0.00403
4564.68532,0.00383
4566.61378,0.00428
4568.54225,0.00553
4570.47072,0.00499
4572.39919,0.00491
4574.32766,0.00773
4576.25613,0.00927
4578.18460,0.00528
4580.11307,0.00086
4582.04153,0.00083
4583.97000,-0.00120
4585.89847,-0.00614
4587.82694,-0.00709
4589.75541,-0.00236
4591.68388,0.00590
4593.61235,0.01225
4595.54081,0.01340
4597.46928,0.01288
4599.39775,0.01455
4601.32622,0.01540
4603.25469,0.00972
4605.18316,0.00023
4607.11163,-0.00593
4609.04010,-0.00535
4610.96856,-0.00049
4612.89703,0.00594
4614.82550,0.01098
4616.75397,0.00785
4618.68244,0.00297
4620.61091,0.00508
4622.53938,0.00836
4624.46784,0.00975
4626.39631,0.00744
4628.32478,-0.00138
4630.25325,-0.00918
4632.18172,-0.00816
4634.11019,-0.00169
4636.03866,0.00464
4637.96713,0.01019
4639.89559,0.01473
4641.82406,0.01579
4643.75253,0.01077
4645.68100,0.00099
4647.60947,-0.00360
4649.53794,0.00403
4651.46641,0.01351
4653.39487,0.01730
4655.32334,0.01689
4657.25181,0.00992
4659.18028,0.00243
4661.10875,0.00783
4663.03722,0.02283
4664.96569,0.03080
4666.89416,0.02561
4668.82262,0.01056
4670.75109,-0.00190
4672.67956,0.00088
4674.60803,0.00916
4676.53650,0.01283
4678.46497,0.01304
4680.39344,0.00991
4682.32190,0.00539
4684.25037,0.00099
4686.17884,-0.00339
4688.10731,-0.00817
4690.03578,-0.01103
4691.96425,-0.01093
4693.89272,-0.01216
4695.82119,-0.01529
4697.74965,-0.01088
4699.67812,0.00507
4701.60659,0.01572
4703.53506,0.01140
4705.46353,0.00361
4707.39200,0.00084
4709.32047,-0.00016
4711.24893,-0.00335
4713.17740,-0.00700
4715.10587,-0.00850
4717.03434,-0.00276
4718.96281,0.00938
4720.89128,0.01885
4722.81975,0.02204
4724.74821,0.01824
4726.67668,0.01403
4728.60515,0.01970
4730.53362,0.02751
4732.46209,0.02716
4734.39056,0.02066
4736.31903,0.00984
4738.24750,0.00207
4740.17596,0.00828
4742.10443,0.02208
4744.03290,0.02994
4745.96137,0.02774
4747.88984,0.01667
4749.81831,0.00674
4751.74678,0.00792
4753.67524,0.01538
4755.60371,0.01976
4757.53218,0.01394
4759.46065,0.00153
4761.38912,-0.00449
4763.31759,0.00014
4765.24606,0.00962
4767.17453,0.01695
4769.10299,0.01807
4771.03146,0.00958
4772.95993,-0.00145
4774.88840,-0.00157
4776.81687,0.00027
4778.74534,-0.00605
4780.67381,-0.00665
4782.60227,0.00424
4784.53074,0.01094
4786.45921,0.00811
4788.38768,0.00562
4790.31615,0.00253
4792.24462,-0.00437
4794.17309,-0.00435
4796.10156,0.00337
4798.03002,0.00791
4799.95849,0.01316
4801.88696,0.02471
4803.81543,0.02968
4805.74390,0.02231
4807.67237,0.01314
4809.60084,0.00622
4811.52930,0.00665
4813.45777,0.01481
4815.38624,0.01494
4817.31471,0.00792
4819.24318,0.00269
4821.17165,-0.00505
4823.10012,-0.01224
4825.02859,-0.00551
4826.95705,0.00942
4828.88552,0.01646
4830.81399,0.01634
4832.74246,0.01298
4834.67093,0.00729
4836.59940,0.00427
4838.52787,0.00290
4840.45633,-0.00016
4842.38480,0.00026
4844.31327,0.00248
4846.24174,-0.00006
4848.17021,-0.00053
4850.09868,0.00315
4852.02715,0.00687
4853.95562,0.00896
4855.88408,0.00345
4857.81255,-0.00185
4859.74102,0.00534
4861.66949,0.01643
4863.59796,0.01948
4865.52643,0.01681
4867.45490,0.01502
4869.38336,0.01251
4871.31183,0.00643
4873.24030,0.00391
4875.16877,0.01152
4877.09724,0.02027
4879.02571,0.01848
4880.95418,0.00945
4882.88265,0.00010
4884.81111,-0.00922
4886.73958,-0.01437
4888.66805,-0.01140
4890.59652,-0.00127
4892.52499,0.01383
4894.45346,0.02296
4896.38193,0.01757
4898.31039,0.00772
4900.23886,0.00637
4902.16733,0.01163
4904.09580,0.01022
4906.02427,0.00254
4907.95274,0.00372
4909.88121,0.00971
4911.80967,0.01027
4913.73814,0.00693
4915.66661,0.00328
4917.59508,0.00220
4919.52355,-0.00010
4921.45202,-0.00193
4923.38049,0.00330
4925.30896,0.00747
4927.23742,0.00623
4929.16589,0.00904
4931.09436,0.01321
4933.02283,0.00845
4934.95130,0.00137
4936.87977,0.00086
4938.80824,-0.00089
4940.73670,-0.01222
4942.66517,-0.02124
4944.59364,-0.01413
4946.52211,-0.00035
4948.45058,0.00652
4950.37905,0.00587
4952.30752,0.00800
4954.23599,0.01769
4956.16445,0.02028
4958.09292,0.01795
4960.02139,0.02459
4961.94986,0.02467
4963.87833,0.01466
4965.80680,0.01372
4967.73527,0.01335
4969.66373,0.00134
4971.59220,-0.00987
4973.52067,-0.00892
4975.44914,-0.00529
4977.37761,-0.00831
4979.30608,-0.01090
4981.23455,-0.01122
4983.16302,-0.01078
4985.09148,-0.00657
4987.01995,-0.00199
4988.94842,-0.00311
4990.87689,-0.01032
4992.80536,-0.01188
4994.73383,0.00052
4996.66230,0.01392
4998.59076,0.02130
5000.51923,0.02692
5002.44770,0.02654
5004.37617,0.02105
5006.30464,0.01786
5008.23311,0.01427
5010.16158,0.00699
5012.09005,0.00079
5014.01851,0.00112
5015.94698,0.00573
5017.87545,0.00928
5019.80392,0.00817
5021.73239,0.00331
5023.66086,0.00406
5025.58933,0.01107
5027.51779,0.01092
5029.44626,0.00364
5031.37473,0.00091
5033.30320,0.00304
5035.23167,0.00396
5037.16014,0.00580
5039.08861,0.00939
5041.01708,0.00254
5042.94554,-0.01233
5044.87401,-0.01358
5046.80248,0.00097
5048.73095,0.01511
5050.65942,0.01697
5052.58789,0.00399
5054.51636,-0.00938
5056.44482,-0.00876
5058.37329,0.00465
5060.30176,0.01889
5062.23023,0.01634
5064.15870,0.00694
5066.08717,0.01082
5068.01564,0.01573
5069.94410,0.01144
5071.87257,0.00420
5073.80104,-0.00028
5075.72951,0.00482
5077.65798,0.01531
5079.58645,0.01977
5081.51492,0.01442
5083.44339,0.00473
5085.37185,0.00165
5087.30032,0.00474
5089.22879,0.00547
5091.15726,0.00690
5093.08573,0.01744
5095.01420,0.03331
5096.94267,0.03858
5098.87113,0.03107
5100.79960,0.01838
5102.72807,0.00776
5104.65654,0.00920
5106.58501,0.01168
5108.51348,0.00520
5110.44195,-0.00162
5112.37042,-0.00428
5114.29888,-0.00088
5116.22735,0.00481
5118.15582,0.00832
5120.08429,0.01292
5122.01276,0.01411
5123.94123,0.00771
5125.86970,0.01058
5127.79816,0.02555
5129.72663,0.03020
5131.65510,0.02859
5133.58357,0.03294
5135.51204,0.02874
5137.44051,0.01350
5139.36898,0.00478
5141.29745,0.00179
5143.22591,0.00231
5145.15438,0.01071
5147.08285,0.01575
5149.01132,0.01847
5150.93979,0.02889
5152.86826,0.03764
5154.79673,0.03570
5156.72519,0.02468
5158.65366,0.01333
5160.58213,0.01076
5162.51060,0.01493
5164.43907,0.02668
5166.36754,0.04009
5168.29601,0.03417
5170.22448,0.01881
5172.15294,0.01444
5174.08141,0.01140
5176.00988,0.00943
5177.93835,0.01393
5179.86682,0.01379
5181.79529,0.00972
5183.72376,0.01201
5185.65222,0.01303
5187.58069,0.00766
5189.50916,0.00981
5191.43763,0.02293
5193.36610,0.03155
5195.29457,0.03156
5197.22304,0.03891
5199.15151,0.05390
5201.07997,0.06355
5203.00844,0.06581
5204.93691,0.05798
5206.86538,0.04563
5208.79385,0.04055
5210.72232,0.03347
5212.65079,0.01428
5214.57925,-0.00878
5216.50772,-0.01434
5218.43619,0.00354
5220.36466,0.01663
5222.29313,0.00925
5224.22160,-0.00339
5226.15007,-0.00413
5228.07854,0.01658
5230.00700,0.03637
5231.93547,0.03479
5233.86394,0.02618
5235.79241,0.01880
5237.72088,0.01356
5239.64935,0.01877
5241.57782,0.03191
5243.50628,0.04008
5245.43475,0.03911
5247.36322,0.03753
5249.29169,0.03389
5251.22016,0.02874
5253.14863,0.02717
5255.07710,0.03094
5257.00556,0.04400
5258.93403,0.05196
5260.86250,0.04307
5262.79097,0.03475
5264.71944,0.03670
5266.64791,0.03450
5268.57638,0.02956
5270.50485,0.03192
5272.43331,0.02990
5274.36178,0.01967
5276.29025,0.02569
5278.21872,0.05068
5280.14719,0.06415
5282.07566,0.05354
5284.00413,0.03280
5285.93259,0.01841
5287.86106,0.01512
5289.78953,0.01277
5291.71800,0.01199
5293.64647,0.02333
5295.57494,0.04045
5297.50341,0.05774
5299.43188,0.06659
5301.36034,0.05388
5303.28881,0.02831
5305.21728,0.00769
5307.14575,0.00185
5309.07422,0.00204
5311.00269,0.00328
5312.93116,0.01949
5314.85962,0.03946
5316.78809,0.04046
5318.71656,0.02569
5320.64503,0.02243
5322.57350,0.03965
5324.50197,0.04429
5326.43044,0.02804
5328.35891,0.02690
5330.28737,0.04408
5332.21584,0.05467
5334.14431,0.05516
5336.07278,0.05741
5338.00125,0.06760
5339.92972,0.07853
5341.85819,0.07130
5343.78665,0.03363
5345.71512,-0.00008
5347.64359,0.01617
5349.57206,0.05744
5351.50053,0.07802
5353.42900,0.05826
5355.35747,0.03054
5357.28594,0.03475
5359.21440,0.05547
5361.14287,0.06128
5363.07134,0.04822
5364.99981,0.02666
5366.92828,0.01131
5368.85675,0.01487
5370.78522,0.02417
5372.71368,0.03090
5374.64215,0.05110
5376.57062,0.08096
5378.49909,0.08760
5380.42756,0.07362
5382.35603,0.05880
5384.28450,0.04391
5386.21297,0.03940
5388.14143,0.04825
5390.06990,0.04954
5391.99837,0.03795
5393.92684,0.02245
5395.85531,0.02245
5397.78378,0.04169
5399.71225,0.06000
5401.64071,0.05832
5403.56918,0.03704
5405.49765,0.01982
5407.42612,0.02477
5409.35459,0.04651
5411.28306,0.06443
5413.21153,0.05568
5415.13999,0.03174
5417.06846,0.02269
5418.99693,0.02599
5420.92540,0.03528
5422.85387,0.05606
5424.78234,0.06926
5426.71081,0.05365
5428.63928,0.04164
5430.56774,0.05993
5432.49621,0.07745
5434.42468,0.07661
5436.35315,0.05705
5438.28162,0.03250
5440.21009,0.01666
5442.13856,0.00969
5444.06702,0.00783
5445.99549,0.01261
5447.92396,0.04148
5449.85243,0.07791
5451.78090,0.07941
5453.70937,0.05911
5455.63784,0.05489
5457.56631,0.07169
5459.49477,0.07576
5461.42324,0.05503
5463.35171,0.03116
5465.28018,0.01218
5467.20865,-0.00352
5469.13712,0.00112
5471.06559,0.03135
5472.99405,0.06306
5474.92252,0.08366
5476.85099,0.08902
5478.77946,0.08771
5480.70793,0.09564
5482.63640,0.09945
5484.56487,0.09056
5486.49334,0.09392
5488.42180,0.10517
5490.35027,0.09528
5492.27874,0.07571
5494.20721,0.06632
5496.13568,0.05465
5498.06415,0.03458
5499.99262,0.02906
5501.92108,0.04677
5503.84955,0.06304
5505.77802,0.07150
5507.70649,0.07949
5509.63496,0.08638
5511.56343,0.09101
5513.49190,0.08698
5515.42037,0.07439
5517.34883,0.05829
5519.27730,0.03907
5521.20577,0.02845
5523.13424,0.03292
5525.06271,0.04057
5526.99118,0.04371
5528.91965,0.04377
5530.84811,0.04659
5532.77658,0.05115
5534.70505,0.05451
5536.63352,0.05860
5538.56199,0.05984
5540.49046,0.06053
5542.41893,0.06693
5544.34740,0.08074
5546.27586,0.08853
5548.20433,0.08175
5550.13280,0.07927
5552.06127,0.07829
5553.98974,0.06833
5555.91821,0.06767
5557.84668,0.08084
5559.77514,0.08588
5561.70361,0.07718
5563.63208,0.05904
5565.56055,0.03854
5567.48902,0.04119
5569.41749,0.06785
5571.34596,0.09403
5573.27443,0.10883
5575.20289,0.10422
5577.13136,0.09254
5579.05983,0.09832
5580.98830,0.10536
5582.91677,0.08642
5584.84524,0.05965
5586.77371,0.04965
5588.70217,0.06443
5590.63064,0.08410
5592.55911,0.07707
5594.48758,0.05871
5596.41605,0.05776
5598.34452,0.06826
5600.27299,0.07403
5602.20145,0.07408
5604.12992,0.07434
5606.05839,0.06411
5607.98686,0.04297
5609.91533,0.03911
5611.84380,0.06295
5613.77227,0.09599
5615.70074,0.09955
5617.62920,0.06135
5619.55767,0.04458
5621.48614,0.08764
5623.41461,0.12736
5625.34308,0.10635
5627.27155,0.05552
5629.20002,0.02766
5631.12848,0.02310
5633.05695,0.01757
5634.98542,0.01334
5636.91389,0.02750
5638.84236,0.04323
5640.77083,0.05639
5642.69930,0.08143
5644.62777,0.09301
5646.55623,0.07043
5648.48470,0.04814
5650.41317,0.05024
5652.34164,0.06075
5654.27011,0.08513
5656.19858,0.10691
5658.12705,0.08608
5660.05551,0.05719
5661.98398,0.06464
5663.91245,0.06733
5665.84092,0.03698
5667.76939,0.02094
5669.69786,0.04371
5671.62633,0.07019
5673.55480,0.06844
5675.48326,0.05704
5677.41173,0.06445
5679.34020,0.06342
5681.26867,0.03770
5683.19714,0.01504
5685.12561,0.00188
5687.05408,0.00282
5688.98254,0.03161
5690.91101,0.05527
5692.83948,0.04225
5694.76795,0.02569
5696.69642,0.02866
5698.62489,0.03372
5700.55336,0.05005
5702.48183,0.08087
5704.41029,0.09017
5706.33876,0.07983
5708.26723,0.07094
5710.19570,0.04958
5712.12417,0.02236
5714.05264,0.02126
5715.98111,0.04349
5717.90957,0.06907
5719.83804,0.08595
5721.76651,0.08955
5723.69498,0.09616
5725.62345,0.10974
5727.55192,0.09909
5729.48039,0.07013
5731.40886,0.07046
5733.33732,0.08775
5735.26579,0.08114
5737.19426,0.05836
5739.12273,0.03682
5741.05120,0.02191
5742.97967,0.03069
5744.90814,0.05986
5746.83660,0.08495
5748.76507,0.08428
5750.69354,0.05947
5752.62201,0.03008
5754.55048,0.01114
5756.47895,0.03321
5758.40742,0.08921
5760.33588,0.11771
5762.26435,0.10262
5764.19282,0.07868
5766.12129,0.07539
5768.04976,0.09773
5769.97823,0.10449
5771.90670,0.06284
5773.83517,0.02182
5775.76363,0.03495
5777.69210,0.06986
5779.62057,0.08553
5781.54904,0.10065
5783.47751,0.11305
5785.40598,0.09415
5787.33445,0.07929
5789.26291,0.09939
5791.19138,0.09885
5793.11985,0.05669
5795.04832,0.02603
5796.97679,0.02685
5798.90526,0.02290
5800.83373,0.00620
5802.76220,0.01290
5804.69066,0.04597
5806.61913,0.07133
5808.54760,0.07652
5810.47607,0.06617
5812.40454,0.05317
5814.33301,0.05392
5816.26148,0.05584
5818.18994,0.04396
5820.11841,0.02258
5822.04688,0.01054
5823.97535,0.04084
5825.90382,0.08355
5827.83229,0.08638
5829.76076,0.06942
5831.68923,0.05150
5833.61769,0.02725
5835.54616,0.02081
5837.47463,0.02468
5839.40310,0.01279
5841.33157,0.01653
5843.26004,0.05270
5845.18851,0.07285
5847.11697,0.05823
5849.04544,0.03250
5850.97391,0.01544
5852.90238,0.02486
5854.83085,0.04585
5856.75932,0.04642
5858.68779,0.02828
5860.61626,0.01145
5862.54472,0.02790
5864.47319,0.06560
5866.40166,0.07185
5868.33013,0.05690
5870.25860,0.05262
5872.18707,0.05389
5874.11554,0.05212
5876.04400,0.05927
5877.97247,0.09041
5879.90094,0.12545
5881.82941,0.12338
5883.75788,0.09105
5885.68635,0.06374
5887.61482,0.03692
5889.54329,0.01959
5891.47175,0.04643
5893.40022,0.09541
5895.32869,0.11254
5897.25716,0.08323
5899.18563,0.05200
5901.11410,0.05300
5903.04257,0.05160
5904.97103,0.04085
5906.89950,0.06257
5908.82797,0.09987
5910.75644,0.10515
5912.68491,0.07964
5914.61338,0.05372
5916.54185,0.04445
5918.47032,0.04665
5920.39878,0.05029
5922.32725,0.06518
5924.25572,0.09537
5926.18419,0.10625
5928.11266,0.08320
5930.04113,0.05472
5931.96960,0.04161
5933.89806,0.02942
5935.82653,0.00414
5937.75500,-0.02548
5939.68347,-0.04455
5941.61194,-0.02518
5943.54041,0.01530
5945.46888,0.03674
5947.39734,0.04844
5949.32581,0.06084
5951.25428,0.06624
5953.18275,0.05633
5955.11122,0.04933
5957.03969,0.07307
5958.96816,0.11017
5960.89663,0.11658
5962.82509,0.08556
5964.75356,0.06342
5966.68203,0.08062
5968.61050,0.08803
5970.53897,0.05422
5972.46744,0.01687
5974.39591,0.00087
5976.32437,0.02264
5978.25284,0.05756
5980.18131,0.05895
5982.10978,0.04409
5984.03825,0.03749
5985.96672,0.03248
5987.89519,0.04854
5989.82366,0.08061
5991.75212,0.08291
5993.68059,0.07400
5995.60906,0.07353
5997.53753,0.05662
5999.46600,0.05143
6001.39447,0.07923
6003.32294,0.09882
6005.25140,0.09913
6007.17987,0.12321
6009.10834,0.15192
6011.03681,0.13251
6012.96528,0.08229
6014.89375,0.04012
6016.82222,0.01137
6018.75069,0.00579
6020.67915,0.03640
6022.60762,0.05871
6024.53609,0.04419
6026.46456,0.03202
6028.39303,0.03653
6030.32150,0.03912
6032.24997,0.03610
6034.17843,0.03248
6036.10690,0.04285
6038.03537,0.05977
6039.96384,0.05961
6041.89231,0.05365
6043.82078,0.04708
6045.74925,0.02240
6047.67772,0.01117
6049.60618,0.04695
6051.53465,0.06801
6053.46312,0.04727
6055.39159,0.03439
6057.32006,0.03656
6059.24853,0.03403
6061.17700,0.02545
6063.10546,0.01742
6065.03393,0.02583
6066.96240,0.05097
6068.89087,0.06016
6070.81934,0.04143
6072.74781,0.03795
6074.67628,0.07300
6076.60475,0.10908
6078.53321,0.10799
6080.46168,0.07444
6082.39015,0.04647
6084.31862,0.06238
6086.24709,0.09500
6088.17556,0.07999
6090.10403,0.03194
6092.03249,0.00401
6093.96096,0.02367
6095.88943,0.05336
6097.81790,0.05220
6099.74637,0.04672
6101.67484,0.04607
6103.60331,0.03903
6105.53177,0.04389
6107.46024,0.07192
6109.38871,0.09462
6111.31718,0.09379
6113.24565,0.10418
6115.17412,0.13129
6117.10259,0.12565
6119.03106,0.08088
6120.95952,0.06045
6122.88799,0.05538
6124.81646,0.02690
6126.74493,0.02244
6128.67340,0.06679
6130.60187,0.09234
6132.53034,0.07779
6134.45880,0.06105
6136.38727,0.05080
6138.31574,0.04825
6140.24421,0.06673
6142.17268,0.08302
6144.10115,0.05776
6146.02962,0.02513
6147.95809,0.04231
6149.88655,0.08743
6151.81502,0.10291
6153.74349,0.07446
6155.67196,0.03192
6157.60043,0.02055
6159.52890,0.04768
6161.45737,0.07958
6163.38583,0.09926
6165.31430,0.09224
6167.24277,0.05959
6169.17124,0.03330
6171.09971,0.03120
6173.02818,0.03878
6174.95665,0.04199
6176.88512,0.05139
6178.81358,0.06084
6180.74205,0.04250
6182.67052,0.01307
6184.59899,0.02285
6186.52746,0.04975
6188.45593,0.04945
6190.38440,0.06197
6192.31286,0.10548
6194.24133,0.14586
6196.16980,0.14401
6198.09827,0.09048
6200.02674,0.05001
6201.95521,0.05929
6203.88368,0.08911
6205.81215,0.10554
6207.74061,0.07989
6209.66908,0.02763
6211.59755,0.01608
6213.52602,0.04341
6215.45449,0.05922
6217.38296,0.05460
6219.31143,0.03302
6221.23989,0.01410
6223.16836,0.04549
6225.09683,0.10797
6227.02530,0.12845
6228.95377,0.11162
6230.88224,0.09506
6232.81071,0.08472
6234.73918,0.04362
6236.66764,-0.02750
6238.59611,-0.04403
6240.52458,0.00817
6242.45305,0.04639
6244.38152,0.05240
6246.30999,0.05735
6248.23846,0.05073
6250.16692,0.02979
6252.09539,0.02043
6254.02386,0.01102
6255.95233,-0.01770
6257.88080,-0.02558
6259.80927,0.01075
6261.73774,0.04793
6263.66621,0.03604
6265.59467,-0.00718
6267.52314,0.00804
6269.45161,0.05028
6271.38008,0.05124
6273.30855,0.04950
6275.23702,0.06387
6277.16549,0.08213
6279.09395,0.10077
6281.02242,0.11616
6282.95089,0.12837
6284.87936,0.11524
6286.80783,0.09946
6288.73630,0.10514
6290.66477,0.08827
6292.59323,0.03129
6294.52170,-0.02182
6296.45017,-0.03924
6298.37864,-0.00796
6300.30711,0.04950
6302.23558,0.05426
6304.16405,0.02471
6306.09252,0.04385
6308.02098,0.07664
6309.94945,0.10021
6311.87792,0.14169
6313.80639,0.16331
6315.73486,0.13339
6317.66333,0.07058
6319.59180,0.01602
6321.52026,0.00677
6323.44873,0.04302
6325.37720,0.07491
6327.30567,0.06918
6329.23414,0.07101
6331.16261,0.08058
6333.09108,0.04522
6335.01955,0.03490
6336.94801,0.09859
6338.87648,0.15589
6340.80495,0.14775
6342.73342,0.10041
6344.66189,0.04423
6346.59036,-0.00893
6348.51883,-0.02633
6350.44729,-0.01613
6352.37576,-0.00659
6354.30423,0.01930
6356.23270,0.05092
6358.16117,0.05372
6360.08964,0.04850
6362.01811,0.08979
6363.94658,0.15813
6365.87504,0.15859
6367.80351,0.06442
6369.73198,-0.01817
6371.66045,-0.03856
6373.58892,-0.03758
6375.51739,-0.02356
6377.44586,0.00773
6379.37432,0.05022
6381.30279,0.08078
6383.23126,0.05913
6385.15973,0.01204
6387.08820,-0.00624
6389.01667,0.01921
6390.94514,0.07491
6392.87361,0.11899
6394.80207,0.14561
6396.73054,0.15239
6398.65901,0.11591
6400.58748,0.06625
6402.51595,0.04860
6404.44442,0.06348
6406.37289,0.09283
6408.30135,0.09039
6410.22982,0.06487
6412.15829,0.08880
6414.08676,0.13962
6416.01523,0.14356
6417.94370,0.10179
6419.87217,0.08542
6421.80064,0.12386
6423.72910,0.16146
6425.65757,0.11953
6427.58604,0.02254
6429.51451,-0.02978
6431.44298,-0.03123
6433.37145,-0.00153
6435.29992,0.07287
6437.22838,0.13988
6439.15685,0.12783
6441.08532,0.05080
6443.01379,-0.01249
6444.94226,0.03363
6446.87073,0.11911
6448.79920,0.13290
6450.72766,0.12117
6452.65613,0.10919
6454.58460,0.06486
6456.51307,0.02761
6458.44154,0.01128
6460.37001,-0.01536
6462.29848,-0.02940
6464.22695,-0.00110
6466.15541,0.03499
6468.08388,0.03748
6470.01235,0.03822
6471.94082,0.08983
6473.86929,0.15129
6475.79776,0.14519
6477.72623,0.11151
6479.65469,0.10774
6481.58316,0.06304
6483.51163,-0.00580
6485.44010,0.00209
6487.36857,0.04722
6489.29704,0.03412
6491.22551,-0.01112
6493.15398,-0.00477
6495.08244,0.02670
6497.01091,0.04592
6498.93938,0.07008
6500.86785,0.10189
6502.79632,0.10679
6504.72479,0.06689
6506.65326,0.04119
6508.58172,0.04818
6510.51019,0.00920
6512.43866,-0.05827
6514.36713,-0.02951
6516.29560,0.06777
6518.22407,0.09669
6520.15254,0.04738
6522.08101,0.02249
6524.00947,0.05994
6525.93794,0.08936
6527.86641,0.07975
6529.79488,0.06134
6531.72335,0.03770
6533.65182,0.01352
6535.58029,0.01230
6537.50875,0.05706
6539.43722,0.12820
6541.36569,0.16839
6543.29416,0.14977
6545.22263,0.10454
6547.15110,0.06854
6549.07957,0.04006
6551.00804,0.00300
6552.93650,-0.03874
6554.86497,-0.03122
6556.79344,0.00582
6558.72191,0.00185
6560.65038,-0.01433
6562.57885,0.00986
6564.50732,0.07423
6566.43578,0.11560
6568.36425,0.09374
6570.29272,0.09271
6572.22119,0.11461
6574.14966,0.06577
6576.07813,0.00436
6578.00660,0.01054
6579.93507,0.04149
6581.86353,0.06625
6583.79200,0.07089
6585.72047,0.03486
6587.64894,0.00804
6589.57741,0.02864
6591.50588,0.05918
6593.43435,0.06236
6595.36281,0.04380
6597.29128,0.06478
6599.21975,0.14827
6601.14822,0.20100
6603.07669,0.18350
6605.00516,0.17380
6606.93363,0.15235
6608.86210,0.07555
6610.79056,-0.00435
6612.71903,-0.03486
6614.64750,-0.02311
6616.57597,0.01112
6618.50444,0.05384
6620.43291,0.05503
6622.36138,0.01065
6624.28984,0.01949
6626.21831,0.06307
6628.14678,0.03150
6630.07525,-0.00331
6632.00372,0.01266
6633.93219,-0.01308
6635.86066,-0.03816
6637.78912,0.00425
6639.71759,0.05979
6641.64606,0.11661
6643.57453,0.14628
6645.50300,0.07697
6647.43147,-0.01340
6649.35994,0.01737
6651.28841,0.10849
6653.21687,0.12216
6655.14534,0.04815
6657.07381,0.00742
6659.00228,0.02844
6660.93075,0.03612
6662.85922,0.05851
6664.78769,0.07419
6666.71615,0.03744
6668.64462,-0.00169
6670.57309,0.00839
6672.50156,0.05753
6674.43003,0.05125
6676.35850,-0.03047
6678.28697,-0.07092
6680.21544,-0.06152
6682.14390,-0.04636
6684.07237,0.01254
6686.00084,0.06966
6687.92931,0.07265
6689.85778,0.08244
6691.78625,0.09131
6693.71472,0.06385
6695.64318,0.03776
6697.57165,0.02085
6699.50012,-0.01012
6701.42859,0.00592
6703.35706,0.09505
6705.28553,0.13987
6707.21400,0.08854
6709.14247,0.04191
6711.07093,0.02219
6712.99940,-0.01783
6714.92787,-0.06028
6716.85634,-0.04947
6718.78481,0.01942
6720.71328,0.06316
6722.64175,0.06366
6724.57021,0.06217
6726.49868,0.05551
6728.42715,0.07395
6730.35562,0.09845
6732.28409,0.05002
6734.21256,-0.01378
6736.14103,-0.01163
6738.06950,-0.00587
6739.99796,0.00295
6741.92643,0.07897
6743.85490,0.14204
6745.78337,0.14105
6747.71184,0.15978
6749.64031,0.21134
6751.56878,0.18964
6753.49724,0.10813
6755.42571,0.05685
6757.35418,0.03407
6759.28265,0.03047
6761.21112,0.06916
6763.13959,0.13817
6765.06806,0.16348
6766.99653,0.12580
6768.92499,0.10591
6770.85346,0.09899
6772.78193,0.05336
6774.71040,-0.01109
6776.63887,-0.05328
6778.56734,-0.01087
6780.49581,0.05680
6782.42427,0.00286
6784.35274,-0.09761
6786.28121,-0.07721
6788.20968,0.03922
6790.13815,0.13098
6792.06662,0.10190
6793.99509,0.01990
6795.92355,-0.01072
6797.85202,-0.02748
6799.78049,-0.03652
6801.70896,-0.00193
6803.63743,0.01846
6805.56590,0.03962
6807.49437,0.10133
6809.42284,0.11509
6811.35130,0.05369
6813.27977,-0.00096
6815.20824,-0.00465
6817.13671,0.04817
6819.06518,0.12243
6820.99365,0.12654
6822.92212,0.06226
6824.85058,0.08596
6826.77905,0.13415
6828.70752,0.06407
6830.63599,-0.03840
6832.56446,-0.07109
6834.49293,-0.04473
6836.42140,0.04310
6838.34987,0.11618
6840.27833,0.09531
6842.20680,0.02789
6844.13527,-0.01387
6846.06374,-0.00426
6847.99221,0.04675
6849.92068,0.08749
6851.84915,0.06565
6853.77761,-0.01328
6855.70608,-0.04767
6857.63455,0.03104
6859.56302,0.09932
6861.49149,0.09297
6863.41996,0.04117
6865.34843,-0.05632
6867.27690,-0.14905
6869.20536,-0.12751
6871.13383,-0.00673
6873.06230,0.09312
6874.99077,0.09197
6876.91924,0.05467
6878.84771,0.05764
6880.77618,0.12941
6882.70464,0.20563
6884.63311,0.18809
6886.56158,0.09007
6888.49005,0.00214
6890.41852,-0.05860
6892.34699,-0.09241
6894.27546,-0.04371
6896.20393,0.09290
6898.13239,0.20529
6900.06086,0.19401
6901.98933,0.11240
6903.91780,0.03721
6905.84627,-0.01168
6907.77474,-0.05324
6909.70321,-0.05657
6911.63167,0.00307
6913.56014,0.09404
6915.48861,0.13613
6917.41708,0.10334
6919.34555,0.11265
6921.27402,0.17861
6923.20249,0.17673
6925.13096,0.16466
6927.05942,0.17373
6928.98789,0.12109
6930.91636,0.02880
6932.84483,-0.00654
6934.77330,0.04363
6936.70177,0.12195
6938.63024,0.14022
6940.55870,0.10373
6942.48717,0.10535
6944.41564,0.15993
6946.34411,0.21911
6948.27258,0.18459
6950.20105,0.07359
6952.12952,0.02361
6954.05799,0.06600
6955.98645,0.12663
6957.91492,0.11745
6959.84339,0.01703
6961.77186,-0.06552
6963.70033,-0.03114
6965.62880,0.03028
6967.55727,0.01494
6969.48573,-0.02552
6971.41420,0.04559
6973.34267,0.18008
6975.27114,0.16208
6977.19961,0.04459
6979.12808,-0.01525
6981.05655,-0.03345
6982.98501,-0.00524
6984.91348,0.07729
6986.84195,0.14305
6988.77042,0.16169
6990.69889,0.16471
6992.62736,0.13245
6994.55583,0.01709
6996.48430,-0.13617
6998.41276,-0.17464
7000.34123,-0.05980
7002.26970,0.04930
7004.19817,0.06313
7006.12664,0.04061
7008.05511,0.01787
7009.98358,0.01458
7011.91204,0.05170
7013.84051,0.08182
7015.76898,0.07030
7017.69745,0.08324
7019.62592,0.09599
7021.55439,0.03432
7023.48286,-0.04620
7025.41133,-0.05473
7027.33979,-0.02911
7029.26826,-0.02213
7031.19673,-0.05479
7033.12520,-0.08519
7035.05367,0.00085
7036.98214,0.13875
7038.91061,0.12382
7040.83907,0.00759
7042.76754,0.02548
7044.69601,0.13497
7046.62448,0.02614
7048.55295,-0.18384
7050.48142,-0.21137
7052.40989,-0.11068
7054.33836,-0.03690
7056.26682,-0.03024
7058.19529,-0.00421
7060.12376,0.08994
7062.05223,0.12681
7063.98070,0.07499
7065.90917,0.07216
7067.83764,0.12953
7069.76610,0.16557
7071.69457,0.12594
7073.62304,0.05775
7075.55151,0.06766
7077.47998,0.11646
7079.40845,0.14398
7081.33692,0.18962
7083.26539,0.21339
7085.19385,0.17754
7087.12232,0.12500
7089.05079,0.09308
7090.97926,0.09828
7092.90773,0.11468
7094.83620,0.11863
7096.76467,0.10488
7098.69313,0.11606
7100.62160,0.15209
7102.55007,0.12336
7104.47854,0.03385
7106.40701,-0.03657
7108.33548,-0.05714
7110.26395,-0.05585
7112.19242,-0.07336
7114.12088,-0.15729
7116.04935,-0.24209
7117.97782,-0.13817
7119.90629,0.07365
7121.83476,0.13472
7123.76323,0.07144
7125.69170,0.00754
7127.62016,-0.02742
7129.54863,-0.08285
7131.47710,-0.14069
7133.40557,-0.11499
7135.33404,-0.04761
7137.26251,-0.08132
7139.19098,-0.17134
7141.11944,-0.09655
7143.04791,0.15470
7144.97638,0.33877
7146.90485,0.28508
7148.83332,0.15249
7150.76179,0.13770
7152.69026,0.22771
7154.61873,0.21088
7156.54719,0.08406
7158.47566,0.03116
7160.40413,0.01076
7162.33260,-0.06097
7164.26107,-0.13362
7166.18954,-0.11536
7168.11801,0.01597
7170.04647,0.13344
7171.97494,0.12964
7173.90341,0.11089
7175.83188,0.12588
7177.76035,0.10507
7179.68882,0.08936
7181.61729,0.08637
7183.54576,0.04216
7185.47422,0.06186
7187.40269,0.18502
7189.33116,0.33092
7191.25963,0.38167
7193.18810,0.27040
7195.11657,0.10295
7197.04504,-0.03022
7198.97350,-0.06797
7200.90197,-0.02332
7202.83044,0.01086
7204.75891,-0.01687
7206.68738,-0.01177
7208.61585,0.09283
7210.54432,0.19748
7212.47279,0.18651
7214.40125,0.08127
7216.32972,0.03418
7218.25819,0.15524
7220.18666,0.24346
7222.11513,0.18665
7224.04360,0.09714
7225.97207,0.04960
7227.90053,-0.05025
7229.82900,-0.25128
7231.75747,-0.25369
7233.68594,-0.01106
7235.61441,0.09779
7237.54288,0.03852
7239.47135,0.00540
7241.39982,0.09230
7243.32828,0.22234
7245.25675,0.22543
7247.18522,0.17296
7249.11369,0.18636
7251.04216,0.28619
7252.97063,0.40123
7254.89910,0.32990
7256.82756,0.12839
7258.75603,-0.01803
7260.68450,0.01263
7262.61297,0.10532
7264.54144,0.07260
7266.46991,0.01685
7268.39838,-0.03682
7270.32685,-0.13428
7272.25531,-0.15855
7274.18378,-0.07972
7276.11225,-0.03872
7278.04072,-0.04356
7279.96919,-0.02595
7281.89766,0.05087
7283.82613,0.12324
7285.75459,0.15824
7287.68306,0.11880
7289.61153,-0.01893
7291.54000,-0.15625
7293.46847,-0.18378
7295.39694,-0.10933
7297.32541,-0.00772
7299.25387,0.02743
7301.18234,-0.03320
7303.11081,-0.13059
7305.03928,-0.16248
7306.96775,-0.11588
7308.89622,-0.03103
7310.82469,0.10177
7312.75316,0.20485
7314.68162,0.25022
7316.61009,0.20732
7318.53856,0.04966
7320.46703,-0.05024
7322.39550,-0.06451
7324.32397,-0.09431
7326.25244,-0.05416
7328.18090,0.09202
7330.10937,0.14806
7332.03784,0.13605
7333.96631,0.21203
7335.89478,0.29029
7337.82325,0.36718
7339.75172,0.48323
7341.68019,0.49376
7343.60865,0.34844
7345.53712,0.13844
7347.46559,-0.01955
7349.39406,-0.10793
7351.32253,-0.08039
7353.25100,0.09368
7355.17947,0.21857
7357.10793,0.20217
7359.03640,0.10502
7360.96487,0.05479
7362.89334,0.09010
7364.82181,0.09458
7366.75028,0.07827
7368.67875,0.11627
7370.60722,0.10546
7372.53568,-0.01012
7374.46415,-0.11684
7376.39262,-0.07283
7378.32109,0.03621
7380.24956,0.07515
7382.17803,-0.05065
7384.10650,-0.21751
7386.03496,-0.21199
7387.96343,-0.08237
7389.89190,0.03162
7391.82037,0.10570
7393.74884,0.15219
7395.67731,0.20225
7397.60578,0.15244
7399.53425,-0.01670
7401.46271,-0.05548
7403.39118,0.08419
7405.31965,0.13808
7407.24812,0.06365
7409.17659,0.00350
7411.10506,-0.01960
7413.03353,0.00136
7414.96199,0.07018
7416.89046,0.11476
7418.81893,0.01658
7420.74740,-0.10321
7422.67587,-0.07539
7424.60434,0.02806
7426.53281,0.10253
7428.46128,0.08724
7430.38974,-0.02832
7432.31821,-0.18527
7434.24668,-0.19140
7436.17515,0.05811
7438.10362,0.32628
7440.03209,0.32867
7441.96056,0.11152
7443.88902,-0.04825
7445.81749,-0.07708
7447.74596,-0.03153
7449.67443,0.11330
7451.60290,0.28363
7453.53137,0.33184
7455.45984,0.29557
7457.38831,0.27068
7459.31677,0.24767
7461.24524,0.19300
7463.17371,0.13207
7465.10218,0.05463
7467.03065,-0.03759
7468.95912,-0.07274
7470.88759,0.03810
7472.81605,0.26324
7474.74452,0.40919
7476.67299,0.38160
7478.60146,0.26608
7480.52993,0.14980
7482.45840,0.05614
7484.38687,0.09485
7486.31533,0.15729
7488.24380,0.07207
7490.17227,-0.07773
7492.10074,-0.07255
7494.02921,0.03602
7495.95768,0.10817
7497.88615,0.15112
