399.19301,0.87297
401.12148,-0.08289
403.04995,-0.09697
404.97842,0.05704
406.90689,0.10947
408.83536,0.04437
410.76382,-0.05020
412.69229,-0.08603
414.62076,-0.08350
416.54923,-0.03713
418.47770,0.07914
420.40617,0.10346
422.33464,0.03468
424.26311,0.04481
426.19157,0.12234
428.12004,0.13104
430.04851,0.07067
431.97698,0.05660
433.90545,0.05780
435.83392,0.03505
437.76239,0.05386
439.69085,0.11429
441.61932,0.17293
443.54779,0.19872
445.47626,0.18291
447.40473,0.13744
449.33320,0.07276
451.26167,0.00519
453.19013,-0.00249
455.11860,0.06408
457.04707,0.09702
458.97554,0.03048
460.90401,-0.02247
462.83248,0.02011
464.76095,0.06661
466.68942,0.02959
468.61788,-0.01308
470.54635,-0.01023
472.47482,0.04426
474.40329,0.15500
476.33176,0.19765
478.26023,0.19362
480.18870,0.17869
482.11716,0.13616
484.04563,0.09796
485.97410,0.06479
487.90257,-0.00781
489.83104,-0.07538
491.75951,-0.06264
493.68798,0.00841
495.61645,0.05758
497.54491,0.05833
499.47338,0.05198
501.40185,0.07240
503.33032,0.10482
505.25879,0.11458
507.18726,0.07766
509.11573,0.02423
511.04419,0.01182
512.97266,0.03469
514.90113,0.06348
516.82960,0.09077
518.75807,0.10249
520.68654,0.08629
522.61501,0.06552
524.54348,0.04918
526.47194,0.02700
528.40041,0.01598
530.32888,0.01808
532.25735,0.00908
534.18582,0.00926
536.11429,0.03625
538.04276,0.03955
539.97122,0.02650
541.89969,0.02364
543.82816,0.01142
545.75663,0.01331
547.68510,0.03910
549.61357,0.03117
551.54204,-0.05809
553.47051,-0.12069
555.39897,-0.03706
557.32744,0.07151
559.25591,0.09382
561.18438,0.09103
563.11285,0.08384
565.04132,0.06366
566.96979,0.03466
568.89825,0.01393
570.82672,0.02933
572.75519,0.05101
574.68366,0.04307
576.61213,0.02932
578.54060,0.03515
580.46907,0.04847
582.39754,0.05389
584.32600,0.04203
586.25447,0.02158
588.18294,0.02586
590.11141,0.05553
592.03988,0.07424
593.96835,0.07721
595.89682,0.08311
597.82528,0.08521
599.75375,0.08081
601.68222,0.08273
603.61069,0.08447
605.53916,0.08071
607.46763,0.08470
609.39610,0.08773
611.32456,0.08041
613.25303,0.06765
615.18150,0.05005
617.10997,0.04367
619.03844,0.05147
620.96691,0.05291
622.89538,0.05295
624.82385,0.06806
626.75231,0.08028
628.68078,0.06616
630.60925,0.05863
632.53772,0.08604
634.46619,0.11638
636.39466,0.12230
638.32313,0.11126
640.25159,0.10092
642.18006,0.09939
644.10853,0.09856
646.03700,0.09470
647.96547,0.09006
649.89394,0.08460
651.82241,0.07635
653.75088,0.06495
655.67934,0.06187
657.60781,0.07369
659.53628,0.09043
661.46475,0.09567
663.39322,0.08638
665.32169,0.08386
667.25016,0.10313
669.17862,0.12539
671.10709,0.12604
673.03556,0.11972
674.96403,0.10816
676.89250,0.09137
678.82097,0.07695
680.74944,0.06774
682.67791,0.06931
684.60637,0.08173
686.53484,0.08469
688.46331,0.07925
690.39178,0.08242
692.32025,0.09284
694.24872,0.10453
696.17719,0.10637
698.10565,0.09400
700.03412,0.08216
701.96259,0.08014
703.89106,0.08299
705.81953,0.09109
707.74800,0.10952
709.67647,0.12191
711.60494,0.11362
713.53340,0.09994
715.46187,0.09497
717.39034,0.09598
719.31881,0.10056
721.24728,0.10770
723.17575,0.11007
725.10422,0.10604
727.03268,0.10925
728.96115,0.12042
730.88962,0.11775
732.81809,0.09605
734.74656,0.08109
736.67503,0.08723
738.60350,0.09726
740.53197,0.09835
742.46043,0.09557
744.38890,0.09108
746.31737,0.08228
748.24584,0.07940
750.17431,0.09330
752.10278,0.10860
754.03125,0.10807
755.95971,0.09851
757.88818,0.09612
759.81665,0.10117
761.74512,0.09797
763.67359,0.08738
765.60206,0.08441
767.53053,0.08974
769.45900,0.09413
771.38746,0.09362
773.31593,0.09064
775.24440,0.08855
777.17287,0.08932
779.10134,0.09471
781.02981,0.10355
782.95828,0.11034
784.88674,0.11193
786.81521,0.10778
788.74368,0.10055
790.67215,0.09417
792.60062,0.08753
794.52909,0.08384
796.45756,0.08952
798.38602,0.09845
800.31449,0.10142
802.24296,0.10083
804.17143,0.10144
806.09990,0.10218
808.02837,0.09839
809.95684,0.09410
811.88531,0.09909
813.81377,0.10080
815.74224,0.08782
817.67071,0.07749
819.59918,0.08222
821.52765,0.09366
823.45612,0.09816
825.38459,0.09259
827.31305,0.08610
829.24152,0.08403
831.16999,0.08629
833.09846,0.09226
835.02693,0.09683
836.95540,0.09926
838.88387,0.10465
840.81234,0.11020
842.74080,0.11364
844.66927,0.11834
846.59774,0.12043
848.52621,0.11282
850.45468,0.10048
852.38315,0.09823
854.31162,0.10635
856.24008,0.11302
858.16855,0.11734
860.09702,0.12083
862.02549,0.12250
863.95396,0.12291
865.88243,0.11982
867.81090,0.11551
869.73937,0.11557
871.66783,0.11675
873.59630,0.11428
875.52477,0.11367
877.45324,0.11858
879.38171,0.11936
881.31018,0.11147
883.23865,0.10336
885.16711,0.09858
887.09558,0.09753
889.02405,0.10035
890.95252,0.10453
892.88099,0.11232
894.80946,0.12005
896.73793,0.11840
898.66640,0.10898
900.59486,0.10130
902.52333,0.10191
904.45180,0.10353
906.38027,0.10193
908.30874,0.10968
910.23721,0.12346
912.16568,0.12815
914.09414,0.12582
916.02261,0.12410
917.95108,0.12591
919.87955,0.12681
921.80802,0.12137
923.73649,0.11548
925.66496,0.11349
927.59343,0.11300
929.52189,0.11281
931.45036,0.10883
933.37883,0.10085
935.30730,0.10015
937.23577,0.10953
939.16424,0.11466
941.09271,0.10989
943.02117,0.10626
944.94964,0.11033
946.87811,0.11513
948.80658,0.11210
950.73505,0.10649
952.66352,0.10957
954.59199,0.11906
956.52045,0.12354
958.44892,0.12140
960.37739,0.11839
962.30586,0.11673
964.23433,0.11519
966.16280,0.11388
968.09127,0.11679
970.01974,0.12331
971.94820,0.12673
973.87667,0.12622
975.80514,0.12656
977.73361,0.12939
979.66208,0.13064
981.59055,0.12668
983.51902,0.11971
985.44748,0.11691
987.37595,0.12177
989.30442,0.12593
991.23289,0.12477
993.16136,0.12272
995.08983,0.11896
997.01830,0.11439
998.94677,0.11218
1000.87523,0.11152
1002.80370,0.11370
1004.73217,0.11950
1006.66064,0.12651
1008.58911,0.12903
1010.51758,0.12772
1012.44605,0.12951
1014.37451,0.13050
1016.30298,0.12722
1018.23145,0.12186
1020.15992,0.11538
1022.08839,0.11308
1024.01686,0.11327
1025.94533,0.10324
1027.87380,0.09082
1029.80226,0.09704
1031.73073,0.11253
1033.65920,0.12086
1035.58767,0.12367
1037.51614,0.12225
1039.44461,0.12107
1041.37308,0.12483
1043.30154,0.12867
1045.23001,0.13045
1047.15848,0.13436
1049.08695,0.13889
1051.01542,0.13855
1052.94389,0.13049
1054.87236,0.12310
1056.80083,0.12640
1058.72929,0.13279
1060.65776,0.13512
1062.58623,0.13478
1064.51470,0.13352
1066.44317,0.13382
1068.37164,0.13351
1070.30011,0.13399
1072.22857,0.13894
1074.15704,0.14258
1076.08551,0.13962
1078.01398,0.13209
1079.94245,0.12585
1081.87092,0.12482
1083.79939,0.12764
1085.72786,0.13262
1087.65632,0.13325
1089.58479,0.12611
1091.51326,0.12503
1093.44173,0.13289
1095.37020,0.13761
1097.29867,0.14238
1099.22714,0.14972
1101.15560,0.15207
1103.08407,0.14833
1105.01254,0.14420
1106.94101,0.14568
1108.86948,0.14754
1110.79795,0.14260
1112.72642,0.13559
1114.65489,0.13154
1116.58335,0.13006
1118.51182,0.13062
1120.44029,0.13295
1122.36876,0.13500
1124.29723,0.13453
1126.22570,0.13138
1128.15417,0.12625
1130.08263,0.11871
1132.01110,0.11394
1133.93957,0.11885
1135.86804,0.12856
1137.79651,0.13272
1139.72498,0.13204
1141.65345,0.13417
1143.58191,0.13262
1145.51038,0.12430
1147.43885,0.12441
1149.36732,0.13404
1151.29579,0.14039
1153.22426,0.13989
1155.15273,0.13602
1157.08120,0.13326
1159.00966,0.13567
1160.93813,0.14126
1162.86660,0.14167
1164.79507,0.13697
1166.72354,0.13516
1168.65201,0.13647
1170.58048,0.13757
1172.50894,0.13842
1174.43741,0.14008
1176.36588,0.14225
1178.29435,0.14295
1180.22282,0.14110
1182.15129,0.13874
1184.07976,0.14612
1186.00823,0.15536
1187.93669,0.14534
1189.86516,0.13380
1191.79363,0.13755
1193.72210,0.14048
1195.65057,0.13825
1197.57904,0.13700
1199.50751,0.13569
1201.43597,0.13515
1203.36444,0.13890
1205.29291,0.14301
1207.22138,0.14522
1209.14985,0.14879
1211.07832,0.15140
1213.00679,0.15073
1214.93526,0.14668
1216.86372,0.14108
1218.79219,0.13931
1220.72066,0.14373
1222.64913,0.14878
1224.57760,0.14782
1226.50607,0.14218
1228.43454,0.13632
1230.36300,0.13377
1232.29147,0.13671
1234.21994,0.14082
1236.14841,0.14130
1238.07688,0.14110
1240.00535,0.14170
1241.93382,0.14060
1243.86229,0.13786
1245.79075,0.13602
1247.71922,0.13854
1249.64769,0.14422
1251.57616,0.14568
1253.50463,0.14054
1255.43310,0.13692
1257.36157,0.13706
1259.29003,0.13483
1261.21850,0.13306
1263.14697,0.13613
1265.07544,0.13759
1267.00391,0.13374
1268.93238,0.13159
1270.86085,0.13480
1272.78932,0.13804
1274.71778,0.13769
1276.64625,0.13999
1278.57472,0.14535
1280.50319,0.14197
1282.43166,0.13378
1284.36013,0.13424
1286.28860,0.13896
1288.21706,0.14128
1290.14553,0.14276
1292.07400,0.13933
1294.00247,0.13077
1295.93094,0.12491
1297.85941,0.12399
1299.78788,0.11971
1301.71634,0.10144
1303.64481,0.08028
1305.57328,0.08369
1307.50175,0.11245
1309.43022,0.13731
1311.35869,0.14722
1313.28716,0.15115
1315.21563,0.15098
1317.14409,0.14998
1319.07256,0.14885
1321.00103,0.14523
1322.92950,0.14158
1324.85797,0.13770
1326.78644,0.13565
1328.71491,0.13790
1330.64337,0.13573
1332.57184,0.13177
1334.50031,0.13474
1336.42878,0.13707
1338.35725,0.13328
1340.28572,0.12527
1342.21419,0.14228
1344.14266,0.16804
1346.07112,0.14973
1347.99959,0.12584
1349.92806,0.13234
1351.85653,0.13537
1353.78500,0.13086
1355.71347,0.13023
1357.64194,0.13443
1359.57040,0.14283
1361.49887,0.15225
1363.42734,0.15339
1365.35581,0.14797
1367.28428,0.14855
1369.21275,0.15300
1371.14122,0.15702
1373.06969,0.16166
1374.99815,0.16515
1376.92662,0.16359
1378.85509,0.15920
1380.78356,0.15559
1382.71203,0.15582
1384.64050,0.16199
1386.56897,0.16995
1388.49743,0.17187
1390.42590,0.16926
1392.35437,0.16921
1394.28284,0.17070
1396.21131,0.17263
1398.13978,0.17564
1400.06825,0.17284
1401.99672,0.16613
1403.92518,0.16308
1405.85365,0.16248
1407.78212,0.16093
1409.71059,0.16147
1411.63906,0.16411
1413.56753,0.16558
1415.49600,0.16732
1417.42446,0.17030
1419.35293,0.17106
1421.28140,0.17006
1423.20987,0.16782
1425.13834,0.16238
1427.06681,0.15997
1428.99528,0.16364
1430.92375,0.16795
1432.85221,0.17018
1434.78068,0.17381
1436.70915,0.17712
1438.63762,0.17393
1440.56609,0.16883
1442.49456,0.16353
1444.42303,0.16086
1446.35149,0.16477
1448.27996,0.16891
1450.20843,0.17000
1452.13690,0.17479
1454.06537,0.18682
1455.99384,0.20498
1457.92231,0.20771
1459.85077,0.19215
1461.77924,0.18665
1463.70771,0.18921
1465.63618,0.18588
1467.56465,0.17599
1469.49312,0.17198
1471.42159,0.17720
1473.35006,0.18652
1475.27852,0.18683
1477.20699,0.17818
1479.13546,0.16943
1481.06393,0.16573
1482.99240,0.16668
1484.92087,0.17231
1486.84934,0.18514
1488.77780,0.19806
1490.70627,0.19268
1492.63474,0.18079
1494.56321,0.18110
1496.49168,0.19281
1498.42015,0.19628
1500.34862,0.18427
1502.27709,0.17802
1504.20555,0.19201
1506.13402,0.22499
1508.06249,0.22675
1509.99096,0.20462
1511.91943,0.19500
1513.84790,0.19474
1515.77637,0.20149
1517.70483,0.20677
1519.63330,0.20834
1521.56177,0.21108
1523.49024,0.20649
1525.41871,0.19924
1527.34718,0.19436
1529.27565,0.19198
1531.20412,0.19375
1533.13258,0.19536
1535.06105,0.19373
1536.98952,0.19787
1538.91799,0.21328
1540.84646,0.22851
1542.77493,0.22352
1544.70340,0.20799
1546.63186,0.19385
1548.56033,0.19015
1550.48880,0.19261
1552.41727,0.19772
1554.34574,0.20833
1556.27421,0.22243
1558.20268,0.23645
1560.13115,0.22256
1562.05961,0.20132
1563.98808,0.19116
1565.91655,0.18703
1567.84502,0.18917
1569.77349,0.19212
1571.70196,0.18930
1573.63043,0.19129
1575.55889,0.19971
1577.48736,0.19717
1579.41583,0.18529
1581.34430,0.17641
1583.27277,0.17241
1585.20124,0.17302
1587.12971,0.17451
1589.05818,0.17484
1590.98664,0.17516
1592.91511,0.17469
1594.84358,0.17319
1596.77205,0.17297
1598.70052,0.17594
1600.62899,0.18065
1602.55746,0.18253
1604.48592,0.18078
1606.41439,0.17910
1608.34286,0.17846
1610.27133,0.17712
1612.19980,0.17671
1614.12827,0.18152
1616.05674,0.19051
1617.98521,0.19098
1619.91367,0.18560
1621.84214,0.18597
1623.77061,0.18911
1625.69908,0.18830
1627.62755,0.18566
1629.55602,0.18242
1631.48449,0.18139
1633.41295,0.18784
1635.34142,0.20242
1637.26989,0.20696
1639.19836,0.20009
1641.12683,0.19473
1643.05530,0.19528
1644.98377,0.20611
1646.91223,0.21999
1648.84070,0.21912
1650.76917,0.22094
1652.69764,0.23234
1654.62611,0.21874
1656.55458,0.19719
1658.48305,0.18601
1660.41152,0.18173
1662.33998,0.18464
1664.26845,0.19122
1666.19692,0.19727
1668.12539,0.20699
1670.05386,0.21441
1671.98233,0.20911
1673.91080,0.20288
1675.83926,0.19847
1677.76773,0.19471
1679.69620,0.19602
1681.62467,0.20525
1683.55314,0.22007
1685.48161,0.21786
1687.41008,0.20414
1689.33855,0.19590
1691.26701,0.19336
1693.19548,0.19647
1695.12395,0.20449
1697.05242,0.21171
1698.98089,0.21118
1700.90936,0.20225
1702.83783,0.19831
1704.76629,0.20166
1706.69476,0.19951
1708.62323,0.19149
1710.55170,0.18850
1712.48017,0.19231
1714.40864,0.20122
1716.33711,0.21037
1718.26558,0.20370
1720.19404,0.18955
1722.12251,0.18283
1724.05098,0.18072
1725.97945,0.18099
1727.90792,0.18522
1729.83639,0.19414
1731.76486,0.20675
1733.69332,0.21252
1735.62179,0.20004
1737.55026,0.19111
1739.47873,0.19265
1741.40720,0.19541
1743.33567,0.19474
1745.26414,0.19555
1747.19261,0.20029
1749.12107,0.20324
1751.04954,0.19516
1752.97801,0.18362
1754.90648,0.17924
1756.83495,0.18056
1758.76342,0.18287
1760.69189,0.18494
1762.62035,0.18591
1764.54882,0.18596
1766.47729,0.18881
1768.40576,0.19611
1770.33423,0.20519
1772.26270,0.20405
1774.19117,0.19064
1776.11964,0.18429
1778.04810,0.18659
1779.97657,0.18841
1781.90504,0.18544
1783.83351,0.18172
1785.76198,0.17938
1787.69045,0.18026
1789.61892,0.18753
1791.54738,0.19649
1793.47585,0.19529
1795.40432,0.18909
1797.33279,0.18637
1799.26126,0.18546
1801.18973,0.18472
1803.11820,0.18355
1805.04666,0.18264
1806.97513,0.18342
1808.90360,0.18455
1810.83207,0.18360
1812.76054,0.18160
1814.68901,0.18192
1816.61748,0.18505
1818.54595,0.18803
1820.47441,0.18808
1822.40288,0.18791
1824.33135,0.18799
1826.25982,0.18548
1828.18829,0.18599
1830.11676,0.18900
1832.04523,0.18688
1833.97369,0.18398
1835.90216,0.18420
1837.83063,0.18470
1839.75910,0.18325
1841.68757,0.18390
1843.61604,0.18854
1845.54451,0.18980
1847.47298,0.18685
1849.40144,0.18529
1851.32991,0.18514
1853.25838,0.18351
1855.18685,0.18024
1857.11532,0.17820
1859.04379,0.17839
1860.97226,0.18002
1862.90072,0.18199
1864.82919,0.18541
1866.75766,0.19192
1868.68613,0.19516
1870.61460,0.19004
1872.54307,0.18436
1874.47154,0.18190
1876.40001,0.18195
1878.32847,0.18260
1880.25694,0.18173
1882.18541,0.18102
1884.11388,0.18179
1886.04235,0.18343
1887.97082,0.18657
1889.89929,0.18845
1891.82775,0.18840
1893.75622,0.19141
1895.68469,0.19450
1897.61316,0.19187
1899.54163,0.18713
1901.47010,0.18329
1903.39857,0.17969
1905.32704,0.17847
1907.25550,0.18053
1909.18397,0.18274
1911.11244,0.18289
1913.04091,0.18293
1914.96938,0.18463
1916.89785,0.18661
1918.82632,0.18677
1920.75478,0.18566
1922.68325,0.18493
1924.61172,0.18472
1926.54019,0.18406
1928.46866,0.18258
1930.39713,0.18337
1932.32560,0.18688
1934.25407,0.18706
1936.18253,0.18359
1938.11100,0.18278
1940.03947,0.18611
1941.96794,0.18927
1943.89641,0.18834
1945.82488,0.18466
1947.75335,0.18187
1949.68181,0.18126
1951.61028,0.18066
1953.53875,0.17906
1955.46722,0.17955
1957.39569,0.18280
1959.32416,0.18574
1961.25263,0.18728
1963.18110,0.18820
1965.10956,0.18839
1967.03803,0.18645
1968.96650,0.18306
1970.89497,0.18153
1972.82344,0.18145
1974.75191,0.17955
1976.68038,0.17749
1978.60884,0.17928
1980.53731,0.18322
1982.46578,0.18552
1984.39425,0.18652
1986.32272,0.18768
1988.25119,0.18870
1990.17966,0.18930
1992.10812,0.18929
1994.03659,0.18800
1995.96506,0.18553
1997.89353,0.18329
1999.82200,0.18295
2001.75047,0.18424
2003.67894,0.18601
2005.60741,0.18637
2007.53587,0.18363
2009.46434,0.18051
2011.39281,0.18068
2013.32128,0.18302
2015.24975,0.18540
2017.17822,0.18774
2019.10669,0.18901
2021.03515,0.18836
2022.96362,0.18764
2024.89209,0.18788
2026.82056,0.18742
2028.74903,0.18598
2030.67750,0.18544
2032.60597,0.18547
2034.53444,0.18438
2036.46290,0.18223
2038.39137,0.18140
2040.31984,0.18407
2042.24831,0.18759
2044.17678,0.18853
2046.10525,0.18725
2048.03372,0.18443
2049.96218,0.18232
2051.89065,0.18308
2053.81912,0.18408
2055.74759,0.18363
2057.67606,0.18361
2059.60453,0.18451
2061.53300,0.18625
2063.46147,0.18918
2065.38993,0.19024
2067.31840,0.18772
2069.24687,0.18595
2071.17534,0.18705
2073.10381,0.18858
2075.03228,0.18821
2076.96075,0.18563
2078.88921,0.18390
2080.81768,0.18513
2082.74615,0.18646
2084.67462,0.18555
2086.60309,0.18465
2088.53156,0.18645
2090.46003,0.18962
2092.38850,0.19031
2094.31696,0.18786
2096.24543,0.18612
2098.17390,0.18615
2100.10237,0.18457
2102.03084,0.18244
2103.95931,0.18407
2105.88778,0.18732
2107.81624,0.18806
2109.74471,0.18685
2111.67318,0.18523
2113.60165,0.18475
2115.53012,0.18618
2117.45859,0.18864
2119.38706,0.19217
2121.31553,0.19456
2123.24399,0.19310
2125.17246,0.19049
2127.10093,0.18940
2129.02940,0.18832
2130.95787,0.18651
2132.88634,0.18531
2134.81481,0.18573
2136.74327,0.18782
2138.67174,0.18986
2140.60021,0.19020
2142.52868,0.18963
2144.45715,0.18971
2146.38562,0.19049
2148.31409,0.18998
2150.24255,0.18745
2152.17102,0.18526
2154.09949,0.18497
2156.02796,0.18593
2157.95643,0.18738
2159.88490,0.18846
2161.81337,0.18879
2163.74184,0.19024
2165.67030,0.19275
2167.59877,0.19255
2169.52724,0.18944
2171.45571,0.18703
2173.38418,0.18782
2175.31265,0.19033
2177.24112,0.19054
2179.16958,0.18901
2181.09805,0.18797
2183.02652,0.18692
2184.95499,0.18612
2186.88346,0.18635
2188.81193,0.18615
2190.74040,0.18402
2192.66887,0.18277
2194.59733,0.18326
2196.52580,0.18357
2198.45427,0.18472
2200.38274,0.18593
2202.31121,0.18544
2204.23968,0.18537
2206.16815,0.18696
2208.09661,0.18830
2210.02508,0.18852
2211.95355,0.18744
2213.88202,0.18598
2215.81049,0.18672
2217.73896,0.18819
2219.66743,0.18687
2221.59590,0.18386
2223.52436,0.18341
2225.45283,0.18655
2227.38130,0.19038
2229.30977,0.19225
2231.23824,0.19136
2233.16671,0.18946
2235.09518,0.18856
2237.02364,0.18798
2238.95211,0.18758
2240.88058,0.18761
2242.80905,0.18563
2244.73752,0.18306
2246.66599,0.18428
2248.59446,0.18657
2250.52293,0.18620
2252.45139,0.18543
2254.37986,0.18629
2256.30833,0.18768
2258.23680,0.18838
2260.16527,0.18877
2262.09374,0.18960
2264.02221,0.19052
2265.95067,0.19066
2267.87914,0.19045
2269.80761,0.19080
2271.73608,0.19122
2273.66455,0.19106
2275.59302,0.19117
2277.52149,0.19068
2279.44996,0.18844
2281.37842,0.18627
2283.30689,0.18422
2285.23536,0.18232
2287.16383,0.18385
2289.09230,0.18848
2291.02077,0.18985
2292.94924,0.18687
2294.87770,0.18764
2296.80617,0.19221
2298.73464,0.19227
2300.66311,0.18954
2302.59158,0.19080
2304.52005,0.19610
2306.44852,0.20228
2308.37699,0.20637
2310.30545,0.20615
2312.23392,0.20413
2314.16239,0.20376
2316.09086,0.20343
2318.01933,0.20372
2319.94780,0.20502
2321.87627,0.20537
2323.80473,0.21093
2325.73320,0.22125
2327.66167,0.22538
2329.59014,0.22430
2331.51861,0.22330
2333.44708,0.22124
2335.37555,0.21899
2337.30401,0.22121
2339.23248,0.23059
2341.16095,0.24210
2343.08942,0.25135
2345.01789,0.25054
2346.94636,0.23811
2348.87483,0.22806
2350.80330,0.22402
2352.73176,0.22314
2354.66023,0.22803
2356.58870,0.24300
2358.51717,0.26213
2360.44564,0.27372
2362.37411,0.27713
2364.30258,0.27615
2366.23104,0.26815
2368.15951,0.25110
2370.08798,0.23288
2372.01645,0.22059
2373.94492,0.20943
2375.87339,0.20171
2377.80186,0.20165
2379.73033,0.20160
2381.65879,0.19726
2383.58726,0.19307
2385.51573,0.19184
2387.44420,0.19052
2389.37267,0.18702
2391.30114,0.18562
2393.22961,0.18851
2395.15807,0.19158
2397.08654,0.19227
2399.01501,0.19184
2400.94348,0.19169
2402.87195,0.19223
2404.80042,0.19282
2406.72889,0.19157
2408.65736,0.18919
2410.58582,0.18973
2412.51429,0.19201
2414.44276,0.19148
2416.37123,0.18913
2418.29970,0.18811
2420.22817,0.18892
2422.15664,0.18932
2424.08510,0.18807
2426.01357,0.18677
2427.94204,0.18657
2429.87051,0.18903
2431.79898,0.19407
2433.72745,0.19804
2435.65592,0.19827
2437.58439,0.19523
2439.51285,0.19214
2441.44132,0.19089
2443.36979,0.18922
2445.29826,0.18785
2447.22673,0.18735
2449.15520,0.18323
2451.08367,0.17873
2453.01213,0.18106
2454.94060,0.18650
2456.86907,0.18802
2458.79754,0.18784
2460.72601,0.18953
2462.65448,0.19071
2464.58295,0.19088
2466.51142,0.18937
2468.43988,0.18584
2470.36835,0.18414
2472.29682,0.18523
2474.22529,0.18761
2476.15376,0.18980
2478.08223,0.19026
2480.01070,0.19004
2481.93916,0.18948
2483.86763,0.18844
2485.79610,0.19001
2487.72457,0.19348
2489.65304,0.19448
2491.58151,0.19290
2493.50998,0.19240
2495.43844,0.19454
2497.36691,0.19545
2499.29538,0.19419
2501.22385,0.19358
2503.15232,0.19282
2505.08079,0.19135
2507.00926,0.19012
2508.93773,0.19020
2510.86619,0.19232
2512.79466,0.19368
2514.72313,0.19201
2516.65160,0.18911
2518.58007,0.18771
2520.50854,0.18958
2522.43701,0.19237
2524.36547,0.19270
2526.29394,0.19193
2528.22241,0.19327
2530.15088,0.19541
2532.07935,0.19393
2534.00782,0.19123
2535.93629,0.19237
2537.86476,0.19554
2539.79322,0.19674
2541.72169,0.19519
2543.65016,0.19456
2545.57863,0.19777
2547.50710,0.19934
2549.43557,0.19382
2551.36404,0.18773
2553.29250,0.18873
2555.22097,0.19415
2557.14944,0.19765
2559.07791,0.19761
2561.00638,0.19716
2562.93485,0.19716
2564.86332,0.19505
2566.79179,0.19261
2568.72025,0.19326
2570.64872,0.19378
2572.57719,0.19187
2574.50566,0.19111
2576.43413,0.19243
2578.36260,0.19350
2580.29107,0.19483
2582.21953,0.19662
2584.14800,0.19570
2586.07647,0.19183
2588.00494,0.18914
2589.93341,0.18993
2591.86188,0.19193
2593.79035,0.19283
2595.71882,0.19424
2597.64728,0.19730
2599.57575,0.19948
2601.50422,0.19874
2603.43269,0.19702
2605.36116,0.19645
2607.28963,0.19561
2609.21810,0.19381
2611.14656,0.19385
2613.07503,0.19556
2615.00350,0.19586
2616.93197,0.19553
2618.86044,0.19501
2620.78891,0.19393
2622.71738,0.19380
2624.64585,0.19346
2626.57431,0.19121
2628.50278,0.18932
2630.43125,0.19117
2632.35972,0.19491
2634.28819,0.19581
2636.21666,0.19380
2638.14513,0.19214
2640.07359,0.19318
2642.00206,0.19607
2643.93053,0.19723
2645.85900,0.19622
2647.78747,0.19543
2649.71594,0.19587
2651.64441,0.19735
2653.57288,0.19671
2655.50134,0.19269
2657.42981,0.19123
2659.35828,0.19457
2661.28675,0.19696
2663.21522,0.19664
2665.14369,0.19633
2667.07216,0.19545
2669.00062,0.19443
2670.92909,0.19621
2672.85756,0.19979
2674.78603,0.20105
2676.71450,0.19843
2678.64297,0.19550
2680.57144,0.19685
2682.49990,0.20099
2684.42837,0.20232
2686.35684,0.20049
2688.28531,0.19932
2690.21378,0.19936
2692.14225,0.19865
2694.07072,0.19684
2695.99919,0.19657
2697.92765,0.19852
2699.85612,0.19917
2701.78459,0.19745
2703.71306,0.19628
2705.64153,0.19773
2707.57000,0.19991
2709.49847,0.20017
2711.42693,0.19864
2713.35540,0.19695
2715.28387,0.19632
2717.21234,0.19701
2719.14081,0.19917
2721.06928,0.20018
2722.99775,0.19691
2724.92622,0.19326
2726.85468,0.19525
2728.78315,0.20193
2730.71162,0.20684
2732.64009,0.20771
2734.56856,0.20721
2736.49703,0.20558
2738.42550,0.20308
2740.35396,0.20239
2742.28243,0.20347
2744.21090,0.20325
2746.13937,0.20242
2748.06784,0.20312
2749.99631,0.20418
2751.92478,0.20436
2753.85325,0.20217
2755.78171,0.19849
2757.71018,0.19661
2759.63865,0.19805
2761.56712,0.20402
2763.49559,0.21079
2765.42406,0.21156
2767.35253,0.20820
2769.28099,0.20600
2771.20946,0.20504
2773.13793,0.20410
2775.06640,0.20272
2776.99487,0.20099
2778.92334,0.20034
2780.85181,0.20223
2782.78028,0.20517
2784.70874,0.20624
2786.63721,0.20536
2788.56568,0.20443
2790.49415,0.20466
2792.42262,0.20492
2794.35109,0.20492
2796.27956,0.20637
2798.20802,0.20763
2800.13649,0.20642
2802.06496,0.20445
2803.99343,0.20378
2805.92190,0.20462
2807.85037,0.20569
2809.77884,0.20587
2811.70731,0.20595
2813.63577,0.20782
2815.56424,0.21153
2817.49271,0.21358
2819.42118,0.21174
2821.34965,0.20839
2823.27812,0.20747
2825.20659,0.20869
2827.13505,0.20733
2829.06352,0.20343
2830.99199,0.20166
2832.92046,0.20473
2834.84893,0.20965
2836.77740,0.20968
2838.70587,0.20633
2840.63433,0.20742
2842.56280,0.21136
2844.49127,0.21115
2846.41974,0.20821
2848.34821,0.20687
2850.27668,0.20608
2852.20515,0.20627
2854.13362,0.21022
2856.06208,0.21457
2857.99055,0.21390
2859.91902,0.20985
2861.84749,0.20683
2863.77596,0.20528
2865.70443,0.20215
2867.63290,0.19931
2869.56136,0.20273
2871.48983,0.20896
2873.41830,0.21100
2875.34677,0.21047
2877.27524,0.20992
2879.20371,0.20877
2881.13218,0.20791
2883.06065,0.20504
2884.98911,0.19919
2886.91758,0.19768
2888.84605,0.20112
2890.77452,0.20232
2892.70299,0.20017
2894.63146,0.19723
2896.55993,0.19725
2898.48839,0.20216
2900.41686,0.20715
2902.34533,0.20669
2904.27380,0.20017
2906.20227,0.19399
2908.13074,0.19452
2910.05921,0.19864
2911.98768,0.20115
2913.91614,0.19654
2915.84461,0.18547
2917.77308,0.18462
2919.70155,0.19603
2921.63002,0.20211
2923.55849,0.19550
2925.48696,0.18011
2927.41542,0.17343
2929.34389,0.18624
2931.27236,0.20042
2933.20083,0.20188
2935.12930,0.19154
2937.05777,0.17853
2938.98624,0.18117
2940.91471,0.19700
2942.84317,0.20450
2944.77164,0.19403
2946.70011,0.17673
2948.62858,0.17649
2950.55705,0.19375
2952.48552,0.20495
2954.41399,0.19826
2956.34245,0.17676
2958.27092,0.16443
2960.19939,0.18073
2962.12786,0.20462
2964.05633,0.21089
2965.98480,0.19768
2967.91327,0.18068
2969.84174,0.18094
2971.77020,0.19478
2973.69867,0.20379
2975.62714,0.19817
2977.55561,0.18408
2979.48408,0.18388
2981.41255,0.19850
2983.34102,0.20819
2985.26948,0.20519
2987.19795,0.19114
2989.12642,0.18259
2991.05489,0.19311
2992.98336,0.20871
2994.91183,0.21516
2996.84030,0.21248
2998.76877,0.20786
3000.69723,0.21080
3002.62570,0.21827
3004.55417,0.21862
3006.48264,0.20904
3008.41111,0.19467
3010.33958,0.17412
3012.26805,0.13709
3014.19651,0.08719
3016.12498,0.05781
3018.05345,0.08264
3019.98192,0.14360
3021.91039,0.19090
3023.83886,0.20866
3025.76733,0.20843
3027.69579,0.20344
3029.62426,0.20668
3031.55273,0.21569
3033.48120,0.21934
3035.40967,0.21543
3037.33814,0.20653
3039.26661,0.20409
3041.19508,0.21385
3043.12354,0.22200
3045.05201,0.21796
3046.98048,0.20606
3048.90895,0.20020
3050.83742,0.20319
3052.76589,0.20213
3054.69436,0.19270
3056.62282,0.18300
3058.55129,0.18653
3060.47976,0.20327
3062.40823,0.21378
3064.33670,0.20473
3066.26517,0.18778
3068.19364,0.18772
3070.12211,0.20267
3072.05057,0.20990
3073.97904,0.20203
3075.90751,0.19119
3077.83598,0.19405
3079.76445,0.20565
3081.69292,0.20678
3083.62139,0.19211
3085.54985,0.17869
3087.47832,0.18766
3089.40679,0.20697
3091.33526,0.20847
3093.26373,0.18976
3095.19220,0.17882
3097.12067,0.19542
3099.04914,0.21554
3100.97760,0.21255
3102.90607,0.19395
3104.83454,0.18528
3106.76301,0.19621
3108.69148,0.20774
3110.61995,0.20149
3112.54842,0.18776
3114.47688,0.19140
3116.40535,0.20887
3118.33382,0.21533
3120.26229,0.20266
3122.19076,0.18654
3124.11923,0.18649
3126.04770,0.19665
3127.97617,0.20022
3129.90463,0.19680
3131.83310,0.19869
3133.76157,0.20906
3135.69004,0.21623
3137.61851,0.21349
3139.54698,0.20623
3141.47545,0.20681
3143.40391,0.21542
3145.33238,0.21910
3147.26085,0.21580
3149.18932,0.21346
3151.11779,0.21548
3153.04626,0.21824
3154.97473,0.21667
3156.90320,0.21177
3158.83166,0.21048
3160.76013,0.21505
3162.68860,0.21847
3164.61707,0.21521
3166.54554,0.21057
3168.47401,0.21115
3170.40248,0.21476
3172.33094,0.21764
3174.25941,0.22101
3176.18788,0.22504
3178.11635,0.22590
3180.04482,0.22427
3181.97329,0.22192
3183.90176,0.21777
3185.83022,0.21407
3187.75869,0.21373
3189.68716,0.21612
3191.61563,0.21763
3193.54410,0.21732
3195.47257,0.21571
3197.40104,0.21320
3199.32951,0.21349
3201.25797,0.21464
3203.18644,0.21372
3205.11491,0.21506
3207.04338,0.21702
3208.97185,0.21488
3210.90032,0.21485
3212.82879,0.22121
3214.75725,0.22489
3216.68572,0.22123
3218.61419,0.21884
3220.54266,0.22036
3222.47113,0.22147
3224.39960,0.22163
3226.32807,0.21953
3228.25654,0.21546
3230.18500,0.21468
3232.11347,0.21780
3234.04194,0.21750
3235.97041,0.21355
3237.89888,0.21312
3239.82735,0.21381
3241.75582,0.21145
3243.68428,0.21099
3245.61275,0.21462
3247.54122,0.21559
3249.46969,0.21220
3251.39816,0.21151
3253.32663,0.21476
3255.25510,0.21750
3257.18357,0.22041
3259.11203,0.22169
3261.04050,0.21590
3262.96897,0.20793
3264.89744,0.20529
3266.82591,0.20789
3268.75438,0.21165
3270.68285,0.21228
3272.61131,0.21343
3274.53978,0.21870
3276.46825,0.22081
3278.39672,0.21652
3280.32519,0.21071
3282.25366,0.20766
3284.18213,0.20767
3286.11060,0.20783
3288.03906,0.20975
3289.96753,0.21125
3291.89600,0.20755
3293.82447,0.20533
3295.75294,0.20828
3297.68141,0.21031
3299.60988,0.20967
3301.53834,0.21126
3303.46681,0.21486
3305.39528,0.21465
3307.32375,0.21109
3309.25222,0.20883
3311.18069,0.20961
3313.10916,0.21154
3315.03763,0.21196
3316.96609,0.20992
3318.89456,0.20726
3320.82303,0.20791
3322.75150,0.21146
3324.67997,0.21382
3326.60844,0.21306
3328.53691,0.21223
3330.46537,0.21641
3332.39384,0.22216
3334.32231,0.22264
3336.25078,0.21963
3338.17925,0.21789
3340.10772,0.21659
3342.03619,0.21403
3343.96466,0.21277
3345.89312,0.21201
3347.82159,0.21019
3349.75006,0.21169
3351.67853,0.21578
3353.60700,0.21864
3355.53547,0.22192
3357.46394,0.22427
3359.39240,0.22300
3361.32087,0.22092
3363.24934,0.22006
3365.17781,0.22006
3367.10628,0.21880
3369.03475,0.21636
3370.96322,0.21949
3372.89168,0.22693
3374.82015,0.22892
3376.74862,0.22661
3378.67709,0.22395
3380.60556,0.21999
3382.53403,0.21993
3384.46250,0.22477
3386.39097,0.22721
3388.31943,0.22658
3390.24790,0.22480
3392.17637,0.22022
3394.10484,0.21388
3396.03331,0.21016
3397.96178,0.20967
3399.89025,0.20935
3401.81871,0.20675
3403.74718,0.20265
3405.67565,0.20113
3407.60412,0.20381
3409.53259,0.21007
3411.46106,0.21625
3413.38953,0.21647
3415.31800,0.21182
3417.24646,0.20850
3419.17493,0.20741
3421.10340,0.20387
3423.03187,0.19812
3424.96034,0.19522
3426.88881,0.19693
3428.81728,0.20256
3430.74574,0.20948
3432.67421,0.21173
3434.60268,0.20591
3436.53115,0.19894
3438.45962,0.19901
3440.38809,0.20413
3442.31656,0.21047
3444.24503,0.21625
3446.17349,0.21826
3448.10196,0.21546
3450.03043,0.20964
3451.95890,0.20495
3453.88737,0.20229
3455.81584,0.19775
3457.74431,0.19496
3459.67277,0.19841
3461.60124,0.20076
3463.52971,0.19822
3465.45818,0.19563
3467.38665,0.19163
3469.31512,0.18591
3471.24359,0.18670
3473.17206,0.19516
3475.10052,0.20193
3477.02899,0.20216
3478.95746,0.19851
3480.88593,0.19321
3482.81440,0.18868
3484.74287,0.18818
3486.67134,0.19003
3488.59980,0.19014
3490.52827,0.18885
3492.45674,0.19000
3494.38521,0.19493
3496.31368,0.19765
3498.24215,0.19401
3500.17062,0.18955
3502.09909,0.18696
3504.02755,0.18657
3505.95602,0.18953
3507.88449,0.19069
3509.81296,0.18683
3511.74143,0.18322
3513.66990,0.18255
3515.59837,0.18173
3517.52683,0.18002
3519.45530,0.17941
3521.38377,0.18061
3523.31224,0.18111
3525.24071,0.18238
3527.16918,0.18646
3529.09765,0.18489
3531.02611,0.17766
3532.95458,0.17411
3534.88305,0.17381
3536.81152,0.17208
3538.73999,0.16915
3540.66846,0.17068
3542.59693,0.17951
3544.52540,0.18953
3546.45386,0.19122
3548.38233,0.18484
3550.31080,0.17749
3552.23927,0.16961
3554.16774,0.16083
3556.09621,0.15759
3558.02468,0.16380
3559.95314,0.17112
3561.88161,0.17135
3563.81008,0.17246
3565.73855,0.17965
3567.66702,0.18041
3569.59549,0.17091
3571.52396,0.16298
3573.45243,0.15967
3575.38089,0.15898
3577.30936,0.15968
3579.23783,0.16019
3581.16630,0.16016
3583.09477,0.16324
3585.02324,0.16883
3586.95171,0.17120
3588.88017,0.16631
3590.80864,0.16090
3592.73711,0.16097
3594.66558,0.16119
3596.59405,0.15805
3598.52252,0.15853
3600.45099,0.15783
3602.37946,0.15064
3604.30792,0.14875
3606.23639,0.15616
3608.16486,0.16331
3610.09333,0.16533
3612.02180,0.16587
3613.95027,0.16476
3615.87874,0.16144
3617.80720,0.15633
3619.73567,0.15031
3621.66414,0.14788
3623.59261,0.14887
3625.52108,0.15219
3627.44955,0.16045
3629.37802,0.16868
3631.30649,0.16490
3633.23495,0.15632
3635.16342,0.14921
3637.09189,0.14497
3639.02036,0.14119
3640.94883,0.13901
3642.87730,0.14232
3644.80577,0.14979
3646.73423,0.15930
3648.66270,0.16704
3650.59117,0.16155
3652.51964,0.15189
3654.44811,0.14818
3656.37658,0.14558
3658.30505,0.14012
3660.23352,0.13649
3662.16198,0.13531
3664.09045,0.13604
3666.01892,0.13972
3667.94739,0.14458
3669.87586,0.14619
3671.80433,0.14578
3673.73280,0.15185
3675.66126,0.16024
3677.58973,0.15874
3679.51820,0.15284
3681.44667,0.14443
3683.37514,0.13465
3685.30361,0.13060
3687.23208,0.13887
3689.16055,0.15404
3691.08901,0.15640
3693.01748,0.14867
3694.94595,0.13965
3696.87442,0.13298
3698.80289,0.13343
3700.73136,0.13916
3702.65983,0.14231
3704.58829,0.14205
3706.51676,0.14714
3708.44523,0.16152
3710.37370,0.17407
3712.30217,0.16716
3714.23064,0.15614
3716.15911,0.15301
3718.08757,0.15119
3720.01604,0.14765
3721.94451,0.14471
3723.87298,0.14283
3725.80145,0.13862
3727.72992,0.13469
3729.65839,0.13583
3731.58686,0.14064
3733.51532,0.14680
3735.44379,0.14777
3737.37226,0.13906
3739.30073,0.13128
3741.22920,0.13083
3743.15767,0.13736
3745.08614,0.14344
3747.01460,0.14160
3748.94307,0.14318
3750.87154,0.15376
3752.80001,0.15358
3754.72848,0.14598
3756.65695,0.14523
3758.58542,0.14573
3760.51389,0.13935
3762.44235,0.13189
3764.37082,0.12896
3766.29929,0.13018
3768.22776,0.13163
3770.15623,0.13148
3772.08470,0.12831
3774.01317,0.12224
3775.94163,0.11968
3777.87010,0.12519
3779.79857,0.13194
3781.72704,0.13045
3783.65551,0.12256
3785.58398,0.11515
3787.51245,0.11471
3789.44092,0.11782
3791.36938,0.11862
3793.29785,0.11802
3795.22632,0.11873
3797.15479,0.12188
3799.08326,0.12996
3801.01173,0.14181
3802.94020,0.14184
3804.86866,0.13246
3806.79713,0.12886
3808.72560,0.13127
3810.65407,0.13076
3812.58254,0.12795
3814.51101,0.12883
3816.43948,0.13304
3818.36795,0.13557
3820.29641,0.13791
3822.22488,0.13653
3824.15335,0.13284
3826.08182,0.13097
3828.01029,0.12972
3829.93876,0.12787
3831.86723,0.12458
3833.79569,0.12221
3835.72416,0.12365
3837.65263,0.13152
3839.58110,0.13990
3841.50957,0.13682
3843.43804,0.12737
3845.36651,0.12131
3847.29498,0.12255
3849.22344,0.12947
3851.15191,0.14102
3853.08038,0.15131
3855.00885,0.14002
3856.93732,0.12739
3858.86579,0.12536
3860.79426,0.12820
3862.72272,0.13106
3864.65119,0.12976
3866.57966,0.12721
3868.50813,0.13089
3870.43660,0.13754
3872.36507,0.13951
3874.29354,0.13591
3876.22200,0.12709
3878.15047,0.12227
3880.07894,0.12562
3882.00741,0.12688
3883.93588,0.12132
3885.86435,0.11400
3887.79282,0.10970
3889.72129,0.11264
3891.64975,0.12089
3893.57822,0.11961
3895.50669,0.10952
3897.43516,0.10587
3899.36363,0.11420
3901.29210,0.12170
3903.22057,0.11779
3905.14903,0.11156
3907.07750,0.10974
3909.00597,0.11006
3910.93444,0.11007
3912.86291,0.10878
3914.79138,0.10730
3916.71985,0.10653
3918.64832,0.10488
3920.57678,0.10208
3922.50525,0.10301
3924.43372,0.10938
3926.36219,0.11353
3928.29066,0.11226
3930.21913,0.11171
3932.14760,0.11445
3934.07606,0.11613
3936.00453,0.11480
3937.93300,0.11209
3939.86147,0.10782
3941.78994,0.10339
3943.71841,0.10313
3945.64688,0.10678
3947.57535,0.11072
3949.50381,0.11018
3951.43228,0.10683
3953.36075,0.10854
3955.28922,0.11237
3957.21769,0.11231
3959.14616,0.11056
3961.07463,0.10914
3963.00309,0.10586
3964.93156,0.10073
3966.86003,0.09815
3968.78850,0.09977
3970.71697,0.10066
3972.64544,0.09774
3974.57391,0.09491
3976.50238,0.09651
3978.43084,0.10100
3980.35931,0.10263
3982.28778,0.10056
3984.21625,0.09877
3986.14472,0.09943
3988.07319,0.10181
3990.00166,0.10182
3991.93012,0.09827
3993.85859,0.09517
3995.78706,0.09487
3997.71553,0.09605
3999.64400,0.09337
4001.57247,0.08894
4003.50094,0.09365
4005.42941,0.10184
4007.35787,0.09975
4009.28634,0.09311
4011.21481,0.09162
4013.14328,0.09180
4015.07175,0.08966
4017.00022,0.08916
4018.92869,0.09308
4020.85715,0.09457
4022.78562,0.08973
4024.71409,0.08650
4026.64256,0.08902
4028.57103,0.09148
4030.49950,0.09095
4032.42797,0.08955
4034.35644,0.08854
4036.28490,0.08968
4038.21337,0.09310
4040.14184,0.09487
4042.07031,0.09338
4043.99878,0.09201
4045.92725,0.09124
4047.85572,0.08905
4049.78418,0.08824
4051.71265,0.08973
4053.64112,0.08946
4055.56959,0.08760
4057.49806,0.08795
4059.42653,0.09115
4061.35500,0.09474
4063.28346,0.09630
4065.21193,0.09429
4067.14040,0.09085
4069.06887,0.08896
4070.99734,0.08651
4072.92581,0.08251
4074.85428,0.07942
4076.78275,0.07870
4078.71121,0.07852
4080.63968,0.07637
4082.56815,0.07688
4084.49662,0.08377
4086.42509,0.09063
4088.35356,0.09253
4090.28203,0.08928
4092.21049,0.08079
4094.13896,0.07494
4096.06743,0.07702
4097.99590,0.07899
4099.92437,0.07712
4101.85284,0.07309
4103.78131,0.06882
4105.70978,0.06906
4107.63824,0.07306
4109.56671,0.07731
4111.49518,0.08085
4113.42365,0.08068
4115.35212,0.07496
4117.28059,0.06939
4119.20906,0.07090
4121.13752,0.07602
4123.06599,0.07520
4124.99446,0.06917
4126.92293,0.06634
4128.85140,0.06753
4130.77987,0.06988
4132.70834,0.07316
4134.63681,0.07615
4136.56527,0.07866
4138.49374,0.07974
4140.42221,0.07780
4142.35068,0.07507
4144.27915,0.07026
4146.20762,0.06196
4148.13609,0.05821
4150.06455,0.06218
4151.99302,0.06741
4153.92149,0.06884
4155.84996,0.06714
4157.77843,0.06711
4159.70690,0.06912
4161.63537,0.07011
4163.56384,0.07084
4165.49230,0.07267
4167.42077,0.07337
4169.34924,0.07360
4171.27771,0.07690
4173.20618,0.07879
4175.13465,0.07475
4177.06312,0.06936
4178.99158,0.06704
4180.92005,0.06516
4182.84852,0.06345
4184.77699,0.06439
4186.70546,0.06383
4188.63393,0.06200
4190.56240,0.06361
4192.49087,0.06520
4194.41933,0.06324
4196.34780,0.06216
4198.27627,0.06536
4200.20474,0.06749
4202.13321,0.06424
4204.06168,0.06012
4205.99015,0.06258
4207.91861,0.06838
4209.84708,0.06831
4211.77555,0.06529
4213.70402,0.06517
4215.63249,0.06648
4217.56096,0.06508
4219.48943,0.06013
4221.41789,0.05409
4223.34636,0.05023
4225.27483,0.05326
4227.20330,0.06160
4229.13177,0.06625
4231.06024,0.06109
4232.98871,0.05340
4234.91718,0.05279
4236.84564,0.05307
4238.77411,0.04998
4240.70258,0.05034
4242.63105,0.05284
4244.55952,0.05121
4246.48799,0.04992
4248.41646,0.05267
4250.34492,0.05445
4252.27339,0.05340
4254.20186,0.05218
4256.13033,0.05246
4258.05880,0.05114
4259.98727,0.04815
4261.91574,0.04619
4263.84421,0.04402
4265.77267,0.04635
4267.70114,0.05439
4269.62961,0.05671
4271.55808,0.05080
4273.48655,0.04891
4275.41502,0.05481
4277.34349,0.05836
4279.27195,0.05473
4281.20042,0.04911
4283.12889,0.04593
4285.05736,0.04380
4286.98583,0.04074
4288.91430,0.03566
4290.84277,0.03198
4292.77124,0.03412
4294.69970,0.03709
4296.62817,0.04052
4298.55664,0.04661
4300.48511,0.04948
4302.41358,0.04735
4304.34205,0.04520
4306.27052,0.04536
4308.19898,0.04298
4310.12745,0.03802
4312.05592,0.03595
4313.98439,0.03590
4315.91286,0.03421
4317.84133,0.02989
4319.76980,0.02725
4321.69827,0.02745
4323.62673,0.02564
4325.55520,0.02463
4327.48367,0.02834
4329.41214,0.03148
4331.34061,0.02896
4333.26908,0.02263
4335.19755,0.01977
4337.12601,0.02299
4339.05448,0.02582
4340.98295,0.02753
4342.91142,0.03291
4344.83989,0.03634
4346.76836,0.03021
4348.69683,0.02231
4350.62530,0.02078
4352.55376,0.02085
4354.48223,0.02093
4356.41070,0.02270
4358.33917,0.02254
4360.26764,0.01945
4362.19611,0.01485
4364.12458,0.01377
4366.05304,0.02080
4367.98151,0.02738
4369.90998,0.02663
4371.83845,0.02336
4373.76692,0.02189
4375.69539,0.02130
4377.62386,0.01815
4379.55232,0.01385
4381.48079,0.01382
4383.40926,0.01838
4385.33773,0.01996
4387.26620,0.01433
4389.19467,0.01248
4391.12314,0.01938
4393.05161,0.02138
4394.98007,0.01351
4396.90854,0.00679
4398.83701,0.00609
4400.76548,0.00576
4402.69395,0.00673
4404.62242,0.01421
4406.55089,0.02126
4408.47935,0.02028
4410.40782,0.01586
4412.33629,0.01546
4414.26476,0.02041
4416.19323,0.02366
4418.12170,0.01879
4420.05017,0.01182
4421.97864,0.01362
4423.90710,0.02252
4425.83557,0.02745
4427.76404,0.02523
4429.69251,0.02337
4431.62098,0.02657
4433.54945,0.02695
4435.47792,0.01934
4437.40638,0.01079
4439.33485,0.00825
4441.26332,0.01315
4443.19179,0.01707
4445.12026,0.01306
4447.04873,0.00888
4448.97720,0.01096
4450.90567,0.01294
4452.83413,0.00735
4454.76260,0.00044
4456.69107,0.00156
4458.61954,0.00794
4460.54801,0.01085
4462.47648,0.00698
4464.40495,0.00269
4466.33341,0.00395
4468.26188,0.00742
4470.19035,0.00903
4472.11882,0.00864
4474.04729,0.00609
4475.97576,0.00477
4477.90423,0.00808
4479.83270,0.01249
4481.76116,0.01334
4483.68963,0.01033
4485.61810,0.01024
4487.54657,0.01416
4489.47504,0.01260
4491.40351,0.00803
4493.33198,0.00869
4495.26044,0.00916
4497.18891,0.00668
4499.11738,0.00694
4501.04585,0.00698
4502.97432,0.00266
4504.90279,0.00053
4506.83126,0.00586
4508.75973,0.01294
4510.68819,0.01114
4512.61666,0.00236
4514.54513,-0.00051
4516.47360,0.00346
4518.40207,0.00590
4520.33054,0.00550
4522.25901,0.00561
4524.18747,0.00702
4526.11594,0.00608
4528.04441,0.00186
4529.97288,0.00218
4531.90135,0.00910
4533.82982,0.01318
4535.75829,0.00949
4537.68676,0.00369
4539.61522,0.00448
4541.54369,0.00994
4543.47216,0.01143
4545.40063,0.01007
4547.32910,0.00991
4549.25757,0.00662
4551.18604,-0.00282
4553.11450,-0.00909
4555.04297,-0.00555
4556.97144,-0.00303
4558.89991,-0.00820
4560.82838,-0.01202
4562.75685,-0.00630
4564.68532,0.00642
4566.61378,0.01282
4568.54225,0.00983
4570.47072,0.00951
4572.39919,0.01203
4574.32766,0.00765
4576.25613,-0.00141
4578.18460,-0.00492
4580.11307,-0.00337
4582.04153,-0.00081
4583.97000,0.00228
4585.89847,0.00183
4587.82694,0.00148
4589.75541,0.00978
4591.68388,0.02231
4593.61235,0.02455
4595.54081,0.01492
4597.46928,0.00586
4599.39775,0.00036
4601.32622,-0.00144
4603.25469,0.00208
4605.18316,0.00441
4607.11163,0.00235
4609.04010,0.00110
4610.96856,0.00316
4612.89703,0.00663
4614.82550,0.00754
4616.75397,0.00281
4618.68244,-0.00517
4620.61091,-0.01386
4622.53938,-0.02433
4624.46784,-0.03034
4626.39631,-0.02368
4628.32478,-0.01414
4630.25325,-0.01006
4632.18172,-0.00352
4634.11019,0.00721
4636.03866,0.01370
4637.96713,0.01379
4639.89559,0.01208
4641.82406,0.01113
4643.75253,0.01023
4645.68100,0.00881
4647.60947,0.00772
4649.53794,0.00806
4651.46641,0.00623
4653.39487,0.00190
4655.32334,0.00051
4657.25181,0.00246
4659.18028,0.00482
4661.10875,0.00722
4663.03722,0.01285
4664.96569,0.01899
4666.89416,0.01590
4668.82262,0.00581
4670.75109,0.00220
4672.67956,0.00911
4674.60803,0.01735
4676.53650,0.01887
4678.46497,0.01530
4680.39344,0.00934
4682.32190,0.00272
4684.25037,-0.00333
4686.17884,-0.01132
4688.10731,-0.01691
4690.03578,-0.01307
4691.96425,-0.00290
4693.89272,0.00554
4695.82119,0.00803
4697.74965,0.00237
4699.67812,-0.00498
4701.60659,-0.00180
4703.53506,0.00561
4705.46353,0.00393
4707.39200,-0.00034
4709.32047,-0.00130
4711.24893,-0.00400
4713.17740,-0.00354
4715.10587,0.00646
4717.03434,0.01617
4718.96281,0.01492
4720.89128,0.00726
4722.81975,0.00449
4724.74821,0.00627
4726.67668,0.00676
4728.60515,0.00710
4730.53362,0.00158
4732.46209,-0.01376
4734.39056,-0.02189
4736.31903,-0.01490
4738.24750,-0.00692
4740.17596,-0.00238
4742.10443,0.00378
4744.03290,0.00601
4745.96137,-0.00001
4747.88984,-0.00551
4749.81831,-0.00337
4751.74678,0.00361
4753.67524,0.01037
4755.60371,0.01201
4757.53218,0.00555
4759.46065,-0.00581
4761.38912,-0.01070
4763.31759,-0.00094
4765.24606,0.01287
4767.17453,0.01536
4769.10299,0.01138
4771.03146,0.01341
4772.95993,0.01644
4774.88840,0.01211
4776.81687,0.00837
4778.74534,0.01216
4780.67381,0.01415
4782.60227,0.00926
4784.53074,0.00472
4786.45921,0.00010
4788.38768,-0.00648
4790.31615,-0.00922
4792.24462,-0.00743
4794.17309,-0.00350
4796.10156,0.00403
4798.03002,0.01277
4799.95849,0.01185
4801.88696,-0.00135
4803.81543,-0.01331
4805.74390,-0.01436
4807.67237,-0.00742
4809.60084,0.00298
4811.52930,0.01019
4813.45777,0.00880
4815.38624,0.00805
4817.31471,0.01144
4819.24318,0.00581
4821.17165,-0.00659
4823.10012,-0.01072
4825.02859,-0.00455
4826.95705,0.00560
4828.88552,0.01411
4830.81399,0.01444
4832.74246,0.01075
4834.67093,0.01047
4836.59940,0.00881
4838.52787,0.00679
4840.45633,0.00666
4842.38480,0.00590
4844.31327,0.00671
4846.24174,0.00260
4848.17021,-0.00783
4850.09868,-0.00921
4852.02715,-0.00030
4853.95562,0.00744
4855.88408,0.01173
4857.81255,0.01085
4859.74102,0.00694
4861.66949,0.00965
4863.59796,0.01475
4865.52643,0.01064
4867.45490,-0.00024
4869.38336,-0.01059
4871.31183,-0.01306
4873.24030,-0.00511
4875.16877,0.00452
4877.09724,0.01320
4879.02571,0.01494
4880.95418,0.00810
4882.88265,0.00960
4884.81111,0.01863
4886.73958,0.02099
4888.66805,0.01016
4890.59652,-0.00587
4892.52499,-0.00570
4894.45346,0.00516
4896.38193,0.00549
4898.31039,0.00002
4900.23886,0.00372
4902.16733,0.01373
4904.09580,0.01595
4906.02427,0.00879
4907.95274,0.00256
4909.88121,-0.00062
4911.80967,-0.00015
4913.73814,0.00313
4915.66661,0.00303
4917.59508,-0.00276
4919.52355,-0.00945
4921.45202,-0.01142
4923.38049,-0.00727
4925.30896,-0.00067
4927.23742,0.00413
4929.16589,0.00487
4931.09436,0.00543
4933.02283,0.01204
4934.95130,0.02285
4936.87977,0.03286
4938.80824,0.03399
4940.73670,0.01941
4942.66517,-0.00211
4944.59364,-0.01334
4946.52211,-0.00947
4948.45058,-0.00100
4950.37905,-0.00203
4952.30752,-0.01001
4954.23599,-0.00988
4956.16445,-0.00439
4958.09292,0.00177
4960.02139,0.00863
4961.94986,0.00735
4963.87833,-0.00055
4965.80680,-0.00579
4967.73527,-0.00199
4969.66373,0.01186
4971.59220,0.02711
4973.52067,0.03660
4975.44914,0.03629
4977.37761,0.01992
4979.30608,-0.00274
4981.23455,-0.01294
4983.16302,-0.01341
4985.09148,-0.01024
4987.01995,-0.00544
4988.94842,-0.00458
4990.87689,-0.00754
4992.80536,-0.01166
4994.73383,-0.00915
4996.66230,0.00039
4998.59076,0.00438
5000.51923,-0.00105
5002.44770,-0.00638
5004.37617,-0.00154
5006.30464,0.00475
5008.23311,-0.00000
5010.16158,-0.00775
5012.09005,-0.00276
5014.01851,0.00636
5015.94698,0.00147
5017.87545,-0.00746
5019.80392,-0.00429
5021.73239,0.00710
5023.66086,0.01298
5025.58933,0.01183
5027.51779,0.01782
5029.44626,0.02958
5031.37473,0.02840
5033.30320,0.01503
5035.23167,0.01187
5037.16014,0.01923
5039.08861,0.01919
5041.01708,0.01306
5042.94554,0.00604
5044.87401,-0.00132
5046.80248,0.00158
5048.73095,0.01184
5050.65942,0.00902
5052.58789,-0.00437
5054.51636,-0.00243
5056.44482,0.01077
5058.37329,0.00580
5060.30176,-0.00760
5062.23023,-0.00445
5064.15870,0.00489
5066.08717,0.01654
5068.01564,0.03602
5069.94410,0.04144
5071.87257,0.01981
5073.80104,-0.00256
5075.72951,-0.00309
5077.65798,0.00348
5079.58645,0.00100
5081.51492,0.00118
5083.44339,0.00963
5085.37185,0.01024
5087.30032,-0.00306
5089.22879,-0.01373
5091.15726,-0.00601
5093.08573,0.00729
5095.01420,0.00297
5096.94267,-0.00926
5098.87113,-0.00807
5100.79960,-0.00016
5102.72807,0.00290
5104.65654,0.00684
5106.58501,0.01867
5108.51348,0.03276
5110.44195,0.03216
5112.37042,0.00843
5114.29888,-0.01443
5116.22735,-0.01263
5118.15582,0.00035
5120.08429,0.00850
5122.01276,0.01457
5123.94123,0.01573
5125.86970,0.00585
5127.79816,-0.00811
5129.72663,-0.01359
5131.65510,-0.00477
5133.58357,0.01162
5135.51204,0.01959
5137.44051,0.01591
5139.36898,0.01278
5141.29745,0.00872
5143.22591,-0.00615
5145.15438,-0.01636
5147.08285,-0.00566
5149.01132,0.01339
5150.93979,0.02412
5152.86826,0.02334
5154.79673,0.02107
5156.72519,0.02306
5158.65366,0.02083
5160.58213,0.01995
5162.51060,0.03130
5164.43907,0.03348
5166.36754,0.01245
5168.29601,-0.00102
5170.22448,0.01157
5172.15294,0.02547
5174.08141,0.02085
5176.00988,0.01164
5177.93835,0.01344
5179.86682,0.02251
5181.79529,0.02864
5183.72376,0.02621
5185.65222,0.01004
5187.58069,-0.00918
5189.50916,-0.00394
5191.43763,0.01950
5193.36610,0.03260
5195.29457,0.03075
5197.22304,0.02097
5199.15151,0.01450
5201.07997,0.01327
5203.00844,0.00755
5204.93691,0.00498
5206.86538,0.01015
5208.79385,0.00834
5210.72232,0.00865
5212.65079,0.02895
5214.57925,0.05509
5216.50772,0.06275
5218.43619,0.05511
5220.36466,0.04946
5222.29313,0.04909
5224.22160,0.04795
5226.15007,0.03861
5228.07854,0.02670
5230.00700,0.02490
5231.93547,0.02923
5233.86394,0.03126
5235.79241,0.03184
5237.72088,0.03428
5239.64935,0.04294
5241.57782,0.05145
5243.50628,0.04742
5245.43475,0.04819
5247.36322,0.06404
5249.29169,0.06072
5251.22016,0.03704
5253.14863,0.02932
5255.07710,0.03196
5257.00556,0.02929
5258.93403,0.03773
5260.86250,0.05220
5262.79097,0.04183
5264.71944,0.00789
5266.64791,-0.01194
5268.57638,-0.00522
5270.50485,0.00697
5272.43331,0.01198
5274.36178,0.01059
5276.29025,0.00522
5278.21872,0.00957
5280.14719,0.02434
5282.07566,0.02277
5284.00413,0.00569
5285.93259,0.00323
5287.86106,0.01629
5289.78953,0.02496
5291.71800,0.02317
5293.64647,0.02836
5295.57494,0.04498
5297.50341,0.05564
5299.43188,0.05702
5301.36034,0.05347
5303.28881,0.04557
5305.21728,0.03618
5307.14575,0.02725
5309.07422,0.02188
5311.00269,0.02663
5312.93116,0.04517
5314.85962,0.06525
5316.78809,0.06917
5318.71656,0.06056
5320.64503,0.05331
5322.57350,0.04870
5324.50197,0.04739
5326.43044,0.05432
5328.35891,0.06232
5330.28737,0.06238
5332.21584,0.06204
5334.14431,0.06521
5336.07278,0.06099
5338.00125,0.04945
5339.92972,0.04358
5341.85819,0.04489
5343.78665,0.05066
5345.71512,0.06233
5347.64359,0.06697
5349.57206,0.05007
5351.50053,0.03043
5353.42900,0.03832
5355.35747,0.05667
5357.28594,0.05324
5359.21440,0.03542
5361.14287,0.01626
5363.07134,0.00152
5364.99981,0.00850
5366.92828,0.03462
5368.85675,0.04971
5370.78522,0.04459
5372.71368,0.03484
5374.64215,0.03314
5376.57062,0.03127
5378.49909,0.02744
5380.42756,0.03110
5382.35603,0.03789
5384.28450,0.05211
5386.21297,0.06937
5388.14143,0.06876
5390.06990,0.05492
5391.99837,0.03495
5393.92684,0.02309
5395.85531,0.04224
5397.78378,0.06471
5399.71225,0.06629
5401.64071,0.06484
5403.56918,0.05898
5405.49765,0.04721
5407.42612,0.03416
5409.35459,0.00656
5411.28306,-0.00962
5413.21153,0.01216
5415.13999,0.03487
5417.06846,0.04190
5418.99693,0.05260
5420.92540,0.07505
5422.85387,0.09143
5424.78234,0.07568
5426.71081,0.04387
5428.63928,0.04195
5430.56774,0.06883
5432.49621,0.08973
5434.42468,0.08967
5436.35315,0.06928
5438.28162,0.04859
5440.21009,0.04488
5442.13856,0.05625
5444.06702,0.06171
5445.99549,0.05715
5447.92396,0.04807
5449.85243,0.02846
5451.78090,0.01013
5453.70937,0.01173
5455.63784,0.03083
5457.56631,0.04894
5459.49477,0.06018
5461.42324,0.06640
5463.35171,0.06237
5465.28018,0.06412
5467.20865,0.08873
5469.13712,0.10740
5471.06559,0.08551
5472.99405,0.05538
5474.92252,0.06088
5476.85099,0.09173
5478.77946,0.11359
5480.70793,0.11128
5482.63640,0.08383
5484.56487,0.05684
5486.49334,0.04743
5488.42180,0.04494
5490.35027,0.04655
5492.27874,0.04769
5494.20721,0.04765
5496.13568,0.05410
5498.06415,0.06099
5499.99262,0.06147
5501.92108,0.04575
5503.84955,0.02820
5505.77802,0.02906
5507.70649,0.03219
5509.63496,0.02598
5511.56343,0.01984
5513.49190,0.02930
5515.42037,0.04708
5517.34883,0.03927
5519.27730,0.02112
5521.20577,0.03520
5523.13424,0.06712
5525.06271,0.07728
5526.99118,0.06812
5528.91965,0.06646
5530.84811,0.06758
5532.77658,0.04954
5534.70505,0.03396
5536.63352,0.04337
5538.56199,0.05157
5540.49046,0.04394
5542.41893,0.04020
5544.34740,0.04701
5546.27586,0.05568
5548.20433,0.05669
5550.13280,0.05140
5552.06127,0.05703
5553.98974,0.05970
5555.91821,0.03992
5557.84668,0.02585
5559.77514,0.03223
5561.70361,0.04283
5563.63208,0.04661
5565.56055,0.03039
5567.48902,0.00770
5569.41749,0.01983
5571.34596,0.06196
5573.27443,0.09720
5575.20289,0.10656
5577.13136,0.08466
5579.05983,0.04669
5580.98830,0.02437
5582.91677,0.02671
5584.84524,0.03856
5586.77371,0.05046
5588.70217,0.05038
5590.63064,0.03778
5592.55911,0.03453
5594.48758,0.05547
5596.41605,0.09203
5598.34452,0.10294
5600.27299,0.07335
5602.20145,0.05034
5604.12992,0.05485
5606.05839,0.06749
5607.98686,0.06917
5609.91533,0.03994
5611.84380,-0.00114
5613.77227,-0.01691
5615.70074,-0.00821
5617.62920,0.03255
5619.55767,0.08339
5621.48614,0.08460
5623.41461,0.05828
5625.34308,0.06730
5627.27155,0.09476
5629.20002,0.09226
5631.12848,0.07618
5633.05695,0.07614
5634.98542,0.08804
5636.91389,0.09310
5638.84236,0.08220
5640.77083,0.06589
5642.69930,0.05702
5644.62777,0.05469
5646.55623,0.06079
5648.48470,0.07994
5650.41317,0.08956
5652.34164,0.08149
5654.27011,0.07287
5656.19858,0.06670
5658.12705,0.06938
5660.05551,0.08466
5661.98398,0.10084
5663.91245,0.10224
5665.84092,0.09206
5667.76939,0.08331
5669.69786,0.07494
5671.62633,0.06717
5673.55480,0.05673
5675.48326,0.03927
5677.41173,0.03309
5679.34020,0.05439
5681.26867,0.07753
5683.19714,0.07339
5685.12561,0.05798
5687.05408,0.05475
5688.98254,0.06091
5690.91101,0.06579
5692.83948,0.06706
5694.76795,0.07323
5696.69642,0.07728
5698.62489,0.05390
5700.55336,0.03007
5702.48183,0.04380
5704.41029,0.06739
5706.33876,0.07732
5708.26723,0.07509
5710.19570,0.05449
5712.12417,0.02592
5714.05264,0.00745
5715.98111,0.00263
5717.90957,0.02514
5719.83804,0.07245
5721.76651,0.10280
5723.69498,0.09665
5725.62345,0.07217
5727.55192,0.04966
5729.48039,0.04665
5731.40886,0.07355
5733.33732,0.10632
5735.26579,0.10446
5737.19426,0.08036
5739.12273,0.07646
5741.05120,0.08167
5742.97967,0.07730
5744.90814,0.07933
5746.83660,0.09414
5748.76507,0.10709
5750.69354,0.10044
5752.62201,0.07623
5754.55048,0.06248
5756.47895,0.07077
5758.40742,0.09070
5760.33588,0.11154
5762.26435,0.11777
5764.19282,0.09507
5766.12129,0.05300
5768.04976,0.01966
5769.97823,0.01457
5771.90670,0.04198
5773.83517,0.08779
5775.76363,0.11613
5777.69210,0.10223
5779.62057,0.07778
5781.54904,0.08089
5783.47751,0.10307
5785.40598,0.12226
5787.33445,0.11291
5789.26291,0.06802
5791.19138,0.02765
5793.11985,0.03212
5795.04832,0.07303
5796.97679,0.11033
5798.90526,0.11627
5800.83373,0.10412
5802.76220,0.09948
5804.69066,0.09856
5806.61913,0.08826
5808.54760,0.08160
5810.47607,0.08224
5812.40454,0.07085
5814.33301,0.05465
5816.26148,0.04074
5818.18994,0.02223
5820.11841,0.02471
5822.04688,0.05296
5823.97535,0.08031
5825.90382,0.09331
5827.83229,0.07841
5829.76076,0.05023
5831.68923,0.04102
5833.61769,0.05733
5835.54616,0.08836
5837.47463,0.11188
5839.40310,0.11892
5841.33157,0.11434
5843.26004,0.09175
5845.18851,0.06072
5847.11697,0.04071
5849.04544,0.02859
5850.97391,0.03098
5852.90238,0.05404
5854.83085,0.07720
5856.75932,0.08386
5858.68779,0.07712
5860.61626,0.06388
5862.54472,0.04759
5864.47319,0.04841
5866.40166,0.08727
5868.33013,0.12769
5870.25860,0.12153
5872.18707,0.08381
5874.11554,0.04618
5876.04400,0.01817
5877.97247,0.00335
5879.90094,0.00709
5881.82941,0.02710
5883.75788,0.03872
5885.68635,0.03764
5887.61482,0.04755
5889.54329,0.04995
5891.47175,0.02836
5893.40022,0.02209
5895.32869,0.04690
5897.25716,0.06965
5899.18563,0.06670
5901.11410,0.04876
5903.04257,0.03162
5904.97103,0.03003
5906.89950,0.05702
5908.82797,0.09002
5910.75644,0.10211
5912.68491,0.10897
5914.61338,0.11961
5916.54185,0.12675
5918.47032,0.11245
5920.39878,0.07951
5922.32725,0.07868
5924.25572,0.09111
5926.18419,0.07377
5928.11266,0.07012
5930.04113,0.07335
5931.96960,0.04876
5933.89806,0.04662
5935.82653,0.07267
5937.75500,0.06674
5939.68347,0.03739
5941.61194,0.02775
5943.54041,0.04331
5945.46888,0.07375
5947.39734,0.11829
5949.32581,0.14167
5951.25428,0.11411
5953.18275,0.09141
5955.11122,0.09718
5957.03969,0.08056
5958.96816,0.03414
5960.89663,0.01317
5962.82509,0.03912
5964.75356,0.07018
5966.68203,0.07771
5968.61050,0.07669
5970.53897,0.07191
5972.46744,0.05032
5974.39591,0.03452
5976.32437,0.02315
5978.25284,0.00457
5980.18131,0.01963
5982.10978,0.05599
5984.03825,0.04983
5985.96672,0.00023
5987.89519,-0.03223
5989.82366,-0.00871
5991.75212,0.03884
5993.68059,0.06487
5995.60906,0.06163
5997.53753,0.04389
5999.46600,0.04247
6001.39447,0.06747
6003.32294,0.09227
6005.25140,0.10402
6007.17987,0.10151
6009.10834,0.09236
6011.03681,0.09255
6012.96528,0.10165
6014.89375,0.11833
6016.82222,0.11942
6018.75069,0.09301
6020.67915,0.09095
6022.60762,0.14175
6024.53609,0.18009
6026.46456,0.14990
6028.39303,0.11006
6030.32150,0.11082
6032.24997,0.10090
6034.17843,0.07739
6036.10690,0.08227
6038.03537,0.08822
6039.96384,0.07152
6041.89231,0.05402
6043.82078,0.05200
6045.74925,0.05464
6047.67772,0.04278
6049.60618,0.03610
6051.53465,0.03997
6053.46312,0.02384
6055.39159,0.00506
6057.32006,0.01369
6059.24853,0.03291
6061.17700,0.03974
6063.10546,0.03121
6065.03393,0.03136
6066.96240,0.05103
6068.89087,0.06167
6070.81934,0.06456
6072.74781,0.08050
6074.67628,0.09883
6076.60475,0.10868
6078.53321,0.10509
6080.46168,0.07435
6082.39015,0.03398
6084.31862,0.02964
6086.24709,0.04767
6088.17556,0.04048
6090.10403,0.01043
6092.03249,-0.02449
6093.96096,-0.05412
6095.88943,-0.05422
6097.81790,-0.00470
6099.74637,0.04019
6101.67484,0.04674
6103.60331,0.07257
6105.53177,0.12433
6107.46024,0.15223
6109.38871,0.15082
6111.31718,0.13985
6113.24565,0.12159
6115.17412,0.11179
6117.10259,0.10250
6119.03106,0.07741
6120.95952,0.07829
6122.88799,0.11397
6124.81646,0.11858
6126.74493,0.07056
6128.67340,0.05061
6130.60187,0.08367
6132.53034,0.09691
6134.45880,0.07843
6136.38727,0.06603
6138.31574,0.04728
6140.24421,0.01031
6142.17268,-0.00471
6144.10115,-0.00739
6146.02962,0.00206
6147.95809,0.04450
6149.88655,0.06548
6151.81502,0.04940
6153.74349,0.04778
6155.67196,0.05605
6157.60043,0.05244
6159.52890,0.04528
6161.45737,0.03842
6163.38583,0.03506
6165.31430,0.03992
6167.24277,0.04844
6169.17124,0.04025
6171.09971,0.01846
6173.02818,0.03539
6174.95665,0.06526
6176.88512,0.03772
6178.81358,0.00280
6180.74205,0.02023
6182.67052,0.05003
6184.59899,0.06664
6186.52746,0.07674
6188.45593,0.07041
6190.38440,0.04415
6192.31286,0.00998
6194.24133,0.00794
6196.16980,0.05238
6198.09827,0.09419
6200.02674,0.11101
6201.95521,0.12494
6203.88368,0.14245
6205.81215,0.13120
6207.74061,0.10324
6209.66908,0.11793
6211.59755,0.15491
6213.52602,0.15159
6215.45449,0.11330
6217.38296,0.07741
6219.31143,0.07755
6221.23989,0.11261
6223.16836,0.12532
6225.09683,0.07129
6227.02530,0.00867
6228.95377,-0.02481
6230.88224,-0.04411
6232.81071,-0.03670
6234.73918,-0.00518
6236.66764,0.02673
6238.59611,0.03501
6240.52458,0.01102
6242.45305,-0.01939
6244.38152,0.00142
6246.30999,0.08811
6248.23846,0.15107
6250.16692,0.12458
6252.09539,0.04061
6254.02386,-0.03526
6255.95233,-0.06153
6257.88080,-0.04012
6259.80927,0.00499
6261.73774,0.06434
6263.66621,0.12044
6265.59467,0.11732
6267.52314,0.04099
6269.45161,-0.00870
6271.38008,0.02458
6273.30855,0.09094
6275.23702,0.11248
6277.16549,0.09761
6279.09395,0.09988
6281.02242,0.07822
6282.95089,0.03840
6284.87936,0.04620
6286.80783,0.05103
6288.73630,0.04200
6290.66477,0.06832
6292.59323,0.08835
6294.52170,0.08903
6296.45017,0.10557
6298.37864,0.10174
6300.30711,0.04928
6302.23558,0.00950
6304.16405,0.02126
6306.09252,0.04557
6308.02098,0.04118
6309.94945,-0.00606
6311.87792,-0.04106
6313.80639,-0.01292
6315.73486,0.02641
6317.66333,0.03859
6319.59180,0.07309
6321.52026,0.12552
6323.44873,0.11117
6325.37720,0.06384
6327.30567,0.06721
6329.23414,0.07847
6331.16261,0.05113
6333.09108,0.02835
6335.01955,0.03641
6336.94801,0.06221
6338.87648,0.08501
6340.80495,0.10140
6342.73342,0.11479
6344.66189,0.12099
6346.59036,0.11223
6348.51883,0.08862
6350.44729,0.07003
6352.37576,0.06735
6354.30423,0.08162
6356.23270,0.09863
6358.16117,0.09490
6360.08964,0.06068
6362.01811,-0.00697
6363.94658,-0.06969
6365.87504,-0.04420
6367.80351,0.07123
6369.73198,0.16733
6371.66045,0.18762
6373.58892,0.14487
6375.51739,0.09441
6377.44586,0.07673
6379.37432,0.05885
6381.30279,0.02912
6383.23126,0.03772
6385.15973,0.06048
6387.08820,0.02336
6389.01667,-0.02966
6390.94514,-0.05426
6392.87361,-0.06390
6394.80207,-0.03702
6396.73054,0.01417
6398.65901,0.05429
6400.58748,0.06672
6402.51595,0.04160
6404.44442,0.01116
6406.37289,-0.00547
6408.30135,-0.01007
6410.22982,-0.01595
6412.15829,-0.03329
6414.08676,-0.01873
6416.01523,0.04208
6417.94370,0.11335
6419.87217,0.11884
6421.80064,0.04101
6423.72910,-0.03511
6425.65757,-0.05400
6427.58604,-0.01926
6429.51451,0.03561
6431.44298,0.07272
6433.37145,0.09721
6435.29992,0.11478
6437.22838,0.13612
6439.15685,0.15225
6441.08532,0.11612
6443.01379,0.05707
6444.94226,0.04232
6446.87073,0.06536
6448.79920,0.08591
6450.72766,0.08136
6452.65613,0.06600
6454.58460,0.03326
6456.51307,-0.01164
6458.44154,-0.01038
6460.37001,0.00862
6462.29848,0.00783
6464.22695,0.01848
6466.15541,0.02978
6468.08388,0.03866
6470.01235,0.06972
6471.94082,0.08282
6473.86929,0.05707
6475.79776,0.02069
6477.72623,-0.01845
6479.65469,-0.01554
6481.58316,0.04795
6483.51163,0.11251
6485.44010,0.15800
6487.36857,0.19173
6489.29704,0.20392
6491.22551,0.17092
6493.15398,0.11294
6495.08244,0.09767
6497.01091,0.09448
6498.93938,0.05267
6500.86785,0.02951
6502.79632,0.07822
6504.72479,0.12792
6506.65326,0.10579
6508.58172,0.01910
6510.51019,-0.02505
6512.43866,0.04222
6514.36713,0.09678
6516.29560,0.06388
6518.22407,0.03841
6520.15254,0.05120
6522.08101,0.03942
6524.00947,0.02876
6525.93794,0.05804
6527.86641,0.04929
6529.79488,-0.00292
6531.72335,-0.02148
6533.65182,-0.01493
6535.58029,-0.00760
6537.50875,0.04711
6539.43722,0.14358
6541.36569,0.20825
6543.29416,0.18191
6545.22263,0.08473
6547.15110,0.05422
6549.07957,0.13259
6551.00804,0.19998
6552.93650,0.16817
6554.86497,0.06604
6556.79344,-0.01566
6558.72191,-0.00139
6560.65038,0.04136
6562.57885,0.02866
6564.50732,-0.02204
6566.43578,-0.08029
6568.36425,-0.07374
6570.29272,0.02359
6572.22119,0.11571
6574.14966,0.14298
6576.07813,0.10983
6578.00660,0.06157
6579.93507,0.04555
6581.86353,0.04397
6583.79200,0.09179
6585.72047,0.16460
6587.64894,0.16447
6589.57741,0.11124
6591.50588,0.02732
6593.43435,-0.06040
6595.36281,-0.06856
6597.29128,-0.01649
6599.21975,0.04936
6601.14822,0.11649
6603.07669,0.15826
6605.00516,0.13438
6606.93363,0.03291
6608.86210,-0.05743
6610.79056,-0.05813
6612.71903,-0.00299
6614.64750,0.06719
6616.57597,0.11809
6618.50444,0.09838
6620.43291,0.04965
6622.36138,0.02412
6624.28984,0.02993
6626.21831,0.06785
6628.14678,0.10536
6630.07525,0.12049
6632.00372,0.12994
6633.93219,0.11750
6635.86066,0.05166
6637.78912,-0.01772
6639.71759,-0.01732
6641.64606,0.00844
6643.57453,-0.00007
6645.50300,0.00478
6647.43147,0.06275
6649.35994,0.13352
6651.28841,0.19808
6653.21687,0.22608
6655.14534,0.13954
6657.07381,-0.02688
6659.00228,-0.08364
6660.93075,-0.02766
6662.85922,0.05268
6664.78769,0.15344
6666.71615,0.21716
6668.64462,0.18691
6670.57309,0.09527
6672.50156,-0.00689
6674.43003,-0.06844
6676.35850,-0.03707
6678.28697,0.05971
6680.21544,0.08586
6682.14390,-0.00364
6684.07237,-0.07591
6686.00084,-0.04250
6687.92931,0.03738
6689.85778,0.09641
6691.78625,0.13942
6693.71472,0.19671
6695.64318,0.23755
6697.57165,0.20439
6699.50012,0.10627
6701.42859,0.00809
6703.35706,-0.03553
6705.28553,-0.08180
6707.21400,-0.14860
6709.14247,-0.13938
6711.07093,-0.09018
6712.99940,-0.07655
6714.92787,-0.08285
6716.85634,-0.08802
6718.78481,-0.04772
6720.71328,0.04510
6722.64175,0.08306
6724.57021,0.07106
6726.49868,0.08078
6728.42715,0.08668
6730.35562,0.07495
6732.28409,0.05086
6734.21256,0.00088
6736.14103,-0.05489
6738.06950,-0.05812
6739.99796,0.02203
6741.92643,0.11861
6743.85490,0.10327
6745.78337,0.02326
6747.71184,-0.00858
6749.64031,-0.00385
6751.56878,-0.01979
6753.49724,-0.05433
6755.42571,-0.04208
6757.35418,0.02828
6759.28265,0.07389
6761.21112,0.05081
6763.13959,0.00121
6765.06806,-0.03091
6766.99653,-0.04171
6768.92499,-0.03465
6770.85346,-0.00241
6772.78193,0.02623
6774.71040,0.01972
6776.63887,-0.00671
6778.56734,-0.00886
6780.49581,0.01487
6782.42427,0.06039
6784.35274,0.13137
6786.28121,0.18259
6788.20968,0.19347
6790.13815,0.19380
6792.06662,0.17690
6793.99509,0.12284
6795.92355,0.05724
6797.85202,0.02852
6799.78049,0.03567
6801.70896,0.04215
6803.63743,0.01728
6805.56590,-0.01895
6807.49437,-0.02570
6809.42284,-0.01464
6811.35130,-0.02449
6813.27977,-0.04257
6815.20824,-0.04693
6817.13671,-0.06507
6819.06518,-0.06594
6820.99365,-0.02826
6822.92212,0.02497
6824.85058,0.06700
6826.77905,0.07816
6828.70752,0.07579
6830.63599,0.05079
6832.56446,0.01841
6834.49293,0.04815
6836.42140,0.09876
6838.34987,0.10526
6840.27833,0.08417
6842.20680,0.04134
6844.13527,0.02126
6846.06374,0.00875
6847.99221,-0.02926
6849.92068,-0.01763
6851.84915,-0.00085
6853.77761,-0.02393
6855.70608,-0.01628
6857.63455,0.00679
6859.56302,0.01061
6861.49149,0.00098
6863.41996,-0.02921
6865.34843,-0.04695
6867.27690,-0.00357
6869.20536,0.04867
6871.13383,0.04206
6873.06230,0.05259
6874.99077,0.09898
6876.91924,0.04354
6878.84771,-0.11324
6880.77618,-0.21062
6882.70464,-0.17366
6884.63311,-0.05535
6886.56158,0.03885
6888.49005,0.02912
6890.41852,0.00287
6892.34699,0.06525
6894.27546,0.16736
6896.20393,0.22447
6898.13239,0.21012
6900.06086,0.17152
6901.98933,0.13827
6903.91780,0.05263
6905.84627,-0.05851
6907.77474,-0.03582
6909.70321,0.06333
6911.63167,0.09326
6913.56014,0.09135
6915.48861,0.08471
6917.41708,0.06172
6919.34555,0.11707
6921.27402,0.19049
6923.20249,0.12834
6925.13096,0.00501
6927.05942,-0.04880
6928.98789,-0.00839
6930.91636,0.05286
6932.84483,0.08457
6934.77330,0.08906
6936.70177,0.05537
6938.63024,-0.00590
6940.55870,-0.06431
6942.48717,-0.07380
6944.41564,-0.03246
6946.34411,0.03020
6948.27258,0.07736
6950.20105,0.04786
6952.12952,-0.02872
6954.05799,-0.09030
6955.98645,-0.13850
6957.91492,-0.11517
6959.84339,0.01151
6961.77186,0.13424
6963.70033,0.16026
6965.62880,0.11556
6967.55727,0.03521
6969.48573,-0.00051
6971.41420,0.04447
6973.34267,0.03585
6975.27114,-0.04690
6977.19961,-0.05429
6979.12808,0.00717
6981.05655,0.04605
6982.98501,0.08152
6984.91348,0.11452
6986.84195,0.08538
6988.77042,0.06378
6990.69889,0.06052
6992.62736,0.00712
6994.55583,-0.03809
6996.48430,0.00438
6998.41276,0.12007
7000.34123,0.19046
7002.26970,0.13182
7004.19817,0.00633
7006.12664,-0.10829
7008.05511,-0.15263
7009.98358,-0.10043
7011.91204,-0.01442
7013.84051,0.02517
7015.76898,0.03593
7017.69745,0.07578
7019.62592,0.13186
7021.55439,0.17315
7023.48286,0.15964
7025.41133,0.11726
7027.33979,0.17949
7029.26826,0.33282
7031.19673,0.35374
7033.12520,0.22697
7035.05367,0.06369
7036.98214,-0.08820
7038.91061,-0.15331
7040.83907,-0.08827
7042.76754,-0.01609
7044.69601,-0.04666
7046.62448,-0.06937
7048.55295,-0.02407
7050.48142,0.01407
7052.40989,-0.03296
7054.33836,-0.13175
7056.26682,-0.10547
7058.19529,0.07802
7060.12376,0.15459
7062.05223,0.08015
7063.98070,0.00732
7065.90917,-0.02965
7067.83764,-0.03298
7069.76610,0.06245
7071.69457,0.18726
7073.62304,0.20658
7075.55151,0.19137
7077.47998,0.18871
7079.40845,0.12696
7081.33692,0.01267
7083.26539,-0.00754
7085.19385,0.05867
7087.12232,0.10440
7089.05079,0.11583
7090.97926,0.15301
7092.90773,0.16601
7094.83620,0.10494
7096.76467,0.06891
7098.69313,0.06746
7100.62160,0.00740
7102.55007,-0.06315
7104.47854,-0.11005
7106.40701,-0.12173
7108.33548,-0.05979
7110.26395,0.03005
7112.19242,0.12677
7114.12088,0.17455
7116.04935,0.12984
7117.97782,0.08883
7119.90629,0.08760
7121.83476,0.04208
7123.76323,-0.01965
7125.69170,-0.04094
7127.62016,-0.04221
7129.54863,-0.02133
7131.47710,0.02844
7133.40557,0.05401
7135.33404,0.03890
7137.26251,-0.02318
7139.19098,-0.10825
7141.11944,-0.10802
7143.04791,-0.00471
7144.97638,0.09158
7146.90485,0.10743
7148.83332,0.07691
7150.76179,0.03194
7152.69026,0.02873
7154.61873,0.02668
7156.54719,-0.03242
7158.47566,-0.03293
7160.40413,0.04666
7162.33260,0.10259
7164.26107,0.07374
7166.18954,0.04514
7168.11801,0.14233
7170.04647,0.29226
7171.97494,0.36111
7173.90341,0.33030
7175.83188,0.22763
7177.76035,0.12647
7179.68882,0.08194
7181.61729,0.07584
7183.54576,0.06607
7185.47422,0.01813
7187.40269,-0.04379
7189.33116,-0.10528
7191.25963,-0.13994
7193.18810,-0.10439
7195.11657,-0.02859
7197.04504,0.02643
7198.97350,0.06223
7200.90197,0.07789
7202.83044,0.02979
7204.75891,-0.06664
7206.68738,-0.11160
7208.61585,-0.07054
7210.54432,-0.00395
7212.47279,0.00992
7214.40125,0.01839
7216.32972,0.10497
7218.25819,0.15891
7220.18666,0.09627
7222.11513,0.03726
7224.04360,-0.01605
7225.97207,0.00272
7227.90053,0.10269
7229.82900,0.03632
7231.75747,-0.13840
7233.68594,-0.10874
7235.61441,0.03355
7237.54288,0.15367
7239.47135,0.17176
7241.39982,0.05833
7243.32828,-0.05272
7245.25675,0.00477
7247.18522,0.09477
7249.11369,0.09970
7251.04216,0.07027
7252.97063,0.05922
7254.89910,0.01926
7256.82756,-0.08379
7258.75603,-0.21138
7260.68450,-0.27657
7262.61297,-0.28855
7264.54144,-0.29092
7266.46991,-0.21372
7268.39838,-0.09562
7270.32685,0.05063
7272.25531,0.16569
7274.18378,0.15087
7276.11225,0.21652
7278.04072,0.40356
7279.96919,0.45070
7281.89766,0.23200
7283.82613,0.00324
7285.75459,-0.10141
7287.68306,-0.08740
7289.61153,0.01276
7291.54000,0.07564
7293.46847,-0.01831
7295.39694,-0.11335
7297.32541,-0.07387
7299.25387,0.00095
7301.18234,0.05519
7303.11081,0.07722
7305.03928,0.01637
7306.96775,-0.08895
7308.89622,-0.15422
7310.82469,-0.15975
7312.75316,-0.09422
7314.68162,0.05625
7316.61009,0.19069
7318.53856,0.18985
7320.46703,0.18376
7322.39550,0.17619
7324.32397,0.07859
7326.25244,0.08476
7328.18090,0.27400
7330.10937,0.33383
7332.03784,0.19319
7333.96631,0.02670
7335.89478,-0.10407
7337.82325,-0.09781
7339.75172,0.08339
7341.68019,0.12368
7343.60865,0.06401
7345.53712,0.16060
7347.46559,0.25791
7349.39406,0.21543
7351.32253,0.14899
7353.25100,0.04738
7355.17947,-0.05290
7357.10793,-0.01646
7359.03640,0.06894
7360.96487,0.01683
7362.89334,0.07632
7364.82181,0.25065
7366.75028,0.29909
7368.67875,0.31516
7370.60722,0.31979
7372.53568,0.23669
7374.46415,0.13517
7376.39262,0.08674
7378.32109,-0.01328
7380.24956,-0.16941
7382.17803,-0.26292
7384.10650,-0.21524
7386.03496,-0.05300
7387.96343,0.10257
7389.89190,0.17999
7391.82037,0.15741
7393.74884,0.01511
7395.67731,-0.10648
7397.60578,-0.12236
7399.53425,-0.11183
7401.46271,-0.08677
7403.39118,-0.00419
7405.31965,0.06264
7407.24812,0.04187
7409.17659,-0.01906
7411.10506,-0.08672
7413.03353,-0.08573
7414.96199,-0.00883
7416.89046,0.07153
7418.81893,0.07623
7420.74740,0.02098
7422.67587,0.05254
7424.60434,0.10593
7426.53281,0.04017
7428.46128,-0.06232
7430.38974,-0.01073
7432.31821,0.04646
7434.24668,-0.03212
7436.17515,-0.05971
7438.10362,0.06809
7440.03209,0.21356
7441.96056,0.18222
7443.88902,0.09961
7445.81749,0.21694
7447.74596,0.41891
7449.67443,0.43584
7451.60290,0.25236
7453.53137,0.09388
7455.45984,0.07788
7457.38831,0.15347
7459.31677,0.16301
7461.24524,0.05121
7463.17371,0.02494
7465.10218,0.09375
7467.03065,0.12460
7468.95912,0.11326
7470.88759,0.05197
7472.81605,-0.07770
7474.74452,-0.10344
7476.67299,0.06795
7478.60146,0.26406
7480.52993,0.26631
7482.45840,0.20490
7484.38687,0.24487
7486.31533,0.24169
7488.24380,0.15117
7490.17227,0.11904
7492.10074,0.11762
7494.02921,0.04190
7495.95768,-0.07926
7497.88615,-0.25622
