399.19301,0.59878
401.12148,0.23532
403.04995,-0.04073
404.97842,-0.20782
406.90689,-0.10355
408.83536,0.11025
410.76382,0.21000
412.69229,0.21476
414.62076,0.21111
416.54923,0.12655
418.47770,-0.08536
420.40617,-0.18163
422.33464,-0.09987
424.26311,-0.03466
426.19157,-0.00967
428.12004,-0.00394
430.04851,-0.01466
431.97698,-0.01926
433.90545,-0.05474
435.83392,-0.07715
437.76239,-0.04848
439.69085,-0.00111
441.61932,0.05738
443.54779,0.13992
445.47626,0.22988
447.40473,0.28826
449.33320,0.23809
451.26167,0.12646
453.19013,0.07349
455.11860,0.07402
457.04707,0.06943
458.97554,0.06788
460.90401,0.09107
462.83248,0.11020
464.76095,0.08220
466.68942,0.00782
468.61788,-0.01088
470.54635,0.09327
472.47482,0.22332
474.40329,0.18874
476.33176,0.09674
478.26023,0.08521
480.18870,0.11248
482.11716,0.13409
484.04563,0.11747
485.97410,0.10791
487.90257,0.13862
489.83104,0.16347
491.75951,0.15922
493.68798,0.13569
495.61645,0.09011
497.54491,0.03297
499.47338,0.00501
501.40185,0.03165
503.33032,0.07857
505.25879,0.08542
507.18726,0.05104
509.11573,0.02070
511.04419,0.01307
512.97266,0.01359
514.90113,0.01762
516.82960,0.03289
518.75807,0.04933
520.68654,0.03742
522.61501,0.01014
524.54348,0.01084
526.47194,0.05877
528.40041,0.12684
530.32888,0.15664
532.25735,0.13263
534.18582,0.09664
536.11429,0.07093
538.04276,0.05121
539.97122,0.03744
541.89969,0.04218
543.82816,0.05050
545.75663,0.05199
547.68510,0.07689
549.61357,0.12624
551.54204,0.19602
553.47051,0.24060
555.39897,0.19766
557.32744,0.13114
559.25591,0.11062
561.18438,0.10753
563.11285,0.10167
565.04132,0.10414
566.96979,0.11292
568.89825,0.10000
570.82672,0.06887
572.75519,0.04898
574.68366,0.04380
576.61213,0.05055
578.54060,0.06138
580.46907,0.06115
582.39754,0.06021
584.32600,0.07317
586.25447,0.08252
588.18294,0.07323
590.11141,0.06043
592.03988,0.06914
593.96835,0.10621
595.89682,0.14708
597.82528,0.16364
599.75375,0.15254
601.68222,0.12466
603.61069,0.09436
605.53916,0.07567
607.46763,0.06327
609.39610,0.05268
611.32456,0.05149
613.25303,0.05187
615.18150,0.04917
617.10997,0.06505
619.03844,0.09216
620.96691,0.08793
622.89538,0.06563
624.82385,0.07070
626.75231,0.08474
628.68078,0.07428
630.60925,0.06391
632.53772,0.07322
634.46619,0.08684
636.39466,0.09762
638.32313,0.10015
640.25159,0.08711
642.18006,0.07236
644.10853,0.07484
646.03700,0.08938
647.96547,0.09242
649.89394,0.08040
651.82241,0.08072
653.75088,0.08477
655.67934,0.07330
657.60781,0.06993
659.53628,0.07452
661.46475,0.06931
663.39322,0.06747
665.32169,0.08176
667.25016,0.11058
669.17862,0.12560
671.10709,0.11604
673.03556,0.11133
674.96403,0.11187
676.89250,0.11171
678.82097,0.11271
680.74944,0.11327
682.67791,0.10920
684.60637,0.10604
686.53484,0.10726
688.46331,0.10548
690.39178,0.09393
692.32025,0.07707
694.24872,0.06599
696.17719,0.07119
698.10565,0.08878
700.03412,0.09843
701.96259,0.09556
703.89106,0.09176
705.81953,0.09040
707.74800,0.08681
709.67647,0.08013
711.60494,0.08157
713.53340,0.09426
715.46187,0.10179
717.39034,0.10116
719.31881,0.10420
721.24728,0.11349
723.17575,0.11373
725.10422,0.09420
727.03268,0.07656
728.96115,0.07730
730.88962,0.07991
732.81809,0.07468
734.74656,0.07216
736.67503,0.07567
738.60350,0.07933
740.53197,0.08772
742.46043,0.10223
744.38890,0.10685
746.31737,0.09631
748.24584,0.08136
750.17431,0.07323
752.10278,0.08050
754.03125,0.09741
755.95971,0.10759
757.88818,0.10374
759.81665,0.09761
761.74512,0.09491
763.67359,0.08522
765.60206,0.07842
767.53053,0.08957
769.45900,0.10502
771.38746,0.10999
773.31593,0.10586
775.24440,0.10170
777.17287,0.10582
779.10134,0.10998
781.02981,0.10771
782.95828,0.10771
784.88674,0.10515
786.81521,0.08958
788.74368,0.07170
790.67215,0.06890
792.60062,0.08462
794.52909,0.10636
796.45756,0.11665
798.38602,0.11377
800.31449,0.10970
802.24296,0.10698
804.17143,0.10114
806.09990,0.09911
808.02837,0.10326
809.95684,0.10355
811.88531,0.09872
813.81377,0.09708
815.74224,0.09855
817.67071,0.10164
819.59918,0.11258
821.52765,0.12007
823.45612,0.11274
825.38459,0.10656
827.31305,0.10984
829.24152,0.11353
831.16999,0.11351
833.09846,0.11252
835.02693,0.11257
836.95540,0.11016
838.88387,0.10442
840.81234,0.09874
842.74080,0.09674
844.66927,0.09941
846.59774,0.10265
848.52621,0.10866
850.45468,0.12036
852.38315,0.12632
854.31162,0.12392
856.24008,0.12187
858.16855,0.11765
860.09702,0.11096
862.02549,0.10978
863.95396,0.11421
865.88243,0.11280
867.81090,0.10515
869.73937,0.10626
871.66783,0.11459
873.59630,0.11763
875.52477,0.11382
877.45324,0.10618
879.38171,0.10123
881.31018,0.10337
883.23865,0.10453
885.16711,0.10049
887.09558,0.09776
889.02405,0.09790
890.95252,0.10018
892.88099,0.10163
894.80946,0.09680
896.73793,0.09547
898.66640,0.10784
900.59486,0.12095
902.52333,0.12086
904.45180,0.11356
906.38027,0.11049
908.30874,0.11341
910.23721,0.11717
912.16568,0.11708
914.09414,0.11390
916.02261,0.11470
917.95108,0.11893
919.87955,0.11805
921.80802,0.11599
923.73649,0.11861
925.66496,0.12120
927.59343,0.12376
929.52189,0.12534
931.45036,0.12044
933.37883,0.11447
935.30730,0.11360
937.23577,0.11419
939.16424,0.11632
941.09271,0.12197
943.02117,0.12834
944.94964,0.13633
946.87811,0.13926
948.80658,0.12697
950.73505,0.11417
952.66352,0.11513
954.59199,0.12032
956.52045,0.12219
958.44892,0.12191
960.37739,0.11863
962.30586,0.11702
964.23433,0.12325
966.16280,0.13008
968.09127,0.12545
970.01974,0.11820
971.94820,0.12205
973.87667,0.12496
975.80514,0.11973
977.73361,0.11634
979.66208,0.11346
981.59055,0.10947
983.51902,0.10796
985.44748,0.10766
987.37595,0.11231
989.30442,0.12014
991.23289,0.12198
993.16136,0.12344
995.08983,0.13033
997.01830,0.13661
998.94677,0.13739
1000.87523,0.12926
1002.80370,0.11828
1004.73217,0.11509
1006.66064,0.11677
1008.58911,0.11641
1010.51758,0.11398
1012.44605,0.11225
1014.37451,0.11332
1016.30298,0.11926
1018.23145,0.12698
1020.15992,0.12926
1022.08839,0.12339
1024.01686,0.11877
1025.94533,0.13345
1027.87380,0.15293
1029.80226,0.14558
1031.73073,0.12830
1033.65920,0.12591
1035.58767,0.12854
1037.51614,0.13007
1039.44461,0.13412
1041.37308,0.14098
1043.30154,0.14962
1045.23001,0.15474
1047.15848,0.15356
1049.08695,0.14869
1051.01542,0.13982
1052.94389,0.12993
1054.87236,0.12387
1056.80083,0.12131
1058.72929,0.12462
1060.65776,0.13442
1062.58623,0.14375
1064.51470,0.14304
1066.44317,0.13151
1068.37164,0.12442
1070.30011,0.13342
1072.22857,0.14806
1074.15704,0.15099
1076.08551,0.14574
1078.01398,0.14341
1079.94245,0.14121
1081.87092,0.13585
1083.79939,0.12822
1085.72786,0.12029
1087.65632,0.12006
1089.58479,0.12627
1091.51326,0.12677
1093.44173,0.12255
1095.37020,0.11891
1097.29867,0.11865
1099.22714,0.12776
1101.15560,0.13548
1103.08407,0.13175
1105.01254,0.12858
1106.94101,0.13232
1108.86948,0.13475
1110.79795,0.13079
1112.72642,0.12676
1114.65489,0.12830
1116.58335,0.13402
1118.51182,0.14080
1120.44029,0.14433
1122.36876,0.14224
1124.29723,0.13734
1126.22570,0.13546
1128.15417,0.13640
1130.08263,0.13546
1132.01110,0.13324
1133.93957,0.13096
1135.86804,0.12756
1137.79651,0.12353
1139.72498,0.12208
1141.65345,0.12731
1143.58191,0.13937
1145.51038,0.14977
1147.43885,0.14931
1149.36732,0.14112
1151.29579,0.13416
1153.22426,0.13145
1155.15273,0.13246
1157.08120,0.13556
1159.00966,0.13878
1160.93813,0.14087
1162.86660,0.14151
1164.79507,0.14343
1166.72354,0.14838
1168.65201,0.15318
1170.58048,0.15486
1172.50894,0.15382
1174.43741,0.15060
1176.36588,0.14653
1178.29435,0.14326
1180.22282,0.14055
1182.15129,0.13815
1184.07976,0.13419
1186.00823,0.13210
1187.93669,0.13771
1189.86516,0.14377
1191.79363,0.14338
1193.72210,0.14096
1195.65057,0.13992
1197.57904,0.13934
1199.50751,0.13892
1201.43597,0.13825
1203.36444,0.13745
1205.29291,0.13985
1207.22138,0.14482
1209.14985,0.14722
1211.07832,0.14576
1213.00679,0.14244
1214.93526,0.13919
1216.86372,0.13767
1218.79219,0.13821
1220.72066,0.13861
1222.64913,0.13846
1224.57760,0.13978
1226.50607,0.14269
1228.43454,0.14593
1230.36300,0.14857
1232.29147,0.14917
1234.21994,0.14649
1236.14841,0.14296
1238.07688,0.14175
1240.00535,0.14236
1241.93382,0.14383
1243.86229,0.14567
1245.79075,0.14682
1247.71922,0.14874
1249.64769,0.15121
1251.57616,0.14892
1253.50463,0.14493
1255.43310,0.14822
1257.36157,0.15410
1259.29003,0.15366
1261.21850,0.14891
1263.14697,0.14546
1265.07544,0.14450
1267.00391,0.14363
1268.93238,0.14292
1270.86085,0.14464
1272.78932,0.14575
1274.71778,0.14297
1276.64625,0.14261
1278.57472,0.14782
1280.50319,0.14977
1282.43166,0.14767
1284.36013,0.14829
1286.28860,0.15089
1288.21706,0.15362
1290.14553,0.15463
1292.07400,0.15270
1294.00247,0.15104
1295.93094,0.15030
1297.85941,0.14825
1299.78788,0.14533
1301.71634,0.14307
1303.64481,0.14096
1305.57328,0.14095
1307.50175,0.14798
1309.43022,0.15750
1311.35869,0.16022
1313.28716,0.15738
1315.21563,0.15476
1317.14409,0.15498
1319.07256,0.15688
1321.00103,0.15663
1322.92950,0.15533
1324.85797,0.15469
1326.78644,0.15241
1328.71491,0.15043
1330.64337,0.15130
1332.57184,0.15349
1334.50031,0.15467
1336.42878,0.15470
1338.35725,0.15421
1340.28572,0.13937
1342.21419,0.10728
1344.14266,0.09072
1346.07112,0.10878
1347.99959,0.13897
1349.92806,0.15215
1351.85653,0.15282
1353.78500,0.15650
1355.71347,0.16203
1357.64194,0.16537
1359.57040,0.16792
1361.49887,0.16816
1363.42734,0.16361
1365.35581,0.15959
1367.28428,0.15880
1369.21275,0.15971
1371.14122,0.16460
1373.06969,0.17295
1374.99815,0.17597
1376.92662,0.16978
1378.85509,0.16234
1380.78356,0.15963
1382.71203,0.16148
1384.64050,0.16428
1386.56897,0.16597
1388.49743,0.16580
1390.42590,0.16454
1392.35437,0.16507
1394.28284,0.16825
1396.21131,0.17193
1398.13978,0.17286
1400.06825,0.16991
1401.99672,0.16654
1403.92518,0.16492
1405.85365,0.16431
1407.78212,0.16479
1409.71059,0.16547
1411.63906,0.16447
1413.56753,0.16377
1415.49600,0.16939
1417.42446,0.18441
1419.35293,0.19549
1421.28140,0.18855
1423.20987,0.17610
1425.13834,0.16675
1427.06681,0.16564
1428.99528,0.17134
1430.92375,0.17463
1432.85221,0.17472
1434.78068,0.17795
1436.70915,0.17819
1438.63762,0.16983
1440.56609,0.16318
1442.49456,0.16040
1444.42303,0.16122
1446.35149,0.16572
1448.27996,0.16846
1450.20843,0.16943
1452.13690,0.17522
1454.06537,0.18504
1455.99384,0.19944
1457.92231,0.20904
1459.85077,0.19871
1461.77924,0.19071
1463.70771,0.19071
1465.63618,0.18605
1467.56465,0.17623
1469.49312,0.17512
1471.42159,0.18409
1473.35006,0.19234
1475.27852,0.18880
1477.20699,0.18061
1479.13546,0.17600
1481.06393,0.17567
1482.99240,0.17808
1484.92087,0.18431
1486.84934,0.19307
1488.77780,0.19834
1490.70627,0.19350
1492.63474,0.18842
1494.56321,0.19227
1496.49168,0.19917
1498.42015,0.19454
1500.34862,0.17646
1502.27709,0.16347
1504.20555,0.17345
1506.13402,0.20720
1508.06249,0.21389
1509.99096,0.19466
1511.91943,0.18679
1513.84790,0.19019
1515.77637,0.19927
1517.70483,0.20481
1519.63330,0.21015
1521.56177,0.21798
1523.49024,0.21412
1525.41871,0.20567
1527.34718,0.19844
1529.27565,0.19187
1531.20412,0.19139
1533.13258,0.19496
1535.06105,0.19414
1536.98952,0.19567
1538.91799,0.20942
1540.84646,0.22483
1542.77493,0.21685
1544.70340,0.20285
1546.63186,0.19259
1548.56033,0.18682
1550.48880,0.18419
1552.41727,0.18689
1554.34574,0.19537
1556.27421,0.20732
1558.20268,0.22359
1560.13115,0.21489
1562.05961,0.19490
1563.98808,0.18639
1565.91655,0.18502
1567.84502,0.18890
1569.77349,0.19293
1571.70196,0.19102
1573.63043,0.19270
1575.55889,0.20096
1577.48736,0.19905
1579.41583,0.18749
1581.34430,0.18136
1583.27277,0.18127
1585.20124,0.18134
1587.12971,0.18009
1589.05818,0.18013
1590.98664,0.18075
1592.91511,0.18143
1594.84358,0.18288
1596.77205,0.18247
1598.70052,0.18308
1600.62899,0.18712
1602.55746,0.18678
1604.48592,0.18087
1606.41439,0.17742
1608.34286,0.17929
1610.27133,0.18276
1612.19980,0.18457
1614.12827,0.18891
1616.05674,0.19743
1617.98521,0.19656
1619.91367,0.18950
1621.84214,0.18832
1623.77061,0.18858
1625.69908,0.18784
1627.62755,0.18962
1629.55602,0.18959
1631.48449,0.18930
1633.41295,0.19691
1635.34142,0.21331
1637.26989,0.21512
1639.19836,0.20253
1641.12683,0.19436
1643.05530,0.19565
1644.98377,0.20657
1646.91223,0.21926
1648.84070,0.21844
1650.76917,0.21573
1652.69764,0.21930
1654.62611,0.20923
1656.55458,0.19018
1658.48305,0.17703
1660.41152,0.17655
1662.33998,0.18917
1664.26845,0.19627
1666.19692,0.19829
1668.12539,0.20969
1670.05386,0.22087
1671.98233,0.21401
1673.91080,0.20178
1675.83926,0.19540
1677.76773,0.19636
1679.69620,0.19950
1681.62467,0.20456
1683.55314,0.21419
1685.48161,0.21461
1687.41008,0.20573
1689.33855,0.20059
1691.26701,0.19878
1693.19548,0.20062
1695.12395,0.20809
1697.05242,0.21660
1698.98089,0.22242
1700.90936,0.22241
1702.83783,0.21565
1704.76629,0.20893
1706.69476,0.19864
1708.62323,0.18841
1710.55170,0.18672
1712.48017,0.19381
1714.40864,0.20761
1716.33711,0.22275
1718.26558,0.21802
1720.19404,0.20155
1722.12251,0.19464
1724.05098,0.19197
1725.97945,0.18760
1727.90792,0.18765
1729.83639,0.19566
1731.76486,0.20655
1733.69332,0.21131
1735.62179,0.20274
1737.55026,0.19588
1739.47873,0.19596
1741.40720,0.19682
1743.33567,0.19643
1745.26414,0.19731
1747.19261,0.20024
1749.12107,0.20356
1751.04954,0.19956
1752.97801,0.18968
1754.90648,0.18467
1756.83495,0.18592
1758.76342,0.18858
1760.69189,0.19111
1762.62035,0.19104
1764.54882,0.18856
1766.47729,0.18963
1768.40576,0.19281
1770.33423,0.19443
1772.26270,0.19566
1774.19117,0.19724
1776.11964,0.19604
1778.04810,0.19262
1779.97657,0.19088
1781.90504,0.19031
1783.83351,0.18963
1785.76198,0.18806
1787.69045,0.18682
1789.61892,0.19169
1791.54738,0.19997
1793.47585,0.19770
1795.40432,0.18886
1797.33279,0.18527
1799.26126,0.18749
1801.18973,0.19002
1803.11820,0.18700
1805.04666,0.18306
1806.97513,0.18401
1808.90360,0.18677
1810.83207,0.18654
1812.76054,0.18404
1814.68901,0.18368
1816.61748,0.18478
1818.54595,0.18380
1820.47441,0.18340
1822.40288,0.18684
1824.33135,0.19052
1826.25982,0.19168
1828.18829,0.19493
1830.11676,0.19704
1832.04523,0.19136
1833.97369,0.18613
1835.90216,0.18536
1837.83063,0.18448
1839.75910,0.18403
1841.68757,0.18854
1843.61604,0.19476
1845.54451,0.19453
1847.47298,0.19008
1849.40144,0.18718
1851.32991,0.18714
1853.25838,0.18695
1855.18685,0.18390
1857.11532,0.18135
1859.04379,0.18228
1860.97226,0.18428
1862.90072,0.18555
1864.82919,0.18995
1866.75766,0.19898
1868.68613,0.20140
1870.61460,0.19064
1872.54307,0.18086
1874.47154,0.17855
1876.40001,0.18008
1878.32847,0.18265
1880.25694,0.18544
1882.18541,0.18628
1884.11388,0.18465
1886.04235,0.18376
1887.97082,0.18532
1889.89929,0.18502
1891.82775,0.18141
1893.75622,0.18050
1895.68469,0.18245
1897.61316,0.18248
1899.54163,0.18182
1901.47010,0.18289
1903.39857,0.18428
1905.32704,0.18518
1907.25550,0.18578
1909.18397,0.18492
1911.11244,0.18216
1913.04091,0.18020
1914.96938,0.18233
1916.89785,0.18789
1918.82632,0.19109
1920.75478,0.18976
1922.68325,0.18708
1924.61172,0.18433
1926.54019,0.18238
1928.46866,0.18213
1930.39713,0.18358
1932.32560,0.18542
1934.25407,0.18609
1936.18253,0.18667
1938.11100,0.18968
1940.03947,0.19415
1941.96794,0.19501
1943.89641,0.18959
1945.82488,0.18322
1947.75335,0.18113
1949.68181,0.18234
1951.61028,0.18390
1953.53875,0.18498
1955.46722,0.18568
1957.39569,0.18610
1959.32416,0.18678
1961.25263,0.18697
1963.18110,0.18631
1965.10956,0.18674
1967.03803,0.18758
1968.96650,0.18716
1970.89497,0.18722
1972.82344,0.18848
1974.75191,0.18892
1976.68038,0.18768
1978.60884,0.18616
1980.53731,0.18587
1982.46578,0.18664
1984.39425,0.18714
1986.32272,0.18666
1988.25119,0.18583
1990.17966,0.18688
1992.10812,0.18860
1994.03659,0.18687
1995.96506,0.18431
1997.89353,0.18476
1999.82200,0.18643
2001.75047,0.18652
2003.67894,0.18421
2005.60741,0.18201
2007.53587,0.18366
2009.46434,0.18747
2011.39281,0.18911
2013.32128,0.18886
2015.24975,0.18958
2017.17822,0.18953
2019.10669,0.18667
2021.03515,0.18502
2022.96362,0.18481
2024.89209,0.18342
2026.82056,0.18235
2028.74903,0.18361
2030.67750,0.18702
2032.60597,0.18801
2034.53444,0.18572
2036.46290,0.18563
2038.39137,0.18768
2040.31984,0.18807
2042.24831,0.18705
2044.17678,0.18712
2046.10525,0.18875
2048.03372,0.19037
2049.96218,0.19028
2051.89065,0.18786
2053.81912,0.18615
2055.74759,0.18843
2057.67606,0.19131
2059.60453,0.19143
2061.53300,0.19055
2063.46147,0.18951
2065.38993,0.18877
2067.31840,0.18909
2069.24687,0.18981
2071.17534,0.19028
2073.10381,0.18959
2075.03228,0.18764
2076.96075,0.18660
2078.88921,0.18795
2080.81768,0.19023
2082.74615,0.19169
2084.67462,0.19162
2086.60309,0.19111
2088.53156,0.19174
2090.46003,0.19162
2092.38850,0.18922
2094.31696,0.18691
2096.24543,0.18634
2098.17390,0.18637
2100.10237,0.18611
2102.03084,0.18584
2103.95931,0.18589
2105.88778,0.18680
2107.81624,0.18884
2109.74471,0.19085
2111.67318,0.19186
2113.60165,0.19230
2115.53012,0.19245
2117.45859,0.19148
2119.38706,0.18971
2121.31553,0.18930
2123.24399,0.19031
2125.17246,0.19116
2127.10093,0.19094
2129.02940,0.18915
2130.95787,0.18771
2132.88634,0.18879
2134.81481,0.19035
2136.74327,0.19034
2138.67174,0.18970
2140.60021,0.18873
2142.52868,0.18863
2144.45715,0.19092
2146.38562,0.19347
2148.31409,0.19403
2150.24255,0.19242
2152.17102,0.19060
2154.09949,0.19074
2156.02796,0.19146
2157.95643,0.19169
2159.88490,0.19256
2161.81337,0.19429
2163.74184,0.19595
2165.67030,0.19600
2167.59877,0.19370
2169.52724,0.19088
2171.45571,0.19087
2173.38418,0.19286
2175.31265,0.19272
2177.24112,0.19138
2179.16958,0.19247
2181.09805,0.19516
2183.02652,0.19537
2184.95499,0.19227
2186.88346,0.18986
2188.81193,0.19010
2190.74040,0.19036
2192.66887,0.19061
2194.59733,0.19235
2196.52580,0.19383
2198.45427,0.19387
2200.38274,0.19254
2202.31121,0.19049
2204.23968,0.18938
2206.16815,0.18983
2208.09661,0.19143
2210.02508,0.19308
2211.95355,0.19353
2213.88202,0.19308
2215.81049,0.19271
2217.73896,0.19191
2219.66743,0.19031
2221.59590,0.18883
2223.52436,0.18801
2225.45283,0.18817
2227.38130,0.18906
2229.30977,0.18876
2231.23824,0.18727
2233.16671,0.18753
2235.09518,0.18969
2237.02364,0.19164
2238.95211,0.19239
2240.88058,0.19184
2242.80905,0.19081
2244.73752,0.18999
2246.66599,0.18925
2248.59446,0.18793
2250.52293,0.18814
2252.45139,0.19131
2254.37986,0.19339
2256.30833,0.19303
2258.23680,0.19247
2260.16527,0.19108
2262.09374,0.18884
2264.02221,0.18910
2265.95067,0.19174
2267.87914,0.19277
2269.80761,0.19203
2271.73608,0.19210
2273.66455,0.19342
2275.59302,0.19435
2277.52149,0.19386
2279.44996,0.19217
2281.37842,0.18987
2283.30689,0.18919
2285.23536,0.19262
2287.16383,0.19648
2289.09230,0.19617
2291.02077,0.19389
2292.94924,0.19188
2294.87770,0.19180
2296.80617,0.19543
2298.73464,0.19978
2300.66311,0.20120
2302.59158,0.20024
2304.52005,0.19942
2306.44852,0.19950
2308.37699,0.20067
2310.30545,0.20260
2312.23392,0.20406
2314.16239,0.20462
2316.09086,0.20407
2318.01933,0.20365
2319.94780,0.20522
2321.87627,0.20819
2323.80473,0.21183
2325.73320,0.21641
2327.66167,0.21900
2329.59014,0.22018
2331.51861,0.22397
2333.44708,0.22767
2335.37555,0.23246
2337.30401,0.24043
2339.23248,0.24361
2341.16095,0.23937
2343.08942,0.23419
2345.01789,0.23056
2346.94636,0.23063
2348.87483,0.23550
2350.80330,0.24166
2352.73176,0.24337
2354.66023,0.24088
2356.58870,0.24531
2358.51717,0.25458
2360.44564,0.25602
2362.37411,0.24910
2364.30258,0.24532
2366.23104,0.24724
2368.15951,0.24244
2370.08798,0.23571
2372.01645,0.23233
2373.94492,0.22309
2375.87339,0.21057
2377.80186,0.20413
2379.73033,0.20230
2381.65879,0.19994
2383.58726,0.19673
2385.51573,0.19309
2387.44420,0.18907
2389.37267,0.18789
2391.30114,0.19161
2393.22961,0.19625
2395.15807,0.19671
2397.08654,0.19422
2399.01501,0.19393
2400.94348,0.19547
2402.87195,0.19561
2404.80042,0.19473
2406.72889,0.19361
2408.65736,0.19145
2410.58582,0.18906
2412.51429,0.18915
2414.44276,0.19206
2416.37123,0.19481
2418.29970,0.19432
2420.22817,0.19111
2422.15664,0.18952
2424.08510,0.19072
2426.01357,0.19115
2427.94204,0.19049
2429.87051,0.19125
2431.79898,0.19312
2433.72745,0.19369
2435.65592,0.19231
2437.58439,0.19076
2439.51285,0.18956
2441.44132,0.18906
2443.36979,0.18987
2445.29826,0.19037
2447.22673,0.19080
2449.15520,0.19257
2451.08367,0.19396
2453.01213,0.19383
2454.94060,0.19335
2456.86907,0.19346
2458.79754,0.19479
2460.72601,0.19639
2462.65448,0.19626
2464.58295,0.19471
2466.51142,0.19398
2468.43988,0.19525
2470.36835,0.19628
2472.29682,0.19630
2474.22529,0.19716
2476.15376,0.19757
2478.08223,0.19481
2480.01070,0.19027
2481.93916,0.18861
2483.86763,0.19025
2485.79610,0.19217
2487.72457,0.19239
2489.65304,0.19112
2491.58151,0.18974
2493.50998,0.18874
2495.43844,0.19032
2497.36691,0.19468
2499.29538,0.19740
2501.22385,0.19655
2503.15232,0.19444
2505.08079,0.19348
2507.00926,0.19437
2508.93773,0.19676
2510.86619,0.19813
2512.79466,0.19638
2514.72313,0.19422
2516.65160,0.19469
2518.58007,0.19620
2520.50854,0.19693
2522.43701,0.19723
2524.36547,0.19646
2526.29394,0.19453
2528.22241,0.19463
2530.15088,0.19658
2532.07935,0.19595
2534.00782,0.19380
2535.93629,0.19398
2537.86476,0.19631
2539.79322,0.19808
2541.72169,0.19678
2543.65016,0.19412
2545.57863,0.19387
2547.50710,0.19536
2549.43557,0.19564
2551.36404,0.19489
2553.29250,0.19431
2555.22097,0.19417
2557.14944,0.19479
2559.07791,0.19536
2561.00638,0.19516
2562.93485,0.19632
2564.86332,0.19840
2566.79179,0.19635
2568.72025,0.19227
2570.64872,0.19184
2572.57719,0.19281
2574.50566,0.19301
2576.43413,0.19335
2578.36260,0.19357
2580.29107,0.19465
2582.21953,0.19607
2584.14800,0.19631
2586.07647,0.19694
2588.00494,0.19748
2589.93341,0.19693
2591.86188,0.19769
2593.79035,0.19922
2595.71882,0.19880
2597.64728,0.19736
2599.57575,0.19687
2601.50422,0.19742
2603.43269,0.19825
2605.36116,0.19838
2607.28963,0.19756
2609.21810,0.19766
2611.14656,0.19987
2613.07503,0.20106
2615.00350,0.19829
2616.93197,0.19488
2618.86044,0.19503
2620.78891,0.19664
2622.71738,0.19603
2624.64585,0.19590
2626.57431,0.19914
2628.50278,0.20165
2630.43125,0.20099
2632.35972,0.20032
2634.28819,0.20115
2636.21666,0.20139
2638.14513,0.20033
2640.07359,0.19971
2642.00206,0.19965
2643.93053,0.19868
2645.85900,0.19624
2647.78747,0.19416
2649.71594,0.19524
2651.64441,0.19797
2653.57288,0.19776
2655.50134,0.19562
2657.42981,0.19637
2659.35828,0.19980
2661.28675,0.20260
2663.21522,0.20264
2665.14369,0.20032
2667.07216,0.19878
2669.00062,0.19978
2670.92909,0.20136
2672.85756,0.20143
2674.78603,0.20100
2676.71450,0.20072
2678.64297,0.19981
2680.57144,0.19947
2682.49990,0.19950
2684.42837,0.19878
2686.35684,0.19856
2688.28531,0.19839
2690.21378,0.19878
2692.14225,0.20119
2694.07072,0.20218
2695.99919,0.20215
2697.92765,0.20581
2699.85612,0.20941
2701.78459,0.20738
2703.71306,0.20384
2705.64153,0.20406
2707.57000,0.20464
2709.49847,0.20263
2711.42693,0.20249
2713.35540,0.20529
2715.28387,0.20633
2717.21234,0.20491
2719.14081,0.20439
2721.06928,0.20494
2722.99775,0.20418
2724.92622,0.20269
2726.85468,0.20189
2728.78315,0.20091
2730.71162,0.20002
2732.64009,0.20033
2734.56856,0.20105
2736.49703,0.20152
2738.42550,0.20169
2740.35396,0.20320
2742.28243,0.20679
2744.21090,0.20845
2746.13937,0.20857
2748.06784,0.21034
2749.99631,0.20884
2751.92478,0.20280
2753.85325,0.19958
2755.78171,0.20166
2757.71018,0.20587
2759.63865,0.20844
2761.56712,0.20787
2763.49559,0.20681
2765.42406,0.20756
2767.35253,0.21053
2769.28099,0.21417
2771.20946,0.21579
2773.13793,0.21511
2775.06640,0.21301
2776.99487,0.21046
2778.92334,0.20794
2780.85181,0.20564
2782.78028,0.20469
2784.70874,0.20598
2786.63721,0.20953
2788.56568,0.21235
2790.49415,0.21182
2792.42262,0.21103
2794.35109,0.21260
2796.27956,0.21484
2798.20802,0.21426
2800.13649,0.21052
2802.06496,0.20723
2803.99343,0.20554
2805.92190,0.20679
2807.85037,0.21101
2809.77884,0.21312
2811.70731,0.21189
2813.63577,0.21036
2815.56424,0.20986
2817.49271,0.21003
2819.42118,0.21004
2821.34965,0.20947
2823.27812,0.20895
2825.20659,0.20983
2827.13505,0.21163
2829.06352,0.21293
2830.99199,0.21432
2832.92046,0.21487
2834.84893,0.21283
2836.77740,0.21070
2838.70587,0.20986
2840.63433,0.20901
2842.56280,0.20919
2844.49127,0.21026
2846.41974,0.21072
2848.34821,0.21103
2850.27668,0.21128
2852.20515,0.21060
2854.13362,0.20900
2856.06208,0.20896
2857.99055,0.21228
2859.91902,0.21500
2861.84749,0.21400
2863.77596,0.21239
2865.70443,0.21266
2867.63290,0.21362
2869.56136,0.21440
2871.48983,0.21531
2873.41830,0.21565
2875.34677,0.21544
2877.27524,0.21591
2879.20371,0.21614
2881.13218,0.21487
2883.06065,0.21207
2884.98911,0.20917
2886.91758,0.20813
2888.84605,0.20762
2890.77452,0.20687
2892.70299,0.20892
2894.63146,0.21238
2896.55993,0.21258
2898.48839,0.21202
2900.41686,0.21294
2902.34533,0.21211
2904.27380,0.21090
2906.20227,0.21043
2908.13074,0.20696
2910.05921,0.20276
2911.98768,0.20349
2913.91614,0.20703
2915.84461,0.20944
2917.77308,0.21200
2919.70155,0.21422
2921.63002,0.21370
2923.55849,0.21055
2925.48696,0.20630
2927.41542,0.20436
2929.34389,0.20790
2931.27236,0.21613
2933.20083,0.21989
2935.12930,0.21266
2937.05777,0.20486
2938.98624,0.20541
2940.91471,0.20791
2942.84317,0.20746
2944.77164,0.20523
2946.70011,0.20269
2948.62858,0.20466
2950.55705,0.21180
2952.48552,0.21763
2954.41399,0.21862
2956.34245,0.21338
2958.27092,0.20590
2960.19939,0.20469
2962.12786,0.20737
2964.05633,0.20674
2965.98480,0.20488
2967.91327,0.20642
2969.84174,0.21036
2971.77020,0.21314
2973.69867,0.21364
2975.62714,0.21065
2977.55561,0.20701
2979.48408,0.20969
2981.41255,0.21531
2983.34102,0.21793
2985.26948,0.21866
2987.19795,0.21692
2989.12642,0.21448
2991.05489,0.21578
2992.98336,0.21806
2994.91183,0.21798
2996.84030,0.21815
2998.76877,0.22008
3000.69723,0.22183
3002.62570,0.22032
3004.55417,0.21711
3006.48264,0.21731
3008.41111,0.21720
3010.33958,0.21117
3012.26805,0.20143
3014.19651,0.18789
3016.12498,0.17492
3018.05345,0.17892
3019.98192,0.19922
3021.91039,0.21453
3023.83886,0.21771
3025.76733,0.21584
3027.69579,0.21229
3029.62426,0.21093
3031.55273,0.21596
3033.48120,0.22243
3035.40967,0.22423
3037.33814,0.22320
3039.26661,0.22212
3041.19508,0.22088
3043.12354,0.21802
3045.05201,0.21329
3046.98048,0.21027
3048.90895,0.21094
3050.83742,0.21273
3052.76589,0.21397
3054.69436,0.21193
3056.62282,0.20534
3058.55129,0.20202
3060.47976,0.20665
3062.40823,0.21371
3064.33670,0.21549
3066.26517,0.21235
3068.19364,0.21427
3070.12211,0.22017
3072.05057,0.21882
3073.97904,0.21040
3075.90751,0.20519
3077.83598,0.20814
3079.76445,0.21482
3081.69292,0.21894
3083.62139,0.21452
3085.54985,0.20683
3087.47832,0.20940
3089.40679,0.21653
3091.33526,0.21353
3093.26373,0.20499
3095.19220,0.20537
3097.12067,0.21436
3099.04914,0.21939
3100.97760,0.21584
3102.90607,0.21082
3104.83454,0.21327
3106.76301,0.22194
3108.69148,0.22586
3110.61995,0.21910
3112.54842,0.21100
3114.47688,0.21281
3116.40535,0.21839
3118.33382,0.21572
3120.26229,0.20680
3122.19076,0.20233
3124.11923,0.20522
3126.04770,0.21055
3127.97617,0.21419
3129.90463,0.21345
3131.83310,0.21307
3133.76157,0.21753
3135.69004,0.22167
3137.61851,0.22211
3139.54698,0.22006
3141.47545,0.21824
3143.40391,0.21718
3145.33238,0.21530
3147.26085,0.21597
3149.18932,0.22176
3151.11779,0.22704
3153.04626,0.22606
3154.97473,0.22233
3156.90320,0.22127
3158.83166,0.22305
3160.76013,0.22603
3162.68860,0.22661
3164.61707,0.22332
3166.54554,0.22021
3168.47401,0.21976
3170.40248,0.22053
3172.33094,0.22121
3174.25941,0.22118
3176.18788,0.22263
3178.11635,0.22677
3180.04482,0.22833
3181.97329,0.22516
3183.90176,0.22324
3185.83022,0.22584
3187.75869,0.22853
3189.68716,0.22822
3191.61563,0.22624
3193.54410,0.22442
3195.47257,0.22329
3197.40104,0.22021
3199.32951,0.21714
3201.25797,0.21786
3203.18644,0.21875
3205.11491,0.21648
3207.04338,0.21173
3208.97185,0.21018
3210.90032,0.21571
3212.82879,0.22144
3214.75725,0.22432
3216.68572,0.22861
3218.61419,0.23128
3220.54266,0.22802
3222.47113,0.22229
3224.39960,0.21680
3226.32807,0.21296
3228.25654,0.21470
3230.18500,0.21719
3232.11347,0.21306
3234.04194,0.20960
3235.97041,0.21194
3237.89888,0.21309
3239.82735,0.21336
3241.75582,0.21662
3243.68428,0.21710
3245.61275,0.21291
3247.54122,0.21201
3249.46969,0.21551
3251.39816,0.21668
3253.32663,0.21625
3255.25510,0.22101
3257.18357,0.22792
3259.11203,0.22903
3261.04050,0.22566
3262.96897,0.22209
3264.89744,0.21957
3266.82591,0.21833
3268.75438,0.21848
3270.68285,0.21765
3272.61131,0.21511
3274.53978,0.21559
3276.46825,0.21685
3278.39672,0.21423
3280.32519,0.21226
3282.25366,0.21347
3284.18213,0.21463
3286.11060,0.21514
3288.03906,0.21754
3289.96753,0.22143
3291.89600,0.22300
3293.82447,0.21908
3295.75294,0.21266
3297.68141,0.20875
3299.60988,0.20912
3301.53834,0.21513
3303.46681,0.22118
3305.39528,0.22015
3307.32375,0.21556
3309.25222,0.21501
3311.18069,0.21948
3313.10916,0.22290
3315.03763,0.22284
3316.96609,0.22170
3318.89456,0.21973
3320.82303,0.21630
3322.75150,0.21488
3324.67997,0.21739
3326.60844,0.21872
3328.53691,0.21777
3330.46537,0.21726
3332.39384,0.21409
3334.32231,0.20808
3336.25078,0.20685
3338.17925,0.21261
3340.10772,0.21952
3342.03619,0.22313
3343.96466,0.22287
3345.89312,0.22112
3347.82159,0.22037
3349.75006,0.21947
3351.67853,0.21810
3353.60700,0.21877
3355.53547,0.21897
3357.46394,0.21622
3359.39240,0.21508
3361.32087,0.21790
3363.24934,0.21958
3365.17781,0.21775
3367.10628,0.21738
3369.03475,0.22051
3370.96322,0.22443
3372.89168,0.22648
3374.82015,0.22571
3376.74862,0.22267
3378.67709,0.21919
3380.60556,0.21754
3382.53403,0.21605
3384.46250,0.21348
3386.39097,0.21291
3388.31943,0.21554
3390.24790,0.21792
3392.17637,0.21932
3394.10484,0.22243
3396.03331,0.22344
3397.96178,0.21966
3399.89025,0.21755
3401.81871,0.21964
3403.74718,0.22090
3405.67565,0.22115
3407.60412,0.22221
3409.53259,0.21937
3411.46106,0.21358
3413.38953,0.21190
3415.31800,0.21316
3417.24646,0.21550
3419.17493,0.21939
3421.10340,0.21918
3423.03187,0.21514
3424.96034,0.21302
3426.88881,0.21288
3428.81728,0.21341
3430.74574,0.21147
3432.67421,0.20751
3434.60268,0.20572
3436.53115,0.20718
3438.45962,0.21236
3440.38809,0.21632
3442.31656,0.21174
3444.24503,0.20196
3446.17349,0.19555
3448.10196,0.19557
3450.03043,0.20188
3451.95890,0.21058
3453.88737,0.21283
3455.81584,0.20649
3457.74431,0.19955
3459.67277,0.19780
3461.60124,0.20122
3463.52971,0.20545
3465.45818,0.20270
3467.38665,0.19534
3469.31512,0.19438
3471.24359,0.19817
3473.17206,0.19926
3475.10052,0.19714
3477.02899,0.19315
3478.95746,0.19156
3480.88593,0.19398
3482.81440,0.19478
3484.74287,0.19297
3486.67134,0.19167
3488.59980,0.19181
3490.52827,0.19399
3492.45674,0.19677
3494.38521,0.19660
3496.31368,0.19117
3498.24215,0.18540
3500.17062,0.18686
3502.09909,0.19374
3504.02755,0.19765
3505.95602,0.19566
3507.88449,0.19556
3509.81296,0.19963
3511.74143,0.19710
3513.66990,0.18845
3515.59837,0.18461
3517.52683,0.18625
3519.45530,0.18923
3521.38377,0.19312
3523.31224,0.19375
3525.24071,0.18633
3527.16918,0.17876
3529.09765,0.17573
3531.02611,0.17190
3532.95458,0.16935
3534.88305,0.17037
3536.81152,0.17187
3538.73999,0.17412
3540.66846,0.17707
3542.59693,0.17801
3544.52540,0.17930
3546.45386,0.18156
3548.38233,0.17948
3550.31080,0.17564
3552.23927,0.17245
3554.16774,0.16891
3556.09621,0.16608
3558.02468,0.16501
3559.95314,0.16727
3561.88161,0.17235
3563.81008,0.18162
3565.73855,0.19375
3567.66702,0.19391
3569.59549,0.17950
3571.52396,0.16405
3573.45243,0.15509
3575.38089,0.15664
3577.30936,0.16285
3579.23783,0.16621
3581.16630,0.16549
3583.09477,0.16325
3585.02324,0.16389
3586.95171,0.16680
3588.88017,0.16457
3590.80864,0.16182
3592.73711,0.16503
3594.66558,0.16806
3596.59405,0.16531
3598.52252,0.16238
3600.45099,0.16205
3602.37946,0.16181
3604.30792,0.16115
3606.23639,0.15981
3608.16486,0.15643
3610.09333,0.15587
3612.02180,0.15974
3613.95027,0.15925
3615.87874,0.15432
3617.80720,0.15358
3619.73567,0.15625
3621.66414,0.15582
3623.59261,0.15424
3625.52108,0.15528
3627.44955,0.16238
3629.37802,0.16976
3631.30649,0.16474
3633.23495,0.15508
3635.16342,0.14652
3637.09189,0.14537
3639.02036,0.14910
3640.94883,0.14750
3642.87730,0.14339
3644.80577,0.14643
3646.73423,0.15982
3648.66270,0.17358
3650.59117,0.16452
3652.51964,0.15042
3654.44811,0.14474
3656.37658,0.14120
3658.30505,0.13843
3660.23352,0.13825
3662.16198,0.13791
3664.09045,0.13662
3666.01892,0.13909
3667.94739,0.14823
3669.87586,0.15289
3671.80433,0.14508
3673.73280,0.14319
3675.66126,0.14937
3677.58973,0.15002
3679.51820,0.14701
3681.44667,0.14398
3683.37514,0.14027
3685.30361,0.14030
3687.23208,0.14836
3689.16055,0.15578
3691.08901,0.14734
3693.01748,0.13476
3694.94595,0.12881
3696.87442,0.12771
3698.80289,0.13157
3700.73136,0.14003
3702.65983,0.14289
3704.58829,0.13832
3706.51676,0.13736
3708.44523,0.14311
3710.37370,0.15060
3712.30217,0.14922
3714.23064,0.14206
3716.15911,0.13711
3718.08757,0.13362
3720.01604,0.13544
3721.94451,0.14274
3723.87298,0.14519
3725.80145,0.14274
3727.72992,0.14172
3729.65839,0.14315
3731.58686,0.14895
3733.51532,0.15796
3735.44379,0.15934
3737.37226,0.15113
3739.30073,0.14415
3741.22920,0.14207
3743.15767,0.14333
3745.08614,0.14082
3747.01460,0.13845
3748.94307,0.14608
3750.87154,0.15389
3752.80001,0.14629
3754.72848,0.13809
3756.65695,0.13785
3758.58542,0.14010
3760.51389,0.13677
3762.44235,0.13378
3764.37082,0.13661
3766.29929,0.13956
3768.22776,0.14029
3770.15623,0.13940
3772.08470,0.13342
3774.01317,0.12668
3775.94163,0.12447
3777.87010,0.12865
3779.79857,0.13506
3781.72704,0.13609
3783.65551,0.13501
3785.58398,0.13388
3787.51245,0.12985
3789.44092,0.12411
3791.36938,0.12078
3793.29785,0.12236
3795.22632,0.12600
3797.15479,0.12904
3799.08326,0.13395
3801.01173,0.14022
3802.94020,0.13890
3804.86866,0.13316
3806.79713,0.13058
3808.72560,0.12710
3810.65407,0.12337
3812.58254,0.12751
3814.51101,0.13869
3816.43948,0.14430
3818.36795,0.14134
3820.29641,0.14152
3822.22488,0.14199
3824.15335,0.13569
3826.08182,0.12615
3828.01029,0.11837
3829.93876,0.11554
3831.86723,0.11621
3833.79569,0.11774
3835.72416,0.12109
3837.65263,0.13088
3839.58110,0.13680
3841.50957,0.13069
3843.43804,0.12544
3845.36651,0.12559
3847.29498,0.12661
3849.22344,0.12800
3851.15191,0.13491
3853.08038,0.14584
3855.00885,0.13729
3856.93732,0.12121
3858.86579,0.11329
3860.79426,0.11843
3862.72272,0.13672
3864.65119,0.14978
3866.57966,0.14667
3868.50813,0.14106
3870.43660,0.13533
3872.36507,0.12870
3874.29354,0.12413
3876.22200,0.12004
3878.15047,0.12089
3880.07894,0.12752
3882.00741,0.12889
3883.93588,0.12655
3885.86435,0.12814
3887.79282,0.12919
3889.72129,0.13009
3891.64975,0.13481
3893.57822,0.13536
3895.50669,0.12956
3897.43516,0.12561
3899.36363,0.12587
3901.29210,0.12756
3903.22057,0.12624
3905.14903,0.12113
3907.07750,0.11838
3909.00597,0.11767
3910.93444,0.11527
3912.86291,0.11321
3914.79138,0.11414
3916.71985,0.11597
3918.64832,0.11717
3920.57678,0.11705
3922.50525,0.11290
3924.43372,0.10518
3926.36219,0.10090
3928.29066,0.10409
3930.21913,0.10972
3932.14760,0.11156
3934.07606,0.10908
3936.00453,0.10630
3937.93300,0.10614
3939.86147,0.10832
3941.78994,0.11122
3943.71841,0.11372
3945.64688,0.11335
3947.57535,0.10945
3949.50381,0.10782
3951.43228,0.11224
3953.36075,0.11491
3955.28922,0.11149
3957.21769,0.10862
3959.14616,0.10791
3961.07463,0.10401
3963.00309,0.09767
3964.93156,0.09621
3966.86003,0.10312
3968.78850,0.11025
3970.71697,0.10998
3972.64544,0.10697
3974.57391,0.10271
3976.50238,0.09505
3978.43084,0.09181
3980.35931,0.09385
3982.28778,0.09367
3984.21625,0.09587
3986.14472,0.10423
3988.07319,0.10948
3990.00166,0.10685
3991.93012,0.10343
3993.85859,0.10337
3995.78706,0.10350
3997.71553,0.10375
3999.64400,0.10462
4001.57247,0.10370
4003.50094,0.10109
4005.42941,0.09780
4007.35787,0.09436
4009.28634,0.09391
4011.21481,0.09538
4013.14328,0.09315
4015.07175,0.08908
4017.00022,0.08963
4018.92869,0.09325
4020.85715,0.09413
4022.78562,0.09252
4024.71409,0.09152
4026.64256,0.09259
4028.57103,0.09581
4030.49950,0.09900
4032.42797,0.09923
4034.35644,0.09683
4036.28490,0.09471
4038.21337,0.09215
4040.14184,0.08760
4042.07031,0.08419
4043.99878,0.08536
4045.92725,0.09090
4047.85572,0.09508
4049.78418,0.09354
4051.71265,0.09041
4053.64112,0.08843
4055.56959,0.08863
4057.49806,0.09330
4059.42653,0.09706
4061.35500,0.09562
4063.28346,0.09352
4065.21193,0.09306
4067.14040,0.09090
4069.06887,0.08675
4070.99734,0.08452
4072.92581,0.08675
4074.85428,0.09237
4076.78275,0.09520
4078.71121,0.09383
4080.63968,0.09140
4082.56815,0.08589
4084.49662,0.07887
4086.42509,0.07786
4088.35356,0.08356
4090.28203,0.08658
4092.21049,0.08496
4094.13896,0.08584
4096.06743,0.08797
4097.99590,0.08711
4099.92437,0.08533
4101.85284,0.08527
4103.78131,0.08589
4105.70978,0.08576
4107.63824,0.08532
4109.56671,0.08395
4111.49518,0.08327
4113.42365,0.08451
4115.35212,0.08385
4117.28059,0.08082
4119.20906,0.07963
4121.13752,0.08161
4123.06599,0.08452
4124.99446,0.08702
4126.92293,0.08800
4128.85140,0.08502
4130.77987,0.08172
4132.70834,0.08142
4134.63681,0.08005
4136.56527,0.07875
4138.49374,0.07960
4140.42221,0.07787
4142.35068,0.07369
4144.27915,0.07308
4146.20762,0.07668
4148.13609,0.07829
4150.06455,0.07561
4151.99302,0.07165
4153.92149,0.06803
4155.84996,0.06633
4157.77843,0.06770
4159.70690,0.07095
4161.63537,0.07427
4163.56384,0.07628
4165.49230,0.07699
4167.42077,0.07798
4169.34924,0.07991
4171.27771,0.08028
4173.20618,0.07733
4175.13465,0.07300
4177.06312,0.07130
4178.99158,0.07191
4180.92005,0.06775
4182.84852,0.05941
4184.77699,0.05466
4186.70546,0.05361
4188.63393,0.05487
4190.56240,0.05920
4192.49087,0.06243
4194.41933,0.06134
4196.34780,0.05779
4198.27627,0.05470
4200.20474,0.05361
4202.13321,0.05485
4204.06168,0.05981
4205.99015,0.06571
4207.91861,0.06494
4209.84708,0.05883
4211.77555,0.05829
4213.70402,0.06550
4215.63249,0.07359
4217.56096,0.07824
4219.48943,0.07538
4221.41789,0.06333
4223.34636,0.05124
4225.27483,0.04940
4227.20330,0.05492
4229.13177,0.05981
4231.06024,0.06120
4232.98871,0.06071
4234.91718,0.06079
4236.84564,0.05832
4238.77411,0.05222
4240.70258,0.05041
4242.63105,0.05319
4244.55952,0.05116
4246.48799,0.04493
4248.41646,0.04165
4250.34492,0.04168
4252.27339,0.04365
4254.20186,0.04672
4256.13033,0.04712
4258.05880,0.04538
4259.98727,0.04593
4261.91574,0.04632
4263.84421,0.04438
4265.77267,0.04434
4267.70114,0.04849
4269.62961,0.05281
4271.55808,0.05155
4273.48655,0.04768
4275.41502,0.04504
4277.34349,0.04302
4279.27195,0.04540
4281.20042,0.05001
4283.12889,0.04999
4285.05736,0.04782
4286.98583,0.04671
4288.91430,0.04585
4290.84277,0.04557
4292.77124,0.04536
4294.69970,0.04584
4296.62817,0.04594
4298.55664,0.04260
4300.48511,0.04045
4302.41358,0.04168
4304.34205,0.04355
4306.27052,0.04610
4308.19898,0.04414
4310.12745,0.03705
4312.05592,0.03391
4313.98439,0.03517
4315.91286,0.03525
4317.84133,0.03468
4319.76980,0.03537
4321.69827,0.03512
4323.62673,0.03159
4325.55520,0.02674
4327.48367,0.02487
4329.41214,0.02708
4331.34061,0.02987
4333.26908,0.03101
4335.19755,0.03199
4337.12601,0.03025
4339.05448,0.02368
4340.98295,0.02132
4342.91142,0.02756
4344.83989,0.02979
4346.76836,0.02623
4348.69683,0.03115
4350.62530,0.03999
4352.55376,0.04152
4354.48223,0.04055
4356.41070,0.03690
4358.33917,0.02747
4360.26764,0.02062
4362.19611,0.02149
4364.12458,0.02481
4366.05304,0.02498
4367.98151,0.02368
4369.90998,0.02487
4371.83845,0.02600
4373.76692,0.02488
4375.69539,0.02272
4377.62386,0.01870
4379.55232,0.01700
4381.48079,0.01875
4383.40926,0.01887
4385.33773,0.01966
4387.26620,0.01942
4389.19467,0.01593
4391.12314,0.01579
4393.05161,0.01724
4394.98007,0.01665
4396.90854,0.01699
4398.83701,0.01763
4400.76548,0.01867
4402.69395,0.02268
4404.62242,0.02778
4406.55089,0.02956
4408.47935,0.02706
4410.40782,0.02212
4412.33629,0.01601
4414.26476,0.01335
4416.19323,0.01629
4418.12170,0.01486
4420.05017,0.00531
4421.97864,0.00209
4423.90710,0.01189
4425.83557,0.01947
4427.76404,0.01296
4429.69251,0.00348
4431.62098,0.00416
4433.54945,0.00938
4435.47792,0.01012
4437.40638,0.00766
4439.33485,0.00584
4441.26332,0.00733
4443.19179,0.01303
4445.12026,0.01588
4447.04873,0.01026
4448.97720,0.00494
4450.90567,0.00684
4452.83413,0.00897
4454.76260,0.00582
4456.69107,0.00172
4458.61954,0.00026
4460.54801,0.00332
4462.47648,0.01467
4464.40495,0.02515
4466.33341,0.02136
4468.26188,0.01227
4470.19035,0.01125
4472.11882,0.01395
4474.04729,0.01376
4475.97576,0.01317
4477.90423,0.01589
4479.83270,0.01621
4481.76116,0.00716
4483.68963,-0.00113
4485.61810,0.00262
4487.54657,0.00922
4489.47504,0.01101
4491.40351,0.01212
4493.33198,0.01282
4495.26044,0.01239
4497.18891,0.00933
4499.11738,0.00113
4501.04585,-0.00425
4502.97432,-0.00030
4504.90279,0.00605
4506.83126,0.00923
4508.75973,0.01015
4510.68819,0.00995
4512.61666,0.01026
4514.54513,0.00871
4516.47360,0.00541
4518.40207,0.00693
4520.33054,0.00926
4522.25901,0.00731
4524.18747,0.00611
4526.11594,0.00620
4528.04441,0.00504
4529.97288,0.00346
4531.90135,0.00454
4533.82982,0.00961
4535.75829,0.01367
4537.68676,0.01405
4539.61522,0.01402
4541.54369,0.01242
4543.47216,0.00887
4545.40063,0.00613
4547.32910,0.00429
4549.25757,0.00661
4551.18604,0.01343
4553.11450,0.01547
4555.04297,0.00744
4556.97144,-0.00119
4558.89991,-0.00112
4560.82838,0.00200
4562.75685,0.00317
4564.68532,0.00293
4566.61378,0.00219
4568.54225,0.00310
4570.47072,0.00296
4572.39919,0.00039
4574.32766,0.00206
4576.25613,0.00903
4578.18460,0.01027
4580.11307,0.00296
4582.04153,-0.00489
4583.97000,-0.00970
4585.89847,-0.01147
4587.82694,-0.01394
4589.75541,-0.01626
4591.68388,-0.01217
4593.61235,-0.00673
4595.54081,-0.00621
4597.46928,-0.00287
4599.39775,0.00715
4601.32622,0.01588
4603.25469,0.02077
4605.18316,0.02456
4607.11163,0.02683
4609.04010,0.02683
4610.96856,0.02520
4612.89703,0.01936
4614.82550,0.00756
4616.75397,-0.00071
4618.68244,0.00009
4620.61091,0.00166
4622.53938,-0.00258
4624.46784,-0.01124
4626.39631,-0.01318
4628.32478,-0.00197
4630.25325,0.00908
4632.18172,0.00873
4634.11019,0.00578
4636.03866,0.00887
4637.96713,0.01061
4639.89559,0.00915
4641.82406,0.01009
4643.75253,0.00737
4645.68100,0.00358
4647.60947,0.00681
4649.53794,0.00722
4651.46641,0.00282
4653.39487,0.00321
4655.32334,0.00807
4657.25181,0.00973
4659.18028,0.00400
4661.10875,0.00060
4663.03722,0.00852
4664.96569,0.01609
4666.89416,0.00922
4668.82262,-0.00651
4670.75109,-0.01524
4672.67956,-0.01118
4674.60803,-0.00435
4676.53650,-0.00397
4678.46497,-0.00470
4680.39344,-0.00367
4682.32190,-0.00606
4684.25037,-0.00725
4686.17884,-0.00262
4688.10731,0.00157
4690.03578,0.00273
4691.96425,0.00537
4693.89272,0.01138
4695.82119,0.01397
4697.74965,0.00937
4699.67812,0.00561
4701.60659,0.00307
4703.53506,0.00067
4705.46353,0.00567
4707.39200,0.01348
4709.32047,0.01587
4711.24893,0.01033
4713.17740,0.00025
4715.10587,-0.00243
4717.03434,0.00336
4718.96281,0.01032
4720.89128,0.01861
4722.81975,0.02552
4724.74821,0.02394
4726.67668,0.01790
4728.60515,0.01912
4730.53362,0.02572
4732.46209,0.02432
4734.39056,0.01204
4736.31903,0.00515
4738.24750,0.01211
4740.17596,0.01514
4742.10443,0.00996
4744.03290,0.00889
4745.96137,0.00789
4747.88984,0.00467
4749.81831,0.00243
4751.74678,0.00442
4753.67524,0.01558
4755.60371,0.02189
4757.53218,0.01397
4759.46065,0.00897
4761.38912,0.01401
4763.31759,0.01866
4765.24606,0.01750
4767.17453,0.01215
4769.10299,0.00574
4771.03146,0.00072
4772.95993,0.00338
4774.88840,0.01404
4776.81687,0.01548
4778.74534,0.00182
4780.67381,-0.01030
4782.60227,-0.01066
4784.53074,-0.00544
4786.45921,0.00056
4788.38768,0.00984
4790.31615,0.01437
4792.24462,0.00420
4794.17309,-0.00819
4796.10156,-0.00923
4798.03002,-0.00354
4799.95849,0.00034
4801.88696,-0.00005
4803.81543,-0.00119
4805.74390,-0.00125
4807.67237,0.00058
4809.60084,0.00796
4811.52930,0.01482
4813.45777,0.01412
4815.38624,0.01204
4817.31471,0.01343
4819.24318,0.01517
4821.17165,0.01571
4823.10012,0.01432
4825.02859,0.01006
4826.95705,0.00788
4828.88552,0.01432
4830.81399,0.02297
4832.74246,0.02423
4834.67093,0.01893
4836.59940,0.01009
4838.52787,0.00350
4840.45633,0.00234
4842.38480,0.00590
4844.31327,0.01286
4846.24174,0.01196
4848.17021,0.00257
4850.09868,-0.00283
4852.02715,-0.00080
4853.95562,0.00280
4855.88408,0.00463
4857.81255,0.00913
4859.74102,0.01383
4861.66949,0.01378
4863.59796,0.01394
4865.52643,0.01592
4867.45490,0.01623
4869.38336,0.01739
4871.31183,0.01817
4873.24030,0.01259
4875.16877,0.00811
4877.09724,0.00649
4879.02571,0.00079
4880.95418,-0.00098
4882.88265,0.00950
4884.81111,0.02061
4886.73958,0.01084
4888.66805,-0.01001
4890.59652,-0.00869
4892.52499,0.00730
4894.45346,0.01051
4896.38193,0.00661
4898.31039,0.01121
4900.23886,0.01950
4902.16733,0.01668
4904.09580,0.00789
4906.02427,0.00991
4907.95274,0.01800
4909.88121,0.02305
4911.80967,0.02488
4913.73814,0.01974
4915.66661,0.00550
4917.59508,-0.00596
4919.52355,0.00329
4921.45202,0.01933
4923.38049,0.02029
4925.30896,0.02421
4927.23742,0.03740
4929.16589,0.03617
4931.09436,0.02215
4933.02283,0.01092
4934.95130,0.00432
4936.87977,0.00408
4938.80824,0.01201
4940.73670,0.02156
4942.66517,0.01910
4944.59364,0.00537
4946.52211,0.00020
4948.45058,0.00270
4950.37905,-0.00228
4952.30752,-0.00784
4954.23599,-0.00638
4956.16445,-0.00306
4958.09292,0.00254
4960.02139,0.00587
4961.94986,-0.00009
4963.87833,-0.00539
4965.80680,-0.00143
4967.73527,0.00445
4969.66373,0.01019
4971.59220,0.01741
4973.52067,0.01609
4975.44914,0.00389
4977.37761,-0.00896
4979.30608,-0.01420
4981.23455,-0.00884
4983.16302,-0.00252
4985.09148,0.00060
4987.01995,0.01126
4988.94842,0.02553
4990.87689,0.02267
4992.80536,0.00472
4994.73383,-0.00083
4996.66230,0.00779
4998.59076,0.00880
5000.51923,0.00307
5002.44770,0.00214
5004.37617,0.00659
5006.30464,0.01077
5008.23311,0.01326
5010.16158,0.01900
5012.09005,0.02185
5014.01851,0.01458
5015.94698,0.00689
5017.87545,0.00675
5019.80392,0.01047
5021.73239,0.00603
5023.66086,-0.01294
5025.58933,-0.02059
5027.51779,-0.00258
5029.44626,0.01565
5031.37473,0.02226
5033.30320,0.01364
5035.23167,-0.00346
5037.16014,-0.00655
5039.08861,-0.00021
5041.01708,-0.00097
5042.94554,-0.00246
5044.87401,0.00129
5046.80248,0.00469
5048.73095,0.00801
5050.65942,0.01178
5052.58789,0.01092
5054.51636,0.00555
5056.44482,0.00620
5058.37329,0.01723
5060.30176,0.02498
5062.23023,0.02312
5064.15870,0.01764
5066.08717,0.00634
5068.01564,0.00286
5069.94410,0.01902
5071.87257,0.03046
5073.80104,0.01925
5075.72951,0.00745
5077.65798,0.01176
5079.58645,0.01741
5081.51492,0.01320
5083.44339,0.00187
5085.37185,-0.00658
5087.30032,-0.00077
5089.22879,0.01239
5091.15726,0.01865
5093.08573,0.01812
5095.01420,0.02032
5096.94267,0.02619
5098.87113,0.03106
5100.79960,0.03095
5102.72807,0.02172
5104.65654,0.01876
5106.58501,0.03508
5108.51348,0.05176
5110.44195,0.04722
5112.37042,0.02960
5114.29888,0.02610
5116.22735,0.03348
5118.15582,0.02498
5120.08429,0.01016
5122.01276,0.01255
5123.94123,0.01928
5125.86970,0.01203
5127.79816,-0.00298
5129.72663,-0.01481
5131.65510,-0.02403
5133.58357,-0.03233
5135.51204,-0.03557
5137.44051,-0.02893
5139.36898,-0.01569
5141.29745,-0.00758
5143.22591,-0.00728
5145.15438,-0.00971
5147.08285,-0.00577
5149.01132,0.01522
5150.93979,0.03515
5152.86826,0.02872
5154.79673,0.01330
5156.72519,0.01344
5158.65366,0.02301
5160.58213,0.03914
5162.51060,0.06066
5164.43907,0.07157
5166.36754,0.06617
5168.29601,0.05615
5170.22448,0.05272
5172.15294,0.04484
5174.08141,0.02652
5176.00988,0.01840
5177.93835,0.02554
5179.86682,0.03441
5181.79529,0.03807
5183.72376,0.03280
5185.65222,0.02076
5187.58069,0.01502
5189.50916,0.01508
5191.43763,0.00730
5193.36610,-0.00037
5195.29457,0.01122
5197.22304,0.02989
5199.15151,0.03693
5201.07997,0.03919
5203.00844,0.03507
5204.93691,0.02135
5206.86538,0.00977
5208.79385,0.00399
5210.72232,-0.00025
5212.65079,-0.00073
5214.57925,0.00523
5216.50772,0.01533
5218.43619,0.02302
5220.36466,0.02355
5222.29313,0.02485
5224.22160,0.02800
5226.15007,0.02116
5228.07854,0.01238
5230.00700,0.01519
5231.93547,0.02182
5233.86394,0.02314
5235.79241,0.01982
5237.72088,0.00822
5239.64935,-0.00298
5241.57782,0.00577
5243.50628,0.02603
5245.43475,0.03095
5247.36322,0.02119
5249.29169,0.02543
5251.22016,0.04612
5253.14863,0.05493
5255.07710,0.04239
5257.00556,0.02604
5258.93403,0.02589
5260.86250,0.04239
5262.79097,0.05131
5264.71944,0.03448
5266.64791,0.01487
5268.57638,0.01305
5270.50485,0.02064
5272.43331,0.02636
5274.36178,0.03126
5276.29025,0.03937
5278.21872,0.04147
5280.14719,0.02818
5282.07566,0.01209
5284.00413,0.01523
5285.93259,0.03112
5287.86106,0.03388
5289.78953,0.03394
5291.71800,0.04548
5293.64647,0.04999
5295.57494,0.04301
5297.50341,0.03182
5299.43188,0.02353
5301.36034,0.02402
5303.28881,0.02662
5305.21728,0.01910
5307.14575,0.00735
5309.07422,0.01881
5311.00269,0.04589
5312.93116,0.05711
5314.85962,0.05194
5316.78809,0.05004
5318.71656,0.06362
5320.64503,0.07439
5322.57350,0.06565
5324.50197,0.05544
5326.43044,0.05672
5328.35891,0.06139
5330.28737,0.06555
5332.21584,0.05620
5334.14431,0.02607
5336.07278,0.00639
5338.00125,0.01492
5339.92972,0.02698
5341.85819,0.03407
5343.78665,0.04543
5345.71512,0.04642
5347.64359,0.03583
5349.57206,0.02629
5351.50053,0.02214
5353.42900,0.04105
5355.35747,0.07130
5357.28594,0.07881
5359.21440,0.07336
5361.14287,0.06532
5363.07134,0.04506
5364.99981,0.02610
5366.92828,0.02165
5368.85675,0.01583
5370.78522,0.00954
5372.71368,0.01261
5374.64215,0.02743
5376.57062,0.04981
5378.49909,0.06161
5380.42756,0.06028
5382.35603,0.05617
5384.28450,0.05711
5386.21297,0.05545
5388.14143,0.04628
5390.06990,0.04295
5391.99837,0.04404
5393.92684,0.04688
5395.85531,0.05424
5397.78378,0.05787
5399.71225,0.05905
5401.64071,0.05476
5403.56918,0.03471
5405.49765,0.03137
5407.42612,0.06994
5409.35459,0.10363
5411.28306,0.09154
5413.21153,0.05541
5415.13999,0.03163
5417.06846,0.02818
5418.99693,0.03472
5420.92540,0.04187
5422.85387,0.04816
5424.78234,0.04445
5426.71081,0.03159
5428.63928,0.03224
5430.56774,0.03818
5432.49621,0.02829
5434.42468,0.02305
5436.35315,0.04342
5438.28162,0.06906
5440.21009,0.07588
5442.13856,0.05965
5444.06702,0.04038
5445.99549,0.03812
5447.92396,0.04876
5449.85243,0.05094
5451.78090,0.04016
5453.70937,0.04276
5455.63784,0.06666
5457.56631,0.08281
5459.49477,0.08020
5461.42324,0.07671
5463.35171,0.07639
5465.28018,0.06894
5467.20865,0.06231
5469.13712,0.06884
5471.06559,0.08141
5472.99405,0.09343
5474.92252,0.08646
5476.85099,0.05683
5478.77946,0.04712
5480.70793,0.05634
5482.63640,0.05406
5484.56487,0.04871
5486.49334,0.05365
5488.42180,0.05768
5490.35027,0.06836
5492.27874,0.08186
5494.20721,0.05034
5496.13568,-0.00247
5498.06415,-0.01293
5499.99262,0.01226
5501.92108,0.03464
5503.84955,0.04428
5505.77802,0.04753
5507.70649,0.05701
5509.63496,0.07770
5511.56343,0.08859
5513.49190,0.06836
5515.42037,0.03815
5517.34883,0.02801
5519.27730,0.03234
5521.20577,0.03378
5523.13424,0.02598
5525.06271,0.01770
5526.99118,0.02260
5528.91965,0.04304
5530.84811,0.05484
5532.77658,0.03852
5534.70505,0.02810
5536.63352,0.04687
5538.56199,0.06480
5540.49046,0.06713
5542.41893,0.06044
5544.34740,0.04646
5546.27586,0.03026
5548.20433,0.01855
5550.13280,0.02179
5552.06127,0.03953
5553.98974,0.06562
5555.91821,0.08596
5557.84668,0.07994
5559.77514,0.06406
5561.70361,0.04977
5563.63208,0.03944
5565.56055,0.05464
5567.48902,0.07041
5569.41749,0.06024
5571.34596,0.05114
5573.27443,0.05404
5575.20289,0.05058
5577.13136,0.03487
5579.05983,0.01580
5580.98830,0.01250
5582.91677,0.03852
5584.84524,0.06424
5586.77371,0.06957
5588.70217,0.08115
5590.63064,0.10000
5592.55911,0.08801
5594.48758,0.04673
5596.41605,0.02843
5598.34452,0.05549
5600.27299,0.08479
5602.20145,0.08598
5604.12992,0.07136
5606.05839,0.05009
5607.98686,0.02837
5609.91533,0.02681
5611.84380,0.05134
5613.77227,0.05720
5615.70074,0.02443
5617.62920,0.00552
5619.55767,0.02007
5621.48614,0.03787
5623.41461,0.05852
5625.34308,0.07661
5627.27155,0.06627
5629.20002,0.04679
5631.12848,0.03930
5633.05695,0.03630
5634.98542,0.04640
5636.91389,0.06757
5638.84236,0.07246
5640.77083,0.06476
5642.69930,0.06616
5644.62777,0.06264
5646.55623,0.05219
5648.48470,0.05519
5650.41317,0.05474
5652.34164,0.04738
5654.27011,0.05194
5656.19858,0.06568
5658.12705,0.07626
5660.05551,0.07164
5661.98398,0.06347
5663.91245,0.06525
5665.84092,0.05985
5667.76939,0.04816
5669.69786,0.05359
5671.62633,0.07497
5673.55480,0.09826
5675.48326,0.10905
5677.41173,0.09957
5679.34020,0.09198
5681.26867,0.08795
5683.19714,0.08079
5685.12561,0.08361
5687.05408,0.07998
5688.98254,0.07489
5690.91101,0.10588
5692.83948,0.13478
5694.76795,0.10958
5696.69642,0.08119
5698.62489,0.09608
5700.55336,0.10782
5702.48183,0.09489
5704.41029,0.07609
5706.33876,0.05351
5708.26723,0.03131
5710.19570,0.02921
5712.12417,0.05502
5714.05264,0.08669
5715.98111,0.10834
5717.90957,0.10588
5719.83804,0.07909
5721.76651,0.06212
5723.69498,0.05684
5725.62345,0.05582
5727.55192,0.07560
5729.48039,0.10099
5731.40886,0.10322
5733.33732,0.08827
5735.26579,0.07627
5737.19426,0.08403
5739.12273,0.09779
5741.05120,0.09917
5742.97967,0.10619
5744.90814,0.11626
5746.83660,0.10172
5748.76507,0.07235
5750.69354,0.06928
5752.62201,0.10482
5754.55048,0.13650
5756.47895,0.11672
5758.40742,0.06447
5760.33588,0.04676
5762.26435,0.08267
5764.19282,0.12320
5766.12129,0.12234
5768.04976,0.09285
5769.97823,0.07818
5771.90670,0.08138
5773.83517,0.07433
5775.76363,0.05708
5777.69210,0.05864
5779.62057,0.08340
5781.54904,0.08856
5783.47751,0.05954
5785.40598,0.04419
5787.33445,0.07125
5789.26291,0.10843
5791.19138,0.11732
5793.11985,0.09565
5795.04832,0.07076
5796.97679,0.07005
5798.90526,0.09445
5800.83373,0.09614
5802.76220,0.05107
5804.69066,0.02068
5806.61913,0.03336
5808.54760,0.04149
5810.47607,0.03151
5812.40454,0.03634
5814.33301,0.06232
5816.26148,0.07658
5818.18994,0.07448
5820.11841,0.07819
5822.04688,0.07751
5823.97535,0.06425
5825.90382,0.06626
5827.83229,0.06859
5829.76076,0.03789
5831.68923,0.01736
5833.61769,0.03587
5835.54616,0.04583
5837.47463,0.03708
5839.40310,0.04190
5841.33157,0.05911
5843.26004,0.07800
5845.18851,0.08368
5847.11697,0.07304
5849.04544,0.07770
5850.97391,0.09209
5852.90238,0.08132
5854.83085,0.05454
5856.75932,0.04341
5858.68779,0.04756
5860.61626,0.04598
5862.54472,0.05228
5864.47319,0.06242
5866.40166,0.04423
5868.33013,0.02293
5870.25860,0.03022
5872.18707,0.05056
5874.11554,0.07464
5876.04400,0.10509
5877.97247,0.12940
5879.90094,0.12408
5881.82941,0.08382
5883.75788,0.04304
5885.68635,0.03516
5887.61482,0.04527
5889.54329,0.04035
5891.47175,0.02412
5893.40022,0.02471
5895.32869,0.05735
5897.25716,0.09678
5899.18563,0.11059
5901.11410,0.12149
5903.04257,0.13374
5904.97103,0.12483
5906.89950,0.12126
5908.82797,0.10703
5910.75644,0.04630
5912.68491,0.00011
5914.61338,0.01100
5916.54185,0.04365
5918.47032,0.08307
5920.39878,0.11049
5922.32725,0.09050
5924.25572,0.04578
5926.18419,0.03314
5928.11266,0.08185
5930.04113,0.16186
5931.96960,0.17608
5933.89806,0.08621
5935.82653,0.00518
5937.75500,0.00081
5939.68347,0.02432
5941.61194,0.05068
5943.54041,0.07081
5945.46888,0.08039
5947.39734,0.08661
5949.32581,0.08601
5951.25428,0.07041
5953.18275,0.05282
5955.11122,0.05907
5957.03969,0.06628
5958.96816,0.05032
5960.89663,0.04809
5962.82509,0.05942
5964.75356,0.05141
5966.68203,0.06076
5968.61050,0.10130
5970.53897,0.11440
5972.46744,0.10189
5974.39591,0.10592
5976.32437,0.13567
5978.25284,0.14799
5980.18131,0.09509
5982.10978,0.01996
5984.03825,-0.01650
5985.96672,-0.00160
5987.89519,0.05948
5989.82366,0.10594
5991.75212,0.09073
5993.68059,0.06348
5995.60906,0.04827
5997.53753,0.03659
5999.46600,0.05819
6001.39447,0.09504
6003.32294,0.10511
6005.25140,0.09740
6007.17987,0.10264
6009.10834,0.11460
6011.03681,0.11579
6012.96528,0.10433
6014.89375,0.07708
6016.82222,0.05846
6018.75069,0.07187
6020.67915,0.10114
6022.60762,0.10115
6024.53609,0.06242
6026.46456,0.04476
6028.39303,0.05643
6030.32150,0.05437
6032.24997,0.04795
6034.17843,0.07319
6036.10690,0.11161
6038.03537,0.10665
6039.96384,0.07464
6041.89231,0.05034
6043.82078,0.02350
6045.74925,0.00928
6047.67772,0.03610
6049.60618,0.07577
6051.53465,0.09667
6053.46312,0.10908
6055.39159,0.12442
6057.32006,0.16238
6059.24853,0.19229
6061.17700,0.15278
6063.10546,0.06148
6065.03393,0.00009
6066.96240,0.01820
6068.89087,0.08352
6070.81934,0.11289
6072.74781,0.06866
6074.67628,0.01117
6076.60475,0.01694
6078.53321,0.05949
6080.46168,0.06873
6082.39015,0.06469
6084.31862,0.08886
6086.24709,0.10337
6088.17556,0.08140
6090.10403,0.06357
6092.03249,0.07778
6093.96096,0.10897
6095.88943,0.12814
6097.81790,0.12175
6099.74637,0.08686
6101.67484,0.03625
6103.60331,-0.01402
6105.53177,-0.05957
6107.46024,-0.07736
6109.38871,-0.04282
6111.31718,0.02330
6113.24565,0.06157
6115.17412,0.04930
6117.10259,0.03273
6119.03106,0.04624
6120.95952,0.06284
6122.88799,0.06186
6124.81646,0.06235
6126.74493,0.06356
6128.67340,0.05669
6130.60187,0.06839
6132.53034,0.08801
6134.45880,0.10196
6136.38727,0.11597
6138.31574,0.10107
6140.24421,0.07204
6142.17268,0.08964
6144.10115,0.13574
6146.02962,0.14439
6147.95809,0.12208
6149.88655,0.10958
6151.81502,0.11096
6153.74349,0.11255
6155.67196,0.09392
6157.60043,0.06124
6159.52890,0.08699
6161.45737,0.16631
6163.38583,0.19096
6165.31430,0.15073
6167.24277,0.12639
6169.17124,0.13476
6171.09971,0.13762
6173.02818,0.12272
6174.95665,0.09744
6176.88512,0.07931
6178.81358,0.07692
6180.74205,0.06853
6182.67052,0.06454
6184.59899,0.07871
6186.52746,0.09819
6188.45593,0.09529
6190.38440,0.06947
6192.31286,0.06085
6194.24133,0.05847
6196.16980,0.03026
6198.09827,0.01145
6200.02674,0.04505
6201.95521,0.08364
6203.88368,0.06196
6205.81215,0.01364
6207.74061,-0.00008
6209.66908,0.00138
6211.59755,-0.00573
6213.52602,-0.00396
6215.45449,0.01856
6217.38296,0.06447
6219.31143,0.10237
6221.23989,0.10509
6223.16836,0.07759
6225.09683,0.03814
6227.02530,0.02946
6228.95377,0.05947
6230.88224,0.08180
6232.81071,0.08553
6234.73918,0.08913
6236.66764,0.09184
6238.59611,0.09969
6240.52458,0.10473
6242.45305,0.09369
6244.38152,0.06889
6246.30999,0.03266
6248.23846,0.01409
6250.16692,0.03064
6252.09539,0.05296
6254.02386,0.06590
6255.95233,0.08368
6257.88080,0.09210
6259.80927,0.08057
6261.73774,0.07956
6263.66621,0.08545
6265.59467,0.06365
6267.52314,0.03200
6269.45161,0.02791
6271.38008,0.02380
6273.30855,-0.02706
6275.23702,-0.07233
6277.16549,-0.02698
6279.09395,0.03838
6281.02242,0.07467
6282.95089,0.10712
6284.87936,0.11453
6286.80783,0.12491
6288.73630,0.11565
6290.66477,0.03478
6292.59323,0.00973
6294.52170,0.08527
6296.45017,0.12236
6298.37864,0.08261
6300.30711,0.03456
6302.23558,0.00818
6304.16405,0.00246
6306.09252,0.01309
6308.02098,0.00108
6309.94945,-0.01500
6311.87792,0.04769
6313.80639,0.13161
6315.73486,0.13286
6317.66333,0.09394
6319.59180,0.06770
6321.52026,0.03967
6323.44873,0.02323
6325.37720,0.03997
6327.30567,0.05596
6329.23414,0.02941
6331.16261,0.00402
6333.09108,0.03557
6335.01955,0.07243
6336.94801,0.05702
6338.87648,0.02421
6340.80495,0.03098
6342.73342,0.06148
6344.66189,0.04958
6346.59036,-0.00788
6348.51883,-0.02101
6350.44729,0.01053
6352.37576,0.01331
6354.30423,0.02768
6356.23270,0.07504
6358.16117,0.10296
6360.08964,0.10178
6362.01811,0.09536
6363.94658,0.09234
6365.87504,0.07731
6367.80351,0.05750
6369.73198,0.07733
6371.66045,0.11039
6373.58892,0.11374
6375.51739,0.11584
6377.44586,0.12042
6379.37432,0.11244
6381.30279,0.11292
6383.23126,0.11257
6385.15973,0.07273
6387.08820,0.05291
6389.01667,0.09073
6390.94514,0.11231
6392.87361,0.09634
6394.80207,0.08379
6396.73054,0.07358
6398.65901,0.07391
6400.58748,0.07866
6402.51595,0.07229
6404.44442,0.07621
6406.37289,0.09012
6408.30135,0.07709
6410.22982,0.02981
6412.15829,-0.02277
6414.08676,-0.05423
6416.01523,-0.04592
6417.94370,0.00836
6419.87217,0.06221
6421.80064,0.08910
6423.72910,0.10793
6425.65757,0.11180
6427.58604,0.09512
6429.51451,0.05116
6431.44298,0.02640
6433.37145,0.08470
6435.29992,0.12044
6437.22838,0.05290
6439.15685,-0.00897
6441.08532,-0.00126
6443.01379,0.02178
6444.94226,0.03769
6446.87073,0.04972
6448.79920,0.05277
6450.72766,0.04928
6452.65613,0.04452
6454.58460,0.04589
6456.51307,0.06251
6458.44154,0.09021
6460.37001,0.09766
6462.29848,0.07614
6464.22695,0.08356
6466.15541,0.13191
6468.08388,0.15436
6470.01235,0.14084
6471.94082,0.11120
6473.86929,0.07239
6475.79776,0.04615
6477.72623,0.03695
6479.65469,0.05305
6481.58316,0.05198
6483.51163,0.00129
6485.44010,-0.03812
6487.36857,-0.03334
6489.29704,0.03171
6491.22551,0.10926
6493.15398,0.08888
6495.08244,0.01331
6497.01091,-0.00063
6498.93938,0.05337
6500.86785,0.09049
6502.79632,0.03885
6504.72479,-0.04490
6506.65326,-0.09949
6508.58172,-0.10835
6510.51019,-0.06311
6512.43866,0.00466
6514.36713,0.05686
6516.29560,0.08954
6518.22407,0.11136
6520.15254,0.12132
6522.08101,0.11709
6524.00947,0.10064
6525.93794,0.07081
6527.86641,0.03100
6529.79488,0.00326
6531.72335,0.02159
6533.65182,0.03488
6535.58029,-0.02485
6537.50875,-0.08783
6539.43722,-0.04950
6541.36569,0.05006
6543.29416,0.05783
6545.22263,-0.03760
6547.15110,-0.08884
6549.07957,-0.04181
6551.00804,0.02952
6552.93650,0.08103
6554.86497,0.13032
6556.79344,0.12112
6558.72191,0.07467
6560.65038,0.09665
6562.57885,0.15154
6564.50732,0.15477
6566.43578,0.13918
6568.36425,0.14359
6570.29272,0.13788
6572.22119,0.10648
6574.14966,0.07554
6576.07813,0.04827
6578.00660,0.00527
6579.93507,0.00537
6581.86353,0.06755
6583.79200,0.10139
6585.72047,0.10120
6587.64894,0.09403
6589.57741,0.06190
6591.50588,0.02914
6593.43435,0.04180
6595.36281,0.10545
6597.29128,0.15693
6599.21975,0.13765
6601.14822,0.04668
6603.07669,-0.00476
6605.00516,0.05830
6606.93363,0.11879
6608.86210,0.07573
6610.79056,0.03664
6612.71903,0.07035
6614.64750,0.07625
6616.57597,0.02179
6618.50444,-0.03492
6620.43291,-0.06361
6622.36138,-0.02687
6624.28984,0.05451
6626.21831,0.09888
6628.14678,0.08319
6630.07525,0.03788
6632.00372,0.03689
6633.93219,0.08483
6635.86066,0.11977
6637.78912,0.11879
6639.71759,0.10842
6641.64606,0.09357
6643.57453,0.06586
6645.50300,0.03815
6647.43147,0.03337
6649.35994,0.07086
6651.28841,0.09444
6653.21687,0.06795
6655.14534,0.05767
6657.07381,0.04974
6659.00228,0.00996
6660.93075,0.02220
6662.85922,0.10133
6664.78769,0.17254
6666.71615,0.18180
6668.64462,0.16620
6670.57309,0.19113
6672.50156,0.17443
6674.43003,0.03773
6676.35850,-0.06045
6678.28697,-0.03319
6680.21544,0.01053
6682.14390,0.00612
6684.07237,-0.05292
6686.00084,-0.14083
6687.92931,-0.15482
6689.85778,-0.06732
6691.78625,0.00633
6693.71472,0.01862
6695.64318,-0.01645
6697.57165,-0.06943
6699.50012,-0.07406
6701.42859,0.01074
6703.35706,0.10725
6705.28553,0.14443
6707.21400,0.15236
6709.14247,0.14689
6711.07093,0.11869
6712.99940,0.06059
6714.92787,0.01546
6716.85634,0.02349
6718.78481,0.03869
6720.71328,0.04026
6722.64175,0.04937
6724.57021,0.04406
6726.49868,0.02405
6728.42715,0.06593
6730.35562,0.15897
6732.28409,0.16150
6734.21256,0.05544
6736.14103,-0.02380
6738.06950,-0.01802
6739.99796,-0.00988
6741.92643,-0.03006
6743.85490,-0.04839
6745.78337,-0.05337
6747.71184,-0.01755
6749.64031,0.03168
6751.56878,0.05601
6753.49724,0.06039
6755.42571,0.05029
6757.35418,0.04769
6759.28265,0.00658
6761.21112,-0.07369
6763.13959,-0.06289
6765.06806,0.02011
6766.99653,0.04216
6768.92499,-0.00091
6770.85346,0.00635
6772.78193,0.09254
6774.71040,0.12571
6776.63887,0.04982
6778.56734,0.00733
6780.49581,0.01290
6782.42427,0.02411
6784.35274,0.08489
6786.28121,0.15378
6788.20968,0.14597
6790.13815,0.07452
6792.06662,0.04307
6793.99509,0.06357
6795.92355,0.06336
6797.85202,0.08217
6799.78049,0.12565
6801.70896,0.10495
6803.63743,0.05552
6805.56590,0.00092
6807.49437,-0.09272
6809.42284,-0.10770
6811.35130,0.00232
6813.27977,0.05351
6815.20824,-0.02885
6817.13671,-0.08914
6819.06518,-0.05640
6820.99365,0.00638
6822.92212,0.00643
6824.85058,-0.06308
6826.77905,-0.05554
6828.70752,0.03881
6830.63599,0.13312
6832.56446,0.22741
6834.49293,0.30407
6836.42140,0.23746
6838.34987,0.08074
6840.27833,0.01451
6842.20680,-0.00609
6844.13527,-0.03696
6846.06374,-0.01339
6847.99221,0.07264
6849.92068,0.10594
6851.84915,0.03476
6853.77761,-0.03585
6855.70608,-0.02865
6857.63455,0.04639
6859.56302,0.10497
6861.49149,0.11058
6863.41996,0.08759
6865.34843,0.04764
6867.27690,0.00009
6869.20536,-0.01557
6871.13383,0.01540
6873.06230,0.04671
6874.99077,0.02056
6876.91924,-0.03445
6878.84771,-0.06979
6880.77618,-0.03600
6882.70464,0.05638
6884.63311,0.11782
6886.56158,0.10161
6888.49005,0.05282
6890.41852,0.02894
6892.34699,0.02409
6894.27546,0.05178
6896.20393,0.09957
6898.13239,0.08509
6900.06086,0.05876
6901.98933,0.10714
6903.91780,0.20732
6905.84627,0.29365
6907.77474,0.27669
6909.70321,0.16362
6911.63167,0.07317
6913.56014,0.04854
6915.48861,0.02670
6917.41708,0.01250
6919.34555,0.02647
6921.27402,0.03664
6923.20249,0.04705
6925.13096,0.05998
6927.05942,0.05673
6928.98789,0.04724
6930.91636,0.05851
6932.84483,0.05244
6934.77330,0.00200
6936.70177,-0.01316
6938.63024,0.04935
6940.55870,0.09248
6942.48717,0.07191
6944.41564,0.09862
6946.34411,0.14549
6948.27258,0.12568
6950.20105,0.06714
6952.12952,0.01564
6954.05799,-0.00842
6955.98645,0.03002
6957.91492,0.10208
6959.84339,0.16779
6961.77186,0.21548
6963.70033,0.20042
6965.62880,0.15203
6967.55727,0.15230
6969.48573,0.17897
6971.41420,0.11927
6973.34267,0.01606
6975.27114,0.02266
6977.19961,0.06608
6979.12808,0.05704
6981.05655,0.08047
6982.98501,0.13802
6984.91348,0.12633
6986.84195,0.02910
6988.77042,-0.09554
6990.69889,-0.16184
6992.62736,-0.11301
6994.55583,0.02273
6996.48430,0.15358
6998.41276,0.19549
7000.34123,0.13940
7002.26970,0.03569
7004.19817,0.01145
7006.12664,0.10779
7008.05511,0.20198
7009.98358,0.21359
7011.91204,0.19445
7013.84051,0.18995
7015.76898,0.16119
7017.69745,0.07267
7019.62592,0.00399
7021.55439,0.02147
7023.48286,0.06113
7025.41133,0.09722
7027.33979,0.16534
7029.26826,0.15342
7031.19673,-0.01115
7033.12520,-0.16750
7035.05367,-0.17952
7036.98214,-0.11899
7038.91061,-0.07898
7040.83907,-0.00040
7042.76754,0.12332
7044.69601,0.17048
7046.62448,0.11992
7048.55295,0.02843
7050.48142,-0.04957
7052.40989,-0.07150
7054.33836,-0.05590
7056.26682,-0.01623
7058.19529,0.05585
7060.12376,0.13250
7062.05223,0.21330
7063.98070,0.21314
7065.90917,0.09404
7067.83764,0.00442
7069.76610,0.02504
7071.69457,0.09027
7073.62304,0.11882
7075.55151,0.10898
7077.47998,0.08104
7079.40845,0.05929
7081.33692,0.09465
7083.26539,0.16988
7085.19385,0.16713
7087.12232,0.07122
7089.05079,-0.02200
7090.97926,-0.06165
7092.90773,-0.06973
7094.83620,-0.06492
7096.76467,-0.03210
7098.69313,0.02371
7100.62160,0.06903
7102.55007,0.12005
7104.47854,0.14317
7106.40701,0.10822
7108.33548,0.05344
7110.26395,-0.02195
7112.19242,-0.08189
7114.12088,-0.05944
7116.04935,-0.02865
7117.97782,-0.04122
7119.90629,0.01949
7121.83476,0.10439
7123.76323,0.11224
7125.69170,0.09214
7127.62016,0.08485
7129.54863,0.11082
7131.47710,0.16693
7133.40557,0.17953
7135.33404,0.17379
7137.26251,0.23152
7139.19098,0.25423
7141.11944,0.13560
7143.04791,-0.01103
7144.97638,-0.07478
7146.90485,-0.10420
7148.83332,-0.10808
7150.76179,-0.01634
7152.69026,0.06450
7154.61873,0.02551
7156.54719,-0.02946
7158.47566,-0.07585
7160.40413,-0.10067
7162.33260,-0.04086
7164.26107,0.09912
7166.18954,0.22959
7168.11801,0.22587
7170.04647,0.08746
7171.97494,0.03344
7173.90341,0.13679
7175.83188,0.19128
7177.76035,0.15990
7179.68882,0.16447
7181.61729,0.11090
7183.54576,-0.01705
7185.47422,0.03407
7187.40269,0.19047
7189.33116,0.21961
7191.25963,0.08935
7193.18810,-0.06331
7195.11657,-0.12808
7197.04504,-0.10683
7198.97350,-0.03801
7200.90197,0.00147
7202.83044,-0.05882
7204.75891,-0.11578
7206.68738,-0.01591
7208.61585,0.02021
7210.54432,-0.07645
7212.47279,-0.10400
7214.40125,-0.02174
7216.32972,0.02026
7218.25819,-0.01256
7220.18666,-0.00240
7222.11513,0.03843
7224.04360,0.01218
7225.97207,-0.03656
7227.90053,-0.00974
7229.82900,0.02681
7231.75747,0.04799
7233.68594,0.07294
7235.61441,0.07906
7237.54288,0.04928
7239.47135,0.01605
7241.39982,0.05665
7243.32828,0.13618
7245.25675,0.12071
7247.18522,0.08883
7249.11369,0.10178
7251.04216,0.05029
7252.97063,-0.03522
7254.89910,0.02997
7256.82756,0.09404
7258.75603,0.11637
7260.68450,0.24177
7262.61297,0.44072
7264.54144,0.46392
7266.46991,0.26124
7268.39838,0.09759
7270.32685,0.11308
7272.25531,0.16310
7274.18378,0.13371
7276.11225,0.09416
7278.04072,0.10613
7279.96919,0.18047
7281.89766,0.12908
7283.82613,-0.01632
7285.75459,-0.07125
7287.68306,-0.10916
7289.61153,-0.20361
7291.54000,-0.15793
7293.46847,-0.01966
7295.39694,-0.00870
7297.32541,-0.00979
7299.25387,0.00807
7301.18234,-0.02949
7303.11081,-0.04249
7305.03928,0.04859
7306.96775,0.22472
7308.89622,0.30985
7310.82469,0.18042
7312.75316,0.03194
7314.68162,-0.05228
7316.61009,-0.07353
7318.53856,-0.10899
7320.46703,-0.13051
7322.39550,-0.03240
7324.32397,0.02623
7326.25244,0.00923
7328.18090,0.07224
7330.10937,0.11961
7332.03784,0.04576
7333.96631,-0.01930
7335.89478,-0.02002
7337.82325,-0.00294
7339.75172,-0.01943
7341.68019,-0.02092
7343.60865,0.10412
7345.53712,0.20210
7347.46559,0.14481
7349.39406,0.14250
7351.32253,0.21801
7353.25100,0.19059
7355.17947,0.15430
7357.10793,0.10929
7359.03640,-0.05174
7360.96487,-0.10065
7362.89334,-0.02043
7364.82181,-0.10128
7366.75028,-0.24434
7368.67875,-0.23908
7370.60722,-0.14978
7372.53568,-0.02722
7374.46415,0.11608
7376.39262,0.08953
7378.32109,-0.00440
7380.24956,0.01762
7382.17803,0.10204
7384.10650,0.14937
7386.03496,0.17504
7387.96343,0.18206
7389.89190,0.13116
7391.82037,0.05368
7393.74884,0.01772
7395.67731,0.04134
7397.60578,0.10103
7399.53425,0.21667
7401.46271,0.33936
7403.39118,0.31811
7405.31965,0.14631
7407.24812,0.09865
7409.17659,0.20991
7411.10506,0.21391
7413.03353,0.03265
7414.96199,-0.11200
7416.89046,-0.08210
7418.81893,0.01019
7420.74740,0.07753
7422.67587,0.14673
7424.60434,0.14488
7426.53281,0.12788
7428.46128,0.18734
7430.38974,0.25067
7432.31821,0.21804
7434.24668,0.19188
7436.17515,0.24608
7438.10362,0.28660
7440.03209,0.19130
7441.96056,-0.00463
7443.88902,-0.11076
7445.81749,-0.08982
7447.74596,-0.09720
7449.67443,-0.07976
7451.60290,0.00336
7453.53137,-0.00249
7455.45984,0.00621
7457.38831,0.08445
7459.31677,0.17835
7461.24524,0.32065
7463.17371,0.36231
7465.10218,0.12051
7467.03065,-0.16739
7468.95912,-0.22003
7470.88759,-0.12685
7472.81605,-0.06375
7474.74452,-0.04246
7476.67299,0.09710
7478.60146,0.41434
7480.52993,0.67980
7482.45840,0.61563
7484.38687,0.33289
7486.31533,0.08996
7488.24380,-0.03814
7490.17227,-0.03980
7492.10074,0.06003
7494.02921,0.08865
7495.95768,-0.04559
7497.88615,-0.19024
