399.19301,1.78383
401.12148,0.13290
403.04995,-0.09362
404.97842,0.04764
406.90689,0.06747
408.83536,-0.02690
410.76382,0.00192
412.69229,0.06532
414.62076,0.02960
416.54923,0.03490
418.47770,0.15118
420.40617,0.18497
422.33464,0.08849
424.26311,0.03318
426.19157,0.05457
428.12004,0.05832
430.04851,0.03900
431.97698,0.05304
433.90545,0.08250
435.83392,0.10812
437.76239,0.11171
439.69085,0.09981
441.61932,0.09247
443.54779,0.06624
445.47626,0.04006
447.40473,0.02317
449.33320,0.01102
451.26167,0.04398
453.19013,0.08718
455.11860,0.08343
457.04707,0.07141
458.97554,0.05383
460.90401,0.00741
462.83248,0.00778
464.76095,0.05230
466.68942,0.06006
468.61788,0.00862
470.54635,-0.02347
472.47482,0.07229
474.40329,0.17318
476.33176,0.10310
478.26023,0.05191
480.18870,0.04057
482.11716,0.05394
484.04563,0.09522
485.97410,0.09903
487.90257,0.07502
489.83104,0.08332
491.75951,0.09720
493.68798,0.08372
495.61645,0.08611
497.54491,0.11977
499.47338,0.12406
501.40185,0.10632
503.33032,0.11521
505.25879,0.13452
507.18726,0.12467
509.11573,0.10185
511.04419,0.09142
512.97266,0.07707
514.90113,0.04163
516.82960,-0.01726
518.75807,-0.04332
520.68654,-0.00681
522.61501,0.05409
524.54348,0.08393
526.47194,0.04996
528.40041,0.01582
530.32888,0.03115
532.25735,0.07975
534.18582,0.11358
536.11429,0.10622
538.04276,0.10205
539.97122,0.11663
541.89969,0.13295
543.82816,0.15255
545.75663,0.14560
547.68510,0.11371
549.61357,0.17414
551.54204,0.49386
553.47051,0.83987
555.39897,0.72531
557.32744,0.31252
559.25591,0.10052
561.18438,0.08511
563.11285,0.09241
565.04132,0.07186
566.96979,0.04938
568.89825,0.05700
570.82672,0.07682
572.75519,0.08065
574.68366,0.06184
576.61213,0.05334
578.54060,0.07421
580.46907,0.09245
582.39754,0.08076
584.32600,0.06523
586.25447,0.06138
588.18294,0.05687
590.11141,0.05540
592.03988,0.05798
593.96835,0.05695
595.89682,0.05313
597.82528,0.04867
599.75375,0.04517
601.68222,0.05266
603.61069,0.06894
605.53916,0.07953
607.46763,0.08217
609.39610,0.07932
611.32456,0.07464
613.25303,0.07596
615.18150,0.08372
617.10997,0.08612
619.03844,0.08226
620.96691,0.07568
622.89538,0.06340
624.82385,0.06173
626.75231,0.08153
628.68078,0.09601
630.60925,0.08961
632.53772,0.08181
634.46619,0.08356
636.39466,0.09796
638.32313,0.11588
640.25159,0.11246
642.18006,0.10425
644.10853,0.11892
646.03700,0.13186
647.96547,0.12200
649.89394,0.10793
651.82241,0.10043
653.75088,0.09324
655.67934,0.08402
657.60781,0.07776
659.53628,0.08636
661.46475,0.10018
663.39322,0.09990
665.32169,0.08266
667.25016,0.05958
669.17862,0.07455
671.10709,0.10371
673.03556,0.10937
674.96403,0.11503
676.89250,0.12675
678.82097,0.12551
680.74944,0.11081
682.67791,0.09615
684.60637,0.09835
686.53484,0.12227
688.46331,0.13216
690.39178,0.11067
692.32025,0.08450
694.24872,0.07578
696.17719,0.08548
698.10565,0.09958
700.03412,0.10492
701.96259,0.09592
703.89106,0.07956
705.81953,0.06568
707.74800,0.05488
709.67647,0.05475
711.60494,0.06850
713.53340,0.08212
715.46187,0.08474
717.39034,0.08370
719.31881,0.09001
721.24728,0.09592
723.17575,0.09563
725.10422,0.09752
727.03268,0.09784
728.96115,0.09271
730.88962,0.09038
732.81809,0.09816
734.74656,0.11135
736.67503,0.11795
738.60350,0.12038
740.53197,0.12094
742.46043,0.10969
744.38890,0.09534
746.31737,0.09185
748.24584,0.08640
750.17431,0.07948
752.10278,0.08717
754.03125,0.09630
755.95971,0.09411
757.88818,0.09388
759.81665,0.09999
761.74512,0.09928
763.67359,0.09203
765.60206,0.09182
767.53053,0.09797
769.45900,0.10201
771.38746,0.10327
773.31593,0.10662
775.24440,0.11299
777.17287,0.11342
779.10134,0.10972
781.02981,0.11082
782.95828,0.10553
784.88674,0.09627
786.81521,0.10177
788.74368,0.10944
790.67215,0.10640
792.60062,0.10306
794.52909,0.10022
796.45756,0.09723
798.38602,0.10040
800.31449,0.10492
802.24296,0.10336
804.17143,0.09799
806.09990,0.09431
808.02837,0.09377
809.95684,0.09711
811.88531,0.10572
813.81377,0.11374
815.74224,0.11629
817.67071,0.11481
819.59918,0.10940
821.52765,0.10804
823.45612,0.11496
825.38459,0.11579
827.31305,0.11581
829.24152,0.12856
831.16999,0.13536
833.09846,0.12849
835.02693,0.12035
836.95540,0.11311
838.88387,0.10855
840.81234,0.10836
842.74080,0.11115
844.66927,0.11702
846.59774,0.12345
848.52621,0.12559
850.45468,0.12249
852.38315,0.11827
854.31162,0.11330
856.24008,0.10836
858.16855,0.10979
860.09702,0.11576
862.02549,0.11718
863.95396,0.11193
865.88243,0.10433
867.81090,0.09952
869.73937,0.09733
871.66783,0.09793
873.59630,0.10465
875.52477,0.11164
877.45324,0.11340
879.38171,0.11190
881.31018,0.11111
883.23865,0.11495
885.16711,0.12024
887.09558,0.12183
889.02405,0.12052
890.95252,0.11921
892.88099,0.11482
894.80946,0.10722
896.73793,0.10381
898.66640,0.10415
900.59486,0.10749
902.52333,0.11599
904.45180,0.12278
906.38027,0.11903
908.30874,0.10938
910.23721,0.10666
912.16568,0.11294
914.09414,0.11941
916.02261,0.11988
917.95108,0.12067
919.87955,0.12426
921.80802,0.12154
923.73649,0.11643
925.66496,0.11620
927.59343,0.11663
929.52189,0.11630
931.45036,0.11639
933.37883,0.11769
935.30730,0.12124
937.23577,0.12433
939.16424,0.12551
941.09271,0.12607
943.02117,0.12725
944.94964,0.12775
946.87811,0.12379
948.80658,0.11870
950.73505,0.11804
952.66352,0.12083
954.59199,0.12166
956.52045,0.11859
958.44892,0.11781
960.37739,0.11766
962.30586,0.11347
964.23433,0.10979
966.16280,0.11011
968.09127,0.11604
970.01974,0.12432
971.94820,0.12662
973.87667,0.12001
975.80514,0.11200
977.73361,0.11108
979.66208,0.11420
981.59055,0.11587
983.51902,0.11478
985.44748,0.11275
987.37595,0.11464
989.30442,0.12197
991.23289,0.12998
993.16136,0.13227
995.08983,0.13110
997.01830,0.13247
998.94677,0.13263
1000.87523,0.12807
1002.80370,0.12534
1004.73217,0.12283
1006.66064,0.11178
1008.58911,0.10334
1010.51758,0.11093
1012.44605,0.12258
1014.37451,0.12516
1016.30298,0.12383
1018.23145,0.12639
1020.15992,0.13111
1022.08839,0.13168
1024.01686,0.12807
1025.94533,0.12916
1027.87380,0.13887
1029.80226,0.14390
1031.73073,0.13810
1033.65920,0.13509
1035.58767,0.13546
1037.51614,0.13205
1039.44461,0.12931
1041.37308,0.12899
1043.30154,0.13160
1045.23001,0.13934
1047.15848,0.14333
1049.08695,0.13886
1051.01542,0.13367
1052.94389,0.12962
1054.87236,0.12950
1056.80083,0.13534
1058.72929,0.13976
1060.65776,0.13656
1062.58623,0.12743
1064.51470,0.12229
1066.44317,0.12442
1068.37164,0.12808
1070.30011,0.13357
1072.22857,0.14281
1074.15704,0.14816
1076.08551,0.14294
1078.01398,0.13328
1079.94245,0.12788
1081.87092,0.12893
1083.79939,0.13236
1085.72786,0.13307
1087.65632,0.12910
1089.58479,0.12274
1091.51326,0.12042
1093.44173,0.12600
1095.37020,0.13428
1097.29867,0.13887
1099.22714,0.14226
1101.15560,0.14441
1103.08407,0.13882
1105.01254,0.13285
1106.94101,0.13464
1108.86948,0.13343
1110.79795,0.12869
1112.72642,0.13057
1114.65489,0.13641
1116.58335,0.14390
1118.51182,0.15101
1120.44029,0.14839
1122.36876,0.13631
1124.29723,0.12655
1126.22570,0.12407
1128.15417,0.12916
1130.08263,0.13757
1132.01110,0.14130
1133.93957,0.14180
1135.86804,0.14205
1137.79651,0.14124
1139.72498,0.14063
1141.65345,0.14369
1143.58191,0.14635
1145.51038,0.14080
1147.43885,0.13297
1149.36732,0.13140
1151.29579,0.13708
1153.22426,0.14778
1155.15273,0.15339
1157.08120,0.14715
1159.00966,0.14011
1160.93813,0.14083
1162.86660,0.14442
1164.79507,0.14795
1166.72354,0.14926
1168.65201,0.14403
1170.58048,0.13836
1172.50894,0.14292
1174.43741,0.15097
1176.36588,0.15280
1178.29435,0.15471
1180.22282,0.15613
1182.15129,0.15026
1184.07976,0.14181
1186.00823,0.13566
1187.93669,0.13339
1189.86516,0.13695
1191.79363,0.14220
1193.72210,0.14244
1195.65057,0.13884
1197.57904,0.13650
1199.50751,0.13574
1201.43597,0.13797
1203.36444,0.14412
1205.29291,0.14799
1207.22138,0.14608
1209.14985,0.14227
1211.07832,0.14134
1213.00679,0.14399
1214.93526,0.14645
1216.86372,0.14662
1218.79219,0.14477
1220.72066,0.14187
1222.64913,0.14320
1224.57760,0.14859
1226.50607,0.14816
1228.43454,0.14283
1230.36300,0.14230
1232.29147,0.14597
1234.21994,0.14754
1236.14841,0.14662
1238.07688,0.14641
1240.00535,0.14626
1241.93382,0.14645
1243.86229,0.14882
1245.79075,0.15113
1247.71922,0.15207
1249.64769,0.15149
1251.57616,0.14795
1253.50463,0.14370
1255.43310,0.14385
1257.36157,0.14599
1259.29003,0.14189
1261.21850,0.13470
1263.14697,0.13629
1265.07544,0.14530
1267.00391,0.14933
1268.93238,0.14746
1270.86085,0.14729
1272.78932,0.14920
1274.71778,0.15063
1276.64625,0.15074
1278.57472,0.15009
1280.50319,0.14876
1282.43166,0.14697
1284.36013,0.14653
1286.28860,0.14727
1288.21706,0.14990
1290.14553,0.15560
1292.07400,0.16086
1294.00247,0.16074
1295.93094,0.15546
1297.85941,0.14939
1299.78788,0.14366
1301.71634,0.13628
1303.64481,0.12918
1305.57328,0.12958
1307.50175,0.13788
1309.43022,0.14479
1311.35869,0.14892
1313.28716,0.15538
1315.21563,0.15918
1317.14409,0.15654
1319.07256,0.15544
1321.00103,0.15879
1322.92950,0.16008
1324.85797,0.15606
1326.78644,0.15186
1328.71491,0.15247
1330.64337,0.15346
1332.57184,0.15255
1334.50031,0.15411
1336.42878,0.15828
1338.35725,0.16387
1340.28572,0.16311
1342.21419,0.15719
1344.14266,0.16824
1346.07112,0.18272
1347.99959,0.17222
1349.92806,0.15632
1351.85653,0.15327
1353.78500,0.15283
1355.71347,0.15276
1357.64194,0.15574
1359.57040,0.16135
1361.49887,0.16523
1363.42734,0.16312
1365.35581,0.15980
1367.28428,0.15807
1369.21275,0.15696
1371.14122,0.15968
1373.06969,0.16675
1374.99815,0.16918
1376.92662,0.16402
1378.85509,0.15921
1380.78356,0.15701
1382.71203,0.15827
1384.64050,0.16321
1386.56897,0.16507
1388.49743,0.16226
1390.42590,0.16374
1392.35437,0.17064
1394.28284,0.17686
1396.21131,0.17654
1398.13978,0.17373
1400.06825,0.17151
1401.99672,0.16806
1403.92518,0.16460
1405.85365,0.16249
1407.78212,0.16179
1409.71059,0.16209
1411.63906,0.16275
1413.56753,0.16408
1415.49600,0.16733
1417.42446,0.17288
1419.35293,0.17548
1421.28140,0.17002
1423.20987,0.16356
1425.13834,0.16125
1427.06681,0.16376
1428.99528,0.16952
1430.92375,0.17392
1432.85221,0.17530
1434.78068,0.17803
1436.70915,0.18029
1438.63762,0.17666
1440.56609,0.17234
1442.49456,0.16866
1444.42303,0.16573
1446.35149,0.16690
1448.27996,0.16958
1450.20843,0.17074
1452.13690,0.17502
1454.06537,0.18693
1455.99384,0.20649
1457.92231,0.20696
1459.85077,0.18582
1461.77924,0.17862
1463.70771,0.18288
1465.63618,0.18389
1467.56465,0.17963
1469.49312,0.18244
1471.42159,0.19436
1473.35006,0.20140
1475.27852,0.19438
1477.20699,0.18379
1479.13546,0.17576
1481.06393,0.17270
1482.99240,0.17307
1484.92087,0.17527
1486.84934,0.18012
1488.77780,0.18805
1490.70627,0.19182
1492.63474,0.18997
1494.56321,0.19138
1496.49168,0.19718
1498.42015,0.19847
1500.34862,0.19401
1502.27709,0.19419
1504.20555,0.20438
1506.13402,0.22393
1508.06249,0.22637
1509.99096,0.20845
1511.91943,0.19349
1513.84790,0.18937
1515.77637,0.19889
1517.70483,0.21205
1519.63330,0.22040
1521.56177,0.22133
1523.49024,0.21100
1525.41871,0.20273
1527.34718,0.19702
1529.27565,0.19200
1531.20412,0.19316
1533.13258,0.19623
1535.06105,0.19324
1536.98952,0.19521
1538.91799,0.21275
1540.84646,0.23043
1542.77493,0.21790
1544.70340,0.20033
1546.63186,0.19044
1548.56033,0.18785
1550.48880,0.18828
1552.41727,0.18963
1554.34574,0.19511
1556.27421,0.21031
1558.20268,0.23178
1560.13115,0.21570
1562.05961,0.19399
1563.98808,0.18908
1565.91655,0.19073
1567.84502,0.19488
1569.77349,0.19558
1571.70196,0.19077
1573.63043,0.19029
1575.55889,0.19329
1577.48736,0.19090
1579.41583,0.18633
1581.34430,0.18205
1583.27277,0.17563
1585.20124,0.17053
1587.12971,0.17012
1589.05818,0.17187
1590.98664,0.17419
1592.91511,0.17734
1594.84358,0.17858
1596.77205,0.17723
1598.70052,0.17698
1600.62899,0.17790
1602.55746,0.17685
1604.48592,0.17482
1606.41439,0.17565
1608.34286,0.17900
1610.27133,0.18187
1612.19980,0.18449
1614.12827,0.19053
1616.05674,0.19835
1617.98521,0.19655
1619.91367,0.19326
1621.84214,0.19778
1623.77061,0.20143
1625.69908,0.20010
1627.62755,0.19925
1629.55602,0.19554
1631.48449,0.19183
1633.41295,0.19556
1635.34142,0.20482
1637.26989,0.20287
1639.19836,0.19382
1641.12683,0.18921
1643.05530,0.18924
1644.98377,0.19491
1646.91223,0.20662
1648.84070,0.21361
1650.76917,0.22332
1652.69764,0.23993
1654.62611,0.22420
1656.55458,0.20268
1658.48305,0.19706
1660.41152,0.19965
1662.33998,0.20182
1664.26845,0.19815
1666.19692,0.19824
1668.12539,0.20835
1670.05386,0.21619
1671.98233,0.21181
1673.91080,0.20745
1675.83926,0.20287
1677.76773,0.19940
1679.69620,0.20321
1681.62467,0.21346
1683.55314,0.22108
1685.48161,0.21114
1687.41008,0.20195
1689.33855,0.19894
1691.26701,0.19460
1693.19548,0.19377
1695.12395,0.20203
1697.05242,0.21042
1698.98089,0.21028
1700.90936,0.20679
1702.83783,0.20494
1704.76629,0.20377
1706.69476,0.19817
1708.62323,0.19094
1710.55170,0.18859
1712.48017,0.19307
1714.40864,0.20387
1716.33711,0.21394
1718.26558,0.20737
1720.19404,0.19396
1722.12251,0.18749
1724.05098,0.18552
1725.97945,0.18550
1727.90792,0.18822
1729.83639,0.19291
1731.76486,0.19819
1733.69332,0.20283
1735.62179,0.20037
1737.55026,0.19701
1739.47873,0.19729
1741.40720,0.19809
1743.33567,0.19863
1745.26414,0.20023
1747.19261,0.20309
1749.12107,0.20453
1751.04954,0.19753
1752.97801,0.18797
1754.90648,0.18623
1756.83495,0.18868
1758.76342,0.18917
1760.69189,0.19051
1762.62035,0.19065
1764.54882,0.18690
1766.47729,0.18620
1768.40576,0.19125
1770.33423,0.20051
1772.26270,0.20582
1774.19117,0.19762
1776.11964,0.18878
1778.04810,0.18719
1779.97657,0.18919
1781.90504,0.18957
1783.83351,0.18832
1785.76198,0.18671
1787.69045,0.18551
1789.61892,0.18947
1791.54738,0.19853
1793.47585,0.20099
1795.40432,0.19633
1797.33279,0.19307
1799.26126,0.19145
1801.18973,0.18950
1803.11820,0.18673
1805.04666,0.18425
1806.97513,0.18455
1808.90360,0.18802
1810.83207,0.18930
1812.76054,0.18504
1814.68901,0.18094
1816.61748,0.17864
1818.54595,0.17435
1820.47441,0.17053
1822.40288,0.17382
1824.33135,0.18322
1826.25982,0.19005
1828.18829,0.19449
1830.11676,0.19641
1832.04523,0.18914
1833.97369,0.18146
1835.90216,0.18110
1837.83063,0.18449
1839.75910,0.18609
1841.68757,0.18723
1843.61604,0.19091
1845.54451,0.19353
1847.47298,0.19243
1849.40144,0.18941
1851.32991,0.18566
1853.25838,0.18335
1855.18685,0.18332
1857.11532,0.18327
1859.04379,0.18132
1860.97226,0.18057
1862.90072,0.18425
1864.82919,0.19082
1866.75766,0.19669
1868.68613,0.19712
1870.61460,0.19156
1872.54307,0.18654
1874.47154,0.18492
1876.40001,0.18471
1878.32847,0.18385
1880.25694,0.18170
1882.18541,0.17918
1884.11388,0.17871
1886.04235,0.17947
1887.97082,0.18088
1889.89929,0.18359
1891.82775,0.18614
1893.75622,0.18830
1895.68469,0.18711
1897.61316,0.18150
1899.54163,0.17828
1901.47010,0.18017
1903.39857,0.18335
1905.32704,0.18492
1907.25550,0.18418
1909.18397,0.18154
1911.11244,0.17984
1913.04091,0.18108
1914.96938,0.18376
1916.89785,0.18541
1918.82632,0.18476
1920.75478,0.18457
1922.68325,0.18709
1924.61172,0.18957
1926.54019,0.18930
1928.46866,0.18594
1930.39713,0.18210
1932.32560,0.18188
1934.25407,0.18348
1936.18253,0.18310
1938.11100,0.18247
1940.03947,0.18511
1941.96794,0.18992
1943.89641,0.19200
1945.82488,0.19019
1947.75335,0.18704
1949.68181,0.18372
1951.61028,0.18152
1953.53875,0.18159
1955.46722,0.18185
1957.39569,0.18142
1959.32416,0.18255
1961.25263,0.18415
1963.18110,0.18466
1965.10956,0.18560
1967.03803,0.18564
1968.96650,0.18407
1970.89497,0.18410
1972.82344,0.18499
1974.75191,0.18419
1976.68038,0.18358
1978.60884,0.18559
1980.53731,0.18726
1982.46578,0.18539
1984.39425,0.18341
1986.32272,0.18468
1988.25119,0.18722
1990.17966,0.18963
1992.10812,0.19162
1994.03659,0.19037
1995.96506,0.18639
1997.89353,0.18452
1999.82200,0.18624
2001.75047,0.18844
2003.67894,0.18878
2005.60741,0.18765
2007.53587,0.18559
2009.46434,0.18388
2011.39281,0.18472
2013.32128,0.18744
2015.24975,0.19030
2017.17822,0.19204
2019.10669,0.19152
2021.03515,0.18941
2022.96362,0.18634
2024.89209,0.18377
2026.82056,0.18301
2028.74903,0.18261
2030.67750,0.18252
2032.60597,0.18370
2034.53444,0.18430
2036.46290,0.18363
2038.39137,0.18469
2040.31984,0.18661
2042.24831,0.18485
2044.17678,0.18215
2046.10525,0.18303
2048.03372,0.18432
2049.96218,0.18362
2051.89065,0.18390
2053.81912,0.18576
2055.74759,0.18641
2057.67606,0.18478
2059.60453,0.18375
2061.53300,0.18577
2063.46147,0.18798
2065.38993,0.18811
2067.31840,0.18788
2069.24687,0.18796
2071.17534,0.18826
2073.10381,0.18848
2075.03228,0.18739
2076.96075,0.18557
2078.88921,0.18499
2080.81768,0.18646
2082.74615,0.18905
2084.67462,0.18978
2086.60309,0.18742
2088.53156,0.18559
2090.46003,0.18640
2092.38850,0.18851
2094.31696,0.19046
2096.24543,0.19131
2098.17390,0.19263
2100.10237,0.19356
2102.03084,0.19104
2103.95931,0.18795
2105.88778,0.18815
2107.81624,0.19037
2109.74471,0.19138
2111.67318,0.19097
2113.60165,0.19098
2115.53012,0.19132
2117.45859,0.19130
2119.38706,0.19148
2121.31553,0.19180
2123.24399,0.19143
2125.17246,0.19074
2127.10093,0.19040
2129.02940,0.19032
2130.95787,0.18976
2132.88634,0.18900
2134.81481,0.19012
2136.74327,0.19204
2138.67174,0.19147
2140.60021,0.18855
2142.52868,0.18565
2144.45715,0.18491
2146.38562,0.18723
2148.31409,0.19083
2150.24255,0.19335
2152.17102,0.19390
2154.09949,0.19215
2156.02796,0.18907
2157.95643,0.18638
2159.88490,0.18533
2161.81337,0.18749
2163.74184,0.19068
2165.67030,0.18995
2167.59877,0.18750
2169.52724,0.18773
2171.45571,0.18829
2173.38418,0.18770
2175.31265,0.18786
2177.24112,0.18948
2179.16958,0.19269
2181.09805,0.19438
2183.02652,0.19109
2184.95499,0.18757
2186.88346,0.18897
2188.81193,0.19243
2190.74040,0.19383
2192.66887,0.19246
2194.59733,0.18981
2196.52580,0.18830
2198.45427,0.18912
2200.38274,0.19028
2202.31121,0.19064
2204.23968,0.19237
2206.16815,0.19426
2208.09661,0.19280
2210.02508,0.19004
2211.95355,0.18841
2213.88202,0.18734
2215.81049,0.18777
2217.73896,0.18967
2219.66743,0.19145
2221.59590,0.19165
2223.52436,0.19010
2225.45283,0.19035
2227.38130,0.19382
2229.30977,0.19626
2231.23824,0.19378
2233.16671,0.18901
2235.09518,0.18805
2237.02364,0.19078
2238.95211,0.19128
2240.88058,0.18792
2242.80905,0.18601
2244.73752,0.18875
2246.66599,0.19222
2248.59446,0.19182
2250.52293,0.18880
2252.45139,0.18767
2254.37986,0.18923
2256.30833,0.19130
2258.23680,0.19277
2260.16527,0.19263
2262.09374,0.19070
2264.02221,0.18914
2265.95067,0.18892
2267.87914,0.18886
2269.80761,0.18838
2271.73608,0.18866
2273.66455,0.19077
2275.59302,0.19296
2277.52149,0.19402
2279.44996,0.19515
2281.37842,0.19541
2283.30689,0.19311
2285.23536,0.19021
2287.16383,0.19005
2289.09230,0.19240
2291.02077,0.19455
2292.94924,0.19523
2294.87770,0.19502
2296.80617,0.19638
2298.73464,0.19908
2300.66311,0.19942
2302.59158,0.19862
2304.52005,0.20001
2306.44852,0.20338
2308.37699,0.20729
2310.30545,0.20886
2312.23392,0.20760
2314.16239,0.20688
2316.09086,0.20518
2318.01933,0.20103
2319.94780,0.20289
2321.87627,0.21114
2323.80473,0.21180
2325.73320,0.20742
2327.66167,0.21418
2329.59014,0.23076
2331.51861,0.23657
2333.44708,0.23036
2335.37555,0.23340
2337.30401,0.24793
2339.23248,0.25575
2341.16095,0.24574
2343.08942,0.22935
2345.01789,0.21973
2346.94636,0.21744
2348.87483,0.21850
2350.80330,0.21994
2352.73176,0.22179
2354.66023,0.22424
2356.58870,0.23317
2358.51717,0.25307
2360.44564,0.26010
2362.37411,0.24129
2364.30258,0.22188
2366.23104,0.22432
2368.15951,0.23447
2370.08798,0.23300
2372.01645,0.22626
2373.94492,0.21961
2375.87339,0.21232
2377.80186,0.20742
2379.73033,0.20494
2381.65879,0.20128
2383.58726,0.19545
2385.51573,0.19091
2387.44420,0.18878
2389.37267,0.18700
2391.30114,0.18678
2393.22961,0.18827
2395.15807,0.18891
2397.08654,0.18963
2399.01501,0.19148
2400.94348,0.19233
2402.87195,0.19168
2404.80042,0.19124
2406.72889,0.19218
2408.65736,0.19378
2410.58582,0.19376
2412.51429,0.19300
2414.44276,0.19423
2416.37123,0.19573
2418.29970,0.19528
2420.22817,0.19441
2422.15664,0.19349
2424.08510,0.19232
2426.01357,0.19289
2427.94204,0.19414
2429.87051,0.19427
2431.79898,0.19429
2433.72745,0.19337
2435.65592,0.19225
2437.58439,0.19265
2439.51285,0.19201
2441.44132,0.19022
2443.36979,0.18976
2445.29826,0.18947
2447.22673,0.19005
2449.15520,0.19266
2451.08367,0.19288
2453.01213,0.18889
2454.94060,0.18579
2456.86907,0.18777
2458.79754,0.19440
2460.72601,0.19989
2462.65448,0.19788
2464.58295,0.19309
2466.51142,0.19344
2468.43988,0.19554
2470.36835,0.19572
2472.29682,0.19684
2474.22529,0.19754
2476.15376,0.19617
2478.08223,0.19574
2480.01070,0.19495
2481.93916,0.19234
2483.86763,0.19174
2485.79610,0.19296
2487.72457,0.19257
2489.65304,0.19184
2491.58151,0.19324
2493.50998,0.19514
2495.43844,0.19501
2497.36691,0.19346
2499.29538,0.19219
2501.22385,0.19203
2503.15232,0.19275
2505.08079,0.19418
2507.00926,0.19662
2508.93773,0.19855
2510.86619,0.19833
2512.79466,0.19658
2514.72313,0.19630
2516.65160,0.19851
2518.58007,0.19973
2520.50854,0.19851
2522.43701,0.19628
2524.36547,0.19451
2526.29394,0.19334
2528.22241,0.19284
2530.15088,0.19463
2532.07935,0.19664
2534.00782,0.19557
2535.93629,0.19330
2537.86476,0.19197
2539.79322,0.19167
2541.72169,0.19309
2543.65016,0.19490
2545.57863,0.19575
2547.50710,0.19664
2549.43557,0.19726
2551.36404,0.19786
2553.29250,0.19974
2555.22097,0.20078
2557.14944,0.19898
2559.07791,0.19629
2561.00638,0.19453
2562.93485,0.19469
2564.86332,0.19669
2566.79179,0.19778
2568.72025,0.19767
2570.64872,0.19824
2572.57719,0.19898
2574.50566,0.19851
2576.43413,0.19739
2578.36260,0.19630
2580.29107,0.19610
2582.21953,0.19765
2584.14800,0.19870
2586.07647,0.19813
2588.00494,0.19802
2589.93341,0.19818
2591.86188,0.19562
2593.79035,0.19157
2595.71882,0.19140
2597.64728,0.19454
2599.57575,0.19709
2601.50422,0.19866
2603.43269,0.19837
2605.36116,0.19541
2607.28963,0.19376
2609.21810,0.19648
2611.14656,0.19907
2613.07503,0.19775
2615.00350,0.19608
2616.93197,0.19626
2618.86044,0.19595
2620.78891,0.19519
2622.71738,0.19604
2624.64585,0.19801
2626.57431,0.19864
2628.50278,0.19744
2630.43125,0.19700
2632.35972,0.19781
2634.28819,0.19815
2636.21666,0.19895
2638.14513,0.20023
2640.07359,0.19934
2642.00206,0.19712
2643.93053,0.19579
2645.85900,0.19521
2647.78747,0.19679
2649.71594,0.20012
2651.64441,0.20129
2653.57288,0.19932
2655.50134,0.19658
2657.42981,0.19538
2659.35828,0.19561
2661.28675,0.19633
2663.21522,0.19734
2665.14369,0.19739
2667.07216,0.19767
2669.00062,0.19910
2670.92909,0.19944
2672.85756,0.19980
2674.78603,0.20100
2676.71450,0.20180
2678.64297,0.20193
2680.57144,0.20127
2682.49990,0.20127
2684.42837,0.20171
2686.35684,0.20115
2688.28531,0.20152
2690.21378,0.20421
2692.14225,0.20602
2694.07072,0.20483
2695.99919,0.20291
2697.92765,0.20179
2699.85612,0.20158
2701.78459,0.20329
2703.71306,0.20629
2705.64153,0.20684
2707.57000,0.20406
2709.49847,0.20074
2711.42693,0.19763
2713.35540,0.19612
2715.28387,0.19875
2717.21234,0.20310
2719.14081,0.20464
2721.06928,0.20320
2722.99775,0.20098
2724.92622,0.20020
2726.85468,0.20179
2728.78315,0.20279
2730.71162,0.20196
2732.64009,0.20208
2734.56856,0.20221
2736.49703,0.20013
2738.42550,0.19854
2740.35396,0.20091
2742.28243,0.20710
2744.21090,0.21242
2746.13937,0.21159
2748.06784,0.20804
2749.99631,0.20782
2751.92478,0.20841
2753.85325,0.20732
2755.78171,0.20719
2757.71018,0.20803
2759.63865,0.20781
2761.56712,0.20670
2763.49559,0.20720
2765.42406,0.21016
2767.35253,0.21151
2769.28099,0.20792
2771.20946,0.20298
2773.13793,0.20177
2775.06640,0.20391
2776.99487,0.20600
2778.92334,0.20719
2780.85181,0.21004
2782.78028,0.21347
2784.70874,0.21334
2786.63721,0.21085
2788.56568,0.20980
2790.49415,0.21067
2792.42262,0.20994
2794.35109,0.20693
2796.27956,0.20742
2798.20802,0.21109
2800.13649,0.21218
2802.06496,0.21172
2803.99343,0.21121
2805.92190,0.20833
2807.85037,0.20532
2809.77884,0.20573
2811.70731,0.20604
2813.63577,0.20534
2815.56424,0.20898
2817.49271,0.21504
2819.42118,0.21735
2821.34965,0.21317
2823.27812,0.20605
2825.20659,0.20446
2827.13505,0.20785
2829.06352,0.21048
2830.99199,0.21217
2832.92046,0.21307
2834.84893,0.21355
2836.77740,0.21425
2838.70587,0.21445
2840.63433,0.21434
2842.56280,0.21463
2844.49127,0.21535
2846.41974,0.21553
2848.34821,0.21543
2850.27668,0.21575
2852.20515,0.21448
2854.13362,0.21149
2856.06208,0.20933
2857.99055,0.20896
2859.91902,0.20970
2861.84749,0.20921
2863.77596,0.20681
2865.70443,0.20644
2867.63290,0.20903
2869.56136,0.21094
2871.48983,0.21294
2873.41830,0.21532
2875.34677,0.21301
2877.27524,0.20787
2879.20371,0.20586
2881.13218,0.20517
2883.06065,0.20364
2884.98911,0.20361
2886.91758,0.20389
2888.84605,0.20296
2890.77452,0.20489
2892.70299,0.20925
2894.63146,0.20959
2896.55993,0.20727
2898.48839,0.20843
2900.41686,0.21150
2902.34533,0.21087
2904.27380,0.20726
2906.20227,0.20667
2908.13074,0.20941
2910.05921,0.21042
2911.98768,0.21000
2913.91614,0.20916
2915.84461,0.20579
2917.77308,0.20349
2919.70155,0.20556
2921.63002,0.20792
2923.55849,0.20597
2925.48696,0.20045
2927.41542,0.19907
2929.34389,0.20476
2931.27236,0.21027
2933.20083,0.21198
2935.12930,0.21059
2937.05777,0.20642
2938.98624,0.20487
2940.91471,0.20748
2942.84317,0.20831
2944.77164,0.20637
2946.70011,0.20409
2948.62858,0.20297
2950.55705,0.20439
2952.48552,0.20789
2954.41399,0.20814
2956.34245,0.20096
2958.27092,0.19624
2960.19939,0.20163
2962.12786,0.20804
2964.05633,0.20879
2965.98480,0.20589
2967.91327,0.20235
2969.84174,0.20278
2971.77020,0.20890
2973.69867,0.21502
2975.62714,0.21466
2977.55561,0.20971
2979.48408,0.20773
2981.41255,0.21041
2983.34102,0.21445
2985.26948,0.21712
2987.19795,0.21502
2989.12642,0.21074
2991.05489,0.21285
2992.98336,0.21943
2994.91183,0.22137
2996.84030,0.21870
2998.76877,0.21651
3000.69723,0.21655
3002.62570,0.21738
3004.55417,0.21716
3006.48264,0.21550
3008.41111,0.21298
3010.33958,0.20873
3012.26805,0.19854
3014.19651,0.17974
3016.12498,0.16233
3018.05345,0.16565
3019.98192,0.18818
3021.91039,0.20656
3023.83886,0.21296
3025.76733,0.21629
3027.69579,0.21981
3029.62426,0.22177
3031.55273,0.22255
3033.48120,0.22113
3035.40967,0.21829
3037.33814,0.21701
3039.26661,0.21692
3041.19508,0.21868
3043.12354,0.22113
3045.05201,0.21928
3046.98048,0.21535
3048.90895,0.21639
3050.83742,0.22011
3052.76589,0.21932
3054.69436,0.21377
3056.62282,0.20922
3058.55129,0.21174
3060.47976,0.21897
3062.40823,0.22337
3064.33670,0.22045
3066.26517,0.21291
3068.19364,0.21210
3070.12211,0.21776
3072.05057,0.21825
3073.97904,0.21461
3075.90751,0.21377
3077.83598,0.21485
3079.76445,0.21578
3081.69292,0.21553
3083.62139,0.20836
3085.54985,0.19886
3087.47832,0.20075
3089.40679,0.21039
3091.33526,0.21438
3093.26373,0.20886
3095.19220,0.20373
3097.12067,0.20695
3099.04914,0.21095
3100.97760,0.20766
3102.90607,0.20048
3104.83454,0.20201
3106.76301,0.21120
3108.69148,0.21363
3110.61995,0.20764
3112.54842,0.20235
3114.47688,0.20697
3116.40535,0.21784
3118.33382,0.22181
3120.26229,0.21806
3122.19076,0.21473
3124.11923,0.21454
3126.04770,0.21528
3127.97617,0.21649
3129.90463,0.21728
3131.83310,0.21681
3133.76157,0.21654
3135.69004,0.21752
3137.61851,0.21840
3139.54698,0.21690
3141.47545,0.21465
3143.40391,0.21489
3145.33238,0.21794
3147.26085,0.22076
3149.18932,0.22052
3151.11779,0.21958
3153.04626,0.22062
3154.97473,0.21978
3156.90320,0.21521
3158.83166,0.21365
3160.76013,0.21555
3162.68860,0.21525
3164.61707,0.21508
3166.54554,0.21900
3168.47401,0.22439
3170.40248,0.22610
3172.33094,0.22372
3174.25941,0.22089
3176.18788,0.21851
3178.11635,0.21753
3180.04482,0.22106
3181.97329,0.22738
3183.90176,0.23070
3185.83022,0.22923
3187.75869,0.22718
3189.68716,0.22827
3191.61563,0.22856
3193.54410,0.22574
3195.47257,0.22400
3197.40104,0.22349
3199.32951,0.22420
3201.25797,0.22630
3203.18644,0.22422
3205.11491,0.21836
3207.04338,0.21710
3208.97185,0.21995
3210.90032,0.21898
3212.82879,0.21567
3214.75725,0.21470
3216.68572,0.21567
3218.61419,0.21615
3220.54266,0.21407
3222.47113,0.21376
3224.39960,0.21687
3226.32807,0.21792
3228.25654,0.21686
3230.18500,0.21643
3232.11347,0.21646
3234.04194,0.21781
3235.97041,0.21838
3237.89888,0.21601
3239.82735,0.21624
3241.75582,0.21937
3243.68428,0.22123
3245.61275,0.22240
3247.54122,0.22030
3249.46969,0.21564
3251.39816,0.21401
3253.32663,0.21480
3255.25510,0.21644
3257.18357,0.21972
3259.11203,0.22052
3261.04050,0.21596
3262.96897,0.21010
3264.89744,0.20629
3266.82591,0.20960
3268.75438,0.22110
3270.68285,0.22919
3272.61131,0.22697
3274.53978,0.22057
3276.46825,0.21535
3278.39672,0.21223
3280.32519,0.21348
3282.25366,0.21755
3284.18213,0.21864
3286.11060,0.21519
3288.03906,0.21113
3289.96753,0.21242
3291.89600,0.21787
3293.82447,0.22079
3295.75294,0.21960
3297.68141,0.21644
3299.60988,0.21395
3301.53834,0.21283
3303.46681,0.21098
3305.39528,0.20880
3307.32375,0.21122
3309.25222,0.21682
3311.18069,0.21729
3313.10916,0.21468
3315.03763,0.21580
3316.96609,0.21964
3318.89456,0.22457
3320.82303,0.22757
3322.75150,0.22352
3324.67997,0.21578
3326.60844,0.21185
3328.53691,0.21489
3330.46537,0.21967
3332.39384,0.21844
3334.32231,0.21630
3336.25078,0.22001
3338.17925,0.22293
3340.10772,0.22083
3342.03619,0.21980
3343.96466,0.22001
3345.89312,0.21754
3347.82159,0.21665
3349.75006,0.21936
3351.67853,0.22082
3353.60700,0.21876
3355.53547,0.21666
3357.46394,0.21700
3359.39240,0.21823
3361.32087,0.21903
3363.24934,0.21710
3365.17781,0.21273
3367.10628,0.21195
3369.03475,0.21689
3370.96322,0.22267
3372.89168,0.22592
3374.82015,0.22646
3376.74862,0.22403
3378.67709,0.22036
3380.60556,0.21926
3382.53403,0.22122
3384.46250,0.22008
3386.39097,0.21218
3388.31943,0.20695
3390.24790,0.21334
3392.17637,0.22321
3394.10484,0.22542
3396.03331,0.22113
3397.96178,0.21772
3399.89025,0.21986
3401.81871,0.22214
3403.74718,0.22067
3405.67565,0.21910
3407.60412,0.21722
3409.53259,0.21378
3411.46106,0.21132
3413.38953,0.21275
3415.31800,0.21634
3417.24646,0.21913
3419.17493,0.21907
3421.10340,0.21293
3423.03187,0.20373
3424.96034,0.19811
3426.88881,0.19802
3428.81728,0.20153
3430.74574,0.20410
3432.67421,0.20393
3434.60268,0.20542
3436.53115,0.20928
3438.45962,0.21218
3440.38809,0.21536
3442.31656,0.21828
3444.24503,0.21819
3446.17349,0.21586
3448.10196,0.21230
3450.03043,0.20965
3451.95890,0.20762
3453.88737,0.20308
3455.81584,0.19976
3457.74431,0.20073
3459.67277,0.20252
3461.60124,0.20496
3463.52971,0.20674
3465.45818,0.20475
3467.38665,0.20072
3469.31512,0.19753
3471.24359,0.19778
3473.17206,0.20037
3475.10052,0.20017
3477.02899,0.19515
3478.95746,0.19004
3480.88593,0.19140
3482.81440,0.19572
3484.74287,0.19422
3486.67134,0.18912
3488.59980,0.18724
3490.52827,0.18879
3492.45674,0.18999
3494.38521,0.19255
3496.31368,0.19800
3498.24215,0.19878
3500.17062,0.19297
3502.09909,0.18798
3504.02755,0.18719
3505.95602,0.18782
3507.88449,0.18558
3509.81296,0.18045
3511.74143,0.17794
3513.66990,0.17869
3515.59837,0.17895
3517.52683,0.17902
3519.45530,0.17979
3521.38377,0.18026
3523.31224,0.17894
3525.24071,0.17831
3527.16918,0.18363
3529.09765,0.18905
3531.02611,0.18715
3532.95458,0.18099
3534.88305,0.17495
3536.81152,0.17089
3538.73999,0.16816
3540.66846,0.16813
3542.59693,0.17089
3544.52540,0.17167
3546.45386,0.16964
3548.38233,0.17032
3550.31080,0.17676
3552.23927,0.18336
3554.16774,0.18187
3556.09621,0.17440
3558.02468,0.16864
3559.95314,0.16632
3561.88161,0.16681
3563.81008,0.17479
3565.73855,0.18602
3567.66702,0.18043
3569.59549,0.16396
3571.52396,0.15872
3573.45243,0.16337
3575.38089,0.16852
3577.30936,0.16892
3579.23783,0.16601
3581.16630,0.16330
3583.09477,0.16165
3585.02324,0.16447
3586.95171,0.17311
3588.88017,0.17342
3590.80864,0.16647
3592.73711,0.16379
3594.66558,0.16129
3596.59405,0.15657
3598.52252,0.15552
3600.45099,0.15574
3602.37946,0.15392
3604.30792,0.15453
3606.23639,0.15858
3608.16486,0.16096
3610.09333,0.16084
3612.02180,0.16233
3613.95027,0.16411
3615.87874,0.16644
3617.80720,0.17094
3619.73567,0.17233
3621.66414,0.16752
3623.59261,0.16278
3625.52108,0.16253
3627.44955,0.16595
3629.37802,0.16502
3631.30649,0.15693
3633.23495,0.14874
3635.16342,0.14319
3637.09189,0.14125
3639.02036,0.14073
3640.94883,0.13981
3642.87730,0.13968
3644.80577,0.14308
3646.73423,0.15194
3648.66270,0.16248
3650.59117,0.15856
3652.51964,0.14842
3654.44811,0.14514
3656.37658,0.14494
3658.30505,0.14331
3660.23352,0.14041
3662.16198,0.13510
3664.09045,0.13237
3666.01892,0.13794
3667.94739,0.14782
3669.87586,0.15386
3671.80433,0.15443
3673.73280,0.15983
3675.66126,0.16782
3677.58973,0.16177
3679.51820,0.14848
3681.44667,0.13884
3683.37514,0.13672
3685.30361,0.14035
3687.23208,0.14697
3689.16055,0.15282
3691.08901,0.15226
3693.01748,0.15070
3694.94595,0.14985
3696.87442,0.14643
3698.80289,0.14248
3700.73136,0.13939
3702.65983,0.13522
3704.58829,0.13402
3706.51676,0.13778
3708.44523,0.14306
3710.37370,0.14570
3712.30217,0.13976
3714.23064,0.13336
3716.15911,0.13633
3718.08757,0.14526
3720.01604,0.15238
3721.94451,0.15034
3723.87298,0.14197
3725.80145,0.13656
3727.72992,0.13423
3729.65839,0.13544
3731.58686,0.14413
3733.51532,0.15735
3735.44379,0.15774
3737.37226,0.14322
3739.30073,0.13667
3741.22920,0.14090
3743.15767,0.14946
3745.08614,0.15417
3747.01460,0.15257
3748.94307,0.15391
3750.87154,0.15513
3752.80001,0.14758
3754.72848,0.14025
3756.65695,0.13829
3758.58542,0.13823
3760.51389,0.13274
3762.44235,0.12604
3764.37082,0.12607
3766.29929,0.12952
3768.22776,0.12982
3770.15623,0.12685
3772.08470,0.12144
3774.01317,0.11654
3775.94163,0.11861
3777.87010,0.12878
3779.79857,0.13505
3781.72704,0.13196
3783.65551,0.12957
3785.58398,0.12950
3787.51245,0.12777
3789.44092,0.12541
3791.36938,0.12453
3793.29785,0.12541
3795.22632,0.12979
3797.15479,0.13694
3799.08326,0.14455
3801.01173,0.15034
3802.94020,0.14357
3804.86866,0.13517
3806.79713,0.13545
3808.72560,0.13456
3810.65407,0.12735
3812.58254,0.12186
3814.51101,0.12614
3816.43948,0.13675
3818.36795,0.14011
3820.29641,0.13560
3822.22488,0.12822
3824.15335,0.12739
3826.08182,0.12955
3828.01029,0.12745
3829.93876,0.11982
3831.86723,0.11189
3833.79569,0.11327
3835.72416,0.12449
3837.65263,0.13877
3839.58110,0.14260
3841.50957,0.13163
3843.43804,0.12212
3845.36651,0.12082
3847.29498,0.12154
3849.22344,0.12331
3851.15191,0.13021
3853.08038,0.13906
3855.00885,0.13546
3856.93732,0.12906
3858.86579,0.12784
3860.79426,0.13171
3862.72272,0.13822
3864.65119,0.13925
3866.57966,0.13440
3868.50813,0.13251
3870.43660,0.13117
3872.36507,0.12517
3874.29354,0.11835
3876.22200,0.11379
3878.15047,0.11476
3880.07894,0.11883
3882.00741,0.11630
3883.93588,0.11036
3885.86435,0.10818
3887.79282,0.11023
3889.72129,0.11626
3891.64975,0.12162
3893.57822,0.11855
3895.50669,0.11248
3897.43516,0.11249
3899.36363,0.12015
3901.29210,0.12597
3903.22057,0.12781
3905.14903,0.12687
3907.07750,0.12014
3909.00597,0.11471
3910.93444,0.11419
3912.86291,0.11613
3914.79138,0.11713
3916.71985,0.11343
3918.64832,0.10908
3920.57678,0.11098
3922.50525,0.11509
3924.43372,0.11320
3926.36219,0.10779
3928.29066,0.11070
3930.21913,0.11965
3932.14760,0.12265
3934.07606,0.11760
3936.00453,0.11037
3937.93300,0.10489
3939.86147,0.10457
3941.78994,0.10886
3943.71841,0.11027
3945.64688,0.10916
3947.57535,0.11130
3949.50381,0.11426
3951.43228,0.11497
3953.36075,0.11355
3955.28922,0.11090
3957.21769,0.10774
3959.14616,0.10617
3961.07463,0.10833
3963.00309,0.11081
3964.93156,0.10973
3966.86003,0.10774
3968.78850,0.10804
3970.71697,0.10837
3972.64544,0.10807
3974.57391,0.10831
3976.50238,0.10665
3978.43084,0.10355
3980.35931,0.10219
3982.28778,0.10200
3984.21625,0.10040
3986.14472,0.09701
3988.07319,0.09440
3990.00166,0.09442
3991.93012,0.09619
3993.85859,0.10084
3995.78706,0.10521
3997.71553,0.10203
3999.64400,0.09578
4001.57247,0.09432
4003.50094,0.09569
4005.42941,0.09429
4007.35787,0.09061
4009.28634,0.08877
4011.21481,0.08904
4013.14328,0.08951
4015.07175,0.08897
4017.00022,0.08836
4018.92869,0.08865
4020.85715,0.08982
4022.78562,0.09317
4024.71409,0.09707
4026.64256,0.09721
4028.57103,0.09486
4030.49950,0.09312
4032.42797,0.09030
4034.35644,0.09042
4036.28490,0.09819
4038.21337,0.10460
4040.14184,0.10127
4042.07031,0.09322
4043.99878,0.08973
4045.92725,0.09181
4047.85572,0.09168
4049.78418,0.08823
4051.71265,0.08644
4053.64112,0.08515
4055.56959,0.08541
4057.49806,0.09006
4059.42653,0.09380
4061.35500,0.09271
4063.28346,0.08839
4065.21193,0.08326
4067.14040,0.08131
4069.06887,0.08370
4070.99734,0.08655
4072.92581,0.08738
4074.85428,0.08797
4076.78275,0.09035
4078.71121,0.09222
4080.63968,0.09132
4082.56815,0.08959
4084.49662,0.08819
4086.42509,0.08860
4088.35356,0.08961
4090.28203,0.08716
4092.21049,0.08473
4094.13896,0.08833
4096.06743,0.09389
4097.99590,0.09101
4099.92437,0.08157
4101.85284,0.07814
4103.78131,0.08278
4105.70978,0.08471
4107.63824,0.08082
4109.56671,0.07993
4111.49518,0.08212
4113.42365,0.08154
4115.35212,0.08041
4117.28059,0.08344
4119.20906,0.09041
4121.13752,0.09329
4123.06599,0.08601
4124.99446,0.07513
4126.92293,0.06945
4128.85140,0.07048
4130.77987,0.07299
4132.70834,0.07262
4134.63681,0.07243
4136.56527,0.07097
4138.49374,0.06435
4140.42221,0.05946
4142.35068,0.06268
4144.27915,0.06955
4146.20762,0.07111
4148.13609,0.06760
4150.06455,0.06669
4151.99302,0.06745
4153.92149,0.06558
4155.84996,0.06403
4157.77843,0.06457
4159.70690,0.06393
4161.63537,0.06444
4163.56384,0.06847
4165.49230,0.07053
4167.42077,0.06885
4169.34924,0.06773
4171.27771,0.06805
4173.20618,0.06773
4175.13465,0.06422
4177.06312,0.05719
4178.99158,0.05392
4180.92005,0.05619
4182.84852,0.05674
4184.77699,0.05568
4186.70546,0.05595
4188.63393,0.05690
4190.56240,0.06175
4192.49087,0.07011
4194.41933,0.07255
4196.34780,0.06861
4198.27627,0.06736
4200.20474,0.06834
4202.13321,0.06646
4204.06168,0.06417
4205.99015,0.06298
4207.91861,0.06065
4209.84708,0.05677
4211.77555,0.05203
4213.70402,0.05091
4215.63249,0.05422
4217.56096,0.05621
4219.48943,0.05679
4221.41789,0.05642
4223.34636,0.05396
4225.27483,0.05343
4227.20330,0.05744
4229.13177,0.06032
4231.06024,0.05796
4232.98871,0.05864
4234.91718,0.06389
4236.84564,0.06102
4238.77411,0.05267
4240.70258,0.05233
4242.63105,0.05608
4244.55952,0.05460
4246.48799,0.05133
4248.41646,0.05069
4250.34492,0.05064
4252.27339,0.04987
4254.20186,0.04779
4256.13033,0.04535
4258.05880,0.04514
4259.98727,0.04561
4261.91574,0.04597
4263.84421,0.04934
4265.77267,0.05423
4267.70114,0.05644
4269.62961,0.05620
4271.55808,0.05347
4273.48655,0.04936
4275.41502,0.04655
4277.34349,0.04405
4279.27195,0.04448
4281.20042,0.04830
4283.12889,0.05058
4285.05736,0.05347
4286.98583,0.05598
4288.91430,0.05141
4290.84277,0.04234
4292.77124,0.03500
4294.69970,0.03051
4296.62817,0.02813
4298.55664,0.02709
4300.48511,0.02835
4302.41358,0.03418
4304.34205,0.04264
4306.27052,0.04786
4308.19898,0.04654
4310.12745,0.04266
4312.05592,0.04144
4313.98439,0.04123
4315.91286,0.04013
4317.84133,0.04010
4319.76980,0.04031
4321.69827,0.03967
4323.62673,0.03935
4325.55520,0.03803
4327.48367,0.03469
4329.41214,0.03221
4331.34061,0.03107
4333.26908,0.02648
4335.19755,0.01955
4337.12601,0.01815
4339.05448,0.02181
4340.98295,0.02356
4342.91142,0.02188
4344.83989,0.01982
4346.76836,0.02064
4348.69683,0.02672
4350.62530,0.03548
4352.55376,0.03906
4354.48223,0.03556
4356.41070,0.03202
4358.33917,0.03280
4360.26764,0.03406
4362.19611,0.03154
4364.12458,0.02916
4366.05304,0.03051
4367.98151,0.03037
4369.90998,0.02500
4371.83845,0.01789
4373.76692,0.01558
4375.69539,0.01816
4377.62386,0.01950
4379.55232,0.02126
4381.48079,0.02328
4383.40926,0.01729
4385.33773,0.00909
4387.26620,0.01055
4389.19467,0.01786
4391.12314,0.02323
4393.05161,0.02635
4394.98007,0.02659
4396.90854,0.02169
4398.83701,0.01691
4400.76548,0.01892
4402.69395,0.02122
4404.62242,0.01923
4406.55089,0.02090
4408.47935,0.02180
4410.40782,0.01463
4412.33629,0.01123
4414.26476,0.01654
4416.19323,0.01900
4418.12170,0.01457
4420.05017,0.01063
4421.97864,0.00928
4423.90710,0.00634
4425.83557,0.00308
4427.76404,0.00260
4429.69251,0.00382
4431.62098,0.00539
4433.54945,0.00799
4435.47792,0.00979
4437.40638,0.00978
4439.33485,0.00931
4441.26332,0.00555
4443.19179,-0.00187
4445.12026,-0.00898
4447.04873,-0.00786
4448.97720,0.00419
4450.90567,0.01473
4452.83413,0.01728
4454.76260,0.01531
4456.69107,0.01265
4458.61954,0.01507
4460.54801,0.01982
4462.47648,0.02074
4464.40495,0.01739
4466.33341,0.01103
4468.26188,0.00587
4470.19035,0.00147
4472.11882,-0.00363
4474.04729,-0.00301
4475.97576,0.00301
4477.90423,0.00723
4479.83270,0.00721
4481.76116,0.00355
4483.68963,-0.00115
4485.61810,-0.00330
4487.54657,-0.00147
4489.47504,0.00450
4491.40351,0.01373
4493.33198,0.02276
4495.26044,0.02572
4497.18891,0.01921
4499.11738,0.01014
4501.04585,0.00834
4502.97432,0.01213
4504.90279,0.01257
4506.83126,0.00577
4508.75973,-0.00011
4510.68819,0.00310
4512.61666,0.00980
4514.54513,0.01229
4516.47360,0.01034
4518.40207,0.00614
4520.33054,0.00015
4522.25901,-0.00658
4524.18747,-0.00977
4526.11594,-0.00860
4528.04441,-0.00475
4529.97288,0.00014
4531.90135,0.00427
4533.82982,0.00627
4535.75829,0.00410
4537.68676,0.00477
4539.61522,0.01171
4541.54369,0.01363
4543.47216,0.00853
4545.40063,0.00540
4547.32910,0.00588
4549.25757,0.00591
4551.18604,0.00541
4553.11450,0.00673
4555.04297,0.01111
4556.97144,0.01499
4558.89991,0.01146
4560.82838,0.00248
4562.75685,-0.00090
4564.68532,0.00440
4566.61378,0.00796
4568.54225,0.00808
4570.47072,0.00933
4572.39919,0.00518
4574.32766,-0.00290
4576.25613,-0.00261
4578.18460,0.00350
4580.11307,0.00661
4582.04153,0.00981
4583.97000,0.01146
4585.89847,0.00424
4587.82694,-0.00509
4589.75541,-0.00643
4591.68388,-0.00337
4593.61235,-0.00212
4595.54081,0.00041
4597.46928,0.00742
4599.39775,0.01572
4601.32622,0.01685
4603.25469,0.00432
4605.18316,-0.01014
4607.11163,-0.01066
4609.04010,-0.00483
4610.96856,-0.00472
4612.89703,-0.00713
4614.82550,-0.00749
4616.75397,-0.00546
4618.68244,0.00030
4620.61091,0.00910
4622.53938,0.01770
4624.46784,0.02015
4626.39631,0.01242
4628.32478,0.00352
4630.25325,0.00077
4632.18172,0.00056
4634.11019,0.00096
4636.03866,-0.00157
4637.96713,-0.00681
4639.89559,-0.00601
4641.82406,0.00231
4643.75253,0.01008
4645.68100,0.01175
4647.60947,0.00864
4649.53794,0.00384
4651.46641,-0.00083
4653.39487,0.00025
4655.32334,0.00992
4657.25181,0.01657
4659.18028,0.01200
4661.10875,0.00564
4663.03722,0.00678
4664.96569,0.01045
4666.89416,0.00792
4668.82262,0.00242
4670.75109,0.00037
4672.67956,-0.00101
4674.60803,-0.00277
4676.53650,-0.00019
4678.46497,0.00464
4680.39344,0.00759
4682.32190,0.00684
4684.25037,-0.00168
4686.17884,-0.00686
4688.10731,-0.00108
4690.03578,0.00298
4691.96425,-0.00124
4693.89272,-0.00564
4695.82119,-0.00293
4697.74965,0.00179
4699.67812,-0.00200
4701.60659,-0.00732
4703.53506,0.00184
4705.46353,0.01647
4707.39200,0.01779
4709.32047,0.00990
4711.24893,0.00455
4713.17740,0.00768
4715.10587,0.01105
4717.03434,0.00516
4718.96281,0.00093
4720.89128,0.00316
4722.81975,0.00328
4724.74821,0.00125
4726.67668,0.00074
4728.60515,0.00252
4730.53362,0.01017
4732.46209,0.02000
4734.39056,0.01925
4736.31903,0.00863
4738.24750,-0.00171
4740.17596,-0.00664
4742.10443,-0.00568
4744.03290,-0.00529
4745.96137,-0.00977
4747.88984,-0.00988
4749.81831,0.00013
4751.74678,0.01162
4753.67524,0.02149
4755.60371,0.02927
4757.53218,0.02673
4759.46065,0.01449
4761.38912,0.00420
4763.31759,-0.00161
4765.24606,-0.01003
4767.17453,-0.01735
4769.10299,-0.01422
4771.03146,-0.00527
4772.95993,0.00062
4774.88840,0.00493
4776.81687,0.00778
4778.74534,0.00776
4780.67381,0.00769
4782.60227,0.00714
4784.53074,0.00558
4786.45921,0.00127
4788.38768,0.00293
4790.31615,0.01918
4792.24462,0.03424
4794.17309,0.03668
4796.10156,0.02495
4798.03002,0.00593
4799.95849,-0.00024
4801.88696,0.00322
4803.81543,-0.00316
4805.74390,-0.01143
4807.67237,-0.00844
4809.60084,-0.00230
4811.52930,0.00470
4813.45777,0.01170
4815.38624,0.00860
4817.31471,0.00462
4819.24318,0.01153
4821.17165,0.01592
4823.10012,0.01153
4825.02859,0.00603
4826.95705,0.00473
4828.88552,0.00932
4830.81399,0.01163
4832.74246,0.01029
4834.67093,0.00982
4836.59940,0.00614
4838.52787,0.00066
4840.45633,0.00116
4842.38480,0.00580
4844.31327,0.00624
4846.24174,0.00464
4848.17021,0.00418
4850.09868,-0.00247
4852.02715,-0.01327
4853.95562,-0.01264
4855.88408,-0.00342
4857.81255,-0.00400
4859.74102,-0.00930
4861.66949,-0.00269
4863.59796,0.00798
4865.52643,0.00997
4867.45490,0.01069
4869.38336,0.01515
4871.31183,0.01859
4873.24030,0.01791
4875.16877,0.01047
4877.09724,0.00145
4879.02571,-0.00154
4880.95418,0.00298
4882.88265,0.00899
4884.81111,0.01089
4886.73958,0.00983
4888.66805,0.00549
4890.59652,0.00202
4892.52499,0.00695
4894.45346,0.01631
4896.38193,0.02062
4898.31039,0.01401
4900.23886,0.00083
4902.16733,-0.00313
4904.09580,0.00324
4906.02427,0.00269
4907.95274,-0.00922
4909.88121,-0.01660
4911.80967,-0.00633
4913.73814,0.00816
4915.66661,0.01173
4917.59508,0.01105
4919.52355,0.01220
4921.45202,0.01132
4923.38049,0.00715
4925.30896,0.00400
4927.23742,0.00525
4929.16589,0.00965
4931.09436,0.00864
4933.02283,-0.00010
4934.95130,-0.00727
4936.87977,-0.00952
4938.80824,-0.00695
4940.73670,0.00167
4942.66517,0.01267
4944.59364,0.01651
4946.52211,0.00858
4948.45058,0.00161
4950.37905,0.00517
4952.30752,0.00550
4954.23599,-0.00033
4956.16445,0.00633
4958.09292,0.01969
4960.02139,0.01847
4961.94986,0.00843
4963.87833,0.00699
4965.80680,0.01362
4967.73527,0.01793
4969.66373,0.01306
4971.59220,0.00906
4973.52067,0.01622
4975.44914,0.01822
4977.37761,0.00848
4979.30608,0.00112
4981.23455,-0.00210
4983.16302,-0.00263
4985.09148,0.00253
4987.01995,0.00916
4988.94842,0.01312
4990.87689,0.01245
4992.80536,0.00572
4994.73383,-0.00048
4996.66230,-0.00102
4998.59076,0.00541
5000.51923,0.01473
5002.44770,0.01420
5004.37617,0.00412
5006.30464,-0.00288
5008.23311,0.00156
5010.16158,0.01411
5012.09005,0.01689
5014.01851,0.00771
5015.94698,0.00293
5017.87545,-0.00174
5019.80392,-0.01273
5021.73239,-0.01203
5023.66086,-0.00176
5025.58933,-0.00002
5027.51779,0.00335
5029.44626,0.01571
5031.37473,0.02283
5033.30320,0.01854
5035.23167,0.01034
5037.16014,0.00388
5039.08861,-0.00324
5041.01708,-0.01156
5042.94554,-0.01453
5044.87401,-0.01037
5046.80248,-0.00832
5048.73095,-0.01202
5050.65942,-0.01101
5052.58789,-0.00228
5054.51636,0.00744
5056.44482,0.01808
5058.37329,0.02230
5060.30176,0.01242
5062.23023,0.00066
5064.15870,-0.00596
5066.08717,-0.00638
5068.01564,-0.00202
5069.94410,-0.00386
5071.87257,-0.00303
5073.80104,0.01579
5075.72951,0.03003
5077.65798,0.02098
5079.58645,0.01427
5081.51492,0.01264
5083.44339,0.00519
5085.37185,0.00767
5087.30032,0.00852
5089.22879,-0.00381
5091.15726,-0.00561
5093.08573,0.00549
5095.01420,0.00920
5096.94267,-0.00419
5098.87113,-0.01809
5100.79960,-0.01194
5102.72807,-0.00021
5104.65654,0.00713
5106.58501,0.01973
5108.51348,0.02720
5110.44195,0.02205
5112.37042,0.01030
5114.29888,0.00075
5116.22735,-0.00338
5118.15582,-0.01184
5120.08429,-0.01975
5122.01276,-0.01505
5123.94123,-0.00166
5125.86970,0.00321
5127.79816,-0.00521
5129.72663,-0.00449
5131.65510,0.01091
5133.58357,0.02485
5135.51204,0.03475
5137.44051,0.04431
5139.36898,0.04483
5141.29745,0.03124
5143.22591,0.01469
5145.15438,0.00438
5147.08285,-0.00188
5149.01132,-0.00088
5150.93979,0.00893
5152.86826,0.01750
5154.79673,0.02880
5156.72519,0.04078
5158.65366,0.03805
5160.58213,0.02799
5162.51060,0.01993
5164.43907,0.01539
5166.36754,0.01856
5168.29601,0.02682
5170.22448,0.02613
5172.15294,0.01191
5174.08141,0.00096
5176.00988,-0.00086
5177.93835,-0.00211
5179.86682,-0.00000
5181.79529,0.01185
5183.72376,0.02252
5185.65222,0.02170
5187.58069,0.01420
5189.50916,0.00804
5191.43763,0.00485
5193.36610,-0.00305
5195.29457,-0.01517
5197.22304,-0.01940
5199.15151,-0.01001
5201.07997,-0.00085
5203.00844,0.00141
5204.93691,0.01669
5206.86538,0.04070
5208.79385,0.03959
5210.72232,0.02309
5212.65079,0.01694
5214.57925,0.01130
5216.50772,-0.00963
5218.43619,-0.02816
5220.36466,-0.03010
5222.29313,-0.01915
5224.22160,0.00615
5226.15007,0.02991
5228.07854,0.03651
5230.00700,0.03205
5231.93547,0.01903
5233.86394,0.01106
5235.79241,0.02007
5237.72088,0.03135
5239.64935,0.03132
5241.57782,0.02583
5243.50628,0.02292
5245.43475,0.02238
5247.36322,0.01780
5249.29169,0.00877
5251.22016,0.00851
5253.14863,0.02413
5255.07710,0.04496
5257.00556,0.05336
5258.93403,0.05183
5260.86250,0.04886
5262.79097,0.03788
5264.71944,0.02387
5266.64791,0.02245
5268.57638,0.03680
5270.50485,0.05765
5272.43331,0.06616
5274.36178,0.05797
5276.29025,0.04576
5278.21872,0.04186
5280.14719,0.03618
5282.07566,0.02087
5284.00413,0.01597
5285.93259,0.01850
5287.86106,0.01390
5289.78953,0.02028
5291.71800,0.04657
5293.64647,0.07086
5295.57494,0.07376
5297.50341,0.05661
5299.43188,0.03993
5301.36034,0.03159
5303.28881,0.03007
5305.21728,0.04168
5307.14575,0.05404
5309.07422,0.05087
5311.00269,0.04193
5312.93116,0.03728
5314.85962,0.03847
5316.78809,0.04517
5318.71656,0.05262
5320.64503,0.05440
5322.57350,0.04764
5324.50197,0.03675
5326.43044,0.02415
5328.35891,0.01518
5330.28737,0.01870
5332.21584,0.02322
5334.14431,0.01804
5336.07278,0.01359
5338.00125,0.01807
5339.92972,0.02610
5341.85819,0.02743
5343.78665,0.02126
5345.71512,0.02015
5347.64359,0.02769
5349.57206,0.03064
5351.50053,0.02214
5353.42900,0.00763
5355.35747,0.00868
5357.28594,0.02911
5359.21440,0.04739
5361.14287,0.05984
5363.07134,0.06710
5364.99981,0.05543
5366.92828,0.03774
5368.85675,0.04122
5370.78522,0.05652
5372.71368,0.06315
5374.64215,0.06105
5376.57062,0.04066
5378.49909,0.00955
5380.42756,0.00708
5382.35603,0.03618
5384.28450,0.07115
5386.21297,0.08987
5388.14143,0.08741
5390.06990,0.06826
5391.99837,0.03986
5393.92684,0.02401
5395.85531,0.02816
5397.78378,0.03117
5399.71225,0.03309
5401.64071,0.03817
5403.56918,0.03601
5405.49765,0.02641
5407.42612,0.02482
5409.35459,0.03965
5411.28306,0.03950
5413.21153,0.01613
5415.13999,0.02037
5417.06846,0.03764
5418.99693,0.03771
5420.92540,0.03982
5422.85387,0.05451
5424.78234,0.07079
5426.71081,0.08274
5428.63928,0.09141
5430.56774,0.09678
5432.49621,0.09772
5434.42468,0.08605
5436.35315,0.05961
5438.28162,0.04508
5440.21009,0.05435
5442.13856,0.06755
5444.06702,0.06839
5445.99549,0.06367
5447.92396,0.06446
5449.85243,0.07121
5451.78090,0.07884
5453.70937,0.08412
5455.63784,0.07863
5457.56631,0.06140
5459.49477,0.05658
5461.42324,0.07125
5463.35171,0.07608
5465.28018,0.05512
5467.20865,0.02910
5469.13712,0.02111
5471.06559,0.03552
5472.99405,0.05852
5474.92252,0.06083
5476.85099,0.03671
5478.77946,0.02475
5480.70793,0.04469
5482.63640,0.07590
5484.56487,0.08500
5486.49334,0.07631
5488.42180,0.06902
5490.35027,0.06585
5492.27874,0.06716
5494.20721,0.06547
5496.13568,0.06381
5498.06415,0.07250
5499.99262,0.07990
5501.92108,0.07430
5503.84955,0.07135
5505.77802,0.07047
5507.70649,0.05112
5509.63496,0.03193
5511.56343,0.03135
5513.49190,0.03490
5515.42037,0.04068
5517.34883,0.05487
5519.27730,0.06194
5521.20577,0.05559
5523.13424,0.06045
5525.06271,0.07621
5526.99118,0.07890
5528.91965,0.06964
5530.84811,0.05492
5532.77658,0.04434
5534.70505,0.04530
5536.63352,0.05647
5538.56199,0.07998
5540.49046,0.10687
5542.41893,0.12137
5544.34740,0.11739
5546.27586,0.09829
5548.20433,0.06470
5550.13280,0.02986
5552.06127,0.02593
5553.98974,0.04486
5555.91821,0.04673
5557.84668,0.02900
5559.77514,0.01607
5561.70361,0.02199
5563.63208,0.03832
5565.56055,0.05368
5567.48902,0.06456
5569.41749,0.05767
5571.34596,0.04122
5573.27443,0.03858
5575.20289,0.05117
5577.13136,0.06753
5579.05983,0.07540
5580.98830,0.07773
5582.91677,0.07540
5584.84524,0.06021
5586.77371,0.05425
5588.70217,0.07494
5590.63064,0.09630
5592.55911,0.08786
5594.48758,0.06836
5596.41605,0.07061
5598.34452,0.07551
5600.27299,0.05835
5602.20145,0.03851
5604.12992,0.04245
5606.05839,0.06328
5607.98686,0.08303
5609.91533,0.09839
5611.84380,0.09224
5613.77227,0.07292
5615.70074,0.08574
5617.62920,0.11880
5619.55767,0.12517
5621.48614,0.10172
5623.41461,0.07473
5625.34308,0.06016
5627.27155,0.06105
5629.20002,0.07320
5631.12848,0.07462
5633.05695,0.05125
5634.98542,0.03901
5636.91389,0.05910
5638.84236,0.07068
5640.77083,0.07095
5642.69930,0.07854
5644.62777,0.07139
5646.55623,0.05642
5648.48470,0.05582
5650.41317,0.05442
5652.34164,0.05009
5654.27011,0.05411
5656.19858,0.06658
5658.12705,0.08123
5660.05551,0.09552
5661.98398,0.10331
5663.91245,0.08562
5665.84092,0.05267
5667.76939,0.05297
5669.69786,0.09661
5671.62633,0.12365
5673.55480,0.10762
5675.48326,0.08633
5677.41173,0.07694
5679.34020,0.06789
5681.26867,0.03843
5683.19714,-0.00535
5685.12561,-0.02501
5687.05408,-0.00852
5688.98254,0.03632
5690.91101,0.07908
5692.83948,0.07639
5694.76795,0.04062
5696.69642,0.02065
5698.62489,0.03191
5700.55336,0.05335
5702.48183,0.06851
5704.41029,0.07668
5706.33876,0.07329
5708.26723,0.05971
5710.19570,0.04547
5712.12417,0.03070
5714.05264,0.02433
5715.98111,0.03444
5717.90957,0.05415
5719.83804,0.06755
5721.76651,0.05595
5723.69498,0.04198
5725.62345,0.05538
5727.55192,0.07055
5729.48039,0.05941
5731.40886,0.04318
5733.33732,0.03816
5735.26579,0.03522
5737.19426,0.03219
5739.12273,0.02884
5741.05120,0.03354
5742.97967,0.05313
5744.90814,0.06085
5746.83660,0.04518
5748.76507,0.02616
5750.69354,0.01764
5752.62201,0.02123
5754.55048,0.04135
5756.47895,0.07367
5758.40742,0.08202
5760.33588,0.04972
5762.26435,0.02867
5764.19282,0.06189
5766.12129,0.08334
5768.04976,0.04424
5769.97823,0.01267
5771.90670,0.02494
5773.83517,0.04074
5775.76363,0.04306
5777.69210,0.04760
5779.62057,0.06247
5781.54904,0.07691
5783.47751,0.08560
5785.40598,0.09209
5787.33445,0.09285
5789.26291,0.08424
5791.19138,0.07376
5793.11985,0.06651
5795.04832,0.06250
5796.97679,0.06944
5798.90526,0.08054
5800.83373,0.08642
5802.76220,0.09490
5804.69066,0.09487
5806.61913,0.07410
5808.54760,0.06121
5810.47607,0.07021
5812.40454,0.07250
5814.33301,0.04844
5816.26148,0.01433
5818.18994,0.00811
5820.11841,0.04519
5822.04688,0.07591
5823.97535,0.06383
5825.90382,0.04633
5827.83229,0.05031
5829.76076,0.05419
5831.68923,0.04452
5833.61769,0.04194
5835.54616,0.05243
5837.47463,0.05266
5839.40310,0.04202
5841.33157,0.04758
5843.26004,0.07049
5845.18851,0.07363
5847.11697,0.03661
5849.04544,-0.00029
5850.97391,0.02313
5852.90238,0.07836
5854.83085,0.10330
5856.75932,0.09848
5858.68779,0.10146
5860.61626,0.10479
5862.54472,0.07382
5864.47319,0.04367
5866.40166,0.05014
5868.33013,0.06160
5870.25860,0.05794
5872.18707,0.04822
5874.11554,0.06385
5876.04400,0.10537
5877.97247,0.12443
5879.90094,0.11409
5881.82941,0.08959
5883.75788,0.06061
5885.68635,0.04881
5887.61482,0.06558
5889.54329,0.08745
5891.47175,0.08617
5893.40022,0.07348
5895.32869,0.05333
5897.25716,0.02372
5899.18563,0.01667
5901.11410,0.03361
5903.04257,0.03403
5904.97103,0.02521
5906.89950,0.05307
5908.82797,0.10367
5910.75644,0.12306
5912.68491,0.10542
5914.61338,0.08202
5916.54185,0.07747
5918.47032,0.09835
5920.39878,0.13832
5922.32725,0.15904
5924.25572,0.13639
5926.18419,0.09972
5928.11266,0.07356
5930.04113,0.06361
5931.96960,0.06243
5933.89806,0.05256
5935.82653,0.04678
5937.75500,0.06160
5939.68347,0.08128
5941.61194,0.09583
5943.54041,0.09198
5945.46888,0.06523
5947.39734,0.06422
5949.32581,0.11464
5951.25428,0.16648
5953.18275,0.17294
5955.11122,0.13508
5957.03969,0.09508
5958.96816,0.09171
5960.89663,0.08891
5962.82509,0.06192
5964.75356,0.05555
5966.68203,0.06643
5968.61050,0.05192
5970.53897,0.02541
5972.46744,0.02717
5974.39591,0.05498
5976.32437,0.07311
5978.25284,0.07327
5980.18131,0.08149
5982.10978,0.09157
5984.03825,0.06453
5985.96672,0.01092
5987.89519,-0.02474
5989.82366,-0.01751
5991.75212,0.03034
5993.68059,0.08167
5995.60906,0.10452
5997.53753,0.10064
5999.46600,0.09167
6001.39447,0.08680
6003.32294,0.07479
6005.25140,0.06100
6007.17987,0.06152
6009.10834,0.06639
6011.03681,0.05883
6012.96528,0.03731
6014.89375,0.02419
6016.82222,0.03920
6018.75069,0.06247
6020.67915,0.07919
6022.60762,0.08635
6024.53609,0.06745
6026.46456,0.04585
6028.39303,0.04603
6030.32150,0.06502
6032.24997,0.10940
6034.17843,0.14491
6036.10690,0.13783
6038.03537,0.12077
6039.96384,0.11356
6041.89231,0.11147
6043.82078,0.10024
6045.74925,0.08419
6047.67772,0.08595
6049.60618,0.08535
6051.53465,0.06974
6053.46312,0.06070
6055.39159,0.06019
6057.32006,0.05493
6059.24853,0.05033
6061.17700,0.06695
6063.10546,0.06593
6065.03393,0.01243
6066.96240,-0.01979
6068.89087,0.00456
6070.81934,0.02699
6072.74781,0.02399
6074.67628,0.03406
6076.60475,0.06402
6078.53321,0.07534
6080.46168,0.06677
6082.39015,0.07323
6084.31862,0.09290
6086.24709,0.10146
6088.17556,0.10099
6090.10403,0.10031
6092.03249,0.08603
6093.96096,0.04509
6095.88943,0.00717
6097.81790,0.02259
6099.74637,0.07896
6101.67484,0.09232
6103.60331,0.03622
6105.53177,-0.01281
6107.46024,-0.01164
6109.38871,0.00758
6111.31718,0.01891
6113.24565,0.02258
6115.17412,0.01974
6117.10259,0.02097
6119.03106,0.04054
6120.95952,0.05426
6122.88799,0.06745
6124.81646,0.09024
6126.74493,0.06157
6128.67340,0.00826
6130.60187,0.01796
6132.53034,0.05263
6134.45880,0.05660
6136.38727,0.04716
6138.31574,0.06945
6140.24421,0.10891
6142.17268,0.11107
6144.10115,0.09014
6146.02962,0.07399
6147.95809,0.05350
6149.88655,0.04403
6151.81502,0.06089
6153.74349,0.07061
6155.67196,0.06223
6157.60043,0.06871
6159.52890,0.09103
6161.45737,0.08259
6163.38583,0.02482
6165.31430,-0.01437
6167.24277,0.00676
6169.17124,0.02783
6171.09971,0.00300
6173.02818,-0.02548
6174.95665,-0.00441
6176.88512,0.04160
6178.81358,0.05706
6180.74205,0.06316
6182.67052,0.11425
6184.59899,0.17680
6186.52746,0.21377
6188.45593,0.22752
6190.38440,0.18462
6192.31286,0.09924
6194.24133,0.03112
6196.16980,0.00357
6198.09827,0.00605
6200.02674,0.00576
6201.95521,0.00565
6203.88368,0.03703
6205.81215,0.08968
6207.74061,0.10488
6209.66908,0.03638
6211.59755,-0.04924
6213.52602,-0.05565
6215.45449,-0.01640
6217.38296,0.00188
6219.31143,-0.00950
6221.23989,-0.01782
6223.16836,0.00644
6225.09683,0.06642
6227.02530,0.10733
6228.95377,0.07968
6230.88224,0.04496
6232.81071,0.06927
6234.73918,0.10018
6236.66764,0.11109
6238.59611,0.12710
6240.52458,0.11757
6242.45305,0.07952
6244.38152,0.06174
6246.30999,0.05967
6248.23846,0.07082
6250.16692,0.08999
6252.09539,0.08937
6254.02386,0.08884
6255.95233,0.09890
6257.88080,0.11045
6259.80927,0.11603
6261.73774,0.10216
6263.66621,0.07363
6265.59467,0.04093
6267.52314,0.00140
6269.45161,-0.02591
6271.38008,-0.00368
6273.30855,0.06771
6275.23702,0.11259
6277.16549,0.08615
6279.09395,0.06495
6281.02242,0.05775
6282.95089,0.03027
6284.87936,0.05690
6286.80783,0.12247
6288.73630,0.12557
6290.66477,0.10077
6292.59323,0.11048
6294.52170,0.10392
6296.45017,0.06924
6298.37864,0.07435
6300.30711,0.12329
6302.23558,0.13537
6304.16405,0.08956
6306.09252,0.03964
6308.02098,-0.00086
6309.94945,-0.00946
6311.87792,0.04269
6313.80639,0.10759
6315.73486,0.12317
6317.66333,0.10436
6319.59180,0.09113
6321.52026,0.06267
6323.44873,0.02991
6325.37720,0.05710
6327.30567,0.11006
6329.23414,0.10871
6331.16261,0.09082
6333.09108,0.10200
6335.01955,0.08625
6336.94801,0.05844
6338.87648,0.07351
6340.80495,0.10590
6342.73342,0.10208
6344.66189,0.04219
6346.59036,-0.02299
6348.51883,-0.03305
6350.44729,-0.00603
6352.37576,0.00723
6354.30423,0.00537
6356.23270,0.04059
6358.16117,0.11648
6360.08964,0.17019
6362.01811,0.16453
6363.94658,0.13480
6365.87504,0.13294
6367.80351,0.11700
6369.73198,0.04279
6371.66045,0.01088
6373.58892,0.07037
6375.51739,0.12280
6377.44586,0.13509
6379.37432,0.14020
6381.30279,0.12611
6383.23126,0.06565
6385.15973,0.01594
6387.08820,0.03131
6389.01667,0.06454
6390.94514,0.08324
6392.87361,0.09951
6394.80207,0.10315
6396.73054,0.05880
6398.65901,-0.00316
6400.58748,-0.00321
6402.51595,0.03744
6404.44442,0.04457
6406.37289,0.04544
6408.30135,0.07424
6410.22982,0.07669
6412.15829,0.00542
6414.08676,-0.05586
6416.01523,-0.02428
6417.94370,0.05821
6419.87217,0.11481
6421.80064,0.12116
6423.72910,0.11318
6425.65757,0.11803
6427.58604,0.09960
6429.51451,0.07089
6431.44298,0.05048
6433.37145,0.00632
6435.29992,-0.00301
6437.22838,0.06848
6439.15685,0.13051
6441.08532,0.12434
6443.01379,0.09724
6444.94226,0.07461
6446.87073,0.05566
6448.79920,0.06221
6450.72766,0.09925
6452.65613,0.13948
6454.58460,0.14546
6456.51307,0.09953
6458.44154,0.04844
6460.37001,0.03971
6462.29848,0.03900
6464.22695,0.01871
6466.15541,0.02582
6468.08388,0.06722
6470.01235,0.06641
6471.94082,0.02986
6473.86929,0.04084
6475.79776,0.10378
6477.72623,0.18163
6479.65469,0.20440
6481.58316,0.13397
6483.51163,0.05520
6485.44010,0.03661
6487.36857,0.04576
6489.29704,0.04052
6491.22551,0.03338
6493.15398,0.02599
6495.08244,0.01176
6497.01091,0.03656
6498.93938,0.09022
6500.86785,0.10234
6502.79632,0.06154
6504.72479,0.03983
6506.65326,0.06189
6508.58172,0.10009
6510.51019,0.13154
6512.43866,0.12446
6514.36713,0.09919
6516.29560,0.08499
6518.22407,0.03763
6520.15254,-0.01472
6522.08101,-0.01003
6524.00947,-0.00229
6525.93794,0.01076
6527.86641,0.10021
6529.79488,0.16560
6531.72335,0.14232
6533.65182,0.11226
6535.58029,0.12021
6537.50875,0.14621
6539.43722,0.15470
6541.36569,0.10929
6543.29416,0.02239
6545.22263,-0.03268
6547.15110,-0.03929
6549.07957,-0.03946
6551.00804,-0.06725
6552.93650,-0.09203
6554.86497,-0.03929
6556.79344,0.03789
6558.72191,0.04043
6560.65038,0.00283
6562.57885,0.02505
6564.50732,0.10119
6566.43578,0.12988
6568.36425,0.11578
6570.29272,0.12573
6572.22119,0.15808
6574.14966,0.15817
6576.07813,0.08512
6578.00660,-0.00934
6579.93507,-0.05797
6581.86353,-0.06999
6583.79200,-0.06538
6585.72047,-0.02483
6587.64894,0.07359
6589.57741,0.16946
6591.50588,0.16679
6593.43435,0.05825
6595.36281,-0.03229
6597.29128,-0.01860
6599.21975,0.01385
6601.14822,-0.01831
6603.07669,-0.05843
6605.00516,-0.04913
6606.93363,0.00938
6608.86210,0.08084
6610.79056,0.08021
6612.71903,0.03112
6614.64750,-0.00128
6616.57597,-0.03823
6618.50444,-0.02844
6620.43291,0.01830
6622.36138,0.02850
6624.28984,0.04027
6626.21831,0.06603
6628.14678,0.06824
6630.07525,0.03112
6632.00372,-0.01682
6633.93219,0.00188
6635.86066,0.06456
6637.78912,0.07152
6639.71759,0.05802
6641.64606,0.09930
6643.57453,0.17229
6645.50300,0.17318
6647.43147,0.05871
6649.35994,-0.04340
6651.28841,-0.04424
6653.21687,-0.01238
6655.14534,-0.01416
6657.07381,0.00416
6659.00228,0.11271
6660.93075,0.20795
6662.85922,0.16208
6664.78769,0.05913
6666.71615,0.03388
6668.64462,0.06925
6670.57309,0.09791
6672.50156,0.11156
6674.43003,0.09558
6676.35850,0.06947
6678.28697,0.05402
6680.21544,0.02564
6682.14390,-0.01736
6684.07237,-0.03828
6686.00084,-0.01871
6687.92931,0.00235
6689.85778,0.01019
6691.78625,0.02269
6693.71472,0.03522
6695.64318,0.03308
6697.57165,0.00191
6699.50012,-0.02515
6701.42859,-0.01277
6703.35706,0.01530
6705.28553,0.03082
6707.21400,0.05984
6709.14247,0.09280
6711.07093,0.07160
6712.99940,0.01565
6714.92787,-0.02671
6716.85634,-0.01349
6718.78481,0.07261
6720.71328,0.14790
6722.64175,0.11143
6724.57021,-0.00613
6726.49868,-0.09737
6728.42715,-0.08277
6730.35562,-0.00030
6732.28409,0.04466
6734.21256,0.06474
6736.14103,0.09511
6738.06950,0.11842
6739.99796,0.11217
6741.92643,0.06288
6743.85490,0.02604
6745.78337,0.03601
6747.71184,0.05963
6749.64031,0.06269
6751.56878,0.04143
6753.49724,0.00609
6755.42571,-0.00179
6757.35418,0.05936
6759.28265,0.11218
6761.21112,0.03610
6763.13959,-0.07453
6765.06806,-0.12485
6766.99653,-0.15157
6768.92499,-0.13491
6770.85346,-0.05944
6772.78193,0.02111
6774.71040,0.09425
6776.63887,0.14623
6778.56734,0.14231
6780.49581,0.06660
6782.42427,-0.04878
6784.35274,-0.09974
6786.28121,-0.06091
6788.20968,-0.01371
6790.13815,0.03023
6792.06662,0.02649
6793.99509,-0.06242
6795.92355,-0.06826
6797.85202,0.03317
6799.78049,0.11930
6801.70896,0.14953
6803.63743,0.12736
6805.56590,0.08246
6807.49437,0.04138
6809.42284,0.04809
6811.35130,0.08146
6813.27977,0.03909
6815.20824,-0.03845
6817.13671,-0.06032
6819.06518,-0.05087
6820.99365,-0.02538
6822.92212,0.04802
6824.85058,0.09889
6826.77905,0.06381
6828.70752,0.02774
6830.63599,0.06546
6832.56446,0.12895
6834.49293,0.15391
6836.42140,0.09323
6838.34987,0.03398
6840.27833,0.04007
6842.20680,0.02491
6844.13527,0.00043
6846.06374,0.02916
6847.99221,0.09790
6849.92068,0.11465
6851.84915,0.01287
6853.77761,-0.09930
6855.70608,-0.10565
6857.63455,-0.03555
6859.56302,0.01242
6861.49149,-0.02049
6863.41996,-0.09117
6865.34843,-0.06360
6867.27690,0.05074
6869.20536,0.07959
6871.13383,-0.00387
6873.06230,-0.06883
6874.99077,-0.05219
6876.91924,0.02128
6878.84771,0.14250
6880.77618,0.18244
6882.70464,0.04359
6884.63311,-0.08274
6886.56158,-0.07748
6888.49005,-0.06018
6890.41852,-0.05420
6892.34699,0.01011
6894.27546,0.07621
6896.20393,0.13529
6898.13239,0.19897
6900.06086,0.16767
6901.98933,0.08234
6903.91780,0.06473
6905.84627,0.08087
6907.77474,0.08541
6909.70321,0.12053
6911.63167,0.16166
6913.56014,0.13935
6915.48861,0.04148
6917.41708,-0.07311
6919.34555,-0.12081
6921.27402,-0.08925
6923.20249,-0.03468
6925.13096,0.03806
6927.05942,0.09771
6928.98789,0.11351
6930.91636,0.10910
6932.84483,0.08946
6934.77330,0.05878
6936.70177,0.01751
6938.63024,-0.06061
6940.55870,-0.10301
6942.48717,-0.03124
6944.41564,0.03275
6946.34411,-0.02413
6948.27258,-0.10035
6950.20105,-0.05433
6952.12952,0.08113
6954.05799,0.18986
6955.98645,0.22916
6957.91492,0.19233
6959.84339,0.08037
6961.77186,-0.01826
6963.70033,-0.02307
6965.62880,-0.00921
6967.55727,-0.03975
6969.48573,-0.02365
6971.41420,0.07577
6973.34267,0.11026
6975.27114,0.06886
6977.19961,0.02313
6979.12808,-0.07984
6981.05655,-0.17997
6982.98501,-0.19975
6984.91348,-0.17830
6986.84195,-0.15966
6988.77042,-0.17270
6990.69889,-0.15394
6992.62736,-0.06544
6994.55583,0.00592
6996.48430,0.00398
6998.41276,-0.04418
7000.34123,0.01788
7002.26970,0.18598
7004.19817,0.22681
7006.12664,0.11276
7008.05511,0.02733
7009.98358,0.06594
7011.91204,0.11834
7013.84051,0.09689
7015.76898,0.07036
7017.69745,0.05866
7019.62592,0.02481
7021.55439,-0.01207
7023.48286,-0.01902
7025.41133,0.01909
7027.33979,0.07187
7029.26826,0.13066
7031.19673,0.21091
7033.12520,0.28027
7035.05367,0.25821
7036.98214,0.13505
7038.91061,0.00990
7040.83907,-0.06215
7042.76754,-0.07914
7044.69601,-0.09911
7046.62448,-0.11179
7048.55295,-0.04862
7050.48142,0.01854
7052.40989,0.02506
7054.33836,0.01168
7056.26682,0.02170
7058.19529,0.03950
7060.12376,0.03029
7062.05223,0.03682
7063.98070,0.11997
7065.90917,0.19641
7067.83764,0.14634
7069.76610,0.03274
7071.69457,0.04184
7073.62304,0.13288
7075.55151,0.14730
7077.47998,0.09611
7079.40845,0.04973
7081.33692,0.05263
7083.26539,0.12916
7085.19385,0.20014
7087.12232,0.12219
7089.05079,-0.06026
7090.97926,-0.13403
7092.90773,-0.09303
7094.83620,-0.05244
7096.76467,-0.00749
7098.69313,0.08536
7100.62160,0.14404
7102.55007,0.14837
7104.47854,0.07854
7106.40701,-0.07025
7108.33548,-0.13281
7110.26395,-0.08813
7112.19242,-0.02079
7114.12088,0.05201
7116.04935,0.13794
7117.97782,0.18993
7119.90629,0.11057
7121.83476,-0.00328
7123.76323,-0.01513
7125.69170,0.01949
7127.62016,-0.02174
7129.54863,-0.07826
7131.47710,-0.11667
7133.40557,-0.18012
7135.33404,-0.12671
7137.26251,0.08800
7139.19098,0.29098
7141.11944,0.36083
7143.04791,0.29151
7144.97638,0.09157
7146.90485,-0.12177
7148.83332,-0.16273
7150.76179,-0.08204
7152.69026,-0.02554
7154.61873,-0.03523
7156.54719,-0.07808
7158.47566,-0.08415
7160.40413,-0.00665
7162.33260,0.08593
7164.26107,0.10898
7166.18954,0.04397
7168.11801,-0.03908
7170.04647,-0.07108
7171.97494,-0.06104
7173.90341,0.03507
7175.83188,0.22878
7177.76035,0.35082
7179.68882,0.27533
7181.61729,0.09648
7183.54576,-0.00899
7185.47422,0.02762
7187.40269,0.09468
7189.33116,0.10781
7191.25963,0.09265
7193.18810,0.09047
7195.11657,0.12123
7197.04504,0.15571
7198.97350,0.11891
7200.90197,0.03383
7202.83044,-0.07058
7204.75891,-0.11905
7206.68738,-0.05375
7208.61585,-0.03299
7210.54432,-0.08185
7212.47279,-0.09149
7214.40125,-0.02104
7216.32972,0.01884
7218.25819,-0.03842
7220.18666,-0.03319
7222.11513,0.07483
7224.04360,0.19035
7225.97207,0.18045
7227.90053,0.04902
7229.82900,0.02529
7231.75747,0.13918
7233.68594,0.15864
7235.61441,0.17962
7237.54288,0.27925
7239.47135,0.29249
7241.39982,0.17859
7243.32828,0.05637
7245.25675,0.01424
7247.18522,-0.05283
7249.11369,-0.12299
7251.04216,-0.05919
7252.97063,0.09531
7254.89910,0.16306
7256.82756,0.15287
7258.75603,0.11117
7260.68450,0.07115
7262.61297,0.06358
7264.54144,0.00871
7266.46991,-0.04625
7268.39838,0.01709
7270.32685,0.13797
7272.25531,0.19156
7274.18378,0.21391
7276.11225,0.25258
7278.04072,0.23244
7279.96919,0.14134
7281.89766,0.09295
7283.82613,0.11261
7285.75459,0.17670
7287.68306,0.24495
7289.61153,0.27227
7291.54000,0.31902
7293.46847,0.36282
7295.39694,0.23506
7297.32541,0.00219
7299.25387,-0.06373
7301.18234,0.06332
7303.11081,0.14227
7305.03928,0.07448
7306.96775,-0.00188
7308.89622,0.02664
7310.82469,0.17474
7312.75316,0.28431
7314.68162,0.21539
7316.61009,-0.03035
7318.53856,-0.19746
7320.46703,-0.12043
7322.39550,0.08467
7324.32397,0.26040
7326.25244,0.26158
7328.18090,0.01793
7330.10937,-0.27960
7332.03784,-0.31086
7333.96631,-0.16465
7335.89478,-0.01655
7337.82325,0.04513
7339.75172,0.01421
7341.68019,0.06301
7343.60865,0.16648
7345.53712,0.16881
7347.46559,0.09847
7349.39406,0.01555
7351.32253,0.07763
7353.25100,0.18312
7355.17947,0.19019
7357.10793,0.18267
7359.03640,0.09120
7360.96487,-0.12874
7362.89334,-0.16197
7364.82181,0.05480
7366.75028,0.21142
7368.67875,0.07393
7370.60722,-0.06095
7372.53568,0.11433
7374.46415,0.40748
7376.39262,0.42079
7378.32109,0.23141
7380.24956,0.03029
7382.17803,-0.06104
7384.10650,-0.01118
7386.03496,0.00375
7387.96343,-0.04292
7389.89190,-0.06250
7391.82037,-0.04607
7393.74884,0.01322
7395.67731,0.00673
7397.60578,-0.07196
7399.53425,-0.04069
7401.46271,0.05342
7403.39118,0.06191
7405.31965,0.01980
7407.24812,0.07859
7409.17659,0.18354
7411.10506,0.15508
7413.03353,0.01132
7414.96199,-0.12216
7416.89046,-0.20621
7418.81893,-0.15444
7420.74740,-0.00631
7422.67587,0.01796
7424.60434,0.04937
7426.53281,0.15714
7428.46128,0.15492
7430.38974,0.03773
7432.31821,0.07642
7434.24668,0.18498
7436.17515,0.18101
7438.10362,0.17516
7440.03209,0.29968
7441.96056,0.41321
7443.88902,0.34973
7445.81749,0.19245
7447.74596,0.09475
7449.67443,0.14106
7451.60290,0.31137
7453.53137,0.41355
7455.45984,0.33770
7457.38831,0.13372
7459.31677,-0.10822
7461.24524,-0.17038
7463.17371,-0.03975
7465.10218,0.09944
7467.03065,0.15062
7468.95912,0.10974
7470.88759,0.02757
7472.81605,-0.06343
7474.74452,-0.13241
7476.67299,-0.09851
7478.60146,-0.02853
7480.52993,-0.10433
7482.45840,-0.20179
7484.38687,-0.15189
7486.31533,-0.08134
7488.24380,-0.07514
7490.17227,-0.06049
7492.10074,-0.00375
7494.02921,0.03147
7495.95768,0.02603
7497.88615,0.05525
