399.19301,0.89935
401.12148,-0.33934
403.04995,-0.28160
404.97842,-0.06703
406.90689,0.14260
408.83536,0.33469
410.76382,0.37762
412.69229,0.21694
414.62076,0.08963
416.54923,0.13719
418.47770,0.16440
420.40617,-0.03813
422.33464,-0.13761
424.26311,-0.05131
426.19157,0.07751
428.12004,0.17054
430.04851,0.19380
431.97698,0.12251
433.90545,0.04216
435.83392,0.00207
437.76239,0.00859
439.69085,0.07681
441.61932,0.16847
443.54779,0.16865
445.47626,0.07046
447.40473,-0.00301
449.33320,-0.04146
451.26167,-0.09857
453.19013,-0.09526
455.11860,-0.00092
457.04707,0.07523
458.97554,0.09265
460.90401,0.08812
462.83248,0.07877
464.76095,0.07433
466.68942,0.07374
468.61788,0.08283
470.54635,0.10939
472.47482,0.13713
474.40329,0.12344
476.33176,0.07277
478.26023,0.04996
480.18870,0.07189
482.11716,0.08116
484.04563,0.01027
485.97410,-0.08503
487.90257,-0.09740
489.83104,-0.02209
491.75951,0.07546
493.68798,0.13921
495.61645,0.13507
497.54491,0.09101
499.47338,0.07282
501.40185,0.08926
503.33032,0.08523
505.25879,0.05508
507.18726,0.04333
509.11573,0.05223
511.04419,0.06820
512.97266,0.07060
514.90113,0.05550
516.82960,0.04615
518.75807,0.04235
520.68654,0.04138
522.61501,0.05979
524.54348,0.08026
526.47194,0.06593
528.40041,0.04557
530.32888,0.04790
532.25735,0.06137
534.18582,0.08083
536.11429,0.10224
538.04276,0.11047
539.97122,0.09482
541.89969,0.06729
543.82816,0.05566
545.75663,0.06376
547.68510,0.07035
549.61357,0.07770
551.54204,0.08971
553.47051,0.11144
555.39897,0.13544
557.32744,0.10194
559.25591,0.05251
561.18438,0.05034
563.11285,0.05500
565.04132,0.05457
566.96979,0.04851
568.89825,0.01630
570.82672,-0.00185
572.75519,0.00852
574.68366,0.02509
576.61213,0.04827
578.54060,0.06359
580.46907,0.05753
582.39754,0.06035
584.32600,0.07980
586.25447,0.08424
588.18294,0.06441
590.11141,0.05327
592.03988,0.06795
593.96835,0.06980
595.89682,0.04349
597.82528,0.02460
599.75375,0.04177
601.68222,0.07192
603.61069,0.07191
605.53916,0.05165
607.46763,0.04701
609.39610,0.05203
611.32456,0.05027
613.25303,0.05692
615.18150,0.07950
617.10997,0.09212
619.03844,0.07705
620.96691,0.06273
622.89538,0.07358
624.82385,0.09856
626.75231,0.11176
628.68078,0.09847
630.60925,0.08011
632.53772,0.06776
634.46619,0.05326
636.39466,0.04310
638.32313,0.04679
640.25159,0.06197
642.18006,0.07403
644.10853,0.08029
646.03700,0.08871
647.96547,0.09013
649.89394,0.08015
651.82241,0.08255
653.75088,0.09499
655.67934,0.08979
657.60781,0.06740
659.53628,0.04865
661.46475,0.04552
663.39322,0.05862
665.32169,0.08195
667.25016,0.10356
669.17862,0.10805
671.10709,0.10041
673.03556,0.09194
674.96403,0.08445
676.89250,0.08000
678.82097,0.08375
680.74944,0.09679
682.67791,0.10276
684.60637,0.08896
686.53484,0.07170
688.46331,0.07432
690.39178,0.09166
692.32025,0.10921
694.24872,0.12312
696.17719,0.12302
698.10565,0.10579
700.03412,0.09131
701.96259,0.09151
703.89106,0.10011
705.81953,0.10487
707.74800,0.09416
709.67647,0.07186
711.60494,0.06140
713.53340,0.07262
715.46187,0.08685
717.39034,0.09174
719.31881,0.09360
721.24728,0.09405
723.17575,0.09403
725.10422,0.10424
727.03268,0.11739
728.96115,0.11374
730.88962,0.10310
732.81809,0.10010
734.74656,0.09420
736.67503,0.08814
738.60350,0.09409
740.53197,0.10102
742.46043,0.09986
744.38890,0.09804
746.31737,0.09716
748.24584,0.09627
750.17431,0.09852
752.10278,0.09598
754.03125,0.08719
755.95971,0.08621
757.88818,0.09436
759.81665,0.10255
761.74512,0.10399
763.67359,0.09985
765.60206,0.10110
767.53053,0.10524
769.45900,0.10215
771.38746,0.09820
773.31593,0.09669
775.24440,0.09323
777.17287,0.09019
779.10134,0.09051
781.02981,0.09486
782.95828,0.09749
784.88674,0.09128
786.81521,0.08502
788.74368,0.09045
790.67215,0.09499
792.60062,0.08884
794.52909,0.08487
796.45756,0.08961
798.38602,0.09652
800.31449,0.09928
802.24296,0.09954
804.17143,0.10171
806.09990,0.10079
808.02837,0.09260
809.95684,0.08448
811.88531,0.08346
813.81377,0.08934
815.74224,0.09790
817.67071,0.10174
819.59918,0.10193
821.52765,0.10020
823.45612,0.09281
825.38459,0.08582
827.31305,0.08395
829.24152,0.08516
831.16999,0.09677
833.09846,0.11765
835.02693,0.12683
836.95540,0.12036
838.88387,0.11011
840.81234,0.10293
842.74080,0.10564
844.66927,0.11036
846.59774,0.10944
848.52621,0.11385
850.45468,0.12001
852.38315,0.11404
854.31162,0.10712
856.24008,0.10974
858.16855,0.11055
860.09702,0.10972
862.02549,0.11185
863.95396,0.10896
865.88243,0.10108
867.81090,0.09238
869.73937,0.08764
871.66783,0.09481
873.59630,0.10787
875.52477,0.10990
877.45324,0.10116
879.38171,0.10001
881.31018,0.11223
883.23865,0.12384
885.16711,0.12050
887.09558,0.10783
889.02405,0.10203
890.95252,0.10213
892.88099,0.10230
894.80946,0.10633
896.73793,0.10941
898.66640,0.10448
900.59486,0.09917
902.52333,0.09630
904.45180,0.09507
906.38027,0.10235
908.30874,0.11334
910.23721,0.11745
912.16568,0.11561
914.09414,0.11384
916.02261,0.11800
917.95108,0.12645
919.87955,0.12520
921.80802,0.11390
923.73649,0.11079
925.66496,0.11676
927.59343,0.11946
929.52189,0.11985
931.45036,0.12329
933.37883,0.12448
935.30730,0.11906
937.23577,0.11340
939.16424,0.11451
941.09271,0.12127
943.02117,0.12462
944.94964,0.11799
946.87811,0.10853
948.80658,0.10945
950.73505,0.12013
952.66352,0.12917
954.59199,0.13237
956.52045,0.13149
958.44892,0.12436
960.37739,0.11373
962.30586,0.11222
964.23433,0.11989
966.16280,0.12258
968.09127,0.11948
970.01974,0.11737
971.94820,0.11608
973.87667,0.11654
975.80514,0.12142
977.73361,0.12621
979.66208,0.12068
981.59055,0.10852
983.51902,0.10362
985.44748,0.10715
987.37595,0.11186
989.30442,0.11590
991.23289,0.12381
993.16136,0.13415
995.08983,0.14029
997.01830,0.13962
998.94677,0.13485
1000.87523,0.13445
1002.80370,0.13714
1004.73217,0.13615
1006.66064,0.13673
1008.58911,0.13677
1010.51758,0.12757
1012.44605,0.11666
1014.37451,0.11649
1016.30298,0.12546
1018.23145,0.12922
1020.15992,0.12131
1022.08839,0.11213
1024.01686,0.11095
1025.94533,0.12136
1027.87380,0.13777
1029.80226,0.13856
1031.73073,0.12333
1033.65920,0.11988
1035.58767,0.13171
1037.51614,0.14011
1039.44461,0.13732
1041.37308,0.12878
1043.30154,0.12386
1045.23001,0.12143
1047.15848,0.11662
1049.08695,0.11526
1051.01542,0.12109
1052.94389,0.12637
1054.87236,0.12526
1056.80083,0.12335
1058.72929,0.12689
1060.65776,0.13336
1062.58623,0.13651
1064.51470,0.13686
1066.44317,0.13876
1068.37164,0.13825
1070.30011,0.13217
1072.22857,0.12765
1074.15704,0.12962
1076.08551,0.13343
1078.01398,0.13459
1079.94245,0.13231
1081.87092,0.12757
1083.79939,0.12782
1085.72786,0.13209
1087.65632,0.13058
1089.58479,0.12846
1091.51326,0.12868
1093.44173,0.12696
1095.37020,0.12484
1097.29867,0.12392
1099.22714,0.13059
1101.15560,0.14350
1103.08407,0.14692
1105.01254,0.13391
1106.94101,0.11518
1108.86948,0.10795
1110.79795,0.11601
1112.72642,0.12771
1114.65489,0.13244
1116.58335,0.13004
1118.51182,0.12436
1120.44029,0.11752
1122.36876,0.11881
1124.29723,0.13050
1126.22570,0.14016
1128.15417,0.14448
1130.08263,0.14408
1132.01110,0.13805
1133.93957,0.13392
1135.86804,0.13411
1137.79651,0.13534
1139.72498,0.13800
1141.65345,0.13929
1143.58191,0.13761
1145.51038,0.13749
1147.43885,0.14034
1149.36732,0.14210
1151.29579,0.14046
1153.22426,0.13769
1155.15273,0.13616
1157.08120,0.13763
1159.00966,0.14254
1160.93813,0.14681
1162.86660,0.14841
1164.79507,0.14983
1166.72354,0.15008
1168.65201,0.14785
1170.58048,0.14563
1172.50894,0.14367
1174.43741,0.14217
1176.36588,0.14333
1178.29435,0.14681
1180.22282,0.15051
1182.15129,0.15203
1184.07976,0.15019
1186.00823,0.14663
1187.93669,0.14315
1189.86516,0.14037
1191.79363,0.14037
1193.72210,0.14188
1195.65057,0.14045
1197.57904,0.13865
1199.50751,0.14039
1201.43597,0.14457
1203.36444,0.14857
1205.29291,0.15073
1207.22138,0.15131
1209.14985,0.14797
1211.07832,0.14188
1213.00679,0.14107
1214.93526,0.14685
1216.86372,0.15403
1218.79219,0.15754
1220.72066,0.15571
1222.64913,0.15136
1224.57760,0.14602
1226.50607,0.14340
1228.43454,0.14721
1230.36300,0.15305
1232.29147,0.15431
1234.21994,0.15095
1236.14841,0.14793
1238.07688,0.14568
1240.00535,0.14326
1241.93382,0.14297
1243.86229,0.14616
1245.79075,0.14871
1247.71922,0.14521
1249.64769,0.14120
1251.57616,0.14249
1253.50463,0.14649
1255.43310,0.15223
1257.36157,0.15482
1259.29003,0.14854
1261.21850,0.14178
1263.14697,0.14395
1265.07544,0.15086
1267.00391,0.15314
1268.93238,0.14767
1270.86085,0.14276
1272.78932,0.14597
1274.71778,0.15324
1276.64625,0.15745
1278.57472,0.15565
1280.50319,0.14919
1282.43166,0.14469
1284.36013,0.14557
1286.28860,0.14873
1288.21706,0.15349
1290.14553,0.15731
1292.07400,0.15606
1294.00247,0.15224
1295.93094,0.14968
1297.85941,0.15021
1299.78788,0.15106
1301.71634,0.14433
1303.64481,0.13214
1305.57328,0.12934
1307.50175,0.13979
1309.43022,0.15070
1311.35869,0.15509
1313.28716,0.15662
1315.21563,0.15701
1317.14409,0.15593
1319.07256,0.15347
1321.00103,0.15183
1322.92950,0.15430
1324.85797,0.15664
1326.78644,0.15555
1328.71491,0.15396
1330.64337,0.15273
1332.57184,0.15327
1334.50031,0.15531
1336.42878,0.15698
1338.35725,0.15923
1340.28572,0.15436
1342.21419,0.13744
1344.14266,0.12278
1346.07112,0.11956
1347.99959,0.12785
1349.92806,0.14429
1351.85653,0.15663
1353.78500,0.15796
1355.71347,0.15359
1357.64194,0.15183
1359.57040,0.15700
1361.49887,0.16407
1363.42734,0.16363
1365.35581,0.15760
1367.28428,0.15613
1369.21275,0.15930
1371.14122,0.16297
1373.06969,0.16609
1374.99815,0.16342
1376.92662,0.15664
1378.85509,0.15490
1380.78356,0.15780
1382.71203,0.15992
1384.64050,0.16093
1386.56897,0.16309
1388.49743,0.16579
1390.42590,0.16734
1392.35437,0.16878
1394.28284,0.17115
1396.21131,0.17202
1398.13978,0.16886
1400.06825,0.16324
1401.99672,0.16268
1403.92518,0.16918
1405.85365,0.17291
1407.78212,0.16895
1409.71059,0.16454
1411.63906,0.16206
1413.56753,0.16005
1415.49600,0.16145
1417.42446,0.16755
1419.35293,0.16940
1421.28140,0.16444
1423.20987,0.16309
1425.13834,0.16557
1427.06681,0.16875
1428.99528,0.17214
1430.92375,0.17306
1432.85221,0.17395
1434.78068,0.17931
1436.70915,0.18215
1438.63762,0.17474
1440.56609,0.16737
1442.49456,0.16641
1444.42303,0.17041
1446.35149,0.17290
1448.27996,0.17096
1450.20843,0.17072
1452.13690,0.17505
1454.06537,0.18400
1455.99384,0.19920
1457.92231,0.20304
1459.85077,0.18702
1461.77924,0.17873
1463.70771,0.18223
1465.63618,0.18530
1467.56465,0.18158
1469.49312,0.18226
1471.42159,0.19055
1473.35006,0.19494
1475.27852,0.18800
1477.20699,0.18056
1479.13546,0.17759
1481.06393,0.17859
1482.99240,0.17957
1484.92087,0.18057
1486.84934,0.18757
1488.77780,0.19869
1490.70627,0.19803
1492.63474,0.18910
1494.56321,0.18526
1496.49168,0.18691
1498.42015,0.18549
1500.34862,0.18030
1502.27709,0.18290
1504.20555,0.19828
1506.13402,0.22483
1508.06249,0.22625
1509.99096,0.20239
1511.91943,0.19094
1513.84790,0.19579
1515.77637,0.20788
1517.70483,0.21459
1519.63330,0.21717
1521.56177,0.21910
1523.49024,0.21260
1525.41871,0.20251
1527.34718,0.19205
1529.27565,0.18538
1531.20412,0.18723
1533.13258,0.19326
1535.06105,0.19344
1536.98952,0.19648
1538.91799,0.21897
1540.84646,0.24479
1542.77493,0.23151
1544.70340,0.20814
1546.63186,0.19135
1548.56033,0.18554
1550.48880,0.18701
1552.41727,0.19052
1554.34574,0.19484
1556.27421,0.20083
1558.20268,0.21276
1560.13115,0.20911
1562.05961,0.19446
1563.98808,0.18927
1565.91655,0.19143
1567.84502,0.19592
1569.77349,0.19672
1571.70196,0.19243
1573.63043,0.19142
1575.55889,0.19392
1577.48736,0.19039
1579.41583,0.18389
1581.34430,0.18204
1583.27277,0.18243
1585.20124,0.17932
1587.12971,0.17423
1589.05818,0.17247
1590.98664,0.17357
1592.91511,0.17595
1594.84358,0.17833
1596.77205,0.17745
1598.70052,0.17406
1600.62899,0.17272
1602.55746,0.17533
1604.48592,0.17810
1606.41439,0.17818
1608.34286,0.17742
1610.27133,0.17685
1612.19980,0.17889
1614.12827,0.18612
1616.05674,0.19358
1617.98521,0.19123
1619.91367,0.18996
1621.84214,0.19811
1623.77061,0.20314
1625.69908,0.19727
1627.62755,0.19247
1629.55602,0.19049
1631.48449,0.19082
1633.41295,0.19975
1635.34142,0.21596
1637.26989,0.21411
1639.19836,0.20087
1641.12683,0.19334
1643.05530,0.19542
1644.98377,0.21085
1646.91223,0.22703
1648.84070,0.22275
1650.76917,0.21967
1652.69764,0.22227
1654.62611,0.20542
1656.55458,0.18966
1658.48305,0.18723
1660.41152,0.19377
1662.33998,0.19688
1664.26845,0.19029
1666.19692,0.19202
1668.12539,0.20702
1670.05386,0.21566
1671.98233,0.20642
1673.91080,0.19741
1675.83926,0.19278
1677.76773,0.19345
1679.69620,0.20239
1681.62467,0.21749
1683.55314,0.22806
1685.48161,0.21798
1687.41008,0.20554
1689.33855,0.19681
1691.26701,0.18892
1693.19548,0.18977
1695.12395,0.20503
1697.05242,0.22370
1698.98089,0.22612
1700.90936,0.21269
1702.83783,0.20362
1704.76629,0.20335
1706.69476,0.19822
1708.62323,0.18833
1710.55170,0.18443
1712.48017,0.18794
1714.40864,0.19843
1716.33711,0.21287
1718.26558,0.20995
1720.19404,0.19296
1722.12251,0.18525
1724.05098,0.18729
1725.97945,0.19009
1727.90792,0.19086
1729.83639,0.19334
1731.76486,0.20060
1733.69332,0.20894
1735.62179,0.20489
1737.55026,0.19772
1739.47873,0.19687
1741.40720,0.19801
1743.33567,0.19470
1745.26414,0.19051
1747.19261,0.19266
1749.12107,0.19964
1751.04954,0.19941
1752.97801,0.19066
1754.90648,0.18534
1756.83495,0.18648
1758.76342,0.18929
1760.69189,0.19253
1762.62035,0.19332
1764.54882,0.18960
1766.47729,0.18940
1768.40576,0.19611
1770.33423,0.20442
1772.26270,0.20616
1774.19117,0.19805
1776.11964,0.18809
1778.04810,0.18283
1779.97657,0.18311
1781.90504,0.18320
1783.83351,0.18295
1785.76198,0.18528
1787.69045,0.18752
1789.61892,0.19005
1791.54738,0.19410
1793.47585,0.19562
1795.40432,0.19254
1797.33279,0.18828
1799.26126,0.18755
1801.18973,0.19096
1803.11820,0.19178
1805.04666,0.18856
1806.97513,0.18641
1808.90360,0.18716
1810.83207,0.18665
1812.76054,0.18294
1814.68901,0.17991
1816.61748,0.17661
1818.54595,0.17271
1820.47441,0.17289
1822.40288,0.17672
1824.33135,0.18137
1826.25982,0.18548
1828.18829,0.18928
1830.11676,0.19128
1832.04523,0.18855
1833.97369,0.18678
1835.90216,0.18862
1837.83063,0.18992
1839.75910,0.19013
1841.68757,0.19351
1843.61604,0.19927
1845.54451,0.19828
1847.47298,0.19115
1849.40144,0.18581
1851.32991,0.18465
1853.25838,0.18539
1855.18685,0.18371
1857.11532,0.18077
1859.04379,0.18060
1860.97226,0.18108
1862.90072,0.18028
1864.82919,0.18211
1866.75766,0.18868
1868.68613,0.19388
1870.61460,0.19067
1872.54307,0.18481
1874.47154,0.18187
1876.40001,0.18123
1878.32847,0.18085
1880.25694,0.17994
1882.18541,0.17950
1884.11388,0.18124
1886.04235,0.18526
1887.97082,0.18863
1889.89929,0.18823
1891.82775,0.18702
1893.75622,0.18839
1895.68469,0.18915
1897.61316,0.18736
1899.54163,0.18562
1901.47010,0.18498
1903.39857,0.18401
1905.32704,0.18315
1907.25550,0.18409
1909.18397,0.18417
1911.11244,0.18146
1913.04091,0.17982
1914.96938,0.18225
1916.89785,0.18746
1918.82632,0.19135
1920.75478,0.19270
1922.68325,0.19289
1924.61172,0.19027
1926.54019,0.18419
1928.46866,0.17868
1930.39713,0.17862
1932.32560,0.18275
1934.25407,0.18514
1936.18253,0.18371
1938.11100,0.18205
1940.03947,0.18314
1941.96794,0.18466
1943.89641,0.18369
1945.82488,0.18209
1947.75335,0.18183
1949.68181,0.18175
1951.61028,0.18046
1953.53875,0.18060
1955.46722,0.18461
1957.39569,0.18884
1959.32416,0.19035
1961.25263,0.19071
1963.18110,0.19104
1965.10956,0.19147
1967.03803,0.19167
1968.96650,0.18999
1970.89497,0.18638
1972.82344,0.18316
1974.75191,0.18283
1976.68038,0.18600
1978.60884,0.18870
1980.53731,0.18756
1982.46578,0.18469
1984.39425,0.18257
1986.32272,0.18263
1988.25119,0.18412
1990.17966,0.18378
1992.10812,0.18220
1994.03659,0.18230
1995.96506,0.18362
1997.89353,0.18449
1999.82200,0.18446
2001.75047,0.18293
2003.67894,0.18058
2005.60741,0.18074
2007.53587,0.18385
2009.46434,0.18618
2011.39281,0.18568
2013.32128,0.18437
2015.24975,0.18551
2017.17822,0.18855
2019.10669,0.19056
2021.03515,0.19086
2022.96362,0.19004
2024.89209,0.18907
2026.82056,0.18896
2028.74903,0.18919
2030.67750,0.18834
2032.60597,0.18607
2034.53444,0.18467
2036.46290,0.18694
2038.39137,0.19083
2040.31984,0.19084
2042.24831,0.18758
2044.17678,0.18646
2046.10525,0.18619
2048.03372,0.18361
2049.96218,0.18221
2051.89065,0.18345
2053.81912,0.18368
2055.74759,0.18296
2057.67606,0.18383
2059.60453,0.18645
2061.53300,0.18908
2063.46147,0.19019
2065.38993,0.18996
2067.31840,0.18858
2069.24687,0.18728
2071.17534,0.18803
2073.10381,0.18863
2075.03228,0.18664
2076.96075,0.18569
2078.88921,0.18790
2080.81768,0.18918
2082.74615,0.18833
2084.67462,0.18786
2086.60309,0.18730
2088.53156,0.18644
2090.46003,0.18677
2092.38850,0.18675
2094.31696,0.18561
2096.24543,0.18643
2098.17390,0.18883
2100.10237,0.18884
2102.03084,0.18694
2103.95931,0.18541
2105.88778,0.18428
2107.81624,0.18480
2109.74471,0.18741
2111.67318,0.19069
2113.60165,0.19406
2115.53012,0.19562
2117.45859,0.19305
2119.38706,0.18844
2121.31553,0.18640
2123.24399,0.18819
2125.17246,0.19040
2127.10093,0.19019
2129.02940,0.18913
2130.95787,0.18900
2132.88634,0.19025
2134.81481,0.19230
2136.74327,0.19212
2138.67174,0.19084
2140.60021,0.19165
2142.52868,0.19229
2144.45715,0.19061
2146.38562,0.18817
2148.31409,0.18766
2150.24255,0.18967
2152.17102,0.19108
2154.09949,0.18956
2156.02796,0.18778
2157.95643,0.18908
2159.88490,0.19181
2161.81337,0.19290
2163.74184,0.19203
2165.67030,0.19059
2167.59877,0.18927
2169.52724,0.18843
2171.45571,0.18822
2173.38418,0.18842
2175.31265,0.18985
2177.24112,0.19108
2179.16958,0.19015
2181.09805,0.18942
2183.02652,0.19071
2184.95499,0.19208
2186.88346,0.19235
2188.81193,0.19155
2190.74040,0.18985
2192.66887,0.18925
2194.59733,0.18972
2196.52580,0.18987
2198.45427,0.18966
2200.38274,0.18806
2202.31121,0.18518
2204.23968,0.18338
2206.16815,0.18475
2208.09661,0.18788
2210.02508,0.18949
2211.95355,0.19028
2213.88202,0.19072
2215.81049,0.18903
2217.73896,0.18791
2219.66743,0.19020
2221.59590,0.19329
2223.52436,0.19425
2225.45283,0.19318
2227.38130,0.19209
2229.30977,0.19284
2231.23824,0.19384
2233.16671,0.19098
2235.09518,0.18641
2237.02364,0.18659
2238.95211,0.19020
2240.88058,0.19247
2242.80905,0.19325
2244.73752,0.19248
2246.66599,0.18963
2248.59446,0.18709
2250.52293,0.18653
2252.45139,0.18747
2254.37986,0.18957
2256.30833,0.19152
2258.23680,0.19100
2260.16527,0.18927
2262.09374,0.18953
2264.02221,0.19071
2265.95067,0.19056
2267.87914,0.18947
2269.80761,0.18863
2271.73608,0.18870
2273.66455,0.18981
2275.59302,0.19176
2277.52149,0.19301
2279.44996,0.19222
2281.37842,0.19058
2283.30689,0.18992
2285.23536,0.19102
2287.16383,0.19237
2289.09230,0.19225
2291.02077,0.19209
2292.94924,0.19330
2294.87770,0.19509
2296.80617,0.19569
2298.73464,0.19459
2300.66311,0.19510
2302.59158,0.19827
2304.52005,0.20059
2306.44852,0.20160
2308.37699,0.20379
2310.30545,0.20513
2312.23392,0.20327
2314.16239,0.20208
2316.09086,0.20346
2318.01933,0.20646
2319.94780,0.20900
2321.87627,0.20765
2323.80473,0.20723
2325.73320,0.21481
2327.66167,0.22468
2329.59014,0.23051
2331.51861,0.23235
2333.44708,0.22577
2335.37555,0.21922
2337.30401,0.22590
2339.23248,0.23714
2341.16095,0.23999
2343.08942,0.23651
2345.01789,0.23450
2346.94636,0.23159
2348.87483,0.22860
2350.80330,0.23125
2352.73176,0.24176
2354.66023,0.25435
2356.58870,0.25436
2358.51717,0.24291
2360.44564,0.23811
2362.37411,0.23457
2364.30258,0.22917
2366.23104,0.23067
2368.15951,0.22800
2370.08798,0.21936
2372.01645,0.21672
2373.94492,0.21581
2375.87339,0.20801
2377.80186,0.19760
2379.73033,0.19132
2381.65879,0.19024
2383.58726,0.19234
2385.51573,0.19392
2387.44420,0.19239
2389.37267,0.18951
2391.30114,0.18898
2393.22961,0.18977
2395.15807,0.18884
2397.08654,0.18819
2399.01501,0.18985
2400.94348,0.19254
2402.87195,0.19449
2404.80042,0.19440
2406.72889,0.19285
2408.65736,0.19197
2410.58582,0.19245
2412.51429,0.19336
2414.44276,0.19415
2416.37123,0.19368
2418.29970,0.19244
2420.22817,0.19171
2422.15664,0.19026
2424.08510,0.18880
2426.01357,0.18865
2427.94204,0.18899
2429.87051,0.19033
2431.79898,0.19168
2433.72745,0.19099
2435.65592,0.19050
2437.58439,0.19179
2439.51285,0.19334
2441.44132,0.19451
2443.36979,0.19499
2445.29826,0.19570
2447.22673,0.19705
2449.15520,0.19567
2451.08367,0.19266
2453.01213,0.19231
2454.94060,0.19272
2456.86907,0.19149
2458.79754,0.19006
2460.72601,0.19085
2462.65448,0.19323
2464.58295,0.19379
2466.51142,0.19289
2468.43988,0.19209
2470.36835,0.19167
2472.29682,0.19335
2474.22529,0.19579
2476.15376,0.19625
2478.08223,0.19528
2480.01070,0.19271
2481.93916,0.18852
2483.86763,0.18600
2485.79610,0.18814
2487.72457,0.19328
2489.65304,0.19637
2491.58151,0.19591
2493.50998,0.19441
2495.43844,0.19350
2497.36691,0.19400
2499.29538,0.19595
2501.22385,0.19691
2503.15232,0.19574
2505.08079,0.19472
2507.00926,0.19500
2508.93773,0.19661
2510.86619,0.19698
2512.79466,0.19307
2514.72313,0.18971
2516.65160,0.19164
2518.58007,0.19442
2520.50854,0.19305
2522.43701,0.18982
2524.36547,0.18936
2526.29394,0.19185
2528.22241,0.19466
2530.15088,0.19514
2532.07935,0.19386
2534.00782,0.19494
2535.93629,0.19721
2537.86476,0.19637
2539.79322,0.19372
2541.72169,0.19159
2543.65016,0.19069
2545.57863,0.19073
2547.50710,0.19078
2549.43557,0.19187
2551.36404,0.19385
2553.29250,0.19451
2555.22097,0.19285
2557.14944,0.19066
2559.07791,0.19067
2561.00638,0.19217
2562.93485,0.19285
2564.86332,0.19207
2566.79179,0.19105
2568.72025,0.19232
2570.64872,0.19453
2572.57719,0.19440
2574.50566,0.19424
2576.43413,0.19489
2578.36260,0.19387
2580.29107,0.19364
2582.21953,0.19589
2584.14800,0.19797
2586.07647,0.19857
2588.00494,0.19834
2589.93341,0.19880
2591.86188,0.19988
2593.79035,0.19915
2595.71882,0.19748
2597.64728,0.19670
2599.57575,0.19577
2601.50422,0.19556
2603.43269,0.19620
2605.36116,0.19512
2607.28963,0.19354
2609.21810,0.19470
2611.14656,0.19658
2613.07503,0.19634
2615.00350,0.19607
2616.93197,0.19701
2618.86044,0.19766
2620.78891,0.19842
2622.71738,0.20062
2624.64585,0.20251
2626.57431,0.20167
2628.50278,0.20037
2630.43125,0.20131
2632.35972,0.20185
2634.28819,0.20046
2636.21666,0.19976
2638.14513,0.19912
2640.07359,0.19772
2642.00206,0.19692
2643.93053,0.19636
2645.85900,0.19687
2647.78747,0.19782
2649.71594,0.19741
2651.64441,0.19824
2653.57288,0.20048
2655.50134,0.20111
2657.42981,0.20048
2659.35828,0.19897
2661.28675,0.19746
2663.21522,0.19840
2665.14369,0.20032
2667.07216,0.20019
2669.00062,0.19932
2670.92909,0.19950
2672.85756,0.19901
2674.78603,0.19758
2676.71450,0.19672
2678.64297,0.19678
2680.57144,0.19831
2682.49990,0.19872
2684.42837,0.19480
2686.35684,0.19200
2688.28531,0.19435
2690.21378,0.19664
2692.14225,0.19656
2694.07072,0.19660
2695.99919,0.19875
2697.92765,0.20252
2699.85612,0.20479
2701.78459,0.20500
2703.71306,0.20412
2705.64153,0.20246
2707.57000,0.20048
2709.49847,0.19879
2711.42693,0.19777
2713.35540,0.19776
2715.28387,0.19924
2717.21234,0.20050
2719.14081,0.20124
2721.06928,0.20294
2722.99775,0.20376
2724.92622,0.20284
2726.85468,0.20133
2728.78315,0.20152
2730.71162,0.20470
2732.64009,0.20694
2734.56856,0.20650
2736.49703,0.20552
2738.42550,0.20426
2740.35396,0.20407
2742.28243,0.20573
2744.21090,0.20603
2746.13937,0.20489
2748.06784,0.20572
2749.99631,0.20811
2751.92478,0.20952
2753.85325,0.20903
2755.78171,0.20687
2757.71018,0.20450
2759.63865,0.20307
2761.56712,0.20279
2763.49559,0.20429
2765.42406,0.20623
2767.35253,0.20625
2769.28099,0.20595
2771.20946,0.20752
2773.13793,0.20945
2775.06640,0.20925
2776.99487,0.20656
2778.92334,0.20480
2780.85181,0.20536
2782.78028,0.20489
2784.70874,0.20475
2786.63721,0.20814
2788.56568,0.21197
2790.49415,0.21255
2792.42262,0.21033
2794.35109,0.20770
2796.27956,0.20623
2798.20802,0.20693
2800.13649,0.20952
2802.06496,0.21065
2803.99343,0.20854
2805.92190,0.20710
2807.85037,0.20793
2809.77884,0.20902
2811.70731,0.21045
2813.63577,0.21073
2815.56424,0.21005
2817.49271,0.21090
2819.42118,0.21164
2821.34965,0.21191
2823.27812,0.21340
2825.20659,0.21491
2827.13505,0.21480
2829.06352,0.21214
2830.99199,0.20973
2832.92046,0.21149
2834.84893,0.21372
2836.77740,0.21303
2838.70587,0.21240
2840.63433,0.21242
2842.56280,0.21145
2844.49127,0.21069
2846.41974,0.21198
2848.34821,0.21292
2850.27668,0.20991
2852.20515,0.20605
2854.13362,0.20687
2856.06208,0.21063
2857.99055,0.21205
2859.91902,0.20980
2861.84749,0.20657
2863.77596,0.20523
2865.70443,0.20605
2867.63290,0.20902
2869.56136,0.21246
2871.48983,0.21316
2873.41830,0.21109
2875.34677,0.20751
2877.27524,0.20600
2879.20371,0.21051
2881.13218,0.21748
2883.06065,0.22095
2884.98911,0.22036
2886.91758,0.21768
2888.84605,0.21456
2890.77452,0.21241
2892.70299,0.21085
2894.63146,0.20833
2896.55993,0.20662
2898.48839,0.20819
2900.41686,0.21083
2902.34533,0.21074
2904.27380,0.20688
2906.20227,0.20390
2908.13074,0.20575
2910.05921,0.20882
2911.98768,0.20984
2913.91614,0.20717
2915.84461,0.20114
2917.77308,0.19898
2919.70155,0.20264
2921.63002,0.20601
2923.55849,0.20592
2925.48696,0.20194
2927.41542,0.19959
2929.34389,0.20401
2931.27236,0.20797
2933.20083,0.20578
2935.12930,0.20211
2937.05777,0.20232
2938.98624,0.20736
2940.91471,0.21204
2942.84317,0.21207
2944.77164,0.20816
2946.70011,0.20058
2948.62858,0.19555
2950.55705,0.19918
2952.48552,0.20486
2954.41399,0.20580
2956.34245,0.20129
2958.27092,0.19649
2960.19939,0.19909
2962.12786,0.20472
2964.05633,0.20556
2965.98480,0.20386
2967.91327,0.20370
2969.84174,0.20603
2971.77020,0.20866
2973.69867,0.20973
2975.62714,0.20907
2977.55561,0.20554
2979.48408,0.20446
2981.41255,0.21101
2983.34102,0.21864
2985.26948,0.22056
2987.19795,0.21694
2989.12642,0.21238
2991.05489,0.21189
2992.98336,0.21474
2994.91183,0.21648
2996.84030,0.21534
2998.76877,0.21292
3000.69723,0.21120
3002.62570,0.21150
3004.55417,0.21385
3006.48264,0.21526
3008.41111,0.21370
3010.33958,0.20921
3012.26805,0.19681
3014.19651,0.17164
3016.12498,0.14751
3018.05345,0.15230
3019.98192,0.18478
3021.91039,0.21251
3023.83886,0.22177
3025.76733,0.22023
3027.69579,0.21741
3029.62426,0.21893
3031.55273,0.22078
3033.48120,0.21860
3035.40967,0.21347
3037.33814,0.20986
3039.26661,0.21379
3041.19508,0.22161
3043.12354,0.22223
3045.05201,0.21530
3046.98048,0.20822
3048.90895,0.20532
3050.83742,0.20672
3052.76589,0.20907
3054.69436,0.20717
3056.62282,0.19941
3058.55129,0.19835
3060.47976,0.20908
3062.40823,0.21707
3064.33670,0.21547
3066.26517,0.20917
3068.19364,0.20827
3070.12211,0.21526
3072.05057,0.21896
3073.97904,0.21292
3075.90751,0.20450
3077.83598,0.20496
3079.76445,0.21222
3081.69292,0.21562
3083.62139,0.20996
3085.54985,0.20359
3087.47832,0.20776
3089.40679,0.21358
3091.33526,0.21114
3093.26373,0.20661
3095.19220,0.20764
3097.12067,0.21412
3099.04914,0.21776
3100.97760,0.21362
3102.90607,0.20721
3104.83454,0.20760
3106.76301,0.21414
3108.69148,0.21729
3110.61995,0.21278
3112.54842,0.20560
3114.47688,0.20529
3116.40535,0.21120
3118.33382,0.21243
3120.26229,0.20787
3122.19076,0.20606
3124.11923,0.21016
3126.04770,0.21426
3127.97617,0.21408
3129.90463,0.21331
3131.83310,0.21603
3133.76157,0.21854
3135.69004,0.21753
3137.61851,0.21568
3139.54698,0.21193
3141.47545,0.20676
3143.40391,0.20641
3145.33238,0.21230
3147.26085,0.21867
3149.18932,0.22100
3151.11779,0.22188
3153.04626,0.22313
3154.97473,0.22311
3156.90320,0.22165
3158.83166,0.22068
3160.76013,0.22138
3162.68860,0.22207
3164.61707,0.22199
3166.54554,0.22156
3168.47401,0.22156
3170.40248,0.22293
3172.33094,0.22511
3174.25941,0.22680
3176.18788,0.22661
3178.11635,0.22448
3180.04482,0.22214
3181.97329,0.22407
3183.90176,0.23139
3185.83022,0.23539
3187.75869,0.23116
3189.68716,0.22586
3191.61563,0.22509
3193.54410,0.22574
3195.47257,0.22369
3197.40104,0.22128
3199.32951,0.22254
3201.25797,0.22497
3203.18644,0.22343
3205.11491,0.21902
3207.04338,0.21699
3208.97185,0.21837
3210.90032,0.21991
3212.82879,0.22088
3214.75725,0.22202
3216.68572,0.22237
3218.61419,0.22285
3220.54266,0.22314
3222.47113,0.21985
3224.39960,0.21405
3226.32807,0.21139
3228.25654,0.21325
3230.18500,0.21608
3232.11347,0.21913
3234.04194,0.22168
3235.97041,0.22085
3237.89888,0.21811
3239.82735,0.21556
3241.75582,0.21180
3243.68428,0.20788
3245.61275,0.20674
3247.54122,0.20870
3249.46969,0.21294
3251.39816,0.21506
3253.32663,0.21130
3255.25510,0.20655
3257.18357,0.20565
3259.11203,0.20813
3261.04050,0.21286
3262.96897,0.21812
3264.89744,0.21984
3266.82591,0.21680
3268.75438,0.21283
3270.68285,0.20900
3272.61131,0.20838
3274.53978,0.21495
3276.46825,0.22134
3278.39672,0.22226
3280.32519,0.22055
3282.25366,0.21683
3284.18213,0.21440
3286.11060,0.21499
3288.03906,0.21649
3289.96753,0.21854
3291.89600,0.21764
3293.82447,0.21431
3295.75294,0.21340
3297.68141,0.21363
3299.60988,0.21299
3301.53834,0.21255
3303.46681,0.21453
3305.39528,0.21830
3307.32375,0.21980
3309.25222,0.21887
3311.18069,0.21715
3313.10916,0.21405
3315.03763,0.21259
3316.96609,0.21514
3318.89456,0.21704
3320.82303,0.21678
3322.75150,0.21748
3324.67997,0.21819
3326.60844,0.21830
3328.53691,0.21999
3330.46537,0.22312
3332.39384,0.22532
3334.32231,0.22514
3336.25078,0.22346
3338.17925,0.22029
3340.10772,0.21486
3342.03619,0.21205
3343.96466,0.21628
3345.89312,0.22121
3347.82159,0.22288
3349.75006,0.22661
3351.67853,0.23027
3353.60700,0.22784
3355.53547,0.22207
3357.46394,0.21887
3359.39240,0.21926
3361.32087,0.21971
3363.24934,0.22018
3365.17781,0.22183
3367.10628,0.22249
3369.03475,0.22300
3370.96322,0.22242
3372.89168,0.21823
3374.82015,0.21716
3376.74862,0.22300
3378.67709,0.22714
3380.60556,0.22546
3382.53403,0.22420
3384.46250,0.22619
3386.39097,0.22515
3388.31943,0.21868
3390.24790,0.21571
3392.17637,0.21886
3394.10484,0.21974
3396.03331,0.21635
3397.96178,0.21329
3399.89025,0.21313
3401.81871,0.21309
3403.74718,0.21124
3405.67565,0.21103
3407.60412,0.20865
3409.53259,0.20160
3411.46106,0.20013
3413.38953,0.20666
3415.31800,0.21294
3417.24646,0.21579
3419.17493,0.21638
3421.10340,0.21434
3423.03187,0.21037
3424.96034,0.20921
3426.88881,0.21270
3428.81728,0.21552
3430.74574,0.21450
3432.67421,0.21140
3434.60268,0.20702
3436.53115,0.20454
3438.45962,0.20674
3440.38809,0.20901
3442.31656,0.20792
3444.24503,0.20744
3446.17349,0.20894
3448.10196,0.20887
3450.03043,0.20729
3451.95890,0.20604
3453.88737,0.20485
3455.81584,0.20429
3457.74431,0.20329
3459.67277,0.20026
3461.60124,0.19904
3463.52971,0.20089
3465.45818,0.20042
3467.38665,0.19912
3469.31512,0.20126
3471.24359,0.20092
3473.17206,0.19646
3475.10052,0.19754
3477.02899,0.20271
3478.95746,0.20130
3480.88593,0.19604
3482.81440,0.19589
3484.74287,0.19876
3486.67134,0.19760
3488.59980,0.19263
3490.52827,0.18959
3492.45674,0.18946
3494.38521,0.19106
3496.31368,0.19342
3498.24215,0.19354
3500.17062,0.19325
3502.09909,0.19485
3504.02755,0.19530
3505.95602,0.19355
3507.88449,0.19309
3509.81296,0.19380
3511.74143,0.19217
3513.66990,0.19044
3515.59837,0.19083
3517.52683,0.19125
3519.45530,0.19070
3521.38377,0.18961
3523.31224,0.18935
3525.24071,0.19038
3527.16918,0.19047
3529.09765,0.18793
3531.02611,0.18410
3532.95458,0.18087
3534.88305,0.17767
3536.81152,0.17208
3538.73999,0.16602
3540.66846,0.16408
3542.59693,0.16573
3544.52540,0.17062
3546.45386,0.17815
3548.38233,0.18227
3550.31080,0.18125
3552.23927,0.17727
3554.16774,0.17212
3556.09621,0.16879
3558.02468,0.16869
3559.95314,0.17119
3561.88161,0.17685
3563.81008,0.18626
3565.73855,0.19452
3567.66702,0.18993
3569.59549,0.17482
3571.52396,0.16553
3573.45243,0.16568
3575.38089,0.16659
3577.30936,0.16295
3579.23783,0.16054
3581.16630,0.16269
3583.09477,0.16926
3585.02324,0.17832
3586.95171,0.18216
3588.88017,0.17368
3590.80864,0.16404
3592.73711,0.16244
3594.66558,0.16433
3596.59405,0.16416
3598.52252,0.16381
3600.45099,0.16141
3602.37946,0.15710
3604.30792,0.15742
3606.23639,0.16294
3608.16486,0.16737
3610.09333,0.16518
3612.02180,0.16116
3613.95027,0.16089
3615.87874,0.16227
3617.80720,0.16348
3619.73567,0.16415
3621.66414,0.16096
3623.59261,0.15697
3625.52108,0.15805
3627.44955,0.16522
3629.37802,0.16678
3631.30649,0.15522
3633.23495,0.14440
3635.16342,0.13932
3637.09189,0.13817
3639.02036,0.13812
3640.94883,0.14047
3642.87730,0.14584
3644.80577,0.15233
3646.73423,0.16115
3648.66270,0.17194
3650.59117,0.16827
3652.51964,0.15414
3654.44811,0.14699
3656.37658,0.14759
3658.30505,0.14690
3660.23352,0.14217
3662.16198,0.13708
3664.09045,0.13473
3666.01892,0.13763
3667.94739,0.14515
3669.87586,0.15200
3671.80433,0.15093
3673.73280,0.14978
3675.66126,0.15316
3677.58973,0.15073
3679.51820,0.14446
3681.44667,0.14028
3683.37514,0.13834
3685.30361,0.13897
3687.23208,0.14288
3689.16055,0.14782
3691.08901,0.14541
3693.01748,0.13838
3694.94595,0.13480
3696.87442,0.13323
3698.80289,0.13121
3700.73136,0.13120
3702.65983,0.13414
3704.58829,0.13792
3706.51676,0.14125
3708.44523,0.14527
3710.37370,0.14698
3712.30217,0.13470
3714.23064,0.12395
3716.15911,0.12787
3718.08757,0.13538
3720.01604,0.13603
3721.94451,0.13289
3723.87298,0.13405
3725.80145,0.13610
3727.72992,0.13425
3729.65839,0.13710
3731.58686,0.15032
3733.51532,0.16463
3735.44379,0.16552
3737.37226,0.15736
3739.30073,0.15228
3741.22920,0.15104
3743.15767,0.15192
3745.08614,0.15232
3747.01460,0.15132
3748.94307,0.15389
3750.87154,0.15509
3752.80001,0.14549
3754.72848,0.13834
3756.65695,0.13878
3758.58542,0.14031
3760.51389,0.13767
3762.44235,0.13370
3764.37082,0.13072
3766.29929,0.13116
3768.22776,0.13589
3770.15623,0.13685
3772.08470,0.12959
3774.01317,0.12230
3775.94163,0.12021
3777.87010,0.12408
3779.79857,0.12832
3781.72704,0.12731
3783.65551,0.12731
3785.58398,0.12784
3787.51245,0.12417
3789.44092,0.12174
3791.36938,0.12139
3793.29785,0.11942
3795.22632,0.11996
3797.15479,0.12496
3799.08326,0.12939
3801.01173,0.13433
3802.94020,0.13720
3804.86866,0.13592
3806.79713,0.13404
3808.72560,0.12960
3810.65407,0.12485
3812.58254,0.12648
3814.51101,0.13721
3816.43948,0.14833
3818.36795,0.15122
3820.29641,0.15039
3822.22488,0.14270
3824.15335,0.13518
3826.08182,0.13155
3828.01029,0.12918
3829.93876,0.13078
3831.86723,0.13307
3833.79569,0.13066
3835.72416,0.13151
3837.65263,0.14259
3839.58110,0.14999
3841.50957,0.14231
3843.43804,0.12901
3845.36651,0.11962
3847.29498,0.11701
3849.22344,0.12128
3851.15191,0.13476
3853.08038,0.15441
3855.00885,0.15011
3856.93732,0.13295
3858.86579,0.12504
3860.79426,0.12804
3862.72272,0.13646
3864.65119,0.13888
3866.57966,0.13448
3868.50813,0.13140
3870.43660,0.13153
3872.36507,0.13454
3874.29354,0.13275
3876.22200,0.12239
3878.15047,0.11556
3880.07894,0.11923
3882.00741,0.12411
3883.93588,0.12193
3885.86435,0.11754
3887.79282,0.11651
3889.72129,0.11864
3891.64975,0.11952
3893.57822,0.11742
3895.50669,0.11938
3897.43516,0.12625
3899.36363,0.13353
3901.29210,0.14030
3903.22057,0.14159
3905.14903,0.13115
3907.07750,0.11866
3909.00597,0.11172
3910.93444,0.11006
3912.86291,0.11261
3914.79138,0.11735
3916.71985,0.12083
3918.64832,0.12144
3920.57678,0.12052
3922.50525,0.11830
3924.43372,0.11670
3926.36219,0.11617
3928.29066,0.11396
3930.21913,0.11089
3932.14760,0.10934
3934.07606,0.10855
3936.00453,0.10773
3937.93300,0.10906
3939.86147,0.11258
3941.78994,0.11391
3943.71841,0.11232
3945.64688,0.11318
3947.57535,0.11367
3949.50381,0.10936
3951.43228,0.10639
3953.36075,0.10483
3955.28922,0.10054
3957.21769,0.09837
3959.14616,0.10352
3961.07463,0.11293
3963.00309,0.11685
3964.93156,0.10941
3966.86003,0.09913
3968.78850,0.09707
3970.71697,0.10098
3972.64544,0.10277
3974.57391,0.10172
3976.50238,0.10038
3978.43084,0.09747
3980.35931,0.09524
3982.28778,0.09702
3984.21625,0.09802
3986.14472,0.09689
3988.07319,0.09604
3990.00166,0.09531
3991.93012,0.09503
3993.85859,0.09421
3995.78706,0.09365
3997.71553,0.09630
3999.64400,0.10095
4001.57247,0.10212
4003.50094,0.09907
4005.42941,0.09547
4007.35787,0.09309
4009.28634,0.09448
4011.21481,0.09823
4013.14328,0.10022
4015.07175,0.10096
4017.00022,0.09907
4018.92869,0.09384
4020.85715,0.09168
4022.78562,0.09316
4024.71409,0.09183
4026.64256,0.08841
4028.57103,0.08737
4030.49950,0.08830
4032.42797,0.08971
4034.35644,0.09027
4036.28490,0.08834
4038.21337,0.08665
4040.14184,0.08824
4042.07031,0.09046
4043.99878,0.08914
4045.92725,0.08579
4047.85572,0.08599
4049.78418,0.08700
4051.71265,0.08309
4053.64112,0.07990
4055.56959,0.08424
4057.49806,0.09046
4059.42653,0.09228
4061.35500,0.09251
4063.28346,0.09381
4065.21193,0.09581
4067.14040,0.09744
4069.06887,0.09635
4070.99734,0.09228
4072.92581,0.08815
4074.85428,0.08692
4076.78275,0.08891
4078.71121,0.09150
4080.63968,0.09320
4082.56815,0.09127
4084.49662,0.08304
4086.42509,0.07502
4088.35356,0.07406
4090.28203,0.07799
4092.21049,0.08305
4094.13896,0.08814
4096.06743,0.09043
4097.99590,0.08708
4099.92437,0.08231
4101.85284,0.08190
4103.78131,0.08145
4105.70978,0.07587
4107.63824,0.07395
4109.56671,0.07934
4111.49518,0.08213
4113.42365,0.07930
4115.35212,0.07659
4117.28059,0.07869
4119.20906,0.08171
4121.13752,0.07801
4123.06599,0.07159
4124.99446,0.07138
4126.92293,0.07661
4128.85140,0.08090
4130.77987,0.08000
4132.70834,0.07539
4134.63681,0.07046
4136.56527,0.06589
4138.49374,0.06604
4140.42221,0.07182
4142.35068,0.07484
4144.27915,0.07366
4146.20762,0.07456
4148.13609,0.07768
4150.06455,0.07724
4151.99302,0.07027
4153.92149,0.06506
4155.84996,0.07146
4157.77843,0.08055
4159.70690,0.08045
4161.63537,0.07483
4163.56384,0.07114
4165.49230,0.07167
4167.42077,0.07218
4169.34924,0.06933
4171.27771,0.06639
4173.20618,0.06530
4175.13465,0.06637
4177.06312,0.07010
4178.99158,0.07395
4180.92005,0.07425
4182.84852,0.06794
4184.77699,0.05829
4186.70546,0.05532
4188.63393,0.06068
4190.56240,0.06507
4192.49087,0.06259
4194.41933,0.05923
4196.34780,0.06269
4198.27627,0.06654
4200.20474,0.06198
4202.13321,0.05632
4204.06168,0.05792
4205.99015,0.06172
4207.91861,0.06277
4209.84708,0.06240
4211.77555,0.06176
4213.70402,0.06192
4215.63249,0.06167
4217.56096,0.06014
4219.48943,0.05910
4221.41789,0.05871
4223.34636,0.06066
4225.27483,0.06268
4227.20330,0.05805
4229.13177,0.05312
4231.06024,0.05718
4232.98871,0.06352
4234.91718,0.06524
4236.84564,0.06562
4238.77411,0.06735
4240.70258,0.06662
4242.63105,0.05728
4244.55952,0.04412
4246.48799,0.03767
4248.41646,0.03845
4250.34492,0.04212
4252.27339,0.04587
4254.20186,0.04682
4256.13033,0.04503
4258.05880,0.04526
4259.98727,0.04882
4261.91574,0.05001
4263.84421,0.04547
4265.77267,0.03992
4267.70114,0.04041
4269.62961,0.04687
4271.55808,0.05011
4273.48655,0.04493
4275.41502,0.03897
4277.34349,0.03844
4279.27195,0.04136
4281.20042,0.04549
4283.12889,0.04668
4285.05736,0.04454
4286.98583,0.04418
4288.91430,0.04579
4290.84277,0.04738
4292.77124,0.04696
4294.69970,0.04428
4296.62817,0.04293
4298.55664,0.04289
4300.48511,0.04230
4302.41358,0.03949
4304.34205,0.03305
4306.27052,0.02892
4308.19898,0.03316
4310.12745,0.04106
4312.05592,0.04360
4313.98439,0.04074
4315.91286,0.03872
4317.84133,0.03916
4319.76980,0.04170
4321.69827,0.04590
4323.62673,0.04745
4325.55520,0.04313
4327.48367,0.03741
4329.41214,0.03489
4331.34061,0.03351
4333.26908,0.03005
4335.19755,0.02744
4337.12601,0.02943
4339.05448,0.03139
4340.98295,0.03105
4342.91142,0.03163
4344.83989,0.03006
4346.76836,0.02471
4348.69683,0.02630
4350.62530,0.03736
4352.55376,0.04569
4354.48223,0.04545
4356.41070,0.03587
4358.33917,0.02181
4360.26764,0.01339
4362.19611,0.01160
4364.12458,0.01417
4366.05304,0.02075
4367.98151,0.02698
4369.90998,0.02969
4371.83845,0.03052
4373.76692,0.03105
4375.69539,0.03385
4377.62386,0.03597
4379.55232,0.02904
4381.48079,0.01709
4383.40926,0.01245
4385.33773,0.01952
4387.26620,0.03254
4389.19467,0.03938
4391.12314,0.03428
4393.05161,0.02644
4394.98007,0.02214
4396.90854,0.01730
4398.83701,0.01322
4400.76548,0.01468
4402.69395,0.01966
4404.62242,0.02402
4406.55089,0.02528
4408.47935,0.02166
4410.40782,0.01791
4412.33629,0.01875
4414.26476,0.01972
4416.19323,0.02033
4418.12170,0.02282
4420.05017,0.02327
4421.97864,0.01628
4423.90710,0.00350
4425.83557,-0.00126
4427.76404,0.00656
4429.69251,0.01355
4431.62098,0.01400
4433.54945,0.01175
4435.47792,0.00707
4437.40638,0.00101
4439.33485,-0.00063
4441.26332,0.00466
4443.19179,0.01146
4445.12026,0.01280
4447.04873,0.00905
4448.97720,0.00920
4450.90567,0.01539
4452.83413,0.01779
4454.76260,0.01320
4456.69107,0.00971
4458.61954,0.01208
4460.54801,0.01818
4462.47648,0.02188
4464.40495,0.01628
4466.33341,0.00458
4468.26188,-0.00322
4470.19035,-0.00183
4472.11882,0.00733
4474.04729,0.01364
4475.97576,0.01080
4477.90423,0.01042
4479.83270,0.01793
4481.76116,0.02107
4483.68963,0.01726
4485.61810,0.01661
4487.54657,0.01703
4489.47504,0.01072
4491.40351,0.00484
4493.33198,0.00760
4495.26044,0.01271
4497.18891,0.01383
4499.11738,0.01355
4501.04585,0.01486
4502.97432,0.01471
4504.90279,0.01432
4506.83126,0.01917
4508.75973,0.02457
4510.68819,0.02128
4512.61666,0.00840
4514.54513,-0.00274
4516.47360,-0.00109
4518.40207,0.00795
4520.33054,0.01436
4522.25901,0.01783
4524.18747,0.01912
4526.11594,0.01549
4528.04441,0.00701
4529.97288,0.00026
4531.90135,0.00086
4533.82982,0.00291
4535.75829,0.00209
4537.68676,0.00237
4539.61522,0.00555
4541.54369,0.00828
4543.47216,0.00526
4545.40063,-0.00013
4547.32910,0.00078
4549.25757,0.00808
4551.18604,0.01260
4553.11450,0.00811
4555.04297,0.00029
4556.97144,-0.00323
4558.89991,-0.00467
4560.82838,-0.00647
4562.75685,-0.00302
4564.68532,0.00132
4566.61378,-0.00116
4568.54225,-0.00109
4570.47072,0.00406
4572.39919,0.00293
4574.32766,-0.00161
4576.25613,-0.00299
4578.18460,-0.00418
4580.11307,-0.00144
4582.04153,0.00594
4583.97000,0.00842
4585.89847,0.00817
4587.82694,0.01311
4589.75541,0.01371
4591.68388,0.00116
4593.61235,-0.01122
4595.54081,-0.01124
4597.46928,-0.00718
4599.39775,-0.00760
4601.32622,-0.00388
4603.25469,0.00579
4605.18316,0.00979
4607.11163,0.00826
4609.04010,0.00949
4610.96856,0.00849
4612.89703,-0.00272
4614.82550,-0.01207
4616.75397,-0.00818
4618.68244,0.00001
4620.61091,0.00391
4622.53938,0.00182
4624.46784,-0.00630
4626.39631,-0.01017
4628.32478,-0.00133
4630.25325,0.01062
4632.18172,0.01816
4634.11019,0.01945
4636.03866,0.01237
4637.96713,0.00484
4639.89559,0.00429
4641.82406,0.00729
4643.75253,0.00735
4645.68100,0.00580
4647.60947,0.01159
4649.53794,0.01908
4651.46641,0.01536
4653.39487,0.00451
4655.32334,-0.00334
4657.25181,-0.00191
4659.18028,0.00446
4661.10875,0.00461
4663.03722,0.00242
4664.96569,0.00438
4666.89416,0.00442
4668.82262,0.00446
4670.75109,0.01328
4672.67956,0.02130
4674.60803,0.02016
4676.53650,0.02134
4678.46497,0.02458
4680.39344,0.02064
4682.32190,0.01229
4684.25037,0.00063
4686.17884,-0.01287
4688.10731,-0.01637
4690.03578,-0.00744
4691.96425,-0.00071
4693.89272,-0.00072
4695.82119,-0.00072
4697.74965,0.00009
4699.67812,-0.00012
4701.60659,0.00381
4703.53506,0.01154
4705.46353,0.01467
4707.39200,0.01205
4709.32047,0.00294
4711.24893,-0.00632
4713.17740,-0.00529
4715.10587,0.00119
4717.03434,0.00518
4718.96281,0.00589
4720.89128,0.00721
4722.81975,0.01083
4724.74821,0.01429
4726.67668,0.01184
4728.60515,0.00298
4730.53362,-0.00199
4732.46209,-0.00476
4734.39056,-0.01453
4736.31903,-0.01949
4738.24750,-0.01097
4740.17596,-0.00420
4742.10443,-0.00734
4744.03290,-0.01274
4745.96137,-0.01307
4747.88984,-0.00575
4749.81831,0.00493
4751.74678,0.01152
4753.67524,0.01088
4755.60371,0.00916
4757.53218,0.01539
4759.46065,0.02384
4761.38912,0.02549
4763.31759,0.02645
4765.24606,0.02994
4767.17453,0.02540
4769.10299,0.01711
4771.03146,0.01528
4772.95993,0.01211
4774.88840,0.00510
4776.81687,-0.00066
4778.74534,-0.00358
4780.67381,-0.00462
4782.60227,-0.00835
4784.53074,-0.01124
4786.45921,-0.00558
4788.38768,0.00502
4790.31615,0.00881
4792.24462,0.00224
4794.17309,-0.00579
4796.10156,-0.00997
4798.03002,-0.01282
4799.95849,-0.00878
4801.88696,0.00560
4803.81543,0.01602
4805.74390,0.01319
4807.67237,0.00596
4809.60084,0.00210
4811.52930,-0.00212
4813.45777,-0.00669
4815.38624,0.00174
4817.31471,0.01868
4819.24318,0.02416
4821.17165,0.01821
4823.10012,0.00979
4825.02859,0.00446
4826.95705,0.00071
4828.88552,-0.00771
4830.81399,-0.01029
4832.74246,-0.00191
4834.67093,0.00254
4836.59940,0.00163
4838.52787,0.00191
4840.45633,-0.00216
4842.38480,-0.00826
4844.31327,-0.00922
4846.24174,-0.00986
4848.17021,-0.00520
4850.09868,0.01119
4852.02715,0.02190
4853.95562,0.01736
4855.88408,0.00886
4857.81255,0.00458
4859.74102,0.00816
4861.66949,0.01643
4863.59796,0.01860
4865.52643,0.01044
4867.45490,0.00206
4869.38336,0.00565
4871.31183,0.01832
4873.24030,0.02681
4875.16877,0.02186
4877.09724,0.01048
4879.02571,0.01054
4880.95418,0.02048
4882.88265,0.01971
4884.81111,0.01132
4886.73958,0.01082
4888.66805,0.00968
4890.59652,0.00758
4892.52499,0.01214
4894.45346,0.00843
4896.38193,-0.00086
4898.31039,0.00390
4900.23886,0.01252
4902.16733,0.00619
4904.09580,-0.00712
4906.02427,-0.01147
4907.95274,-0.00577
4909.88121,0.00235
4911.80967,0.00080
4913.73814,-0.01124
4915.66661,-0.01806
4917.59508,-0.01394
4919.52355,-0.00045
4921.45202,0.01947
4923.38049,0.03380
4925.30896,0.03524
4927.23742,0.03210
4929.16589,0.02905
4931.09436,0.01789
4933.02283,0.00007
4934.95130,-0.01337
4936.87977,-0.01408
4938.80824,-0.00505
4940.73670,-0.00123
4942.66517,-0.00153
4944.59364,0.00213
4946.52211,0.00419
4948.45058,-0.00074
4950.37905,-0.00737
4952.30752,-0.00318
4954.23599,0.01194
4956.16445,0.01981
4958.09292,0.01455
4960.02139,0.01024
4961.94986,0.01111
4963.87833,0.01419
4965.80680,0.02190
4967.73527,0.02177
4969.66373,0.00451
4971.59220,-0.01379
4973.52067,-0.01636
4975.44914,-0.00052
4977.37761,0.02179
4979.30608,0.03251
4981.23455,0.02916
4983.16302,0.02185
4985.09148,0.01488
4987.01995,0.01235
4988.94842,0.01473
4990.87689,0.00999
4992.80536,0.00012
4994.73383,-0.00072
4996.66230,-0.00147
4998.59076,-0.01033
5000.51923,-0.01094
5002.44770,-0.00057
5004.37617,0.01052
5006.30464,0.02265
5008.23311,0.02449
5010.16158,0.01053
5012.09005,0.00210
5014.01851,0.00778
5015.94698,0.02155
5017.87545,0.03256
5019.80392,0.02943
5021.73239,0.02067
5023.66086,0.01268
5025.58933,0.00217
5027.51779,-0.00130
5029.44626,0.00535
5031.37473,0.01048
5033.30320,0.01169
5035.23167,0.00924
5037.16014,0.00373
5039.08861,0.00607
5041.01708,0.01171
5042.94554,0.00764
5044.87401,0.00259
5046.80248,0.00695
5048.73095,0.01567
5050.65942,0.01107
5052.58789,-0.01558
5054.51636,-0.03270
5056.44482,-0.01316
5058.37329,0.01469
5060.30176,0.02150
5062.23023,0.01851
5064.15870,0.01717
5066.08717,0.01412
5068.01564,0.01121
5069.94410,0.01360
5071.87257,0.01384
5073.80104,0.00949
5075.72951,0.01405
5077.65798,0.02409
5079.58645,0.02334
5081.51492,0.01389
5083.44339,0.00619
5085.37185,-0.00173
5087.30032,-0.01089
5089.22879,-0.00287
5091.15726,0.02540
5093.08573,0.04252
5095.01420,0.03628
5096.94267,0.01589
5098.87113,-0.00855
5100.79960,-0.01909
5102.72807,-0.01744
5104.65654,-0.02071
5106.58501,-0.02701
5108.51348,-0.02730
5110.44195,-0.01674
5112.37042,0.00024
5114.29888,0.01052
5116.22735,0.00818
5118.15582,0.00432
5120.08429,0.01325
5122.01276,0.02649
5123.94123,0.03103
5125.86970,0.02895
5127.79816,0.02606
5129.72663,0.02064
5131.65510,0.00834
5133.58357,0.00233
5135.51204,0.01026
5137.44051,0.01651
5139.36898,0.01883
5141.29745,0.02669
5143.22591,0.03047
5145.15438,0.02304
5147.08285,0.01527
5149.01132,0.00943
5150.93979,0.00185
5152.86826,-0.01317
5154.79673,-0.02958
5156.72519,-0.01745
5158.65366,0.01416
5160.58213,0.02694
5162.51060,0.02558
5164.43907,0.02518
5166.36754,0.02003
5168.29601,0.01199
5170.22448,0.00478
5172.15294,-0.00452
5174.08141,-0.00331
5176.00988,0.01956
5177.93835,0.04576
5179.86682,0.04981
5181.79529,0.03233
5183.72376,0.01158
5185.65222,0.00500
5187.58069,0.01696
5189.50916,0.02724
5191.43763,0.02532
5193.36610,0.01822
5195.29457,0.01345
5197.22304,0.02061
5199.15151,0.03639
5201.07997,0.04621
5203.00844,0.04528
5204.93691,0.04536
5206.86538,0.05706
5208.79385,0.06055
5210.72232,0.04622
5212.65079,0.03404
5214.57925,0.03282
5216.50772,0.03184
5218.43619,0.02616
5220.36466,0.02322
5222.29313,0.02254
5224.22160,0.02103
5226.15007,0.02707
5228.07854,0.03351
5230.00700,0.02656
5231.93547,0.02445
5233.86394,0.04037
5235.79241,0.05175
5237.72088,0.04293
5239.64935,0.03178
5241.57782,0.03874
5243.50628,0.05757
5245.43475,0.07231
5247.36322,0.06955
5249.29169,0.04109
5251.22016,0.01147
5253.14863,0.00566
5255.07710,0.01842
5257.00556,0.03823
5258.93403,0.05382
5260.86250,0.05575
5262.79097,0.03622
5264.71944,0.00206
5266.64791,-0.01304
5268.57638,-0.00387
5270.50485,0.00770
5272.43331,0.01371
5274.36178,0.00927
5276.29025,-0.00699
5278.21872,-0.01483
5280.14719,-0.00242
5282.07566,0.00998
5284.00413,0.00926
5285.93259,0.00223
5287.86106,-0.00270
5289.78953,0.00354
5291.71800,0.01680
5293.64647,0.02186
5295.57494,0.01808
5297.50341,0.01548
5299.43188,0.02994
5301.36034,0.05827
5303.28881,0.06988
5305.21728,0.06492
5307.14575,0.06709
5309.07422,0.06903
5311.00269,0.06079
5312.93116,0.04615
5314.85962,0.02572
5316.78809,0.00779
5318.71656,0.00220
5320.64503,0.00942
5322.57350,0.01875
5324.50197,0.02302
5326.43044,0.02606
5328.35891,0.02704
5330.28737,0.03112
5332.21584,0.04156
5334.14431,0.04732
5336.07278,0.04281
5338.00125,0.03060
5339.92972,0.02025
5341.85819,0.02249
5343.78665,0.03566
5345.71512,0.03921
5347.64359,0.02529
5349.57206,0.01389
5351.50053,0.01767
5353.42900,0.03808
5355.35747,0.05823
5357.28594,0.05877
5359.21440,0.04712
5361.14287,0.04456
5363.07134,0.05126
5364.99981,0.04982
5366.92828,0.04506
5368.85675,0.04683
5370.78522,0.05385
5372.71368,0.05889
5374.64215,0.05783
5376.57062,0.05909
5378.49909,0.05508
5380.42756,0.03394
5382.35603,0.01327
5384.28450,0.01359
5386.21297,0.02333
5388.14143,0.02187
5390.06990,0.01794
5391.99837,0.02255
5393.92684,0.03377
5395.85531,0.04008
5397.78378,0.03617
5399.71225,0.03987
5401.64071,0.05963
5403.56918,0.06778
5405.49765,0.05430
5407.42612,0.05032
5409.35459,0.07092
5411.28306,0.09172
5413.21153,0.09069
5415.13999,0.07279
5417.06846,0.04521
5418.99693,0.02289
5420.92540,0.02694
5422.85387,0.04822
5424.78234,0.05573
5426.71081,0.04168
5428.63928,0.03074
5430.56774,0.04321
5432.49621,0.05788
5434.42468,0.04865
5436.35315,0.03546
5438.28162,0.04689
5440.21009,0.05849
5442.13856,0.04359
5444.06702,0.03012
5445.99549,0.04271
5447.92396,0.06271
5449.85243,0.06354
5451.78090,0.04320
5453.70937,0.02850
5455.63784,0.03286
5457.56631,0.04128
5459.49477,0.04054
5461.42324,0.03526
5463.35171,0.04120
5465.28018,0.05562
5467.20865,0.05879
5469.13712,0.05523
5471.06559,0.05850
5472.99405,0.05635
5474.92252,0.04954
5476.85099,0.05344
5478.77946,0.05609
5480.70793,0.06042
5482.63640,0.07748
5484.56487,0.08519
5486.49334,0.06880
5488.42180,0.05237
5490.35027,0.05079
5492.27874,0.04149
5494.20721,0.01871
5496.13568,0.01634
5498.06415,0.04496
5499.99262,0.06792
5501.92108,0.06224
5503.84955,0.05011
5505.77802,0.04999
5507.70649,0.05416
5509.63496,0.04346
5511.56343,0.03071
5513.49190,0.03726
5515.42037,0.05006
5517.34883,0.05446
5519.27730,0.05333
5521.20577,0.05034
5523.13424,0.05283
5525.06271,0.06113
5526.99118,0.06464
5528.91965,0.06587
5530.84811,0.06583
5532.77658,0.06112
5534.70505,0.05367
5536.63352,0.04888
5538.56199,0.05461
5540.49046,0.05917
5542.41893,0.05267
5544.34740,0.04742
5546.27586,0.05177
5548.20433,0.06087
5550.13280,0.06825
5552.06127,0.07154
5553.98974,0.07191
5555.91821,0.07842
5557.84668,0.08662
5559.77514,0.07934
5561.70361,0.05797
5563.63208,0.04257
5565.56055,0.05187
5567.48902,0.06882
5569.41749,0.06546
5571.34596,0.05459
5573.27443,0.05055
5575.20289,0.04749
5577.13136,0.04794
5579.05983,0.05160
5580.98830,0.05554
5582.91677,0.05847
5584.84524,0.05135
5586.77371,0.03463
5588.70217,0.02182
5590.63064,0.02900
5592.55911,0.05426
5594.48758,0.06756
5596.41605,0.05455
5598.34452,0.04320
5600.27299,0.05759
5602.20145,0.09002
5604.12992,0.10551
5606.05839,0.08388
5607.98686,0.07005
5609.91533,0.09235
5611.84380,0.11091
5613.77227,0.10597
5615.70074,0.10062
5617.62920,0.09943
5619.55767,0.08754
5621.48614,0.07359
5623.41461,0.07952
5625.34308,0.09433
5627.27155,0.08410
5629.20002,0.04976
5631.12848,0.02276
5633.05695,0.01661
5634.98542,0.02781
5636.91389,0.04784
5638.84236,0.06581
5640.77083,0.06969
5642.69930,0.06172
5644.62777,0.06252
5646.55623,0.07779
5648.48470,0.08879
5650.41317,0.09073
5652.34164,0.08903
5654.27011,0.08498
5656.19858,0.09702
5658.12705,0.12621
5660.05551,0.13047
5661.98398,0.09380
5663.91245,0.05504
5665.84092,0.04005
5667.76939,0.03672
5669.69786,0.03597
5671.62633,0.04831
5673.55480,0.07271
5675.48326,0.08879
5677.41173,0.08571
5679.34020,0.07196
5681.26867,0.06164
5683.19714,0.05840
5685.12561,0.05778
5687.05408,0.05116
5688.98254,0.03020
5690.91101,0.01243
5692.83948,0.01759
5694.76795,0.04218
5696.69642,0.07707
5698.62489,0.10539
5700.55336,0.11273
5702.48183,0.10785
5704.41029,0.10529
5706.33876,0.10734
5708.26723,0.09802
5710.19570,0.06972
5712.12417,0.06363
5714.05264,0.09535
5715.98111,0.10245
5717.90957,0.08014
5719.83804,0.08637
5721.76651,0.11034
5723.69498,0.10699
5725.62345,0.07514
5727.55192,0.04963
5729.48039,0.05564
5731.40886,0.07523
5733.33732,0.09555
5735.26579,0.10599
5737.19426,0.07708
5739.12273,0.03231
5741.05120,0.02389
5742.97967,0.04196
5744.90814,0.05795
5746.83660,0.07612
5748.76507,0.10366
5750.69354,0.14076
5752.62201,0.16616
5754.55048,0.14865
5756.47895,0.11561
5758.40742,0.10619
5760.33588,0.10530
5762.26435,0.10002
5764.19282,0.09372
5766.12129,0.08334
5768.04976,0.08569
5769.97823,0.10186
5771.90670,0.10268
5773.83517,0.09195
5775.76363,0.08657
5777.69210,0.06332
5779.62057,0.02179
5781.54904,0.01205
5783.47751,0.03086
5785.40598,0.03948
5787.33445,0.05382
5789.26291,0.07624
5791.19138,0.06599
5793.11985,0.03519
5795.04832,0.02519
5796.97679,0.04016
5798.90526,0.06536
5800.83373,0.08191
5802.76220,0.08002
5804.69066,0.07661
5806.61913,0.09164
5808.54760,0.11434
5810.47607,0.11958
5812.40454,0.10329
5814.33301,0.08539
5816.26148,0.08570
5818.18994,0.09780
5820.11841,0.10003
5822.04688,0.09367
5823.97535,0.08887
5825.90382,0.08178
5827.83229,0.06928
5829.76076,0.06715
5831.68923,0.08378
5833.61769,0.08281
5835.54616,0.05232
5837.47463,0.03967
5839.40310,0.05703
5841.33157,0.06779
5843.26004,0.05724
5845.18851,0.04948
5847.11697,0.06312
5849.04544,0.09357
5850.97391,0.12202
5852.90238,0.12687
5854.83085,0.11580
5856.75932,0.11410
5858.68779,0.10326
5860.61626,0.06975
5862.54472,0.06480
5864.47319,0.09486
5866.40166,0.10453
5868.33013,0.08903
5870.25860,0.07618
5872.18707,0.07587
5874.11554,0.08739
5876.04400,0.11085
5877.97247,0.13723
5879.90094,0.12540
5881.82941,0.06699
5883.75788,0.01891
5885.68635,0.01296
5887.61482,0.03903
5889.54329,0.06942
5891.47175,0.07957
5893.40022,0.08437
5895.32869,0.09849
5897.25716,0.10641
5899.18563,0.10066
5901.11410,0.09711
5903.04257,0.09381
5904.97103,0.06754
5906.89950,0.03287
5908.82797,0.01353
5910.75644,-0.00018
5912.68491,0.01021
5914.61338,0.05245
5916.54185,0.06247
5918.47032,0.03730
5920.39878,0.03588
5922.32725,0.04897
5924.25572,0.05988
5926.18419,0.07969
5928.11266,0.07689
5930.04113,0.04376
5931.96960,0.03114
5933.89806,0.04951
5935.82653,0.05533
5937.75500,0.02032
5939.68347,-0.02486
5941.61194,-0.03170
5943.54041,-0.00102
5945.46888,0.02797
5947.39734,0.04421
5949.32581,0.06110
5951.25428,0.05629
5953.18275,0.04307
5955.11122,0.04784
5957.03969,0.02929
5958.96816,0.01548
5960.89663,0.04421
5962.82509,0.07301
5964.75356,0.09478
5966.68203,0.11041
5968.61050,0.10679
5970.53897,0.09638
5972.46744,0.08472
5974.39591,0.04554
5976.32437,-0.00375
5978.25284,-0.01608
5980.18131,-0.01107
5982.10978,-0.01464
5984.03825,-0.01616
5985.96672,-0.01346
5987.89519,0.01047
5989.82366,0.06185
5991.75212,0.09884
5993.68059,0.10313
5995.60906,0.08092
5997.53753,0.05659
5999.46600,0.05802
6001.39447,0.06337
6003.32294,0.05224
6005.25140,0.03619
6007.17987,0.03064
6009.10834,0.04740
6011.03681,0.08371
6012.96528,0.11208
6014.89375,0.10220
6016.82222,0.06344
6018.75069,0.03061
6020.67915,0.02150
6022.60762,0.04312
6024.53609,0.06672
6026.46456,0.04946
6028.39303,0.02303
6030.32150,0.03012
6032.24997,0.04331
6034.17843,0.05871
6036.10690,0.07832
6038.03537,0.05677
6039.96384,0.00740
6041.89231,-0.01271
6043.82078,-0.00036
6045.74925,0.01025
6047.67772,0.01105
6049.60618,0.01950
6051.53465,0.04918
6053.46312,0.10395
6055.39159,0.14316
6057.32006,0.10840
6059.24853,0.06069
6061.17700,0.07622
6063.10546,0.11056
6065.03393,0.12238
6066.96240,0.11860
6068.89087,0.09520
6070.81934,0.06563
6072.74781,0.04081
6074.67628,0.02620
6076.60475,0.03993
6078.53321,0.08279
6080.46168,0.14287
6082.39015,0.17099
6084.31862,0.12208
6086.24709,0.03566
6088.17556,-0.01627
6090.10403,-0.00703
6092.03249,0.03280
6093.96096,0.05140
6095.88943,0.05100
6097.81790,0.06473
6099.74637,0.06587
6101.67484,0.02516
6103.60331,-0.00021
6105.53177,0.01731
6107.46024,0.03052
6109.38871,0.01881
6111.31718,0.00560
6113.24565,0.00876
6115.17412,0.03009
6117.10259,0.06009
6119.03106,0.06332
6120.95952,0.01944
6122.88799,-0.03631
6124.81646,-0.05877
6126.74493,-0.02327
6128.67340,0.04045
6130.60187,0.06001
6132.53034,0.01810
6134.45880,-0.01816
6136.38727,0.00722
6138.31574,0.08175
6140.24421,0.15143
6142.17268,0.15895
6144.10115,0.11035
6146.02962,0.08062
6147.95809,0.08902
6149.88655,0.06679
6151.81502,0.00444
6153.74349,0.00149
6155.67196,0.04879
6157.60043,0.05963
6159.52890,0.04863
6161.45737,0.04222
6163.38583,0.03341
6165.31430,0.03715
6167.24277,0.04095
6169.17124,0.02710
6171.09971,0.03241
6173.02818,0.07313
6174.95665,0.08475
6176.88512,0.04671
6178.81358,0.02457
6180.74205,0.04555
6182.67052,0.08026
6184.59899,0.10328
6186.52746,0.10636
6188.45593,0.09317
6190.38440,0.08454
6192.31286,0.10306
6194.24133,0.11872
6196.16980,0.09401
6198.09827,0.06450
6200.02674,0.05324
6201.95521,0.03205
6203.88368,0.01001
6205.81215,0.02605
6207.74061,0.06847
6209.66908,0.09734
6211.59755,0.09201
6213.52602,0.07564
6215.45449,0.07829
6217.38296,0.07602
6219.31143,0.05845
6221.23989,0.06898
6223.16836,0.09836
6225.09683,0.09623
6227.02530,0.07242
6228.95377,0.05578
6230.88224,0.03600
6232.81071,0.00603
6234.73918,0.00855
6236.66764,0.05060
6238.59611,0.06431
6240.52458,0.05676
6242.45305,0.07632
6244.38152,0.08067
6246.30999,0.07466
6248.23846,0.08698
6250.16692,0.08511
6252.09539,0.07988
6254.02386,0.08768
6255.95233,0.06274
6257.88080,-0.01074
6259.80927,-0.04632
6261.73774,0.00854
6263.66621,0.08834
6265.59467,0.13673
6267.52314,0.16236
6269.45161,0.15936
6271.38008,0.12584
6273.30855,0.08690
6275.23702,0.07200
6277.16549,0.07805
6279.09395,0.06254
6281.02242,0.02855
6282.95089,0.02189
6284.87936,0.03861
6286.80783,0.04556
6288.73630,0.04267
6290.66477,0.04692
6292.59323,0.05723
6294.52170,0.05308
6296.45017,0.04466
6298.37864,0.05504
6300.30711,0.06000
6302.23558,0.04426
6304.16405,0.04363
6306.09252,0.04441
6308.02098,0.00264
6309.94945,-0.03404
6311.87792,0.00094
6313.80639,0.05188
6315.73486,0.05329
6317.66333,0.03704
6319.59180,0.02945
6321.52026,0.02637
6323.44873,0.04592
6325.37720,0.07606
6327.30567,0.08310
6329.23414,0.05707
6331.16261,0.01318
6333.09108,-0.00469
6335.01955,0.01582
6336.94801,0.03938
6338.87648,0.06039
6340.80495,0.07119
6342.73342,0.04948
6344.66189,0.04255
6346.59036,0.06819
6348.51883,0.05545
6350.44729,0.00641
6352.37576,-0.00987
6354.30423,0.02475
6356.23270,0.06001
6358.16117,0.05531
6360.08964,0.03477
6362.01811,0.02425
6363.94658,0.00544
6365.87504,-0.02059
6367.80351,0.01211
6369.73198,0.08928
6371.66045,0.10679
6373.58892,0.05209
6375.51739,0.01001
6377.44586,0.02736
6379.37432,0.06245
6381.30279,0.08299
6383.23126,0.12442
6385.15973,0.15401
6387.08820,0.11741
6389.01667,0.07379
6390.94514,0.07577
6392.87361,0.11589
6394.80207,0.12842
6396.73054,0.08724
6398.65901,0.03100
6400.58748,-0.02298
6402.51595,-0.02896
6404.44442,0.02603
6406.37289,0.08232
6408.30135,0.10253
6410.22982,0.10721
6412.15829,0.10531
6414.08676,0.06362
6416.01523,0.03673
6417.94370,0.08179
6419.87217,0.10514
6421.80064,0.06295
6423.72910,0.01852
6425.65757,-0.00789
6427.58604,-0.02038
6429.51451,-0.00899
6431.44298,0.02897
6433.37145,0.07120
6435.29992,0.10264
6437.22838,0.13925
6439.15685,0.17664
6441.08532,0.18972
6443.01379,0.16217
6444.94226,0.11083
6446.87073,0.09843
6448.79920,0.09054
6450.72766,-0.00008
6452.65613,-0.09561
6454.58460,-0.06704
6456.51307,0.03715
6458.44154,0.07702
6460.37001,0.06330
6462.29848,0.07033
6464.22695,0.07081
6466.15541,0.05706
6468.08388,0.07105
6470.01235,0.10074
6471.94082,0.09164
6473.86929,0.02650
6475.79776,-0.04167
6477.72623,-0.02817
6479.65469,0.05106
6481.58316,0.08852
6483.51163,0.07325
6485.44010,0.06235
6487.36857,0.03775
6489.29704,-0.00552
6491.22551,-0.01592
6493.15398,0.01915
6495.08244,0.05029
6497.01091,0.06364
6498.93938,0.06739
6500.86785,0.05517
6502.79632,0.06568
6504.72479,0.07837
6506.65326,0.04565
6508.58172,0.04155
6510.51019,0.09076
6512.43866,0.08010
6514.36713,-0.00864
6516.29560,-0.04942
6518.22407,-0.00157
6520.15254,0.05074
6522.08101,0.05749
6524.00947,0.02811
6525.93794,0.00197
6527.86641,-0.00941
6529.79488,-0.02779
6531.72335,-0.06310
6533.65182,-0.06003
6535.58029,0.03235
6537.50875,0.12180
6539.43722,0.10001
6541.36569,0.01581
6543.29416,-0.01245
6545.22263,0.02381
6547.15110,0.07916
6549.07957,0.14952
6551.00804,0.17668
6552.93650,0.12749
6554.86497,0.07053
6556.79344,0.03249
6558.72191,0.02555
6560.65038,0.08240
6562.57885,0.13024
6564.50732,0.11648
6566.43578,0.10346
6568.36425,0.09577
6570.29272,0.07686
6572.22119,0.06413
6574.14966,0.02083
6576.07813,-0.04917
6578.00660,-0.04616
6579.93507,0.03218
6581.86353,0.07969
6583.79200,0.05463
6585.72047,0.01200
6587.64894,0.03279
6589.57741,0.09385
6591.50588,0.12102
6593.43435,0.12594
6595.36281,0.13284
6597.29128,0.11971
6599.21975,0.09570
6601.14822,0.07166
6603.07669,0.03679
6605.00516,0.00868
6606.93363,-0.00600
6608.86210,0.00168
6610.79056,0.05816
6612.71903,0.13212
6614.64750,0.15199
6616.57597,0.12574
6618.50444,0.09537
6620.43291,0.05494
6622.36138,0.03849
6624.28984,0.08220
6626.21831,0.14768
6628.14678,0.18534
6630.07525,0.15752
6632.00372,0.13254
6633.93219,0.14049
6635.86066,0.08933
6637.78912,0.02576
6639.71759,0.00744
6641.64606,-0.01657
6643.57453,-0.01142
6645.50300,0.05478
6647.43147,0.12926
6649.35994,0.16305
6651.28841,0.15348
6653.21687,0.12449
6655.14534,0.08752
6657.07381,0.04570
6659.00228,0.01498
6660.93075,0.00234
6662.85922,0.01136
6664.78769,0.05171
6666.71615,0.08943
6668.64462,0.06115
6670.57309,-0.00746
6672.50156,-0.05930
6674.43003,-0.10478
6676.35850,-0.14214
6678.28697,-0.12713
6680.21544,-0.04091
6682.14390,0.06604
6684.07237,0.12525
6686.00084,0.14402
6687.92931,0.13082
6689.85778,0.09516
6691.78625,0.06867
6693.71472,0.02778
6695.64318,0.02028
6697.57165,0.05535
6699.50012,0.04487
6701.42859,0.03925
6703.35706,0.04301
6705.28553,-0.02669
6707.21400,-0.06196
6709.14247,0.03200
6711.07093,0.10332
6712.99940,0.06913
6714.92787,-0.00470
6716.85634,-0.02760
6718.78481,0.04811
6720.71328,0.11981
6722.64175,0.06557
6724.57021,-0.03133
6726.49868,-0.05654
6728.42715,-0.02942
6730.35562,0.03456
6732.28409,0.12683
6734.21256,0.18862
6736.14103,0.21004
6738.06950,0.18830
6739.99796,0.11568
6741.92643,0.04848
6743.85490,0.02609
6745.78337,0.00450
6747.71184,-0.02061
6749.64031,-0.01310
6751.56878,-0.01317
6753.49724,-0.01802
6755.42571,0.01744
6757.35418,0.02888
6759.28265,0.00884
6761.21112,0.07348
6763.13959,0.16621
6765.06806,0.15051
6766.99653,0.11955
6768.92499,0.15583
6770.85346,0.14479
6772.78193,0.07684
6774.71040,0.02434
6776.63887,-0.01869
6778.56734,0.00554
6780.49581,0.08677
6782.42427,0.11311
6784.35274,0.08115
6786.28121,0.08111
6788.20968,0.14348
6790.13815,0.16642
6792.06662,0.11346
6793.99509,0.11041
6795.92355,0.14651
6797.85202,0.12241
6799.78049,0.02671
6801.70896,-0.06082
6803.63743,-0.05711
6805.56590,-0.00277
6807.49437,0.03712
6809.42284,0.05985
6811.35130,0.04941
6813.27977,0.03225
6815.20824,0.08804
6817.13671,0.16329
6819.06518,0.18665
6820.99365,0.19126
6822.92212,0.15870
6824.85058,0.06297
6826.77905,-0.03108
6828.70752,-0.04357
6830.63599,0.01775
6832.56446,0.06708
6834.49293,0.07495
6836.42140,0.01896
6838.34987,-0.05386
6840.27833,-0.05829
6842.20680,-0.01533
6844.13527,0.02717
6846.06374,0.06855
6847.99221,0.10431
6849.92068,0.09449
6851.84915,0.08644
6853.77761,0.15652
6855.70608,0.23613
6857.63455,0.19606
6859.56302,0.06544
6861.49149,-0.02506
6863.41996,-0.00919
6865.34843,0.00237
6867.27690,-0.05758
6869.20536,-0.11886
6871.13383,-0.12290
6873.06230,-0.03586
6874.99077,0.09131
6876.91924,0.17922
6878.84771,0.22331
6880.77618,0.23289
6882.70464,0.22459
6884.63311,0.20887
6886.56158,0.17685
6888.49005,0.13776
6890.41852,0.11609
6892.34699,0.13871
6894.27546,0.16957
6896.20393,0.14510
6898.13239,0.11731
6900.06086,0.14021
6901.98933,0.16011
6903.91780,0.16377
6905.84627,0.15212
6907.77474,0.10051
6909.70321,0.05766
6911.63167,0.06537
6913.56014,0.10573
6915.48861,0.17043
6917.41708,0.18064
6919.34555,0.08755
6921.27402,0.00878
6923.20249,-0.00306
6925.13096,0.01110
6927.05942,0.01041
6928.98789,0.00264
6930.91636,0.00085
6932.84483,-0.02263
6934.77330,-0.05611
6936.70177,-0.06984
6938.63024,-0.04164
6940.55870,0.00197
6942.48717,0.01378
6944.41564,0.01652
6946.34411,0.03495
6948.27258,0.06222
6950.20105,0.09678
6952.12952,0.15588
6954.05799,0.18522
6955.98645,0.12465
6957.91492,0.06039
6959.84339,0.08448
6961.77186,0.16057
6963.70033,0.17364
6965.62880,0.12491
6967.55727,0.09131
6969.48573,0.08562
6971.41420,0.10247
6973.34267,0.10659
6975.27114,0.02233
6977.19961,-0.06696
6979.12808,-0.08013
6981.05655,-0.06049
6982.98501,-0.03082
6984.91348,0.00218
6986.84195,0.02761
6988.77042,0.06078
6990.69889,0.07042
6992.62736,0.01931
6994.55583,-0.02965
6996.48430,-0.03012
6998.41276,-0.01189
7000.34123,0.01647
7002.26970,0.04887
7004.19817,0.06299
7006.12664,0.04877
7008.05511,0.04243
7009.98358,0.04327
7011.91204,0.01816
7013.84051,0.00681
7015.76898,0.05667
7017.69745,0.17594
7019.62592,0.26177
7021.55439,0.17245
7023.48286,-0.01357
7025.41133,-0.08705
7027.33979,-0.00780
7029.26826,0.09099
7031.19673,0.11114
7033.12520,0.05345
7035.05367,-0.04640
7036.98214,-0.04965
7038.91061,0.05389
7040.83907,0.11527
7042.76754,0.05600
7044.69601,-0.04868
7046.62448,-0.08474
7048.55295,-0.02829
7050.48142,0.03323
7052.40989,0.09379
7054.33836,0.21794
7056.26682,0.33853
7058.19529,0.28792
7060.12376,0.11056
7062.05223,0.01650
7063.98070,0.06490
7065.90917,0.14538
7067.83764,0.16042
7069.76610,0.13957
7071.69457,0.11108
7073.62304,0.03475
7075.55151,-0.01435
7077.47998,0.04695
7079.40845,0.13944
7081.33692,0.09507
7083.26539,-0.00279
7085.19385,-0.00093
7087.12232,0.03544
7089.05079,0.05318
7090.97926,0.11206
7092.90773,0.22507
7094.83620,0.27902
7096.76467,0.22787
7098.69313,0.12012
7100.62160,0.03519
7102.55007,0.01185
7104.47854,0.03738
7106.40701,0.04143
7108.33548,-0.04513
7110.26395,-0.12159
7112.19242,-0.10235
7114.12088,-0.01534
7116.04935,0.10259
7117.97782,0.17540
7119.90629,0.14073
7121.83476,0.08202
7123.76323,0.06984
7125.69170,0.09331
7127.62016,0.15298
7129.54863,0.21585
7131.47710,0.17689
7133.40557,0.10824
7135.33404,0.11871
7137.26251,0.07568
7139.19098,-0.04089
7141.11944,-0.06149
7143.04791,-0.00041
7144.97638,0.04293
7146.90485,0.04721
7148.83332,0.05250
7150.76179,0.06992
7152.69026,0.04548
7154.61873,-0.01303
7156.54719,-0.05670
7158.47566,-0.03914
7160.40413,0.05396
7162.33260,0.17516
7164.26107,0.27366
7166.18954,0.25240
7168.11801,0.11917
7170.04647,0.07700
7171.97494,0.12212
7173.90341,0.10878
7175.83188,0.05081
7177.76035,-0.02168
7179.68882,-0.08078
7181.61729,-0.05639
7183.54576,0.04649
7185.47422,0.10644
7187.40269,0.07931
7189.33116,0.07304
7191.25963,0.18138
7193.18810,0.32706
7195.11657,0.36963
7197.04504,0.24035
7198.97350,0.07975
7200.90197,0.03724
7202.83044,0.04102
7204.75891,0.04447
7206.68738,0.08978
7208.61585,0.09319
7210.54432,0.00146
7212.47279,-0.08809
7214.40125,-0.10632
7216.32972,-0.09326
7218.25819,-0.03050
7220.18666,0.08064
7222.11513,0.17542
7224.04360,0.25533
7225.97207,0.26097
7227.90053,0.15940
7229.82900,0.02653
7231.75747,-0.03987
7233.68594,-0.01503
7235.61441,-0.02994
7237.54288,-0.03954
7239.47135,0.06860
7241.39982,0.16580
7243.32828,0.19784
7245.25675,0.19762
7247.18522,0.15179
7249.11369,0.16679
7251.04216,0.26880
7252.97063,0.29550
7254.89910,0.18808
7256.82756,0.08457
7258.75603,-0.00167
7260.68450,-0.06885
7262.61297,-0.07326
7264.54144,-0.07587
7266.46991,-0.06596
7268.39838,-0.00379
7270.32685,0.06075
7272.25531,0.03544
7274.18378,-0.09132
7276.11225,-0.13119
7278.04072,-0.05600
7279.96919,-0.01461
7281.89766,-0.03587
7283.82613,-0.03140
7285.75459,-0.01787
7287.68306,0.00043
7289.61153,0.04804
7291.54000,0.02731
7293.46847,-0.06209
7295.39694,-0.00476
7297.32541,0.15608
7299.25387,0.22304
7301.18234,0.21249
7303.11081,0.15151
7305.03928,0.01823
7306.96775,-0.09715
7308.89622,-0.06307
7310.82469,0.04576
7312.75316,0.06493
7314.68162,0.06902
7316.61009,0.13155
7318.53856,0.06956
7320.46703,0.00785
7322.39550,0.12473
7324.32397,0.27088
7326.25244,0.26938
7328.18090,0.10342
7330.10937,-0.05059
7332.03784,0.00531
7333.96631,0.11481
7335.89478,0.16739
7337.82325,0.23136
7339.75172,0.29049
7341.68019,0.21883
7343.60865,0.15332
7345.53712,0.18362
7347.46559,0.21183
7349.39406,0.13358
7351.32253,0.00693
7353.25100,-0.05271
7355.17947,-0.01472
7357.10793,0.04825
7359.03640,0.03713
7360.96487,0.10467
7362.89334,0.31289
7364.82181,0.39929
7366.75028,0.27917
7368.67875,0.11029
7370.60722,-0.00146
7372.53568,-0.06240
7374.46415,0.01819
7376.39262,0.22236
7378.32109,0.19760
7380.24956,0.03542
7382.17803,0.03175
7384.10650,0.16596
7386.03496,0.14430
7387.96343,0.00173
7389.89190,-0.03152
7391.82037,-0.00923
7393.74884,-0.05501
7395.67731,-0.12454
7397.60578,-0.12464
7399.53425,-0.08645
7401.46271,-0.05973
7403.39118,-0.04604
7405.31965,-0.02287
7407.24812,0.04079
7409.17659,0.14105
7411.10506,0.14982
7413.03353,0.00219
7414.96199,-0.13650
7416.89046,-0.12183
7418.81893,-0.01236
7420.74740,0.02630
7422.67587,0.01103
7424.60434,0.02539
7426.53281,0.11359
7428.46128,0.25423
7430.38974,0.41223
7432.31821,0.52914
7434.24668,0.43139
7436.17515,0.15001
7438.10362,-0.02802
7440.03209,-0.04834
7441.96056,0.01112
7443.88902,0.08393
7445.81749,0.14603
7447.74596,0.26477
7449.67443,0.36997
7451.60290,0.31301
7453.53137,0.21303
7455.45984,0.17327
7457.38831,0.08436
7459.31677,-0.02235
7461.24524,0.04778
7463.17371,0.21058
7465.10218,0.28061
7467.03065,0.23074
7468.95912,0.13896
7470.88759,0.08299
7472.81605,0.14733
7474.74452,0.26813
7476.67299,0.23837
7478.60146,0.00553
7480.52993,-0.16647
7482.45840,-0.14894
7484.38687,-0.14588
7486.31533,-0.15916
7488.24380,-0.08202
7490.17227,0.00564
7492.10074,0.03603
7494.02921,0.03909
7495.95768,0.00162
7497.88615,-0.03366
