399.19301,0.19535
401.12148,0.02910
403.04995,0.26238
404.97842,0.34624
406.90689,0.41569
408.83536,0.44812
410.76382,0.34305
412.69229,0.17963
414.62076,0.10479
416.54923,0.11777
418.47770,0.14472
420.40617,0.12320
422.33464,0.07665
424.26311,0.06250
426.19157,0.10005
428.12004,0.11441
430.04851,0.10681
431.97698,0.07507
433.90545,0.04939
435.83392,0.09119
437.76239,0.15182
439.69085,0.15053
441.61932,0.09056
443.54779,0.08944
445.47626,0.11714
447.40473,0.07366
449.33320,0.01905
451.26167,0.03234
453.19013,0.06266
455.11860,0.05819
457.04707,0.04511
458.97554,0.02285
460.90401,-0.01694
462.83248,-0.04866
464.76095,-0.05575
466.68942,-0.03737
468.61788,0.00607
470.54635,0.06606
472.47482,0.16496
474.40329,0.21090
476.33176,0.12277
478.26023,0.04905
480.18870,-0.00937
482.11716,-0.02664
484.04563,0.01270
485.97410,0.03171
487.90257,0.01025
489.83104,0.00398
491.75951,0.03159
493.68798,0.06349
495.61645,0.08286
497.54491,0.08789
499.47338,0.08554
501.40185,0.06391
503.33032,0.03218
505.25879,0.03246
507.18726,0.08570
509.11573,0.13269
511.04419,0.10252
512.97266,0.05247
514.90113,0.06543
516.82960,0.11204
518.75807,0.10616
520.68654,0.06244
522.61501,0.02936
524.54348,0.01688
526.47194,0.00974
528.40041,-0.01018
530.32888,-0.01163
532.25735,0.02548
534.18582,0.06089
536.11429,0.06519
538.04276,0.05966
539.97122,0.05108
541.89969,0.04530
543.82816,0.05378
545.75663,0.05898
547.68510,0.05825
549.61357,0.06387
551.54204,0.09092
553.47051,0.12869
555.39897,0.13490
557.32744,0.10866
559.25591,0.09035
561.18438,0.08359
563.11285,0.07880
565.04132,0.07855
566.96979,0.06650
568.89825,0.05365
570.82672,0.07257
572.75519,0.10011
574.68366,0.09376
576.61213,0.06552
578.54060,0.06012
580.46907,0.09189
582.39754,0.12962
584.32600,0.13472
586.25447,0.11395
588.18294,0.09844
590.11141,0.09572
592.03988,0.08911
593.96835,0.06504
595.89682,0.04666
597.82528,0.06358
599.75375,0.08707
601.68222,0.07729
603.61069,0.04741
605.53916,0.03900
607.46763,0.06093
609.39610,0.07745
611.32456,0.07921
613.25303,0.08652
615.18150,0.10228
617.10997,0.11125
619.03844,0.09831
620.96691,0.08249
622.89538,0.08534
624.82385,0.09639
626.75231,0.10687
628.68078,0.11240
630.60925,0.11612
632.53772,0.11597
634.46619,0.09910
636.39466,0.08299
638.32313,0.08498
640.25159,0.09414
642.18006,0.09367
644.10853,0.08476
646.03700,0.07337
647.96547,0.05610
649.89394,0.04853
651.82241,0.06358
653.75088,0.07617
655.67934,0.06665
657.60781,0.05832
659.53628,0.06849
661.46475,0.07964
663.39322,0.08357
665.32169,0.08337
667.25016,0.08912
669.17862,0.10653
671.10709,0.10888
673.03556,0.10716
674.96403,0.10591
676.89250,0.10034
678.82097,0.10364
680.74944,0.11198
682.67791,0.11258
684.60637,0.11185
686.53484,0.11120
688.46331,0.10603
690.39178,0.10364
692.32025,0.10402
694.24872,0.09945
696.17719,0.09791
698.10565,0.09558
700.03412,0.08464
701.96259,0.07899
703.89106,0.08363
705.81953,0.09174
707.74800,0.10928
709.67647,0.14731
711.60494,0.17812
713.53340,0.16469
715.46187,0.12775
717.39034,0.09998
719.31881,0.09021
721.24728,0.09992
723.17575,0.10739
725.10422,0.09728
727.03268,0.08351
728.96115,0.07664
730.88962,0.08105
732.81809,0.09488
734.74656,0.10176
736.67503,0.10059
738.60350,0.10328
740.53197,0.10809
742.46043,0.11542
744.38890,0.12005
746.31737,0.11034
748.24584,0.09996
750.17431,0.09889
752.10278,0.09498
754.03125,0.08310
755.95971,0.07007
757.88818,0.06519
759.81665,0.07581
761.74512,0.09227
763.67359,0.09739
765.60206,0.09851
767.53053,0.10665
769.45900,0.11693
771.38746,0.12129
773.31593,0.11764
775.24440,0.11294
777.17287,0.10775
779.10134,0.10176
781.02981,0.10532
782.95828,0.11455
784.88674,0.10775
786.81521,0.08597
788.74368,0.07362
790.67215,0.07835
792.60062,0.08622
794.52909,0.08500
796.45756,0.07954
798.38602,0.07895
800.31449,0.08721
802.24296,0.10493
804.17143,0.12108
806.09990,0.12308
808.02837,0.11174
809.95684,0.09729
811.88531,0.08867
813.81377,0.08732
815.74224,0.08831
817.67071,0.09187
819.59918,0.09822
821.52765,0.10125
823.45612,0.10192
825.38459,0.10353
827.31305,0.10656
829.24152,0.11174
831.16999,0.11192
833.09846,0.10540
835.02693,0.10089
836.95540,0.09862
838.88387,0.09911
840.81234,0.10394
842.74080,0.10267
844.66927,0.09193
846.59774,0.08808
848.52621,0.09779
850.45468,0.10509
852.38315,0.10594
854.31162,0.10871
856.24008,0.10834
858.16855,0.10489
860.09702,0.10357
862.02549,0.10194
863.95396,0.10135
865.88243,0.10427
867.81090,0.11482
869.73937,0.12865
871.66783,0.12589
873.59630,0.10683
875.52477,0.09322
877.45324,0.09424
879.38171,0.10293
881.31018,0.10783
883.23865,0.10490
885.16711,0.10180
887.09558,0.10831
889.02405,0.11805
890.95252,0.11333
892.88099,0.10348
894.80946,0.10824
896.73793,0.11614
898.66640,0.11018
900.59486,0.09719
902.52333,0.09369
904.45180,0.10036
906.38027,0.10642
908.30874,0.11233
910.23721,0.12151
912.16568,0.12783
914.09414,0.12885
916.02261,0.12983
917.95108,0.12875
919.87955,0.11979
921.80802,0.11109
923.73649,0.11310
925.66496,0.11920
927.59343,0.12232
929.52189,0.12037
931.45036,0.11051
933.37883,0.09942
935.30730,0.09774
937.23577,0.10827
939.16424,0.11999
941.09271,0.12014
943.02117,0.11530
944.94964,0.11518
946.87811,0.11568
948.80658,0.11608
950.73505,0.11962
952.66352,0.12149
954.59199,0.11574
956.52045,0.10663
958.44892,0.10713
960.37739,0.11713
962.30586,0.12274
964.23433,0.12268
966.16280,0.12251
968.09127,0.11669
970.01974,0.10782
971.94820,0.10962
973.87667,0.12068
975.80514,0.12977
977.73361,0.12929
979.66208,0.12196
981.59055,0.12095
983.51902,0.12509
985.44748,0.12132
987.37595,0.11275
989.30442,0.11017
991.23289,0.11431
993.16136,0.11934
995.08983,0.11878
997.01830,0.11542
998.94677,0.11716
1000.87523,0.12088
1002.80370,0.12113
1004.73217,0.12027
1006.66064,0.11976
1008.58911,0.11912
1010.51758,0.12207
1012.44605,0.12919
1014.37451,0.13317
1016.30298,0.13191
1018.23145,0.13138
1020.15992,0.13224
1022.08839,0.13107
1024.01686,0.12928
1025.94533,0.13697
1027.87380,0.14823
1029.80226,0.14376
1031.73073,0.13453
1033.65920,0.13031
1035.58767,0.12469
1037.51614,0.12291
1039.44461,0.12528
1041.37308,0.12550
1043.30154,0.12129
1045.23001,0.11746
1047.15848,0.12108
1049.08695,0.13126
1051.01542,0.13818
1052.94389,0.13647
1054.87236,0.13323
1056.80083,0.13301
1058.72929,0.13390
1060.65776,0.13377
1062.58623,0.13116
1064.51470,0.12894
1066.44317,0.13518
1068.37164,0.14607
1070.30011,0.15351
1072.22857,0.16075
1074.15704,0.16151
1076.08551,0.14948
1078.01398,0.13476
1079.94245,0.12915
1081.87092,0.13230
1083.79939,0.13006
1085.72786,0.12082
1087.65632,0.11867
1089.58479,0.12184
1091.51326,0.12457
1093.44173,0.13354
1095.37020,0.14676
1097.29867,0.14980
1099.22714,0.13946
1101.15560,0.13109
1103.08407,0.13447
1105.01254,0.14020
1106.94101,0.13815
1108.86948,0.13387
1110.79795,0.13808
1112.72642,0.14379
1114.65489,0.13885
1116.58335,0.12974
1118.51182,0.12648
1120.44029,0.13001
1122.36876,0.13638
1124.29723,0.13775
1126.22570,0.13428
1128.15417,0.13405
1130.08263,0.13681
1132.01110,0.13642
1133.93957,0.13179
1135.86804,0.12803
1137.79651,0.12710
1139.72498,0.12735
1141.65345,0.13096
1143.58191,0.13791
1145.51038,0.14234
1147.43885,0.14094
1149.36732,0.13913
1151.29579,0.14119
1153.22426,0.14332
1155.15273,0.14203
1157.08120,0.13882
1159.00966,0.13867
1160.93813,0.14156
1162.86660,0.14061
1164.79507,0.13574
1166.72354,0.13392
1168.65201,0.13442
1170.58048,0.13151
1172.50894,0.12938
1174.43741,0.13395
1176.36588,0.13929
1178.29435,0.13808
1180.22282,0.13526
1182.15129,0.13897
1184.07976,0.14328
1186.00823,0.14177
1187.93669,0.14055
1189.86516,0.14261
1191.79363,0.14623
1193.72210,0.14861
1195.65057,0.14619
1197.57904,0.14159
1199.50751,0.13724
1201.43597,0.13315
1203.36444,0.13396
1205.29291,0.14023
1207.22138,0.14323
1209.14985,0.14135
1211.07832,0.14036
1213.00679,0.14149
1214.93526,0.14453
1216.86372,0.14760
1218.79219,0.14906
1220.72066,0.14861
1222.64913,0.14549
1224.57760,0.14265
1226.50607,0.14307
1228.43454,0.14550
1230.36300,0.14746
1232.29147,0.14914
1234.21994,0.14866
1236.14841,0.14456
1238.07688,0.14225
1240.00535,0.14369
1241.93382,0.14545
1243.86229,0.14539
1245.79075,0.14428
1247.71922,0.14547
1249.64769,0.14910
1251.57616,0.15093
1253.50463,0.15176
1255.43310,0.15403
1257.36157,0.15177
1259.29003,0.14505
1261.21850,0.14383
1263.14697,0.14839
1265.07544,0.15048
1267.00391,0.14548
1268.93238,0.13792
1270.86085,0.13726
1272.78932,0.14286
1274.71778,0.14628
1276.64625,0.14688
1278.57472,0.14856
1280.50319,0.15027
1282.43166,0.15153
1284.36013,0.15414
1286.28860,0.15580
1288.21706,0.15491
1290.14553,0.15291
1292.07400,0.15121
1294.00247,0.15111
1295.93094,0.15076
1297.85941,0.14896
1299.78788,0.14673
1301.71634,0.14193
1303.64481,0.13351
1305.57328,0.13053
1307.50175,0.13923
1309.43022,0.14955
1311.35869,0.15421
1313.28716,0.15564
1315.21563,0.15507
1317.14409,0.15490
1319.07256,0.15673
1321.00103,0.15628
1322.92950,0.15437
1324.85797,0.15566
1326.78644,0.15677
1328.71491,0.15511
1330.64337,0.15236
1332.57184,0.14996
1334.50031,0.14888
1336.42878,0.14962
1338.35725,0.15387
1340.28572,0.16069
1342.21419,0.17011
1344.14266,0.17502
1346.07112,0.16476
1347.99959,0.15108
1349.92806,0.14807
1351.85653,0.14999
1353.78500,0.15126
1355.71347,0.15249
1357.64194,0.15589
1359.57040,0.16163
1361.49887,0.16453
1363.42734,0.16117
1365.35581,0.15806
1367.28428,0.15797
1369.21275,0.15640
1371.14122,0.15731
1373.06969,0.16597
1374.99815,0.17084
1376.92662,0.16301
1378.85509,0.15391
1380.78356,0.15179
1382.71203,0.15668
1384.64050,0.16593
1386.56897,0.17245
1388.49743,0.16823
1390.42590,0.16254
1392.35437,0.16639
1394.28284,0.17635
1396.21131,0.18213
1398.13978,0.17933
1400.06825,0.17101
1401.99672,0.16553
1403.92518,0.16654
1405.85365,0.16839
1407.78212,0.16871
1409.71059,0.17078
1411.63906,0.17235
1413.56753,0.17195
1415.49600,0.17234
1417.42446,0.17492
1419.35293,0.17590
1421.28140,0.17161
1423.20987,0.16798
1425.13834,0.16681
1427.06681,0.16698
1428.99528,0.16900
1430.92375,0.17063
1432.85221,0.17074
1434.78068,0.17282
1436.70915,0.17495
1438.63762,0.17028
1440.56609,0.16332
1442.49456,0.16000
1444.42303,0.16221
1446.35149,0.16807
1448.27996,0.17141
1450.20843,0.17002
1452.13690,0.17212
1454.06537,0.18158
1455.99384,0.19525
1457.92231,0.19731
1459.85077,0.18337
1461.77924,0.17619
1463.70771,0.17766
1465.63618,0.17825
1467.56465,0.17599
1469.49312,0.17862
1471.42159,0.18859
1473.35006,0.19624
1475.27852,0.18953
1477.20699,0.18189
1479.13546,0.18038
1481.06393,0.17763
1482.99240,0.17048
1484.92087,0.16764
1486.84934,0.17437
1488.77780,0.18248
1490.70627,0.18028
1492.63474,0.17803
1494.56321,0.18393
1496.49168,0.19249
1498.42015,0.19697
1500.34862,0.20041
1502.27709,0.20383
1504.20555,0.20888
1506.13402,0.21853
1508.06249,0.21533
1509.99096,0.20196
1511.91943,0.19465
1513.84790,0.19516
1515.77637,0.20234
1517.70483,0.20895
1519.63330,0.21476
1521.56177,0.21949
1523.49024,0.21413
1525.41871,0.20634
1527.34718,0.19695
1529.27565,0.18872
1531.20412,0.18950
1533.13258,0.19583
1535.06105,0.19822
1536.98952,0.20267
1538.91799,0.22197
1540.84646,0.24406
1542.77493,0.23141
1544.70340,0.20950
1546.63186,0.19407
1548.56033,0.18571
1550.48880,0.18185
1552.41727,0.18248
1554.34574,0.19098
1556.27421,0.21077
1558.20268,0.23489
1560.13115,0.21840
1562.05961,0.19714
1563.98808,0.19206
1565.91655,0.19196
1567.84502,0.19562
1569.77349,0.19723
1571.70196,0.19237
1573.63043,0.19351
1575.55889,0.19718
1577.48736,0.18877
1579.41583,0.17906
1581.34430,0.17649
1583.27277,0.17772
1585.20124,0.17914
1587.12971,0.17994
1589.05818,0.17927
1590.98664,0.17761
1592.91511,0.17917
1594.84358,0.18240
1596.77205,0.18211
1598.70052,0.18068
1600.62899,0.18159
1602.55746,0.18350
1604.48592,0.18512
1606.41439,0.18597
1608.34286,0.18456
1610.27133,0.18281
1612.19980,0.18543
1614.12827,0.19298
1616.05674,0.20130
1617.98521,0.20079
1619.91367,0.19645
1621.84214,0.19657
1623.77061,0.19592
1625.69908,0.19255
1627.62755,0.19148
1629.55602,0.18843
1631.48449,0.18487
1633.41295,0.19098
1635.34142,0.20539
1637.26989,0.20080
1639.19836,0.18628
1641.12683,0.18135
1643.05530,0.18669
1644.98377,0.20113
1646.91223,0.21624
1648.84070,0.21722
1650.76917,0.21914
1652.69764,0.22576
1654.62611,0.21008
1656.55458,0.19064
1658.48305,0.18056
1660.41152,0.18060
1662.33998,0.19102
1664.26845,0.19922
1666.19692,0.20300
1668.12539,0.21076
1670.05386,0.21552
1671.98233,0.20940
1673.91080,0.20197
1675.83926,0.19701
1677.76773,0.19668
1679.69620,0.20037
1681.62467,0.20909
1683.55314,0.22167
1685.48161,0.21656
1687.41008,0.20358
1689.33855,0.19605
1691.26701,0.18985
1693.19548,0.19012
1695.12395,0.20275
1697.05242,0.21906
1698.98089,0.22388
1700.90936,0.21554
1702.83783,0.20850
1704.76629,0.20715
1706.69476,0.19952
1708.62323,0.18927
1710.55170,0.18647
1712.48017,0.19065
1714.40864,0.20075
1716.33711,0.21133
1718.26558,0.20503
1720.19404,0.19088
1722.12251,0.18609
1724.05098,0.18750
1725.97945,0.18899
1727.90792,0.19208
1729.83639,0.19775
1731.76486,0.20494
1733.69332,0.21030
1735.62179,0.20280
1737.55026,0.19439
1739.47873,0.19434
1741.40720,0.19709
1743.33567,0.19644
1745.26414,0.19669
1747.19261,0.20139
1749.12107,0.20425
1751.04954,0.19660
1752.97801,0.18723
1754.90648,0.18650
1756.83495,0.19056
1758.76342,0.19265
1760.69189,0.19364
1762.62035,0.19330
1764.54882,0.19074
1766.47729,0.18924
1768.40576,0.19009
1770.33423,0.19498
1772.26270,0.19953
1774.19117,0.19384
1776.11964,0.18522
1778.04810,0.18276
1779.97657,0.18767
1781.90504,0.19228
1783.83351,0.19032
1785.76198,0.18479
1787.69045,0.18234
1789.61892,0.18725
1791.54738,0.19409
1793.47585,0.19381
1795.40432,0.19058
1797.33279,0.18742
1799.26126,0.18428
1801.18973,0.18316
1803.11820,0.18287
1805.04666,0.18286
1806.97513,0.18471
1808.90360,0.18645
1810.83207,0.18629
1812.76054,0.18539
1814.68901,0.18324
1816.61748,0.18141
1818.54595,0.18147
1820.47441,0.18238
1822.40288,0.18713
1824.33135,0.19481
1826.25982,0.19836
1828.18829,0.19947
1830.11676,0.19723
1832.04523,0.18845
1833.97369,0.18258
1835.90216,0.18334
1837.83063,0.18580
1839.75910,0.18720
1841.68757,0.19044
1843.61604,0.19540
1845.54451,0.19387
1847.47298,0.18670
1849.40144,0.18139
1851.32991,0.17939
1853.25838,0.17874
1855.18685,0.17851
1857.11532,0.17965
1859.04379,0.18137
1860.97226,0.18322
1862.90072,0.18647
1864.82919,0.19094
1866.75766,0.19561
1868.68613,0.19715
1870.61460,0.19288
1872.54307,0.18776
1874.47154,0.18474
1876.40001,0.18288
1878.32847,0.18267
1880.25694,0.18416
1882.18541,0.18575
1884.11388,0.18714
1886.04235,0.18893
1887.97082,0.19065
1889.89929,0.18930
1891.82775,0.18577
1893.75622,0.18415
1895.68469,0.18268
1897.61316,0.18066
1899.54163,0.18158
1901.47010,0.18487
1903.39857,0.18570
1905.32704,0.18466
1907.25550,0.18755
1909.18397,0.19116
1911.11244,0.18916
1913.04091,0.18523
1914.96938,0.18387
1916.89785,0.18667
1918.82632,0.19194
1920.75478,0.19373
1922.68325,0.19159
1924.61172,0.18845
1926.54019,0.18575
1928.46866,0.18410
1930.39713,0.18235
1932.32560,0.17975
1934.25407,0.17956
1936.18253,0.18321
1938.11100,0.18666
1940.03947,0.18861
1941.96794,0.19078
1943.89641,0.19045
1945.82488,0.18636
1947.75335,0.18236
1949.68181,0.18141
1951.61028,0.18229
1953.53875,0.18231
1955.46722,0.18269
1957.39569,0.18327
1959.32416,0.18223
1961.25263,0.18215
1963.18110,0.18435
1965.10956,0.18658
1967.03803,0.18749
1968.96650,0.18768
1970.89497,0.18749
1972.82344,0.18602
1974.75191,0.18360
1976.68038,0.18223
1978.60884,0.18295
1980.53731,0.18368
1982.46578,0.18238
1984.39425,0.18070
1986.32272,0.18104
1988.25119,0.18362
1990.17966,0.18692
1992.10812,0.18912
1994.03659,0.18843
1995.96506,0.18515
1997.89353,0.18326
1999.82200,0.18470
2001.75047,0.18627
2003.67894,0.18564
2005.60741,0.18508
2007.53587,0.18655
2009.46434,0.18809
2011.39281,0.18786
2013.32128,0.18611
2015.24975,0.18487
2017.17822,0.18494
2019.10669,0.18467
2021.03515,0.18516
2022.96362,0.18610
2024.89209,0.18497
2026.82056,0.18291
2028.74903,0.18247
2030.67750,0.18441
2032.60597,0.18710
2034.53444,0.18889
2036.46290,0.19048
2038.39137,0.19117
2040.31984,0.19050
2042.24831,0.19146
2044.17678,0.19251
2046.10525,0.19032
2048.03372,0.18855
2049.96218,0.18821
2051.89065,0.18708
2053.81912,0.18712
2055.74759,0.18805
2057.67606,0.18784
2059.60453,0.18694
2061.53300,0.18597
2063.46147,0.18648
2065.38993,0.18850
2067.31840,0.19014
2069.24687,0.19213
2071.17534,0.19371
2073.10381,0.19199
2075.03228,0.18831
2076.96075,0.18571
2078.88921,0.18430
2080.81768,0.18322
2082.74615,0.18270
2084.67462,0.18342
2086.60309,0.18477
2088.53156,0.18545
2090.46003,0.18534
2092.38850,0.18503
2094.31696,0.18670
2096.24543,0.19111
2098.17390,0.19345
2100.10237,0.19129
2102.03084,0.18860
2103.95931,0.18783
2105.88778,0.18837
2107.81624,0.19012
2109.74471,0.19182
2111.67318,0.19044
2113.60165,0.18714
2115.53012,0.18666
2117.45859,0.18814
2119.38706,0.18660
2121.31553,0.18279
2123.24399,0.18185
2125.17246,0.18476
2127.10093,0.18803
2129.02940,0.18805
2130.95787,0.18590
2132.88634,0.18654
2134.81481,0.19005
2136.74327,0.19287
2138.67174,0.19395
2140.60021,0.19313
2142.52868,0.19160
2144.45715,0.19060
2146.38562,0.18861
2148.31409,0.18652
2150.24255,0.18636
2152.17102,0.18681
2154.09949,0.18751
2156.02796,0.18880
2157.95643,0.18913
2159.88490,0.18783
2161.81337,0.18736
2163.74184,0.18976
2165.67030,0.19166
2167.59877,0.18971
2169.52724,0.18701
2171.45571,0.18765
2173.38418,0.19106
2175.31265,0.19386
2177.24112,0.19306
2179.16958,0.19005
2181.09805,0.18871
2183.02652,0.18863
2184.95499,0.18723
2186.88346,0.18467
2188.81193,0.18353
2190.74040,0.18447
2192.66887,0.18533
2194.59733,0.18512
2196.52580,0.18502
2198.45427,0.18677
2200.38274,0.18947
2202.31121,0.19083
2204.23968,0.19145
2206.16815,0.19214
2208.09661,0.19207
2210.02508,0.19113
2211.95355,0.18920
2213.88202,0.18684
2215.81049,0.18597
2217.73896,0.18596
2219.66743,0.18599
2221.59590,0.18770
2223.52436,0.19169
2225.45283,0.19521
2227.38130,0.19563
2229.30977,0.19440
2231.23824,0.19340
2233.16671,0.19302
2235.09518,0.19271
2237.02364,0.19152
2238.95211,0.19062
2240.88058,0.18996
2242.80905,0.18865
2244.73752,0.18737
2246.66599,0.18641
2248.59446,0.18738
2250.52293,0.19036
2252.45139,0.19220
2254.37986,0.19209
2256.30833,0.19055
2258.23680,0.18943
2260.16527,0.19163
2262.09374,0.19427
2264.02221,0.19400
2265.95067,0.19317
2267.87914,0.19271
2269.80761,0.19191
2271.73608,0.19244
2273.66455,0.19428
2275.59302,0.19572
2277.52149,0.19659
2279.44996,0.19643
2281.37842,0.19443
2283.30689,0.19268
2285.23536,0.19244
2287.16383,0.19035
2289.09230,0.18830
2291.02077,0.19165
2292.94924,0.19713
2294.87770,0.19946
2296.80617,0.19890
2298.73464,0.19882
2300.66311,0.19926
2302.59158,0.19914
2304.52005,0.20081
2306.44852,0.20390
2308.37699,0.20667
2310.30545,0.20794
2312.23392,0.20692
2314.16239,0.20672
2316.09086,0.20743
2318.01933,0.20654
2319.94780,0.20658
2321.87627,0.20969
2323.80473,0.21530
2325.73320,0.22316
2327.66167,0.23261
2329.59014,0.24245
2331.51861,0.24593
2333.44708,0.24316
2335.37555,0.24223
2337.30401,0.23914
2339.23248,0.23358
2341.16095,0.23387
2343.08942,0.23479
2345.01789,0.22829
2346.94636,0.22145
2348.87483,0.21879
2350.80330,0.22001
2352.73176,0.22745
2354.66023,0.23883
2356.58870,0.25317
2358.51717,0.26902
2360.44564,0.26903
2362.37411,0.26059
2364.30258,0.25839
2366.23104,0.25482
2368.15951,0.24493
2370.08798,0.23071
2372.01645,0.22033
2373.94492,0.21699
2375.87339,0.21330
2377.80186,0.20662
2379.73033,0.20100
2381.65879,0.19817
2383.58726,0.19641
2385.51573,0.19269
2387.44420,0.18716
2389.37267,0.18452
2391.30114,0.18626
2393.22961,0.18952
2395.15807,0.19275
2397.08654,0.19574
2399.01501,0.19780
2400.94348,0.19662
2402.87195,0.19298
2404.80042,0.19156
2406.72889,0.19225
2408.65736,0.19224
2410.58582,0.19161
2412.51429,0.19104
2414.44276,0.19076
2416.37123,0.18969
2418.29970,0.18803
2420.22817,0.18833
2422.15664,0.19022
2424.08510,0.19145
2426.01357,0.19170
2427.94204,0.19175
2429.87051,0.19253
2431.79898,0.19470
2433.72745,0.19623
2435.65592,0.19478
2437.58439,0.19253
2439.51285,0.19069
2441.44132,0.18901
2443.36979,0.18991
2445.29826,0.19336
2447.22673,0.19547
2449.15520,0.19358
2451.08367,0.19068
2453.01213,0.19100
2454.94060,0.19331
2456.86907,0.19511
2458.79754,0.19511
2460.72601,0.19354
2462.65448,0.19317
2464.58295,0.19314
2466.51142,0.19091
2468.43988,0.18937
2470.36835,0.19124
2472.29682,0.19508
2474.22529,0.19782
2476.15376,0.19746
2478.08223,0.19599
2480.01070,0.19563
2481.93916,0.19452
2483.86763,0.19190
2485.79610,0.19079
2487.72457,0.19240
2489.65304,0.19351
2491.58151,0.19234
2493.50998,0.19287
2495.43844,0.19509
2497.36691,0.19470
2499.29538,0.19430
2501.22385,0.19601
2503.15232,0.19629
2505.08079,0.19451
2507.00926,0.19396
2508.93773,0.19578
2510.86619,0.19694
2512.79466,0.19617
2514.72313,0.19622
2516.65160,0.19686
2518.58007,0.19370
2520.50854,0.18819
2522.43701,0.18637
2524.36547,0.18775
2526.29394,0.18925
2528.22241,0.19195
2530.15088,0.19529
2532.07935,0.19587
2534.00782,0.19466
2535.93629,0.19499
2537.86476,0.19584
2539.79322,0.19476
2541.72169,0.19247
2543.65016,0.19170
2545.57863,0.19419
2547.50710,0.19737
2549.43557,0.19666
2551.36404,0.19480
2553.29250,0.19631
2555.22097,0.19760
2557.14944,0.19664
2559.07791,0.19600
2561.00638,0.19539
2562.93485,0.19498
2564.86332,0.19620
2566.79179,0.19680
2568.72025,0.19561
2570.64872,0.19550
2572.57719,0.19668
2574.50566,0.19719
2576.43413,0.19671
2578.36260,0.19554
2580.29107,0.19455
2582.21953,0.19407
2584.14800,0.19315
2586.07647,0.19211
2588.00494,0.19258
2589.93341,0.19430
2591.86188,0.19564
2593.79035,0.19671
2595.71882,0.19878
2597.64728,0.20020
2599.57575,0.19898
2601.50422,0.19776
2603.43269,0.19871
2605.36116,0.19873
2607.28963,0.19520
2609.21810,0.19230
2611.14656,0.19388
2613.07503,0.19656
2615.00350,0.19754
2616.93197,0.19778
2618.86044,0.19771
2620.78891,0.19759
2622.71738,0.19686
2624.64585,0.19557
2626.57431,0.19553
2628.50278,0.19671
2630.43125,0.19891
2632.35972,0.20163
2634.28819,0.20289
2636.21666,0.20238
2638.14513,0.20089
2640.07359,0.19905
2642.00206,0.19725
2643.93053,0.19689
2645.85900,0.19888
2647.78747,0.20133
2649.71594,0.20231
2651.64441,0.20123
2653.57288,0.20009
2655.50134,0.20057
2657.42981,0.20053
2659.35828,0.20024
2661.28675,0.19978
2663.21522,0.19646
2665.14369,0.19402
2667.07216,0.19546
2669.00062,0.19690
2670.92909,0.19571
2672.85756,0.19341
2674.78603,0.19551
2676.71450,0.20220
2678.64297,0.20568
2680.57144,0.20538
2682.49990,0.20556
2684.42837,0.20492
2686.35684,0.20280
2688.28531,0.20258
2690.21378,0.20431
2692.14225,0.20402
2694.07072,0.20222
2695.99919,0.20306
2697.92765,0.20536
2699.85612,0.20535
2701.78459,0.20322
2703.71306,0.20168
2705.64153,0.20247
2707.57000,0.20338
2709.49847,0.20164
2711.42693,0.20012
2713.35540,0.20179
2715.28387,0.20414
2717.21234,0.20469
2719.14081,0.20396
2721.06928,0.20352
2722.99775,0.20429
2724.92622,0.20542
2726.85468,0.20499
2728.78315,0.20182
2730.71162,0.19885
2732.64009,0.20025
2734.56856,0.20516
2736.49703,0.20941
2738.42550,0.20841
2740.35396,0.20367
2742.28243,0.20236
2744.21090,0.20397
2746.13937,0.20351
2748.06784,0.20228
2749.99631,0.20365
2751.92478,0.20693
2753.85325,0.20942
2755.78171,0.21052
2757.71018,0.21005
2759.63865,0.20841
2761.56712,0.20698
2763.49559,0.20567
2765.42406,0.20537
2767.35253,0.20755
2769.28099,0.20996
2771.20946,0.20916
2773.13793,0.20717
2775.06640,0.20717
2776.99487,0.20805
2778.92334,0.21001
2780.85181,0.21271
2782.78028,0.21307
2784.70874,0.21125
2786.63721,0.21042
2788.56568,0.21112
2790.49415,0.21080
2792.42262,0.20995
2794.35109,0.21020
2796.27956,0.20944
2798.20802,0.20906
2800.13649,0.21240
2802.06496,0.21555
2803.99343,0.21477
2805.92190,0.21214
2807.85037,0.20926
2809.77884,0.20644
2811.70731,0.20554
2813.63577,0.20877
2815.56424,0.21404
2817.49271,0.21671
2819.42118,0.21675
2821.34965,0.21551
2823.27812,0.21164
2825.20659,0.20698
2827.13505,0.20643
2829.06352,0.20892
2830.99199,0.21060
2832.92046,0.21188
2834.84893,0.21258
2836.77740,0.21292
2838.70587,0.21395
2840.63433,0.21438
2842.56280,0.21511
2844.49127,0.21637
2846.41974,0.21531
2848.34821,0.21191
2850.27668,0.20851
2852.20515,0.20626
2854.13362,0.20564
2856.06208,0.20667
2857.99055,0.20738
2859.91902,0.20565
2861.84749,0.20457
2863.77596,0.20785
2865.70443,0.21102
2867.63290,0.21012
2869.56136,0.20925
2871.48983,0.21165
2873.41830,0.21492
2875.34677,0.21468
2877.27524,0.21171
2879.20371,0.21175
2881.13218,0.21443
2883.06065,0.21422
2884.98911,0.21185
2886.91758,0.21051
2888.84605,0.20953
2890.77452,0.20868
2892.70299,0.20810
2894.63146,0.20700
2896.55993,0.20796
2898.48839,0.21342
2900.41686,0.21756
2902.34533,0.21450
2904.27380,0.20874
2906.20227,0.20633
2908.13074,0.20630
2910.05921,0.20702
2911.98768,0.20895
2913.91614,0.20854
2915.84461,0.20431
2917.77308,0.20240
2919.70155,0.20449
2921.63002,0.20566
2923.55849,0.20457
2925.48696,0.20150
2927.41542,0.19714
2929.34389,0.19766
2931.27236,0.20560
2933.20083,0.21164
2935.12930,0.20658
2937.05777,0.19631
2938.98624,0.19567
2940.91471,0.20461
2942.84317,0.21016
2944.77164,0.20824
2946.70011,0.20353
2948.62858,0.20139
2950.55705,0.20336
2952.48552,0.20580
2954.41399,0.20563
2956.34245,0.20113
2958.27092,0.19655
2960.19939,0.20032
2962.12786,0.20866
2964.05633,0.21094
2965.98480,0.20409
2967.91327,0.19557
2969.84174,0.19756
2971.77020,0.20748
2973.69867,0.21267
2975.62714,0.21111
2977.55561,0.20843
2979.48408,0.20896
2981.41255,0.21100
2983.34102,0.21339
2985.26948,0.21793
2987.19795,0.21813
2989.12642,0.21210
2991.05489,0.21026
2992.98336,0.21470
2994.91183,0.21709
2996.84030,0.21247
2998.76877,0.20686
3000.69723,0.20980
3002.62570,0.21697
3004.55417,0.21837
3006.48264,0.21443
3008.41111,0.20991
3010.33958,0.20452
3012.26805,0.19404
3014.19651,0.17328
3016.12498,0.15070
3018.05345,0.15533
3019.98192,0.18809
3021.91039,0.21197
3023.83886,0.21691
3025.76733,0.21812
3027.69579,0.21724
3029.62426,0.21541
3031.55273,0.21837
3033.48120,0.22102
3035.40967,0.21881
3037.33814,0.21632
3039.26661,0.21702
3041.19508,0.22018
3043.12354,0.22168
3045.05201,0.22005
3046.98048,0.21765
3048.90895,0.21806
3050.83742,0.22266
3052.76589,0.22322
3054.69436,0.21225
3056.62282,0.19830
3058.55129,0.19741
3060.47976,0.20823
3062.40823,0.21552
3064.33670,0.21406
3066.26517,0.20945
3068.19364,0.20919
3070.12211,0.21480
3072.05057,0.22131
3073.97904,0.22245
3075.90751,0.21722
3077.83598,0.21464
3079.76445,0.21803
3081.69292,0.21890
3083.62139,0.21127
3085.54985,0.20217
3087.47832,0.20317
3089.40679,0.21052
3091.33526,0.21269
3093.26373,0.20725
3095.19220,0.20141
3097.12067,0.20323
3099.04914,0.20945
3100.97760,0.20987
3102.90607,0.20427
3104.83454,0.20461
3106.76301,0.21244
3108.69148,0.21664
3110.61995,0.21357
3112.54842,0.21004
3114.47688,0.21355
3116.40535,0.22138
3118.33382,0.22496
3120.26229,0.22152
3122.19076,0.21594
3124.11923,0.21396
3126.04770,0.21474
3127.97617,0.21631
3129.90463,0.21976
3131.83310,0.22482
3133.76157,0.22782
3135.69004,0.22526
3137.61851,0.21937
3139.54698,0.21690
3141.47545,0.21892
3143.40391,0.22040
3145.33238,0.21986
3147.26085,0.21824
3149.18932,0.21705
3151.11779,0.21747
3153.04626,0.21769
3154.97473,0.21651
3156.90320,0.21699
3158.83166,0.21902
3160.76013,0.21900
3162.68860,0.21905
3164.61707,0.22011
3166.54554,0.22047
3168.47401,0.22103
3170.40248,0.22067
3172.33094,0.21861
3174.25941,0.21793
3176.18788,0.22034
3178.11635,0.22252
3180.04482,0.22262
3181.97329,0.22345
3183.90176,0.22621
3185.83022,0.22863
3187.75869,0.22841
3189.68716,0.22590
3191.61563,0.22279
3193.54410,0.22230
3195.47257,0.22522
3197.40104,0.22526
3199.32951,0.22017
3201.25797,0.21483
3203.18644,0.21369
3205.11491,0.21811
3207.04338,0.22352
3208.97185,0.22550
3210.90032,0.22438
3212.82879,0.22250
3214.75725,0.22152
3216.68572,0.21957
3218.61419,0.21522
3220.54266,0.21174
3222.47113,0.21206
3224.39960,0.21417
3226.32807,0.21646
3228.25654,0.21766
3230.18500,0.21539
3232.11347,0.21331
3234.04194,0.21458
3235.97041,0.21556
3237.89888,0.21508
3239.82735,0.21647
3241.75582,0.21951
3243.68428,0.22205
3245.61275,0.22351
3247.54122,0.22188
3249.46969,0.21851
3251.39816,0.21642
3253.32663,0.21527
3255.25510,0.21611
3257.18357,0.21832
3259.11203,0.21905
3261.04050,0.21939
3262.96897,0.21951
3264.89744,0.21560
3266.82591,0.20896
3268.75438,0.20636
3270.68285,0.20890
3272.61131,0.21251
3274.53978,0.21462
3276.46825,0.21382
3278.39672,0.21190
3280.32519,0.21291
3282.25366,0.21627
3284.18213,0.21752
3286.11060,0.21577
3288.03906,0.21695
3289.96753,0.22330
3291.89600,0.22532
3293.82447,0.21889
3295.75294,0.21401
3297.68141,0.21602
3299.60988,0.22012
3301.53834,0.21945
3303.46681,0.21343
3305.39528,0.20863
3307.32375,0.20680
3309.25222,0.20588
3311.18069,0.20531
3313.10916,0.20515
3315.03763,0.20813
3316.96609,0.21392
3318.89456,0.21872
3320.82303,0.22042
3322.75150,0.21858
3324.67997,0.21794
3326.60844,0.22146
3328.53691,0.22360
3330.46537,0.22248
3332.39384,0.22191
3334.32231,0.22122
3336.25078,0.21857
3338.17925,0.21776
3340.10772,0.22044
3342.03619,0.22289
3343.96466,0.22362
3345.89312,0.22239
3347.82159,0.22229
3349.75006,0.22601
3351.67853,0.22855
3353.60700,0.22809
3355.53547,0.22850
3357.46394,0.23025
3359.39240,0.23142
3361.32087,0.23156
3363.24934,0.23001
3365.17781,0.22713
3367.10628,0.22659
3369.03475,0.22817
3370.96322,0.22598
3372.89168,0.21927
3374.82015,0.21356
3376.74862,0.21378
3378.67709,0.21856
3380.60556,0.22136
3382.53403,0.22183
3384.46250,0.22201
3386.39097,0.21833
3388.31943,0.21281
3390.24790,0.21196
3392.17637,0.21416
3394.10484,0.21549
3396.03331,0.21709
3397.96178,0.21666
3399.89025,0.21253
3401.81871,0.21158
3403.74718,0.21413
3405.67565,0.21352
3407.60412,0.21233
3409.53259,0.21343
3411.46106,0.21327
3413.38953,0.21378
3415.31800,0.21718
3417.24646,0.21892
3419.17493,0.21693
3421.10340,0.21519
3423.03187,0.21548
3424.96034,0.21477
3426.88881,0.21274
3428.81728,0.21070
3430.74574,0.20897
3432.67421,0.20798
3434.60268,0.20603
3436.53115,0.20368
3438.45962,0.20274
3440.38809,0.20145
3442.31656,0.20116
3444.24503,0.20237
3446.17349,0.20314
3448.10196,0.20455
3450.03043,0.20443
3451.95890,0.20348
3453.88737,0.20485
3455.81584,0.20382
3457.74431,0.19853
3459.67277,0.19546
3461.60124,0.19607
3463.52971,0.19581
3465.45818,0.19584
3467.38665,0.19888
3469.31512,0.20084
3471.24359,0.19905
3473.17206,0.19757
3475.10052,0.19720
3477.02899,0.19653
3478.95746,0.19849
3480.88593,0.20040
3482.81440,0.19749
3484.74287,0.19326
3486.67134,0.19152
3488.59980,0.19220
3490.52827,0.19290
3492.45674,0.19342
3494.38521,0.19459
3496.31368,0.19327
3498.24215,0.18988
3500.17062,0.18906
3502.09909,0.18867
3504.02755,0.18632
3505.95602,0.18626
3507.88449,0.18634
3509.81296,0.18227
3511.74143,0.17672
3513.66990,0.17195
3515.59837,0.17064
3517.52683,0.17395
3519.45530,0.17991
3521.38377,0.18820
3523.31224,0.19475
3525.24071,0.19467
3527.16918,0.18796
3529.09765,0.17852
3531.02611,0.17297
3532.95458,0.17213
3534.88305,0.17354
3536.81152,0.17478
3538.73999,0.17371
3540.66846,0.17147
3542.59693,0.17214
3544.52540,0.17575
3546.45386,0.17595
3548.38233,0.17487
3550.31080,0.17724
3552.23927,0.17719
3554.16774,0.17148
3556.09621,0.16804
3558.02468,0.17150
3559.95314,0.17588
3561.88161,0.17544
3563.81008,0.17583
3565.73855,0.18413
3567.66702,0.18975
3569.59549,0.18002
3571.52396,0.16625
3573.45243,0.15714
3575.38089,0.15376
3577.30936,0.15546
3579.23783,0.16229
3581.16630,0.16954
3583.09477,0.17023
3585.02324,0.16697
3586.95171,0.16683
3588.88017,0.16800
3590.80864,0.16582
3592.73711,0.16158
3594.66558,0.15897
3596.59405,0.16070
3598.52252,0.16324
3600.45099,0.16377
3602.37946,0.16286
3604.30792,0.16394
3606.23639,0.16793
3608.16486,0.16724
3610.09333,0.16010
3612.02180,0.15738
3613.95027,0.15978
3615.87874,0.16294
3617.80720,0.16636
3619.73567,0.16285
3621.66414,0.15338
3623.59261,0.14965
3625.52108,0.15402
3627.44955,0.16452
3629.37802,0.16912
3631.30649,0.16093
3633.23495,0.15303
3635.16342,0.14858
3637.09189,0.14695
3639.02036,0.14713
3640.94883,0.14814
3642.87730,0.14881
3644.80577,0.15190
3646.73423,0.16195
3648.66270,0.17016
3650.59117,0.15675
3652.51964,0.14263
3654.44811,0.13904
3656.37658,0.13786
3658.30505,0.13499
3660.23352,0.13360
3662.16198,0.13414
3664.09045,0.13369
3666.01892,0.13199
3667.94739,0.13548
3669.87586,0.14771
3671.80433,0.15545
3673.73280,0.15636
3675.66126,0.15287
3677.58973,0.14712
3679.51820,0.14556
3681.44667,0.14346
3683.37514,0.14014
3685.30361,0.14054
3687.23208,0.14802
3689.16055,0.15707
3691.08901,0.15366
3693.01748,0.14521
3694.94595,0.13975
3696.87442,0.13622
3698.80289,0.13495
3700.73136,0.13706
3702.65983,0.14063
3704.58829,0.14226
3706.51676,0.14378
3708.44523,0.14822
3710.37370,0.15452
3712.30217,0.14929
3714.23064,0.13687
3716.15911,0.13518
3718.08757,0.14155
3720.01604,0.14677
3721.94451,0.14925
3723.87298,0.15224
3725.80145,0.15272
3727.72992,0.14910
3729.65839,0.14765
3731.58686,0.15212
3733.51532,0.16164
3735.44379,0.15996
3737.37226,0.13939
3739.30073,0.12978
3741.22920,0.13915
3743.15767,0.15243
3745.08614,0.15150
3747.01460,0.14531
3748.94307,0.14757
3750.87154,0.15246
3752.80001,0.14772
3754.72848,0.13824
3756.65695,0.13213
3758.58542,0.13010
3760.51389,0.13152
3762.44235,0.13559
3764.37082,0.13866
3766.29929,0.13882
3768.22776,0.14168
3770.15623,0.14230
3772.08470,0.13218
3774.01317,0.12492
3775.94163,0.12643
3777.87010,0.12870
3779.79857,0.12728
3781.72704,0.12639
3783.65551,0.12640
3785.58398,0.12392
3787.51245,0.12095
3789.44092,0.12105
3791.36938,0.12578
3793.29785,0.13433
3795.22632,0.14044
3797.15479,0.13981
3799.08326,0.14089
3801.01173,0.14592
3802.94020,0.14320
3804.86866,0.14030
3806.79713,0.14111
3808.72560,0.13563
3810.65407,0.12722
3812.58254,0.12346
3814.51101,0.12889
3816.43948,0.14184
3818.36795,0.15116
3820.29641,0.15611
3822.22488,0.15323
3824.15335,0.14544
3826.08182,0.13767
3828.01029,0.13036
3829.93876,0.12877
3831.86723,0.13092
3833.79569,0.13161
3835.72416,0.13311
3837.65263,0.13581
3839.58110,0.13425
3841.50957,0.13002
3843.43804,0.12845
3845.36651,0.12911
3847.29498,0.12931
3849.22344,0.13144
3851.15191,0.14001
3853.08038,0.14881
3855.00885,0.13535
3856.93732,0.11871
3858.86579,0.11274
3860.79426,0.11543
3862.72272,0.12323
3864.65119,0.13180
3866.57966,0.13922
3868.50813,0.14652
3870.43660,0.14837
3872.36507,0.14132
3874.29354,0.13122
3876.22200,0.12197
3878.15047,0.11783
3880.07894,0.11725
3882.00741,0.11537
3883.93588,0.11400
3885.86435,0.11527
3887.79282,0.11905
3889.72129,0.12421
3891.64975,0.12453
3893.57822,0.11723
3895.50669,0.11332
3897.43516,0.11723
3899.36363,0.12237
3901.29210,0.12410
3903.22057,0.12765
3905.14903,0.12794
3907.07750,0.12146
3909.00597,0.11470
3910.93444,0.11010
3912.86291,0.10889
3914.79138,0.11021
3916.71985,0.11124
3918.64832,0.11388
3920.57678,0.11689
3922.50525,0.11458
3924.43372,0.11046
3926.36219,0.11100
3928.29066,0.11175
3930.21913,0.10920
3932.14760,0.10897
3934.07606,0.11055
3936.00453,0.10915
3937.93300,0.10786
3939.86147,0.10832
3941.78994,0.10690
3943.71841,0.10074
3945.64688,0.09443
3947.57535,0.09413
3949.50381,0.09942
3951.43228,0.10463
3953.36075,0.10636
3955.28922,0.10771
3957.21769,0.10997
3959.14616,0.10812
3961.07463,0.10464
3963.00309,0.10381
3964.93156,0.10128
3966.86003,0.09710
3968.78850,0.09555
3970.71697,0.09618
3972.64544,0.09518
3974.57391,0.09279
3976.50238,0.09439
3978.43084,0.10056
3980.35931,0.10595
3982.28778,0.10648
3984.21625,0.10396
3986.14472,0.10200
3988.07319,0.09787
3990.00166,0.09143
3991.93012,0.09180
3993.85859,0.09778
3995.78706,0.10085
3997.71553,0.10020
3999.64400,0.09545
4001.57247,0.09177
4003.50094,0.09558
4005.42941,0.09945
4007.35787,0.09585
4009.28634,0.09127
4011.21481,0.09210
4013.14328,0.09554
4015.07175,0.09943
4017.00022,0.10163
4018.92869,0.09944
4020.85715,0.09456
4022.78562,0.09292
4024.71409,0.09612
4026.64256,0.09719
4028.57103,0.09343
4030.49950,0.09009
4032.42797,0.09021
4034.35644,0.09062
4036.28490,0.09026
4038.21337,0.09193
4040.14184,0.09318
4042.07031,0.09121
4043.99878,0.08884
4045.92725,0.08885
4047.85572,0.08875
4049.78418,0.08671
4051.71265,0.08683
4053.64112,0.09003
4055.56959,0.09171
4057.49806,0.09079
4059.42653,0.09019
4061.35500,0.09134
4063.28346,0.09355
4065.21193,0.09360
4067.14040,0.09037
4069.06887,0.08904
4070.99734,0.09141
4072.92581,0.09318
4074.85428,0.09341
4076.78275,0.09322
4078.71121,0.09056
4080.63968,0.08454
4082.56815,0.08176
4084.49662,0.08647
4086.42509,0.08892
4088.35356,0.08453
4090.28203,0.08204
4092.21049,0.08382
4094.13896,0.08531
4096.06743,0.08414
4097.99590,0.08488
4099.92437,0.08923
4101.85284,0.08809
4103.78131,0.08155
4105.70978,0.08070
4107.63824,0.08387
4109.56671,0.08185
4111.49518,0.07843
4113.42365,0.08022
4115.35212,0.08257
4117.28059,0.08107
4119.20906,0.07964
4121.13752,0.08077
4123.06599,0.08113
4124.99446,0.08019
4126.92293,0.07997
4128.85140,0.07853
4130.77987,0.07397
4132.70834,0.06954
4134.63681,0.06887
4136.56527,0.07114
4138.49374,0.07158
4140.42221,0.06793
4142.35068,0.06750
4144.27915,0.07314
4146.20762,0.07690
4148.13609,0.07660
4150.06455,0.07501
4151.99302,0.07214
4153.92149,0.07061
4155.84996,0.07444
4157.77843,0.07932
4159.70690,0.07849
4161.63537,0.07634
4163.56384,0.07696
4165.49230,0.07464
4167.42077,0.06840
4169.34924,0.06380
4171.27771,0.06338
4173.20618,0.06579
4175.13465,0.06662
4177.06312,0.06495
4178.99158,0.06417
4180.92005,0.06439
4182.84852,0.06493
4184.77699,0.06692
4186.70546,0.06904
4188.63393,0.06752
4190.56240,0.06403
4192.49087,0.06358
4194.41933,0.06513
4196.34780,0.06818
4198.27627,0.07259
4200.20474,0.07135
4202.13321,0.06412
4204.06168,0.05789
4205.99015,0.05389
4207.91861,0.05392
4209.84708,0.05884
4211.77555,0.06024
4213.70402,0.05488
4215.63249,0.05078
4217.56096,0.05244
4219.48943,0.05941
4221.41789,0.06664
4223.34636,0.06667
4225.27483,0.06222
4227.20330,0.05836
4229.13177,0.05624
4231.06024,0.05848
4232.98871,0.06245
4234.91718,0.06098
4236.84564,0.05671
4238.77411,0.05801
4240.70258,0.06304
4242.63105,0.06632
4244.55952,0.06645
4246.48799,0.06068
4248.41646,0.05053
4250.34492,0.04456
4252.27339,0.04526
4254.20186,0.04687
4256.13033,0.04518
4258.05880,0.04425
4259.98727,0.04924
4261.91574,0.05308
4263.84421,0.04891
4265.77267,0.04126
4267.70114,0.03642
4269.62961,0.03882
4271.55808,0.04594
4273.48655,0.04915
4275.41502,0.04531
4277.34349,0.04031
4279.27195,0.04191
4281.20042,0.04703
4283.12889,0.04659
4285.05736,0.04449
4286.98583,0.04696
4288.91430,0.04898
4290.84277,0.04635
4292.77124,0.04144
4294.69970,0.04032
4296.62817,0.04434
4298.55664,0.04888
4300.48511,0.05407
4302.41358,0.05887
4304.34205,0.05509
4306.27052,0.04401
4308.19898,0.03806
4310.12745,0.03673
4312.05592,0.03298
4313.98439,0.03249
4315.91286,0.03682
4317.84133,0.04053
4319.76980,0.04265
4321.69827,0.04182
4323.62673,0.03972
4325.55520,0.03660
4327.48367,0.03045
4329.41214,0.02571
4331.34061,0.02495
4333.26908,0.02785
4335.19755,0.03066
4337.12601,0.02822
4339.05448,0.02584
4340.98295,0.02963
4342.91142,0.03719
4344.83989,0.04243
4346.76836,0.04099
4348.69683,0.03412
4350.62530,0.02472
4352.55376,0.01757
4354.48223,0.02033
4356.41070,0.03006
4358.33917,0.03535
4360.26764,0.03442
4362.19611,0.03101
4364.12458,0.02552
4366.05304,0.01952
4367.98151,0.01763
4369.90998,0.02105
4371.83845,0.02487
4373.76692,0.02386
4375.69539,0.01733
4377.62386,0.01209
4379.55232,0.01488
4381.48079,0.01856
4383.40926,0.01545
4385.33773,0.01162
4387.26620,0.01332
4389.19467,0.02017
4391.12314,0.02631
4393.05161,0.02610
4394.98007,0.02131
4396.90854,0.01597
4398.83701,0.01369
4400.76548,0.01462
4402.69395,0.01486
4404.62242,0.01425
4406.55089,0.01669
4408.47935,0.02186
4410.40782,0.02402
4412.33629,0.02211
4414.26476,0.01929
4416.19323,0.01597
4418.12170,0.01336
4420.05017,0.01312
4421.97864,0.01380
4423.90710,0.01371
4425.83557,0.01194
4427.76404,0.00881
4429.69251,0.00776
4431.62098,0.01151
4433.54945,0.01660
4435.47792,0.01625
4437.40638,0.01157
4439.33485,0.00837
4441.26332,0.00657
4443.19179,0.00526
4445.12026,0.00319
4447.04873,0.00080
4448.97720,0.00213
4450.90567,0.00583
4452.83413,0.00858
4454.76260,0.01005
4456.69107,0.01148
4458.61954,0.01272
4460.54801,0.01025
4462.47648,0.00501
4464.40495,0.00144
4466.33341,0.00126
4468.26188,0.00432
4470.19035,0.00763
4472.11882,0.00884
4474.04729,0.00921
4475.97576,0.00803
4477.90423,0.00483
4479.83270,0.00501
4481.76116,0.00964
4483.68963,0.01170
4485.61810,0.00913
4487.54657,0.00595
4489.47504,0.00512
4491.40351,0.00832
4493.33198,0.01407
4495.26044,0.01575
4497.18891,0.01202
4499.11738,0.01275
4501.04585,0.01693
4502.97432,0.01470
4504.90279,0.01395
4506.83126,0.01819
4508.75973,0.01779
4510.68819,0.01599
4512.61666,0.01700
4514.54513,0.01655
4516.47360,0.01404
4518.40207,0.01034
4520.33054,0.00450
4522.25901,-0.00029
4524.18747,0.00226
4526.11594,0.01227
4528.04441,0.01984
4529.97288,0.01512
4531.90135,0.00604
4533.82982,0.00247
4535.75829,0.00047
4537.68676,0.00006
4539.61522,0.00185
4541.54369,0.00187
4543.47216,0.00061
4545.40063,-0.00111
4547.32910,-0.00107
4549.25757,0.00502
4551.18604,0.01299
4553.11450,0.01113
4555.04297,-0.00011
4556.97144,-0.00632
4558.89991,-0.00105
4560.82838,0.00635
4562.75685,0.00891
4564.68532,0.00991
4566.61378,0.00895
4568.54225,0.00720
4570.47072,0.00715
4572.39919,0.00531
4574.32766,0.00746
4576.25613,0.01478
4578.18460,0.01642
4580.11307,0.01369
4582.04153,0.01221
4583.97000,0.00988
4585.89847,0.00660
4587.82694,0.00317
4589.75541,-0.00247
4591.68388,-0.00549
4593.61235,0.00079
4595.54081,0.01111
4597.46928,0.01381
4599.39775,0.00606
4601.32622,-0.00050
4603.25469,-0.00159
4605.18316,-0.00210
4607.11163,-0.00282
4609.04010,-0.00608
4610.96856,-0.00641
4612.89703,0.00094
4614.82550,0.00222
4616.75397,-0.00856
4618.68244,-0.01393
4620.61091,-0.00900
4622.53938,-0.00619
4624.46784,-0.00403
4626.39631,0.00021
4628.32478,0.00222
4630.25325,0.00277
4632.18172,0.00309
4634.11019,0.00078
4636.03866,-0.00681
4637.96713,-0.01258
4639.89559,-0.00618
4641.82406,0.00690
4643.75253,0.01150
4645.68100,0.00743
4647.60947,0.00659
4649.53794,0.00847
4651.46641,0.00736
4653.39487,0.00670
4655.32334,0.00610
4657.25181,0.00231
4659.18028,0.00388
4661.10875,0.01571
4663.03722,0.02316
4664.96569,0.01902
4666.89416,0.01387
4668.82262,0.01018
4670.75109,0.00175
4672.67956,-0.00614
4674.60803,-0.00379
4676.53650,0.00328
4678.46497,0.00377
4680.39344,-0.00110
4682.32190,-0.00206
4684.25037,0.00326
4686.17884,0.00649
4688.10731,0.00522
4690.03578,0.01046
4691.96425,0.02233
4693.89272,0.02430
4695.82119,0.01186
4697.74965,0.00206
4699.67812,0.00352
4701.60659,0.00412
4703.53506,-0.00037
4705.46353,-0.00395
4707.39200,-0.00789
4709.32047,-0.00452
4711.24893,0.01111
4713.17740,0.01967
4715.10587,0.01609
4717.03434,0.01176
4718.96281,0.00674
4720.89128,0.00841
4722.81975,0.01796
4724.74821,0.01730
4726.67668,0.00264
4728.60515,-0.00908
4730.53362,-0.00650
4732.46209,-0.00335
4734.39056,-0.00576
4736.31903,0.00403
4738.24750,0.01648
4740.17596,0.01274
4742.10443,0.00817
4744.03290,0.01270
4745.96137,0.01425
4747.88984,0.00728
4749.81831,-0.00210
4751.74678,-0.00442
4753.67524,-0.00215
4755.60371,-0.00584
4757.53218,-0.01280
4759.46065,-0.01336
4761.38912,-0.00646
4763.31759,0.00317
4765.24606,0.00749
4767.17453,0.00197
4769.10299,-0.00373
4771.03146,0.00316
4772.95993,0.01677
4774.88840,0.01895
4776.81687,0.00944
4778.74534,0.00215
4780.67381,-0.00208
4782.60227,-0.00915
4784.53074,-0.01622
4786.45921,-0.01501
4788.38768,-0.00776
4790.31615,-0.00263
4792.24462,0.00687
4794.17309,0.02222
4796.10156,0.02671
4798.03002,0.01678
4799.95849,0.01382
4801.88696,0.02191
4803.81543,0.01674
4805.74390,-0.00129
4807.67237,-0.00706
4809.60084,0.00245
4811.52930,0.01526
4813.45777,0.02166
4815.38624,0.01454
4817.31471,0.00142
4819.24318,-0.00083
4821.17165,0.01144
4823.10012,0.02392
4825.02859,0.02183
4826.95705,0.00565
4828.88552,-0.00964
4830.81399,-0.00826
4832.74246,0.00510
4834.67093,0.01148
4836.59940,0.00411
4838.52787,-0.00542
4840.45633,-0.00365
4842.38480,0.00701
4844.31327,0.01460
4846.24174,0.01582
4848.17021,0.01735
4850.09868,0.01850
4852.02715,0.01399
4853.95562,0.00715
4855.88408,0.00236
4857.81255,0.00037
4859.74102,0.00095
4861.66949,0.00119
4863.59796,0.00033
4865.52643,-0.00147
4867.45490,-0.00779
4869.38336,-0.01401
4871.31183,-0.01184
4873.24030,-0.00584
4875.16877,-0.00916
4877.09724,-0.01591
4879.02571,-0.01087
4880.95418,-0.00189
4882.88265,0.00574
4884.81111,0.01257
4886.73958,0.01140
4888.66805,0.00772
4890.59652,0.00881
4892.52499,0.01384
4894.45346,0.02069
4896.38193,0.02383
4898.31039,0.02022
4900.23886,0.01224
4902.16733,0.00568
4904.09580,0.00957
4906.02427,0.02087
4907.95274,0.02503
4909.88121,0.01751
4911.80967,0.00802
4913.73814,0.00792
4915.66661,0.01193
4917.59508,0.00805
4919.52355,0.00147
4921.45202,0.00180
4923.38049,0.00089
4925.30896,-0.00350
4927.23742,0.00406
4929.16589,0.02069
4931.09436,0.02535
4933.02283,0.01002
4934.95130,-0.00756
4936.87977,-0.01321
4938.80824,-0.01212
4940.73670,0.00136
4942.66517,0.02149
4944.59364,0.02200
4946.52211,0.00579
4948.45058,-0.00050
4950.37905,0.00485
4952.30752,0.00793
4954.23599,0.00913
4956.16445,0.02051
4958.09292,0.03376
4960.02139,0.02477
4961.94986,0.00107
4963.87833,-0.00535
4965.80680,0.00825
4967.73527,0.02048
4969.66373,0.02005
4971.59220,0.00876
4973.52067,0.00166
4975.44914,0.01240
4977.37761,0.02105
4979.30608,0.01016
4981.23455,-0.00414
4983.16302,-0.00959
4985.09148,-0.01820
4987.01995,-0.02802
4988.94842,-0.02173
4990.87689,-0.00249
4992.80536,0.01221
4994.73383,0.01755
4996.66230,0.02148
4998.59076,0.02572
5000.51923,0.02410
5002.44770,0.01289
5004.37617,-0.00339
5006.30464,-0.01323
5008.23311,-0.01251
5010.16158,-0.00328
5012.09005,0.00684
5014.01851,0.00942
5015.94698,0.00530
5017.87545,-0.00256
5019.80392,-0.00884
5021.73239,-0.00809
5023.66086,-0.01039
5025.58933,-0.01407
5027.51779,0.00073
5029.44626,0.02597
5031.37473,0.03534
5033.30320,0.02307
5035.23167,0.00588
5037.16014,-0.00528
5039.08861,-0.01292
5041.01708,-0.00861
5042.94554,0.01080
5044.87401,0.01981
5046.80248,0.00553
5048.73095,-0.01114
5050.65942,-0.01643
5052.58789,-0.01469
5054.51636,-0.00826
5056.44482,0.00342
5058.37329,0.01381
5060.30176,0.01267
5062.23023,0.00331
5064.15870,0.00250
5066.08717,0.01402
5068.01564,0.02471
5069.94410,0.03079
5071.87257,0.04134
5073.80104,0.05303
5075.72951,0.04734
5077.65798,0.03202
5079.58645,0.02727
5081.51492,0.02290
5083.44339,0.01049
5085.37185,0.00220
5087.30032,0.00754
5089.22879,0.02058
5091.15726,0.02575
5093.08573,0.01566
5095.01420,0.00526
5096.94267,0.00956
5098.87113,0.02116
5100.79960,0.03037
5102.72807,0.02800
5104.65654,0.01531
5106.58501,0.00911
5108.51348,0.00864
5110.44195,0.00551
5112.37042,0.00020
5114.29888,-0.00463
5116.22735,-0.00554
5118.15582,-0.00631
5120.08429,-0.00993
5122.01276,-0.00776
5123.94123,0.00540
5125.86970,0.01977
5127.79816,0.02270
5129.72663,0.01273
5131.65510,0.00127
5133.58357,-0.00201
5135.51204,0.00261
5137.44051,0.01590
5139.36898,0.02664
5141.29745,0.02370
5143.22591,0.02878
5145.15438,0.04127
5147.08285,0.02888
5149.01132,0.01131
5150.93979,0.01997
5152.86826,0.03312
5154.79673,0.03215
5156.72519,0.02475
5158.65366,0.01818
5160.58213,0.01969
5162.51060,0.02710
5164.43907,0.02364
5166.36754,0.01286
5168.29601,0.01657
5170.22448,0.03121
5172.15294,0.03900
5174.08141,0.03983
5176.00988,0.03961
5177.93835,0.03395
5179.86682,0.02114
5181.79529,0.01757
5183.72376,0.02229
5185.65222,0.01630
5187.58069,0.01190
5189.50916,0.01555
5191.43763,0.01400
5193.36610,0.01484
5195.29457,0.02243
5197.22304,0.03085
5199.15151,0.03940
5201.07997,0.04868
5203.00844,0.05474
5204.93691,0.04472
5206.86538,0.02480
5208.79385,0.01689
5210.72232,0.01470
5212.65079,0.01039
5214.57925,0.00768
5216.50772,0.00516
5218.43619,0.00575
5220.36466,0.01416
5222.29313,0.01578
5224.22160,0.00317
5226.15007,0.00257
5228.07854,0.02789
5230.00700,0.04143
5231.93547,0.02547
5233.86394,0.01529
5235.79241,0.02315
5237.72088,0.02626
5239.64935,0.01814
5241.57782,0.00993
5243.50628,0.01136
5245.43475,0.01405
5247.36322,0.00744
5249.29169,0.00528
5251.22016,0.01768
5253.14863,0.02576
5255.07710,0.02309
5257.00556,0.02619
5258.93403,0.02711
5260.86250,0.02195
5262.79097,0.03283
5264.71944,0.04611
5266.64791,0.04286
5268.57638,0.04445
5270.50485,0.04736
5272.43331,0.03829
5274.36178,0.03026
5276.29025,0.02146
5278.21872,0.00853
5280.14719,0.00724
5282.07566,0.01380
5284.00413,0.01993
5285.93259,0.02852
5287.86106,0.02843
5289.78953,0.01963
5291.71800,0.02719
5293.64647,0.05528
5295.57494,0.07418
5297.50341,0.06700
5299.43188,0.04837
5301.36034,0.03453
5303.28881,0.02798
5305.21728,0.02465
5307.14575,0.03213
5309.07422,0.05135
5311.00269,0.05235
5312.93116,0.03646
5314.85962,0.02821
5316.78809,0.03225
5318.71656,0.04561
5320.64503,0.05492
5322.57350,0.05294
5324.50197,0.05493
5326.43044,0.06406
5328.35891,0.05853
5330.28737,0.04320
5332.21584,0.03734
5334.14431,0.02892
5336.07278,0.01173
5338.00125,0.00641
5339.92972,0.02562
5341.85819,0.05025
5343.78665,0.06358
5345.71512,0.05652
5347.64359,0.02577
5349.57206,-0.00276
5351.50053,0.00434
5353.42900,0.03894
5355.35747,0.05574
5357.28594,0.04611
5359.21440,0.03272
5361.14287,0.03032
5363.07134,0.03948
5364.99981,0.04387
5366.92828,0.03911
5368.85675,0.03913
5370.78522,0.04376
5372.71368,0.03642
5374.64215,0.02889
5376.57062,0.05167
5378.49909,0.07271
5380.42756,0.06952
5382.35603,0.06366
5384.28450,0.06371
5386.21297,0.07143
5388.14143,0.07277
5390.06990,0.05979
5391.99837,0.04366
5393.92684,0.03470
5395.85531,0.04078
5397.78378,0.05001
5399.71225,0.05147
5401.64071,0.05140
5403.56918,0.04953
5405.49765,0.03975
5407.42612,0.02698
5409.35459,0.02482
5411.28306,0.02459
5413.21153,0.01900
5415.13999,0.03285
5417.06846,0.05670
5418.99693,0.06794
5420.92540,0.06446
5422.85387,0.05244
5424.78234,0.04542
5426.71081,0.04836
5428.63928,0.05398
5430.56774,0.05710
5432.49621,0.06602
5434.42468,0.07751
5436.35315,0.07595
5438.28162,0.06930
5440.21009,0.05808
5442.13856,0.03357
5444.06702,0.00547
5445.99549,-0.01276
5447.92396,-0.01472
5449.85243,-0.00104
5451.78090,0.02493
5453.70937,0.05543
5455.63784,0.07394
5457.56631,0.06524
5459.49477,0.05488
5461.42324,0.06949
5463.35171,0.08575
5465.28018,0.07962
5467.20865,0.06406
5469.13712,0.06119
5471.06559,0.07045
5472.99405,0.08975
5474.92252,0.11365
5476.85099,0.11602
5478.77946,0.11318
5480.70793,0.11216
5482.63640,0.07974
5484.56487,0.03703
5486.49334,0.02657
5488.42180,0.04216
5490.35027,0.05652
5492.27874,0.04547
5494.20721,0.02489
5496.13568,0.03477
5498.06415,0.06651
5499.99262,0.08524
5501.92108,0.07791
5503.84955,0.06375
5505.77802,0.06019
5507.70649,0.05567
5509.63496,0.04419
5511.56343,0.04324
5513.49190,0.05030
5515.42037,0.05908
5517.34883,0.07337
5519.27730,0.08718
5521.20577,0.09414
5523.13424,0.07901
5525.06271,0.04952
5526.99118,0.04200
5528.91965,0.05138
5530.84811,0.05988
5532.77658,0.07181
5534.70505,0.07631
5536.63352,0.06913
5538.56199,0.06550
5540.49046,0.06733
5542.41893,0.07343
5544.34740,0.08431
5546.27586,0.09014
5548.20433,0.08322
5550.13280,0.06832
5552.06127,0.05409
5553.98974,0.04443
5555.91821,0.03057
5557.84668,0.01638
5559.77514,0.02514
5561.70361,0.04716
5563.63208,0.06215
5565.56055,0.07319
5567.48902,0.07643
5569.41749,0.07091
5571.34596,0.06809
5573.27443,0.05632
5575.20289,0.03383
5577.13136,0.03473
5579.05983,0.04946
5580.98830,0.05101
5582.91677,0.05313
5584.84524,0.05835
5586.77371,0.06130
5588.70217,0.07496
5590.63064,0.09097
5592.55911,0.09151
5594.48758,0.08919
5596.41605,0.09278
5598.34452,0.10173
5600.27299,0.12123
5602.20145,0.13213
5604.12992,0.11853
5606.05839,0.09522
5607.98686,0.07881
5609.91533,0.06772
5611.84380,0.05349
5613.77227,0.03856
5615.70074,0.02882
5617.62920,0.03914
5619.55767,0.07530
5621.48614,0.11027
5623.41461,0.12298
5625.34308,0.10802
5627.27155,0.07249
5629.20002,0.03999
5631.12848,0.02834
5633.05695,0.04393
5634.98542,0.06803
5636.91389,0.07970
5638.84236,0.08847
5640.77083,0.09292
5642.69930,0.07652
5644.62777,0.05508
5646.55623,0.06407
5648.48470,0.09429
5650.41317,0.10558
5652.34164,0.08610
5654.27011,0.06187
5656.19858,0.05798
5658.12705,0.07047
5660.05551,0.08247
5661.98398,0.07979
5663.91245,0.07286
5665.84092,0.06668
5667.76939,0.04522
5669.69786,0.01326
5671.62633,-0.00126
5673.55480,0.02440
5675.48326,0.05910
5677.41173,0.05792
5679.34020,0.04102
5681.26867,0.03587
5683.19714,0.04819
5685.12561,0.07407
5687.05408,0.08262
5688.98254,0.06094
5690.91101,0.04502
5692.83948,0.05435
5694.76795,0.05948
5696.69642,0.04393
5698.62489,0.03508
5700.55336,0.04435
5702.48183,0.04741
5704.41029,0.03424
5706.33876,0.02198
5708.26723,0.02483
5710.19570,0.04223
5712.12417,0.06951
5714.05264,0.08895
5715.98111,0.08383
5717.90957,0.07160
5719.83804,0.06899
5721.76651,0.06711
5723.69498,0.05901
5725.62345,0.03546
5727.55192,0.00483
5729.48039,0.00427
5731.40886,0.03112
5733.33732,0.05737
5735.26579,0.07743
5737.19426,0.08059
5739.12273,0.06045
5741.05120,0.05832
5742.97967,0.09075
5744.90814,0.10967
5746.83660,0.09376
5748.76507,0.06894
5750.69354,0.05829
5752.62201,0.06553
5754.55048,0.08654
5756.47895,0.09652
5758.40742,0.06855
5760.33588,0.02228
5762.26435,0.00532
5764.19282,0.03323
5766.12129,0.06396
5768.04976,0.08101
5769.97823,0.11599
5771.90670,0.14701
5773.83517,0.13664
5775.76363,0.11754
5777.69210,0.11495
5779.62057,0.09561
5781.54904,0.04917
5783.47751,0.03818
5785.40598,0.09586
5787.33445,0.13579
5789.26291,0.10493
5791.19138,0.07300
5793.11985,0.05735
5795.04832,0.02757
5796.97679,0.02388
5798.90526,0.05902
5800.83373,0.06969
5802.76220,0.05009
5804.69066,0.03428
5806.61913,0.02203
5808.54760,0.02308
5810.47607,0.03727
5812.40454,0.05664
5814.33301,0.08776
5816.26148,0.10469
5818.18994,0.07582
5820.11841,0.02244
5822.04688,-0.01058
5823.97535,-0.00849
5825.90382,0.01357
5827.83229,0.03502
5829.76076,0.04648
5831.68923,0.05747
5833.61769,0.07880
5835.54616,0.09170
5837.47463,0.07396
5839.40310,0.04059
5841.33157,0.02210
5843.26004,0.02625
5845.18851,0.03966
5847.11697,0.06306
5849.04544,0.07746
5850.97391,0.05381
5852.90238,0.03520
5854.83085,0.04916
5856.75932,0.06269
5858.68779,0.05876
5860.61626,0.05547
5862.54472,0.07161
5864.47319,0.09063
5866.40166,0.07861
5868.33013,0.04453
5870.25860,0.01763
5872.18707,0.00813
5874.11554,0.02033
5876.04400,0.04846
5877.97247,0.07109
5879.90094,0.07123
5881.82941,0.06181
5883.75788,0.05399
5885.68635,0.04459
5887.61482,0.04976
5889.54329,0.05725
5891.47175,0.04707
5893.40022,0.04145
5895.32869,0.04800
5897.25716,0.04900
5899.18563,0.03710
5901.11410,0.02341
5903.04257,0.03079
5904.97103,0.06897
5906.89950,0.09984
5908.82797,0.08459
5910.75644,0.05738
5912.68491,0.04781
5914.61338,0.02817
5916.54185,0.00913
5918.47032,0.02479
5920.39878,0.05540
5922.32725,0.07830
5924.25572,0.09114
5926.18419,0.08267
5928.11266,0.06418
5930.04113,0.06362
5931.96960,0.07525
5933.89806,0.07405
5935.82653,0.06607
5937.75500,0.06640
5939.68347,0.06819
5941.61194,0.07651
5943.54041,0.09820
5945.46888,0.11150
5947.39734,0.09759
5949.32581,0.06946
5951.25428,0.05180
5953.18275,0.04862
5955.11122,0.05144
5957.03969,0.06071
5958.96816,0.07134
5960.89663,0.07419
5962.82509,0.07731
5964.75356,0.08095
5966.68203,0.08861
5968.61050,0.10917
5970.53897,0.11921
5972.46744,0.10471
5974.39591,0.09715
5976.32437,0.10728
5978.25284,0.09209
5980.18131,0.05973
5982.10978,0.06144
5984.03825,0.07638
5985.96672,0.07844
5987.89519,0.09270
5989.82366,0.11920
5991.75212,0.14202
5993.68059,0.13580
5995.60906,0.09474
5997.53753,0.08817
5999.46600,0.12748
6001.39447,0.15106
6003.32294,0.12610
6005.25140,0.06943
6007.17987,0.04883
6009.10834,0.07286
6011.03681,0.08894
6012.96528,0.08247
6014.89375,0.06974
6016.82222,0.07119
6018.75069,0.08331
6020.67915,0.10740
6022.60762,0.12105
6024.53609,0.07536
6026.46456,0.00552
6028.39303,-0.02733
6030.32150,-0.01314
6032.24997,0.01466
6034.17843,0.02512
6036.10690,0.04867
6038.03537,0.10367
6039.96384,0.14418
6041.89231,0.15716
6043.82078,0.14764
6045.74925,0.12457
6047.67772,0.11388
6049.60618,0.11043
6051.53465,0.10658
6053.46312,0.11229
6055.39159,0.11224
6057.32006,0.09326
6059.24853,0.08472
6061.17700,0.11769
6063.10546,0.15563
6065.03393,0.14300
6066.96240,0.11085
6068.89087,0.10800
6070.81934,0.11269
6072.74781,0.10803
6074.67628,0.12569
6076.60475,0.13047
6078.53321,0.08108
6080.46168,0.04969
6082.39015,0.05598
6084.31862,0.02950
6086.24709,-0.00287
6088.17556,0.01372
6090.10403,0.02839
6092.03249,0.02017
6093.96096,0.03628
6095.88943,0.08210
6097.81790,0.11410
6099.74637,0.11088
6101.67484,0.09444
6103.60331,0.09439
6105.53177,0.10981
6107.46024,0.12559
6109.38871,0.12973
6111.31718,0.11411
6113.24565,0.07485
6115.17412,0.03427
6117.10259,0.05203
6119.03106,0.11271
6120.95952,0.12463
6122.88799,0.10418
6124.81646,0.10566
6126.74493,0.12107
6128.67340,0.11150
6130.60187,0.06066
6132.53034,0.00396
6134.45880,0.01206
6136.38727,0.09822
6138.31574,0.16195
6140.24421,0.14850
6142.17268,0.11984
6144.10115,0.09622
6146.02962,0.07055
6147.95809,0.08811
6149.88655,0.13111
6151.81502,0.12256
6153.74349,0.07048
6155.67196,0.04090
6157.60043,0.05273
6159.52890,0.06857
6161.45737,0.04842
6163.38583,0.01932
6165.31430,0.00002
6167.24277,-0.02489
6169.17124,-0.01637
6171.09971,0.04081
6173.02818,0.08063
6174.95665,0.08367
6176.88512,0.08394
6178.81358,0.09097
6180.74205,0.09584
6182.67052,0.10332
6184.59899,0.11531
6186.52746,0.09419
6188.45593,0.04578
6190.38440,0.05130
6192.31286,0.09647
6194.24133,0.10295
6196.16980,0.07668
6198.09827,0.06005
6200.02674,0.05630
6201.95521,0.06258
6203.88368,0.08507
6205.81215,0.11066
6207.74061,0.11109
6209.66908,0.10078
6211.59755,0.12044
6213.52602,0.15711
6215.45449,0.16049
6217.38296,0.11037
6219.31143,0.04498
6221.23989,0.02996
6223.16836,0.08911
6225.09683,0.12694
6227.02530,0.07743
6228.95377,0.01576
6230.88224,0.00449
6232.81071,0.02395
6234.73918,0.02906
6236.66764,0.05004
6238.59611,0.09944
6240.52458,0.13066
6242.45305,0.13494
6244.38152,0.12314
6246.30999,0.11987
6248.23846,0.13313
6250.16692,0.12596
6252.09539,0.11169
6254.02386,0.12407
6255.95233,0.12583
6257.88080,0.08571
6259.80927,0.04103
6261.73774,0.04648
6263.66621,0.09712
6265.59467,0.10936
6267.52314,0.05575
6269.45161,0.00340
6271.38008,-0.01851
6273.30855,-0.00005
6275.23702,0.05298
6277.16549,0.09079
6279.09395,0.11172
6281.02242,0.13162
6282.95089,0.10858
6284.87936,0.05696
6286.80783,0.05490
6288.73630,0.10160
6290.66477,0.14350
6292.59323,0.15759
6294.52170,0.13477
6296.45017,0.07360
6298.37864,0.02330
6300.30711,0.01379
6302.23558,-0.00475
6304.16405,-0.03867
6306.09252,-0.00993
6308.02098,0.05139
6309.94945,0.05515
6311.87792,0.04717
6313.80639,0.07126
6315.73486,0.09293
6317.66333,0.12381
6319.59180,0.14414
6321.52026,0.10525
6323.44873,0.07124
6325.37720,0.09655
6327.30567,0.12000
6329.23414,0.09591
6331.16261,0.07195
6333.09108,0.07771
6335.01955,0.05932
6336.94801,0.02054
6338.87648,0.01562
6340.80495,0.03340
6342.73342,0.04388
6344.66189,0.07236
6346.59036,0.10481
6348.51883,0.06668
6350.44729,0.01898
6352.37576,0.05314
6354.30423,0.10066
6356.23270,0.11397
6358.16117,0.10676
6360.08964,0.09621
6362.01811,0.08723
6363.94658,0.04646
6365.87504,0.00361
6367.80351,0.04112
6369.73198,0.07893
6371.66045,0.03185
6373.58892,0.00519
6375.51739,0.04512
6377.44586,0.05191
6379.37432,0.01929
6381.30279,0.02604
6383.23126,0.08286
6385.15973,0.11405
6387.08820,0.10087
6389.01667,0.07601
6390.94514,0.06147
6392.87361,0.07218
6394.80207,0.07885
6396.73054,0.06500
6398.65901,0.06091
6400.58748,0.08091
6402.51595,0.09106
6404.44442,0.05383
6406.37289,0.01799
6408.30135,0.04066
6410.22982,0.06019
6412.15829,0.01696
6414.08676,-0.02625
6416.01523,-0.01427
6417.94370,0.01422
6419.87217,0.01092
6421.80064,-0.00634
6423.72910,0.00268
6425.65757,0.03336
6427.58604,0.04403
6429.51451,0.03536
6431.44298,0.02732
6433.37145,0.03191
6435.29992,0.05795
6437.22838,0.08189
6439.15685,0.08071
6441.08532,0.06123
6443.01379,0.02401
6444.94226,0.01347
6446.87073,0.06933
6448.79920,0.11235
6450.72766,0.06405
6452.65613,-0.01572
6454.58460,-0.03573
6456.51307,-0.00285
6458.44154,0.01385
6460.37001,0.01283
6462.29848,0.03545
6464.22695,0.07184
6466.15541,0.11442
6468.08388,0.15355
6470.01235,0.13047
6471.94082,0.04070
6473.86929,-0.01769
6475.79776,-0.00581
6477.72623,0.05170
6479.65469,0.12220
6481.58316,0.15054
6483.51163,0.14023
6485.44010,0.11314
6487.36857,0.06998
6489.29704,0.08180
6491.22551,0.14427
6493.15398,0.12283
6495.08244,0.04922
6497.01091,0.02650
6498.93938,0.02076
6500.86785,0.02306
6502.79632,0.05298
6504.72479,0.07955
6506.65326,0.09713
6508.58172,0.09188
6510.51019,0.04135
6512.43866,0.00569
6514.36713,0.01972
6516.29560,0.01062
6518.22407,-0.02929
6520.15254,-0.04157
6522.08101,-0.02537
6524.00947,-0.02074
6525.93794,-0.03509
6527.86641,-0.00554
6529.79488,0.05688
6531.72335,0.06199
6533.65182,0.01853
6535.58029,-0.00195
6537.50875,0.00241
6539.43722,0.02666
6541.36569,0.09769
6543.29416,0.15067
6545.22263,0.12144
6547.15110,0.08467
6549.07957,0.05545
6551.00804,-0.00399
6552.93650,-0.03089
6554.86497,0.00389
6556.79344,0.03441
6558.72191,0.04461
6560.65038,0.05814
6562.57885,0.06159
6564.50732,0.02894
6566.43578,-0.00620
6568.36425,0.02660
6570.29272,0.09456
6572.22119,0.12909
6574.14966,0.14007
6576.07813,0.12378
6578.00660,0.06003
6579.93507,0.00423
6581.86353,0.00427
6583.79200,0.01889
6585.72047,0.00236
6587.64894,-0.01734
6589.57741,0.01664
6591.50588,0.08843
6593.43435,0.11915
6595.36281,0.08601
6597.29128,0.04101
6599.21975,-0.00270
6601.14822,-0.05188
6603.07669,-0.07005
6605.00516,-0.05271
6606.93363,-0.03312
6608.86210,-0.01434
6610.79056,0.01171
6612.71903,0.07446
6614.64750,0.15156
6616.57597,0.13565
6618.50444,0.06984
6620.43291,0.06237
6622.36138,0.05963
6624.28984,0.01107
6626.21831,-0.03555
6628.14678,-0.02373
6630.07525,0.03479
6632.00372,0.06272
6633.93219,0.03889
6635.86066,0.01566
6637.78912,0.04606
6639.71759,0.11381
6641.64606,0.16003
6643.57453,0.15241
6645.50300,0.11222
6647.43147,0.04510
6649.35994,-0.01937
6651.28841,-0.02407
6653.21687,0.02771
6655.14534,0.06804
6657.07381,0.02542
6659.00228,-0.04383
6660.93075,-0.02538
6662.85922,0.07490
6664.78769,0.13352
6666.71615,0.06091
6668.64462,-0.05946
6670.57309,-0.08378
6672.50156,-0.01681
6674.43003,0.02246
6676.35850,0.00381
6678.28697,0.00320
6680.21544,0.06514
6682.14390,0.10348
6684.07237,0.05968
6686.00084,0.01700
6687.92931,0.00476
6689.85778,0.02577
6691.78625,0.06400
6693.71472,0.04392
6695.64318,-0.02288
6697.57165,-0.04886
6699.50012,-0.01760
6701.42859,0.01486
6703.35706,0.02736
6705.28553,0.04534
6707.21400,0.10577
6709.14247,0.14093
6711.07093,0.08789
6712.99940,0.03498
6714.92787,0.03898
6716.85634,0.06482
6718.78481,0.08888
6720.71328,0.12276
6722.64175,0.15927
6724.57021,0.17876
6726.49868,0.16911
6728.42715,0.15087
6730.35562,0.16084
6732.28409,0.18288
6734.21256,0.20638
6736.14103,0.21369
6738.06950,0.14738
6739.99796,0.04830
6741.92643,0.02948
6743.85490,0.06035
6745.78337,0.06356
6747.71184,0.09382
6749.64031,0.14094
6751.56878,0.13131
6753.49724,0.10921
6755.42571,0.11098
6757.35418,0.11729
6759.28265,0.18382
6761.21112,0.26950
6763.13959,0.18298
6765.06806,0.02274
6766.99653,-0.04197
6768.92499,-0.06615
6770.85346,-0.08871
6772.78193,-0.08988
6774.71040,-0.04428
6776.63887,0.07778
6778.56734,0.15694
6780.49581,0.11600
6782.42427,0.05149
6784.35274,0.06059
6786.28121,0.10015
6788.20968,0.08849
6790.13815,0.05663
6792.06662,0.03916
6793.99509,-0.00726
6795.92355,-0.03916
6797.85202,-0.00697
6799.78049,0.05195
6801.70896,0.09085
6803.63743,0.06906
6805.56590,0.00912
6807.49437,-0.02182
6809.42284,-0.00523
6811.35130,0.01012
6813.27977,0.00203
6815.20824,0.03633
6817.13671,0.11424
6819.06518,0.19470
6820.99365,0.26600
6822.92212,0.27988
6824.85058,0.25107
6826.77905,0.21898
6828.70752,0.16051
6830.63599,0.08529
6832.56446,-0.01808
6834.49293,-0.11824
6836.42140,-0.12463
6838.34987,-0.08100
6840.27833,-0.04868
6842.20680,-0.03758
6844.13527,-0.05706
6846.06374,-0.04658
6847.99221,-0.00441
6849.92068,0.03502
6851.84915,0.10916
6853.77761,0.17827
6855.70608,0.16200
6857.63455,0.08939
6859.56302,0.04611
6861.49149,0.04213
6863.41996,0.02097
6865.34843,-0.03012
6867.27690,-0.05538
6869.20536,-0.06202
6871.13383,-0.08331
6873.06230,-0.09528
6874.99077,-0.11635
6876.91924,-0.16592
6878.84771,-0.16383
6880.77618,-0.06285
6882.70464,0.04562
6884.63311,0.07555
6886.56158,0.03562
6888.49005,0.02471
6890.41852,0.04526
6892.34699,0.03310
6894.27546,0.04420
6896.20393,0.07853
6898.13239,0.07365
6900.06086,0.06346
6901.98933,0.10937
6903.91780,0.18611
6905.84627,0.22669
6907.77474,0.23813
6909.70321,0.23367
6911.63167,0.21540
6913.56014,0.19619
6915.48861,0.17586
6917.41708,0.14253
6919.34555,0.10647
6921.27402,0.08418
6923.20249,0.03947
6925.13096,0.05050
6927.05942,0.14679
6928.98789,0.17758
6930.91636,0.09024
6932.84483,-0.00622
6934.77330,-0.03974
6936.70177,-0.04650
6938.63024,-0.09775
6940.55870,-0.17121
6942.48717,-0.16373
6944.41564,-0.07614
6946.34411,0.05948
6948.27258,0.17155
6950.20105,0.17088
6952.12952,0.07592
6954.05799,-0.02062
6955.98645,-0.06445
6957.91492,-0.08226
6959.84339,-0.07462
6961.77186,-0.03912
6963.70033,-0.01464
6965.62880,-0.02210
6967.55727,-0.05144
6969.48573,0.00690
6971.41420,0.18289
6973.34267,0.26827
6975.27114,0.18193
6977.19961,0.09118
6979.12808,0.06032
6981.05655,0.05258
6982.98501,0.06596
6984.91348,0.06271
6986.84195,0.02296
6988.77042,0.01641
6990.69889,0.03692
6992.62736,0.02650
6994.55583,0.01908
6996.48430,0.05647
6998.41276,0.05909
7000.34123,0.01472
7002.26970,0.03582
7004.19817,0.08233
7006.12664,0.09530
7008.05511,0.09966
7009.98358,0.11724
7011.91204,0.13367
7013.84051,0.09383
7015.76898,0.00884
7017.69745,-0.04120
7019.62592,-0.04388
7021.55439,-0.01471
7023.48286,0.05428
7025.41133,0.14177
7027.33979,0.19753
7029.26826,0.15955
7031.19673,0.08472
7033.12520,0.10920
7035.05367,0.17856
7036.98214,0.14097
7038.91061,0.08679
7040.83907,0.15273
7042.76754,0.24598
7044.69601,0.20333
7046.62448,0.10135
7048.55295,0.04100
7050.48142,0.05849
7052.40989,0.09382
7054.33836,0.03561
7056.26682,-0.00076
7058.19529,0.12090
7060.12376,0.22320
7062.05223,0.23142
7063.98070,0.20589
7065.90917,0.18204
7067.83764,0.16454
7069.76610,0.10967
7071.69457,0.02824
7073.62304,-0.00200
7075.55151,0.02538
7077.47998,0.05026
7079.40845,0.04582
7081.33692,0.04437
7083.26539,0.07335
7085.19385,0.11089
7087.12232,0.09004
7089.05079,0.00960
7090.97926,-0.04420
7092.90773,-0.08358
7094.83620,-0.07758
7096.76467,0.02228
7098.69313,0.09650
7100.62160,0.05215
7102.55007,-0.02371
7104.47854,-0.04888
7106.40701,-0.04819
7108.33548,-0.09348
7110.26395,-0.06979
7112.19242,0.07141
7114.12088,0.19520
7116.04935,0.23325
7117.97782,0.12751
7119.90629,-0.07888
7121.83476,-0.20179
7123.76323,-0.19953
7125.69170,-0.11735
7127.62016,-0.01461
7129.54863,0.07319
7131.47710,0.10176
7133.40557,0.02590
7135.33404,-0.02906
7137.26251,0.02016
7139.19098,0.05451
7141.11944,0.04374
7143.04791,0.07238
7144.97638,0.14869
7146.90485,0.15288
7148.83332,0.06034
7150.76179,-0.03808
7152.69026,-0.14089
7154.61873,-0.17966
7156.54719,-0.08248
7158.47566,0.03914
7160.40413,0.11649
7162.33260,0.19581
7164.26107,0.27494
7166.18954,0.23464
7168.11801,0.09233
7170.04647,0.02487
7171.97494,0.09837
7173.90341,0.19798
7175.83188,0.26233
7177.76035,0.24286
7179.68882,0.10272
7181.61729,-0.04859
7183.54576,-0.08209
7185.47422,-0.04028
7187.40269,0.00474
7189.33116,0.11803
7191.25963,0.27815
7193.18810,0.28357
7195.11657,0.18374
7197.04504,0.17827
7198.97350,0.24594
7200.90197,0.29181
7202.83044,0.26356
7204.75891,0.10951
7206.68738,0.05742
7208.61585,0.15604
7210.54432,0.16774
7212.47279,0.12235
7214.40125,0.08061
7216.32972,-0.05370
7218.25819,-0.12576
7220.18666,0.01336
7222.11513,0.11970
7224.04360,0.16472
7225.97207,0.21773
7227.90053,0.25154
7229.82900,0.23761
7231.75747,0.16205
7233.68594,0.10762
7235.61441,0.13692
7237.54288,0.12398
7239.47135,-0.00800
7241.39982,-0.12262
7243.32828,-0.06424
7245.25675,0.06754
7247.18522,0.12752
7249.11369,0.14224
7251.04216,0.11032
7252.97063,-0.03609
7254.89910,-0.23609
7256.82756,-0.31739
7258.75603,-0.24435
7260.68450,-0.07570
7262.61297,0.00180
7264.54144,0.00687
7266.46991,-0.00228
7268.39838,-0.08518
7270.32685,-0.17774
7272.25531,-0.17494
7274.18378,-0.00174
7276.11225,0.20271
7278.04072,0.27074
7279.96919,0.21530
7281.89766,0.15071
7283.82613,0.10840
7285.75459,0.09743
7287.68306,0.11063
7289.61153,0.10091
7291.54000,0.03871
7293.46847,-0.04678
7295.39694,-0.08861
7297.32541,-0.06424
7299.25387,-0.00906
7301.18234,0.03701
7303.11081,0.01176
7305.03928,0.00081
7306.96775,0.14051
7308.89622,0.23388
7310.82469,0.09988
7312.75316,-0.05082
7314.68162,-0.08352
7316.61009,-0.01342
7318.53856,0.07158
7320.46703,0.13565
7322.39550,0.10053
7324.32397,0.04693
7326.25244,0.13326
7328.18090,0.18089
7330.10937,0.17364
7332.03784,0.26022
7333.96631,0.25026
7335.89478,0.21483
7337.82325,0.31291
7339.75172,0.35139
7341.68019,0.10236
7343.60865,-0.02393
7345.53712,0.09520
7347.46559,0.20646
7349.39406,0.10683
7351.32253,-0.09983
7353.25100,-0.19722
7355.17947,-0.14375
7357.10793,-0.00359
7359.03640,0.16469
7360.96487,0.23811
7362.89334,0.24379
7364.82181,0.32536
7366.75028,0.43509
7368.67875,0.42446
7370.60722,0.30636
7372.53568,0.20851
7374.46415,0.17508
7376.39262,0.20403
7378.32109,0.20851
7380.24956,0.15503
7382.17803,0.08870
7384.10650,0.00840
7386.03496,-0.09707
7387.96343,-0.11761
7389.89190,-0.04775
7391.82037,-0.00286
7393.74884,0.00770
7395.67731,0.05113
7397.60578,0.12889
7399.53425,0.16534
7401.46271,0.10958
7403.39118,-0.00543
7405.31965,-0.03951
7407.24812,0.03284
7409.17659,0.09645
7411.10506,0.10524
7413.03353,0.04891
7414.96199,-0.03819
7416.89046,0.01822
7418.81893,0.30917
7420.74740,0.40330
7422.67587,0.20941
7424.60434,0.06260
7426.53281,-0.03607
7428.46128,-0.15939
7430.38974,-0.09648
7432.31821,0.18437
7434.24668,0.27684
7436.17515,0.17538
7438.10362,0.06213
7440.03209,-0.13931
7441.96056,-0.22666
7443.88902,-0.00411
7445.81749,0.25805
7447.74596,0.30902
7449.67443,0.16983
7451.60290,0.05377
7453.53137,-0.01099
7455.45984,-0.10390
7457.38831,-0.20059
7459.31677,-0.24016
7461.24524,-0.07617
7463.17371,0.19478
7465.10218,0.32437
7467.03065,0.25228
7468.95912,0.16508
7470.88759,0.16709
7472.81605,0.16552
7474.74452,0.05589
7476.67299,-0.10803
7478.60146,-0.14085
7480.52993,-0.04636
7482.45840,0.02902
7484.38687,0.10999
7486.31533,0.12081
7488.24380,0.00186
7490.17227,-0.08632
7492.10074,-0.04915
7494.02921,0.00694
7495.95768,0.03335
7497.88615,0.04945
