399.19301,1.23299
401.12148,0.32335
403.04995,0.25804
404.97842,0.21516
406.90689,0.28375
408.83536,0.38755
410.76382,0.37609
412.69229,0.22561
414.62076,0.03917
416.54923,-0.02453
418.47770,0.06837
420.40617,0.11480
422.33464,0.07942
424.26311,0.01855
426.19157,-0.07479
428.12004,-0.08773
430.04851,0.03178
431.97698,0.12161
433.90545,0.06619
435.83392,0.00028
437.76239,-0.01037
439.69085,-0.02502
441.61932,-0.03864
443.54779,0.05669
445.47626,0.18083
447.40473,0.18272
449.33320,0.13228
451.26167,0.12732
453.19013,0.13252
455.11860,0.11553
457.04707,0.12463
458.97554,0.20612
460.90401,0.23016
462.83248,0.13341
464.76095,0.05125
466.68942,0.05591
468.61788,0.06696
470.54635,0.03377
472.47482,-0.03707
474.40329,-0.06571
476.33176,-0.00730
478.26023,0.04620
480.18870,0.04902
482.11716,0.00705
484.04563,-0.01442
485.97410,0.02312
487.90257,0.07979
489.83104,0.08681
491.75951,0.03273
493.68798,-0.02826
495.61645,-0.05212
497.54491,-0.04251
499.47338,-0.00041
501.40185,0.05747
503.33032,0.07663
505.25879,0.03041
507.18726,-0.03020
509.11573,-0.01109
511.04419,0.06122
512.97266,0.09268
514.90113,0.09651
516.82960,0.10970
518.75807,0.07100
520.68654,-0.01153
522.61501,-0.05466
524.54348,-0.03455
526.47194,0.02890
528.40041,0.06233
530.32888,0.02858
532.25735,-0.01555
534.18582,-0.00212
536.11429,0.02176
538.04276,-0.01320
539.97122,-0.07826
541.89969,-0.11458
543.82816,-0.07096
545.75663,0.00557
547.68510,0.02737
549.61357,0.15549
551.54204,0.78441
553.47051,1.45318
555.39897,1.18894
557.32744,0.37828
559.25591,0.02719
561.18438,-0.02524
563.11285,-0.04823
565.04132,-0.03488
566.96979,-0.00337
568.89825,0.03115
570.82672,0.07017
572.75519,0.08310
574.68366,0.05739
576.61213,0.03596
578.54060,0.03661
580.46907,0.04210
582.39754,0.04413
584.32600,0.03843
586.25447,0.03442
588.18294,0.04624
590.11141,0.06384
592.03988,0.07195
593.96835,0.07423
595.89682,0.09021
597.82528,0.10322
599.75375,0.08729
601.68222,0.06306
603.61069,0.06501
605.53916,0.07955
607.46763,0.07569
609.39610,0.06795
611.32456,0.07245
613.25303,0.06792
615.18150,0.05050
617.10997,0.05311
619.03844,0.06660
620.96691,0.07070
622.89538,0.06743
624.82385,0.06264
626.75231,0.06999
628.68078,0.09165
630.60925,0.10653
632.53772,0.09473
634.46619,0.07440
636.39466,0.07672
638.32313,0.09864
640.25159,0.10609
642.18006,0.08782
644.10853,0.08234
646.03700,0.08951
647.96547,0.07965
649.89394,0.06683
651.82241,0.06288
653.75088,0.05565
655.67934,0.05472
657.60781,0.06346
659.53628,0.06490
661.46475,0.05935
663.39322,0.06234
665.32169,0.06622
667.25016,0.05650
669.17862,0.06316
671.10709,0.09127
673.03556,0.10354
674.96403,0.09484
676.89250,0.07708
678.82097,0.06593
680.74944,0.06501
682.67791,0.07553
684.60637,0.08685
686.53484,0.08995
688.46331,0.09293
690.39178,0.09837
692.32025,0.10668
694.24872,0.11413
696.17719,0.10273
698.10565,0.07828
700.03412,0.07047
701.96259,0.08206
703.89106,0.09297
705.81953,0.09199
707.74800,0.09611
709.67647,0.12761
711.60494,0.15939
713.53340,0.15123
715.46187,0.12442
717.39034,0.10898
719.31881,0.10024
721.24728,0.10023
723.17575,0.10971
725.10422,0.11483
727.03268,0.11199
728.96115,0.11087
730.88962,0.10860
732.81809,0.09685
734.74656,0.08528
736.67503,0.08681
738.60350,0.09823
740.53197,0.10461
742.46043,0.10436
744.38890,0.10396
746.31737,0.09935
748.24584,0.09298
750.17431,0.09793
752.10278,0.11410
754.03125,0.12535
755.95971,0.12210
757.88818,0.10981
759.81665,0.09745
761.74512,0.08684
763.67359,0.08399
765.60206,0.09123
767.53053,0.09659
769.45900,0.09965
771.38746,0.10655
773.31593,0.11158
775.24440,0.11114
777.17287,0.11146
779.10134,0.11125
781.02981,0.10294
782.95828,0.09345
784.88674,0.08946
786.81521,0.08341
788.74368,0.07432
790.67215,0.07330
792.60062,0.07820
794.52909,0.07319
796.45756,0.06135
798.38602,0.06160
800.31449,0.07679
802.24296,0.09889
804.17143,0.11992
806.09990,0.12737
808.02837,0.12052
809.95684,0.10825
811.88531,0.09504
813.81377,0.08871
815.74224,0.08914
817.67071,0.09495
819.59918,0.10463
821.52765,0.10614
823.45612,0.10077
825.38459,0.09898
827.31305,0.10104
829.24152,0.10153
831.16999,0.10284
833.09846,0.11119
835.02693,0.11797
836.95540,0.11352
838.88387,0.10676
840.81234,0.10450
842.74080,0.10284
844.66927,0.10491
846.59774,0.11165
848.52621,0.11188
850.45468,0.10604
852.38315,0.10905
854.31162,0.12273
856.24008,0.13476
858.16855,0.13483
860.09702,0.12292
862.02549,0.11224
863.95396,0.10884
865.88243,0.10682
867.81090,0.09879
869.73937,0.08573
871.66783,0.08733
873.59630,0.10473
875.52477,0.11671
877.45324,0.11978
879.38171,0.11943
881.31018,0.11784
883.23865,0.11148
885.16711,0.10246
887.09558,0.10730
889.02405,0.12107
890.95252,0.12439
892.88099,0.12126
894.80946,0.12046
896.73793,0.11771
898.66640,0.11263
900.59486,0.10976
902.52333,0.10959
904.45180,0.11125
906.38027,0.11344
908.30874,0.11557
910.23721,0.11583
912.16568,0.11320
914.09414,0.11119
916.02261,0.10982
917.95108,0.10712
919.87955,0.10848
921.80802,0.11665
923.73649,0.11932
925.66496,0.11104
927.59343,0.10611
929.52189,0.11022
931.45036,0.11668
933.37883,0.12391
935.30730,0.12567
937.23577,0.11882
939.16424,0.11611
941.09271,0.12078
943.02117,0.12333
944.94964,0.12219
946.87811,0.12088
948.80658,0.12061
950.73505,0.12350
952.66352,0.12891
954.59199,0.13030
956.52045,0.12643
958.44892,0.12038
960.37739,0.11271
962.30586,0.10741
964.23433,0.10875
966.16280,0.11264
968.09127,0.11399
970.01974,0.11426
971.94820,0.11615
973.87667,0.12242
975.80514,0.12973
977.73361,0.12886
979.66208,0.12104
981.59055,0.11630
983.51902,0.11489
985.44748,0.11348
987.37595,0.11815
989.30442,0.12508
991.23289,0.12310
993.16136,0.11725
995.08983,0.11565
997.01830,0.11385
998.94677,0.10759
1000.87523,0.10512
1002.80370,0.11069
1004.73217,0.11568
1006.66064,0.11806
1008.58911,0.12154
1010.51758,0.12456
1012.44605,0.12678
1014.37451,0.12868
1016.30298,0.12963
1018.23145,0.13237
1020.15992,0.13915
1022.08839,0.14426
1024.01686,0.14007
1025.94533,0.14232
1027.87380,0.16518
1029.80226,0.17298
1031.73073,0.14463
1033.65920,0.12068
1035.58767,0.12114
1037.51614,0.12599
1039.44461,0.12554
1041.37308,0.12267
1043.30154,0.11807
1045.23001,0.11309
1047.15848,0.11262
1049.08695,0.12026
1051.01542,0.13197
1052.94389,0.13481
1054.87236,0.12658
1056.80083,0.12238
1058.72929,0.12796
1060.65776,0.13969
1062.58623,0.14998
1064.51470,0.14920
1066.44317,0.14041
1068.37164,0.13046
1070.30011,0.12570
1072.22857,0.13142
1074.15704,0.14047
1076.08551,0.14551
1078.01398,0.14635
1079.94245,0.14437
1081.87092,0.14109
1083.79939,0.13489
1085.72786,0.12913
1087.65632,0.12968
1089.58479,0.12922
1091.51326,0.12137
1093.44173,0.11542
1095.37020,0.11977
1097.29867,0.12858
1099.22714,0.13383
1101.15560,0.13252
1103.08407,0.12545
1105.01254,0.12518
1106.94101,0.13544
1108.86948,0.14423
1110.79795,0.14935
1112.72642,0.15220
1114.65489,0.15090
1116.58335,0.14608
1118.51182,0.13763
1120.44029,0.12852
1122.36876,0.12505
1124.29723,0.12594
1126.22570,0.12612
1128.15417,0.12502
1130.08263,0.12093
1132.01110,0.11609
1133.93957,0.11837
1135.86804,0.12646
1137.79651,0.13141
1139.72498,0.13014
1141.65345,0.12571
1143.58191,0.12508
1145.51038,0.13223
1147.43885,0.13845
1149.36732,0.14035
1151.29579,0.14580
1153.22426,0.15241
1155.15273,0.15124
1157.08120,0.14339
1159.00966,0.13761
1160.93813,0.14023
1162.86660,0.14707
1164.79507,0.14637
1166.72354,0.13854
1168.65201,0.13444
1170.58048,0.13785
1172.50894,0.14446
1174.43741,0.14706
1176.36588,0.14567
1178.29435,0.14473
1180.22282,0.14265
1182.15129,0.13958
1184.07976,0.13775
1186.00823,0.13525
1187.93669,0.13401
1189.86516,0.13781
1191.79363,0.14007
1193.72210,0.13806
1195.65057,0.13978
1197.57904,0.14296
1199.50751,0.14260
1201.43597,0.14532
1203.36444,0.15130
1205.29291,0.15148
1207.22138,0.14629
1209.14985,0.14183
1211.07832,0.13945
1213.00679,0.14069
1214.93526,0.14482
1216.86372,0.14631
1218.79219,0.14463
1220.72066,0.14426
1222.64913,0.14542
1224.57760,0.14681
1226.50607,0.14824
1228.43454,0.14740
1230.36300,0.14632
1232.29147,0.14738
1234.21994,0.14762
1236.14841,0.14757
1238.07688,0.14983
1240.00535,0.15384
1241.93382,0.15644
1243.86229,0.15531
1245.79075,0.15238
1247.71922,0.15040
1249.64769,0.14878
1251.57616,0.14509
1253.50463,0.14092
1255.43310,0.13996
1257.36157,0.14105
1259.29003,0.14246
1261.21850,0.14557
1263.14697,0.14857
1265.07544,0.15093
1267.00391,0.15327
1268.93238,0.15064
1270.86085,0.14673
1272.78932,0.14785
1274.71778,0.14960
1276.64625,0.15189
1278.57472,0.15653
1280.50319,0.15697
1282.43166,0.15379
1284.36013,0.15525
1286.28860,0.15807
1288.21706,0.15599
1290.14553,0.15297
1292.07400,0.15091
1294.00247,0.14683
1295.93094,0.14280
1297.85941,0.14235
1299.78788,0.14242
1301.71634,0.13848
1303.64481,0.13200
1305.57328,0.13040
1307.50175,0.13757
1309.43022,0.14722
1311.35869,0.15467
1313.28716,0.16017
1315.21563,0.16206
1317.14409,0.16051
1319.07256,0.15863
1321.00103,0.15900
1322.92950,0.15949
1324.85797,0.15624
1326.78644,0.15190
1328.71491,0.15037
1330.64337,0.14921
1332.57184,0.14864
1334.50031,0.15052
1336.42878,0.15312
1338.35725,0.15680
1340.28572,0.15741
1342.21419,0.15281
1344.14266,0.14738
1346.07112,0.14351
1347.99959,0.14522
1349.92806,0.14857
1351.85653,0.14803
1353.78500,0.14762
1355.71347,0.15063
1357.64194,0.15456
1359.57040,0.15646
1361.49887,0.15852
1363.42734,0.16051
1365.35581,0.16018
1367.28428,0.15968
1369.21275,0.15908
1371.14122,0.15857
1373.06969,0.15967
1374.99815,0.16200
1376.92662,0.16385
1378.85509,0.16421
1380.78356,0.16306
1382.71203,0.16428
1384.64050,0.17037
1386.56897,0.17498
1388.49743,0.17195
1390.42590,0.16714
1392.35437,0.16588
1394.28284,0.16675
1396.21131,0.16657
1398.13978,0.16491
1400.06825,0.16304
1401.99672,0.16219
1403.92518,0.16412
1405.85365,0.16568
1407.78212,0.16191
1409.71059,0.15960
1411.63906,0.16424
1413.56753,0.16984
1415.49600,0.17405
1417.42446,0.18025
1419.35293,0.18153
1421.28140,0.17508
1423.20987,0.17171
1425.13834,0.17065
1427.06681,0.16962
1428.99528,0.17079
1430.92375,0.17261
1432.85221,0.17296
1434.78068,0.17360
1436.70915,0.17281
1438.63762,0.17010
1440.56609,0.17071
1442.49456,0.17225
1444.42303,0.17227
1446.35149,0.17394
1448.27996,0.17602
1450.20843,0.17662
1452.13690,0.18002
1454.06537,0.18677
1455.99384,0.19558
1457.92231,0.19643
1459.85077,0.18588
1461.77924,0.18130
1463.70771,0.18226
1465.63618,0.18071
1467.56465,0.17856
1469.49312,0.18239
1471.42159,0.19116
1473.35006,0.19560
1475.27852,0.18864
1477.20699,0.17943
1479.13546,0.17637
1481.06393,0.17771
1482.99240,0.17724
1484.92087,0.17858
1486.84934,0.18862
1488.77780,0.19936
1490.70627,0.19123
1492.63474,0.17967
1494.56321,0.18292
1496.49168,0.19394
1498.42015,0.19595
1500.34862,0.18986
1502.27709,0.18682
1504.20555,0.19638
1506.13402,0.22497
1508.06249,0.22972
1509.99096,0.20618
1511.91943,0.19140
1513.84790,0.18645
1515.77637,0.19201
1517.70483,0.20344
1519.63330,0.21419
1521.56177,0.21968
1523.49024,0.21246
1525.41871,0.20265
1527.34718,0.19492
1529.27565,0.19003
1531.20412,0.19171
1533.13258,0.19757
1535.06105,0.19755
1536.98952,0.19944
1538.91799,0.21993
1540.84646,0.24486
1542.77493,0.23192
1544.70340,0.21060
1546.63186,0.19868
1548.56033,0.19529
1550.48880,0.19111
1552.41727,0.18681
1554.34574,0.19480
1556.27421,0.21817
1558.20268,0.24747
1560.13115,0.23083
1562.05961,0.20186
1563.98808,0.19090
1565.91655,0.18860
1567.84502,0.19323
1569.77349,0.19844
1571.70196,0.19544
1573.63043,0.19494
1575.55889,0.19893
1577.48736,0.19586
1579.41583,0.18855
1581.34430,0.18299
1583.27277,0.17837
1585.20124,0.17579
1587.12971,0.17646
1589.05818,0.17765
1590.98664,0.17793
1592.91511,0.17970
1594.84358,0.18140
1596.77205,0.17951
1598.70052,0.17691
1600.62899,0.17704
1602.55746,0.17768
1604.48592,0.17741
1606.41439,0.17966
1608.34286,0.18377
1610.27133,0.18441
1612.19980,0.18418
1614.12827,0.19059
1616.05674,0.20305
1617.98521,0.20403
1619.91367,0.19594
1621.84214,0.19370
1623.77061,0.19322
1625.69908,0.19101
1627.62755,0.19090
1629.55602,0.18980
1631.48449,0.18755
1633.41295,0.19022
1635.34142,0.20037
1637.26989,0.20126
1639.19836,0.19239
1641.12683,0.18701
1643.05530,0.18780
1644.98377,0.19807
1646.91223,0.21236
1648.84070,0.21105
1650.76917,0.20843
1652.69764,0.21772
1654.62611,0.21457
1656.55458,0.19753
1658.48305,0.18550
1660.41152,0.18252
1662.33998,0.18598
1664.26845,0.18648
1666.19692,0.19038
1668.12539,0.20406
1670.05386,0.21362
1671.98233,0.21054
1673.91080,0.20852
1675.83926,0.20334
1677.76773,0.19628
1679.69620,0.19917
1681.62467,0.21162
1683.55314,0.22511
1685.48161,0.21914
1687.41008,0.20408
1689.33855,0.19629
1691.26701,0.19331
1693.19548,0.19360
1695.12395,0.19988
1697.05242,0.21017
1698.98089,0.21695
1700.90936,0.21514
1702.83783,0.21001
1704.76629,0.20659
1706.69476,0.19946
1708.62323,0.19255
1710.55170,0.19226
1712.48017,0.19756
1714.40864,0.20627
1716.33711,0.21405
1718.26558,0.20861
1720.19404,0.19558
1722.12251,0.18839
1724.05098,0.18596
1725.97945,0.18530
1727.90792,0.18877
1729.83639,0.19723
1731.76486,0.20683
1733.69332,0.20857
1735.62179,0.19759
1737.55026,0.19176
1739.47873,0.19226
1741.40720,0.19335
1743.33567,0.19529
1745.26414,0.19848
1747.19261,0.20265
1749.12107,0.20357
1751.04954,0.19510
1752.97801,0.18659
1754.90648,0.18663
1756.83495,0.19187
1758.76342,0.19612
1760.69189,0.19682
1762.62035,0.19159
1764.54882,0.18637
1766.47729,0.18848
1768.40576,0.19524
1770.33423,0.20308
1772.26270,0.20575
1774.19117,0.19687
1776.11964,0.18797
1778.04810,0.18621
1779.97657,0.18708
1781.90504,0.18490
1783.83351,0.18416
1785.76198,0.18592
1787.69045,0.18716
1789.61892,0.19200
1791.54738,0.19954
1793.47585,0.19973
1795.40432,0.19583
1797.33279,0.19439
1799.26126,0.19306
1801.18973,0.19027
1803.11820,0.18762
1805.04666,0.18699
1806.97513,0.18873
1808.90360,0.19067
1810.83207,0.18953
1812.76054,0.18513
1814.68901,0.18069
1816.61748,0.17603
1818.54595,0.17215
1820.47441,0.17343
1822.40288,0.17922
1824.33135,0.18464
1826.25982,0.18795
1828.18829,0.19353
1830.11676,0.19669
1832.04523,0.19051
1833.97369,0.18576
1835.90216,0.18658
1837.83063,0.18749
1839.75910,0.18840
1841.68757,0.19287
1843.61604,0.19637
1845.54451,0.19182
1847.47298,0.18641
1849.40144,0.18340
1851.32991,0.18117
1853.25838,0.18148
1855.18685,0.18239
1857.11532,0.18080
1859.04379,0.17834
1860.97226,0.17821
1862.90072,0.18201
1864.82919,0.18895
1866.75766,0.19685
1868.68613,0.20039
1870.61460,0.19429
1872.54307,0.18511
1874.47154,0.18083
1876.40001,0.18210
1878.32847,0.18354
1880.25694,0.18242
1882.18541,0.18185
1884.11388,0.18316
1886.04235,0.18595
1887.97082,0.19031
1889.89929,0.19179
1891.82775,0.18986
1893.75622,0.18991
1895.68469,0.19010
1897.61316,0.18722
1899.54163,0.18372
1901.47010,0.18173
1903.39857,0.18185
1905.32704,0.18416
1907.25550,0.18701
1909.18397,0.18793
1911.11244,0.18657
1913.04091,0.18557
1914.96938,0.18690
1916.89785,0.18968
1918.82632,0.19126
1920.75478,0.19110
1922.68325,0.18964
1924.61172,0.18626
1926.54019,0.18394
1928.46866,0.18474
1930.39713,0.18655
1932.32560,0.18700
1934.25407,0.18558
1936.18253,0.18415
1938.11100,0.18481
1940.03947,0.18786
1941.96794,0.19097
1943.89641,0.19174
1945.82488,0.18989
1947.75335,0.18543
1949.68181,0.18109
1951.61028,0.18001
1953.53875,0.18215
1955.46722,0.18441
1957.39569,0.18511
1959.32416,0.18749
1961.25263,0.19039
1963.18110,0.18956
1965.10956,0.18790
1967.03803,0.18777
1968.96650,0.18667
1970.89497,0.18528
1972.82344,0.18602
1974.75191,0.18756
1976.68038,0.18665
1978.60884,0.18352
1980.53731,0.18161
1982.46578,0.18263
1984.39425,0.18490
1986.32272,0.18641
1988.25119,0.18727
1990.17966,0.18910
1992.10812,0.19131
1994.03659,0.19074
1995.96506,0.18832
1997.89353,0.18656
1999.82200,0.18632
2001.75047,0.18799
2003.67894,0.18838
2005.60741,0.18669
2007.53587,0.18696
2009.46434,0.18920
2011.39281,0.19102
2013.32128,0.19219
2015.24975,0.19357
2017.17822,0.19454
2019.10669,0.19263
2021.03515,0.18856
2022.96362,0.18582
2024.89209,0.18459
2026.82056,0.18494
2028.74903,0.18727
2030.67750,0.18770
2032.60597,0.18671
2034.53444,0.18732
2036.46290,0.18667
2038.39137,0.18488
2040.31984,0.18503
2042.24831,0.18535
2044.17678,0.18478
2046.10525,0.18531
2048.03372,0.18656
2049.96218,0.18652
2051.89065,0.18525
2053.81912,0.18529
2055.74759,0.18654
2057.67606,0.18673
2059.60453,0.18807
2061.53300,0.19130
2063.46147,0.19310
2065.38993,0.19195
2067.31840,0.18852
2069.24687,0.18679
2071.17534,0.18830
2073.10381,0.18964
2075.03228,0.19046
2076.96075,0.19155
2078.88921,0.19113
2080.81768,0.18908
2082.74615,0.18697
2084.67462,0.18491
2086.60309,0.18375
2088.53156,0.18608
2090.46003,0.19011
2092.38850,0.19198
2094.31696,0.19169
2096.24543,0.19072
2098.17390,0.19093
2100.10237,0.19207
2102.03084,0.19259
2103.95931,0.19246
2105.88778,0.19039
2107.81624,0.18648
2109.74471,0.18447
2111.67318,0.18600
2113.60165,0.18789
2115.53012,0.18863
2117.45859,0.18960
2119.38706,0.18909
2121.31553,0.18706
2123.24399,0.18684
2125.17246,0.18790
2127.10093,0.18823
2129.02940,0.18877
2130.95787,0.18932
2132.88634,0.18962
2134.81481,0.19134
2136.74327,0.19265
2138.67174,0.19076
2140.60021,0.18816
2142.52868,0.18769
2144.45715,0.18770
2146.38562,0.18757
2148.31409,0.18808
2150.24255,0.18769
2152.17102,0.18803
2154.09949,0.19078
2156.02796,0.19178
2157.95643,0.18998
2159.88490,0.18972
2161.81337,0.19145
2163.74184,0.19118
2165.67030,0.18811
2167.59877,0.18723
2169.52724,0.19081
2171.45571,0.19218
2173.38418,0.18848
2175.31265,0.18586
2177.24112,0.18705
2179.16958,0.18960
2181.09805,0.19029
2183.02652,0.18775
2184.95499,0.18606
2186.88346,0.18825
2188.81193,0.19057
2190.74040,0.19001
2192.66887,0.18770
2194.59733,0.18527
2196.52580,0.18420
2198.45427,0.18417
2200.38274,0.18436
2202.31121,0.18563
2204.23968,0.18690
2206.16815,0.18602
2208.09661,0.18430
2210.02508,0.18407
2211.95355,0.18542
2213.88202,0.18731
2215.81049,0.18877
2217.73896,0.19030
2219.66743,0.19173
2221.59590,0.19189
2223.52436,0.19079
2225.45283,0.18855
2227.38130,0.18686
2229.30977,0.18779
2231.23824,0.19062
2233.16671,0.19183
2235.09518,0.18862
2237.02364,0.18476
2238.95211,0.18575
2240.88058,0.18980
2242.80905,0.19167
2244.73752,0.19112
2246.66599,0.19066
2248.59446,0.19032
2250.52293,0.19015
2252.45139,0.19134
2254.37986,0.19339
2256.30833,0.19507
2258.23680,0.19565
2260.16527,0.19391
2262.09374,0.19085
2264.02221,0.18927
2265.95067,0.19026
2267.87914,0.19338
2269.80761,0.19635
2271.73608,0.19715
2273.66455,0.19678
2275.59302,0.19542
2277.52149,0.19135
2279.44996,0.18836
2281.37842,0.19045
2283.30689,0.19207
2285.23536,0.18921
2287.16383,0.18688
2289.09230,0.18842
2291.02077,0.19197
2292.94924,0.19845
2294.87770,0.20642
2296.80617,0.20686
2298.73464,0.19967
2300.66311,0.19445
2302.59158,0.19373
2304.52005,0.19561
2306.44852,0.19976
2308.37699,0.20418
2310.30545,0.20697
2312.23392,0.20985
2314.16239,0.21281
2316.09086,0.21250
2318.01933,0.21156
2319.94780,0.21388
2321.87627,0.21486
2323.80473,0.21504
2325.73320,0.22077
2327.66167,0.22748
2329.59014,0.23053
2331.51861,0.23180
2333.44708,0.23373
2335.37555,0.24172
2337.30401,0.25203
2339.23248,0.25045
2341.16095,0.23804
2343.08942,0.22842
2345.01789,0.22457
2346.94636,0.22208
2348.87483,0.21995
2350.80330,0.22072
2352.73176,0.23049
2354.66023,0.24979
2356.58870,0.26344
2358.51717,0.25667
2360.44564,0.23482
2362.37411,0.22756
2364.30258,0.24409
2366.23104,0.25461
2368.15951,0.24684
2370.08798,0.23864
2372.01645,0.23413
2373.94492,0.22625
2375.87339,0.21692
2377.80186,0.20867
2379.73033,0.20185
2381.65879,0.19732
2383.58726,0.19531
2385.51573,0.19541
2387.44420,0.19522
2389.37267,0.19280
2391.30114,0.19030
2393.22961,0.19031
2395.15807,0.19075
2397.08654,0.18959
2399.01501,0.18898
2400.94348,0.19044
2402.87195,0.19258
2404.80042,0.19279
2406.72889,0.19116
2408.65736,0.19083
2410.58582,0.19225
2412.51429,0.19273
2414.44276,0.19161
2416.37123,0.19133
2418.29970,0.19357
2420.22817,0.19684
2422.15664,0.19846
2424.08510,0.19728
2426.01357,0.19426
2427.94204,0.19218
2429.87051,0.19213
2431.79898,0.19210
2433.72745,0.19249
2435.65592,0.19484
2437.58439,0.19686
2439.51285,0.19648
2441.44132,0.19372
2443.36979,0.19098
2445.29826,0.19174
2447.22673,0.19404
2449.15520,0.19527
2451.08367,0.19613
2453.01213,0.19532
2454.94060,0.19308
2456.86907,0.19166
2458.79754,0.19235
2460.72601,0.19388
2462.65448,0.19369
2464.58295,0.19299
2466.51142,0.19309
2468.43988,0.19283
2470.36835,0.19188
2472.29682,0.19110
2474.22529,0.19106
2476.15376,0.19148
2478.08223,0.19278
2480.01070,0.19491
2481.93916,0.19653
2483.86763,0.19816
2485.79610,0.20009
2487.72457,0.19971
2489.65304,0.19815
2491.58151,0.19845
2493.50998,0.19817
2495.43844,0.19595
2497.36691,0.19425
2499.29538,0.19452
2501.22385,0.19556
2503.15232,0.19555
2505.08079,0.19480
2507.00926,0.19333
2508.93773,0.19107
2510.86619,0.19131
2512.79466,0.19551
2514.72313,0.19877
2516.65160,0.19760
2518.58007,0.19500
2520.50854,0.19443
2522.43701,0.19615
2524.36547,0.19871
2526.29394,0.19970
2528.22241,0.19840
2530.15088,0.19677
2532.07935,0.19646
2534.00782,0.19760
2535.93629,0.19803
2537.86476,0.19587
2539.79322,0.19322
2541.72169,0.19288
2543.65016,0.19531
2545.57863,0.19771
2547.50710,0.19727
2549.43557,0.19612
2551.36404,0.19626
2553.29250,0.19609
2555.22097,0.19502
2557.14944,0.19378
2559.07791,0.19182
2561.00638,0.19016
2562.93485,0.19138
2564.86332,0.19247
2566.79179,0.19189
2568.72025,0.19424
2570.64872,0.19716
2572.57719,0.19670
2574.50566,0.19500
2576.43413,0.19310
2578.36260,0.19244
2580.29107,0.19350
2582.21953,0.19326
2584.14800,0.19159
2586.07647,0.19165
2588.00494,0.19407
2589.93341,0.19604
2591.86188,0.19598
2593.79035,0.19509
2595.71882,0.19498
2597.64728,0.19545
2599.57575,0.19443
2601.50422,0.19242
2603.43269,0.19241
2605.36116,0.19363
2607.28963,0.19369
2609.21810,0.19377
2611.14656,0.19581
2613.07503,0.19833
2615.00350,0.19807
2616.93197,0.19677
2618.86044,0.19731
2620.78891,0.19720
2622.71738,0.19679
2624.64585,0.19895
2626.57431,0.20110
2628.50278,0.20041
2630.43125,0.19790
2632.35972,0.19597
2634.28819,0.19576
2636.21666,0.19478
2638.14513,0.19353
2640.07359,0.19622
2642.00206,0.20054
2643.93053,0.20313
2645.85900,0.20321
2647.78747,0.19946
2649.71594,0.19701
2651.64441,0.19923
2653.57288,0.20053
2655.50134,0.19963
2657.42981,0.20008
2659.35828,0.20098
2661.28675,0.20044
2663.21522,0.20046
2665.14369,0.20157
2667.07216,0.20068
2669.00062,0.19871
2670.92909,0.19791
2672.85756,0.19776
2674.78603,0.20007
2676.71450,0.20341
2678.64297,0.20351
2680.57144,0.20192
2682.49990,0.20121
2684.42837,0.20081
2686.35684,0.19956
2688.28531,0.19738
2690.21378,0.19576
2692.14225,0.19523
2694.07072,0.19505
2695.99919,0.19723
2697.92765,0.20212
2699.85612,0.20474
2701.78459,0.20340
2703.71306,0.20045
2705.64153,0.19814
2707.57000,0.19838
2709.49847,0.19914
2711.42693,0.19891
2713.35540,0.19961
2715.28387,0.19995
2717.21234,0.19906
2719.14081,0.19906
2721.06928,0.19946
2722.99775,0.20041
2724.92622,0.20299
2726.85468,0.20498
2728.78315,0.20561
2730.71162,0.20735
2732.64009,0.20891
2734.56856,0.20684
2736.49703,0.20268
2738.42550,0.20082
2740.35396,0.20386
2742.28243,0.20770
2744.21090,0.20564
2746.13937,0.20090
2748.06784,0.20035
2749.99631,0.20326
2751.92478,0.20557
2753.85325,0.20711
2755.78171,0.20985
2757.71018,0.21254
2759.63865,0.21325
2761.56712,0.21220
2763.49559,0.21008
2765.42406,0.20716
2767.35253,0.20435
2769.28099,0.20292
2771.20946,0.20367
2773.13793,0.20656
2775.06640,0.20899
2776.99487,0.20829
2778.92334,0.20616
2780.85181,0.20593
2782.78028,0.20741
2784.70874,0.20772
2786.63721,0.20714
2788.56568,0.20848
2790.49415,0.21173
2792.42262,0.21411
2794.35109,0.21284
2796.27956,0.20918
2798.20802,0.20851
2800.13649,0.21121
2802.06496,0.21173
2803.99343,0.20888
2805.92190,0.20617
2807.85037,0.20489
2809.77884,0.20473
2811.70731,0.20672
2813.63577,0.21016
2815.56424,0.21269
2817.49271,0.21495
2819.42118,0.21674
2821.34965,0.21493
2823.27812,0.21156
2825.20659,0.21107
2827.13505,0.21334
2829.06352,0.21630
2830.99199,0.21680
2832.92046,0.21492
2834.84893,0.21464
2836.77740,0.21528
2838.70587,0.21407
2840.63433,0.21193
2842.56280,0.21054
2844.49127,0.21009
2846.41974,0.20949
2848.34821,0.20869
2850.27668,0.20912
2852.20515,0.21015
2854.13362,0.21202
2856.06208,0.21468
2857.99055,0.21363
2859.91902,0.20868
2861.84749,0.20508
2863.77596,0.20487
2865.70443,0.20633
2867.63290,0.20804
2869.56136,0.21030
2871.48983,0.21262
2873.41830,0.21267
2875.34677,0.21004
2877.27524,0.20871
2879.20371,0.21050
2881.13218,0.21150
2883.06065,0.20903
2884.98911,0.20593
2886.91758,0.20690
2888.84605,0.21007
2890.77452,0.21086
2892.70299,0.20990
2894.63146,0.20887
2896.55993,0.20934
2898.48839,0.21007
2900.41686,0.20939
2902.34533,0.20983
2904.27380,0.20991
2906.20227,0.20725
2908.13074,0.20539
2910.05921,0.20701
2911.98768,0.20940
2913.91614,0.20721
2915.84461,0.20100
2917.77308,0.19856
2919.70155,0.20146
2921.63002,0.20467
2923.55849,0.20627
2925.48696,0.20461
2927.41542,0.20140
2929.34389,0.20124
2931.27236,0.20288
2933.20083,0.20331
2935.12930,0.19948
2937.05777,0.19405
2938.98624,0.19581
2940.91471,0.20407
2942.84317,0.21071
2944.77164,0.20974
2946.70011,0.20384
2948.62858,0.20563
2950.55705,0.21514
2952.48552,0.21839
2954.41399,0.21373
2956.34245,0.20776
2958.27092,0.20514
2960.19939,0.20824
2962.12786,0.21146
2964.05633,0.21099
2965.98480,0.20925
2967.91327,0.20710
2969.84174,0.20650
2971.77020,0.20963
2973.69867,0.21497
2975.62714,0.21483
2977.55561,0.20612
2979.48408,0.20046
2981.41255,0.20362
2983.34102,0.20844
2985.26948,0.20902
2987.19795,0.20519
2989.12642,0.20536
2991.05489,0.21328
2992.98336,0.21862
2994.91183,0.21700
2996.84030,0.21450
2998.76877,0.21531
3000.69723,0.21848
3002.62570,0.21880
3004.55417,0.21612
3006.48264,0.21581
3008.41111,0.21538
3010.33958,0.20777
3012.26805,0.19141
3014.19651,0.16569
3016.12498,0.14240
3018.05345,0.14955
3019.98192,0.18378
3021.91039,0.21108
3023.83886,0.22090
3025.76733,0.22073
3027.69579,0.21697
3029.62426,0.21723
3031.55273,0.22219
3033.48120,0.22501
3035.40967,0.22189
3037.33814,0.21732
3039.26661,0.21780
3041.19508,0.22162
3043.12354,0.22276
3045.05201,0.21896
3046.98048,0.21346
3048.90895,0.21178
3050.83742,0.21190
3052.76589,0.21048
3054.69436,0.20929
3056.62282,0.20700
3058.55129,0.20693
3060.47976,0.21277
3062.40823,0.21746
3064.33670,0.21483
3066.26517,0.20743
3068.19364,0.20480
3070.12211,0.20950
3072.05057,0.21251
3073.97904,0.20737
3075.90751,0.19921
3077.83598,0.19950
3079.76445,0.20875
3081.69292,0.21615
3083.62139,0.21219
3085.54985,0.20435
3087.47832,0.20743
3089.40679,0.21520
3091.33526,0.21667
3093.26373,0.21227
3095.19220,0.20962
3097.12067,0.21504
3099.04914,0.22085
3100.97760,0.21858
3102.90607,0.21107
3104.83454,0.20962
3106.76301,0.21687
3108.69148,0.22107
3110.61995,0.21726
3112.54842,0.21111
3114.47688,0.20977
3116.40535,0.21308
3118.33382,0.21418
3120.26229,0.21145
3122.19076,0.21003
3124.11923,0.21221
3126.04770,0.21287
3127.97617,0.21045
3129.90463,0.20969
3131.83310,0.21213
3133.76157,0.21530
3135.69004,0.21638
3137.61851,0.21382
3139.54698,0.21150
3141.47545,0.21448
3143.40391,0.21855
3145.33238,0.21949
3147.26085,0.21912
3149.18932,0.22024
3151.11779,0.22303
3153.04626,0.22290
3154.97473,0.21800
3156.90320,0.21159
3158.83166,0.21102
3160.76013,0.22020
3162.68860,0.22971
3164.61707,0.22945
3166.54554,0.22390
3168.47401,0.22150
3170.40248,0.22013
3172.33094,0.21782
3174.25941,0.21645
3176.18788,0.21574
3178.11635,0.21560
3180.04482,0.21611
3181.97329,0.22237
3183.90176,0.23393
3185.83022,0.23693
3187.75869,0.22963
3189.68716,0.22564
3191.61563,0.22733
3193.54410,0.22639
3195.47257,0.22145
3197.40104,0.21785
3199.32951,0.21692
3201.25797,0.21642
3203.18644,0.21656
3205.11491,0.21775
3207.04338,0.21993
3208.97185,0.22282
3210.90032,0.22485
3212.82879,0.22618
3214.75725,0.22590
3216.68572,0.22249
3218.61419,0.21898
3220.54266,0.21837
3222.47113,0.22080
3224.39960,0.22339
3226.32807,0.22211
3228.25654,0.21883
3230.18500,0.21912
3232.11347,0.22195
3234.04194,0.22166
3235.97041,0.21861
3237.89888,0.21610
3239.82735,0.21460
3241.75582,0.21779
3243.68428,0.22397
3245.61275,0.22304
3247.54122,0.21663
3249.46969,0.21389
3251.39816,0.21545
3253.32663,0.21791
3255.25510,0.21966
3257.18357,0.21919
3259.11203,0.21737
3261.04050,0.21649
3262.96897,0.21461
3264.89744,0.21108
3266.82591,0.20943
3268.75438,0.20937
3270.68285,0.20765
3272.61131,0.20774
3274.53978,0.21473
3276.46825,0.22138
3278.39672,0.22009
3280.32519,0.21799
3282.25366,0.22126
3284.18213,0.22384
3286.11060,0.22087
3288.03906,0.21649
3289.96753,0.21406
3291.89600,0.21244
3293.82447,0.21244
3295.75294,0.21562
3297.68141,0.21885
3299.60988,0.21945
3301.53834,0.21816
3303.46681,0.21444
3305.39528,0.21012
3307.32375,0.20909
3309.25222,0.21133
3311.18069,0.21213
3313.10916,0.20934
3315.03763,0.20909
3316.96609,0.21389
3318.89456,0.21898
3320.82303,0.22080
3322.75150,0.21879
3324.67997,0.21701
3326.60844,0.21873
3328.53691,0.21878
3330.46537,0.21400
3332.39384,0.21327
3334.32231,0.21990
3336.25078,0.22313
3338.17925,0.21988
3340.10772,0.21888
3342.03619,0.22326
3343.96466,0.22647
3345.89312,0.22378
3347.82159,0.21940
3349.75006,0.21892
3351.67853,0.22185
3353.60700,0.22439
3355.53547,0.22337
3357.46394,0.21904
3359.39240,0.21726
3361.32087,0.22139
3363.24934,0.22533
3365.17781,0.22344
3367.10628,0.21922
3369.03475,0.21766
3370.96322,0.21958
3372.89168,0.22315
3374.82015,0.22482
3376.74862,0.22293
3378.67709,0.21919
3380.60556,0.21867
3382.53403,0.22377
3384.46250,0.22670
3386.39097,0.22386
3388.31943,0.22104
3390.24790,0.21966
3392.17637,0.21883
3394.10484,0.21907
3396.03331,0.21966
3397.96178,0.21763
3399.89025,0.21332
3401.81871,0.21146
3403.74718,0.21273
3405.67565,0.21482
3407.60412,0.21415
3409.53259,0.20950
3411.46106,0.20620
3413.38953,0.20843
3415.31800,0.21472
3417.24646,0.22038
3419.17493,0.22267
3421.10340,0.22165
3423.03187,0.21728
3424.96034,0.21236
3426.88881,0.21065
3428.81728,0.21015
3430.74574,0.20906
3432.67421,0.20829
3434.60268,0.20596
3436.53115,0.20510
3438.45962,0.20943
3440.38809,0.21327
3442.31656,0.21198
3444.24503,0.21063
3446.17349,0.21217
3448.10196,0.21067
3450.03043,0.20712
3451.95890,0.20610
3453.88737,0.20664
3455.81584,0.20798
3457.74431,0.20540
3459.67277,0.19778
3461.60124,0.19509
3463.52971,0.19983
3465.45818,0.20366
3467.38665,0.20504
3469.31512,0.20592
3471.24359,0.20337
3473.17206,0.19890
3475.10052,0.19637
3477.02899,0.19551
3478.95746,0.19799
3480.88593,0.19827
3482.81440,0.19196
3484.74287,0.19289
3486.67134,0.20100
3488.59980,0.20079
3490.52827,0.19308
3492.45674,0.18698
3494.38521,0.18536
3496.31368,0.18678
3498.24215,0.18783
3500.17062,0.18732
3502.09909,0.18699
3504.02755,0.18613
3505.95602,0.18412
3507.88449,0.18512
3509.81296,0.18633
3511.74143,0.18307
3513.66990,0.18150
3515.59837,0.18391
3517.52683,0.18682
3519.45530,0.18856
3521.38377,0.18644
3523.31224,0.18112
3525.24071,0.17932
3527.16918,0.18226
3529.09765,0.18343
3531.02611,0.18139
3532.95458,0.18019
3534.88305,0.18068
3536.81152,0.18081
3538.73999,0.17761
3540.66846,0.17358
3542.59693,0.17368
3544.52540,0.17614
3546.45386,0.17790
3548.38233,0.17824
3550.31080,0.17597
3552.23927,0.17377
3554.16774,0.17396
3556.09621,0.17315
3558.02468,0.17024
3559.95314,0.16711
3561.88161,0.16622
3563.81008,0.16934
3565.73855,0.17459
3567.66702,0.17753
3569.59549,0.17523
3571.52396,0.17170
3573.45243,0.17048
3575.38089,0.17100
3577.30936,0.17166
3579.23783,0.17125
3581.16630,0.16974
3583.09477,0.16886
3585.02324,0.17036
3586.95171,0.17326
3588.88017,0.17125
3590.80864,0.16613
3592.73711,0.16488
3594.66558,0.16589
3596.59405,0.16370
3598.52252,0.16093
3600.45099,0.15970
3602.37946,0.15698
3604.30792,0.15506
3606.23639,0.15916
3608.16486,0.16742
3610.09333,0.17089
3612.02180,0.16961
3613.95027,0.16713
3615.87874,0.16515
3617.80720,0.16627
3619.73567,0.16535
3621.66414,0.15706
3623.59261,0.14898
3625.52108,0.14618
3627.44955,0.14967
3629.37802,0.15534
3631.30649,0.15312
3633.23495,0.14813
3635.16342,0.14460
3637.09189,0.14247
3639.02036,0.14371
3640.94883,0.14724
3642.87730,0.14759
3644.80577,0.14634
3646.73423,0.15238
3648.66270,0.16348
3650.59117,0.15674
3652.51964,0.14433
3654.44811,0.14197
3656.37658,0.14450
3658.30505,0.14309
3660.23352,0.14102
3662.16198,0.14054
3664.09045,0.13786
3666.01892,0.13594
3667.94739,0.13988
3669.87586,0.14737
3671.80433,0.15049
3673.73280,0.15516
3675.66126,0.16191
3677.58973,0.15614
3679.51820,0.14644
3681.44667,0.14046
3683.37514,0.13875
3685.30361,0.14267
3687.23208,0.15087
3689.16055,0.15671
3691.08901,0.15256
3693.01748,0.14218
3694.94595,0.13414
3696.87442,0.13262
3698.80289,0.13407
3700.73136,0.13440
3702.65983,0.13283
3704.58829,0.13165
3706.51676,0.13575
3708.44523,0.14419
3710.37370,0.14963
3712.30217,0.14609
3714.23064,0.13974
3716.15911,0.13685
3718.08757,0.13639
3720.01604,0.13676
3721.94451,0.13824
3723.87298,0.13980
3725.80145,0.14141
3727.72992,0.14404
3729.65839,0.14659
3731.58686,0.15046
3733.51532,0.15843
3735.44379,0.16393
3737.37226,0.15768
3739.30073,0.14938
3741.22920,0.14616
3743.15767,0.14553
3745.08614,0.14170
3747.01460,0.13937
3748.94307,0.14400
3750.87154,0.14572
3752.80001,0.13665
3754.72848,0.13099
3756.65695,0.13173
3758.58542,0.13374
3760.51389,0.13384
3762.44235,0.13349
3764.37082,0.13376
3766.29929,0.13533
3768.22776,0.13881
3770.15623,0.14106
3772.08470,0.13735
3774.01317,0.13078
3775.94163,0.12531
3777.87010,0.12246
3779.79857,0.12292
3781.72704,0.12492
3783.65551,0.12798
3785.58398,0.13027
3787.51245,0.12893
3789.44092,0.12562
3791.36938,0.12305
3793.29785,0.12304
3795.22632,0.12490
3797.15479,0.12735
3799.08326,0.13225
3801.01173,0.14030
3802.94020,0.14198
3804.86866,0.13719
3806.79713,0.13358
3808.72560,0.12952
3810.65407,0.12440
3812.58254,0.12197
3814.51101,0.12454
3816.43948,0.12946
3818.36795,0.13556
3820.29641,0.14407
3822.22488,0.14322
3824.15335,0.13638
3826.08182,0.13482
3828.01029,0.13567
3829.93876,0.13234
3831.86723,0.12408
3833.79569,0.12052
3835.72416,0.12367
3837.65263,0.12643
3839.58110,0.12998
3841.50957,0.13200
3843.43804,0.12754
3845.36651,0.12212
3847.29498,0.12263
3849.22344,0.12988
3851.15191,0.14501
3853.08038,0.15811
3855.00885,0.14333
3856.93732,0.12950
3858.86579,0.12500
3860.79426,0.12485
3862.72272,0.13371
3864.65119,0.14324
3866.57966,0.13813
3868.50813,0.12915
3870.43660,0.12527
3872.36507,0.12255
3874.29354,0.11724
3876.22200,0.11096
3878.15047,0.11176
3880.07894,0.12123
3882.00741,0.12487
3883.93588,0.12028
3885.86435,0.11716
3887.79282,0.11731
3889.72129,0.11964
3891.64975,0.11922
3893.57822,0.11386
3895.50669,0.11301
3897.43516,0.12065
3899.36363,0.13066
3901.29210,0.13054
3903.22057,0.12262
3905.14903,0.11805
3907.07750,0.11498
3909.00597,0.11201
3910.93444,0.11038
3912.86291,0.11039
3914.79138,0.11333
3916.71985,0.11795
3918.64832,0.12228
3920.57678,0.12268
3922.50525,0.11626
3924.43372,0.10882
3926.36219,0.10843
3928.29066,0.11420
3930.21913,0.12090
3932.14760,0.12219
3934.07606,0.11531
3936.00453,0.10847
3937.93300,0.10479
3939.86147,0.10210
3941.78994,0.10378
3943.71841,0.10794
3945.64688,0.10724
3947.57535,0.10422
3949.50381,0.10264
3951.43228,0.10313
3953.36075,0.10745
3955.28922,0.11142
3957.21769,0.11110
3959.14616,0.11139
3961.07463,0.11328
3963.00309,0.11360
3964.93156,0.11300
3966.86003,0.11128
3968.78850,0.10730
3970.71697,0.10295
3972.64544,0.10058
3974.57391,0.09987
3976.50238,0.09936
3978.43084,0.10054
3980.35931,0.10318
3982.28778,0.10203
3984.21625,0.09778
3986.14472,0.09529
3988.07319,0.09451
3990.00166,0.09444
3991.93012,0.09592
3993.85859,0.09942
3995.78706,0.10193
3997.71553,0.09975
3999.64400,0.09505
4001.57247,0.09461
4003.50094,0.10038
4005.42941,0.10647
4007.35787,0.10583
4009.28634,0.09849
4011.21481,0.09194
4013.14328,0.08845
4015.07175,0.08569
4017.00022,0.08529
4018.92869,0.08704
4020.85715,0.08758
4022.78562,0.08699
4024.71409,0.08851
4026.64256,0.09245
4028.57103,0.09436
4030.49950,0.09417
4032.42797,0.09495
4034.35644,0.09418
4036.28490,0.09157
4038.21337,0.09037
4040.14184,0.09168
4042.07031,0.09570
4043.99878,0.09815
4045.92725,0.09473
4047.85572,0.09046
4049.78418,0.09129
4051.71265,0.09280
4053.64112,0.08886
4055.56959,0.08225
4057.49806,0.08043
4059.42653,0.08474
4061.35500,0.08694
4063.28346,0.08565
4065.21193,0.08793
4067.14040,0.09128
4069.06887,0.09108
4070.99734,0.09040
4072.92581,0.09005
4074.85428,0.08828
4076.78275,0.08618
4078.71121,0.08434
4080.63968,0.08428
4082.56815,0.08614
4084.49662,0.08658
4086.42509,0.08372
4088.35356,0.07793
4090.28203,0.07390
4092.21049,0.07530
4094.13896,0.07939
4096.06743,0.08383
4097.99590,0.08687
4099.92437,0.08622
4101.85284,0.08617
4103.78131,0.09087
4105.70978,0.09250
4107.63824,0.08648
4109.56671,0.08136
4111.49518,0.08169
4113.42365,0.08356
4115.35212,0.08439
4117.28059,0.08235
4119.20906,0.07499
4121.13752,0.06616
4123.06599,0.06395
4124.99446,0.06887
4126.92293,0.07331
4128.85140,0.07492
4130.77987,0.07563
4132.70834,0.07371
4134.63681,0.07233
4136.56527,0.07421
4138.49374,0.07418
4140.42221,0.07101
4142.35068,0.06828
4144.27915,0.06884
4146.20762,0.07240
4148.13609,0.07408
4150.06455,0.07192
4151.99302,0.06803
4153.92149,0.06455
4155.84996,0.06469
4157.77843,0.06698
4159.70690,0.06630
4161.63537,0.06274
4163.56384,0.05900
4165.49230,0.05919
4167.42077,0.06468
4169.34924,0.06779
4171.27771,0.06609
4173.20618,0.06635
4175.13465,0.06699
4177.06312,0.06452
4178.99158,0.06522
4180.92005,0.07037
4182.84852,0.07149
4184.77699,0.06619
4186.70546,0.06134
4188.63393,0.06045
4190.56240,0.06203
4192.49087,0.06585
4194.41933,0.06821
4196.34780,0.06537
4198.27627,0.06183
4200.20474,0.06128
4202.13321,0.06251
4204.06168,0.06401
4205.99015,0.06243
4207.91861,0.05811
4209.84708,0.05699
4211.77555,0.05872
4213.70402,0.05605
4215.63249,0.05090
4217.56096,0.05434
4219.48943,0.06362
4221.41789,0.06622
4223.34636,0.06471
4225.27483,0.06684
4227.20330,0.06815
4229.13177,0.06555
4231.06024,0.06174
4232.98871,0.05676
4234.91718,0.05301
4236.84564,0.05372
4238.77411,0.05722
4240.70258,0.06018
4242.63105,0.06003
4244.55952,0.05645
4246.48799,0.05135
4248.41646,0.05012
4250.34492,0.05427
4252.27339,0.05655
4254.20186,0.05743
4256.13033,0.06225
4258.05880,0.06579
4259.98727,0.06209
4261.91574,0.05638
4263.84421,0.05605
4265.77267,0.05684
4267.70114,0.05190
4269.62961,0.04396
4271.55808,0.03903
4273.48655,0.03952
4275.41502,0.04235
4277.34349,0.04594
4279.27195,0.04900
4281.20042,0.04658
4283.12889,0.04207
4285.05736,0.03948
4286.98583,0.03891
4288.91430,0.04288
4290.84277,0.04571
4292.77124,0.04492
4294.69970,0.04776
4296.62817,0.05195
4298.55664,0.05048
4300.48511,0.04540
4302.41358,0.04182
4304.34205,0.03989
4306.27052,0.03924
4308.19898,0.04170
4310.12745,0.04351
4312.05592,0.03784
4313.98439,0.02918
4315.91286,0.02841
4317.84133,0.03426
4319.76980,0.03894
4321.69827,0.04097
4323.62673,0.03994
4325.55520,0.03501
4327.48367,0.02950
4329.41214,0.02768
4331.34061,0.03236
4333.26908,0.04012
4335.19755,0.04083
4337.12601,0.03386
4339.05448,0.03049
4340.98295,0.03320
4342.91142,0.03314
4344.83989,0.03203
4346.76836,0.03802
4348.69683,0.04269
4350.62530,0.04016
4352.55376,0.03843
4354.48223,0.03733
4356.41070,0.03398
4358.33917,0.03073
4360.26764,0.02960
4362.19611,0.03183
4364.12458,0.03139
4366.05304,0.02619
4367.98151,0.02282
4369.90998,0.02238
4371.83845,0.02487
4373.76692,0.02706
4375.69539,0.02480
4377.62386,0.02233
4379.55232,0.01998
4381.48079,0.01634
4383.40926,0.01548
4385.33773,0.01643
4387.26620,0.01596
4389.19467,0.01881
4391.12314,0.02882
4393.05161,0.03506
4394.98007,0.02873
4396.90854,0.02088
4398.83701,0.02146
4400.76548,0.02360
4402.69395,0.02001
4404.62242,0.01388
4406.55089,0.01158
4408.47935,0.01481
4410.40782,0.01883
4412.33629,0.01743
4414.26476,0.01048
4416.19323,0.00547
4418.12170,0.00594
4420.05017,0.00865
4421.97864,0.01179
4423.90710,0.01084
4425.83557,0.00790
4427.76404,0.01220
4429.69251,0.01712
4431.62098,0.01435
4433.54945,0.01295
4435.47792,0.01956
4437.40638,0.02939
4439.33485,0.03441
4441.26332,0.02911
4443.19179,0.02055
4445.12026,0.01538
4447.04873,0.00731
4448.97720,-0.00372
4450.90567,-0.00853
4452.83413,-0.00313
4454.76260,0.00555
4456.69107,0.00847
4458.61954,0.00271
4460.54801,-0.00458
4462.47648,-0.00226
4464.40495,0.00353
4466.33341,0.00629
4468.26188,0.01331
4470.19035,0.02070
4472.11882,0.02330
4474.04729,0.02365
4475.97576,0.01883
4477.90423,0.01118
4479.83270,0.00736
4481.76116,0.00422
4483.68963,-0.00170
4485.61810,-0.00363
4487.54657,0.00140
4489.47504,0.00566
4491.40351,0.00394
4493.33198,-0.00243
4495.26044,-0.00542
4497.18891,-0.00009
4499.11738,0.00700
4501.04585,0.01108
4502.97432,0.01177
4504.90279,0.00912
4506.83126,0.00532
4508.75973,0.00064
4510.68819,-0.00257
4512.61666,-0.00012
4514.54513,0.00390
4516.47360,0.00231
4518.40207,-0.00060
4520.33054,0.00151
4522.25901,0.00241
4524.18747,-0.00239
4526.11594,-0.00648
4528.04441,-0.00434
4529.97288,-0.00089
4531.90135,-0.00452
4533.82982,-0.00745
4535.75829,0.00187
4537.68676,0.01557
4539.61522,0.02160
4541.54369,0.01836
4543.47216,0.01000
4545.40063,0.00547
4547.32910,0.00973
4549.25757,0.01191
4551.18604,0.00449
4553.11450,-0.00254
4555.04297,-0.00177
4556.97144,0.00122
4558.89991,0.00106
4560.82838,0.00374
4562.75685,0.00992
4564.68532,0.00690
4566.61378,-0.00222
4568.54225,-0.00340
4570.47072,0.00020
4572.39919,0.00257
4574.32766,0.00620
4576.25613,0.00866
4578.18460,0.00800
4580.11307,0.00851
4582.04153,0.00747
4583.97000,0.00198
4585.89847,-0.00139
4587.82694,0.00103
4589.75541,0.00717
4591.68388,0.01081
4593.61235,0.00622
4595.54081,-0.00015
4597.46928,-0.00055
4599.39775,0.00152
4601.32622,-0.00022
4603.25469,-0.00725
4605.18316,-0.01511
4607.11163,-0.01835
4609.04010,-0.01536
4610.96856,-0.00908
4612.89703,-0.00283
4614.82550,0.00289
4616.75397,0.00529
4618.68244,0.00109
4620.61091,-0.00798
4622.53938,-0.01157
4624.46784,-0.00203
4626.39631,0.00910
4628.32478,0.01282
4630.25325,0.01424
4632.18172,0.01343
4634.11019,0.00948
4636.03866,0.00440
4637.96713,0.00092
4639.89559,0.00311
4641.82406,0.00990
4643.75253,0.01671
4645.68100,0.02047
4647.60947,0.02218
4649.53794,0.02250
4651.46641,0.01849
4653.39487,0.01227
4655.32334,0.00805
4657.25181,0.00586
4659.18028,0.00144
4661.10875,-0.00727
4663.03722,-0.01380
4664.96569,-0.01448
4666.89416,-0.01411
4668.82262,-0.01235
4670.75109,-0.00472
4672.67956,0.00397
4674.60803,0.00923
4676.53650,0.01391
4678.46497,0.01899
4680.39344,0.02069
4682.32190,0.01427
4684.25037,0.00092
4686.17884,-0.00780
4688.10731,-0.00134
4690.03578,0.01081
4691.96425,0.01803
4693.89272,0.02190
4695.82119,0.01742
4697.74965,0.01009
4699.67812,0.00994
4701.60659,0.01180
4703.53506,0.01225
4705.46353,0.01061
4707.39200,0.00674
4709.32047,0.00321
4711.24893,0.00129
4713.17740,0.00053
4715.10587,-0.00474
4717.03434,-0.00910
4718.96281,-0.00427
4720.89128,-0.00274
4722.81975,-0.00557
4724.74821,-0.00453
4726.67668,-0.00358
4728.60515,-0.00466
4730.53362,-0.00253
4732.46209,0.00376
4734.39056,0.01371
4736.31903,0.02423
4738.24750,0.02653
4740.17596,0.01966
4742.10443,0.00903
4744.03290,0.00136
4745.96137,0.00058
4747.88984,0.00126
4749.81831,0.00297
4751.74678,0.00671
4753.67524,0.00799
4755.60371,0.00739
4757.53218,0.00466
4759.46065,-0.00395
4761.38912,-0.01575
4763.31759,-0.02070
4765.24606,-0.01239
4767.17453,0.00704
4769.10299,0.02196
4771.03146,0.01792
4772.95993,0.00667
4774.88840,0.00440
4776.81687,0.00894
4778.74534,0.01077
4780.67381,0.00652
4782.60227,0.00318
4784.53074,-0.00238
4786.45921,-0.01390
4788.38768,-0.01148
4790.31615,0.00404
4792.24462,0.00805
4794.17309,0.00078
4796.10156,-0.00520
4798.03002,-0.00442
4799.95849,-0.00165
4801.88696,-0.00646
4803.81543,-0.01335
4805.74390,-0.00947
4807.67237,0.00560
4809.60084,0.01634
4811.52930,0.01022
4813.45777,-0.00101
4815.38624,-0.00365
4817.31471,-0.00292
4819.24318,-0.00316
4821.17165,0.00255
4823.10012,0.01799
4825.02859,0.03288
4826.95705,0.03372
4828.88552,0.02242
4830.81399,0.01519
4832.74246,0.02075
4834.67093,0.02778
4836.59940,0.02306
4838.52787,0.01396
4840.45633,0.01423
4842.38480,0.02060
4844.31327,0.02568
4846.24174,0.02651
4848.17021,0.02307
4850.09868,0.01819
4852.02715,0.00814
4853.95562,0.00105
4855.88408,0.00738
4857.81255,0.01652
4859.74102,0.01961
4861.66949,0.01077
4863.59796,-0.00663
4865.52643,-0.01363
4867.45490,-0.00972
4869.38336,-0.00491
4871.31183,0.00308
4873.24030,0.01323
4875.16877,0.02217
4877.09724,0.02382
4879.02571,0.01034
4880.95418,-0.00212
4882.88265,0.00464
4884.81111,0.01850
4886.73958,0.02196
4888.66805,0.01348
4890.59652,0.00201
4892.52499,-0.00459
4894.45346,-0.00912
4896.38193,-0.01113
4898.31039,-0.00300
4900.23886,0.00636
4902.16733,0.00598
4904.09580,0.00244
4906.02427,0.00497
4907.95274,0.01740
4909.88121,0.03072
4911.80967,0.02774
4913.73814,0.01034
4915.66661,-0.00394
4917.59508,-0.00412
4919.52355,0.00642
4921.45202,0.01367
4923.38049,0.01260
4925.30896,0.01068
4927.23742,0.00932
4929.16589,0.00789
4931.09436,0.01391
4933.02283,0.02244
4934.95130,0.01485
4936.87977,-0.00056
4938.80824,0.00146
4940.73670,0.01600
4942.66517,0.02289
4944.59364,0.02042
4946.52211,0.00834
4948.45058,-0.00671
4950.37905,-0.00854
4952.30752,-0.00440
4954.23599,-0.00416
4956.16445,0.00051
4958.09292,0.00750
4960.02139,0.00330
4961.94986,-0.00931
4963.87833,-0.01109
4965.80680,0.00084
4967.73527,0.01544
4969.66373,0.02308
4971.59220,0.01483
4973.52067,0.00467
4975.44914,0.01191
4977.37761,0.02111
4979.30608,0.01577
4981.23455,0.00831
4983.16302,0.00671
4985.09148,0.00492
4987.01995,0.00457
4988.94842,0.00888
4990.87689,0.01000
4992.80536,0.00561
4994.73383,0.00194
4996.66230,-0.00159
4998.59076,-0.00195
5000.51923,0.00093
5002.44770,-0.00200
5004.37617,-0.00876
5006.30464,-0.01209
5008.23311,-0.01017
5010.16158,-0.00428
5012.09005,0.00145
5014.01851,0.00636
5015.94698,0.01362
5017.87545,0.02079
5019.80392,0.02096
5021.73239,0.01042
5023.66086,-0.00595
5025.58933,-0.01047
5027.51779,0.00515
5029.44626,0.02289
5031.37473,0.02521
5033.30320,0.01534
5035.23167,0.00965
5037.16014,0.01413
5039.08861,0.01439
5041.01708,0.00727
5042.94554,0.00917
5044.87401,0.02249
5046.80248,0.02687
5048.73095,0.01491
5050.65942,0.00395
5052.58789,0.00167
5054.51636,0.00282
5056.44482,0.01033
5058.37329,0.02488
5060.30176,0.02891
5062.23023,0.01480
5064.15870,0.00702
5066.08717,0.02114
5068.01564,0.03519
5069.94410,0.02884
5071.87257,0.01368
5073.80104,0.01175
5075.72951,0.02168
5077.65798,0.02125
5079.58645,0.01093
5081.51492,0.00595
5083.44339,0.00705
5085.37185,0.02170
5087.30032,0.03929
5089.22879,0.02889
5091.15726,0.00647
5093.08573,-0.00070
5095.01420,-0.00327
5096.94267,-0.00780
5098.87113,-0.00623
5100.79960,0.00753
5102.72807,0.02231
5104.65654,0.01876
5106.58501,0.00933
5108.51348,0.00798
5110.44195,0.00228
5112.37042,-0.00312
5114.29888,0.00776
5116.22735,0.02326
5118.15582,0.02763
5120.08429,0.02806
5122.01276,0.02449
5123.94123,0.01396
5125.86970,0.01786
5127.79816,0.03322
5129.72663,0.03295
5131.65510,0.02545
5133.58357,0.02275
5135.51204,0.02032
5137.44051,0.02379
5139.36898,0.03141
5141.29745,0.03321
5143.22591,0.03144
5145.15438,0.03442
5147.08285,0.04365
5149.01132,0.05001
5150.93979,0.04991
5152.86826,0.04758
5154.79673,0.04545
5156.72519,0.04554
5158.65366,0.04561
5160.58213,0.04577
5162.51060,0.04651
5164.43907,0.04017
5166.36754,0.02825
5168.29601,0.02246
5170.22448,0.02355
5172.15294,0.02495
5174.08141,0.03079
5176.00988,0.04176
5177.93835,0.04581
5179.86682,0.03994
5181.79529,0.02412
5183.72376,0.00457
5185.65222,0.00554
5187.58069,0.02132
5189.50916,0.02363
5191.43763,0.01238
5193.36610,0.00275
5195.29457,0.00845
5197.22304,0.02034
5199.15151,0.01814
5201.07997,0.01127
5203.00844,0.00750
5204.93691,0.00201
5206.86538,0.00172
5208.79385,0.00354
5210.72232,0.00462
5212.65079,0.01272
5214.57925,0.02034
5216.50772,0.02280
5218.43619,0.02671
5220.36466,0.02852
5222.29313,0.02034
5224.22160,0.01677
5226.15007,0.03328
5228.07854,0.04995
5230.00700,0.05349
5231.93547,0.04531
5233.86394,0.03424
5235.79241,0.04174
5237.72088,0.05261
5239.64935,0.04172
5241.57782,0.02069
5243.50628,0.00527
5245.43475,0.01039
5247.36322,0.03611
5249.29169,0.05216
5251.22016,0.05166
5253.14863,0.05375
5255.07710,0.05837
5257.00556,0.06201
5258.93403,0.06018
5260.86250,0.05069
5262.79097,0.04718
5264.71944,0.03964
5266.64791,0.01946
5268.57638,0.01392
5270.50485,0.02543
5272.43331,0.04125
5274.36178,0.05680
5276.29025,0.05960
5278.21872,0.04596
5280.14719,0.03060
5282.07566,0.03108
5284.00413,0.04325
5285.93259,0.04634
5287.86106,0.03987
5289.78953,0.04037
5291.71800,0.04709
5293.64647,0.04663
5295.57494,0.04012
5297.50341,0.03501
5299.43188,0.04366
5301.36034,0.06681
5303.28881,0.07167
5305.21728,0.04660
5307.14575,0.02558
5309.07422,0.02399
5311.00269,0.03028
5312.93116,0.04187
5314.85962,0.05215
5316.78809,0.04942
5318.71656,0.03217
5320.64503,0.02216
5322.57350,0.03440
5324.50197,0.04527
5326.43044,0.04132
5328.35891,0.03058
5330.28737,0.01198
5332.21584,-0.00453
5334.14431,-0.00042
5336.07278,0.02503
5338.00125,0.05163
5339.92972,0.04852
5341.85819,0.02542
5343.78665,0.00934
5345.71512,-0.00027
5347.64359,-0.00244
5349.57206,0.00884
5351.50053,0.02829
5353.42900,0.05162
5355.35747,0.06272
5357.28594,0.05634
5359.21440,0.05244
5361.14287,0.05747
5363.07134,0.05808
5364.99981,0.04644
5366.92828,0.04061
5368.85675,0.05651
5370.78522,0.07784
5372.71368,0.08536
5374.64215,0.08259
5376.57062,0.07287
5378.49909,0.05709
5380.42756,0.05320
5382.35603,0.06418
5384.28450,0.06645
5386.21297,0.05730
5388.14143,0.05425
5390.06990,0.04603
5391.99837,0.02987
5393.92684,0.02323
5395.85531,0.03167
5397.78378,0.04122
5399.71225,0.03461
5401.64071,0.01862
5403.56918,0.02493
5405.49765,0.04944
5407.42612,0.05692
5409.35459,0.05386
5411.28306,0.06533
5413.21153,0.07181
5415.13999,0.04794
5417.06846,0.02714
5418.99693,0.03566
5420.92540,0.05222
5422.85387,0.06065
5424.78234,0.07220
5426.71081,0.08433
5428.63928,0.07308
5430.56774,0.04402
5432.49621,0.03652
5434.42468,0.05297
5436.35315,0.06640
5438.28162,0.07314
5440.21009,0.08054
5442.13856,0.08374
5444.06702,0.07196
5445.99549,0.04970
5447.92396,0.04542
5449.85243,0.05574
5451.78090,0.05407
5453.70937,0.04133
5455.63784,0.02596
5457.56631,0.02243
5459.49477,0.02792
5461.42324,0.02429
5463.35171,0.02087
5465.28018,0.03095
5467.20865,0.04614
5469.13712,0.05160
5471.06559,0.04932
5472.99405,0.04634
5474.92252,0.04651
5476.85099,0.05645
5478.77946,0.06421
5480.70793,0.05350
5482.63640,0.03101
5484.56487,0.01819
5486.49334,0.01747
5488.42180,0.02288
5490.35027,0.03549
5492.27874,0.04807
5494.20721,0.04992
5496.13568,0.04213
5498.06415,0.03808
5499.99262,0.04700
5501.92108,0.06210
5503.84955,0.06682
5505.77802,0.05958
5507.70649,0.05665
5509.63496,0.06357
5511.56343,0.07550
5513.49190,0.07852
5515.42037,0.05977
5517.34883,0.03741
5519.27730,0.03336
5521.20577,0.04210
5523.13424,0.05391
5525.06271,0.06052
5526.99118,0.04965
5528.91965,0.02817
5530.84811,0.01904
5532.77658,0.02934
5534.70505,0.04137
5536.63352,0.04493
5538.56199,0.05109
5540.49046,0.06509
5542.41893,0.08089
5544.34740,0.08931
5546.27586,0.08756
5548.20433,0.08265
5550.13280,0.08132
5552.06127,0.08363
5553.98974,0.09218
5555.91821,0.11591
5557.84668,0.13884
5559.77514,0.12804
5561.70361,0.08321
5563.63208,0.04360
5565.56055,0.04304
5567.48902,0.05125
5569.41749,0.02798
5571.34596,-0.00258
5573.27443,-0.00630
5575.20289,0.01373
5577.13136,0.03294
5579.05983,0.03900
5580.98830,0.04119
5582.91677,0.05280
5584.84524,0.07342
5586.77371,0.08163
5588.70217,0.07019
5590.63064,0.06222
5592.55911,0.06104
5594.48758,0.05754
5596.41605,0.06154
5598.34452,0.07498
5600.27299,0.07093
5602.20145,0.04124
5604.12992,0.02717
5606.05839,0.05219
5607.98686,0.08550
5609.91533,0.09577
5611.84380,0.08294
5613.77227,0.05651
5615.70074,0.02891
5617.62920,0.02268
5619.55767,0.03975
5621.48614,0.04916
5623.41461,0.04760
5625.34308,0.04611
5627.27155,0.04160
5629.20002,0.05179
5631.12848,0.07609
5633.05695,0.08946
5634.98542,0.07294
5636.91389,0.03007
5638.84236,0.00072
5640.77083,0.01008
5642.69930,0.03638
5644.62777,0.04896
5646.55623,0.04954
5648.48470,0.05483
5650.41317,0.07457
5652.34164,0.10222
5654.27011,0.11158
5656.19858,0.11244
5658.12705,0.13204
5660.05551,0.14389
5661.98398,0.11169
5663.91245,0.07271
5665.84092,0.06998
5667.76939,0.08679
5669.69786,0.09453
5671.62633,0.07230
5673.55480,0.04023
5675.48326,0.02704
5677.41173,0.02194
5679.34020,0.04128
5681.26867,0.08796
5683.19714,0.11618
5685.12561,0.12154
5687.05408,0.11671
5688.98254,0.10214
5690.91101,0.09122
5692.83948,0.09051
5694.76795,0.09229
5696.69642,0.07542
5698.62489,0.04875
5700.55336,0.04438
5702.48183,0.05935
5704.41029,0.08443
5706.33876,0.09949
5708.26723,0.08972
5710.19570,0.08133
5712.12417,0.09226
5714.05264,0.10721
5715.98111,0.10793
5717.90957,0.09040
5719.83804,0.06690
5721.76651,0.05305
5723.69498,0.05149
5725.62345,0.06513
5727.55192,0.07840
5729.48039,0.06606
5731.40886,0.05577
5733.33732,0.06755
5735.26579,0.07113
5737.19426,0.04424
5739.12273,0.00846
5741.05120,0.00174
5742.97967,0.02325
5744.90814,0.03904
5746.83660,0.03102
5748.76507,0.02638
5750.69354,0.06133
5752.62201,0.09738
5754.55048,0.08596
5756.47895,0.05879
5758.40742,0.06618
5760.33588,0.09794
5762.26435,0.11111
5764.19282,0.10853
5766.12129,0.11259
5768.04976,0.13369
5769.97823,0.16004
5771.90670,0.14462
5773.83517,0.09242
5775.76363,0.06788
5777.69210,0.08241
5779.62057,0.09328
5781.54904,0.09353
5783.47751,0.09620
5785.40598,0.08856
5787.33445,0.07917
5789.26291,0.09031
5791.19138,0.09431
5793.11985,0.06957
5795.04832,0.05446
5796.97679,0.06681
5798.90526,0.06777
5800.83373,0.05116
5802.76220,0.05964
5804.69066,0.08761
5806.61913,0.09321
5808.54760,0.08392
5810.47607,0.07710
5812.40454,0.07156
5814.33301,0.06690
5816.26148,0.05216
5818.18994,0.02547
5820.11841,0.02275
5822.04688,0.04116
5823.97535,0.03881
5825.90382,0.02998
5827.83229,0.03242
5829.76076,0.03003
5831.68923,0.01731
5833.61769,0.01466
5835.54616,0.03047
5837.47463,0.04898
5839.40310,0.05517
5841.33157,0.04158
5843.26004,0.02456
5845.18851,0.02612
5847.11697,0.03709
5849.04544,0.03199
5850.97391,0.02213
5852.90238,0.03047
5854.83085,0.05529
5856.75932,0.08684
5858.68779,0.08811
5860.61626,0.05474
5862.54472,0.03917
5864.47319,0.04211
5866.40166,0.03060
5868.33013,0.03745
5870.25860,0.07206
5872.18707,0.08341
5874.11554,0.06369
5876.04400,0.03611
5877.97247,0.03217
5879.90094,0.06306
5881.82941,0.08509
5883.75788,0.07996
5885.68635,0.07258
5887.61482,0.06801
5889.54329,0.05779
5891.47175,0.05013
5893.40022,0.06872
5895.32869,0.10229
5897.25716,0.10089
5899.18563,0.08139
5901.11410,0.07936
5903.04257,0.05856
5904.97103,0.02250
5906.89950,0.03075
5908.82797,0.09328
5910.75644,0.15865
5912.68491,0.18590
5914.61338,0.16722
5916.54185,0.11393
5918.47032,0.05791
5920.39878,0.04233
5922.32725,0.06462
5924.25572,0.09449
5926.18419,0.13643
5928.11266,0.14940
5930.04113,0.09581
5931.96960,0.05625
5933.89806,0.08006
5935.82653,0.10653
5937.75500,0.10288
5939.68347,0.09958
5941.61194,0.10482
5943.54041,0.10914
5945.46888,0.11560
5947.39734,0.12349
5949.32581,0.11896
5951.25428,0.09371
5953.18275,0.05803
5955.11122,0.02869
5957.03969,0.03326
5958.96816,0.06157
5960.89663,0.06420
5962.82509,0.04300
5964.75356,0.01821
5966.68203,0.01769
5968.61050,0.06183
5970.53897,0.08485
5972.46744,0.06106
5974.39591,0.06193
5976.32437,0.08882
5978.25284,0.08860
5980.18131,0.05839
5982.10978,0.03247
5984.03825,0.03499
5985.96672,0.04922
5987.89519,0.05668
5989.82366,0.06055
5991.75212,0.05782
5993.68059,0.05216
5995.60906,0.05009
5997.53753,0.04518
5999.46600,0.05730
6001.39447,0.09379
6003.32294,0.09875
6005.25140,0.04868
6007.17987,-0.00034
6009.10834,-0.01160
6011.03681,-0.00261
6012.96528,-0.00185
6014.89375,-0.00102
6016.82222,0.02371
6018.75069,0.06138
6020.67915,0.09296
6022.60762,0.11215
6024.53609,0.11034
6026.46456,0.10352
6028.39303,0.10550
6030.32150,0.10035
6032.24997,0.07178
6034.17843,0.03749
6036.10690,0.04332
6038.03537,0.06425
6039.96384,0.05099
6041.89231,0.02294
6043.82078,0.01148
6045.74925,0.03368
6047.67772,0.06559
6049.60618,0.06228
6051.53465,0.03719
6053.46312,0.02471
6055.39159,0.02589
6057.32006,0.03600
6059.24853,0.04822
6061.17700,0.04949
6063.10546,0.05730
6065.03393,0.09080
6066.96240,0.11156
6068.89087,0.09205
6070.81934,0.07056
6072.74781,0.08164
6074.67628,0.09258
6076.60475,0.06786
6078.53321,0.03465
6080.46168,0.03566
6082.39015,0.07481
6084.31862,0.11100
6086.24709,0.09475
6088.17556,0.04924
6090.10403,0.04639
6092.03249,0.08057
6093.96096,0.08851
6095.88943,0.08575
6097.81790,0.12007
6099.74637,0.14416
6101.67484,0.12474
6103.60331,0.10287
6105.53177,0.08346
6107.46024,0.03658
6109.38871,-0.02317
6111.31718,-0.03426
6113.24565,-0.00072
6115.17412,0.03501
6117.10259,0.07997
6119.03106,0.13652
6120.95952,0.15685
6122.88799,0.10347
6124.81646,0.04058
6126.74493,0.05192
6128.67340,0.10116
6130.60187,0.12612
6132.53034,0.12435
6134.45880,0.11699
6136.38727,0.12139
6138.31574,0.13006
6140.24421,0.12383
6142.17268,0.09083
6144.10115,0.04553
6146.02962,-0.00161
6147.95809,-0.02632
6149.88655,0.00457
6151.81502,0.04705
6153.74349,0.04096
6155.67196,0.01876
6157.60043,0.03154
6159.52890,0.08127
6161.45737,0.13166
6163.38583,0.13571
6165.31430,0.09451
6167.24277,0.05243
6169.17124,0.00097
6171.09971,-0.05471
6173.02818,-0.02966
6174.95665,0.06387
6176.88512,0.10760
6178.81358,0.09525
6180.74205,0.09458
6182.67052,0.08856
6184.59899,0.05082
6186.52746,0.01415
6188.45593,0.00595
6190.38440,0.01516
6192.31286,0.03142
6194.24133,0.04964
6196.16980,0.07462
6198.09827,0.09967
6200.02674,0.11573
6201.95521,0.13933
6203.88368,0.13386
6205.81215,0.07760
6207.74061,0.04763
6209.66908,0.06654
6211.59755,0.09150
6213.52602,0.12633
6215.45449,0.15128
6217.38296,0.12213
6219.31143,0.07328
6221.23989,0.04191
6223.16836,0.03631
6225.09683,0.05397
6227.02530,0.07126
6228.95377,0.08221
6230.88224,0.09295
6232.81071,0.11079
6234.73918,0.13176
6236.66764,0.12075
6238.59611,0.06504
6240.52458,0.01838
6242.45305,0.02631
6244.38152,0.05414
6246.30999,0.05858
6248.23846,0.06553
6250.16692,0.09622
6252.09539,0.10080
6254.02386,0.08414
6255.95233,0.09076
6257.88080,0.08440
6259.80927,0.04193
6261.73774,0.02553
6263.66621,0.08107
6265.59467,0.15267
6267.52314,0.15026
6269.45161,0.09307
6271.38008,0.04939
6273.30855,0.03953
6275.23702,0.05422
6277.16549,0.07946
6279.09395,0.10551
6281.02242,0.10721
6282.95089,0.08982
6284.87936,0.09344
6286.80783,0.08817
6288.73630,0.04616
6290.66477,0.02574
6292.59323,0.05907
6294.52170,0.09503
6296.45017,0.10771
6298.37864,0.11777
6300.30711,0.12868
6302.23558,0.12911
6304.16405,0.12002
6306.09252,0.13057
6308.02098,0.16375
6309.94945,0.16452
6311.87792,0.12004
6313.80639,0.06614
6315.73486,0.02611
6317.66333,0.03023
6319.59180,0.06790
6321.52026,0.08494
6323.44873,0.08049
6325.37720,0.08207
6327.30567,0.07890
6329.23414,0.07045
6331.16261,0.08401
6333.09108,0.09065
6335.01955,0.07774
6336.94801,0.09902
6338.87648,0.13672
6340.80495,0.13226
6342.73342,0.08380
6344.66189,0.03571
6346.59036,0.01682
6348.51883,0.00805
6350.44729,-0.01364
6352.37576,-0.04859
6354.30423,-0.05257
6356.23270,0.00704
6358.16117,0.08427
6360.08964,0.07650
6362.01811,0.00002
6363.94658,0.00131
6365.87504,0.07286
6367.80351,0.08044
6369.73198,0.04965
6371.66045,0.04726
6373.58892,0.02958
6375.51739,-0.01383
6377.44586,-0.04249
6379.37432,-0.05244
6381.30279,-0.02977
6383.23126,0.03201
6385.15973,0.06762
6387.08820,0.06705
6389.01667,0.07769
6390.94514,0.06797
6392.87361,0.00648
6394.80207,-0.04299
6396.73054,-0.03666
6398.65901,0.01713
6400.58748,0.09183
6402.51595,0.11322
6404.44442,0.08466
6406.37289,0.10713
6408.30135,0.17892
6410.22982,0.19802
6412.15829,0.13791
6414.08676,0.07994
6416.01523,0.07216
6417.94370,0.03493
6419.87217,-0.03736
6421.80064,-0.04453
6423.72910,-0.01354
6425.65757,-0.00834
6427.58604,-0.02124
6429.51451,-0.02000
6431.44298,0.01073
6433.37145,0.02286
6435.29992,-0.02149
6437.22838,-0.04720
6439.15685,0.01647
6441.08532,0.10343
6443.01379,0.12481
6444.94226,0.08012
6446.87073,0.03793
6448.79920,0.01355
6450.72766,-0.01571
6452.65613,-0.02815
6454.58460,0.02097
6456.51307,0.08963
6458.44154,0.10199
6460.37001,0.08150
6462.29848,0.06234
6464.22695,0.05799
6466.15541,0.08846
6468.08388,0.10948
6470.01235,0.06697
6471.94082,0.02655
6473.86929,0.02241
6475.79776,-0.02221
6477.72623,-0.06950
6479.65469,-0.03519
6481.58316,0.02317
6483.51163,0.04477
6485.44010,0.05292
6487.36857,0.05722
6489.29704,0.04560
6491.22551,0.05325
6493.15398,0.10164
6495.08244,0.13198
6497.01091,0.12862
6498.93938,0.09855
6500.86785,0.04349
6502.79632,0.02491
6504.72479,0.07834
6506.65326,0.15248
6508.58172,0.14312
6510.51019,0.01812
6512.43866,-0.08157
6514.36713,-0.04222
6516.29560,0.03838
6518.22407,0.05079
6520.15254,0.03472
6522.08101,0.03208
6524.00947,0.01858
6525.93794,-0.00587
6527.86641,0.00479
6529.79488,0.03741
6531.72335,0.05140
6533.65182,0.06323
6535.58029,0.06926
6537.50875,0.06581
6539.43722,0.07793
6541.36569,0.07348
6543.29416,0.03531
6545.22263,0.03664
6547.15110,0.07603
6549.07957,0.08092
6551.00804,0.05488
6552.93650,0.04933
6554.86497,0.07925
6556.79344,0.09812
6558.72191,0.06189
6560.65038,0.03985
6562.57885,0.09069
6564.50732,0.14661
6566.43578,0.14108
6568.36425,0.09472
6570.29272,0.04583
6572.22119,0.02194
6574.14966,0.03279
6576.07813,0.07027
6578.00660,0.09554
6579.93507,0.08383
6581.86353,0.07787
6583.79200,0.08610
6585.72047,0.07869
6587.64894,0.06455
6589.57741,0.07234
6591.50588,0.09112
6593.43435,0.07532
6595.36281,0.03700
6597.29128,0.02530
6599.21975,0.01709
6601.14822,-0.01794
6603.07669,-0.04981
6605.00516,-0.05518
6606.93363,-0.01373
6608.86210,0.05538
6610.79056,0.09697
6612.71903,0.11570
6614.64750,0.09720
6616.57597,0.03024
6618.50444,-0.00210
6620.43291,0.04958
6622.36138,0.11043
6624.28984,0.08462
6626.21831,0.01380
6628.14678,-0.00298
6630.07525,0.01781
6632.00372,0.02023
6633.93219,0.05400
6635.86066,0.10003
6637.78912,0.05915
6639.71759,-0.00404
6641.64606,-0.00745
6643.57453,0.02626
6645.50300,0.03287
6647.43147,0.00347
6649.35994,0.01664
6651.28841,0.05756
6653.21687,0.08212
6655.14534,0.12270
6657.07381,0.15105
6659.00228,0.10807
6660.93075,0.04169
6662.85922,0.01690
6664.78769,0.01609
6666.71615,-0.00117
6668.64462,-0.01865
6670.57309,-0.03447
6672.50156,-0.06352
6674.43003,-0.06036
6676.35850,-0.02135
6678.28697,-0.01183
6680.21544,-0.03008
6682.14390,-0.00525
6684.07237,0.07060
6686.00084,0.12847
6687.92931,0.12395
6689.85778,0.09558
6691.78625,0.07898
6693.71472,0.05490
6695.64318,0.02318
6697.57165,-0.00608
6699.50012,-0.02930
6701.42859,-0.04466
6703.35706,-0.01207
6705.28553,0.06031
6707.21400,0.10190
6709.14247,0.10759
6711.07093,0.10362
6712.99940,0.09748
6714.92787,0.11190
6716.85634,0.14780
6718.78481,0.14613
6720.71328,0.08117
6722.64175,0.00094
6724.57021,-0.04221
6726.49868,-0.03709
6728.42715,-0.01512
6730.35562,0.01301
6732.28409,0.02926
6734.21256,0.01442
6736.14103,-0.00966
6738.06950,-0.04376
6739.99796,-0.08474
6741.92643,-0.08284
6743.85490,-0.06978
6745.78337,-0.07899
6747.71184,-0.06135
6749.64031,-0.03043
6751.56878,-0.00381
6753.49724,0.01312
6755.42571,-0.01859
6757.35418,-0.03331
6759.28265,0.05259
6761.21112,0.14873
6763.13959,0.11576
6765.06806,0.05097
6766.99653,0.07826
6768.92499,0.13587
6770.85346,0.14458
6772.78193,0.11316
6774.71040,0.05958
6776.63887,0.03825
6778.56734,0.07849
6780.49581,0.11454
6782.42427,0.12526
6784.35274,0.13521
6786.28121,0.13304
6788.20968,0.13368
6790.13815,0.13820
6792.06662,0.07535
6793.99509,0.04073
6795.92355,0.14382
6797.85202,0.23283
6799.78049,0.18943
6801.70896,0.06315
6803.63743,-0.04252
6805.56590,-0.05851
6807.49437,-0.02688
6809.42284,-0.01656
6811.35130,0.03426
6813.27977,0.15943
6815.20824,0.19580
6817.13671,0.08737
6819.06518,-0.03948
6820.99365,-0.08381
6822.92212,-0.01116
6824.85058,0.06927
6826.77905,0.09279
6828.70752,0.08892
6830.63599,0.03429
6832.56446,-0.04371
6834.49293,-0.08476
6836.42140,-0.07501
6838.34987,-0.03234
6840.27833,-0.00340
6842.20680,-0.02585
6844.13527,-0.09117
6846.06374,-0.16461
6847.99221,-0.17049
6849.92068,-0.08249
6851.84915,-0.02536
6853.77761,-0.00485
6855.70608,0.07411
6857.63455,0.15162
6859.56302,0.11943
6861.49149,0.03603
6863.41996,0.00741
6865.34843,0.03763
6867.27690,0.09293
6869.20536,0.13869
6871.13383,0.16583
6873.06230,0.17180
6874.99077,0.13761
6876.91924,0.05639
6878.84771,-0.07255
6880.77618,-0.14409
6882.70464,-0.07597
6884.63311,0.03149
6886.56158,0.06990
6888.49005,0.02526
6890.41852,-0.00797
6892.34699,-0.00616
6894.27546,-0.01867
6896.20393,-0.01767
6898.13239,0.03218
6900.06086,0.08915
6901.98933,0.12274
6903.91780,0.11460
6905.84627,0.02627
6907.77474,-0.05944
6909.70321,-0.04437
6911.63167,0.05783
6913.56014,0.11914
6915.48861,0.05406
6917.41708,0.05685
6919.34555,0.16347
6921.27402,0.13905
6923.20249,0.02042
6925.13096,-0.03852
6927.05942,-0.00580
6928.98789,0.06903
6930.91636,0.07507
6932.84483,-0.00196
6934.77330,-0.01429
6936.70177,0.06824
6938.63024,0.12836
6940.55870,0.07362
6942.48717,-0.00737
6944.41564,-0.02823
6946.34411,-0.00427
6948.27258,0.02246
6950.20105,-0.00519
6952.12952,-0.00935
6954.05799,0.05576
6955.98645,0.03733
6957.91492,-0.05082
6959.84339,-0.05812
6961.77186,-0.00023
6963.70033,0.01911
6965.62880,-0.02025
6967.55727,-0.03623
6969.48573,-0.01198
6971.41420,-0.03673
6973.34267,-0.09160
6975.27114,-0.06046
6977.19961,0.04896
6979.12808,0.14712
6981.05655,0.19155
6982.98501,0.14755
6984.91348,0.06860
6986.84195,0.03429
6988.77042,0.05653
6990.69889,0.13272
6992.62736,0.15316
6994.55583,0.08833
6996.48430,0.07995
6998.41276,0.14100
7000.34123,0.17673
7002.26970,0.20633
7004.19817,0.23908
7006.12664,0.23897
7008.05511,0.14330
7009.98358,0.01350
7011.91204,-0.01627
7013.84051,0.08553
7015.76898,0.19681
7017.69745,0.20938
7019.62592,0.17011
7021.55439,0.15801
7023.48286,0.14118
7025.41133,0.09531
7027.33979,0.06833
7029.26826,0.08635
7031.19673,0.14010
7033.12520,0.15890
7035.05367,0.09177
7036.98214,0.02249
7038.91061,0.02547
7040.83907,0.06732
7042.76754,0.02345
7044.69601,-0.03459
7046.62448,0.02640
7048.55295,0.03719
7050.48142,-0.01120
7052.40989,0.01352
7054.33836,0.03541
7056.26682,-0.01503
7058.19529,-0.08858
7060.12376,-0.14607
7062.05223,-0.14752
7063.98070,-0.11487
7065.90917,-0.05900
7067.83764,0.10207
7069.76610,0.26508
7071.69457,0.22671
7073.62304,0.09209
7075.55151,0.03464
7077.47998,0.02768
7079.40845,0.00668
7081.33692,-0.03551
7083.26539,-0.01496
7085.19385,0.04293
7087.12232,0.04937
7089.05079,-0.01544
7090.97926,-0.08863
7092.90773,-0.06890
7094.83620,0.03148
7096.76467,0.09468
7098.69313,0.11602
7100.62160,0.12878
7102.55007,0.14246
7104.47854,0.19633
7106.40701,0.20341
7108.33548,0.14796
7110.26395,0.16597
7112.19242,0.17486
7114.12088,0.08182
7116.04935,-0.05059
7117.97782,-0.12893
7119.90629,-0.10482
7121.83476,-0.06323
7123.76323,-0.01923
7125.69170,0.02003
7127.62016,0.00254
7129.54863,-0.04023
7131.47710,-0.03649
7133.40557,0.02305
7135.33404,0.07436
7137.26251,0.09223
7139.19098,0.14106
7141.11944,0.18805
7143.04791,0.17438
7144.97638,0.15618
7146.90485,0.11342
7148.83332,0.03648
7150.76179,0.05167
7152.69026,0.19134
7154.61873,0.25435
7156.54719,0.16218
7158.47566,0.09234
7160.40413,0.06365
7162.33260,0.05158
7164.26107,0.10965
7166.18954,0.13892
7168.11801,0.01529
7170.04647,-0.10365
7171.97494,-0.11333
7173.90341,-0.16487
7175.83188,-0.29120
7177.76035,-0.33106
7179.68882,-0.25341
7181.61729,-0.18034
7183.54576,-0.13096
7185.47422,-0.05731
7187.40269,-0.00831
7189.33116,0.01498
7191.25963,0.07297
7193.18810,0.15876
7195.11657,0.17422
7197.04504,0.14096
7198.97350,0.12296
7200.90197,0.13964
7202.83044,0.20366
7204.75891,0.25417
7206.68738,0.21002
7208.61585,0.19465
7210.54432,0.21181
7212.47279,0.14255
7214.40125,0.01358
7216.32972,-0.06596
7218.25819,-0.05495
7220.18666,0.01925
7222.11513,0.07562
7224.04360,0.11474
7225.97207,0.13174
7227.90053,0.05835
7229.82900,-0.08127
7231.75747,-0.21887
7233.68594,-0.23238
7235.61441,-0.09442
7237.54288,0.09697
7239.47135,0.23699
7241.39982,0.27823
7243.32828,0.23225
7245.25675,0.19169
7247.18522,0.18136
7249.11369,0.19069
7251.04216,0.25050
7252.97063,0.29165
7254.89910,0.12842
7256.82756,-0.08756
7258.75603,-0.16195
7260.68450,-0.05240
7262.61297,0.00041
7264.54144,-0.07603
7266.46991,-0.05371
7268.39838,-0.01514
7270.32685,-0.10642
7272.25531,-0.27786
7274.18378,-0.30808
7276.11225,-0.20462
7278.04072,-0.18849
7279.96919,-0.22932
7281.89766,-0.00383
7283.82613,0.26423
7285.75459,0.26876
7287.68306,0.15073
7289.61153,0.01784
7291.54000,-0.15401
7293.46847,-0.24505
7295.39694,-0.20274
7297.32541,-0.07411
7299.25387,0.06767
7301.18234,0.11827
7303.11081,0.04508
7305.03928,-0.09885
7306.96775,-0.31325
7308.89622,-0.47624
7310.82469,-0.24025
7312.75316,0.17825
7314.68162,0.39071
7316.61009,0.34390
7318.53856,0.23254
7320.46703,0.11528
7322.39550,-0.00463
7324.32397,-0.03244
7326.25244,-0.03093
7328.18090,-0.05091
7330.10937,0.00783
7332.03784,0.13037
7333.96631,0.21297
7335.89478,0.25496
7337.82325,0.26310
7339.75172,0.10839
7341.68019,-0.13075
7343.60865,-0.16282
7345.53712,-0.00117
7347.46559,0.19062
7349.39406,0.19300
7351.32253,0.09327
7353.25100,0.08207
7355.17947,0.08305
7357.10793,0.09372
7359.03640,0.24638
7360.96487,0.28390
7362.89334,0.12591
7364.82181,0.05177
7366.75028,0.01389
7368.67875,-0.09571
7370.60722,-0.13763
7372.53568,-0.07763
7374.46415,-0.00352
7376.39262,0.05443
7378.32109,0.15232
7380.24956,0.31641
7382.17803,0.39356
7384.10650,0.29848
7386.03496,0.22184
7387.96343,0.15430
7389.89190,0.03525
7391.82037,0.03052
7393.74884,0.11731
7395.67731,0.08826
7397.60578,-0.01469
7399.53425,0.00103
7401.46271,0.14380
7403.39118,0.28297
7405.31965,0.27504
7407.24812,0.13524
7409.17659,-0.01018
7411.10506,-0.04266
7413.03353,-0.02521
7414.96199,-0.03724
7416.89046,-0.02760
7418.81893,0.04235
7420.74740,0.07039
7422.67587,0.05719
7424.60434,0.13951
7426.53281,0.28228
7428.46128,0.40477
7430.38974,0.43226
7432.31821,0.29009
7434.24668,0.07003
7436.17515,-0.07500
7438.10362,-0.08577
7440.03209,-0.05999
7441.96056,-0.07110
7443.88902,-0.10983
7445.81749,-0.11154
7447.74596,-0.00362
7449.67443,0.10272
7451.60290,0.01857
7453.53137,-0.13394
7455.45984,-0.22354
7457.38831,-0.25729
7459.31677,-0.17939
7461.24524,-0.09117
7463.17371,-0.09928
7465.10218,-0.05538
7467.03065,0.08905
7468.95912,0.20693
7470.88759,0.16663
7472.81605,0.04884
7474.74452,0.10160
7476.67299,0.24897
7478.60146,0.26512
7480.52993,0.14068
7482.45840,-0.05882
7484.38687,-0.20828
7486.31533,-0.11162
7488.24380,0.19286
7490.17227,0.31862
7492.10074,0.10155
7494.02921,-0.07888
7495.95768,-0.06207
7497.88615,-0.00563
