399.19301,0.57729
401.12148,0.30566
403.04995,0.32479
404.97842,0.21723
406.90689,0.05766
408.83536,-0.02442
410.76382,0.13718
412.69229,0.38046
414.62076,0.39591
416.54923,0.24660
418.47770,0.12870
420.40617,0.06945
422.33464,0.03933
424.26311,0.06311
426.19157,0.06137
428.12004,0.00135
430.04851,-0.11743
431.97698,-0.23618
433.90545,-0.19202
435.83392,-0.05051
437.76239,0.05033
439.69085,0.10192
441.61932,0.13721
443.54779,0.13575
445.47626,0.06229
447.40473,0.01100
449.33320,0.04273
451.26167,0.04809
453.19013,0.00027
455.11860,-0.01403
457.04707,0.00583
458.97554,-0.02426
460.90401,-0.11155
462.83248,-0.14340
464.76095,-0.03772
466.68942,0.12204
468.61788,0.20307
470.54635,0.15265
472.47482,0.01298
474.40329,-0.04233
476.33176,-0.00532
478.26023,-0.01104
480.18870,-0.03543
482.11716,-0.06983
484.04563,-0.10352
485.97410,-0.06983
487.90257,0.01178
489.83104,0.05146
491.75951,0.04364
493.68798,0.03911
495.61645,0.04575
497.54491,0.03335
499.47338,0.00937
501.40185,0.00715
503.33032,0.02724
505.25879,0.04848
507.18726,0.05703
509.11573,0.05565
511.04419,0.05051
512.97266,0.04936
514.90113,0.04141
516.82960,0.00884
518.75807,-0.02729
520.68654,-0.04462
522.61501,-0.03528
524.54348,-0.00054
526.47194,0.02850
528.40041,0.02561
530.32888,0.03632
532.25735,0.07623
534.18582,0.10488
536.11429,0.07959
538.04276,0.00070
539.97122,-0.06773
541.89969,-0.06429
543.82816,-0.00668
545.75663,0.01676
547.68510,-0.00892
549.61357,0.04296
551.54204,0.34599
553.47051,0.65803
555.39897,0.52310
557.32744,0.13472
559.25591,-0.00472
561.18438,0.03219
563.11285,0.03906
565.04132,0.02350
566.96979,0.05472
568.89825,0.09328
570.82672,0.07475
572.75519,0.02785
574.68366,0.01126
576.61213,0.03748
578.54060,0.07567
580.46907,0.08288
582.39754,0.05192
584.32600,0.01886
586.25447,0.00173
588.18294,0.00852
590.11141,0.02522
592.03988,0.02716
593.96835,0.02693
595.89682,0.02870
597.82528,0.02770
599.75375,0.02875
601.68222,0.02301
603.61069,0.02023
605.53916,0.02217
607.46763,0.02038
609.39610,0.03483
611.32456,0.04907
613.25303,0.04359
615.18150,0.04217
617.10997,0.03879
619.03844,0.02501
620.96691,0.02420
622.89538,0.02333
624.82385,0.01015
626.75231,0.00856
628.68078,0.02112
630.60925,0.02653
632.53772,0.01783
634.46619,0.00928
636.39466,0.00128
638.32313,-0.00940
640.25159,-0.00390
642.18006,0.01157
644.10853,0.01729
646.03700,0.02077
647.96547,0.02613
649.89394,0.02010
651.82241,0.00943
653.75088,0.01015
655.67934,0.02270
657.60781,0.05111
659.53628,0.06915
661.46475,0.05762
663.39322,0.04648
665.32169,0.03949
667.25016,0.01785
669.17862,0.00043
671.10709,0.02217
673.03556,0.04542
674.96403,0.04922
676.89250,0.04970
678.82097,0.05037
680.74944,0.04040
682.67791,0.02593
684.60637,0.01458
686.53484,0.01491
688.46331,0.02974
690.39178,0.04950
692.32025,0.05069
694.24872,0.03375
696.17719,0.03243
698.10565,0.04153
700.03412,0.03798
701.96259,0.03815
703.89106,0.05525
705.81953,0.06968
707.74800,0.06188
709.67647,0.04634
711.60494,0.04941
713.53340,0.05994
715.46187,0.05173
717.39034,0.03649
719.31881,0.03794
721.24728,0.04613
723.17575,0.04508
725.10422,0.04894
727.03268,0.06157
728.96115,0.05963
730.88962,0.03555
732.81809,0.01312
734.74656,0.01422
736.67503,0.02656
738.60350,0.02893
740.53197,0.02734
742.46043,0.03722
744.38890,0.05057
746.31737,0.05768
748.24584,0.06389
750.17431,0.06520
752.10278,0.05980
754.03125,0.05537
755.95971,0.05064
757.88818,0.04190
759.81665,0.03073
761.74512,0.02212
763.67359,0.02226
765.60206,0.02701
767.53053,0.02977
769.45900,0.04425
771.38746,0.06762
773.31593,0.06699
775.24440,0.04688
777.17287,0.03443
779.10134,0.02646
781.02981,0.01929
782.95828,0.02004
784.88674,0.02623
786.81521,0.03058
788.74368,0.03181
790.67215,0.03818
792.60062,0.04484
794.52909,0.03512
796.45756,0.02611
798.38602,0.03767
800.31449,0.04584
802.24296,0.03808
804.17143,0.02906
806.09990,0.02106
808.02837,0.01933
809.95684,0.03104
811.88531,0.04651
813.81377,0.05464
815.74224,0.05374
817.67071,0.04901
819.59918,0.04442
821.52765,0.03834
823.45612,0.03130
825.38459,0.02927
827.31305,0.03780
829.24152,0.04802
831.16999,0.04751
833.09846,0.04694
835.02693,0.05445
836.95540,0.05687
838.88387,0.04941
840.81234,0.04042
842.74080,0.03611
844.66927,0.03662
846.59774,0.04395
848.52621,0.05330
850.45468,0.05282
852.38315,0.05154
854.31162,0.05947
856.24008,0.06366
858.16855,0.05779
860.09702,0.04779
862.02549,0.03599
863.95396,0.02825
865.88243,0.02901
867.81090,0.02983
869.73937,0.02646
871.66783,0.02853
873.59630,0.03842
875.52477,0.04397
877.45324,0.04266
879.38171,0.04306
881.31018,0.04475
883.23865,0.04177
885.16711,0.03467
887.09558,0.03029
889.02405,0.03007
890.95252,0.02733
892.88099,0.02713
894.80946,0.04144
896.73793,0.05867
898.66640,0.06111
900.59486,0.05552
902.52333,0.05084
904.45180,0.04439
906.38027,0.03646
908.30874,0.03190
910.23721,0.03947
912.16568,0.05760
914.09414,0.06568
916.02261,0.05633
917.95108,0.04802
919.87955,0.05120
921.80802,0.05242
923.73649,0.04431
925.66496,0.03735
927.59343,0.03689
929.52189,0.03970
931.45036,0.04425
933.37883,0.05084
935.30730,0.05733
937.23577,0.05870
939.16424,0.05302
941.09271,0.04665
943.02117,0.04350
944.94964,0.04174
946.87811,0.04397
948.80658,0.04952
950.73505,0.05769
952.66352,0.06910
954.59199,0.07321
956.52045,0.06522
958.44892,0.05751
960.37739,0.05911
962.30586,0.06465
964.23433,0.06748
966.16280,0.06582
968.09127,0.06153
970.01974,0.06221
971.94820,0.06432
973.87667,0.05791
975.80514,0.05126
977.73361,0.05002
979.66208,0.04534
981.59055,0.03963
983.51902,0.04336
985.44748,0.05258
987.37595,0.05502
989.30442,0.05165
991.23289,0.05316
993.16136,0.05900
995.08983,0.06063
997.01830,0.05812
998.94677,0.05918
1000.87523,0.06232
1002.80370,0.06133
1004.73217,0.06101
1006.66064,0.06285
1008.58911,0.06167
1010.51758,0.05995
1012.44605,0.06167
1014.37451,0.06465
1016.30298,0.06362
1018.23145,0.05633
1020.15992,0.04841
1022.08839,0.04632
1024.01686,0.04547
1025.94533,0.03732
1027.87380,0.02643
1029.80226,0.02592
1031.73073,0.03724
1033.65920,0.05098
1035.58767,0.06115
1037.51614,0.06543
1039.44461,0.06426
1041.37308,0.06160
1043.30154,0.05973
1045.23001,0.05876
1047.15848,0.06357
1049.08695,0.07515
1051.01542,0.08543
1052.94389,0.08904
1054.87236,0.08361
1056.80083,0.07103
1058.72929,0.05776
1060.65776,0.04709
1062.58623,0.03581
1064.51470,0.02610
1066.44317,0.03075
1068.37164,0.04593
1070.30011,0.05092
1072.22857,0.04337
1074.15704,0.03943
1076.08551,0.04285
1078.01398,0.04654
1079.94245,0.05338
1081.87092,0.06470
1083.79939,0.06868
1085.72786,0.06202
1087.65632,0.05399
1089.58479,0.04929
1091.51326,0.05111
1093.44173,0.05596
1095.37020,0.05332
1097.29867,0.04257
1099.22714,0.03630
1101.15560,0.04201
1103.08407,0.04750
1105.01254,0.04637
1106.94101,0.04868
1108.86948,0.05592
1110.79795,0.06113
1112.72642,0.06313
1114.65489,0.06478
1116.58335,0.06765
1118.51182,0.06838
1120.44029,0.06167
1122.36876,0.05577
1124.29723,0.06057
1126.22570,0.06902
1128.15417,0.07049
1130.08263,0.06426
1132.01110,0.05617
1133.93957,0.04882
1135.86804,0.04405
1137.79651,0.04464
1139.72498,0.04754
1141.65345,0.04951
1143.58191,0.05104
1145.51038,0.05112
1147.43885,0.04934
1149.36732,0.04915
1151.29579,0.04938
1153.22426,0.04429
1155.15273,0.03815
1157.08120,0.03956
1159.00966,0.04466
1160.93813,0.04666
1162.86660,0.04651
1164.79507,0.04684
1166.72354,0.04925
1168.65201,0.05236
1170.58048,0.05615
1172.50894,0.06164
1174.43741,0.06249
1176.36588,0.05781
1178.29435,0.05622
1180.22282,0.05904
1182.15129,0.05950
1184.07976,0.05432
1186.00823,0.05004
1187.93669,0.05304
1189.86516,0.05882
1191.79363,0.06020
1193.72210,0.05884
1195.65057,0.06017
1197.57904,0.06090
1199.50751,0.05738
1201.43597,0.05492
1203.36444,0.05530
1205.29291,0.05416
1207.22138,0.05156
1209.14985,0.05153
1211.07832,0.05370
1213.00679,0.05423
1214.93526,0.05141
1216.86372,0.04774
1218.79219,0.04676
1220.72066,0.04678
1222.64913,0.04680
1224.57760,0.05049
1226.50607,0.05514
1228.43454,0.05512
1230.36300,0.05366
1232.29147,0.05359
1234.21994,0.05136
1236.14841,0.04965
1238.07688,0.05422
1240.00535,0.06176
1241.93382,0.06761
1243.86229,0.07045
1245.79075,0.06904
1247.71922,0.06436
1249.64769,0.05967
1251.57616,0.05862
1253.50463,0.05961
1255.43310,0.05705
1257.36157,0.05240
1259.29003,0.05180
1261.21850,0.05604
1263.14697,0.06146
1265.07544,0.06319
1267.00391,0.06159
1268.93238,0.06308
1270.86085,0.06458
1272.78932,0.06132
1274.71778,0.05866
1276.64625,0.05924
1278.57472,0.05887
1280.50319,0.05653
1282.43166,0.05692
1284.36013,0.05991
1286.28860,0.06232
1288.21706,0.06446
1290.14553,0.06373
1292.07400,0.05862
1294.00247,0.05481
1295.93094,0.05578
1297.85941,0.05767
1299.78788,0.05879
1301.71634,0.05946
1303.64481,0.05820
1305.57328,0.05786
1307.50175,0.05897
1309.43022,0.05720
1311.35869,0.05293
1313.28716,0.05070
1315.21563,0.05226
1317.14409,0.05396
1319.07256,0.05331
1321.00103,0.05339
1322.92950,0.05546
1324.85797,0.05536
1326.78644,0.05263
1328.71491,0.05168
1330.64337,0.05275
1332.57184,0.05364
1334.50031,0.05491
1336.42878,0.05817
1338.35725,0.06134
1340.28572,0.06034
1342.21419,0.05860
1344.14266,0.05962
1346.07112,0.06064
1347.99959,0.06117
1349.92806,0.06226
1351.85653,0.06203
1353.78500,0.06082
1355.71347,0.06039
1357.64194,0.06018
1359.57040,0.06164
1361.49887,0.06381
1363.42734,0.06172
1365.35581,0.05860
1367.28428,0.05843
1369.21275,0.05959
1371.14122,0.05966
1373.06969,0.05765
1374.99815,0.05684
1376.92662,0.06058
1378.85509,0.06576
1380.78356,0.06750
1382.71203,0.06566
1384.64050,0.06446
1386.56897,0.06531
1388.49743,0.06463
1390.42590,0.06297
1392.35437,0.06633
1394.28284,0.07157
1396.21131,0.06798
1398.13978,0.06063
1400.06825,0.05841
1401.99672,0.05804
1403.92518,0.05719
1405.85365,0.05601
1407.78212,0.05363
1409.71059,0.05223
1411.63906,0.05459
1413.56753,0.05798
1415.49600,0.05904
1417.42446,0.06264
1419.35293,0.06927
1421.28140,0.06762
1423.20987,0.06295
1425.13834,0.06190
1427.06681,0.06323
1428.99528,0.06689
1430.92375,0.06999
1432.85221,0.06787
1434.78068,0.06562
1436.70915,0.06758
1438.63762,0.06860
1440.56609,0.06598
1442.49456,0.06226
1444.42303,0.06222
1446.35149,0.06584
1448.27996,0.06746
1450.20843,0.06861
1452.13690,0.07319
1454.06537,0.07809
1455.99384,0.07748
1457.92231,0.06821
1459.85077,0.06259
1461.77924,0.06402
1463.70771,0.06774
1465.63618,0.06842
1467.56465,0.06764
1469.49312,0.07147
1471.42159,0.07899
1473.35006,0.07959
1475.27852,0.07326
1477.20699,0.07127
1479.13546,0.07186
1481.06393,0.07147
1482.99240,0.06934
1484.92087,0.06831
1486.84934,0.07119
1488.77780,0.07499
1490.70627,0.07242
1492.63474,0.06598
1494.56321,0.06255
1496.49168,0.06559
1498.42015,0.07149
1500.34862,0.07227
1502.27709,0.06923
1504.20555,0.06600
1506.13402,0.06907
1508.06249,0.07611
1509.99096,0.07053
1511.91943,0.06267
1513.84790,0.05980
1515.77637,0.06055
1517.70483,0.05836
1519.63330,0.05493
1521.56177,0.05608
1523.49024,0.05738
1525.41871,0.05894
1527.34718,0.06285
1529.27565,0.06477
1531.20412,0.06514
1533.13258,0.06484
1535.06105,0.06336
1536.98952,0.06516
1538.91799,0.07371
1540.84646,0.08392
1542.77493,0.07878
1544.70340,0.06974
1546.63186,0.06792
1548.56033,0.07099
1550.48880,0.07316
1552.41727,0.07295
1554.34574,0.07267
1556.27421,0.07554
1558.20268,0.08656
1560.13115,0.08858
1562.05961,0.07830
1563.98808,0.07313
1565.91655,0.07176
1567.84502,0.06946
1569.77349,0.06727
1571.70196,0.07016
1573.63043,0.07599
1575.55889,0.07933
1577.48736,0.07462
1579.41583,0.06886
1581.34430,0.06553
1583.27277,0.06303
1585.20124,0.06278
1587.12971,0.06502
1589.05818,0.06726
1590.98664,0.06748
1592.91511,0.06596
1594.84358,0.06546
1596.77205,0.06586
1598.70052,0.06616
1600.62899,0.06794
1602.55746,0.06847
1604.48592,0.06466
1606.41439,0.06115
1608.34286,0.06317
1610.27133,0.06863
1612.19980,0.07078
1614.12827,0.06908
1616.05674,0.06833
1617.98521,0.06762
1619.91367,0.06705
1621.84214,0.07102
1623.77061,0.07566
1625.69908,0.07645
1627.62755,0.07561
1629.55602,0.07261
1631.48449,0.06894
1633.41295,0.06791
1635.34142,0.07055
1637.26989,0.07127
1639.19836,0.06984
1641.12683,0.06994
1643.05530,0.07240
1644.98377,0.07711
1646.91223,0.07771
1648.84070,0.07142
1650.76917,0.06686
1652.69764,0.06884
1654.62611,0.07691
1656.55458,0.07720
1658.48305,0.07418
1660.41152,0.07163
1662.33998,0.06946
1664.26845,0.06732
1666.19692,0.06827
1668.12539,0.07156
1670.05386,0.07144
1671.98233,0.06827
1673.91080,0.06715
1675.83926,0.06860
1677.76773,0.07133
1679.69620,0.07420
1681.62467,0.07648
1683.55314,0.07650
1685.48161,0.07402
1687.41008,0.07103
1689.33855,0.06690
1691.26701,0.06432
1693.19548,0.06734
1695.12395,0.07307
1697.05242,0.07225
1698.98089,0.06750
1700.90936,0.06725
1702.83783,0.06898
1704.76629,0.06990
1706.69476,0.06798
1708.62323,0.06523
1710.55170,0.06580
1712.48017,0.06915
1714.40864,0.07333
1716.33711,0.07598
1718.26558,0.07292
1720.19404,0.06930
1722.12251,0.06851
1724.05098,0.06717
1725.97945,0.06369
1727.90792,0.05998
1729.83639,0.05850
1731.76486,0.06040
1733.69332,0.06371
1735.62179,0.06591
1737.55026,0.06940
1739.47873,0.07388
1741.40720,0.07383
1743.33567,0.07078
1745.26414,0.07062
1747.19261,0.07289
1749.12107,0.07407
1751.04954,0.07074
1752.97801,0.06532
1754.90648,0.06136
1756.83495,0.06004
1758.76342,0.06267
1760.69189,0.06586
1762.62035,0.06571
1764.54882,0.06446
1766.47729,0.06435
1768.40576,0.06470
1770.33423,0.06562
1772.26270,0.06613
1774.19117,0.06405
1776.11964,0.06230
1778.04810,0.06263
1779.97657,0.06338
1781.90504,0.06349
1783.83351,0.06391
1785.76198,0.06413
1787.69045,0.06265
1789.61892,0.06041
1791.54738,0.05974
1793.47585,0.06251
1795.40432,0.06594
1797.33279,0.06763
1799.26126,0.06859
1801.18973,0.06853
1803.11820,0.06749
1805.04666,0.06736
1806.97513,0.06655
1808.90360,0.06302
1810.83207,0.05899
1812.76054,0.05913
1814.68901,0.06294
1816.61748,0.06577
1818.54595,0.06609
1820.47441,0.06667
1822.40288,0.06882
1824.33135,0.06882
1826.25982,0.06433
1828.18829,0.06023
1830.11676,0.05945
1832.04523,0.06064
1833.97369,0.06363
1835.90216,0.06678
1837.83063,0.06641
1839.75910,0.06465
1841.68757,0.06668
1843.61604,0.07108
1845.54451,0.07095
1847.47298,0.06828
1849.40144,0.06636
1851.32991,0.06454
1853.25838,0.06462
1855.18685,0.06565
1857.11532,0.06504
1859.04379,0.06501
1860.97226,0.06669
1862.90072,0.06568
1864.82919,0.06272
1866.75766,0.06318
1868.68613,0.06407
1870.61460,0.06223
1872.54307,0.06113
1874.47154,0.05991
1876.40001,0.05930
1878.32847,0.06112
1880.25694,0.06352
1882.18541,0.06487
1884.11388,0.06442
1886.04235,0.06273
1887.97082,0.06240
1889.89929,0.06368
1891.82775,0.06413
1893.75622,0.06407
1895.68469,0.06437
1897.61316,0.06470
1899.54163,0.06502
1901.47010,0.06431
1903.39857,0.06361
1905.32704,0.06580
1907.25550,0.06842
1909.18397,0.06676
1911.11244,0.06303
1913.04091,0.06260
1914.96938,0.06575
1916.89785,0.06920
1918.82632,0.06898
1920.75478,0.06721
1922.68325,0.06842
1924.61172,0.06946
1926.54019,0.06673
1928.46866,0.06210
1930.39713,0.05890
1932.32560,0.05851
1934.25407,0.06033
1936.18253,0.06259
1938.11100,0.06241
1940.03947,0.05984
1941.96794,0.05723
1943.89641,0.05760
1945.82488,0.06234
1947.75335,0.06754
1949.68181,0.06937
1951.61028,0.06832
1953.53875,0.06609
1955.46722,0.06403
1957.39569,0.06370
1959.32416,0.06366
1961.25263,0.06208
1963.18110,0.06156
1965.10956,0.06396
1967.03803,0.06719
1968.96650,0.06929
1970.89497,0.06967
1972.82344,0.06747
1974.75191,0.06366
1976.68038,0.06044
1978.60884,0.05889
1980.53731,0.05888
1982.46578,0.05807
1984.39425,0.05751
1986.32272,0.05995
1988.25119,0.06350
1990.17966,0.06692
1992.10812,0.06933
1994.03659,0.06843
1995.96506,0.06624
1997.89353,0.06618
1999.82200,0.06800
2001.75047,0.06864
2003.67894,0.06616
2005.60741,0.06297
2007.53587,0.06298
2009.46434,0.06549
2011.39281,0.06683
2013.32128,0.06701
2015.24975,0.06712
2017.17822,0.06636
2019.10669,0.06543
2021.03515,0.06471
2022.96362,0.06385
2024.89209,0.06432
2026.82056,0.06597
2028.74903,0.06520
2030.67750,0.06233
2032.60597,0.06154
2034.53444,0.06219
2036.46290,0.06244
2038.39137,0.06250
2040.31984,0.06256
2042.24831,0.06216
2044.17678,0.06100
2046.10525,0.06190
2048.03372,0.06438
2049.96218,0.06534
2051.89065,0.06632
2053.81912,0.06737
2055.74759,0.06534
2057.67606,0.06155
2059.60453,0.06060
2061.53300,0.06274
2063.46147,0.06563
2065.38993,0.06895
2067.31840,0.07227
2069.24687,0.07365
2071.17534,0.07247
2073.10381,0.07051
2075.03228,0.06966
2076.96075,0.07030
2078.88921,0.07090
2080.81768,0.07108
2082.74615,0.07160
2084.67462,0.07093
2086.60309,0.06874
2088.53156,0.06790
2090.46003,0.06788
2092.38850,0.06598
2094.31696,0.06551
2096.24543,0.06812
2098.17390,0.06974
2100.10237,0.06940
2102.03084,0.06832
2103.95931,0.06688
2105.88778,0.06507
2107.81624,0.06340
2109.74471,0.06365
2111.67318,0.06484
2113.60165,0.06476
2115.53012,0.06477
2117.45859,0.06553
2119.38706,0.06507
2121.31553,0.06332
2123.24399,0.06249
2125.17246,0.06300
2127.10093,0.06383
2129.02940,0.06451
2130.95787,0.06404
2132.88634,0.06328
2134.81481,0.06365
2136.74327,0.06435
2138.67174,0.06434
2140.60021,0.06333
2142.52868,0.06406
2144.45715,0.06692
2146.38562,0.06739
2148.31409,0.06539
2150.24255,0.06490
2152.17102,0.06705
2154.09949,0.06966
2156.02796,0.07075
2157.95643,0.07020
2159.88490,0.06867
2161.81337,0.06870
2163.74184,0.07103
2165.67030,0.07224
2167.59877,0.07171
2169.52724,0.07144
2171.45571,0.07133
2173.38418,0.07052
2175.31265,0.06960
2177.24112,0.06914
2179.16958,0.06832
2181.09805,0.06636
2183.02652,0.06421
2184.95499,0.06346
2186.88346,0.06423
2188.81193,0.06555
2190.74040,0.06580
2192.66887,0.06426
2194.59733,0.06275
2196.52580,0.06371
2198.45427,0.06628
2200.38274,0.06694
2202.31121,0.06617
2204.23968,0.06556
2206.16815,0.06477
2208.09661,0.06507
2210.02508,0.06604
2211.95355,0.06603
2213.88202,0.06575
2215.81049,0.06577
2217.73896,0.06493
2219.66743,0.06342
2221.59590,0.06383
2223.52436,0.06666
2225.45283,0.06950
2227.38130,0.06922
2229.30977,0.06606
2231.23824,0.06449
2233.16671,0.06552
2235.09518,0.06588
2237.02364,0.06436
2238.95211,0.06256
2240.88058,0.06179
2242.80905,0.06314
2244.73752,0.06604
2246.66599,0.06751
2248.59446,0.06766
2250.52293,0.06788
2252.45139,0.06622
2254.37986,0.06318
2256.30833,0.06291
2258.23680,0.06488
2260.16527,0.06602
2262.09374,0.06694
2264.02221,0.06801
2265.95067,0.06969
2267.87914,0.07125
2269.80761,0.06991
2271.73608,0.06732
2273.66455,0.06543
2275.59302,0.06492
2277.52149,0.06687
2279.44996,0.06854
2281.37842,0.06754
2283.30689,0.06563
2285.23536,0.06415
2287.16383,0.06290
2289.09230,0.06253
2291.02077,0.06355
2292.94924,0.06462
2294.87770,0.06376
2296.80617,0.06117
2298.73464,0.05901
2300.66311,0.05957
2302.59158,0.06261
2304.52005,0.06398
2306.44852,0.06246
2308.37699,0.06181
2310.30545,0.06399
2312.23392,0.06584
2314.16239,0.06491
2316.09086,0.06585
2318.01933,0.07018
2319.94780,0.07053
2321.87627,0.06217
2323.80473,0.05226
2325.73320,0.05531
2327.66167,0.07256
2329.59014,0.08604
2331.51861,0.08473
2333.44708,0.07765
2335.37555,0.06722
2337.30401,0.05360
2339.23248,0.05039
2341.16095,0.05496
2343.08942,0.05438
2345.01789,0.05420
2346.94636,0.05860
2348.87483,0.06091
2350.80330,0.05433
2352.73176,0.03903
2354.66023,0.03456
2356.58870,0.05460
2358.51717,0.07705
2360.44564,0.08900
2362.37411,0.08965
2364.30258,0.06802
2366.23104,0.04967
2368.15951,0.05249
2370.08798,0.05649
2372.01645,0.05832
2373.94492,0.05969
2375.87339,0.05848
2377.80186,0.05892
2379.73033,0.06186
2381.65879,0.06411
2383.58726,0.06559
2385.51573,0.06672
2387.44420,0.06617
2389.37267,0.06451
2391.30114,0.06401
2393.22961,0.06522
2395.15807,0.06709
2397.08654,0.06817
2399.01501,0.06727
2400.94348,0.06546
2402.87195,0.06472
2404.80042,0.06504
2406.72889,0.06572
2408.65736,0.06643
2410.58582,0.06641
2412.51429,0.06417
2414.44276,0.06205
2416.37123,0.06475
2418.29970,0.06917
2420.22817,0.06865
2422.15664,0.06518
2424.08510,0.06482
2426.01357,0.06767
2427.94204,0.07076
2429.87051,0.07119
2431.79898,0.06854
2433.72745,0.06688
2435.65592,0.06625
2437.58439,0.06466
2439.51285,0.06454
2441.44132,0.06542
2443.36979,0.06540
2445.29826,0.06648
2447.22673,0.06947
2449.15520,0.07248
2451.08367,0.07331
2453.01213,0.07188
2454.94060,0.06999
2456.86907,0.06925
2458.79754,0.07003
2460.72601,0.06975
2462.65448,0.06766
2464.58295,0.06749
2466.51142,0.06975
2468.43988,0.07062
2470.36835,0.06876
2472.29682,0.06699
2474.22529,0.06763
2476.15376,0.06932
2478.08223,0.06941
2480.01070,0.06744
2481.93916,0.06443
2483.86763,0.06246
2485.79610,0.06296
2487.72457,0.06374
2489.65304,0.06350
2491.58151,0.06435
2493.50998,0.06462
2495.43844,0.06129
2497.36691,0.05810
2499.29538,0.05888
2501.22385,0.06190
2503.15232,0.06464
2505.08079,0.06572
2507.00926,0.06578
2508.93773,0.06698
2510.86619,0.06923
2512.79466,0.06942
2514.72313,0.06688
2516.65160,0.06505
2518.58007,0.06485
2520.50854,0.06501
2522.43701,0.06557
2524.36547,0.06555
2526.29394,0.06423
2528.22241,0.06408
2530.15088,0.06684
2532.07935,0.06943
2534.00782,0.06864
2535.93629,0.06705
2537.86476,0.06783
2539.79322,0.06840
2541.72169,0.06691
2543.65016,0.06607
2545.57863,0.06583
2547.50710,0.06430
2549.43557,0.06344
2551.36404,0.06487
2553.29250,0.06713
2555.22097,0.06837
2557.14944,0.06817
2559.07791,0.06733
2561.00638,0.06616
2562.93485,0.06642
2564.86332,0.06728
2566.79179,0.06509
2568.72025,0.06387
2570.64872,0.06682
2572.57719,0.06975
2574.50566,0.07162
2576.43413,0.07277
2578.36260,0.07203
2580.29107,0.07074
2582.21953,0.06944
2584.14800,0.06729
2586.07647,0.06695
2588.00494,0.07031
2589.93341,0.07365
2591.86188,0.07319
2593.79035,0.07070
2595.71882,0.06999
2597.64728,0.07032
2599.57575,0.06908
2601.50422,0.06707
2603.43269,0.06633
2605.36116,0.06734
2607.28963,0.06930
2609.21810,0.07073
2611.14656,0.06999
2613.07503,0.06864
2615.00350,0.06959
2616.93197,0.07152
2618.86044,0.07163
2620.78891,0.07052
2622.71738,0.07110
2624.64585,0.07160
2626.57431,0.06868
2628.50278,0.06586
2630.43125,0.06625
2632.35972,0.06757
2634.28819,0.06748
2636.21666,0.06630
2638.14513,0.06598
2640.07359,0.06788
2642.00206,0.07117
2643.93053,0.07196
2645.85900,0.06869
2647.78747,0.06544
2649.71594,0.06586
2651.64441,0.06808
2653.57288,0.06833
2655.50134,0.06849
2657.42981,0.07173
2659.35828,0.07485
2661.28675,0.07464
2663.21522,0.07290
2665.14369,0.07089
2667.07216,0.06951
2669.00062,0.07072
2670.92909,0.07287
2672.85756,0.07429
2674.78603,0.07534
2676.71450,0.07471
2678.64297,0.07409
2680.57144,0.07524
2682.49990,0.07608
2684.42837,0.07575
2686.35684,0.07399
2688.28531,0.07131
2690.21378,0.06948
2692.14225,0.06834
2694.07072,0.06775
2695.99919,0.06765
2697.92765,0.06781
2699.85612,0.06979
2701.78459,0.07284
2703.71306,0.07416
2705.64153,0.07350
2707.57000,0.07212
2709.49847,0.07032
2711.42693,0.06769
2713.35540,0.06687
2715.28387,0.06879
2717.21234,0.06979
2719.14081,0.07005
2721.06928,0.07161
2722.99775,0.07338
2724.92622,0.07449
2726.85468,0.07458
2728.78315,0.07210
2730.71162,0.06759
2732.64009,0.06507
2734.56856,0.06584
2736.49703,0.06838
2738.42550,0.07235
2740.35396,0.07562
2742.28243,0.07558
2744.21090,0.07316
2746.13937,0.07174
2748.06784,0.07395
2749.99631,0.07766
2751.92478,0.07784
2753.85325,0.07435
2755.78171,0.07191
2757.71018,0.07179
2759.63865,0.07122
2761.56712,0.07060
2763.49559,0.07248
2765.42406,0.07536
2767.35253,0.07545
2769.28099,0.07346
2771.20946,0.07331
2773.13793,0.07597
2775.06640,0.07918
2776.99487,0.08111
2778.92334,0.08213
2780.85181,0.08193
2782.78028,0.07992
2784.70874,0.07837
2786.63721,0.07866
2788.56568,0.07926
2790.49415,0.07862
2792.42262,0.07782
2794.35109,0.07913
2796.27956,0.07890
2798.20802,0.07390
2800.13649,0.06878
2802.06496,0.06607
2803.99343,0.06687
2805.92190,0.07140
2807.85037,0.07497
2809.77884,0.07564
2811.70731,0.07447
2813.63577,0.07290
2815.56424,0.07215
2817.49271,0.07235
2819.42118,0.07327
2821.34965,0.07279
2823.27812,0.07019
2825.20659,0.06874
2827.13505,0.06920
2829.06352,0.06900
2830.99199,0.06983
2832.92046,0.07396
2834.84893,0.07921
2836.77740,0.08303
2838.70587,0.08322
2840.63433,0.07924
2842.56280,0.07501
2844.49127,0.07375
2846.41974,0.07243
2848.34821,0.06909
2850.27668,0.06844
2852.20515,0.07351
2854.13362,0.07970
2856.06208,0.08108
2857.99055,0.07978
2859.91902,0.08052
2861.84749,0.08153
2863.77596,0.08179
2865.70443,0.08273
2867.63290,0.08214
2869.56136,0.07985
2871.48983,0.07761
2873.41830,0.07556
2875.34677,0.07397
2877.27524,0.07192
2879.20371,0.06998
2881.13218,0.06991
2883.06065,0.07240
2884.98911,0.07647
2886.91758,0.07974
2888.84605,0.08160
2890.77452,0.08251
2892.70299,0.08138
2894.63146,0.07737
2896.55993,0.07511
2898.48839,0.07650
2900.41686,0.07592
2902.34533,0.07381
2904.27380,0.07299
2906.20227,0.07247
2908.13074,0.07425
2910.05921,0.07697
2911.98768,0.07539
2913.91614,0.07059
2915.84461,0.06753
2917.77308,0.06972
2919.70155,0.07641
2921.63002,0.08215
2923.55849,0.08330
2925.48696,0.07949
2927.41542,0.07365
2929.34389,0.07209
2931.27236,0.07382
2933.20083,0.07196
2935.12930,0.06789
2937.05777,0.06605
2938.98624,0.06738
2940.91471,0.07160
2942.84317,0.07569
2944.77164,0.07839
2946.70011,0.07998
2948.62858,0.07881
2950.55705,0.07679
2952.48552,0.07610
2954.41399,0.07498
2956.34245,0.07364
2958.27092,0.07347
2960.19939,0.07487
2962.12786,0.07715
2964.05633,0.07774
2965.98480,0.07623
2967.91327,0.07513
2969.84174,0.07703
2971.77020,0.07992
2973.69867,0.07952
2975.62714,0.07722
2977.55561,0.07522
2979.48408,0.07390
2981.41255,0.07406
2983.34102,0.07396
2985.26948,0.07306
2987.19795,0.07295
2989.12642,0.07282
2991.05489,0.07310
2992.98336,0.07486
2994.91183,0.07665
2996.84030,0.07828
2998.76877,0.07922
3000.69723,0.07857
3002.62570,0.07709
3004.55417,0.07532
3006.48264,0.07491
3008.41111,0.07674
3010.33958,0.07753
3012.26805,0.07470
3014.19651,0.06993
3016.12498,0.06655
3018.05345,0.06795
3019.98192,0.07275
3021.91039,0.07576
3023.83886,0.07728
3025.76733,0.08029
3027.69579,0.08302
3029.62426,0.08365
3031.55273,0.08481
3033.48120,0.08699
3035.40967,0.08643
3037.33814,0.08261
3039.26661,0.08036
3041.19508,0.08106
3043.12354,0.08093
3045.05201,0.07818
3046.98048,0.07371
3048.90895,0.07001
3050.83742,0.06910
3052.76589,0.07061
3054.69436,0.07319
3056.62282,0.07657
3058.55129,0.07873
3060.47976,0.07656
3062.40823,0.07404
3064.33670,0.07445
3066.26517,0.07668
3068.19364,0.08129
3070.12211,0.08496
3072.05057,0.08392
3073.97904,0.07983
3075.90751,0.07648
3077.83598,0.07468
3079.76445,0.07372
3081.69292,0.07542
3083.62139,0.07777
3085.54985,0.07764
3087.47832,0.07739
3089.40679,0.07785
3091.33526,0.07800
3093.26373,0.07603
3095.19220,0.07084
3097.12067,0.06930
3099.04914,0.07741
3100.97760,0.08675
3102.90607,0.08531
3104.83454,0.07825
3106.76301,0.07659
3108.69148,0.07860
3110.61995,0.07949
3112.54842,0.07866
3114.47688,0.07644
3116.40535,0.07229
3118.33382,0.06631
3120.26229,0.06323
3122.19076,0.06881
3124.11923,0.07894
3126.04770,0.08325
3127.97617,0.08186
3129.90463,0.07917
3131.83310,0.07642
3133.76157,0.07813
3135.69004,0.08397
3137.61851,0.08807
3139.54698,0.08676
3141.47545,0.07980
3143.40391,0.07352
3145.33238,0.07299
3147.26085,0.07630
3149.18932,0.07857
3151.11779,0.07568
3153.04626,0.06988
3154.97473,0.06816
3156.90320,0.07390
3158.83166,0.08187
3160.76013,0.08543
3162.68860,0.08459
3164.61707,0.08253
3166.54554,0.08325
3168.47401,0.08588
3170.40248,0.08531
3172.33094,0.08183
3174.25941,0.07919
3176.18788,0.07935
3178.11635,0.08227
3180.04482,0.08556
3181.97329,0.08698
3183.90176,0.08543
3185.83022,0.08125
3187.75869,0.07859
3189.68716,0.07824
3191.61563,0.07748
3193.54410,0.07809
3195.47257,0.07997
3197.40104,0.07970
3199.32951,0.07735
3201.25797,0.07568
3203.18644,0.07734
3205.11491,0.07940
3207.04338,0.07716
3208.97185,0.07579
3210.90032,0.07903
3212.82879,0.08257
3214.75725,0.08276
3216.68572,0.07440
3218.61419,0.06236
3220.54266,0.06110
3222.47113,0.06966
3224.39960,0.07797
3226.32807,0.08379
3228.25654,0.08634
3230.18500,0.08446
3232.11347,0.08019
3234.04194,0.07473
3235.97041,0.07218
3237.89888,0.07673
3239.82735,0.08107
3241.75582,0.07883
3243.68428,0.07572
3245.61275,0.07656
3247.54122,0.07934
3249.46969,0.08101
3251.39816,0.08009
3253.32663,0.07864
3255.25510,0.07856
3257.18357,0.07964
3259.11203,0.08223
3261.04050,0.08512
3262.96897,0.08528
3264.89744,0.08018
3266.82591,0.07327
3268.75438,0.07219
3270.68285,0.07568
3272.61131,0.07806
3274.53978,0.08145
3276.46825,0.08590
3278.39672,0.08343
3280.32519,0.07666
3282.25366,0.07712
3284.18213,0.08211
3286.11060,0.08273
3288.03906,0.08068
3289.96753,0.07964
3291.89600,0.07719
3293.82447,0.07325
3295.75294,0.07431
3297.68141,0.07896
3299.60988,0.07873
3301.53834,0.07677
3303.46681,0.07909
3305.39528,0.08077
3307.32375,0.07829
3309.25222,0.07747
3311.18069,0.07980
3313.10916,0.07899
3315.03763,0.07672
3316.96609,0.07852
3318.89456,0.07890
3320.82303,0.07257
3322.75150,0.06649
3324.67997,0.06691
3326.60844,0.07032
3328.53691,0.07213
3330.46537,0.07477
3332.39384,0.07906
3334.32231,0.07987
3336.25078,0.07972
3338.17925,0.08341
3340.10772,0.08665
3342.03619,0.08678
3343.96466,0.08415
3345.89312,0.07819
3347.82159,0.07343
3349.75006,0.07380
3351.67853,0.07656
3353.60700,0.07784
3355.53547,0.07630
3357.46394,0.07466
3359.39240,0.07591
3361.32087,0.08012
3363.24934,0.08597
3365.17781,0.08908
3367.10628,0.08681
3369.03475,0.08257
3370.96322,0.07950
3372.89168,0.07708
3374.82015,0.07677
3376.74862,0.08031
3378.67709,0.08271
3380.60556,0.07963
3382.53403,0.07466
3384.46250,0.07426
3386.39097,0.07838
3388.31943,0.07976
3390.24790,0.07585
3392.17637,0.07201
3394.10484,0.07341
3396.03331,0.07815
3397.96178,0.07753
3399.89025,0.07030
3401.81871,0.06904
3403.74718,0.07611
3405.67565,0.07921
3407.60412,0.07527
3409.53259,0.07038
3411.46106,0.06894
3413.38953,0.07168
3415.31800,0.07634
3417.24646,0.07973
3419.17493,0.08060
3421.10340,0.08290
3423.03187,0.08737
3424.96034,0.08711
3426.88881,0.08038
3428.81728,0.07287
3430.74574,0.06953
3432.67421,0.07118
3434.60268,0.07279
3436.53115,0.06933
3438.45962,0.06580
3440.38809,0.06994
3442.31656,0.07781
3444.24503,0.08042
3446.17349,0.07766
3448.10196,0.07336
3450.03043,0.06945
3451.95890,0.06900
3453.88737,0.07359
3455.81584,0.07896
3457.74431,0.08085
3459.67277,0.07875
3461.60124,0.07311
3463.52971,0.06795
3465.45818,0.06810
3467.38665,0.07300
3469.31512,0.07771
3471.24359,0.07945
3473.17206,0.07872
3475.10052,0.07555
3477.02899,0.07350
3478.95746,0.07500
3480.88593,0.07761
3482.81440,0.08000
3484.74287,0.08096
3486.67134,0.07867
3488.59980,0.07418
3490.52827,0.07304
3492.45674,0.07758
3494.38521,0.08114
3496.31368,0.07581
3498.24215,0.06557
3500.17062,0.06116
3502.09909,0.06443
3504.02755,0.06957
3505.95602,0.07116
3507.88449,0.07110
3509.81296,0.07313
3511.74143,0.07354
3513.66990,0.06961
3515.59837,0.06787
3517.52683,0.07153
3519.45530,0.07208
3521.38377,0.06620
3523.31224,0.06162
3525.24071,0.05940
3527.16918,0.05736
3529.09765,0.06098
3531.02611,0.06793
3532.95458,0.06808
3534.88305,0.06352
3536.81152,0.06480
3538.73999,0.07025
3540.66846,0.07070
3542.59693,0.06793
3544.52540,0.06765
3546.45386,0.06775
3548.38233,0.06365
3550.31080,0.05821
3552.23927,0.05482
3554.16774,0.05288
3556.09621,0.05271
3558.02468,0.05437
3559.95314,0.05486
3561.88161,0.05447
3563.81008,0.05900
3565.73855,0.06520
3567.66702,0.05907
3569.59549,0.04938
3571.52396,0.04913
3573.45243,0.05466
3575.38089,0.06265
3577.30936,0.06767
3579.23783,0.06561
3581.16630,0.06007
3583.09477,0.05568
3585.02324,0.05563
3586.95171,0.05939
3588.88017,0.06068
3590.80864,0.06012
3592.73711,0.06136
3594.66558,0.06149
3596.59405,0.05507
3598.52252,0.04768
3600.45099,0.04927
3602.37946,0.05535
3604.30792,0.05614
3606.23639,0.05234
3608.16486,0.04903
3610.09333,0.04864
3612.02180,0.04820
3613.95027,0.04598
3615.87874,0.04522
3617.80720,0.04892
3619.73567,0.05487
3621.66414,0.05616
3623.59261,0.05410
3625.52108,0.05395
3627.44955,0.05517
3629.37802,0.05413
3631.30649,0.05396
3633.23495,0.05292
3635.16342,0.04996
3637.09189,0.05169
3639.02036,0.05565
3640.94883,0.05421
3642.87730,0.05210
3644.80577,0.05510
3646.73423,0.06232
3648.66270,0.07247
3650.59117,0.06953
3652.51964,0.05784
3654.44811,0.05262
3656.37658,0.04945
3658.30505,0.04702
3660.23352,0.04925
3662.16198,0.05066
3664.09045,0.04845
3666.01892,0.04737
3667.94739,0.04812
3669.87586,0.04847
3671.80433,0.04872
3673.73280,0.04936
3675.66126,0.05242
3677.58973,0.05613
3679.51820,0.05507
3681.44667,0.05074
3683.37514,0.04801
3685.30361,0.04981
3687.23208,0.05384
3689.16055,0.05316
3691.08901,0.04624
3693.01748,0.04244
3694.94595,0.04380
3696.87442,0.04766
3698.80289,0.05043
3700.73136,0.05151
3702.65983,0.05222
3704.58829,0.05218
3706.51676,0.05051
3708.44523,0.04601
3710.37370,0.04246
3712.30217,0.04532
3714.23064,0.04721
3716.15911,0.04348
3718.08757,0.03721
3720.01604,0.03543
3721.94451,0.03938
3723.87298,0.04243
3725.80145,0.04241
3727.72992,0.04119
3729.65839,0.04032
3731.58686,0.04151
3733.51532,0.04497
3735.44379,0.04687
3737.37226,0.05130
3739.30073,0.05829
3741.22920,0.05947
3743.15767,0.05413
3745.08614,0.04897
3747.01460,0.04865
3748.94307,0.05366
3750.87154,0.06102
3752.80001,0.05531
3754.72848,0.04612
3756.65695,0.04389
3758.58542,0.04729
3760.51389,0.05149
3762.44235,0.05243
3764.37082,0.05296
3766.29929,0.05503
3768.22776,0.05527
3770.15623,0.05230
3772.08470,0.04791
3774.01317,0.04348
3775.94163,0.04140
3777.87010,0.04421
3779.79857,0.05068
3781.72704,0.05390
3783.65551,0.05230
3785.58398,0.05141
3787.51245,0.05047
3789.44092,0.04469
3791.36938,0.03903
3793.29785,0.04029
3795.22632,0.04506
3797.15479,0.04622
3799.08326,0.04648
3801.01173,0.05261
3802.94020,0.05835
3804.86866,0.05490
3806.79713,0.04618
3808.72560,0.04138
3810.65407,0.04376
3812.58254,0.04766
3814.51101,0.04989
3816.43948,0.04960
3818.36795,0.04908
3820.29641,0.05442
3822.22488,0.06153
3824.15335,0.05938
3826.08182,0.05403
3828.01029,0.05106
3829.93876,0.05023
3831.86723,0.05162
3833.79569,0.05479
3835.72416,0.05581
3837.65263,0.05606
3839.58110,0.05615
3841.50957,0.05004
3843.43804,0.03979
3845.36651,0.03448
3847.29498,0.03749
3849.22344,0.04198
3851.15191,0.04412
3853.08038,0.05107
3855.00885,0.05733
3856.93732,0.05279
3858.86579,0.04648
3860.79426,0.04189
3862.72272,0.04201
3864.65119,0.04539
3866.57966,0.04586
3868.50813,0.04667
3870.43660,0.04707
3872.36507,0.04272
3874.29354,0.04013
3876.22200,0.04308
3878.15047,0.04816
3880.07894,0.05096
3882.00741,0.04635
3883.93588,0.03950
3885.86435,0.04159
3887.79282,0.04783
3889.72129,0.04885
3891.64975,0.04872
3893.57822,0.04737
3895.50669,0.04281
3897.43516,0.04057
3899.36363,0.04255
3901.29210,0.03975
3903.22057,0.03364
3905.14903,0.03596
3907.07750,0.04221
3909.00597,0.04562
3910.93444,0.04429
3912.86291,0.03973
3914.79138,0.03615
3916.71985,0.03547
3918.64832,0.04005
3920.57678,0.04682
3922.50525,0.04804
3924.43372,0.04565
3926.36219,0.04568
3928.29066,0.04378
3930.21913,0.03562
3932.14760,0.03126
3934.07606,0.03819
3936.00453,0.04439
3937.93300,0.04649
3939.86147,0.04885
3941.78994,0.04736
3943.71841,0.04201
3945.64688,0.04137
3947.57535,0.04499
3949.50381,0.04549
3951.43228,0.04195
3953.36075,0.03698
3955.28922,0.03386
3957.21769,0.03794
3959.14616,0.04498
3961.07463,0.04429
3963.00309,0.03689
3964.93156,0.03279
3966.86003,0.03355
3968.78850,0.03709
3970.71697,0.04142
3972.64544,0.04041
3974.57391,0.03597
3976.50238,0.03597
3978.43084,0.03859
3980.35931,0.03779
3982.28778,0.03684
3984.21625,0.03890
3986.14472,0.04031
3988.07319,0.04197
3990.00166,0.04396
3991.93012,0.04259
3993.85859,0.03817
3995.78706,0.03332
3997.71553,0.03074
3999.64400,0.02996
4001.57247,0.02920
4003.50094,0.02988
4005.42941,0.03274
4007.35787,0.03683
4009.28634,0.04060
4011.21481,0.04106
4013.14328,0.03972
4015.07175,0.04014
4017.00022,0.04082
4018.92869,0.04185
4020.85715,0.04377
4022.78562,0.04405
4024.71409,0.04451
4026.64256,0.04823
4028.57103,0.04941
4030.49950,0.04255
4032.42797,0.03671
4034.35644,0.03726
4036.28490,0.03665
4038.21337,0.03518
4040.14184,0.03635
4042.07031,0.03881
4043.99878,0.04252
4045.92725,0.04238
4047.85572,0.03279
4049.78418,0.02371
4051.71265,0.02683
4053.64112,0.03396
4055.56959,0.03552
4057.49806,0.03657
4059.42653,0.03819
4061.35500,0.03614
4063.28346,0.03437
4065.21193,0.03757
4067.14040,0.04218
4069.06887,0.04285
4070.99734,0.03878
4072.92581,0.03334
4074.85428,0.03298
4076.78275,0.03620
4078.71121,0.03347
4080.63968,0.02916
4082.56815,0.03227
4084.49662,0.03475
4086.42509,0.02980
4088.35356,0.02486
4090.28203,0.02536
4092.21049,0.02857
4094.13896,0.03010
4096.06743,0.03014
4097.99590,0.03275
4099.92437,0.03894
4101.85284,0.04541
4103.78131,0.04448
4105.70978,0.03580
4107.63824,0.03026
4109.56671,0.03018
4111.49518,0.03199
4113.42365,0.03565
4115.35212,0.03718
4117.28059,0.03691
4119.20906,0.04079
4121.13752,0.04431
4123.06599,0.04241
4124.99446,0.03860
4126.92293,0.03324
4128.85140,0.02749
4130.77987,0.02663
4132.70834,0.02972
4134.63681,0.03062
4136.56527,0.02922
4138.49374,0.03051
4140.42221,0.03286
4142.35068,0.03181
4144.27915,0.03081
4146.20762,0.03086
4148.13609,0.02865
4150.06455,0.02927
4151.99302,0.03458
4153.92149,0.03693
4155.84996,0.03621
4157.77843,0.03662
4159.70690,0.03624
4161.63537,0.03657
4163.56384,0.03628
4165.49230,0.03068
4167.42077,0.02545
4169.34924,0.02344
4171.27771,0.02306
4173.20618,0.02677
4175.13465,0.03367
4177.06312,0.03883
4178.99158,0.04100
4180.92005,0.04150
4182.84852,0.03852
4184.77699,0.03362
4186.70546,0.02912
4188.63393,0.02392
4190.56240,0.02003
4192.49087,0.02219
4194.41933,0.02985
4196.34780,0.03334
4198.27627,0.02799
4200.20474,0.02057
4202.13321,0.01456
4204.06168,0.00967
4205.99015,0.01031
4207.91861,0.01548
4209.84708,0.01890
4211.77555,0.02151
4213.70402,0.02632
4215.63249,0.02842
4217.56096,0.02329
4219.48943,0.01818
4221.41789,0.01925
4223.34636,0.02526
4225.27483,0.02996
4227.20330,0.02833
4229.13177,0.02476
4231.06024,0.02284
4232.98871,0.02343
4234.91718,0.02552
4236.84564,0.02853
4238.77411,0.03242
4240.70258,0.03237
4242.63105,0.02690
4244.55952,0.02181
4246.48799,0.02242
4248.41646,0.02481
4250.34492,0.02573
4252.27339,0.02452
4254.20186,0.01888
4256.13033,0.01541
4258.05880,0.01691
4259.98727,0.01654
4261.91574,0.01291
4263.84421,0.01240
4265.77267,0.01844
4267.70114,0.02480
4269.62961,0.02483
4271.55808,0.02023
4273.48655,0.01938
4275.41502,0.02395
4277.34349,0.02576
4279.27195,0.02297
4281.20042,0.01838
4283.12889,0.01672
4285.05736,0.01996
4286.98583,0.01922
4288.91430,0.01428
4290.84277,0.01422
4292.77124,0.01977
4294.69970,0.02781
4296.62817,0.03430
4298.55664,0.03216
4300.48511,0.02446
4302.41358,0.02229
4304.34205,0.02511
4306.27052,0.02816
4308.19898,0.02942
4310.12745,0.02502
4312.05592,0.01761
4313.98439,0.01271
4315.91286,0.01183
4317.84133,0.01424
4319.76980,0.01664
4321.69827,0.01969
4323.62673,0.02624
4325.55520,0.02982
4327.48367,0.02626
4329.41214,0.02016
4331.34061,0.01528
4333.26908,0.01446
4335.19755,0.01643
4337.12601,0.01664
4339.05448,0.01313
4340.98295,0.01032
4342.91142,0.01154
4344.83989,0.01202
4346.76836,0.01164
4348.69683,0.01518
4350.62530,0.02005
4352.55376,0.02039
4354.48223,0.01626
4356.41070,0.01256
4358.33917,0.01310
4360.26764,0.01418
4362.19611,0.01015
4364.12458,0.00346
4366.05304,0.00085
4367.98151,0.00509
4369.90998,0.01080
4371.83845,0.01559
4373.76692,0.02071
4375.69539,0.02058
4377.62386,0.01380
4379.55232,0.00694
4381.48079,0.00499
4383.40926,0.00994
4385.33773,0.01790
4387.26620,0.01811
4389.19467,0.01132
4391.12314,0.00734
4393.05161,0.00274
4394.98007,-0.00332
4396.90854,-0.00354
4398.83701,0.00100
4400.76548,0.00851
4402.69395,0.01892
4404.62242,0.02406
4406.55089,0.01977
4408.47935,0.01686
4410.40782,0.02109
4412.33629,0.02481
4414.26476,0.02290
4416.19323,0.01942
4418.12170,0.01959
4420.05017,0.01948
4421.97864,0.01587
4423.90710,0.01375
4425.83557,0.01303
4427.76404,0.01008
4429.69251,0.00752
4431.62098,0.00948
4433.54945,0.01424
4435.47792,0.01619
4437.40638,0.01693
4439.33485,0.01784
4441.26332,0.01486
4443.19179,0.01789
4445.12026,0.03216
4447.04873,0.03664
4448.97720,0.02538
4450.90567,0.02052
4452.83413,0.02565
4454.76260,0.02297
4456.69107,0.01147
4458.61954,-0.00007
4460.54801,-0.00504
4462.47648,0.00051
4464.40495,0.00685
4466.33341,0.00878
4468.26188,0.01132
4470.19035,0.01279
4472.11882,0.01262
4474.04729,0.01396
4475.97576,0.01900
4477.90423,0.02442
4479.83270,0.02139
4481.76116,0.01192
4483.68963,0.00893
4485.61810,0.01360
4487.54657,0.01518
4489.47504,0.01198
4491.40351,0.00563
4493.33198,-0.00297
4495.26044,-0.00569
4497.18891,0.00225
4499.11738,0.01429
4501.04585,0.02037
4502.97432,0.01999
4504.90279,0.01446
4506.83126,0.00408
4508.75973,-0.00345
4510.68819,-0.00458
4512.61666,-0.00034
4514.54513,0.00597
4516.47360,0.00377
4518.40207,-0.00826
4520.33054,-0.01298
4522.25901,-0.00524
4524.18747,0.00133
4526.11594,0.00786
4528.04441,0.01549
4529.97288,0.01626
4531.90135,0.01581
4533.82982,0.01641
4535.75829,0.01341
4537.68676,0.00862
4539.61522,0.00371
4541.54369,-0.00087
4543.47216,-0.00445
4545.40063,-0.00549
4547.32910,-0.00148
4549.25757,0.00243
4551.18604,0.00215
4553.11450,0.00597
4555.04297,0.01611
4556.97144,0.01982
4558.89991,0.01413
4560.82838,0.00894
4562.75685,0.00573
4564.68532,0.00321
4566.61378,0.00210
4568.54225,-0.00202
4570.47072,-0.00441
4572.39919,0.00442
4574.32766,0.01334
4576.25613,0.00924
4578.18460,-0.00080
4580.11307,-0.00148
4582.04153,0.01003
4583.97000,0.02068
4585.89847,0.02198
4587.82694,0.01748
4589.75541,0.01070
4591.68388,0.00334
4593.61235,0.00294
4595.54081,0.00793
4597.46928,0.00775
4599.39775,0.00715
4601.32622,0.01018
4603.25469,0.00828
4605.18316,-0.00147
4607.11163,-0.00905
4609.04010,-0.00503
4610.96856,0.00452
4612.89703,0.00445
4614.82550,-0.00679
4616.75397,-0.01248
4618.68244,-0.00731
4620.61091,0.00136
4622.53938,0.00947
4624.46784,0.01101
4626.39631,0.00742
4628.32478,0.00390
4630.25325,0.00104
4632.18172,0.00179
4634.11019,0.00286
4636.03866,-0.00413
4637.96713,-0.01156
4639.89559,-0.00648
4641.82406,0.00347
4643.75253,0.00621
4645.68100,0.00792
4647.60947,0.01101
4649.53794,0.00542
4651.46641,-0.00260
4653.39487,-0.00004
4655.32334,0.00603
4657.25181,0.00508
4659.18028,0.00209
4661.10875,0.00376
4663.03722,0.00641
4664.96569,0.00987
4666.89416,0.01229
4668.82262,0.00666
4670.75109,0.00105
4672.67956,0.00306
4674.60803,0.00963
4676.53650,0.01763
4678.46497,0.01875
4680.39344,0.01196
4682.32190,0.00601
4684.25037,0.00339
4686.17884,0.00083
4688.10731,-0.00180
4690.03578,-0.00037
4691.96425,-0.00124
4693.89272,-0.00765
4695.82119,-0.00863
4697.74965,-0.00785
4699.67812,-0.00627
4701.60659,0.00337
4703.53506,0.01468
4705.46353,0.01725
4707.39200,0.00798
4709.32047,-0.00546
4711.24893,-0.00745
4713.17740,0.00369
4715.10587,0.01466
4717.03434,0.01696
4718.96281,0.00982
4720.89128,-0.00030
4722.81975,-0.00788
4724.74821,-0.01484
4726.67668,-0.02041
4728.60515,-0.01605
4730.53362,-0.00749
4732.46209,-0.00755
4734.39056,-0.01507
4736.31903,-0.01793
4738.24750,-0.01270
4740.17596,-0.00696
4742.10443,-0.00285
4744.03290,0.00229
4745.96137,0.00834
4747.88984,0.01189
4749.81831,0.00969
4751.74678,0.00306
4753.67524,-0.00368
4755.60371,-0.00157
4757.53218,0.00862
4759.46065,0.01280
4761.38912,0.01115
4763.31759,0.01532
4765.24606,0.02260
4767.17453,0.02224
4769.10299,0.01417
4771.03146,0.00685
4772.95993,0.00452
4774.88840,0.00084
4776.81687,-0.00743
4778.74534,-0.00838
4780.67381,-0.00022
4782.60227,0.00410
4784.53074,0.00992
4786.45921,0.02121
4788.38768,0.02193
4790.31615,0.01439
4792.24462,0.01437
4794.17309,0.01249
4796.10156,0.00014
4798.03002,-0.00512
4799.95849,0.00213
4801.88696,0.00842
4803.81543,0.01122
4805.74390,0.01140
4807.67237,0.00727
4809.60084,0.00529
4811.52930,0.00679
4813.45777,0.00759
4815.38624,0.00715
4817.31471,0.00692
4819.24318,0.01475
4821.17165,0.02832
4823.10012,0.03024
4825.02859,0.02123
4826.95705,0.01700
4828.88552,0.01849
4830.81399,0.01731
4832.74246,0.00961
4834.67093,0.00373
4836.59940,0.01133
4838.52787,0.02589
4840.45633,0.03385
4842.38480,0.03322
4844.31327,0.02474
4846.24174,0.00704
4848.17021,-0.00706
4850.09868,-0.00493
4852.02715,-0.00101
4853.95562,-0.00226
4855.88408,0.00377
4857.81255,0.01297
4859.74102,0.01494
4861.66949,0.00615
4863.59796,-0.01210
4865.52643,-0.02400
4867.45490,-0.02001
4869.38336,-0.00892
4871.31183,0.00261
4873.24030,0.01204
4875.16877,0.01740
4877.09724,0.01771
4879.02571,0.01137
4880.95418,0.00065
4882.88265,-0.00060
4884.81111,0.01521
4886.73958,0.02840
4888.66805,0.02421
4890.59652,0.01328
4892.52499,0.00247
4894.45346,-0.01262
4896.38193,-0.02191
4898.31039,-0.01332
4900.23886,-0.00265
4902.16733,-0.00339
4904.09580,-0.00796
4906.02427,-0.00808
4907.95274,-0.00173
4909.88121,0.00854
4911.80967,0.01538
4913.73814,0.01461
4915.66661,0.01091
4917.59508,0.00662
4919.52355,0.00353
4921.45202,0.00811
4923.38049,0.02323
4925.30896,0.04172
4927.23742,0.04437
4929.16589,0.02743
4931.09436,0.00949
4933.02283,0.00171
4934.95130,0.00084
4936.87977,0.00321
4938.80824,0.00967
4940.73670,0.02214
4942.66517,0.03347
4944.59364,0.03051
4946.52211,0.01459
4948.45058,-0.00240
4950.37905,-0.00690
4952.30752,0.00243
4954.23599,0.00436
4956.16445,-0.00181
4958.09292,0.00120
4960.02139,0.00819
4961.94986,0.01187
4963.87833,0.01242
4965.80680,0.00353
4967.73527,-0.01219
4969.66373,-0.01711
4971.59220,-0.00198
4973.52067,0.01951
4975.44914,0.02441
4977.37761,0.00818
4979.30608,-0.00417
4981.23455,0.00546
4983.16302,0.01814
4985.09148,0.01578
4987.01995,0.01071
4988.94842,0.01579
4990.87689,0.01911
4992.80536,0.00963
4994.73383,0.00139
4996.66230,0.00706
4998.59076,0.01774
5000.51923,0.02108
5002.44770,0.01857
5004.37617,0.01721
5006.30464,0.01612
5008.23311,0.01063
5010.16158,-0.00105
5012.09005,-0.01384
5014.01851,-0.01376
5015.94698,0.00036
5017.87545,0.01021
5019.80392,0.00847
5021.73239,0.00909
5023.66086,0.01297
5025.58933,0.00501
5027.51779,-0.00373
5029.44626,0.00161
5031.37473,0.00221
5033.30320,-0.01110
5035.23167,-0.02156
5037.16014,-0.01845
5039.08861,0.00108
5041.01708,0.02020
5042.94554,0.01585
5044.87401,0.00437
5046.80248,0.00799
5048.73095,0.01197
5050.65942,0.00107
5052.58789,-0.01276
5054.51636,-0.01700
5056.44482,-0.01507
5058.37329,-0.01829
5060.30176,-0.02337
5062.23023,-0.01022
5064.15870,0.00984
5066.08717,0.00690
5068.01564,-0.00335
5069.94410,0.00661
5071.87257,0.02416
5073.80104,0.03302
5075.72951,0.03296
5077.65798,0.02323
5079.58645,0.01191
5081.51492,0.00039
5083.44339,-0.01165
5085.37185,-0.00934
5087.30032,0.00195
5089.22879,0.00980
5091.15726,0.01995
5093.08573,0.02082
5095.01420,0.00105
5096.94267,-0.01690
5098.87113,-0.01420
5100.79960,0.00267
5102.72807,0.01782
5104.65654,0.02252
5106.58501,0.02591
5108.51348,0.03572
5110.44195,0.04220
5112.37042,0.03510
5114.29888,0.02284
5116.22735,0.01509
5118.15582,0.00928
5120.08429,0.00905
5122.01276,0.01473
5123.94123,0.01243
5125.86970,0.00231
5127.79816,0.00518
5129.72663,0.01843
5131.65510,0.01378
5133.58357,-0.00328
5135.51204,-0.01053
5137.44051,-0.01553
5139.36898,-0.01810
5141.29745,-0.00943
5143.22591,0.00257
5145.15438,0.01080
5147.08285,0.00856
5149.01132,0.00091
5150.93979,0.00663
5152.86826,0.02380
5154.79673,0.03266
5156.72519,0.02289
5158.65366,0.00823
5160.58213,0.00952
5162.51060,0.02103
5164.43907,0.02099
5166.36754,0.01184
5168.29601,0.00827
5170.22448,0.01408
5172.15294,0.02246
5174.08141,0.02693
5176.00988,0.02963
5177.93835,0.03352
5179.86682,0.03940
5181.79529,0.04250
5183.72376,0.03735
5185.65222,0.02384
5187.58069,0.01629
5189.50916,0.02472
5191.43763,0.02897
5193.36610,0.01749
5195.29457,0.00613
5197.22304,0.00697
5199.15151,0.01306
5201.07997,0.00863
5203.00844,-0.00011
5204.93691,0.00907
5206.86538,0.02650
5208.79385,0.01999
5210.72232,-0.00100
5212.65079,-0.01174
5214.57925,-0.00405
5216.50772,0.01168
5218.43619,0.02350
5220.36466,0.03039
5222.29313,0.02600
5224.22160,0.01037
5226.15007,0.00510
5228.07854,0.02346
5230.00700,0.04343
5231.93547,0.04468
5233.86394,0.03459
5235.79241,0.02366
5237.72088,0.01406
5239.64935,0.00639
5241.57782,-0.00019
5243.50628,0.00155
5245.43475,0.00838
5247.36322,0.00324
5249.29169,-0.00887
5251.22016,-0.01419
5253.14863,-0.00933
5255.07710,0.00928
5257.00556,0.03122
5258.93403,0.03496
5260.86250,0.01967
5262.79097,0.00579
5264.71944,0.01084
5266.64791,0.03016
5268.57638,0.03803
5270.50485,0.02643
5272.43331,0.00861
5274.36178,-0.00680
5276.29025,-0.01155
5278.21872,-0.00145
5280.14719,0.02133
5282.07566,0.03440
5284.00413,0.02347
5285.93259,0.01679
5287.86106,0.02646
5289.78953,0.04018
5291.71800,0.04574
5293.64647,0.03811
5295.57494,0.03385
5297.50341,0.03386
5299.43188,0.03295
5301.36034,0.03796
5303.28881,0.03435
5305.21728,0.01939
5307.14575,0.01635
5309.07422,0.01668
5311.00269,0.00115
5312.93116,-0.01086
5314.85962,-0.00052
5316.78809,0.01742
5318.71656,0.03160
5320.64503,0.04739
5322.57350,0.05549
5324.50197,0.04586
5326.43044,0.02861
5328.35891,0.01962
5330.28737,0.02056
5332.21584,0.01827
5334.14431,0.00952
5336.07278,0.01431
5338.00125,0.02923
5339.92972,0.01780
5341.85819,-0.00849
5343.78665,-0.01700
5345.71512,-0.00807
5347.64359,-0.00331
5349.57206,-0.00734
5351.50053,0.00117
5353.42900,0.03325
5355.35747,0.05343
5357.28594,0.03697
5359.21440,0.00326
5361.14287,-0.01874
5363.07134,-0.01591
5364.99981,0.00100
5366.92828,0.02411
5368.85675,0.04471
5370.78522,0.04133
5372.71368,0.01811
5374.64215,0.00427
5376.57062,0.01173
5378.49909,0.02494
5380.42756,0.03080
5382.35603,0.03220
5384.28450,0.03589
5386.21297,0.04516
5388.14143,0.04496
5390.06990,0.02292
5391.99837,0.00701
5393.92684,0.02553
5395.85531,0.04870
5397.78378,0.05427
5399.71225,0.05587
5401.64071,0.05385
5403.56918,0.06005
5405.49765,0.07726
5407.42612,0.07195
5409.35459,0.04211
5411.28306,0.02789
5413.21153,0.04097
5415.13999,0.04039
5417.06846,0.01633
5418.99693,0.00568
5420.92540,0.00969
5422.85387,0.00019
5424.78234,-0.01823
5426.71081,-0.02889
5428.63928,-0.02861
5430.56774,-0.02405
5432.49621,-0.02434
5434.42468,-0.01971
5436.35315,0.00225
5438.28162,0.03548
5440.21009,0.05773
5442.13856,0.04778
5444.06702,0.03252
5445.99549,0.03347
5447.92396,0.02971
5449.85243,0.02100
5451.78090,0.02172
5453.70937,0.03000
5455.63784,0.04021
5457.56631,0.05174
5459.49477,0.05004
5461.42324,0.02688
5463.35171,0.01789
5465.28018,0.03185
5467.20865,0.04208
5469.13712,0.04999
5471.06559,0.05152
5472.99405,0.03252
5474.92252,0.01466
5476.85099,0.01789
5478.77946,0.03147
5480.70793,0.04844
5482.63640,0.05016
5484.56487,0.03404
5486.49334,0.01729
5488.42180,0.00157
5490.35027,0.00050
5492.27874,0.01634
5494.20721,0.02369
5496.13568,0.02697
5498.06415,0.03840
5499.99262,0.04561
5501.92108,0.03397
5503.84955,0.01429
5505.77802,0.01340
5507.70649,0.03010
5509.63496,0.03800
5511.56343,0.03107
5513.49190,0.02782
5515.42037,0.04305
5517.34883,0.05836
5519.27730,0.05987
5521.20577,0.05195
5523.13424,0.03997
5525.06271,0.04415
5526.99118,0.07024
5528.91965,0.08600
5530.84811,0.05344
5532.77658,0.00961
5534.70505,0.01433
5536.63352,0.03095
5538.56199,0.01926
5540.49046,0.01606
5542.41893,0.03121
5544.34740,0.03308
5546.27586,0.03286
5548.20433,0.04937
5550.13280,0.06587
5552.06127,0.07501
5553.98974,0.08110
5555.91821,0.08136
5557.84668,0.05997
5559.77514,0.02886
5561.70361,0.02574
5563.63208,0.03799
5565.56055,0.03934
5567.48902,0.03357
5569.41749,0.01995
5571.34596,0.00301
5573.27443,0.00101
5575.20289,0.02382
5577.13136,0.05744
5579.05983,0.07868
5580.98830,0.07096
5582.91677,0.04626
5584.84524,0.03556
5586.77371,0.03280
5588.70217,0.02116
5590.63064,0.00952
5592.55911,0.00044
5594.48758,-0.00948
5596.41605,-0.01889
5598.34452,-0.01954
5600.27299,-0.00180
5602.20145,0.00495
5604.12992,-0.01976
5606.05839,-0.02757
5607.98686,0.00883
5609.91533,0.04482
5611.84380,0.04688
5613.77227,0.03146
5615.70074,0.02478
5617.62920,0.02080
5619.55767,0.00967
5621.48614,0.00829
5623.41461,0.01365
5625.34308,0.01595
5627.27155,0.02616
5629.20002,0.03668
5631.12848,0.03063
5633.05695,0.01789
5634.98542,0.02536
5636.91389,0.04855
5638.84236,0.05076
5640.77083,0.02636
5642.69930,0.00583
5644.62777,0.01459
5646.55623,0.03829
5648.48470,0.05532
5650.41317,0.07746
5652.34164,0.09370
5654.27011,0.08800
5656.19858,0.06636
5658.12705,0.02532
5660.05551,-0.01916
5661.98398,-0.02939
5663.91245,-0.00296
5665.84092,0.02124
5667.76939,0.02700
5669.69786,0.03355
5671.62633,0.04650
5673.55480,0.05325
5675.48326,0.05753
5677.41173,0.06409
5679.34020,0.06117
5681.26867,0.04863
5683.19714,0.02535
5685.12561,0.00209
5687.05408,0.01009
5688.98254,0.04983
5690.91101,0.08170
5692.83948,0.07974
5694.76795,0.05119
5696.69642,0.00701
5698.62489,-0.03023
5700.55336,-0.02879
5702.48183,0.01271
5704.41029,0.06366
5706.33876,0.09218
5708.26723,0.08094
5710.19570,0.04257
5712.12417,0.02645
5714.05264,0.03716
5715.98111,0.03160
5717.90957,0.01472
5719.83804,-0.00006
5721.76651,-0.00962
5723.69498,0.00314
5725.62345,0.02137
5727.55192,0.03485
5729.48039,0.05325
5731.40886,0.04529
5733.33732,0.01599
5735.26579,0.00313
5737.19426,0.00056
5739.12273,0.01189
5741.05120,0.04022
5742.97967,0.04311
5744.90814,0.02322
5746.83660,0.01602
5748.76507,0.00621
5750.69354,-0.01706
5752.62201,-0.02905
5754.55048,-0.01276
5756.47895,0.03611
5758.40742,0.07618
5760.33588,0.07263
5762.26435,0.05492
5764.19282,0.04039
5766.12129,0.01986
5768.04976,0.01285
5769.97823,0.02825
5771.90670,0.04393
5773.83517,0.04550
5775.76363,0.05073
5777.69210,0.05458
5779.62057,0.01922
5781.54904,-0.02706
5783.47751,-0.02781
5785.40598,0.01709
5787.33445,0.07662
5789.26291,0.11269
5791.19138,0.11120
5793.11985,0.10163
5795.04832,0.11460
5796.97679,0.12242
5798.90526,0.08762
5800.83373,0.03986
5802.76220,0.01785
5804.69066,0.01856
5806.61913,0.01453
5808.54760,-0.00103
5810.47607,-0.00306
5812.40454,0.01155
5814.33301,0.02401
5816.26148,0.02385
5818.18994,0.01405
5820.11841,0.01731
5822.04688,0.02226
5823.97535,0.00091
5825.90382,-0.01130
5827.83229,0.01562
5829.76076,0.03858
5831.68923,0.03378
5833.61769,0.03508
5835.54616,0.04647
5837.47463,0.05584
5839.40310,0.05349
5841.33157,0.03391
5843.26004,0.01188
5845.18851,-0.00902
5847.11697,-0.01074
5849.04544,0.01549
5850.97391,0.03065
5852.90238,0.02851
5854.83085,0.04459
5856.75932,0.08369
5858.68779,0.10181
5860.61626,0.07845
5862.54472,0.04981
5864.47319,0.03636
5866.40166,0.02202
5868.33013,0.00585
5870.25860,0.01537
5872.18707,0.04427
5874.11554,0.03753
5876.04400,0.00733
5877.97247,0.01504
5879.90094,0.03309
5881.82941,0.03654
5883.75788,0.04726
5885.68635,0.06067
5887.61482,0.06992
5889.54329,0.07174
5891.47175,0.06296
5893.40022,0.04785
5895.32869,0.01932
5897.25716,-0.02488
5899.18563,-0.04892
5901.11410,-0.01840
5903.04257,0.03363
5904.97103,0.05340
5906.89950,0.05499
5908.82797,0.06042
5910.75644,0.06146
5912.68491,0.06213
5914.61338,0.06393
5916.54185,0.06126
5918.47032,0.04581
5920.39878,0.01567
5922.32725,0.00190
5924.25572,0.02528
5926.18419,0.04955
5928.11266,0.03125
5930.04113,0.01637
5931.96960,0.05270
5933.89806,0.07000
5935.82653,0.04179
5937.75500,0.02935
5939.68347,0.01603
5941.61194,-0.01030
5943.54041,-0.01285
5945.46888,-0.01017
5947.39734,-0.02770
5949.32581,-0.01845
5951.25428,0.02674
5953.18275,0.03088
5955.11122,0.01030
5957.03969,0.02926
5958.96816,0.07951
5960.89663,0.12562
5962.82509,0.12851
5964.75356,0.08275
5966.68203,0.02825
5968.61050,-0.01106
5970.53897,-0.03438
5972.46744,-0.01049
5974.39591,0.04749
5976.32437,0.07535
5978.25284,0.06679
5980.18131,0.03499
5982.10978,0.00656
5984.03825,0.01765
5985.96672,0.04345
5987.89519,0.03531
5989.82366,0.00095
5991.75212,-0.02476
5993.68059,-0.02221
5995.60906,0.00003
5997.53753,0.02623
5999.46600,0.05695
6001.39447,0.04899
6003.32294,-0.00328
6005.25140,-0.02381
6007.17987,-0.01029
6009.10834,0.01004
6011.03681,0.04237
6012.96528,0.08308
6014.89375,0.11030
6016.82222,0.08224
6018.75069,0.01705
6020.67915,-0.01645
6022.60762,-0.00311
6024.53609,0.03625
6026.46456,0.08153
6028.39303,0.11126
6030.32150,0.09806
6032.24997,0.04762
6034.17843,-0.00213
6036.10690,-0.01527
6038.03537,0.00633
6039.96384,0.02789
6041.89231,0.03176
6043.82078,0.01631
6045.74925,-0.00156
6047.67772,-0.00205
6049.60618,0.02250
6051.53465,0.06838
6053.46312,0.07772
6055.39159,0.01342
6057.32006,-0.05236
6059.24853,-0.06336
6061.17700,-0.05882
6063.10546,-0.04438
6065.03393,0.01506
6066.96240,0.07993
6068.89087,0.10116
6070.81934,0.08263
6072.74781,0.06161
6074.67628,0.06317
6076.60475,0.06876
6078.53321,0.06093
6080.46168,0.02234
6082.39015,-0.02238
6084.31862,-0.00679
6086.24709,0.04915
6088.17556,0.07001
6090.10403,0.07373
6092.03249,0.09306
6093.96096,0.07097
6095.88943,0.01311
6097.81790,0.00179
6099.74637,0.01513
6101.67484,0.00823
6103.60331,0.01699
6105.53177,0.04297
6107.46024,0.05759
6109.38871,0.07829
6111.31718,0.07758
6113.24565,0.02629
6115.17412,-0.01582
6117.10259,-0.00700
6119.03106,0.03630
6120.95952,0.05836
6122.88799,0.03903
6124.81646,0.01824
6126.74493,0.00199
6128.67340,-0.03245
6130.60187,-0.04616
6132.53034,-0.01720
6134.45880,-0.00124
6136.38727,0.00063
6138.31574,0.02490
6140.24421,0.02757
6142.17268,-0.01658
6144.10115,-0.03328
6146.02962,0.01498
6147.95809,0.07285
6149.88655,0.06159
6151.81502,-0.00982
6153.74349,-0.03327
6155.67196,0.00598
6157.60043,0.04742
6159.52890,0.06456
6161.45737,0.06528
6163.38583,0.07659
6165.31430,0.06661
6167.24277,0.03480
6169.17124,0.04531
6171.09971,0.06889
6173.02818,0.03830
6174.95665,0.00455
6176.88512,0.03905
6178.81358,0.08200
6180.74205,0.06843
6182.67052,0.05607
6184.59899,0.07699
6186.52746,0.09860
6188.45593,0.09048
6190.38440,0.05899
6192.31286,0.06926
6194.24133,0.11920
6196.16980,0.11305
6198.09827,0.05011
6200.02674,0.03146
6201.95521,0.05764
6203.88368,0.04973
6205.81215,0.01566
6207.74061,0.00113
6209.66908,-0.01462
6211.59755,-0.01606
6213.52602,0.02704
6215.45449,0.06112
6217.38296,0.05348
6219.31143,0.05117
6221.23989,0.08964
6223.16836,0.12283
6225.09683,0.11416
6227.02530,0.10151
6228.95377,0.07445
6230.88224,0.02083
6232.81071,-0.00612
6234.73918,0.01297
6236.66764,0.03377
6238.59611,0.03294
6240.52458,0.04757
6242.45305,0.07684
6244.38152,0.06275
6246.30999,0.01570
6248.23846,-0.00609
6250.16692,0.00535
6252.09539,0.01337
6254.02386,0.00107
6255.95233,-0.00307
6257.88080,0.02111
6259.80927,0.03301
6261.73774,0.02209
6263.66621,0.03273
6265.59467,0.03682
6267.52314,-0.01101
6269.45161,-0.06037
6271.38008,-0.07026
6273.30855,-0.03765
6275.23702,0.00611
6277.16549,0.01312
6279.09395,-0.02379
6281.02242,-0.07311
6282.95089,-0.06432
6284.87936,0.00922
6286.80783,0.08194
6288.73630,0.12490
6290.66477,0.11285
6292.59323,0.06111
6294.52170,0.02037
6296.45017,-0.00188
6298.37864,0.00359
6300.30711,0.04008
6302.23558,0.05226
6304.16405,0.03030
6306.09252,0.02258
6308.02098,0.04547
6309.94945,0.08331
6311.87792,0.06859
6313.80639,0.02161
6315.73486,0.01690
6317.66333,-0.00463
6319.59180,-0.04445
6321.52026,0.00423
6323.44873,0.10206
6325.37720,0.14263
6327.30567,0.14405
6329.23414,0.12208
6331.16261,0.06626
6333.09108,0.03026
6335.01955,0.05396
6336.94801,0.10283
6338.87648,0.11988
6340.80495,0.09400
6342.73342,0.05931
6344.66189,0.03251
6346.59036,0.02270
6348.51883,0.06043
6350.44729,0.11836
6352.37576,0.11987
6354.30423,0.08379
6356.23270,0.06750
6358.16117,0.09385
6360.08964,0.13237
6362.01811,0.12336
6363.94658,0.08763
6365.87504,0.05663
6367.80351,0.02214
6369.73198,0.02288
6371.66045,0.03501
6373.58892,-0.01247
6375.51739,-0.05533
6377.44586,-0.04417
6379.37432,-0.02287
6381.30279,0.01907
6383.23126,0.09076
6385.15973,0.09931
6387.08820,0.03921
6389.01667,0.02034
6390.94514,0.06157
6392.87361,0.08583
6394.80207,0.09133
6396.73054,0.10368
6398.65901,0.08182
6400.58748,0.01487
6402.51595,-0.03243
6404.44442,0.01972
6406.37289,0.10914
6408.30135,0.08958
6410.22982,0.00476
6412.15829,-0.00920
6414.08676,0.04015
6416.01523,0.06202
6417.94370,0.03657
6419.87217,0.00914
6421.80064,-0.01933
6423.72910,-0.06891
6425.65757,-0.09932
6427.58604,-0.05891
6429.51451,0.01870
6431.44298,0.05640
6433.37145,0.04894
6435.29992,0.07234
6437.22838,0.12505
6439.15685,0.12190
6441.08532,0.07847
6443.01379,0.03744
6444.94226,0.00327
6446.87073,0.00590
6448.79920,0.04884
6450.72766,0.05462
6452.65613,-0.02670
6454.58460,-0.09986
6456.51307,-0.08584
6458.44154,-0.02758
6460.37001,0.00781
6462.29848,0.03978
6464.22695,0.06319
6466.15541,0.02868
6468.08388,-0.01389
6470.01235,-0.00191
6471.94082,0.02301
6473.86929,0.02725
6475.79776,0.04584
6477.72623,0.06825
6479.65469,0.07294
6481.58316,0.09906
6483.51163,0.12844
6485.44010,0.13636
6487.36857,0.12547
6489.29704,0.13822
6491.22551,0.18359
6493.15398,0.12656
6495.08244,-0.00641
6497.01091,-0.03431
6498.93938,0.03712
6500.86785,0.08821
6502.79632,0.08087
6504.72479,0.07730
6506.65326,0.08514
6508.58172,0.07538
6510.51019,0.03618
6512.43866,-0.02217
6514.36713,-0.05422
6516.29560,-0.03268
6518.22407,0.02622
6520.15254,0.07082
6522.08101,0.08736
6524.00947,0.07988
6525.93794,0.03341
6527.86641,-0.00803
6529.79488,0.01268
6531.72335,0.07946
6533.65182,0.14265
6535.58029,0.15668
6537.50875,0.09306
6539.43722,0.01356
6541.36569,-0.00879
6543.29416,0.00151
6545.22263,0.04907
6547.15110,0.09809
6549.07957,0.09152
6551.00804,0.07375
6552.93650,0.05808
6554.86497,0.00775
6556.79344,-0.03279
6558.72191,-0.03698
6560.65038,-0.02398
6562.57885,0.01419
6564.50732,0.07062
6566.43578,0.08044
6568.36425,0.03591
6570.29272,0.00729
6572.22119,0.03187
6574.14966,0.08744
6576.07813,0.12345
6578.00660,0.08793
6579.93507,0.00891
6581.86353,-0.00854
6583.79200,0.05083
6585.72047,0.06974
6587.64894,0.02114
6589.57741,-0.00574
6591.50588,0.02428
6593.43435,0.07989
6595.36281,0.12279
6597.29128,0.10435
6599.21975,0.02113
6601.14822,-0.03574
6603.07669,0.00683
6605.00516,0.09846
6606.93363,0.18529
6608.86210,0.25628
6610.79056,0.29898
6612.71903,0.27632
6614.64750,0.19116
6616.57597,0.05869
6618.50444,-0.05277
6620.43291,-0.05903
6622.36138,0.00418
6624.28984,0.06138
6626.21831,0.09108
6628.14678,0.07038
6630.07525,0.00808
6632.00372,-0.01843
6633.93219,-0.01025
6635.86066,0.01874
6637.78912,0.05848
6639.71759,0.07234
6641.64606,0.06011
6643.57453,0.03704
6645.50300,0.05454
6647.43147,0.08609
6649.35994,0.05544
6651.28841,0.04082
6653.21687,0.08875
6655.14534,0.10543
6657.07381,0.09912
6659.00228,0.14828
6660.93075,0.15710
6662.85922,0.10697
6664.78769,0.09435
6666.71615,0.10616
6668.64462,0.07379
6670.57309,0.00938
6672.50156,-0.01436
6674.43003,0.03111
6676.35850,0.09426
6678.28697,0.06796
6680.21544,-0.07584
6682.14390,-0.20780
6684.07237,-0.22104
6686.00084,-0.15103
6687.92931,-0.08874
6689.85778,-0.09092
6691.78625,-0.09427
6693.71472,-0.02717
6695.64318,0.03427
6697.57165,0.00153
6699.50012,-0.03948
6701.42859,-0.06498
6703.35706,-0.13132
6705.28553,-0.09733
6707.21400,0.09225
6709.14247,0.17916
6711.07093,0.09924
6712.99940,0.03114
6714.92787,0.03410
6716.85634,0.06790
6718.78481,0.07005
6720.71328,0.03313
6722.64175,0.02056
6724.57021,0.04160
6726.49868,0.07696
6728.42715,0.14349
6730.35562,0.22835
6732.28409,0.26421
6734.21256,0.21576
6736.14103,0.12878
6738.06950,0.09441
6739.99796,0.09895
6741.92643,0.09159
6743.85490,0.07316
6745.78337,0.04754
6747.71184,0.03839
6749.64031,0.03379
6751.56878,0.01117
6753.49724,0.02116
6755.42571,0.06166
6757.35418,0.08309
6759.28265,0.12486
6761.21112,0.17350
6763.13959,0.12461
6765.06806,0.03992
6766.99653,0.00874
6768.92499,-0.01117
6770.85346,-0.04991
6772.78193,-0.01968
6774.71040,0.10163
6776.63887,0.16159
6778.56734,0.10971
6780.49581,0.04990
6782.42427,0.03828
6784.35274,0.06218
6786.28121,0.06861
6788.20968,0.04667
6790.13815,-0.00033
6792.06662,-0.04499
6793.99509,-0.02632
6795.92355,0.00110
6797.85202,-0.02874
6799.78049,-0.03744
6801.70896,0.04800
6803.63743,0.11934
6805.56590,0.06355
6807.49437,-0.01922
6809.42284,0.00340
6811.35130,0.13510
6813.27977,0.22752
6815.20824,0.20796
6817.13671,0.15057
6819.06518,0.07605
6820.99365,0.02521
6822.92212,0.05192
6824.85058,0.03496
6826.77905,-0.01971
6828.70752,0.01325
6830.63599,0.08406
6832.56446,0.13935
6834.49293,0.19779
6836.42140,0.19484
6838.34987,0.10203
6840.27833,0.02606
6842.20680,0.01879
6844.13527,0.01178
6846.06374,-0.04394
6847.99221,-0.13516
6849.92068,-0.17825
6851.84915,-0.07870
6853.77761,0.03259
6855.70608,-0.00823
6857.63455,-0.06303
6859.56302,-0.01328
6861.49149,0.05968
6863.41996,0.14526
6865.34843,0.19425
6867.27690,0.13638
6869.20536,0.09107
6871.13383,0.14938
6873.06230,0.20439
6874.99077,0.14602
6876.91924,0.03808
6878.84771,-0.03226
6880.77618,-0.04332
6882.70464,-0.02257
6884.63311,-0.00571
6886.56158,0.01857
6888.49005,0.08836
6890.41852,0.11854
6892.34699,0.05523
6894.27546,0.00183
6896.20393,-0.03466
6898.13239,-0.09936
6900.06086,-0.12549
6901.98933,-0.06514
6903.91780,0.03889
6905.84627,0.07983
6907.77474,0.00848
6909.70321,-0.05666
6911.63167,-0.05255
6913.56014,-0.05036
6915.48861,-0.03230
6917.41708,0.03969
6919.34555,0.12675
6921.27402,0.22478
6923.20249,0.27536
6925.13096,0.22582
6927.05942,0.12970
6928.98789,0.03069
6930.91636,-0.01843
6932.84483,0.00723
6934.77330,-0.05003
6936.70177,-0.19299
6938.63024,-0.24071
6940.55870,-0.12571
6942.48717,0.02195
6944.41564,0.08914
6946.34411,0.07179
6948.27258,0.06564
6950.20105,0.11699
6952.12952,0.18042
6954.05799,0.18023
6955.98645,0.06531
6957.91492,-0.06125
6959.84339,-0.08003
6961.77186,0.03513
6963.70033,0.17779
6965.62880,0.15861
6967.55727,-0.01752
6969.48573,-0.11651
6971.41420,-0.05732
6973.34267,0.02872
6975.27114,0.03468
6977.19961,-0.04188
6979.12808,-0.06916
6981.05655,0.02305
6982.98501,0.10597
6984.91348,0.07384
6986.84195,0.04172
6988.77042,0.08219
6990.69889,0.09462
6992.62736,0.04796
6994.55583,0.07338
6996.48430,0.20653
6998.41276,0.28777
7000.34123,0.23339
7002.26970,0.12738
7004.19817,0.10222
7006.12664,0.17114
7008.05511,0.17388
7009.98358,0.06862
7011.91204,-0.02658
7013.84051,0.01166
7015.76898,0.11314
7017.69745,0.10596
7019.62592,-0.00318
7021.55439,-0.08598
7023.48286,-0.00368
7025.41133,0.16708
7027.33979,0.29029
7029.26826,0.35153
7031.19673,0.27150
7033.12520,0.14241
7035.05367,0.04935
7036.98214,-0.06442
7038.91061,-0.11944
7040.83907,-0.03322
7042.76754,0.09975
7044.69601,0.11572
7046.62448,0.08510
7048.55295,0.10657
7050.48142,0.10637
7052.40989,0.06484
7054.33836,0.08008
7056.26682,0.15401
7058.19529,0.14026
7060.12376,0.06322
7062.05223,0.09329
7063.98070,0.22979
7065.90917,0.27611
7067.83764,0.15701
7069.76610,0.00266
7071.69457,-0.03387
7073.62304,0.04637
7075.55151,0.13903
7077.47998,0.16234
7079.40845,0.12384
7081.33692,0.11925
7083.26539,0.11576
7085.19385,0.01782
7087.12232,-0.04273
7089.05079,0.05178
7090.97926,0.14667
7092.90773,0.14361
7094.83620,0.11776
7096.76467,0.10928
7098.69313,0.12635
7100.62160,0.19992
7102.55007,0.23454
7104.47854,0.15064
7106.40701,0.03343
7108.33548,0.01856
7110.26395,0.06428
7112.19242,0.03298
7114.12088,-0.04928
7116.04935,-0.04342
7117.97782,0.04821
7119.90629,0.11664
7121.83476,0.13078
7123.76323,0.03332
7125.69170,-0.10194
7127.62016,-0.08645
7129.54863,0.03586
7131.47710,0.14676
7133.40557,0.19930
7135.33404,0.15001
7137.26251,0.02419
7139.19098,-0.07551
7141.11944,-0.05147
7143.04791,0.05929
7144.97638,0.15769
7146.90485,0.20118
7148.83332,0.19301
7150.76179,0.17233
7152.69026,0.20233
7154.61873,0.21983
7156.54719,0.15462
7158.47566,0.03584
7160.40413,-0.09197
7162.33260,-0.09519
7164.26107,0.04237
7166.18954,0.14843
7168.11801,0.06196
7170.04647,-0.10127
7171.97494,-0.11981
7173.90341,-0.08247
7175.83188,-0.14481
7177.76035,-0.19337
7179.68882,-0.10576
7181.61729,0.03276
7183.54576,0.13579
7185.47422,0.14283
7187.40269,0.03008
7189.33116,-0.13367
7191.25963,-0.14505
7193.18810,0.02632
7195.11657,0.13008
7197.04504,0.14257
7198.97350,0.11727
7200.90197,0.01686
7202.83044,-0.10133
7204.75891,-0.14654
7206.68738,-0.08584
7208.61585,0.02136
7210.54432,0.07683
7212.47279,0.08109
7214.40125,0.06407
7216.32972,-0.02252
7218.25819,-0.08974
7220.18666,0.03393
7222.11513,0.18572
7224.04360,0.19270
7225.97207,0.10573
7227.90053,0.07343
7229.82900,0.10726
7231.75747,0.12884
7233.68594,0.06475
7235.61441,-0.06032
7237.54288,-0.15569
7239.47135,-0.13059
7241.39982,-0.04281
7243.32828,0.00313
7245.25675,0.01690
7247.18522,0.07357
7249.11369,0.18003
7251.04216,0.24344
7252.97063,0.14364
7254.89910,-0.05817
7256.82756,-0.13367
7258.75603,-0.02535
7260.68450,0.13824
7262.61297,0.18354
7264.54144,0.15845
7266.46991,0.10112
7268.39838,0.04948
7270.32685,0.01112
7272.25531,0.01592
7274.18378,0.11997
7276.11225,0.15015
7278.04072,0.09991
7279.96919,0.05482
7281.89766,-0.08064
7283.82613,-0.16272
7285.75459,-0.02391
7287.68306,0.15224
7289.61153,0.18143
7291.54000,0.10574
7293.46847,-0.01967
7295.39694,-0.16801
7297.32541,-0.19115
7299.25387,-0.09649
7301.18234,-0.02109
7303.11081,-0.05866
7305.03928,-0.14051
7306.96775,-0.09686
7308.89622,0.00347
7310.82469,0.03483
7312.75316,0.05909
7314.68162,0.10363
7316.61009,0.07976
7318.53856,-0.04309
7320.46703,-0.08689
7322.39550,-0.03529
7324.32397,0.07357
7326.25244,0.24437
7328.18090,0.36340
7330.10937,0.33275
7332.03784,0.32351
7333.96631,0.32362
7335.89478,0.25810
7337.82325,0.22504
7339.75172,0.32426
7341.68019,0.47809
7343.60865,0.55623
7345.53712,0.55397
7347.46559,0.36276
7349.39406,0.10762
7351.32253,0.08243
7353.25100,0.19657
7355.17947,0.22596
7357.10793,0.10316
7359.03640,-0.10049
7360.96487,-0.10581
7362.89334,0.05914
7364.82181,0.08680
7366.75028,-0.02454
7368.67875,-0.10587
7370.60722,-0.03678
7372.53568,0.19286
7374.46415,0.36291
7376.39262,0.17292
7378.32109,-0.03060
7380.24956,0.02453
7382.17803,0.24661
7384.10650,0.30197
7386.03496,0.11810
7387.96343,0.00888
7389.89190,0.04050
7391.82037,0.18470
7393.74884,0.37175
7395.67731,0.28078
7397.60578,0.01274
7399.53425,-0.11527
7401.46271,-0.13538
7403.39118,-0.09337
7405.31965,0.01409
7407.24812,0.12049
7409.17659,0.25709
7411.10506,0.37461
7413.03353,0.33332
7414.96199,0.21039
7416.89046,0.12491
7418.81893,0.15114
7420.74740,0.16244
7422.67587,-0.03156
7424.60434,-0.14725
7426.53281,-0.07034
7428.46128,-0.02381
7430.38974,-0.04397
7432.31821,-0.00825
7434.24668,-0.01074
7436.17515,-0.01295
7438.10362,0.13509
7440.03209,0.31585
7441.96056,0.34931
7443.88902,0.25306
7445.81749,0.19728
7447.74596,0.25225
7449.67443,0.22459
7451.60290,0.08395
7453.53137,0.14931
7455.45984,0.25424
7457.38831,0.17901
7459.31677,0.07030
7461.24524,0.07008
7463.17371,0.07298
7465.10218,0.13604
7467.03065,0.31039
7468.95912,0.39753
7470.88759,0.32438
7472.81605,0.18297
7474.74452,0.10895
7476.67299,0.12449
7478.60146,0.12002
7480.52993,0.10651
7482.45840,0.20141
7484.38687,0.29608
7486.31533,0.26473
7488.24380,0.12827
7490.17227,-0.05073
7492.10074,-0.18694
7494.02921,-0.17353
7495.95768,-0.03599
7497.88615,0.09295
