399.19301,0.70057
401.12148,-0.07547
403.04995,-0.01267
404.97842,0.28909
406.90689,0.44154
408.83536,0.29613
410.76382,0.02277
412.69229,-0.05598
414.62076,-0.06655
416.54923,-0.13317
418.47770,-0.08822
420.40617,0.04114
422.33464,0.04550
424.26311,-0.02043
426.19157,-0.07062
428.12004,-0.00442
430.04851,0.15295
431.97698,0.19834
433.90545,0.07589
435.83392,-0.03911
437.76239,-0.02935
439.69085,0.09095
441.61932,0.18076
443.54779,0.12191
445.47626,0.01760
447.40473,-0.04088
449.33320,-0.07009
451.26167,-0.08736
453.19013,-0.09545
455.11860,-0.09558
457.04707,-0.07435
458.97554,-0.02624
460.90401,0.00360
462.83248,0.01429
464.76095,0.02292
466.68942,0.02570
468.61788,0.02686
470.54635,0.01213
472.47482,0.00675
474.40329,0.09036
476.33176,0.12281
478.26023,0.07244
480.18870,0.03790
482.11716,0.03063
484.04563,0.03297
485.97410,0.03867
487.90257,0.03398
489.83104,0.02669
491.75951,0.03413
493.68798,0.05020
495.61645,0.06445
497.54491,0.08412
499.47338,0.09016
501.40185,0.04606
503.33032,-0.01993
505.25879,-0.04132
507.18726,-0.00711
509.11573,0.03619
511.04419,0.05753
512.97266,0.05356
514.90113,0.02410
516.82960,0.01074
518.75807,0.02450
520.68654,0.02353
522.61501,0.02819
524.54348,0.05716
526.47194,0.06976
528.40041,0.06392
530.32888,0.05326
532.25735,0.03492
534.18582,0.03607
536.11429,0.03437
538.04276,-0.00872
539.97122,-0.03901
541.89969,-0.02452
543.82816,0.00308
545.75663,0.03716
547.68510,0.07563
549.61357,0.08384
551.54204,0.07930
553.47051,0.08971
555.39897,0.07889
557.32744,0.04432
559.25591,0.02749
561.18438,0.04004
563.11285,0.06065
565.04132,0.06739
566.96979,0.06491
568.89825,0.06631
570.82672,0.07312
572.75519,0.07433
574.68366,0.05497
576.61213,0.01349
578.54060,-0.02294
580.46907,-0.02871
582.39754,-0.01524
584.32600,0.00641
586.25447,0.03839
588.18294,0.06485
590.11141,0.06076
592.03988,0.02460
593.96835,0.00278
595.89682,0.01472
597.82528,0.02862
599.75375,0.02753
601.68222,0.01907
603.61069,0.01881
605.53916,0.03137
607.46763,0.04190
609.39610,0.04507
611.32456,0.05231
613.25303,0.05884
615.18150,0.05305
617.10997,0.04693
619.03844,0.05039
620.96691,0.04508
622.89538,0.02363
624.82385,0.01163
626.75231,0.02261
628.68078,0.03887
630.60925,0.04176
632.53772,0.03567
634.46619,0.02855
636.39466,0.01810
638.32313,0.01694
640.25159,0.03443
642.18006,0.04560
644.10853,0.03337
646.03700,0.01396
647.96547,0.01047
649.89394,0.02212
651.82241,0.02349
653.75088,0.01843
655.67934,0.02667
657.60781,0.04141
659.53628,0.05286
661.46475,0.06079
663.39322,0.06481
665.32169,0.05841
667.25016,0.02876
669.17862,-0.00287
671.10709,0.01266
673.03556,0.04276
674.96403,0.05712
676.89250,0.05120
678.82097,0.03992
680.74944,0.03458
682.67791,0.03811
684.60637,0.04241
686.53484,0.04419
688.46331,0.04599
690.39178,0.04220
692.32025,0.03735
694.24872,0.03848
696.17719,0.04778
698.10565,0.06446
700.03412,0.06694
701.96259,0.05192
703.89106,0.04512
705.81953,0.04589
707.74800,0.04816
709.67647,0.06410
711.60494,0.08053
713.53340,0.07748
715.46187,0.06210
717.39034,0.05055
719.31881,0.05093
721.24728,0.05491
723.17575,0.05559
725.10422,0.05357
727.03268,0.04181
728.96115,0.02988
730.88962,0.03182
732.81809,0.04048
734.74656,0.04441
736.67503,0.03434
738.60350,0.01832
740.53197,0.01774
742.46043,0.03011
744.38890,0.03512
746.31737,0.02323
748.24584,0.01146
750.17431,0.02140
752.10278,0.03895
754.03125,0.04038
755.95971,0.03585
757.88818,0.04169
759.81665,0.04696
761.74512,0.04229
763.67359,0.03659
765.60206,0.03312
767.53053,0.03021
769.45900,0.03012
771.38746,0.03411
773.31593,0.04170
775.24440,0.04654
777.17287,0.04082
779.10134,0.03107
781.02981,0.03204
782.95828,0.03812
784.88674,0.03120
786.81521,0.01822
788.74368,0.01601
790.67215,0.02396
792.60062,0.03686
794.52909,0.04308
796.45756,0.03762
798.38602,0.03473
800.31449,0.03480
802.24296,0.03451
804.17143,0.04319
806.09990,0.05348
808.02837,0.05219
809.95684,0.04992
811.88531,0.05472
813.81377,0.05552
815.74224,0.05177
817.67071,0.04862
819.59918,0.04658
821.52765,0.05031
823.45612,0.05276
825.38459,0.04495
827.31305,0.03714
829.24152,0.04133
831.16999,0.05000
833.09846,0.05182
835.02693,0.05384
836.95540,0.06028
838.88387,0.06031
840.81234,0.05429
842.74080,0.05199
844.66927,0.05285
846.59774,0.04893
848.52621,0.04274
850.45468,0.04477
852.38315,0.04900
854.31162,0.04303
856.24008,0.03487
858.16855,0.03343
860.09702,0.03477
862.02549,0.03654
863.95396,0.03880
865.88243,0.03997
867.81090,0.04110
869.73937,0.04688
871.66783,0.05270
873.59630,0.04966
875.52477,0.04628
877.45324,0.04770
879.38171,0.04069
881.31018,0.03115
883.23865,0.03772
885.16711,0.04892
887.09558,0.04480
889.02405,0.03135
890.95252,0.02626
892.88099,0.03525
894.80946,0.04777
896.73793,0.05453
898.66640,0.05831
900.59486,0.06221
902.52333,0.06369
904.45180,0.06115
906.38027,0.05750
908.30874,0.05455
910.23721,0.05071
912.16568,0.04721
914.09414,0.04620
916.02261,0.04825
917.95108,0.05217
919.87955,0.05360
921.80802,0.05436
923.73649,0.05763
925.66496,0.05845
927.59343,0.05498
929.52189,0.05029
931.45036,0.04662
933.37883,0.04673
935.30730,0.04792
937.23577,0.04548
939.16424,0.04299
941.09271,0.03898
943.02117,0.02966
944.94964,0.02829
946.87811,0.04298
948.80658,0.05947
950.73505,0.06809
952.66352,0.06886
954.59199,0.05909
956.52045,0.04635
958.44892,0.04179
960.37739,0.04259
962.30586,0.04332
964.23433,0.04257
966.16280,0.04142
968.09127,0.04469
970.01974,0.05018
971.94820,0.04934
973.87667,0.04472
975.80514,0.04267
977.73361,0.04169
979.66208,0.04277
981.59055,0.04664
983.51902,0.04876
985.44748,0.04914
987.37595,0.05289
989.30442,0.05908
991.23289,0.05849
993.16136,0.05169
995.08983,0.04804
997.01830,0.04999
998.94677,0.05701
1000.87523,0.06146
1002.80370,0.05734
1004.73217,0.05210
1006.66064,0.05038
1008.58911,0.05383
1010.51758,0.06048
1012.44605,0.06278
1014.37451,0.06089
1016.30298,0.05824
1018.23145,0.05160
1020.15992,0.03933
1022.08839,0.02958
1024.01686,0.02786
1025.94533,0.03044
1027.87380,0.03108
1029.80226,0.02768
1031.73073,0.02889
1033.65920,0.03606
1035.58767,0.03816
1037.51614,0.03593
1039.44461,0.03680
1041.37308,0.03955
1043.30154,0.04105
1045.23001,0.04159
1047.15848,0.04457
1049.08695,0.05134
1051.01542,0.05814
1052.94389,0.05725
1054.87236,0.04824
1056.80083,0.04720
1058.72929,0.05826
1060.65776,0.06085
1062.58623,0.05011
1064.51470,0.04974
1066.44317,0.06455
1068.37164,0.07317
1070.30011,0.06792
1072.22857,0.05609
1074.15704,0.04818
1076.08551,0.04746
1078.01398,0.05551
1079.94245,0.06910
1081.87092,0.06719
1083.79939,0.05076
1085.72786,0.04124
1087.65632,0.04073
1089.58479,0.04717
1091.51326,0.05771
1093.44173,0.06249
1095.37020,0.05865
1097.29867,0.05125
1099.22714,0.04986
1101.15560,0.05280
1103.08407,0.05253
1105.01254,0.05485
1106.94101,0.05914
1108.86948,0.06176
1110.79795,0.06506
1112.72642,0.06354
1114.65489,0.05905
1116.58335,0.06007
1118.51182,0.06085
1120.44029,0.05613
1122.36876,0.05458
1124.29723,0.05762
1126.22570,0.05718
1128.15417,0.05451
1130.08263,0.05278
1132.01110,0.05041
1133.93957,0.04843
1135.86804,0.04741
1137.79651,0.04719
1139.72498,0.05030
1141.65345,0.05519
1143.58191,0.05520
1145.51038,0.05194
1147.43885,0.05208
1149.36732,0.05174
1151.29579,0.04850
1153.22426,0.04831
1155.15273,0.05162
1157.08120,0.05280
1159.00966,0.05044
1160.93813,0.05046
1162.86660,0.05411
1164.79507,0.05530
1166.72354,0.05077
1168.65201,0.04517
1170.58048,0.04638
1172.50894,0.05124
1174.43741,0.05282
1176.36588,0.05396
1178.29435,0.05653
1180.22282,0.05750
1182.15129,0.05674
1184.07976,0.05538
1186.00823,0.05441
1187.93669,0.05391
1189.86516,0.05299
1191.79363,0.05427
1193.72210,0.05951
1195.65057,0.06569
1197.57904,0.06721
1199.50751,0.06196
1201.43597,0.05757
1203.36444,0.05896
1205.29291,0.05954
1207.22138,0.05563
1209.14985,0.05287
1211.07832,0.05427
1213.00679,0.05698
1214.93526,0.05914
1216.86372,0.06286
1218.79219,0.06823
1220.72066,0.06960
1222.64913,0.06453
1224.57760,0.05744
1226.50607,0.05226
1228.43454,0.04987
1230.36300,0.05109
1232.29147,0.05500
1234.21994,0.05923
1236.14841,0.06286
1238.07688,0.06488
1240.00535,0.06589
1241.93382,0.06613
1243.86229,0.06438
1245.79075,0.06174
1247.71922,0.06055
1249.64769,0.06151
1251.57616,0.06156
1253.50463,0.05965
1255.43310,0.05740
1257.36157,0.05503
1259.29003,0.05420
1261.21850,0.05446
1263.14697,0.05319
1265.07544,0.05068
1267.00391,0.04910
1268.93238,0.05043
1270.86085,0.05321
1272.78932,0.05468
1274.71778,0.05593
1276.64625,0.05829
1278.57472,0.05996
1280.50319,0.05945
1282.43166,0.05752
1284.36013,0.05663
1286.28860,0.05819
1288.21706,0.05857
1290.14553,0.05493
1292.07400,0.05082
1294.00247,0.05126
1295.93094,0.05728
1297.85941,0.06200
1299.78788,0.06087
1301.71634,0.05829
1303.64481,0.05566
1305.57328,0.05543
1307.50175,0.06034
1309.43022,0.06385
1311.35869,0.06304
1313.28716,0.06108
1315.21563,0.06038
1317.14409,0.06267
1319.07256,0.06508
1321.00103,0.06478
1322.92950,0.06448
1324.85797,0.06386
1326.78644,0.05950
1328.71491,0.05373
1330.64337,0.05086
1332.57184,0.05013
1334.50031,0.04969
1336.42878,0.04965
1338.35725,0.05008
1340.28572,0.05044
1342.21419,0.05055
1344.14266,0.05077
1346.07112,0.05285
1347.99959,0.05778
1349.92806,0.06094
1351.85653,0.06019
1353.78500,0.06050
1355.71347,0.06201
1357.64194,0.05999
1359.57040,0.05661
1361.49887,0.05757
1363.42734,0.06088
1365.35581,0.06229
1367.28428,0.06334
1369.21275,0.06317
1371.14122,0.06093
1373.06969,0.06014
1374.99815,0.06299
1376.92662,0.06607
1378.85509,0.06588
1380.78356,0.06101
1382.71203,0.05409
1384.64050,0.05199
1386.56897,0.05622
1388.49743,0.06048
1390.42590,0.06091
1392.35437,0.05802
1394.28284,0.05444
1396.21131,0.05854
1398.13978,0.06644
1400.06825,0.06552
1401.99672,0.06042
1403.92518,0.05858
1405.85365,0.05755
1407.78212,0.05479
1409.71059,0.05216
1411.63906,0.05213
1413.56753,0.05419
1415.49600,0.05670
1417.42446,0.06054
1419.35293,0.06414
1421.28140,0.06444
1423.20987,0.06486
1425.13834,0.06488
1427.06681,0.06273
1428.99528,0.06202
1430.92375,0.06341
1432.85221,0.06416
1434.78068,0.06541
1436.70915,0.06537
1438.63762,0.06319
1440.56609,0.06401
1442.49456,0.06603
1444.42303,0.06583
1446.35149,0.06482
1448.27996,0.06583
1450.20843,0.06904
1452.13690,0.07195
1454.06537,0.07284
1455.99384,0.07308
1457.92231,0.07037
1459.85077,0.06320
1461.77924,0.06170
1463.70771,0.06815
1465.63618,0.07286
1467.56465,0.06811
1469.49312,0.06323
1471.42159,0.06505
1473.35006,0.07088
1475.27852,0.07170
1477.20699,0.06919
1479.13546,0.06710
1481.06393,0.06743
1482.99240,0.06968
1484.92087,0.07252
1486.84934,0.07560
1488.77780,0.07437
1490.70627,0.06829
1492.63474,0.06595
1494.56321,0.06635
1496.49168,0.06660
1498.42015,0.06607
1500.34862,0.06393
1502.27709,0.06300
1504.20555,0.06705
1506.13402,0.07720
1508.06249,0.08110
1509.99096,0.07414
1511.91943,0.06713
1513.84790,0.06242
1515.77637,0.06057
1517.70483,0.06118
1519.63330,0.06299
1521.56177,0.06913
1523.49024,0.07678
1525.41871,0.07619
1527.34718,0.06939
1529.27565,0.06381
1531.20412,0.06171
1533.13258,0.06196
1535.06105,0.06381
1536.98952,0.06641
1538.91799,0.06986
1540.84646,0.07023
1542.77493,0.06788
1544.70340,0.06721
1546.63186,0.06620
1548.56033,0.06486
1550.48880,0.06334
1552.41727,0.06295
1554.34574,0.06525
1556.27421,0.06985
1558.20268,0.07296
1560.13115,0.06984
1562.05961,0.06982
1563.98808,0.06972
1565.91655,0.06665
1567.84502,0.06523
1569.77349,0.06694
1571.70196,0.06621
1573.63043,0.06435
1575.55889,0.06390
1577.48736,0.06313
1579.41583,0.06165
1581.34430,0.06183
1583.27277,0.06350
1585.20124,0.06185
1587.12971,0.05662
1589.05818,0.05452
1590.98664,0.05828
1592.91511,0.06273
1594.84358,0.06296
1596.77205,0.06224
1598.70052,0.06317
1600.62899,0.06391
1602.55746,0.06439
1604.48592,0.06465
1606.41439,0.06464
1608.34286,0.06497
1610.27133,0.06432
1612.19980,0.06275
1614.12827,0.06359
1616.05674,0.06609
1617.98521,0.06625
1619.91367,0.06870
1621.84214,0.07440
1623.77061,0.07414
1625.69908,0.06662
1627.62755,0.06265
1629.55602,0.06325
1631.48449,0.06500
1633.41295,0.06809
1635.34142,0.07216
1637.26989,0.07136
1639.19836,0.06859
1641.12683,0.06679
1643.05530,0.06442
1644.98377,0.06504
1646.91223,0.07116
1648.84070,0.07195
1650.76917,0.06984
1652.69764,0.07215
1654.62611,0.07241
1656.55458,0.06966
1658.48305,0.06920
1660.41152,0.07129
1662.33998,0.07422
1664.26845,0.07361
1666.19692,0.07189
1668.12539,0.07292
1670.05386,0.07380
1671.98233,0.07069
1673.91080,0.06867
1675.83926,0.07063
1677.76773,0.07211
1679.69620,0.07171
1681.62467,0.07207
1683.55314,0.07425
1685.48161,0.07373
1687.41008,0.07006
1689.33855,0.06590
1691.26701,0.06102
1693.19548,0.05832
1695.12395,0.06138
1697.05242,0.06891
1698.98089,0.07260
1700.90936,0.06830
1702.83783,0.06527
1704.76629,0.06832
1706.69476,0.06985
1708.62323,0.06703
1710.55170,0.06573
1712.48017,0.06689
1714.40864,0.06917
1716.33711,0.07303
1718.26558,0.07301
1720.19404,0.06661
1722.12251,0.06211
1724.05098,0.06124
1725.97945,0.06181
1727.90792,0.06305
1729.83639,0.06616
1731.76486,0.07233
1733.69332,0.07585
1735.62179,0.06939
1737.55026,0.06388
1739.47873,0.06431
1741.40720,0.07043
1743.33567,0.07707
1745.26414,0.07832
1747.19261,0.07461
1749.12107,0.07135
1751.04954,0.07046
1752.97801,0.06903
1754.90648,0.06841
1756.83495,0.06946
1758.76342,0.06995
1760.69189,0.07007
1762.62035,0.06972
1764.54882,0.06747
1766.47729,0.06553
1768.40576,0.06641
1770.33423,0.06939
1772.26270,0.07110
1774.19117,0.06985
1776.11964,0.06715
1778.04810,0.06385
1779.97657,0.06287
1781.90504,0.06626
1783.83351,0.06937
1785.76198,0.06841
1787.69045,0.06528
1789.61892,0.06373
1791.54738,0.06498
1793.47585,0.06611
1795.40432,0.06501
1797.33279,0.06369
1799.26126,0.06452
1801.18973,0.06593
1803.11820,0.06574
1805.04666,0.06570
1806.97513,0.06620
1808.90360,0.06808
1810.83207,0.06992
1812.76054,0.06695
1814.68901,0.06149
1816.61748,0.05993
1818.54595,0.06391
1820.47441,0.06867
1822.40288,0.07056
1824.33135,0.07054
1826.25982,0.06982
1828.18829,0.06858
1830.11676,0.06753
1832.04523,0.06685
1833.97369,0.06565
1835.90216,0.06538
1837.83063,0.06796
1839.75910,0.07113
1841.68757,0.07142
1843.61604,0.06960
1845.54451,0.06853
1847.47298,0.06769
1849.40144,0.06713
1851.32991,0.06735
1853.25838,0.06614
1855.18685,0.06364
1857.11532,0.06378
1859.04379,0.06565
1860.97226,0.06420
1862.90072,0.06089
1864.82919,0.06108
1866.75766,0.06385
1868.68613,0.06436
1870.61460,0.06264
1872.54307,0.06190
1874.47154,0.06320
1876.40001,0.06498
1878.32847,0.06483
1880.25694,0.06510
1882.18541,0.06705
1884.11388,0.06732
1886.04235,0.06591
1887.97082,0.06414
1889.89929,0.06149
1891.82775,0.06005
1893.75622,0.06045
1895.68469,0.06082
1897.61316,0.06029
1899.54163,0.06016
1901.47010,0.06140
1903.39857,0.06153
1905.32704,0.06116
1907.25550,0.06222
1909.18397,0.06192
1911.11244,0.06042
1913.04091,0.06073
1914.96938,0.06377
1916.89785,0.06776
1918.82632,0.06809
1920.75478,0.06556
1922.68325,0.06443
1924.61172,0.06399
1926.54019,0.06334
1928.46866,0.06267
1930.39713,0.06127
1932.32560,0.06049
1934.25407,0.06100
1936.18253,0.06119
1938.11100,0.06196
1940.03947,0.06516
1941.96794,0.06734
1943.89641,0.06489
1945.82488,0.06313
1947.75335,0.06413
1949.68181,0.06427
1951.61028,0.06415
1953.53875,0.06585
1955.46722,0.06793
1957.39569,0.06776
1959.32416,0.06584
1961.25263,0.06534
1963.18110,0.06672
1965.10956,0.06754
1967.03803,0.06572
1968.96650,0.06203
1970.89497,0.06028
1972.82344,0.06074
1974.75191,0.06126
1976.68038,0.06213
1978.60884,0.06329
1980.53731,0.06332
1982.46578,0.06139
1984.39425,0.06021
1986.32272,0.06098
1988.25119,0.06221
1990.17966,0.06577
1992.10812,0.06962
1994.03659,0.06902
1995.96506,0.06578
1997.89353,0.06376
1999.82200,0.06454
2001.75047,0.06706
2003.67894,0.06790
2005.60741,0.06506
2007.53587,0.06298
2009.46434,0.06414
2011.39281,0.06580
2013.32128,0.06752
2015.24975,0.06872
2017.17822,0.06807
2019.10669,0.06700
2021.03515,0.06633
2022.96362,0.06445
2024.89209,0.06153
2026.82056,0.06001
2028.74903,0.06154
2030.67750,0.06414
2032.60597,0.06491
2034.53444,0.06430
2036.46290,0.06315
2038.39137,0.06313
2040.31984,0.06560
2042.24831,0.06711
2044.17678,0.06498
2046.10525,0.06280
2048.03372,0.06484
2049.96218,0.06853
2051.89065,0.06883
2053.81912,0.06673
2055.74759,0.06584
2057.67606,0.06619
2059.60453,0.06623
2061.53300,0.06531
2063.46147,0.06391
2065.38993,0.06349
2067.31840,0.06464
2069.24687,0.06641
2071.17534,0.06686
2073.10381,0.06607
2075.03228,0.06689
2076.96075,0.06869
2078.88921,0.06923
2080.81768,0.06942
2082.74615,0.06997
2084.67462,0.07013
2086.60309,0.06909
2088.53156,0.06769
2090.46003,0.06863
2092.38850,0.07086
2094.31696,0.07162
2096.24543,0.07227
2098.17390,0.07210
2100.10237,0.06834
2102.03084,0.06412
2103.95931,0.06361
2105.88778,0.06402
2107.81624,0.06222
2109.74471,0.06053
2111.67318,0.06029
2113.60165,0.06034
2115.53012,0.06053
2117.45859,0.06124
2119.38706,0.06272
2121.31553,0.06352
2123.24399,0.06330
2125.17246,0.06404
2127.10093,0.06460
2129.02940,0.06458
2130.95787,0.06639
2132.88634,0.06805
2134.81481,0.06717
2136.74327,0.06603
2138.67174,0.06522
2140.60021,0.06372
2142.52868,0.06353
2144.45715,0.06482
2146.38562,0.06610
2148.31409,0.06862
2150.24255,0.07105
2152.17102,0.07032
2154.09949,0.06852
2156.02796,0.06796
2157.95643,0.06761
2159.88490,0.06754
2161.81337,0.06768
2163.74184,0.06659
2165.67030,0.06576
2167.59877,0.06795
2169.52724,0.07074
2171.45571,0.07010
2173.38418,0.06821
2175.31265,0.06752
2177.24112,0.06656
2179.16958,0.06633
2181.09805,0.06731
2183.02652,0.06700
2184.95499,0.06519
2186.88346,0.06357
2188.81193,0.06341
2190.74040,0.06411
2192.66887,0.06384
2194.59733,0.06194
2196.52580,0.06043
2198.45427,0.06119
2200.38274,0.06209
2202.31121,0.06106
2204.23968,0.05855
2206.16815,0.05633
2208.09661,0.05667
2210.02508,0.06060
2211.95355,0.06583
2213.88202,0.06771
2215.81049,0.06704
2217.73896,0.06697
2219.66743,0.06697
2221.59590,0.06709
2223.52436,0.06742
2225.45283,0.06755
2227.38130,0.06719
2229.30977,0.06690
2231.23824,0.06790
2233.16671,0.06806
2235.09518,0.06569
2237.02364,0.06370
2238.95211,0.06472
2240.88058,0.06721
2242.80905,0.06834
2244.73752,0.06687
2246.66599,0.06404
2248.59446,0.06266
2250.52293,0.06314
2252.45139,0.06392
2254.37986,0.06433
2256.30833,0.06477
2258.23680,0.06524
2260.16527,0.06548
2262.09374,0.06570
2264.02221,0.06493
2265.95067,0.06366
2267.87914,0.06422
2269.80761,0.06579
2271.73608,0.06713
2273.66455,0.06899
2275.59302,0.07099
2277.52149,0.07164
2279.44996,0.07052
2281.37842,0.06847
2283.30689,0.06643
2285.23536,0.06447
2287.16383,0.06283
2289.09230,0.06292
2291.02077,0.06443
2292.94924,0.06520
2294.87770,0.06363
2296.80617,0.06097
2298.73464,0.06065
2300.66311,0.06354
2302.59158,0.06822
2304.52005,0.07084
2306.44852,0.06833
2308.37699,0.06395
2310.30545,0.06225
2312.23392,0.06418
2314.16239,0.06624
2316.09086,0.06517
2318.01933,0.06369
2319.94780,0.06450
2321.87627,0.06624
2323.80473,0.06916
2325.73320,0.07139
2327.66167,0.06731
2329.59014,0.06203
2331.51861,0.05855
2333.44708,0.05165
2335.37555,0.04705
2337.30401,0.04903
2339.23248,0.05371
2341.16095,0.05472
2343.08942,0.05340
2345.01789,0.06191
2346.94636,0.06977
2348.87483,0.06695
2350.80330,0.06236
2352.73176,0.05662
2354.66023,0.04318
2356.58870,0.04080
2358.51717,0.05960
2360.44564,0.07585
2362.37411,0.07929
2364.30258,0.07407
2366.23104,0.06325
2368.15951,0.05596
2370.08798,0.06289
2372.01645,0.07172
2373.94492,0.06900
2375.87339,0.06392
2377.80186,0.06441
2379.73033,0.06588
2381.65879,0.06537
2383.58726,0.06424
2385.51573,0.06363
2387.44420,0.06372
2389.37267,0.06500
2391.30114,0.06664
2393.22961,0.06555
2395.15807,0.06270
2397.08654,0.06130
2399.01501,0.06117
2400.94348,0.06245
2402.87195,0.06501
2404.80042,0.06676
2406.72889,0.06828
2408.65736,0.07042
2410.58582,0.07081
2412.51429,0.06969
2414.44276,0.06883
2416.37123,0.06765
2418.29970,0.06570
2420.22817,0.06316
2422.15664,0.06133
2424.08510,0.06128
2426.01357,0.06214
2427.94204,0.06418
2429.87051,0.06738
2431.79898,0.06919
2433.72745,0.06925
2435.65592,0.07007
2437.58439,0.07199
2439.51285,0.07195
2441.44132,0.06903
2443.36979,0.06692
2445.29826,0.06671
2447.22673,0.06592
2449.15520,0.06451
2451.08367,0.06350
2453.01213,0.06244
2454.94060,0.06259
2456.86907,0.06423
2458.79754,0.06369
2460.72601,0.06080
2462.65448,0.06014
2464.58295,0.06316
2466.51142,0.06749
2468.43988,0.07041
2470.36835,0.06986
2472.29682,0.06715
2474.22529,0.06512
2476.15376,0.06370
2478.08223,0.06282
2480.01070,0.06436
2481.93916,0.06764
2483.86763,0.06953
2485.79610,0.06983
2487.72457,0.07001
2489.65304,0.07012
2491.58151,0.06955
2493.50998,0.06772
2495.43844,0.06593
2497.36691,0.06626
2499.29538,0.06786
2501.22385,0.06709
2503.15232,0.06386
2505.08079,0.06230
2507.00926,0.06320
2508.93773,0.06456
2510.86619,0.06623
2512.79466,0.06819
2514.72313,0.06883
2516.65160,0.06775
2518.58007,0.06742
2520.50854,0.06942
2522.43701,0.07086
2524.36547,0.06885
2526.29394,0.06618
2528.22241,0.06645
2530.15088,0.06877
2532.07935,0.07116
2534.00782,0.07162
2535.93629,0.06948
2537.86476,0.06854
2539.79322,0.07012
2541.72169,0.07152
2543.65016,0.07220
2545.57863,0.07217
2547.50710,0.07058
2549.43557,0.06743
2551.36404,0.06468
2553.29250,0.06438
2555.22097,0.06589
2557.14944,0.06704
2559.07791,0.06637
2561.00638,0.06434
2562.93485,0.06448
2564.86332,0.06901
2566.79179,0.07244
2568.72025,0.07010
2570.64872,0.06645
2572.57719,0.06575
2574.50566,0.06523
2576.43413,0.06325
2578.36260,0.06403
2580.29107,0.06789
2582.21953,0.06868
2584.14800,0.06635
2586.07647,0.06695
2588.00494,0.06917
2589.93341,0.06841
2591.86188,0.06660
2593.79035,0.06681
2595.71882,0.06862
2597.64728,0.06952
2599.57575,0.06880
2601.50422,0.06787
2603.43269,0.06651
2605.36116,0.06494
2607.28963,0.06522
2609.21810,0.06706
2611.14656,0.06819
2613.07503,0.06790
2615.00350,0.06767
2616.93197,0.06933
2618.86044,0.07173
2620.78891,0.07226
2622.71738,0.07021
2624.64585,0.06915
2626.57431,0.07162
2628.50278,0.07314
2630.43125,0.07137
2632.35972,0.06862
2634.28819,0.06663
2636.21666,0.06691
2638.14513,0.06850
2640.07359,0.06971
2642.00206,0.07113
2643.93053,0.07211
2645.85900,0.07135
2647.78747,0.07032
2649.71594,0.06991
2651.64441,0.06986
2653.57288,0.07115
2655.50134,0.07289
2657.42981,0.07338
2659.35828,0.07183
2661.28675,0.06767
2663.21522,0.06484
2665.14369,0.06694
2667.07216,0.06873
2669.00062,0.06762
2670.92909,0.06906
2672.85756,0.07243
2674.78603,0.07160
2676.71450,0.06720
2678.64297,0.06454
2680.57144,0.06547
2682.49990,0.06754
2684.42837,0.06883
2686.35684,0.07079
2688.28531,0.07426
2690.21378,0.07627
2692.14225,0.07493
2694.07072,0.07306
2695.99919,0.07216
2697.92765,0.07086
2699.85612,0.07069
2701.78459,0.07208
2703.71306,0.07182
2705.64153,0.06974
2707.57000,0.06825
2709.49847,0.06785
2711.42693,0.06765
2713.35540,0.06726
2715.28387,0.06821
2717.21234,0.07112
2719.14081,0.07282
2721.06928,0.07148
2722.99775,0.06975
2724.92622,0.06943
2726.85468,0.06919
2728.78315,0.06897
2730.71162,0.06902
2732.64009,0.06831
2734.56856,0.06774
2736.49703,0.06779
2738.42550,0.06840
2740.35396,0.06996
2742.28243,0.07014
2744.21090,0.06864
2746.13937,0.06813
2748.06784,0.06808
2749.99631,0.06846
2751.92478,0.07105
2753.85325,0.07414
2755.78171,0.07604
2757.71018,0.07774
2759.63865,0.07788
2761.56712,0.07452
2763.49559,0.07076
2765.42406,0.07031
2767.35253,0.07194
2769.28099,0.07284
2771.20946,0.07345
2773.13793,0.07539
2775.06640,0.07702
2776.99487,0.07629
2778.92334,0.07480
2780.85181,0.07518
2782.78028,0.07640
2784.70874,0.07567
2786.63721,0.07515
2788.56568,0.07795
2790.49415,0.08109
2792.42262,0.08041
2794.35109,0.07616
2796.27956,0.07187
2798.20802,0.07178
2800.13649,0.07421
2802.06496,0.07239
2803.99343,0.06693
2805.92190,0.06468
2807.85037,0.06839
2809.77884,0.07458
2811.70731,0.07735
2813.63577,0.07485
2815.56424,0.07073
2817.49271,0.06903
2819.42118,0.07100
2821.34965,0.07415
2823.27812,0.07541
2825.20659,0.07517
2827.13505,0.07393
2829.06352,0.07221
2830.99199,0.07218
2832.92046,0.07370
2834.84893,0.07419
2836.77740,0.07177
2838.70587,0.06825
2840.63433,0.06726
2842.56280,0.06932
2844.49127,0.07210
2846.41974,0.07278
2848.34821,0.07104
2850.27668,0.07014
2852.20515,0.07153
2854.13362,0.07382
2856.06208,0.07529
2857.99055,0.07431
2859.91902,0.07267
2861.84749,0.07191
2863.77596,0.07150
2865.70443,0.07363
2867.63290,0.07740
2869.56136,0.07814
2871.48983,0.07601
2873.41830,0.07435
2875.34677,0.07386
2877.27524,0.07419
2879.20371,0.07392
2881.13218,0.07241
2883.06065,0.07276
2884.98911,0.07465
2886.91758,0.07421
2888.84605,0.07264
2890.77452,0.07393
2892.70299,0.07475
2894.63146,0.07170
2896.55993,0.07162
2898.48839,0.07539
2900.41686,0.07642
2902.34533,0.07391
2904.27380,0.07092
2906.20227,0.07154
2908.13074,0.07472
2910.05921,0.07499
2911.98768,0.07347
2913.91614,0.07423
2915.84461,0.07537
2917.77308,0.07428
2919.70155,0.07284
2921.63002,0.07286
2923.55849,0.07440
2925.48696,0.07598
2927.41542,0.07483
2929.34389,0.07183
2931.27236,0.07294
2933.20083,0.07763
2935.12930,0.07838
2937.05777,0.07720
2938.98624,0.07852
2940.91471,0.07847
2942.84317,0.07675
2944.77164,0.07695
2946.70011,0.07846
2948.62858,0.07903
2950.55705,0.07961
2952.48552,0.08180
2954.41399,0.08052
2956.34245,0.07297
2958.27092,0.06622
2960.19939,0.06447
2962.12786,0.06585
2964.05633,0.06893
2965.98480,0.07091
2967.91327,0.06996
2969.84174,0.07113
2971.77020,0.07467
2973.69867,0.07351
2975.62714,0.06959
2977.55561,0.06711
2979.48408,0.06494
2981.41255,0.06614
2983.34102,0.07229
2985.26948,0.07729
2987.19795,0.07718
2989.12642,0.07517
2991.05489,0.07571
2992.98336,0.07931
2994.91183,0.08389
2996.84030,0.08592
2998.76877,0.08131
3000.69723,0.07354
3002.62570,0.07181
3004.55417,0.07588
3006.48264,0.07709
3008.41111,0.07274
3010.33958,0.06970
3012.26805,0.07180
3014.19651,0.07034
3016.12498,0.06275
3018.05345,0.06223
3019.98192,0.07118
3021.91039,0.07723
3023.83886,0.07646
3025.76733,0.07526
3027.69579,0.07823
3029.62426,0.08211
3031.55273,0.08214
3033.48120,0.07949
3035.40967,0.07892
3037.33814,0.08100
3039.26661,0.08071
3041.19508,0.07794
3043.12354,0.07674
3045.05201,0.07530
3046.98048,0.07293
3048.90895,0.07290
3050.83742,0.07273
3052.76589,0.06987
3054.69436,0.06806
3056.62282,0.07005
3058.55129,0.07365
3060.47976,0.07479
3062.40823,0.07398
3064.33670,0.07500
3066.26517,0.07776
3068.19364,0.07981
3070.12211,0.08087
3072.05057,0.08222
3073.97904,0.08322
3075.90751,0.08333
3077.83598,0.08402
3079.76445,0.08487
3081.69292,0.08393
3083.62139,0.08005
3085.54985,0.07688
3087.47832,0.08026
3089.40679,0.08670
3091.33526,0.08869
3093.26373,0.08520
3095.19220,0.07922
3097.12067,0.07560
3099.04914,0.07671
3100.97760,0.07927
3102.90607,0.08108
3104.83454,0.08125
3106.76301,0.07761
3108.69148,0.07237
3110.61995,0.06945
3112.54842,0.06847
3114.47688,0.06952
3116.40535,0.07220
3118.33382,0.07166
3120.26229,0.06936
3122.19076,0.07118
3124.11923,0.07270
3126.04770,0.07092
3127.97617,0.07160
3129.90463,0.07501
3131.83310,0.07605
3133.76157,0.07263
3135.69004,0.06969
3137.61851,0.07397
3139.54698,0.08282
3141.47545,0.08645
3143.40391,0.08259
3145.33238,0.07910
3147.26085,0.07903
3149.18932,0.07905
3151.11779,0.07802
3153.04626,0.07502
3154.97473,0.07250
3156.90320,0.07490
3158.83166,0.07970
3160.76013,0.08355
3162.68860,0.08544
3164.61707,0.08456
3166.54554,0.08479
3168.47401,0.08745
3170.40248,0.08711
3172.33094,0.08409
3174.25941,0.08135
3176.18788,0.07923
3178.11635,0.07847
3180.04482,0.07567
3181.97329,0.06982
3183.90176,0.06695
3185.83022,0.07140
3187.75869,0.08168
3189.68716,0.08987
3191.61563,0.08960
3193.54410,0.08513
3195.47257,0.08436
3197.40104,0.08660
3199.32951,0.08650
3201.25797,0.08265
3203.18644,0.07889
3205.11491,0.07876
3207.04338,0.07786
3208.97185,0.07346
3210.90032,0.07107
3212.82879,0.07348
3214.75725,0.07814
3216.68572,0.08220
3218.61419,0.08360
3220.54266,0.08051
3222.47113,0.07597
3224.39960,0.07657
3226.32807,0.08000
3228.25654,0.07898
3230.18500,0.07386
3232.11347,0.07066
3234.04194,0.07126
3235.97041,0.07135
3237.89888,0.07187
3239.82735,0.07755
3241.75582,0.08534
3243.68428,0.08803
3245.61275,0.08279
3247.54122,0.07406
3249.46969,0.06929
3251.39816,0.07145
3253.32663,0.07629
3255.25510,0.07756
3257.18357,0.07453
3259.11203,0.07422
3261.04050,0.07904
3262.96897,0.08191
3264.89744,0.08147
3266.82591,0.07909
3268.75438,0.07569
3270.68285,0.07654
3272.61131,0.08005
3274.53978,0.08059
3276.46825,0.07987
3278.39672,0.08015
3280.32519,0.08001
3282.25366,0.07902
3284.18213,0.07828
3286.11060,0.08051
3288.03906,0.08522
3289.96753,0.08607
3291.89600,0.08264
3293.82447,0.08105
3295.75294,0.08183
3297.68141,0.08376
3299.60988,0.08807
3301.53834,0.09182
3303.46681,0.09314
3305.39528,0.09333
3307.32375,0.09049
3309.25222,0.08572
3311.18069,0.08235
3313.10916,0.07946
3315.03763,0.07682
3316.96609,0.07594
3318.89456,0.07616
3320.82303,0.07737
3322.75150,0.08032
3324.67997,0.08110
3326.60844,0.07722
3328.53691,0.07292
3330.46537,0.07080
3332.39384,0.07119
3334.32231,0.07453
3336.25078,0.07703
3338.17925,0.07642
3340.10772,0.07602
3342.03619,0.07704
3343.96466,0.07770
3345.89312,0.07976
3347.82159,0.08457
3349.75006,0.08641
3351.67853,0.08284
3353.60700,0.07963
3355.53547,0.07898
3357.46394,0.07647
3359.39240,0.07298
3361.32087,0.07402
3363.24934,0.07566
3365.17781,0.07411
3367.10628,0.07327
3369.03475,0.07508
3370.96322,0.07793
3372.89168,0.07887
3374.82015,0.07870
3376.74862,0.08063
3378.67709,0.08502
3380.60556,0.08762
3382.53403,0.08624
3384.46250,0.08523
3386.39097,0.08432
3388.31943,0.08122
3390.24790,0.07968
3392.17637,0.07887
3394.10484,0.07454
3396.03331,0.07251
3397.96178,0.07670
3399.89025,0.08110
3401.81871,0.08197
3403.74718,0.08174
3405.67565,0.08501
3407.60412,0.08962
3409.53259,0.08935
3411.46106,0.08267
3413.38953,0.07658
3415.31800,0.07975
3417.24646,0.08577
3419.17493,0.08430
3421.10340,0.07953
3423.03187,0.07550
3424.96034,0.07048
3426.88881,0.07079
3428.81728,0.07666
3430.74574,0.07951
3432.67421,0.08298
3434.60268,0.08857
3436.53115,0.08600
3438.45962,0.07669
3440.38809,0.07259
3442.31656,0.07591
3444.24503,0.07922
3446.17349,0.07681
3448.10196,0.07206
3450.03043,0.07083
3451.95890,0.07146
3453.88737,0.07075
3455.81584,0.06962
3457.74431,0.07137
3459.67277,0.07340
3461.60124,0.07198
3463.52971,0.07098
3465.45818,0.07256
3467.38665,0.07144
3469.31512,0.06704
3471.24359,0.06757
3473.17206,0.07255
3475.10052,0.07499
3477.02899,0.07381
3478.95746,0.07042
3480.88593,0.06695
3482.81440,0.06393
3484.74287,0.06115
3486.67134,0.06080
3488.59980,0.06115
3490.52827,0.05744
3492.45674,0.05263
3494.38521,0.05405
3496.31368,0.06261
3498.24215,0.06856
3500.17062,0.06590
3502.09909,0.06275
3504.02755,0.06567
3505.95602,0.07017
3507.88449,0.07063
3509.81296,0.06680
3511.74143,0.06355
3513.66990,0.06424
3515.59837,0.06518
3517.52683,0.06397
3519.45530,0.06463
3521.38377,0.06641
3523.31224,0.06726
3525.24071,0.07145
3527.16918,0.07679
3529.09765,0.07447
3531.02611,0.06618
3532.95458,0.06115
3534.88305,0.06093
3536.81152,0.06282
3538.73999,0.06460
3540.66846,0.06441
3542.59693,0.06612
3544.52540,0.07101
3546.45386,0.07000
3548.38233,0.06347
3550.31080,0.06149
3552.23927,0.06393
3554.16774,0.06420
3556.09621,0.06207
3558.02468,0.06112
3559.95314,0.06087
3561.88161,0.06083
3563.81008,0.06199
3565.73855,0.06593
3567.66702,0.07024
3569.59549,0.06787
3571.52396,0.06135
3573.45243,0.05727
3575.38089,0.06027
3577.30936,0.06582
3579.23783,0.06696
3581.16630,0.06414
3583.09477,0.06166
3585.02324,0.06345
3586.95171,0.06794
3588.88017,0.06741
3590.80864,0.06232
3592.73711,0.06036
3594.66558,0.06186
3596.59405,0.05729
3598.52252,0.04731
3600.45099,0.04421
3602.37946,0.05040
3604.30792,0.05809
3606.23639,0.06324
3608.16486,0.06272
3610.09333,0.05638
3612.02180,0.05214
3613.95027,0.05568
3615.87874,0.06183
3617.80720,0.06313
3619.73567,0.06037
3621.66414,0.05753
3623.59261,0.05668
3625.52108,0.05882
3627.44955,0.06337
3629.37802,0.06270
3631.30649,0.05635
3633.23495,0.05446
3635.16342,0.05539
3637.09189,0.05566
3639.02036,0.05369
3640.94883,0.05150
3642.87730,0.05298
3644.80577,0.05536
3646.73423,0.05708
3648.66270,0.06095
3650.59117,0.05954
3652.51964,0.05621
3654.44811,0.05723
3656.37658,0.05702
3658.30505,0.05285
3660.23352,0.04864
3662.16198,0.04665
3664.09045,0.04709
3666.01892,0.04752
3667.94739,0.04807
3669.87586,0.05151
3671.80433,0.05695
3673.73280,0.06221
3675.66126,0.06323
3677.58973,0.05816
3679.51820,0.05455
3681.44667,0.05137
3683.37514,0.04887
3685.30361,0.04966
3687.23208,0.05268
3689.16055,0.05741
3691.08901,0.05970
3693.01748,0.05738
3694.94595,0.05684
3696.87442,0.05813
3698.80289,0.05829
3700.73136,0.05633
3702.65983,0.05267
3704.58829,0.05038
3706.51676,0.04821
3708.44523,0.04432
3710.37370,0.04545
3712.30217,0.05566
3714.23064,0.06062
3716.15911,0.05698
3718.08757,0.05085
3720.01604,0.04934
3721.94451,0.05319
3723.87298,0.05625
3725.80145,0.05672
3727.72992,0.05550
3729.65839,0.05450
3731.58686,0.05607
3733.51532,0.06030
3735.44379,0.06018
3737.37226,0.05582
3739.30073,0.05333
3741.22920,0.04763
3743.15767,0.03829
3745.08614,0.03585
3747.01460,0.04109
3748.94307,0.04602
3750.87154,0.05085
3752.80001,0.04992
3754.72848,0.04921
3756.65695,0.05571
3758.58542,0.06011
3760.51389,0.05258
3762.44235,0.04511
3764.37082,0.04375
3766.29929,0.04541
3768.22776,0.04798
3770.15623,0.04690
3772.08470,0.04468
3774.01317,0.04717
3775.94163,0.05111
3777.87010,0.05246
3779.79857,0.05116
3781.72704,0.04930
3783.65551,0.04660
3785.58398,0.04295
3787.51245,0.04157
3789.44092,0.04244
3791.36938,0.04377
3793.29785,0.04745
3795.22632,0.05212
3797.15479,0.05203
3799.08326,0.05025
3801.01173,0.05018
3802.94020,0.04620
3804.86866,0.04203
3806.79713,0.04450
3808.72560,0.04943
3810.65407,0.05144
3812.58254,0.05542
3814.51101,0.06002
3816.43948,0.05770
3818.36795,0.05267
3820.29641,0.05160
3822.22488,0.05374
3824.15335,0.05577
3826.08182,0.05460
3828.01029,0.05241
3829.93876,0.05243
3831.86723,0.05346
3833.79569,0.05528
3835.72416,0.05394
3837.65263,0.04746
3839.58110,0.04538
3841.50957,0.04732
3843.43804,0.04728
3845.36651,0.04375
3847.29498,0.03699
3849.22344,0.03241
3851.15191,0.03783
3853.08038,0.05318
3855.00885,0.05845
3856.93732,0.05513
3858.86579,0.04914
3860.79426,0.04273
3862.72272,0.04250
3864.65119,0.04281
3866.57966,0.03891
3868.50813,0.04143
3870.43660,0.05012
3872.36507,0.05343
3874.29354,0.05121
3876.22200,0.04702
3878.15047,0.04380
3880.07894,0.04476
3882.00741,0.05089
3883.93588,0.05575
3885.86435,0.05494
3887.79282,0.04984
3889.72129,0.04539
3891.64975,0.04685
3893.57822,0.04950
3895.50669,0.04628
3897.43516,0.04324
3899.36363,0.04653
3901.29210,0.04747
3903.22057,0.03654
3905.14903,0.03150
3907.07750,0.03935
3909.00597,0.04614
3910.93444,0.04846
3912.86291,0.04942
3914.79138,0.04913
3916.71985,0.04859
3918.64832,0.05062
3920.57678,0.04951
3922.50525,0.04545
3924.43372,0.04983
3926.36219,0.05842
3928.29066,0.05629
3930.21913,0.04591
3932.14760,0.03960
3934.07606,0.04061
3936.00453,0.04230
3937.93300,0.04258
3939.86147,0.04322
3941.78994,0.04405
3943.71841,0.04470
3945.64688,0.04367
3947.57535,0.03886
3949.50381,0.03420
3951.43228,0.03514
3953.36075,0.03745
3955.28922,0.03517
3957.21769,0.03323
3959.14616,0.03584
3961.07463,0.03773
3963.00309,0.03723
3964.93156,0.03550
3966.86003,0.03215
3968.78850,0.02806
3970.71697,0.02575
3972.64544,0.02727
3974.57391,0.03179
3976.50238,0.03906
3978.43084,0.04654
3980.35931,0.04948
3982.28778,0.04633
3984.21625,0.03929
3986.14472,0.03451
3988.07319,0.03304
3990.00166,0.03211
3991.93012,0.03467
3993.85859,0.03967
3995.78706,0.04186
3997.71553,0.04145
3999.64400,0.04004
4001.57247,0.03906
4003.50094,0.03835
4005.42941,0.03414
4007.35787,0.02831
4009.28634,0.02870
4011.21481,0.03310
4013.14328,0.03399
4015.07175,0.03348
4017.00022,0.03417
4018.92869,0.03503
4020.85715,0.03644
4022.78562,0.03742
4024.71409,0.03692
4026.64256,0.03323
4028.57103,0.02620
4030.49950,0.02341
4032.42797,0.02941
4034.35644,0.03644
4036.28490,0.04024
4038.21337,0.04443
4040.14184,0.04433
4042.07031,0.03554
4043.99878,0.02604
4045.92725,0.02420
4047.85572,0.02858
4049.78418,0.03229
4051.71265,0.03284
4053.64112,0.03344
4055.56959,0.03608
4057.49806,0.03859
4059.42653,0.03955
4061.35500,0.03948
4063.28346,0.03867
4065.21193,0.03859
4067.14040,0.03916
4069.06887,0.03951
4070.99734,0.03986
4072.92581,0.03882
4074.85428,0.03673
4076.78275,0.03551
4078.71121,0.03444
4080.63968,0.03342
4082.56815,0.03444
4084.49662,0.03706
4086.42509,0.03766
4088.35356,0.03799
4090.28203,0.04190
4092.21049,0.04326
4094.13896,0.03695
4096.06743,0.03050
4097.99590,0.03064
4099.92437,0.03349
4101.85284,0.03807
4103.78131,0.04615
4105.70978,0.04765
4107.63824,0.03959
4109.56671,0.03671
4111.49518,0.04098
4113.42365,0.04078
4115.35212,0.03599
4117.28059,0.03440
4119.20906,0.03762
4121.13752,0.03902
4123.06599,0.03442
4124.99446,0.03080
4126.92293,0.03198
4128.85140,0.03170
4130.77987,0.02739
4132.70834,0.02494
4134.63681,0.02849
4136.56527,0.03376
4138.49374,0.03374
4140.42221,0.02914
4142.35068,0.02825
4144.27915,0.03111
4146.20762,0.03077
4148.13609,0.02813
4150.06455,0.02805
4151.99302,0.03229
4153.92149,0.03862
4155.84996,0.04477
4157.77843,0.04801
4159.70690,0.04396
4161.63537,0.03675
4163.56384,0.03392
4165.49230,0.03288
4167.42077,0.03084
4169.34924,0.03331
4171.27771,0.03884
4173.20618,0.03767
4175.13465,0.02998
4177.06312,0.02574
4178.99158,0.02882
4180.92005,0.03041
4182.84852,0.02621
4184.77699,0.02402
4186.70546,0.02632
4188.63393,0.02837
4190.56240,0.02821
4192.49087,0.02874
4194.41933,0.03272
4196.34780,0.03480
4198.27627,0.02946
4200.20474,0.02213
4202.13321,0.01902
4204.06168,0.01868
4205.99015,0.02061
4207.91861,0.02579
4209.84708,0.03057
4211.77555,0.02949
4213.70402,0.02089
4215.63249,0.01272
4217.56096,0.01494
4219.48943,0.02319
4221.41789,0.02928
4223.34636,0.03600
4225.27483,0.04076
4227.20330,0.03323
4229.13177,0.02009
4231.06024,0.01454
4232.98871,0.01730
4234.91718,0.02365
4236.84564,0.02831
4238.77411,0.02788
4240.70258,0.02495
4242.63105,0.02563
4244.55952,0.03016
4246.48799,0.03393
4248.41646,0.03405
4250.34492,0.03140
4252.27339,0.02938
4254.20186,0.02777
4256.13033,0.02606
4258.05880,0.02344
4259.98727,0.02061
4261.91574,0.02225
4263.84421,0.02570
4265.77267,0.02653
4267.70114,0.02529
4269.62961,0.02242
4271.55808,0.01807
4273.48655,0.01391
4275.41502,0.01550
4277.34349,0.02461
4279.27195,0.03019
4281.20042,0.02670
4283.12889,0.02631
4285.05736,0.03171
4286.98583,0.03130
4288.91430,0.02314
4290.84277,0.01507
4292.77124,0.01332
4294.69970,0.01871
4296.62817,0.02759
4298.55664,0.03302
4300.48511,0.02929
4302.41358,0.01836
4304.34205,0.00768
4306.27052,0.00153
4308.19898,0.00104
4310.12745,0.00401
4312.05592,0.00677
4313.98439,0.01394
4315.91286,0.02343
4317.84133,0.02605
4319.76980,0.02488
4321.69827,0.02410
4323.62673,0.02203
4325.55520,0.02045
4327.48367,0.02330
4329.41214,0.02723
4331.34061,0.02662
4333.26908,0.02514
4335.19755,0.02573
4337.12601,0.02456
4339.05448,0.02154
4340.98295,0.02086
4342.91142,0.02145
4344.83989,0.02035
4346.76836,0.01881
4348.69683,0.01612
4350.62530,0.01130
4352.55376,0.00698
4354.48223,0.00297
4356.41070,0.00058
4358.33917,0.00749
4360.26764,0.02037
4362.19611,0.02318
4364.12458,0.01366
4366.05304,0.00850
4367.98151,0.01267
4369.90998,0.01271
4371.83845,0.00755
4373.76692,0.00800
4375.69539,0.01461
4377.62386,0.01818
4379.55232,0.01518
4381.48079,0.01400
4383.40926,0.01641
4385.33773,0.01610
4387.26620,0.01784
4389.19467,0.02506
4391.12314,0.02597
4393.05161,0.01744
4394.98007,0.01243
4396.90854,0.01453
4398.83701,0.01488
4400.76548,0.01187
4402.69395,0.01287
4404.62242,0.01592
4406.55089,0.01297
4408.47935,0.00762
4410.40782,0.00615
4412.33629,0.00878
4414.26476,0.00979
4416.19323,0.00372
4418.12170,0.00014
4420.05017,0.00785
4421.97864,0.01349
4423.90710,0.00683
4425.83557,0.00102
4427.76404,0.00710
4429.69251,0.01439
4431.62098,0.01214
4433.54945,0.00967
4435.47792,0.01235
4437.40638,0.01112
4439.33485,0.00993
4441.26332,0.01418
4443.19179,0.01500
4445.12026,0.01278
4447.04873,0.01476
4448.97720,0.01639
4450.90567,0.01224
4452.83413,0.00610
4454.76260,0.00370
4456.69107,0.00602
4458.61954,0.00943
4460.54801,0.01155
4462.47648,0.01234
4464.40495,0.00877
4466.33341,0.00489
4468.26188,0.00731
4470.19035,0.00776
4472.11882,0.00416
4474.04729,0.00563
4475.97576,0.00875
4477.90423,0.00756
4479.83270,0.00279
4481.76116,0.00065
4483.68963,0.00527
4485.61810,0.00675
4487.54657,0.00409
4489.47504,0.00610
4491.40351,0.00632
4493.33198,0.00254
4495.26044,0.00510
4497.18891,0.01327
4499.11738,0.01822
4501.04585,0.01498
4502.97432,0.01035
4504.90279,0.01397
4506.83126,0.01857
4508.75973,0.01845
4510.68819,0.01736
4512.61666,0.01348
4514.54513,0.01000
4516.47360,0.01181
4518.40207,0.01298
4520.33054,0.00551
4522.25901,-0.01063
4524.18747,-0.02320
4526.11594,-0.02182
4528.04441,-0.01309
4529.97288,-0.00723
4531.90135,-0.00343
4533.82982,0.00168
4535.75829,0.00704
4537.68676,0.01147
4539.61522,0.01186
4541.54369,0.00866
4543.47216,0.00815
4545.40063,0.00889
4547.32910,0.00680
4549.25757,0.00282
4551.18604,-0.00283
4553.11450,-0.00630
4555.04297,-0.00274
4556.97144,0.00331
4558.89991,0.00359
4560.82838,-0.00118
4562.75685,-0.00528
4564.68532,-0.00585
4566.61378,-0.00103
4568.54225,0.01010
4570.47072,0.02035
4572.39919,0.01955
4574.32766,0.01478
4576.25613,0.01417
4578.18460,0.00713
4580.11307,-0.00713
4582.04153,-0.01424
4583.97000,-0.00808
4585.89847,0.00512
4587.82694,0.01140
4589.75541,0.00758
4591.68388,0.00323
4593.61235,-0.00036
4595.54081,-0.00346
4597.46928,-0.00067
4599.39775,0.00507
4601.32622,0.01017
4603.25469,0.01689
4605.18316,0.02124
4607.11163,0.02003
4609.04010,0.01311
4610.96856,0.00212
4612.89703,-0.00337
4614.82550,0.00216
4616.75397,0.01309
4618.68244,0.01790
4620.61091,0.01437
4622.53938,0.01078
4624.46784,0.00968
4626.39631,0.00883
4628.32478,0.00731
4630.25325,0.00679
4632.18172,0.00828
4634.11019,0.00820
4636.03866,0.00666
4637.96713,0.00714
4639.89559,0.00726
4641.82406,0.00538
4643.75253,0.00559
4645.68100,0.00471
4647.60947,0.00226
4649.53794,0.00396
4651.46641,0.00465
4653.39487,0.00011
4655.32334,-0.00500
4657.25181,-0.00760
4659.18028,-0.00927
4661.10875,-0.00831
4663.03722,-0.00186
4664.96569,0.00049
4666.89416,-0.00426
4668.82262,-0.00463
4670.75109,0.00183
4672.67956,0.00747
4674.60803,0.00262
4676.53650,-0.00659
4678.46497,-0.00622
4680.39344,-0.00080
4682.32190,0.00554
4684.25037,0.01148
4686.17884,0.01165
4688.10731,0.00785
4690.03578,0.00192
4691.96425,-0.00372
4693.89272,-0.00177
4695.82119,0.00632
4697.74965,0.01063
4699.67812,0.00650
4701.60659,-0.00249
4703.53506,-0.00944
4705.46353,-0.00829
4707.39200,-0.00249
4709.32047,0.00225
4711.24893,0.00083
4713.17740,-0.00433
4715.10587,0.00003
4717.03434,0.00951
4718.96281,0.01604
4720.89128,0.02635
4722.81975,0.03131
4724.74821,0.02014
4726.67668,0.00722
4728.60515,0.00468
4730.53362,0.00618
4732.46209,0.00653
4734.39056,0.00539
4736.31903,0.00380
4738.24750,0.00763
4740.17596,0.01444
4742.10443,0.01654
4744.03290,0.01980
4745.96137,0.02334
4747.88984,0.01316
4749.81831,-0.00300
4751.74678,-0.00902
4753.67524,-0.00789
4755.60371,-0.00502
4757.53218,0.00002
4759.46065,0.00522
4761.38912,0.00448
4763.31759,-0.00221
4765.24606,-0.00686
4767.17453,-0.00573
4769.10299,-0.00464
4771.03146,-0.00561
4772.95993,0.00026
4774.88840,0.00895
4776.81687,0.01023
4778.74534,0.01205
4780.67381,0.01973
4782.60227,0.02251
4784.53074,0.01534
4786.45921,0.00609
4788.38768,0.00162
4790.31615,-0.00012
4792.24462,-0.00323
4794.17309,-0.00533
4796.10156,-0.00182
4798.03002,0.00514
4799.95849,0.00921
4801.88696,0.01379
4803.81543,0.02312
4805.74390,0.02587
4807.67237,0.02097
4809.60084,0.01756
4811.52930,0.01063
4813.45777,0.00294
4815.38624,0.00004
4817.31471,-0.00271
4819.24318,0.00331
4821.17165,0.01543
4823.10012,0.01691
4825.02859,0.00690
4826.95705,-0.00057
4828.88552,0.00660
4830.81399,0.02094
4832.74246,0.02644
4834.67093,0.01746
4836.59940,-0.00104
4838.52787,-0.01369
4840.45633,-0.00965
4842.38480,-0.00175
4844.31327,-0.00334
4846.24174,-0.00551
4848.17021,-0.00556
4850.09868,-0.00673
4852.02715,-0.00067
4853.95562,0.00795
4855.88408,0.00684
4857.81255,0.00306
4859.74102,0.00697
4861.66949,0.00958
4863.59796,0.00475
4865.52643,-0.00115
4867.45490,-0.00771
4869.38336,-0.00928
4871.31183,0.00155
4873.24030,0.01159
4875.16877,0.00820
4877.09724,0.00332
4879.02571,0.00604
4880.95418,0.01023
4882.88265,0.00960
4884.81111,0.00627
4886.73958,0.01060
4888.66805,0.01555
4890.59652,0.01070
4892.52499,0.00518
4894.45346,0.00543
4896.38193,0.00673
4898.31039,0.00928
4900.23886,0.01139
4902.16733,0.00356
4904.09580,-0.00406
4906.02427,0.00335
4907.95274,0.01421
4909.88121,0.01816
4911.80967,0.01837
4913.73814,0.01587
4915.66661,0.00930
4917.59508,-0.00063
4919.52355,-0.00478
4921.45202,0.00425
4923.38049,0.01375
4925.30896,0.00801
4927.23742,-0.00844
4929.16589,-0.01718
4931.09436,-0.01476
4933.02283,-0.01209
4934.95130,-0.01019
4936.87977,-0.00409
4938.80824,0.00340
4940.73670,0.00584
4942.66517,0.00462
4944.59364,0.00484
4946.52211,0.01412
4948.45058,0.03175
4950.37905,0.03697
4952.30752,0.02529
4954.23599,0.00741
4956.16445,-0.01378
4958.09292,-0.02600
4960.02139,-0.02500
4961.94986,-0.02094
4963.87833,-0.01285
4965.80680,-0.00167
4967.73527,0.00092
4969.66373,-0.00681
4971.59220,-0.00354
4973.52067,0.01205
4975.44914,0.02105
4977.37761,0.01680
4979.30608,0.01023
4981.23455,0.00510
4983.16302,0.00087
4985.09148,-0.00162
4987.01995,0.00360
4988.94842,0.02377
4990.87689,0.03946
4992.80536,0.02931
4994.73383,0.01209
4996.66230,0.01276
4998.59076,0.02455
5000.51923,0.02623
5002.44770,0.01247
5004.37617,0.00212
5006.30464,0.00006
5008.23311,-0.00587
5010.16158,-0.00638
5012.09005,0.00457
5014.01851,0.01470
5015.94698,0.02468
5017.87545,0.03654
5019.80392,0.03687
5021.73239,0.02264
5023.66086,0.00747
5025.58933,0.00554
5027.51779,0.01346
5029.44626,0.00888
5031.37473,-0.00552
5033.30320,-0.00285
5035.23167,0.01136
5037.16014,0.01369
5039.08861,0.01121
5041.01708,0.01195
5042.94554,0.00451
5044.87401,-0.00548
5046.80248,-0.00839
5048.73095,-0.00715
5050.65942,0.00326
5052.58789,0.01904
5054.51636,0.02467
5056.44482,0.02106
5058.37329,0.01982
5060.30176,0.02587
5062.23023,0.02964
5064.15870,0.02102
5066.08717,0.00499
5068.01564,-0.00841
5069.94410,-0.00804
5071.87257,0.00496
5073.80104,0.01332
5075.72951,0.01395
5077.65798,0.00859
5079.58645,-0.00274
5081.51492,-0.00041
5083.44339,0.01736
5085.37185,0.02403
5087.30032,0.01511
5089.22879,0.00227
5091.15726,-0.00983
5093.08573,-0.01470
5095.01420,-0.01246
5096.94267,-0.00504
5098.87113,0.00926
5100.79960,0.01787
5102.72807,0.00996
5104.65654,-0.00525
5106.58501,-0.01309
5108.51348,-0.01283
5110.44195,-0.01111
5112.37042,-0.00503
5114.29888,0.00746
5116.22735,0.02142
5118.15582,0.02807
5120.08429,0.02587
5122.01276,0.02786
5123.94123,0.03111
5125.86970,0.01823
5127.79816,-0.00413
5129.72663,-0.00812
5131.65510,0.01320
5133.58357,0.03194
5135.51204,0.02787
5137.44051,0.01229
5139.36898,-0.00103
5141.29745,0.00059
5143.22591,0.01342
5145.15438,0.00946
5147.08285,-0.00482
5149.01132,0.00038
5150.93979,0.02231
5152.86826,0.04098
5154.79673,0.03945
5156.72519,0.01471
5158.65366,-0.01323
5160.58213,-0.02516
5162.51060,-0.01894
5164.43907,-0.00806
5166.36754,-0.00622
5168.29601,-0.00250
5170.22448,0.01581
5172.15294,0.03258
5174.08141,0.03284
5176.00988,0.02401
5177.93835,0.02031
5179.86682,0.02781
5181.79529,0.03823
5183.72376,0.04061
5185.65222,0.02639
5187.58069,0.00325
5189.50916,-0.00168
5191.43763,0.01789
5193.36610,0.03304
5195.29457,0.02115
5197.22304,-0.00572
5199.15151,-0.02455
5201.07997,-0.02250
5203.00844,0.00464
5204.93691,0.03970
5206.86538,0.04766
5208.79385,0.02590
5210.72232,0.00233
5212.65079,-0.00652
5214.57925,0.00163
5216.50772,0.01143
5218.43619,0.01292
5220.36466,0.01146
5222.29313,0.00900
5224.22160,0.00771
5226.15007,0.01962
5228.07854,0.03567
5230.00700,0.03247
5231.93547,0.01992
5233.86394,0.01627
5235.79241,0.01603
5237.72088,0.01391
5239.64935,0.01489
5241.57782,0.02916
5243.50628,0.05119
5245.43475,0.05792
5247.36322,0.05327
5249.29169,0.04101
5251.22016,0.02052
5253.14863,0.02362
5255.07710,0.04878
5257.00556,0.05398
5258.93403,0.04189
5260.86250,0.03816
5262.79097,0.03300
5264.71944,0.01671
5266.64791,0.00873
5268.57638,0.00981
5270.50485,0.00551
5272.43331,0.00093
5274.36178,0.00195
5276.29025,-0.00378
5278.21872,-0.00762
5280.14719,0.00566
5282.07566,0.02085
5284.00413,0.03119
5285.93259,0.03649
5287.86106,0.03402
5289.78953,0.02999
5291.71800,0.02426
5293.64647,0.02202
5295.57494,0.02710
5297.50341,0.03017
5299.43188,0.03219
5301.36034,0.03731
5303.28881,0.03383
5305.21728,0.01912
5307.14575,0.00720
5309.07422,0.00235
5311.00269,0.00521
5312.93116,0.02480
5314.85962,0.04373
5316.78809,0.03785
5318.71656,0.03547
5320.64503,0.04829
5322.57350,0.04760
5324.50197,0.03744
5326.43044,0.02909
5328.35891,0.02378
5330.28737,0.02921
5332.21584,0.03486
5334.14431,0.03948
5336.07278,0.04345
5338.00125,0.03196
5339.92972,0.01982
5341.85819,0.01997
5343.78665,0.02936
5345.71512,0.04226
5347.64359,0.03111
5349.57206,0.01209
5351.50053,0.01406
5353.42900,0.01703
5355.35747,0.01341
5357.28594,0.02897
5359.21440,0.05409
5361.14287,0.06125
5363.07134,0.05317
5364.99981,0.04421
5366.92828,0.02675
5368.85675,0.00979
5370.78522,0.01237
5372.71368,0.02830
5374.64215,0.04917
5376.57062,0.05091
5378.49909,0.02449
5380.42756,0.01748
5382.35603,0.04672
5384.28450,0.08492
5386.21297,0.09488
5388.14143,0.07130
5390.06990,0.04178
5391.99837,0.01521
5393.92684,-0.00368
5395.85531,0.00681
5397.78378,0.03422
5399.71225,0.04622
5401.64071,0.05021
5403.56918,0.05863
5405.49765,0.06188
5407.42612,0.06595
5409.35459,0.07711
5411.28306,0.08656
5413.21153,0.09546
5415.13999,0.08863
5417.06846,0.05096
5418.99693,0.01228
5420.92540,0.00766
5422.85387,0.02686
5424.78234,0.04370
5426.71081,0.04885
5428.63928,0.02659
5430.56774,-0.01132
5432.49621,-0.01783
5434.42468,0.00742
5436.35315,0.01373
5438.28162,-0.00464
5440.21009,-0.00789
5442.13856,0.00591
5444.06702,0.01569
5445.99549,0.03251
5447.92396,0.06371
5449.85243,0.06808
5451.78090,0.03334
5453.70937,0.00961
5455.63784,0.02107
5457.56631,0.05356
5459.49477,0.07304
5461.42324,0.06087
5463.35171,0.04124
5465.28018,0.03549
5467.20865,0.04044
5469.13712,0.03324
5471.06559,0.01199
5472.99405,0.00008
5474.92252,-0.00991
5476.85099,-0.01858
5478.77946,-0.01236
5480.70793,0.01076
5482.63640,0.04424
5484.56487,0.05703
5486.49334,0.03568
5488.42180,0.00938
5490.35027,0.00503
5492.27874,0.01687
5494.20721,0.02981
5496.13568,0.04575
5498.06415,0.05745
5499.99262,0.03675
5501.92108,-0.00076
5503.84955,0.00078
5505.77802,0.03190
5507.70649,0.03227
5509.63496,0.01229
5511.56343,0.02779
5513.49190,0.07053
5515.42037,0.09252
5517.34883,0.07111
5519.27730,0.02943
5521.20577,0.00808
5523.13424,0.00530
5525.06271,0.00112
5526.99118,0.00634
5528.91965,0.01717
5530.84811,0.01193
5532.77658,0.00638
5534.70505,0.00487
5536.63352,-0.00374
5538.56199,-0.00204
5540.49046,0.00327
5542.41893,0.00316
5544.34740,0.02062
5546.27586,0.03538
5548.20433,0.02012
5550.13280,0.00711
5552.06127,0.01480
5553.98974,0.03047
5555.91821,0.04015
5557.84668,0.03407
5559.77514,0.02963
5561.70361,0.03141
5563.63208,0.01728
5565.56055,-0.00003
5567.48902,-0.00107
5569.41749,0.00397
5571.34596,0.01286
5573.27443,0.02792
5575.20289,0.03807
5577.13136,0.02869
5579.05983,0.00805
5580.98830,0.00434
5582.91677,0.01004
5584.84524,0.02039
5586.77371,0.04832
5588.70217,0.05811
5590.63064,0.04282
5592.55911,0.03637
5594.48758,0.02762
5596.41605,0.00668
5598.34452,-0.00260
5600.27299,0.00881
5602.20145,0.02666
5604.12992,0.04560
5606.05839,0.06133
5607.98686,0.06613
5609.91533,0.05614
5611.84380,0.04490
5613.77227,0.04770
5615.70074,0.04755
5617.62920,0.05209
5619.55767,0.06964
5621.48614,0.06805
5623.41461,0.04579
5625.34308,0.02646
5627.27155,0.02396
5629.20002,0.02443
5631.12848,0.01299
5633.05695,0.00724
5634.98542,0.00807
5636.91389,0.00958
5638.84236,0.02012
5640.77083,0.02101
5642.69930,-0.00044
5644.62777,-0.01266
5646.55623,0.01741
5648.48470,0.06078
5650.41317,0.05770
5652.34164,0.02740
5654.27011,0.02289
5656.19858,0.03431
5658.12705,0.03959
5660.05551,0.03798
5661.98398,0.03667
5663.91245,0.04074
5665.84092,0.04428
5667.76939,0.03850
5669.69786,0.01891
5671.62633,0.00968
5673.55480,0.04073
5675.48326,0.08712
5677.41173,0.09631
5679.34020,0.07763
5681.26867,0.06650
5683.19714,0.04326
5685.12561,0.00709
5687.05408,0.00557
5688.98254,0.04328
5690.91101,0.06716
5692.83948,0.04909
5694.76795,0.02697
5696.69642,0.04485
5698.62489,0.07034
5700.55336,0.05578
5702.48183,0.02652
5704.41029,0.02056
5706.33876,0.03876
5708.26723,0.05013
5710.19570,0.03247
5712.12417,0.00907
5714.05264,-0.00550
5715.98111,-0.01523
5717.90957,-0.00932
5719.83804,-0.00297
5721.76651,-0.00485
5723.69498,0.00792
5725.62345,0.02325
5727.55192,0.01984
5729.48039,0.02017
5731.40886,0.03197
5733.33732,0.02090
5735.26579,0.00138
5737.19426,0.01295
5739.12273,0.02351
5741.05120,0.00915
5742.97967,0.00329
5744.90814,0.03142
5746.83660,0.05934
5748.76507,0.05280
5750.69354,0.04564
5752.62201,0.05889
5754.55048,0.06121
5756.47895,0.03619
5758.40742,0.01198
5760.33588,0.01689
5762.26435,0.04402
5764.19282,0.06598
5766.12129,0.07181
5768.04976,0.06745
5769.97823,0.04727
5771.90670,0.04077
5773.83517,0.06569
5775.76363,0.06630
5777.69210,0.04216
5779.62057,0.04246
5781.54904,0.04964
5783.47751,0.03782
5785.40598,0.02630
5787.33445,0.03817
5789.26291,0.06797
5791.19138,0.07283
5793.11985,0.04526
5795.04832,0.03383
5796.97679,0.04176
5798.90526,0.04138
5800.83373,0.05489
5802.76220,0.08938
5804.69066,0.09193
5806.61913,0.05331
5808.54760,0.02683
5810.47607,0.02450
5812.40454,0.01930
5814.33301,0.00400
5816.26148,-0.00948
5818.18994,-0.01691
5820.11841,-0.01170
5822.04688,0.01753
5823.97535,0.05032
5825.90382,0.04937
5827.83229,0.02026
5829.76076,0.00614
5831.68923,0.00982
5833.61769,-0.00325
5835.54616,-0.02000
5837.47463,-0.01811
5839.40310,-0.00558
5841.33157,0.01845
5843.26004,0.04132
5845.18851,0.04930
5847.11697,0.04445
5849.04544,0.01602
5850.97391,-0.02587
5852.90238,-0.05470
5854.83085,-0.05849
5856.75932,-0.03271
5858.68779,0.01616
5860.61626,0.07229
5862.54472,0.10649
5864.47319,0.10543
5866.40166,0.08546
5868.33013,0.05388
5870.25860,0.00162
5872.18707,-0.04503
5874.11554,-0.03742
5876.04400,-0.00306
5877.97247,0.01205
5879.90094,0.03410
5881.82941,0.04023
5883.75788,0.00019
5885.68635,-0.02082
5887.61482,0.00568
5889.54329,0.01921
5891.47175,0.00414
5893.40022,0.00052
5895.32869,0.01759
5897.25716,0.03721
5899.18563,0.03861
5901.11410,0.03465
5903.04257,0.04866
5904.97103,0.05154
5906.89950,0.03109
5908.82797,0.02401
5910.75644,0.02415
5912.68491,0.00374
5914.61338,-0.01562
5916.54185,-0.02584
5918.47032,-0.03140
5920.39878,-0.00320
5922.32725,0.05538
5924.25572,0.10279
5926.18419,0.11611
5928.11266,0.09597
5930.04113,0.06424
5931.96960,0.05415
5933.89806,0.05990
5935.82653,0.05255
5937.75500,0.04306
5939.68347,0.04578
5941.61194,0.03429
5943.54041,0.01230
5945.46888,0.02857
5947.39734,0.06481
5949.32581,0.07837
5951.25428,0.07494
5953.18275,0.07364
5955.11122,0.09357
5957.03969,0.11294
5958.96816,0.09280
5960.89663,0.05273
5962.82509,0.03123
5964.75356,0.01839
5966.68203,-0.01492
5968.61050,-0.04953
5970.53897,-0.04591
5972.46744,-0.01423
5974.39591,0.00243
5976.32437,-0.01228
5978.25284,-0.03064
5980.18131,-0.03780
5982.10978,-0.04329
5984.03825,-0.03867
5985.96672,-0.02098
5987.89519,-0.00145
5989.82366,0.03393
5991.75212,0.08178
5993.68059,0.10590
5995.60906,0.07701
5997.53753,0.02589
5999.46600,0.01820
6001.39447,0.03692
6003.32294,0.03745
6005.25140,0.03939
6007.17987,0.05400
6009.10834,0.04623
6011.03681,0.01465
6012.96528,0.00217
6014.89375,0.03159
6016.82222,0.09892
6018.75069,0.15147
6020.67915,0.12601
6022.60762,0.06615
6024.53609,0.03332
6026.46456,0.03432
6028.39303,0.03047
6030.32150,-0.01461
6032.24997,-0.03998
6034.17843,-0.00859
6036.10690,0.03087
6038.03537,0.06178
6039.96384,0.08419
6041.89231,0.08027
6043.82078,0.06761
6045.74925,0.07774
6047.67772,0.08679
6049.60618,0.07364
6051.53465,0.06024
6053.46312,0.04845
6055.39159,0.02064
6057.32006,-0.02362
6059.24853,-0.02362
6061.17700,0.05176
6063.10546,0.10140
6065.03393,0.06261
6066.96240,0.01048
6068.89087,0.02162
6070.81934,0.07696
6072.74781,0.09385
6074.67628,0.07119
6076.60475,0.06907
6078.53321,0.08220
6080.46168,0.08832
6082.39015,0.10131
6084.31862,0.10659
6086.24709,0.08303
6088.17556,0.06260
6090.10403,0.05560
6092.03249,0.04211
6093.96096,0.03886
6095.88943,0.03945
6097.81790,0.02896
6099.74637,0.03928
6101.67484,0.05481
6103.60331,0.04630
6105.53177,0.03180
6107.46024,0.00440
6109.38871,-0.04194
6111.31718,-0.07382
6113.24565,-0.07096
6115.17412,-0.04544
6117.10259,-0.01363
6119.03106,0.00632
6120.95952,0.01596
6122.88799,0.02733
6124.81646,0.01919
6126.74493,0.00138
6128.67340,0.02859
6130.60187,0.08981
6132.53034,0.10741
6134.45880,0.07814
6136.38727,0.06589
6138.31574,0.08165
6140.24421,0.07995
6142.17268,0.04543
6144.10115,0.02423
6146.02962,0.03484
6147.95809,0.04035
6149.88655,0.00783
6151.81502,-0.03039
6153.74349,0.00394
6155.67196,0.07624
6157.60043,0.10563
6159.52890,0.10024
6161.45737,0.08913
6163.38583,0.06459
6165.31430,0.02480
6167.24277,0.00107
6169.17124,0.01079
6171.09971,0.04154
6173.02818,0.05188
6174.95665,-0.00228
6176.88512,-0.08453
6178.81358,-0.11283
6180.74205,-0.08766
6182.67052,-0.04253
6184.59899,0.01513
6186.52746,0.04843
6188.45593,0.03951
6190.38440,0.03594
6192.31286,0.04198
6194.24133,0.02552
6196.16980,0.00440
6198.09827,0.01719
6200.02674,0.04500
6201.95521,0.04616
6203.88368,0.02813
6205.81215,0.01643
6207.74061,0.00851
6209.66908,0.01151
6211.59755,0.03882
6213.52602,0.05326
6215.45449,0.03983
6217.38296,0.03898
6219.31143,0.04235
6221.23989,0.02158
6223.16836,0.00479
6225.09683,0.00740
6227.02530,0.00056
6228.95377,-0.01684
6230.88224,-0.00438
6232.81071,0.02937
6234.73918,0.02161
6236.66764,0.00298
6238.59611,0.03554
6240.52458,0.07467
6242.45305,0.05582
6244.38152,0.01194
6246.30999,-0.01131
6248.23846,-0.00702
6250.16692,0.03107
6252.09539,0.07280
6254.02386,0.09233
6255.95233,0.10127
6257.88080,0.06917
6259.80927,0.00041
6261.73774,-0.03415
6263.66621,-0.01317
6265.59467,0.04955
6267.52314,0.09966
6269.45161,0.08823
6271.38008,0.05905
6273.30855,0.02890
6275.23702,0.01540
6277.16549,0.05882
6279.09395,0.10394
6281.02242,0.08895
6282.95089,0.03627
6284.87936,0.02382
6286.80783,0.06202
6288.73630,0.09821
6290.66477,0.10489
6292.59323,0.06687
6294.52170,0.01896
6296.45017,0.02381
6298.37864,0.07850
6300.30711,0.11461
6302.23558,0.10273
6304.16405,0.09321
6306.09252,0.09519
6308.02098,0.04535
6309.94945,-0.03753
6311.87792,-0.05658
6313.80639,-0.01875
6315.73486,-0.02293
6317.66333,-0.06310
6319.59180,-0.07973
6321.52026,-0.07813
6323.44873,-0.04577
6325.37720,0.02305
6327.30567,0.07247
6329.23414,0.06321
6331.16261,-0.00274
6333.09108,-0.04113
6335.01955,-0.01582
6336.94801,0.02291
6338.87648,0.05277
6340.80495,0.06133
6342.73342,0.05395
6344.66189,0.04251
6346.59036,0.03391
6348.51883,0.05471
6350.44729,0.08683
6352.37576,0.06337
6354.30423,-0.00772
6356.23270,-0.05769
6358.16117,-0.05302
6360.08964,0.00108
6362.01811,0.05336
6363.94658,0.06036
6365.87504,0.04458
6367.80351,0.03962
6369.73198,0.04623
6371.66045,0.01956
6373.58892,-0.04241
6375.51739,-0.05086
6377.44586,0.00943
6379.37432,0.05279
6381.30279,0.04744
6383.23126,0.02101
6385.15973,-0.00929
6387.08820,-0.00458
6389.01667,0.02095
6390.94514,0.04045
6392.87361,0.08008
6394.80207,0.08949
6396.73054,0.05663
6398.65901,0.05448
6400.58748,0.08858
6402.51595,0.09853
6404.44442,0.05421
6406.37289,0.03576
6408.30135,0.06280
6410.22982,0.02531
6412.15829,-0.05522
6414.08676,-0.09398
6416.01523,-0.09593
6417.94370,-0.03928
6419.87217,0.07284
6421.80064,0.15132
6423.72910,0.15587
6425.65757,0.11326
6427.58604,0.08091
6429.51451,0.08224
6431.44298,0.07101
6433.37145,0.01443
6435.29992,-0.03122
6437.22838,-0.00697
6439.15685,0.06500
6441.08532,0.10584
6443.01379,0.06849
6444.94226,0.01259
6446.87073,0.01090
6448.79920,0.02145
6450.72766,0.03367
6452.65613,0.07219
6454.58460,0.09028
6456.51307,0.07514
6458.44154,0.06936
6460.37001,0.04902
6462.29848,0.00024
6464.22695,-0.01298
6466.15541,0.01627
6468.08388,0.03932
6470.01235,0.04570
6471.94082,0.05769
6473.86929,0.07631
6475.79776,0.07440
6477.72623,0.05370
6479.65469,0.04718
6481.58316,0.03912
6483.51163,0.00820
6485.44010,-0.02628
6487.36857,-0.04644
6489.29704,-0.02971
6491.22551,0.01587
6493.15398,0.07069
6495.08244,0.11672
6497.01091,0.11181
6498.93938,0.07987
6500.86785,0.04039
6502.79632,-0.02805
6504.72479,-0.06763
6506.65326,-0.04922
6508.58172,-0.01286
6510.51019,0.01703
6512.43866,0.04412
6514.36713,0.09688
6516.29560,0.12820
6518.22407,0.06993
6520.15254,0.00914
6522.08101,0.00812
6524.00947,0.03158
6525.93794,0.05651
6527.86641,0.05422
6529.79488,0.05801
6531.72335,0.09999
6533.65182,0.08230
6535.58029,-0.03533
6537.50875,-0.10786
6539.43722,-0.04355
6541.36569,0.04862
6543.29416,0.07951
6545.22263,0.06335
6547.15110,0.02782
6549.07957,0.00770
6551.00804,0.01549
6552.93650,0.02600
6554.86497,0.03888
6556.79344,0.05349
6558.72191,0.05234
6560.65038,0.02536
6562.57885,-0.00240
6564.50732,-0.01035
6566.43578,-0.00438
6568.36425,0.03612
6570.29272,0.05227
6572.22119,-0.01801
6574.14966,-0.07431
6576.07813,-0.04050
6578.00660,0.01152
6579.93507,-0.00229
6581.86353,-0.01124
6583.79200,0.06967
6585.72047,0.15118
6587.64894,0.14778
6589.57741,0.06142
6591.50588,-0.01961
6593.43435,0.03768
6595.36281,0.16390
6597.29128,0.17628
6599.21975,0.08864
6601.14822,-0.02545
6603.07669,-0.11043
6605.00516,-0.12799
6606.93363,-0.06756
6608.86210,0.02618
6610.79056,0.08338
6612.71903,0.08129
6614.64750,0.05643
6616.57597,0.03235
6618.50444,0.00246
6620.43291,0.00935
6622.36138,0.06706
6624.28984,0.12622
6626.21831,0.16750
6628.14678,0.18906
6630.07525,0.17640
6632.00372,0.14333
6633.93219,0.11876
6635.86066,0.09511
6637.78912,0.03833
6639.71759,-0.02721
6641.64606,-0.04630
6643.57453,-0.01068
6645.50300,0.02694
6647.43147,0.03310
6649.35994,0.04043
6651.28841,0.03988
6653.21687,-0.00842
6655.14534,-0.08209
6657.07381,-0.10947
6659.00228,-0.04039
6660.93075,0.07283
6662.85922,0.14178
6664.78769,0.13938
6666.71615,0.08594
6668.64462,0.00394
6670.57309,-0.04936
6672.50156,0.00052
6674.43003,0.04728
6676.35850,-0.02000
6678.28697,-0.08819
6680.21544,-0.07619
6682.14390,-0.04297
6684.07237,-0.00654
6686.00084,0.05463
6687.92931,0.09149
6689.85778,0.03822
6691.78625,-0.08561
6693.71472,-0.16060
6695.64318,-0.09569
6697.57165,-0.01729
6699.50012,-0.03623
6701.42859,-0.03709
6703.35706,0.08055
6705.28553,0.21402
6707.21400,0.24764
6709.14247,0.18295
6711.07093,0.08774
6712.99940,0.03351
6714.92787,0.01605
6716.85634,0.00914
6718.78481,0.02667
6720.71328,0.02879
6722.64175,-0.02290
6724.57021,-0.05776
6726.49868,-0.01812
6728.42715,0.01703
6730.35562,0.05300
6732.28409,0.09069
6734.21256,0.04277
6736.14103,-0.06664
6738.06950,-0.09113
6739.99796,-0.01787
6741.92643,0.08006
6743.85490,0.11981
6745.78337,0.07290
6747.71184,-0.02775
6749.64031,-0.11207
6751.56878,-0.12413
6753.49724,-0.04966
6755.42571,0.05921
6757.35418,0.09523
6759.28265,0.05833
6761.21112,0.07627
6763.13959,0.16546
6765.06806,0.18397
6766.99653,0.10516
6768.92499,0.04604
6770.85346,0.04041
6772.78193,0.03594
6774.71040,0.01673
6776.63887,0.00979
6778.56734,0.00448
6780.49581,-0.02449
6782.42427,-0.03433
6784.35274,0.01583
6786.28121,0.13189
6788.20968,0.22557
6790.13815,0.15222
6792.06662,-0.00604
6793.99509,-0.04226
6795.92355,-0.00175
6797.85202,0.05573
6799.78049,0.17598
6801.70896,0.25558
6803.63743,0.11930
6805.56590,-0.07229
6807.49437,-0.07751
6809.42284,0.05481
6811.35130,0.16473
6813.27977,0.18472
6815.20824,0.17030
6817.13671,0.08787
6819.06518,-0.04589
6820.99365,-0.07891
6822.92212,0.01799
6824.85058,0.04614
6826.77905,-0.07077
6828.70752,-0.20270
6830.63599,-0.17074
6832.56446,0.01146
6834.49293,0.12957
6836.42140,0.12265
6838.34987,0.14547
6840.27833,0.17958
6842.20680,0.12365
6844.13527,0.04340
6846.06374,0.02578
6847.99221,0.04763
6849.92068,0.04355
6851.84915,0.01436
6853.77761,-0.04255
6855.70608,-0.06628
6857.63455,0.00973
6859.56302,0.06122
6861.49149,0.06175
6863.41996,0.10074
6865.34843,0.11155
6867.27690,0.06561
6869.20536,0.05893
6871.13383,-0.00740
6873.06230,-0.19848
6874.99077,-0.26550
6876.91924,-0.15554
6878.84771,-0.01463
6880.77618,0.10721
6882.70464,0.20280
6884.63311,0.25493
6886.56158,0.20767
6888.49005,0.05508
6890.41852,-0.03237
6892.34699,0.06957
6894.27546,0.15359
6896.20393,0.10753
6898.13239,0.06403
6900.06086,0.04026
6901.98933,-0.00910
6903.91780,-0.01792
6905.84627,0.04927
6907.77474,0.10326
6909.70321,0.11026
6911.63167,0.09906
6913.56014,0.05605
6915.48861,0.04373
6917.41708,0.06540
6919.34555,0.08768
6921.27402,0.14926
6923.20249,0.18971
6925.13096,0.13491
6927.05942,0.03748
6928.98789,-0.00800
6930.91636,-0.00633
6932.84483,-0.01972
6934.77330,-0.03161
6936.70177,-0.03187
6938.63024,-0.03753
6940.55870,-0.03451
6942.48717,0.01634
6944.41564,0.07206
6946.34411,0.08066
6948.27258,0.06672
6950.20105,0.00441
6952.12952,-0.07987
6954.05799,-0.06610
6955.98645,0.02241
6957.91492,0.09660
6959.84339,0.14151
6961.77186,0.14243
6963.70033,0.10635
6965.62880,0.05113
6967.55727,0.00649
6969.48573,0.02705
6971.41420,0.14742
6973.34267,0.22666
6975.27114,0.07827
6977.19961,-0.08659
6979.12808,-0.07074
6981.05655,-0.00599
6982.98501,0.04335
6984.91348,0.10233
6986.84195,0.10988
6988.77042,0.02981
6990.69889,-0.09914
6992.62736,-0.17903
6994.55583,-0.12923
6996.48430,0.03859
6998.41276,0.19711
7000.34123,0.23257
7002.26970,0.18861
7004.19817,0.13065
7006.12664,0.06013
7008.05511,-0.03841
7009.98358,-0.06975
7011.91204,-0.00853
7013.84051,0.07006
7015.76898,0.11588
7017.69745,0.14398
7019.62592,0.14284
7021.55439,0.10017
7023.48286,0.04516
7025.41133,0.00636
7027.33979,-0.03241
7029.26826,-0.03275
7031.19673,0.08305
7033.12520,0.19282
7035.05367,0.09001
7036.98214,-0.14975
7038.91061,-0.31152
7040.83907,-0.36272
7042.76754,-0.30079
7044.69601,-0.20927
7046.62448,-0.13267
7048.55295,0.01797
7050.48142,0.17870
7052.40989,0.30449
7054.33836,0.38807
7056.26682,0.30719
7058.19529,0.12087
7060.12376,0.04336
7062.05223,0.03641
7063.98070,0.03777
7065.90917,0.04105
7067.83764,0.05003
7069.76610,0.06691
7071.69457,0.06307
7073.62304,0.08670
7075.55151,0.08518
7077.47998,0.00939
7079.40845,-0.05580
7081.33692,-0.13213
7083.26539,-0.23929
7085.19385,-0.24087
7087.12232,-0.12841
7089.05079,-0.01570
7090.97926,0.08961
7092.90773,0.24935
7094.83620,0.36546
7096.76467,0.36439
7098.69313,0.27766
7100.62160,0.16612
7102.55007,0.06906
7104.47854,0.00181
7106.40701,-0.02353
7108.33548,-0.00997
7110.26395,0.03871
7112.19242,0.06563
7114.12088,0.03986
7116.04935,-0.00066
7117.97782,-0.06056
7119.90629,-0.07977
7121.83476,-0.07245
7123.76323,-0.11635
7125.69170,-0.11044
7127.62016,-0.00605
7129.54863,0.07070
7131.47710,0.07608
7133.40557,0.02555
7135.33404,0.00806
7137.26251,0.06338
7139.19098,0.04165
7141.11944,-0.00414
7143.04791,0.06295
7144.97638,0.15663
7146.90485,0.21947
7148.83332,0.22976
7150.76179,0.26140
7152.69026,0.30690
7154.61873,0.17845
7156.54719,-0.00118
7158.47566,-0.01439
7160.40413,0.05095
7162.33260,0.06632
7164.26107,0.04947
7166.18954,0.07977
7168.11801,0.17939
7170.04647,0.23017
7171.97494,0.17228
7173.90341,0.11218
7175.83188,0.06736
7177.76035,0.05365
7179.68882,0.12635
7181.61729,0.26422
7183.54576,0.36778
7185.47422,0.35186
7187.40269,0.32690
7189.33116,0.31729
7191.25963,0.20795
7193.18810,0.06472
7195.11657,-0.04320
7197.04504,-0.18724
7198.97350,-0.26262
7200.90197,-0.20452
7202.83044,-0.09115
7204.75891,0.04444
7206.68738,0.08783
7208.61585,0.02801
7210.54432,-0.02236
7212.47279,-0.07816
7214.40125,-0.11968
7216.32972,-0.02980
7218.25819,0.16347
7220.18666,0.20160
7222.11513,0.08737
7224.04360,0.02748
7225.97207,0.09728
7227.90053,0.16009
7229.82900,0.14779
7231.75747,0.14036
7233.68594,0.16390
7235.61441,0.15107
7237.54288,0.12550
7239.47135,0.17399
7241.39982,0.22967
7243.32828,0.18936
7245.25675,0.15911
7247.18522,0.19176
7249.11369,0.24403
7251.04216,0.28724
7252.97063,0.21427
7254.89910,0.05825
7256.82756,0.02354
7258.75603,0.13174
7260.68450,0.31757
7262.61297,0.44315
7264.54144,0.39364
7266.46991,0.27844
7268.39838,0.27287
7270.32685,0.25614
7272.25531,0.11319
7274.18378,0.00467
7276.11225,-0.03109
7278.04072,-0.02957
7279.96919,-0.04795
7281.89766,-0.11099
7283.82613,-0.11371
7285.75459,-0.05400
7287.68306,0.07132
7289.61153,0.20400
7291.54000,0.20581
7293.46847,0.15358
7295.39694,0.13567
7297.32541,0.07305
7299.25387,-0.01769
7301.18234,-0.04658
7303.11081,0.03642
7305.03928,0.11028
7306.96775,-0.06377
7308.89622,-0.29887
7310.82469,-0.17113
7312.75316,0.02016
7314.68162,0.01446
7316.61009,-0.06373
7318.53856,-0.04094
7320.46703,0.05293
7322.39550,0.18775
7324.32397,0.27664
7326.25244,0.20692
7328.18090,0.11108
7330.10937,0.06634
7332.03784,0.02440
7333.96631,0.01541
7335.89478,-0.01525
7337.82325,-0.07624
7339.75172,-0.09431
7341.68019,-0.05092
7343.60865,0.01965
7345.53712,0.13885
7347.46559,0.18391
7349.39406,0.07080
7351.32253,-0.07960
7353.25100,-0.16706
7355.17947,-0.12334
7357.10793,-0.00233
7359.03640,-0.02666
7360.96487,-0.11315
7362.89334,0.00604
7364.82181,0.18398
7366.75028,0.15615
7368.67875,-0.02713
7370.60722,-0.13550
7372.53568,-0.20447
7374.46415,-0.35026
7376.39262,-0.31128
7378.32109,-0.03421
7380.24956,0.19716
7382.17803,0.33941
7384.10650,0.38601
7386.03496,0.35141
7387.96343,0.19543
7389.89190,-0.10109
7391.82037,-0.35387
7393.74884,-0.34571
7395.67731,-0.13623
7397.60578,0.02340
7399.53425,0.07764
7401.46271,0.04769
7403.39118,-0.01117
7405.31965,0.03807
7407.24812,0.14589
7409.17659,0.18625
7411.10506,0.13418
7413.03353,0.05757
7414.96199,0.05922
7416.89046,0.20162
7418.81893,0.29512
7420.74740,0.09541
7422.67587,-0.07669
7424.60434,-0.07499
7426.53281,-0.01985
7428.46128,0.03731
7430.38974,0.04526
7432.31821,0.02252
7434.24668,0.06891
7436.17515,0.05498
7438.10362,-0.06440
7440.03209,-0.03630
7441.96056,0.15386
7443.88902,0.23076
7445.81749,0.21914
7447.74596,0.30236
7449.67443,0.35767
7451.60290,0.27334
7453.53137,0.13895
7455.45984,-0.03945
7457.38831,-0.11238
7459.31677,0.08122
7461.24524,0.28158
7463.17371,0.27963
7465.10218,0.20696
7467.03065,0.12602
7468.95912,0.14106
7470.88759,0.26490
7472.81605,0.34106
7474.74452,0.28689
7476.67299,0.16744
7478.60146,0.07936
7480.52993,0.01976
7482.45840,-0.11097
7484.38687,-0.12136
7486.31533,0.11421
7488.24380,0.32612
7490.17227,0.36753
7492.10074,0.34551
7494.02921,0.28863
7495.95768,0.19468
7497.88615,0.03135
