399.19301,-0.10197
401.12148,-0.78495
403.04995,-0.08208
404.97842,0.34796
406.90689,0.33313
408.83536,0.13086
410.76382,0.01709
412.69229,0.00076
414.62076,0.02387
416.54923,0.14992
418.47770,0.26321
420.40617,0.25312
422.33464,0.26230
424.26311,0.19335
426.19157,0.04634
428.12004,0.01062
430.04851,0.10164
431.97698,0.16552
433.90545,0.11181
435.83392,-0.02362
437.76239,-0.15296
439.69085,-0.17854
441.61932,-0.10403
443.54779,-0.02754
445.47626,0.00294
447.40473,0.04725
449.33320,0.11256
451.26167,0.14140
453.19013,0.11619
455.11860,0.06165
457.04707,0.03532
458.97554,0.03793
460.90401,0.04224
462.83248,0.07727
464.76095,0.07405
466.68942,-0.01788
468.61788,-0.09822
470.54635,-0.13261
472.47482,-0.08717
474.40329,0.10814
476.33176,0.18000
478.26023,0.10420
480.18870,0.04922
482.11716,0.07128
484.04563,0.15123
485.97410,0.21255
487.90257,0.16426
489.83104,0.10247
491.75951,0.13512
493.68798,0.14890
495.61645,0.09025
497.54491,0.03627
499.47338,0.03111
501.40185,0.06058
503.33032,0.08304
505.25879,0.06393
507.18726,0.02545
509.11573,0.01491
511.04419,0.03306
512.97266,0.05601
514.90113,0.04769
516.82960,0.01673
518.75807,0.03615
520.68654,0.09130
522.61501,0.10708
524.54348,0.09410
526.47194,0.09786
528.40041,0.09094
530.32888,0.05815
532.25735,0.01593
534.18582,-0.01876
536.11429,-0.02299
538.04276,-0.01726
539.97122,-0.03142
541.89969,-0.03337
543.82816,-0.00509
545.75663,0.01659
547.68510,0.03125
549.61357,0.05207
551.54204,0.05859
553.47051,0.05522
555.39897,0.04904
557.32744,0.02604
559.25591,0.00448
561.18438,0.01245
563.11285,0.03495
565.04132,0.05255
566.96979,0.08093
568.89825,0.12183
570.82672,0.13883
572.75519,0.11086
574.68366,0.07325
576.61213,0.07964
578.54060,0.09521
580.46907,0.06732
582.39754,0.03409
584.32600,0.03336
586.25447,0.06197
588.18294,0.10786
590.11141,0.13236
592.03988,0.13518
593.96835,0.15692
595.89682,0.15844
597.82528,0.10506
599.75375,0.06787
601.68222,0.07561
603.61069,0.08034
605.53916,0.07203
607.46763,0.05420
609.39610,0.03023
611.32456,0.02968
613.25303,0.06187
615.18150,0.08787
617.10997,0.08442
619.03844,0.07100
620.96691,0.06858
622.89538,0.07992
624.82385,0.08644
626.75231,0.09179
628.68078,0.10654
630.60925,0.10304
632.53772,0.08124
634.46619,0.07089
636.39466,0.06280
638.32313,0.05085
640.25159,0.05441
642.18006,0.06299
644.10853,0.06118
646.03700,0.06003
647.96547,0.06316
649.89394,0.06900
651.82241,0.07993
653.75088,0.09129
655.67934,0.09679
657.60781,0.09915
659.53628,0.10385
661.46475,0.11054
663.39322,0.11142
665.32169,0.10537
667.25016,0.09693
669.17862,0.07269
671.10709,0.03671
673.03556,0.02180
674.96403,0.04363
676.89250,0.07104
678.82097,0.07226
680.74944,0.06279
682.67791,0.05709
684.60637,0.06031
686.53484,0.06919
688.46331,0.06909
690.39178,0.06529
692.32025,0.07567
694.24872,0.08944
696.17719,0.09118
698.10565,0.08990
700.03412,0.09206
701.96259,0.09834
703.89106,0.10459
705.81953,0.09715
707.74800,0.08173
709.67647,0.07435
711.60494,0.06796
713.53340,0.06807
715.46187,0.08640
717.39034,0.09948
719.31881,0.09640
721.24728,0.08750
723.17575,0.08248
725.10422,0.09145
727.03268,0.10258
728.96115,0.10353
730.88962,0.09618
732.81809,0.07532
734.74656,0.04912
736.67503,0.04439
738.60350,0.06179
740.53197,0.07310
742.46043,0.06910
744.38890,0.06160
746.31737,0.06035
748.24584,0.06488
750.17431,0.06345
752.10278,0.05678
754.03125,0.05565
755.95971,0.06050
757.88818,0.06532
759.81665,0.07094
761.74512,0.07689
763.67359,0.07315
765.60206,0.06070
767.53053,0.04491
769.45900,0.03822
771.38746,0.05921
773.31593,0.09084
775.24440,0.09717
777.17287,0.07726
779.10134,0.05870
781.02981,0.04756
782.95828,0.04533
784.88674,0.06087
786.81521,0.07128
788.74368,0.06205
790.67215,0.05521
792.60062,0.06165
794.52909,0.07414
796.45756,0.08328
798.38602,0.08032
800.31449,0.06539
802.24296,0.05774
804.17143,0.07071
806.09990,0.08841
808.02837,0.09280
809.95684,0.09068
811.88531,0.09241
813.81377,0.08709
815.74224,0.07120
817.67071,0.06414
819.59918,0.07209
821.52765,0.07910
823.45612,0.07526
825.38459,0.06114
827.31305,0.04411
829.24152,0.04440
831.16999,0.06209
833.09846,0.07294
835.02693,0.07610
836.95540,0.07747
838.88387,0.07222
840.81234,0.07251
842.74080,0.08297
844.66927,0.09613
846.59774,0.10892
848.52621,0.10809
850.45468,0.09299
852.38315,0.08183
854.31162,0.07661
856.24008,0.07346
858.16855,0.07047
860.09702,0.06290
862.02549,0.05768
863.95396,0.06178
865.88243,0.07093
867.81090,0.07690
869.73937,0.07681
871.66783,0.07953
873.59630,0.08867
875.52477,0.09664
877.45324,0.09706
879.38171,0.09186
881.31018,0.08805
883.23865,0.08872
885.16711,0.09517
887.09558,0.09965
889.02405,0.09275
890.95252,0.08370
892.88099,0.07896
894.80946,0.07388
896.73793,0.07113
898.66640,0.07400
900.59486,0.08394
902.52333,0.10268
904.45180,0.11245
906.38027,0.09707
908.30874,0.07951
910.23721,0.08187
912.16568,0.09426
914.09414,0.10499
916.02261,0.10720
917.95108,0.09878
919.87955,0.08988
921.80802,0.08771
923.73649,0.08748
925.66496,0.08276
927.59343,0.07700
929.52189,0.07709
931.45036,0.08246
933.37883,0.08613
935.30730,0.08324
937.23577,0.08098
939.16424,0.08958
941.09271,0.10180
943.02117,0.10009
944.94964,0.08609
946.87811,0.07721
948.80658,0.08057
950.73505,0.08960
952.66352,0.09518
954.59199,0.09525
956.52045,0.09190
958.44892,0.08560
960.37739,0.08473
962.30586,0.09077
964.23433,0.08689
966.16280,0.07497
968.09127,0.07127
970.01974,0.07298
971.94820,0.07876
973.87667,0.09037
975.80514,0.09784
977.73361,0.09661
979.66208,0.08882
981.59055,0.07879
983.51902,0.07044
985.44748,0.06410
987.37595,0.06445
989.30442,0.07054
991.23289,0.07362
993.16136,0.07398
995.08983,0.08024
997.01830,0.09460
998.94677,0.10409
1000.87523,0.09926
1002.80370,0.09252
1004.73217,0.09681
1006.66064,0.10370
1008.58911,0.10432
1010.51758,0.10302
1012.44605,0.10141
1014.37451,0.09767
1016.30298,0.09260
1018.23145,0.08890
1020.15992,0.08965
1022.08839,0.09191
1024.01686,0.09384
1025.94533,0.10492
1027.87380,0.11537
1029.80226,0.10426
1031.73073,0.08707
1033.65920,0.08000
1035.58767,0.08153
1037.51614,0.09018
1039.44461,0.09726
1041.37308,0.10109
1043.30154,0.09974
1045.23001,0.09595
1047.15848,0.09927
1049.08695,0.10341
1051.01542,0.10400
1052.94389,0.10124
1054.87236,0.09591
1056.80083,0.09084
1058.72929,0.08214
1060.65776,0.07180
1062.58623,0.06909
1064.51470,0.08042
1066.44317,0.09592
1068.37164,0.10243
1070.30011,0.10753
1072.22857,0.11263
1074.15704,0.10880
1076.08551,0.09975
1078.01398,0.09316
1079.94245,0.09465
1081.87092,0.10206
1083.79939,0.09902
1085.72786,0.08388
1087.65632,0.07540
1089.58479,0.07462
1091.51326,0.07760
1093.44173,0.08633
1095.37020,0.09221
1097.29867,0.09239
1099.22714,0.09444
1101.15560,0.10037
1103.08407,0.10330
1105.01254,0.10151
1106.94101,0.09981
1108.86948,0.09775
1110.79795,0.09538
1112.72642,0.09366
1114.65489,0.09296
1116.58335,0.09466
1118.51182,0.09671
1120.44029,0.09976
1122.36876,0.10758
1124.29723,0.11514
1126.22570,0.11182
1128.15417,0.09897
1130.08263,0.08990
1132.01110,0.08793
1133.93957,0.08738
1135.86804,0.08989
1137.79651,0.09928
1139.72498,0.10978
1141.65345,0.11006
1143.58191,0.10108
1145.51038,0.09431
1147.43885,0.09431
1149.36732,0.09915
1151.29579,0.10198
1153.22426,0.09830
1155.15273,0.09581
1157.08120,0.09761
1159.00966,0.09676
1160.93813,0.09273
1162.86660,0.08737
1164.79507,0.08498
1166.72354,0.09205
1168.65201,0.09963
1170.58048,0.09816
1172.50894,0.09381
1174.43741,0.09206
1176.36588,0.09368
1178.29435,0.09812
1180.22282,0.10000
1182.15129,0.09757
1184.07976,0.09751
1186.00823,0.10263
1187.93669,0.10584
1189.86516,0.10130
1191.79363,0.09282
1193.72210,0.08655
1195.65057,0.08749
1197.57904,0.09296
1199.50751,0.09173
1201.43597,0.08750
1203.36444,0.09030
1205.29291,0.09464
1207.22138,0.09425
1209.14985,0.08966
1211.07832,0.08453
1213.00679,0.08525
1214.93526,0.09239
1216.86372,0.09889
1218.79219,0.10099
1220.72066,0.10004
1222.64913,0.09725
1224.57760,0.09565
1226.50607,0.09521
1228.43454,0.09247
1230.36300,0.08937
1232.29147,0.08834
1234.21994,0.08950
1236.14841,0.09383
1238.07688,0.09823
1240.00535,0.09715
1241.93382,0.09396
1243.86229,0.09302
1245.79075,0.09237
1247.71922,0.09502
1249.64769,0.10159
1251.57616,0.10567
1253.50463,0.10448
1255.43310,0.10053
1257.36157,0.09939
1259.29003,0.10230
1261.21850,0.10513
1263.14697,0.10535
1265.07544,0.10466
1267.00391,0.10380
1268.93238,0.09926
1270.86085,0.09506
1272.78932,0.09775
1274.71778,0.10274
1276.64625,0.10512
1278.57472,0.10476
1280.50319,0.10248
1282.43166,0.10319
1284.36013,0.10769
1286.28860,0.10879
1288.21706,0.10649
1290.14553,0.10516
1292.07400,0.10246
1294.00247,0.09977
1295.93094,0.09981
1297.85941,0.09980
1299.78788,0.10051
1301.71634,0.10115
1303.64481,0.09907
1305.57328,0.09853
1307.50175,0.10119
1309.43022,0.10330
1311.35869,0.10467
1313.28716,0.10531
1315.21563,0.10476
1317.14409,0.10689
1319.07256,0.10870
1321.00103,0.10387
1322.92950,0.09749
1324.85797,0.09346
1326.78644,0.09272
1328.71491,0.09673
1330.64337,0.09954
1332.57184,0.09902
1334.50031,0.10014
1336.42878,0.10193
1338.35725,0.10117
1340.28572,0.09871
1342.21419,0.09632
1344.14266,0.09571
1346.07112,0.09786
1347.99959,0.10173
1349.92806,0.10746
1351.85653,0.11177
1353.78500,0.10804
1355.71347,0.10144
1357.64194,0.10142
1359.57040,0.10542
1361.49887,0.10850
1363.42734,0.10887
1365.35581,0.10576
1367.28428,0.10379
1369.21275,0.10713
1371.14122,0.11324
1373.06969,0.11915
1374.99815,0.12077
1376.92662,0.11440
1378.85509,0.10507
1380.78356,0.09953
1382.71203,0.10173
1384.64050,0.10728
1386.56897,0.10707
1388.49743,0.10224
1390.42590,0.10244
1392.35437,0.10574
1394.28284,0.10525
1396.21131,0.10155
1398.13978,0.10017
1400.06825,0.10085
1401.99672,0.10165
1403.92518,0.10224
1405.85365,0.10272
1407.78212,0.10425
1409.71059,0.10449
1411.63906,0.10133
1413.56753,0.10156
1415.49600,0.10652
1417.42446,0.10615
1419.35293,0.09861
1421.28140,0.09712
1423.20987,0.10175
1425.13834,0.10736
1427.06681,0.11148
1428.99528,0.11190
1430.92375,0.11050
1432.85221,0.11257
1434.78068,0.11710
1436.70915,0.12039
1438.63762,0.12193
1440.56609,0.12162
1442.49456,0.11763
1444.42303,0.11293
1446.35149,0.11151
1448.27996,0.11061
1450.20843,0.10813
1452.13690,0.10585
1454.06537,0.10636
1455.99384,0.11599
1457.92231,0.12673
1459.85077,0.11820
1461.77924,0.10730
1463.70771,0.10306
1465.63618,0.10407
1467.56465,0.10534
1469.49312,0.11027
1471.42159,0.12201
1473.35006,0.13027
1475.27852,0.12531
1477.20699,0.11659
1479.13546,0.11143
1481.06393,0.11029
1482.99240,0.11004
1484.92087,0.11058
1486.84934,0.11077
1488.77780,0.10722
1490.70627,0.10610
1492.63474,0.11051
1494.56321,0.11539
1496.49168,0.11996
1498.42015,0.11934
1500.34862,0.11344
1502.27709,0.11218
1504.20555,0.11935
1506.13402,0.13526
1508.06249,0.14166
1509.99096,0.12906
1511.91943,0.11718
1513.84790,0.11232
1515.77637,0.11406
1517.70483,0.11809
1519.63330,0.12224
1521.56177,0.12614
1523.49024,0.12436
1525.41871,0.11811
1527.34718,0.11321
1529.27565,0.11347
1531.20412,0.11641
1533.13258,0.11967
1535.06105,0.12458
1536.98952,0.13351
1538.91799,0.14927
1540.84646,0.15398
1542.77493,0.13405
1544.70340,0.12196
1546.63186,0.12037
1548.56033,0.11982
1550.48880,0.11737
1552.41727,0.11834
1554.34574,0.12518
1556.27421,0.13639
1558.20268,0.14807
1560.13115,0.13562
1562.05961,0.11954
1563.98808,0.11141
1565.91655,0.10755
1567.84502,0.11102
1569.77349,0.11855
1571.70196,0.11975
1573.63043,0.12043
1575.55889,0.12512
1577.48736,0.12287
1579.41583,0.11630
1581.34430,0.11389
1583.27277,0.11272
1585.20124,0.11237
1587.12971,0.11492
1589.05818,0.11722
1590.98664,0.11713
1592.91511,0.11517
1594.84358,0.11141
1596.77205,0.10993
1598.70052,0.11196
1600.62899,0.11292
1602.55746,0.11295
1604.48592,0.11294
1606.41439,0.10969
1608.34286,0.10443
1610.27133,0.10298
1612.19980,0.10664
1614.12827,0.11278
1616.05674,0.11883
1617.98521,0.11862
1619.91367,0.11808
1621.84214,0.12342
1623.77061,0.12467
1625.69908,0.11788
1627.62755,0.11371
1629.55602,0.11325
1631.48449,0.11503
1633.41295,0.12007
1635.34142,0.12788
1637.26989,0.12906
1639.19836,0.12248
1641.12683,0.11720
1643.05530,0.11782
1644.98377,0.12358
1646.91223,0.12837
1648.84070,0.12817
1650.76917,0.12881
1652.69764,0.13315
1654.62611,0.13095
1656.55458,0.12097
1658.48305,0.11496
1660.41152,0.11676
1662.33998,0.12157
1664.26845,0.12148
1666.19692,0.12187
1668.12539,0.12801
1670.05386,0.13453
1671.98233,0.13608
1673.91080,0.13432
1675.83926,0.12648
1677.76773,0.11897
1679.69620,0.11716
1681.62467,0.12011
1683.55314,0.12741
1685.48161,0.12849
1687.41008,0.12239
1689.33855,0.11841
1691.26701,0.11713
1693.19548,0.11769
1695.12395,0.12118
1697.05242,0.12596
1698.98089,0.12790
1700.90936,0.12554
1702.83783,0.12313
1704.76629,0.12324
1706.69476,0.12000
1708.62323,0.11351
1710.55170,0.11068
1712.48017,0.11468
1714.40864,0.12328
1716.33711,0.12898
1718.26558,0.12590
1720.19404,0.11961
1722.12251,0.11448
1724.05098,0.11073
1725.97945,0.10852
1727.90792,0.10926
1729.83639,0.11561
1731.76486,0.12632
1733.69332,0.13110
1735.62179,0.12233
1737.55026,0.11335
1739.47873,0.10948
1741.40720,0.11146
1743.33567,0.11429
1745.26414,0.11410
1747.19261,0.11320
1749.12107,0.11317
1751.04954,0.11399
1752.97801,0.11336
1754.90648,0.11124
1756.83495,0.10923
1758.76342,0.10820
1760.69189,0.10906
1762.62035,0.11112
1764.54882,0.11401
1766.47729,0.11757
1768.40576,0.12062
1770.33423,0.12210
1772.26270,0.11824
1774.19117,0.11274
1776.11964,0.11165
1778.04810,0.11175
1779.97657,0.11223
1781.90504,0.11323
1783.83351,0.11407
1785.76198,0.11364
1787.69045,0.11086
1789.61892,0.10788
1791.54738,0.10768
1793.47585,0.11101
1795.40432,0.11238
1797.33279,0.10873
1799.26126,0.10529
1801.18973,0.10651
1803.11820,0.10743
1805.04666,0.10544
1806.97513,0.10408
1808.90360,0.10692
1810.83207,0.11193
1812.76054,0.11224
1814.68901,0.10935
1816.61748,0.10853
1818.54595,0.10934
1820.47441,0.11098
1822.40288,0.11381
1824.33135,0.11649
1826.25982,0.11915
1828.18829,0.12145
1830.11676,0.11731
1832.04523,0.10934
1833.97369,0.10760
1835.90216,0.10861
1837.83063,0.10764
1839.75910,0.10763
1841.68757,0.10972
1843.61604,0.11272
1845.54451,0.11420
1847.47298,0.11294
1849.40144,0.11045
1851.32991,0.10851
1853.25838,0.10855
1855.18685,0.10871
1857.11532,0.10726
1859.04379,0.10744
1860.97226,0.11205
1862.90072,0.11520
1864.82919,0.11472
1866.75766,0.11672
1868.68613,0.11675
1870.61460,0.11123
1872.54307,0.11014
1874.47154,0.11276
1876.40001,0.11158
1878.32847,0.10631
1880.25694,0.10320
1882.18541,0.10459
1884.11388,0.10706
1886.04235,0.10763
1887.97082,0.10813
1889.89929,0.11113
1891.82775,0.11368
1893.75622,0.11212
1895.68469,0.10824
1897.61316,0.10444
1899.54163,0.10115
1901.47010,0.10146
1903.39857,0.10518
1905.32704,0.10878
1907.25550,0.11242
1909.18397,0.11445
1911.11244,0.11330
1913.04091,0.11176
1914.96938,0.11115
1916.89785,0.11062
1918.82632,0.10993
1920.75478,0.10990
1922.68325,0.11047
1924.61172,0.11158
1926.54019,0.11207
1928.46866,0.11052
1930.39713,0.10898
1932.32560,0.10773
1934.25407,0.10474
1936.18253,0.10270
1938.11100,0.10539
1940.03947,0.11010
1941.96794,0.11068
1943.89641,0.10889
1945.82488,0.11137
1947.75335,0.11568
1949.68181,0.11575
1951.61028,0.11231
1953.53875,0.10999
1955.46722,0.10950
1957.39569,0.11016
1959.32416,0.11205
1961.25263,0.11297
1963.18110,0.11142
1965.10956,0.10944
1967.03803,0.10800
1968.96650,0.10674
1970.89497,0.10726
1972.82344,0.10942
1974.75191,0.10992
1976.68038,0.10730
1978.60884,0.10563
1980.53731,0.10705
1982.46578,0.10787
1984.39425,0.10802
1986.32272,0.10932
1988.25119,0.11064
1990.17966,0.10993
1992.10812,0.10650
1994.03659,0.10437
1995.96506,0.10531
1997.89353,0.10654
1999.82200,0.10796
2001.75047,0.11033
2003.67894,0.11155
2005.60741,0.11022
2007.53587,0.10919
2009.46434,0.11045
2011.39281,0.11192
2013.32128,0.11265
2015.24975,0.11349
2017.17822,0.11368
2019.10669,0.11221
2021.03515,0.11174
2022.96362,0.11308
2024.89209,0.11222
2026.82056,0.11026
2028.74903,0.11084
2030.67750,0.11140
2032.60597,0.11051
2034.53444,0.11078
2036.46290,0.11110
2038.39137,0.10975
2040.31984,0.11076
2042.24831,0.11447
2044.17678,0.11550
2046.10525,0.11262
2048.03372,0.10869
2049.96218,0.10646
2051.89065,0.10687
2053.81912,0.10908
2055.74759,0.11173
2057.67606,0.11294
2059.60453,0.11143
2061.53300,0.10980
2063.46147,0.11044
2065.38993,0.11202
2067.31840,0.11308
2069.24687,0.11211
2071.17534,0.11052
2073.10381,0.11121
2075.03228,0.11355
2076.96075,0.11546
2078.88921,0.11638
2080.81768,0.11670
2082.74615,0.11427
2084.67462,0.11090
2086.60309,0.11137
2088.53156,0.11334
2090.46003,0.11539
2092.38850,0.11895
2094.31696,0.12001
2096.24543,0.11630
2098.17390,0.11184
2100.10237,0.10947
2102.03084,0.10921
2103.95931,0.10950
2105.88778,0.10910
2107.81624,0.11022
2109.74471,0.11268
2111.67318,0.11252
2113.60165,0.11036
2115.53012,0.10849
2117.45859,0.10664
2119.38706,0.10573
2121.31553,0.10556
2123.24399,0.10393
2125.17246,0.10326
2127.10093,0.10542
2129.02940,0.10557
2130.95787,0.10362
2132.88634,0.10394
2134.81481,0.10542
2136.74327,0.10735
2138.67174,0.10972
2140.60021,0.11118
2142.52868,0.11119
2144.45715,0.11074
2146.38562,0.11213
2148.31409,0.11403
2150.24255,0.11491
2152.17102,0.11504
2154.09949,0.11481
2156.02796,0.11590
2157.95643,0.11864
2159.88490,0.12204
2161.81337,0.12253
2163.74184,0.11891
2165.67030,0.11619
2167.59877,0.11572
2169.52724,0.11638
2171.45571,0.11875
2173.38418,0.12014
2175.31265,0.11857
2177.24112,0.11691
2179.16958,0.11622
2181.09805,0.11399
2183.02652,0.11038
2184.95499,0.10822
2186.88346,0.10917
2188.81193,0.11181
2190.74040,0.11219
2192.66887,0.11018
2194.59733,0.10881
2196.52580,0.10740
2198.45427,0.10554
2200.38274,0.10594
2202.31121,0.10768
2204.23968,0.10790
2206.16815,0.10749
2208.09661,0.10669
2210.02508,0.10515
2211.95355,0.10579
2213.88202,0.10849
2215.81049,0.11057
2217.73896,0.11278
2219.66743,0.11398
2221.59590,0.11258
2223.52436,0.11235
2225.45283,0.11319
2227.38130,0.11218
2229.30977,0.11144
2231.23824,0.11124
2233.16671,0.10990
2235.09518,0.10907
2237.02364,0.10977
2238.95211,0.11093
2240.88058,0.11128
2242.80905,0.10932
2244.73752,0.10651
2246.66599,0.10620
2248.59446,0.10711
2250.52293,0.10680
2252.45139,0.10666
2254.37986,0.10854
2256.30833,0.11099
2258.23680,0.11196
2260.16527,0.11323
2262.09374,0.11582
2264.02221,0.11711
2265.95067,0.11534
2267.87914,0.11178
2269.80761,0.11045
2271.73608,0.11222
2273.66455,0.11268
2275.59302,0.11127
2277.52149,0.11197
2279.44996,0.11396
2281.37842,0.11366
2283.30689,0.11287
2285.23536,0.11530
2287.16383,0.11870
2289.09230,0.11730
2291.02077,0.11107
2292.94924,0.10650
2294.87770,0.10699
2296.80617,0.10926
2298.73464,0.11064
2300.66311,0.11045
2302.59158,0.10848
2304.52005,0.10810
2306.44852,0.10971
2308.37699,0.10919
2310.30545,0.10717
2312.23392,0.10692
2314.16239,0.10914
2316.09086,0.11169
2318.01933,0.11120
2319.94780,0.10959
2321.87627,0.11170
2323.80473,0.11469
2325.73320,0.11128
2327.66167,0.10068
2329.59014,0.09414
2331.51861,0.10568
2333.44708,0.12569
2335.37555,0.13072
2337.30401,0.11865
2339.23248,0.10981
2341.16095,0.11497
2343.08942,0.12387
2345.01789,0.12450
2346.94636,0.11592
2348.87483,0.10744
2350.80330,0.10536
2352.73176,0.11452
2354.66023,0.13235
2356.58870,0.13468
2358.51717,0.10584
2360.44564,0.07579
2362.37411,0.07407
2364.30258,0.08779
2366.23104,0.10362
2368.15951,0.11221
2370.08798,0.10475
2372.01645,0.09690
2373.94492,0.09983
2375.87339,0.10457
2377.80186,0.10660
2379.73033,0.10959
2381.65879,0.11243
2383.58726,0.11206
2385.51573,0.11059
2387.44420,0.11128
2389.37267,0.11348
2391.30114,0.11431
2393.22961,0.11313
2395.15807,0.11319
2397.08654,0.11628
2399.01501,0.11768
2400.94348,0.11520
2402.87195,0.11338
2404.80042,0.11265
2406.72889,0.11139
2408.65736,0.11167
2410.58582,0.11183
2412.51429,0.11007
2414.44276,0.10996
2416.37123,0.11270
2418.29970,0.11590
2420.22817,0.11671
2422.15664,0.11466
2424.08510,0.11358
2426.01357,0.11461
2427.94204,0.11445
2429.87051,0.11302
2431.79898,0.11287
2433.72745,0.11407
2435.65592,0.11585
2437.58439,0.11755
2439.51285,0.11846
2441.44132,0.11826
2443.36979,0.11613
2445.29826,0.11387
2447.22673,0.11542
2449.15520,0.12088
2451.08367,0.12512
2453.01213,0.12328
2454.94060,0.11791
2456.86907,0.11415
2458.79754,0.11195
2460.72601,0.11066
2462.65448,0.11171
2464.58295,0.11346
2466.51142,0.11385
2468.43988,0.11405
2470.36835,0.11441
2472.29682,0.11394
2474.22529,0.11294
2476.15376,0.11199
2478.08223,0.11167
2480.01070,0.11267
2481.93916,0.11454
2483.86763,0.11603
2485.79610,0.11625
2487.72457,0.11534
2489.65304,0.11262
2491.58151,0.10832
2493.50998,0.10654
2495.43844,0.10858
2497.36691,0.11109
2499.29538,0.11232
2501.22385,0.11346
2503.15232,0.11482
2505.08079,0.11365
2507.00926,0.10883
2508.93773,0.10530
2510.86619,0.10758
2512.79466,0.11186
2514.72313,0.11353
2516.65160,0.11423
2518.58007,0.11600
2520.50854,0.11790
2522.43701,0.11870
2524.36547,0.11861
2526.29394,0.11871
2528.22241,0.11894
2530.15088,0.11784
2532.07935,0.11592
2534.00782,0.11507
2535.93629,0.11471
2537.86476,0.11467
2539.79322,0.11582
2541.72169,0.11698
2543.65016,0.11761
2545.57863,0.11807
2547.50710,0.11778
2549.43557,0.11828
2551.36404,0.11970
2553.29250,0.11828
2555.22097,0.11492
2557.14944,0.11338
2559.07791,0.11357
2561.00638,0.11390
2562.93485,0.11334
2564.86332,0.11249
2566.79179,0.11228
2568.72025,0.11226
2570.64872,0.11313
2572.57719,0.11569
2574.50566,0.11797
2576.43413,0.11916
2578.36260,0.12052
2580.29107,0.12040
2582.21953,0.11849
2584.14800,0.11762
2586.07647,0.11712
2588.00494,0.11653
2589.93341,0.11770
2591.86188,0.11919
2593.79035,0.11918
2595.71882,0.11953
2597.64728,0.11974
2599.57575,0.11626
2601.50422,0.11194
2603.43269,0.11188
2605.36116,0.11522
2607.28963,0.11978
2609.21810,0.12247
2611.14656,0.11983
2613.07503,0.11415
2615.00350,0.11092
2616.93197,0.11188
2618.86044,0.11470
2620.78891,0.11747
2622.71738,0.11896
2624.64585,0.11732
2626.57431,0.11435
2628.50278,0.11434
2630.43125,0.11798
2632.35972,0.12059
2634.28819,0.11862
2636.21666,0.11792
2638.14513,0.12222
2640.07359,0.12457
2642.00206,0.12145
2643.93053,0.11572
2645.85900,0.11075
2647.78747,0.11035
2649.71594,0.11348
2651.64441,0.11643
2653.57288,0.11925
2655.50134,0.12120
2657.42981,0.12067
2659.35828,0.11939
2661.28675,0.11909
2663.21522,0.11924
2665.14369,0.12051
2667.07216,0.12322
2669.00062,0.12444
2670.92909,0.12270
2672.85756,0.12024
2674.78603,0.11971
2676.71450,0.12138
2678.64297,0.12145
2680.57144,0.11833
2682.49990,0.11706
2684.42837,0.11827
2686.35684,0.11778
2688.28531,0.11677
2690.21378,0.11676
2692.14225,0.11799
2694.07072,0.12155
2695.99919,0.12576
2697.92765,0.12711
2699.85612,0.12392
2701.78459,0.11981
2703.71306,0.11930
2705.64153,0.12117
2707.57000,0.12074
2709.49847,0.11783
2711.42693,0.11658
2713.35540,0.11675
2715.28387,0.11899
2717.21234,0.12400
2719.14081,0.12559
2721.06928,0.12298
2722.99775,0.12218
2724.92622,0.12529
2726.85468,0.12896
2728.78315,0.12968
2730.71162,0.12799
2732.64009,0.12441
2734.56856,0.11968
2736.49703,0.11708
2738.42550,0.11918
2740.35396,0.12447
2742.28243,0.12639
2744.21090,0.12265
2746.13937,0.11908
2748.06784,0.11839
2749.99631,0.11971
2751.92478,0.12289
2753.85325,0.12520
2755.78171,0.12497
2757.71018,0.12325
2759.63865,0.12051
2761.56712,0.11876
2763.49559,0.11967
2765.42406,0.12115
2767.35253,0.12099
2769.28099,0.12001
2771.20946,0.12052
2773.13793,0.12270
2775.06640,0.12477
2776.99487,0.12443
2778.92334,0.12092
2780.85181,0.11855
2782.78028,0.11960
2784.70874,0.12209
2786.63721,0.12630
2788.56568,0.13052
2790.49415,0.13185
2792.42262,0.13125
2794.35109,0.12817
2796.27956,0.12255
2798.20802,0.11979
2800.13649,0.11945
2802.06496,0.11692
2803.99343,0.11607
2805.92190,0.11875
2807.85037,0.12105
2809.77884,0.12354
2811.70731,0.12807
2813.63577,0.13312
2815.56424,0.13466
2817.49271,0.13155
2819.42118,0.12904
2821.34965,0.12806
2823.27812,0.12332
2825.20659,0.11873
2827.13505,0.12118
2829.06352,0.12604
2830.99199,0.12890
2832.92046,0.13046
2834.84893,0.13058
2836.77740,0.13077
2838.70587,0.13143
2840.63433,0.13241
2842.56280,0.13306
2844.49127,0.13021
2846.41974,0.12573
2848.34821,0.12464
2850.27668,0.12651
2852.20515,0.12914
2854.13362,0.13170
2856.06208,0.13138
2857.99055,0.12807
2859.91902,0.12621
2861.84749,0.12745
2863.77596,0.12805
2865.70443,0.12558
2867.63290,0.12465
2869.56136,0.12777
2871.48983,0.13138
2873.41830,0.13131
2875.34677,0.12626
2877.27524,0.12190
2879.20371,0.12228
2881.13218,0.12456
2883.06065,0.12675
2884.98911,0.12841
2886.91758,0.12821
2888.84605,0.12740
2890.77452,0.12763
2892.70299,0.12681
2894.63146,0.12666
2896.55993,0.12890
2898.48839,0.12854
2900.41686,0.12400
2902.34533,0.11961
2904.27380,0.12011
2906.20227,0.12593
2908.13074,0.13065
2910.05921,0.13002
2911.98768,0.12864
2913.91614,0.13000
2915.84461,0.12915
2917.77308,0.12490
2919.70155,0.12317
2921.63002,0.12507
2923.55849,0.12662
2925.48696,0.12430
2927.41542,0.12297
2929.34389,0.12777
2931.27236,0.13093
2933.20083,0.12823
2935.12930,0.12558
2937.05777,0.12519
2938.98624,0.12557
2940.91471,0.12715
2942.84317,0.12899
2944.77164,0.12986
2946.70011,0.12962
2948.62858,0.12774
2950.55705,0.12666
2952.48552,0.12754
2954.41399,0.12795
2956.34245,0.12776
2958.27092,0.13008
2960.19939,0.13212
2962.12786,0.12867
2964.05633,0.12596
2965.98480,0.12843
2967.91327,0.13148
2969.84174,0.13245
2971.77020,0.13001
2973.69867,0.12459
2975.62714,0.12154
2977.55561,0.12305
2979.48408,0.12509
2981.41255,0.12717
2983.34102,0.12994
2985.26948,0.13119
2987.19795,0.13126
2989.12642,0.13219
2991.05489,0.13341
2992.98336,0.13417
2994.91183,0.13255
2996.84030,0.12717
2998.76877,0.12492
3000.69723,0.12717
3002.62570,0.12902
3004.55417,0.13029
3006.48264,0.12772
3008.41111,0.12282
3010.33958,0.12049
3012.26805,0.11489
3014.19651,0.10334
3016.12498,0.09609
3018.05345,0.10192
3019.98192,0.11790
3021.91039,0.13180
3023.83886,0.13623
3025.76733,0.13515
3027.69579,0.13447
3029.62426,0.13633
3031.55273,0.13578
3033.48120,0.13029
3035.40967,0.12649
3037.33814,0.12583
3039.26661,0.12422
3041.19508,0.12401
3043.12354,0.12955
3045.05201,0.13316
3046.98048,0.12930
3048.90895,0.12653
3050.83742,0.12725
3052.76589,0.12676
3054.69436,0.12619
3056.62282,0.12712
3058.55129,0.12897
3060.47976,0.13150
3062.40823,0.13199
3064.33670,0.12781
3066.26517,0.12133
3068.19364,0.11820
3070.12211,0.12037
3072.05057,0.12514
3073.97904,0.12970
3075.90751,0.12995
3077.83598,0.12765
3079.76445,0.12993
3081.69292,0.13403
3083.62139,0.13310
3085.54985,0.12854
3087.47832,0.12553
3089.40679,0.12533
3091.33526,0.12731
3093.26373,0.12931
3095.19220,0.12681
3097.12067,0.12286
3099.04914,0.12262
3100.97760,0.12269
3102.90607,0.12118
3104.83454,0.12180
3106.76301,0.12503
3108.69148,0.12683
3110.61995,0.12565
3112.54842,0.12611
3114.47688,0.12951
3116.40535,0.13016
3118.33382,0.12740
3120.26229,0.12360
3122.19076,0.12038
3124.11923,0.12296
3126.04770,0.12863
3127.97617,0.13056
3129.90463,0.12911
3131.83310,0.12653
3133.76157,0.12656
3135.69004,0.12830
3137.61851,0.12804
3139.54698,0.12922
3141.47545,0.13157
3143.40391,0.12932
3145.33238,0.12697
3147.26085,0.13142
3149.18932,0.13556
3151.11779,0.13249
3153.04626,0.12799
3154.97473,0.12821
3156.90320,0.12959
3158.83166,0.12769
3160.76013,0.12712
3162.68860,0.13025
3164.61707,0.13380
3166.54554,0.13610
3168.47401,0.13581
3170.40248,0.13469
3172.33094,0.13536
3174.25941,0.13484
3176.18788,0.13217
3178.11635,0.13214
3180.04482,0.13427
3181.97329,0.13480
3183.90176,0.13476
3185.83022,0.13545
3187.75869,0.13683
3189.68716,0.13791
3191.61563,0.13470
3193.54410,0.12650
3195.47257,0.12108
3197.40104,0.12330
3199.32951,0.12679
3201.25797,0.12380
3203.18644,0.11912
3205.11491,0.12155
3207.04338,0.12747
3208.97185,0.13055
3210.90032,0.13184
3212.82879,0.13438
3214.75725,0.13694
3216.68572,0.13803
3218.61419,0.13709
3220.54266,0.13111
3222.47113,0.12549
3224.39960,0.12732
3226.32807,0.13242
3228.25654,0.13420
3230.18500,0.13200
3232.11347,0.13065
3234.04194,0.13314
3235.97041,0.13908
3237.89888,0.14713
3239.82735,0.15191
3241.75582,0.14774
3243.68428,0.13795
3245.61275,0.13130
3247.54122,0.12995
3249.46969,0.13019
3251.39816,0.12993
3253.32663,0.12847
3255.25510,0.12444
3257.18357,0.12309
3259.11203,0.12992
3261.04050,0.13520
3262.96897,0.13300
3264.89744,0.13311
3266.82591,0.13778
3268.75438,0.13744
3270.68285,0.13017
3272.61131,0.12441
3274.53978,0.12521
3276.46825,0.12959
3278.39672,0.13230
3280.32519,0.12914
3282.25366,0.12087
3284.18213,0.11728
3286.11060,0.12230
3288.03906,0.12723
3289.96753,0.12999
3291.89600,0.13312
3293.82447,0.13428
3295.75294,0.13462
3297.68141,0.13649
3299.60988,0.13590
3301.53834,0.13245
3303.46681,0.13226
3305.39528,0.13377
3307.32375,0.13408
3309.25222,0.13462
3311.18069,0.13233
3313.10916,0.13014
3315.03763,0.13130
3316.96609,0.12959
3318.89456,0.12607
3320.82303,0.12412
3322.75150,0.12153
3324.67997,0.12098
3326.60844,0.12505
3328.53691,0.13097
3330.46537,0.13732
3332.39384,0.14221
3334.32231,0.13944
3336.25078,0.13220
3338.17925,0.13000
3340.10772,0.12780
3342.03619,0.12387
3343.96466,0.12731
3345.89312,0.13285
3347.82159,0.13283
3349.75006,0.13222
3351.67853,0.13234
3353.60700,0.13231
3355.53547,0.13275
3357.46394,0.13234
3359.39240,0.13193
3361.32087,0.13012
3363.24934,0.12725
3365.17781,0.12810
3367.10628,0.13165
3369.03475,0.13473
3370.96322,0.13773
3372.89168,0.13843
3374.82015,0.13305
3376.74862,0.12808
3378.67709,0.13040
3380.60556,0.13252
3382.53403,0.13118
3384.46250,0.13252
3386.39097,0.13426
3388.31943,0.13201
3390.24790,0.12875
3392.17637,0.12890
3394.10484,0.13310
3396.03331,0.13889
3397.96178,0.14410
3399.89025,0.14353
3401.81871,0.13561
3403.74718,0.12926
3405.67565,0.13008
3407.60412,0.13432
3409.53259,0.13799
3411.46106,0.13985
3413.38953,0.14043
3415.31800,0.14226
3417.24646,0.14174
3419.17493,0.13413
3421.10340,0.12610
3423.03187,0.12324
3424.96034,0.12136
3426.88881,0.11946
3428.81728,0.12316
3430.74574,0.13181
3432.67421,0.13611
3434.60268,0.13065
3436.53115,0.12026
3438.45962,0.11563
3440.38809,0.11981
3442.31656,0.12793
3444.24503,0.13365
3446.17349,0.13075
3448.10196,0.12367
3450.03043,0.12408
3451.95890,0.13040
3453.88737,0.13291
3455.81584,0.13233
3457.74431,0.13421
3459.67277,0.13727
3461.60124,0.13816
3463.52971,0.13476
3465.45818,0.12756
3467.38665,0.12153
3469.31512,0.12130
3471.24359,0.12096
3473.17206,0.11695
3475.10052,0.11729
3477.02899,0.12014
3478.95746,0.12061
3480.88593,0.12168
3482.81440,0.12128
3484.74287,0.11766
3486.67134,0.11590
3488.59980,0.11758
3490.52827,0.11853
3492.45674,0.11796
3494.38521,0.11700
3496.31368,0.11502
3498.24215,0.11243
3500.17062,0.11102
3502.09909,0.11211
3504.02755,0.11303
3505.95602,0.11141
3507.88449,0.10894
3509.81296,0.10478
3511.74143,0.09905
3513.66990,0.09664
3515.59837,0.09881
3517.52683,0.10348
3519.45530,0.10825
3521.38377,0.10788
3523.31224,0.10402
3525.24071,0.10649
3527.16918,0.11389
3529.09765,0.11702
3531.02611,0.11344
3532.95458,0.10815
3534.88305,0.10688
3536.81152,0.10719
3538.73999,0.10515
3540.66846,0.10306
3542.59693,0.10333
3544.52540,0.10684
3546.45386,0.11038
3548.38233,0.11135
3550.31080,0.11188
3552.23927,0.11239
3554.16774,0.11127
3556.09621,0.10813
3558.02468,0.10365
3559.95314,0.09814
3561.88161,0.09509
3563.81008,0.09702
3565.73855,0.10309
3567.66702,0.10902
3569.59549,0.10698
3571.52396,0.10098
3573.45243,0.09630
3575.38089,0.09488
3577.30936,0.09839
3579.23783,0.10455
3581.16630,0.10730
3583.09477,0.10480
3585.02324,0.10342
3586.95171,0.10895
3588.88017,0.11221
3590.80864,0.10713
3592.73711,0.10436
3594.66558,0.10611
3596.59405,0.10463
3598.52252,0.10148
3600.45099,0.09957
3602.37946,0.09592
3604.30792,0.09451
3606.23639,0.09907
3608.16486,0.10292
3610.09333,0.09656
3612.02180,0.08593
3613.95027,0.08190
3615.87874,0.08723
3617.80720,0.09835
3619.73567,0.10149
3621.66414,0.09250
3623.59261,0.08925
3625.52108,0.09336
3627.44955,0.09831
3629.37802,0.10042
3631.30649,0.09838
3633.23495,0.09519
3635.16342,0.09219
3637.09189,0.09041
3639.02036,0.09070
3640.94883,0.09097
3642.87730,0.08812
3644.80577,0.08621
3646.73423,0.09103
3648.66270,0.10007
3650.59117,0.10152
3652.51964,0.09684
3654.44811,0.09182
3656.37658,0.08655
3658.30505,0.08450
3660.23352,0.08416
3662.16198,0.08064
3664.09045,0.07818
3666.01892,0.08191
3667.94739,0.08903
3669.87586,0.09346
3671.80433,0.09016
3673.73280,0.08508
3675.66126,0.08693
3677.58973,0.09410
3679.51820,0.09651
3681.44667,0.09301
3683.37514,0.08658
3685.30361,0.08396
3687.23208,0.08909
3689.16055,0.09575
3691.08901,0.09222
3693.01748,0.08441
3694.94595,0.07891
3696.87442,0.07752
3698.80289,0.08334
3700.73136,0.09418
3702.65983,0.09856
3704.58829,0.09415
3706.51676,0.09221
3708.44523,0.09331
3710.37370,0.08826
3712.30217,0.07914
3714.23064,0.07952
3716.15911,0.08465
3718.08757,0.08817
3720.01604,0.09001
3721.94451,0.09205
3723.87298,0.09427
3725.80145,0.09199
3727.72992,0.08351
3729.65839,0.07790
3731.58686,0.08253
3733.51532,0.09522
3735.44379,0.10296
3737.37226,0.09982
3739.30073,0.09511
3741.22920,0.09517
3743.15767,0.09885
3745.08614,0.09785
3747.01460,0.09256
3748.94307,0.09013
3750.87154,0.08650
3752.80001,0.07662
3754.72848,0.07084
3756.65695,0.07588
3758.58542,0.08418
3760.51389,0.08541
3762.44235,0.08482
3764.37082,0.08391
3766.29929,0.08020
3768.22776,0.07934
3770.15623,0.08165
3772.08470,0.08044
3774.01317,0.07732
3775.94163,0.07816
3777.87010,0.08444
3779.79857,0.08924
3781.72704,0.08853
3783.65551,0.08819
3785.58398,0.08698
3787.51245,0.08329
3789.44092,0.08059
3791.36938,0.07952
3793.29785,0.08232
3795.22632,0.09031
3797.15479,0.09713
3799.08326,0.09844
3801.01173,0.09702
3802.94020,0.09034
3804.86866,0.08120
3806.79713,0.07675
3808.72560,0.07962
3810.65407,0.08367
3812.58254,0.08494
3814.51101,0.08518
3816.43948,0.08553
3818.36795,0.08270
3820.29641,0.07741
3822.22488,0.07324
3824.15335,0.07316
3826.08182,0.07695
3828.01029,0.08123
3829.93876,0.08239
3831.86723,0.08163
3833.79569,0.08129
3835.72416,0.08267
3837.65263,0.08224
3839.58110,0.07654
3841.50957,0.07617
3843.43804,0.08230
3845.36651,0.08458
3847.29498,0.08311
3849.22344,0.08238
3851.15191,0.08096
3853.08038,0.07821
3855.00885,0.07990
3856.93732,0.08108
3858.86579,0.07889
3860.79426,0.07754
3862.72272,0.07997
3864.65119,0.08216
3866.57966,0.08120
3868.50813,0.07924
3870.43660,0.07683
3872.36507,0.07715
3874.29354,0.07855
3876.22200,0.07560
3878.15047,0.07160
3880.07894,0.06997
3882.00741,0.07046
3883.93588,0.07362
3885.86435,0.07579
3887.79282,0.07402
3889.72129,0.07230
3891.64975,0.07270
3893.57822,0.07434
3895.50669,0.07494
3897.43516,0.07745
3899.36363,0.08396
3901.29210,0.08734
3903.22057,0.08246
3905.14903,0.07406
3907.07750,0.06863
3909.00597,0.06653
3910.93444,0.06824
3912.86291,0.07458
3914.79138,0.08265
3916.71985,0.08929
3918.64832,0.08986
3920.57678,0.08384
3922.50525,0.07805
3924.43372,0.07362
3926.36219,0.06945
3928.29066,0.06923
3930.21913,0.07155
3932.14760,0.07222
3934.07606,0.07205
3936.00453,0.07136
3937.93300,0.06920
3939.86147,0.06696
3941.78994,0.06616
3943.71841,0.06694
3945.64688,0.06968
3947.57535,0.07501
3949.50381,0.07838
3951.43228,0.07574
3953.36075,0.07121
3955.28922,0.06796
3957.21769,0.06700
3959.14616,0.06702
3961.07463,0.06673
3963.00309,0.06807
3964.93156,0.06730
3966.86003,0.06432
3968.78850,0.06524
3970.71697,0.06727
3972.64544,0.06873
3974.57391,0.07310
3976.50238,0.07557
3978.43084,0.07163
3980.35931,0.06770
3982.28778,0.06905
3984.21625,0.07035
3986.14472,0.06632
3988.07319,0.06127
3990.00166,0.06116
3991.93012,0.06477
3993.85859,0.06752
3995.78706,0.06798
3997.71553,0.06628
3999.64400,0.06331
4001.57247,0.06446
4003.50094,0.07027
4005.42941,0.07315
4007.35787,0.07343
4009.28634,0.07483
4011.21481,0.07372
4013.14328,0.06892
4015.07175,0.06480
4017.00022,0.06309
4018.92869,0.06063
4020.85715,0.05851
4022.78562,0.06115
4024.71409,0.06474
4026.64256,0.06419
4028.57103,0.06362
4030.49950,0.06515
4032.42797,0.06428
4034.35644,0.06261
4036.28490,0.06442
4038.21337,0.06425
4040.14184,0.05620
4042.07031,0.04885
4043.99878,0.05247
4045.92725,0.06094
4047.85572,0.06241
4049.78418,0.05694
4051.71265,0.05308
4053.64112,0.05268
4055.56959,0.05272
4057.49806,0.05598
4059.42653,0.06271
4061.35500,0.06740
4063.28346,0.06677
4065.21193,0.06379
4067.14040,0.06344
4069.06887,0.06377
4070.99734,0.06272
4072.92581,0.06201
4074.85428,0.06061
4076.78275,0.05904
4078.71121,0.05759
4080.63968,0.05396
4082.56815,0.05088
4084.49662,0.05051
4086.42509,0.04962
4088.35356,0.04829
4090.28203,0.04945
4092.21049,0.05387
4094.13896,0.06159
4096.06743,0.06763
4097.99590,0.06626
4099.92437,0.06285
4101.85284,0.06131
4103.78131,0.05848
4105.70978,0.05631
4107.63824,0.05580
4109.56671,0.05736
4111.49518,0.06230
4113.42365,0.06381
4115.35212,0.05946
4117.28059,0.05468
4119.20906,0.05284
4121.13752,0.05547
4123.06599,0.05955
4124.99446,0.06215
4126.92293,0.06398
4128.85140,0.06367
4130.77987,0.05976
4132.70834,0.05663
4134.63681,0.05538
4136.56527,0.05172
4138.49374,0.05093
4140.42221,0.05570
4142.35068,0.05724
4144.27915,0.05338
4146.20762,0.05074
4148.13609,0.05280
4150.06455,0.05592
4151.99302,0.05709
4153.92149,0.05449
4155.84996,0.04792
4157.77843,0.04629
4159.70690,0.05466
4161.63537,0.05988
4163.56384,0.05045
4165.49230,0.03625
4167.42077,0.03252
4169.34924,0.04095
4171.27771,0.04949
4173.20618,0.04949
4175.13465,0.04807
4177.06312,0.04827
4178.99158,0.04693
4180.92005,0.04841
4182.84852,0.05247
4184.77699,0.05400
4186.70546,0.05265
4188.63393,0.04827
4190.56240,0.04232
4192.49087,0.03828
4194.41933,0.03483
4196.34780,0.03275
4198.27627,0.03524
4200.20474,0.03821
4202.13321,0.03865
4204.06168,0.03833
4205.99015,0.03965
4207.91861,0.04482
4209.84708,0.05180
4211.77555,0.05538
4213.70402,0.05315
4215.63249,0.04793
4217.56096,0.04239
4219.48943,0.04078
4221.41789,0.04671
4223.34636,0.05473
4225.27483,0.05930
4227.20330,0.06126
4229.13177,0.05953
4231.06024,0.05343
4232.98871,0.04963
4234.91718,0.04577
4236.84564,0.03638
4238.77411,0.03272
4240.70258,0.03729
4242.63105,0.03975
4244.55952,0.03849
4246.48799,0.03646
4248.41646,0.03866
4250.34492,0.04334
4252.27339,0.04251
4254.20186,0.04250
4256.13033,0.04754
4258.05880,0.04675
4259.98727,0.04144
4261.91574,0.04077
4263.84421,0.04261
4265.77267,0.04383
4267.70114,0.04312
4269.62961,0.04060
4271.55808,0.04183
4273.48655,0.04548
4275.41502,0.04276
4277.34349,0.03496
4279.27195,0.03412
4281.20042,0.04117
4283.12889,0.04143
4285.05736,0.03405
4286.98583,0.03280
4288.91430,0.03909
4290.84277,0.04153
4292.77124,0.03777
4294.69970,0.03922
4296.62817,0.04427
4298.55664,0.04163
4300.48511,0.03541
4302.41358,0.03455
4304.34205,0.03659
4306.27052,0.03475
4308.19898,0.03183
4310.12745,0.03470
4312.05592,0.03975
4313.98439,0.03887
4315.91286,0.03272
4317.84133,0.02603
4319.76980,0.02186
4321.69827,0.02425
4323.62673,0.03191
4325.55520,0.03702
4327.48367,0.03743
4329.41214,0.03878
4331.34061,0.04105
4333.26908,0.03844
4335.19755,0.03260
4337.12601,0.03243
4339.05448,0.03865
4340.98295,0.04177
4342.91142,0.03961
4344.83989,0.03472
4346.76836,0.03018
4348.69683,0.03229
4350.62530,0.03892
4352.55376,0.04279
4354.48223,0.04013
4356.41070,0.03373
4358.33917,0.03035
4360.26764,0.03108
4362.19611,0.03264
4364.12458,0.02887
4366.05304,0.02021
4367.98151,0.01788
4369.90998,0.02365
4371.83845,0.02933
4373.76692,0.03207
4375.69539,0.03216
4377.62386,0.02734
4379.55232,0.01938
4381.48079,0.01796
4383.40926,0.02293
4385.33773,0.02481
4387.26620,0.02596
4389.19467,0.02893
4391.12314,0.02768
4393.05161,0.01961
4394.98007,0.01104
4396.90854,0.01152
4398.83701,0.01946
4400.76548,0.02873
4402.69395,0.03321
4404.62242,0.02448
4406.55089,0.00973
4408.47935,0.00664
4410.40782,0.01426
4412.33629,0.01907
4414.26476,0.02089
4416.19323,0.02373
4418.12170,0.02385
4420.05017,0.02217
4421.97864,0.02208
4423.90710,0.01801
4425.83557,0.01055
4427.76404,0.01001
4429.69251,0.01547
4431.62098,0.02169
4433.54945,0.02826
4435.47792,0.03202
4437.40638,0.02737
4439.33485,0.02101
4441.26332,0.02865
4443.19179,0.04022
4445.12026,0.03472
4447.04873,0.02055
4448.97720,0.01697
4450.90567,0.02294
4452.83413,0.02382
4454.76260,0.01821
4456.69107,0.01725
4458.61954,0.02086
4460.54801,0.02156
4462.47648,0.02149
4464.40495,0.02453
4466.33341,0.02915
4468.26188,0.03141
4470.19035,0.02695
4472.11882,0.01889
4474.04729,0.01350
4475.97576,0.01248
4477.90423,0.01260
4479.83270,0.00710
4481.76116,0.00090
4483.68963,0.00610
4485.61810,0.01604
4487.54657,0.01788
4489.47504,0.01905
4491.40351,0.02937
4493.33198,0.03687
4495.26044,0.03328
4497.18891,0.03000
4499.11738,0.02789
4501.04585,0.01971
4502.97432,0.00815
4504.90279,0.00299
4506.83126,0.00703
4508.75973,0.00721
4510.68819,0.00423
4512.61666,0.00835
4514.54513,0.01108
4516.47360,0.00567
4518.40207,-0.00040
4520.33054,0.00006
4522.25901,0.00403
4524.18747,0.00735
4526.11594,0.01193
4528.04441,0.01668
4529.97288,0.01911
4531.90135,0.01628
4533.82982,0.00416
4535.75829,-0.00938
4537.68676,-0.01042
4539.61522,-0.00314
4541.54369,0.00178
4543.47216,0.00517
4545.40063,0.00570
4547.32910,0.00401
4549.25757,0.00807
4551.18604,0.01461
4553.11450,0.01610
4555.04297,0.01484
4556.97144,0.01345
4558.89991,0.01114
4560.82838,0.00949
4562.75685,0.01068
4564.68532,0.01349
4566.61378,0.01423
4568.54225,0.01041
4570.47072,0.00370
4572.39919,0.00042
4574.32766,0.00404
4576.25613,0.00815
4578.18460,0.00807
4580.11307,0.00576
4582.04153,-0.00153
4583.97000,-0.01116
4585.89847,-0.01222
4587.82694,-0.00856
4589.75541,-0.00637
4591.68388,0.00216
4593.61235,0.01233
4595.54081,0.01145
4597.46928,0.00407
4599.39775,0.00263
4601.32622,0.00957
4603.25469,0.01450
4605.18316,0.01609
4607.11163,0.01554
4609.04010,0.00634
4610.96856,-0.00444
4612.89703,-0.00992
4614.82550,-0.00892
4616.75397,0.00228
4618.68244,0.01196
4620.61091,0.00904
4622.53938,0.00178
4624.46784,-0.00070
4626.39631,-0.00092
4628.32478,-0.00160
4630.25325,0.00237
4632.18172,0.00673
4634.11019,0.00444
4636.03866,0.00104
4637.96713,0.00152
4639.89559,0.00761
4641.82406,0.01228
4643.75253,0.00385
4645.68100,-0.01295
4647.60947,-0.01976
4649.53794,-0.01393
4651.46641,-0.01031
4653.39487,-0.00932
4655.32334,-0.00321
4657.25181,0.00760
4659.18028,0.01060
4661.10875,-0.00380
4663.03722,-0.01584
4664.96569,-0.00799
4666.89416,0.00424
4668.82262,0.00477
4670.75109,0.00013
4672.67956,0.00017
4674.60803,0.00437
4676.53650,0.00735
4678.46497,0.00259
4680.39344,-0.00480
4682.32190,-0.00650
4684.25037,-0.00069
4686.17884,0.00899
4688.10731,0.01478
4690.03578,0.01172
4691.96425,0.00176
4693.89272,-0.00815
4695.82119,-0.00577
4697.74965,0.00761
4699.67812,0.01343
4701.60659,0.01144
4703.53506,0.01286
4705.46353,0.01142
4707.39200,0.00923
4709.32047,0.01737
4711.24893,0.02495
4713.17740,0.01697
4715.10587,0.00386
4717.03434,0.00288
4718.96281,0.01201
4720.89128,0.01617
4722.81975,0.01054
4724.74821,0.00599
4726.67668,0.01027
4728.60515,0.01486
4730.53362,0.00926
4732.46209,0.00396
4734.39056,0.00980
4736.31903,0.01392
4738.24750,0.00974
4740.17596,0.00747
4742.10443,0.00838
4744.03290,0.00745
4745.96137,0.00603
4747.88984,0.00501
4749.81831,0.00354
4751.74678,0.00180
4753.67524,-0.00009
4755.60371,0.00217
4757.53218,0.00830
4759.46065,0.01122
4761.38912,0.01138
4763.31759,0.01019
4765.24606,0.00929
4767.17453,0.01152
4769.10299,0.01092
4771.03146,0.00458
4772.95993,0.00070
4774.88840,0.00357
4776.81687,0.00613
4778.74534,0.00915
4780.67381,0.01705
4782.60227,0.02122
4784.53074,0.02081
4786.45921,0.01988
4788.38768,0.01101
4790.31615,-0.00655
4792.24462,-0.01622
4794.17309,-0.00469
4796.10156,0.01386
4798.03002,0.01436
4799.95849,0.00062
4801.88696,0.00030
4803.81543,0.01235
4805.74390,0.01387
4807.67237,0.00656
4809.60084,-0.00144
4811.52930,-0.00707
4813.45777,-0.00107
4815.38624,0.00954
4817.31471,0.01191
4819.24318,0.00946
4821.17165,0.00815
4823.10012,0.00371
4825.02859,-0.00251
4826.95705,-0.00909
4828.88552,-0.01476
4830.81399,-0.01766
4832.74246,-0.01645
4834.67093,-0.00498
4836.59940,0.00741
4838.52787,0.00321
4840.45633,-0.00860
4842.38480,-0.00333
4844.31327,0.01181
4846.24174,0.01237
4848.17021,0.01009
4850.09868,0.02197
4852.02715,0.03512
4853.95562,0.03295
4855.88408,0.01979
4857.81255,0.01376
4859.74102,0.02610
4861.66949,0.04446
4863.59796,0.04266
4865.52643,0.02345
4867.45490,0.00903
4869.38336,0.00710
4871.31183,0.01875
4873.24030,0.03424
4875.16877,0.03306
4877.09724,0.01985
4879.02571,0.01634
4880.95418,0.01764
4882.88265,0.00990
4884.81111,0.00597
4886.73958,0.01726
4888.66805,0.02469
4890.59652,0.01563
4892.52499,0.00794
4894.45346,0.00438
4896.38193,-0.00376
4898.31039,-0.00406
4900.23886,0.01000
4902.16733,0.02303
4904.09580,0.01991
4906.02427,0.00395
4907.95274,-0.00617
4909.88121,0.00223
4911.80967,0.01771
4913.73814,0.01818
4915.66661,0.00188
4917.59508,-0.01381
4919.52355,-0.01247
4921.45202,0.00095
4923.38049,0.00598
4925.30896,0.00013
4927.23742,-0.00015
4929.16589,0.00885
4931.09436,0.01478
4933.02283,0.01427
4934.95130,0.01583
4936.87977,0.01616
4938.80824,0.01017
4940.73670,0.00546
4942.66517,-0.00081
4944.59364,-0.00342
4946.52211,0.01305
4948.45058,0.02614
4950.37905,0.01508
4952.30752,0.00392
4954.23599,0.00792
4956.16445,0.00880
4958.09292,0.00127
4960.02139,0.01060
4961.94986,0.03903
4963.87833,0.04734
4965.80680,0.02596
4967.73527,0.00649
4969.66373,0.00921
4971.59220,0.02794
4973.52067,0.03654
4975.44914,0.02278
4977.37761,0.00755
4979.30608,0.00702
4981.23455,0.01003
4983.16302,0.00612
4985.09148,0.00148
4987.01995,0.00377
4988.94842,0.01074
4990.87689,0.01539
4992.80536,0.01842
4994.73383,0.02242
4996.66230,0.02722
4998.59076,0.02820
5000.51923,0.01604
5002.44770,0.00023
5004.37617,-0.00087
5006.30464,0.00947
5008.23311,0.01792
5010.16158,0.01170
5012.09005,-0.00549
5014.01851,-0.01289
5015.94698,-0.00889
5017.87545,-0.00280
5019.80392,0.00124
5021.73239,0.00096
5023.66086,0.00127
5025.58933,0.00493
5027.51779,0.01025
5029.44626,0.01924
5031.37473,0.03245
5033.30320,0.04046
5035.23167,0.03601
5037.16014,0.02582
5039.08861,0.01594
5041.01708,0.01103
5042.94554,0.01604
5044.87401,0.01631
5046.80248,0.00026
5048.73095,-0.00715
5050.65942,0.00600
5052.58789,0.01955
5054.51636,0.02573
5056.44482,0.02547
5058.37329,0.02051
5060.30176,0.01786
5062.23023,0.01971
5064.15870,0.02036
5066.08717,0.01555
5068.01564,0.00970
5069.94410,0.01020
5071.87257,0.02067
5073.80104,0.02925
5075.72951,0.02291
5077.65798,0.01134
5079.58645,0.00928
5081.51492,0.01492
5083.44339,0.02056
5085.37185,0.02421
5087.30032,0.02493
5089.22879,0.02167
5091.15726,0.01272
5093.08573,0.00668
5095.01420,0.01259
5096.94267,0.02309
5098.87113,0.02991
5100.79960,0.02118
5102.72807,-0.00058
5104.65654,-0.00909
5106.58501,0.00279
5108.51348,0.01731
5110.44195,0.01951
5112.37042,0.00919
5114.29888,0.00253
5116.22735,0.01603
5118.15582,0.03987
5120.08429,0.04981
5122.01276,0.03769
5123.94123,0.01708
5125.86970,0.01108
5127.79816,0.02075
5129.72663,0.02428
5131.65510,0.01953
5133.58357,0.02389
5135.51204,0.03657
5137.44051,0.03481
5139.36898,0.01528
5141.29745,0.00042
5143.22591,0.00072
5145.15438,0.01334
5147.08285,0.02978
5149.01132,0.03699
5150.93979,0.02749
5152.86826,0.01197
5154.79673,0.01378
5156.72519,0.02391
5158.65366,0.01639
5160.58213,0.00042
5162.51060,-0.00733
5164.43907,-0.00949
5166.36754,-0.01065
5168.29601,-0.00136
5170.22448,0.01676
5172.15294,0.02720
5174.08141,0.02948
5176.00988,0.03163
5177.93835,0.03940
5179.86682,0.05096
5181.79529,0.05514
5183.72376,0.04960
5185.65222,0.03600
5187.58069,0.01558
5189.50916,0.00535
5191.43763,0.01473
5193.36610,0.02918
5195.29457,0.03832
5197.22304,0.03464
5199.15151,0.02321
5201.07997,0.02452
5203.00844,0.03087
5204.93691,0.03551
5206.86538,0.04858
5208.79385,0.05302
5210.72232,0.03867
5212.65079,0.01840
5214.57925,0.00252
5216.50772,-0.00097
5218.43619,-0.00072
5220.36466,-0.00056
5222.29313,0.00719
5224.22160,0.00118
5226.15007,-0.01939
5228.07854,-0.00719
5230.00700,0.03559
5231.93547,0.06738
5233.86394,0.07226
5235.79241,0.06070
5237.72088,0.04896
5239.64935,0.04297
5241.57782,0.03998
5243.50628,0.03759
5245.43475,0.03140
5247.36322,0.02267
5249.29169,0.01940
5251.22016,0.02344
5253.14863,0.03837
5255.07710,0.05522
5257.00556,0.04561
5258.93403,0.02590
5260.86250,0.03506
5262.79097,0.06334
5264.71944,0.06961
5266.64791,0.05130
5268.57638,0.03822
5270.50485,0.03290
5272.43331,0.02877
5274.36178,0.02903
5276.29025,0.02792
5278.21872,0.02225
5280.14719,0.01694
5282.07566,0.02314
5284.00413,0.03597
5285.93259,0.03275
5287.86106,0.03048
5289.78953,0.04887
5291.71800,0.05520
5293.64647,0.03974
5295.57494,0.03400
5297.50341,0.04186
5299.43188,0.05082
5301.36034,0.05326
5303.28881,0.04201
5305.21728,0.03015
5307.14575,0.03294
5309.07422,0.04172
5311.00269,0.04038
5312.93116,0.02043
5314.85962,-0.00574
5316.78809,-0.01376
5318.71656,0.00623
5320.64503,0.04370
5322.57350,0.07358
5324.50197,0.07033
5326.43044,0.05390
5328.35891,0.06843
5330.28737,0.08427
5332.21584,0.06836
5334.14431,0.04213
5336.07278,0.01786
5338.00125,0.01034
5339.92972,0.02451
5341.85819,0.03603
5343.78665,0.05078
5345.71512,0.07156
5347.64359,0.06018
5349.57206,0.01636
5351.50053,-0.00532
5353.42900,0.01365
5355.35747,0.03789
5357.28594,0.05683
5359.21440,0.06083
5361.14287,0.04688
5363.07134,0.04969
5364.99981,0.06647
5366.92828,0.06086
5368.85675,0.04653
5370.78522,0.04562
5372.71368,0.05324
5374.64215,0.06402
5376.57062,0.06196
5378.49909,0.04521
5380.42756,0.03406
5382.35603,0.02822
5384.28450,0.02365
5386.21297,0.02097
5388.14143,0.01713
5390.06990,0.01379
5391.99837,0.02622
5393.92684,0.04572
5395.85531,0.03305
5397.78378,0.00720
5399.71225,0.00585
5401.64071,0.02131
5403.56918,0.03347
5405.49765,0.03380
5407.42612,0.03329
5409.35459,0.05639
5411.28306,0.09078
5413.21153,0.08606
5415.13999,0.05328
5417.06846,0.03118
5418.99693,0.02098
5420.92540,0.02913
5422.85387,0.04564
5424.78234,0.05127
5426.71081,0.05212
5428.63928,0.05067
5430.56774,0.04171
5432.49621,0.02975
5434.42468,0.02579
5436.35315,0.03707
5438.28162,0.04099
5440.21009,0.03011
5442.13856,0.03187
5444.06702,0.04168
5445.99549,0.03257
5447.92396,0.02662
5449.85243,0.05494
5451.78090,0.08793
5453.70937,0.09860
5455.63784,0.09679
5457.56631,0.08781
5459.49477,0.08081
5461.42324,0.07979
5463.35171,0.06270
5465.28018,0.03989
5467.20865,0.03873
5469.13712,0.04655
5471.06559,0.05567
5472.99405,0.05910
5474.92252,0.02976
5476.85099,-0.00485
5478.77946,0.00433
5480.70793,0.03831
5482.63640,0.05990
5484.56487,0.07157
5486.49334,0.09050
5488.42180,0.10339
5490.35027,0.09481
5492.27874,0.06532
5494.20721,0.03474
5496.13568,0.02791
5498.06415,0.03134
5499.99262,0.02257
5501.92108,0.01311
5503.84955,0.02702
5505.77802,0.06178
5507.70649,0.08896
5509.63496,0.07966
5511.56343,0.04163
5513.49190,0.02179
5515.42037,0.05209
5517.34883,0.10530
5519.27730,0.13091
5521.20577,0.10926
5523.13424,0.06767
5525.06271,0.04934
5526.99118,0.06476
5528.91965,0.08577
5530.84811,0.08821
5532.77658,0.08987
5534.70505,0.11014
5536.63352,0.11967
5538.56199,0.08932
5540.49046,0.05304
5542.41893,0.04816
5544.34740,0.05871
5546.27586,0.05348
5548.20433,0.02775
5550.13280,0.00820
5552.06127,0.00463
5553.98974,0.00256
5555.91821,0.00999
5557.84668,0.03845
5559.77514,0.06789
5561.70361,0.08871
5563.63208,0.11684
5565.56055,0.14376
5567.48902,0.12240
5569.41749,0.04989
5571.34596,-0.00359
5573.27443,-0.00708
5575.20289,0.01606
5577.13136,0.03952
5579.05983,0.03372
5580.98830,0.01196
5582.91677,0.00552
5584.84524,0.00510
5586.77371,0.01398
5588.70217,0.02897
5590.63064,0.01822
5592.55911,0.00196
5594.48758,0.01670
5596.41605,0.03551
5598.34452,0.03184
5600.27299,0.00863
5602.20145,-0.01386
5604.12992,0.00014
5606.05839,0.03347
5607.98686,0.05609
5609.91533,0.08637
5611.84380,0.10832
5613.77227,0.09219
5615.70074,0.08669
5617.62920,0.10760
5619.55767,0.10192
5621.48614,0.07142
5623.41461,0.05201
5625.34308,0.05199
5627.27155,0.06132
5629.20002,0.05776
5631.12848,0.03489
5633.05695,-0.00017
5634.98542,-0.03018
5636.91389,-0.02323
5638.84236,0.01997
5640.77083,0.05796
5642.69930,0.06941
5644.62777,0.06208
5646.55623,0.04169
5648.48470,0.02955
5650.41317,0.04551
5652.34164,0.06031
5654.27011,0.04021
5656.19858,0.00778
5658.12705,0.00695
5660.05551,0.03354
5661.98398,0.04455
5663.91245,0.04147
5665.84092,0.05783
5667.76939,0.07425
5669.69786,0.06193
5671.62633,0.04155
5673.55480,0.04447
5675.48326,0.07515
5677.41173,0.09410
5679.34020,0.07464
5681.26867,0.05919
5683.19714,0.07394
5685.12561,0.08316
5687.05408,0.05897
5688.98254,0.03000
5690.91101,0.02815
5692.83948,0.03602
5694.76795,0.03623
5696.69642,0.04411
5698.62489,0.07566
5700.55336,0.11249
5702.48183,0.11713
5704.41029,0.09166
5706.33876,0.08433
5708.26723,0.09517
5710.19570,0.06580
5712.12417,0.00843
5714.05264,-0.00211
5715.98111,0.02729
5717.90957,0.03643
5719.83804,0.03308
5721.76651,0.06069
5723.69498,0.10738
5725.62345,0.12592
5727.55192,0.10449
5729.48039,0.08407
5731.40886,0.08322
5733.33732,0.06986
5735.26579,0.04303
5737.19426,0.02519
5739.12273,0.02235
5741.05120,0.03869
5742.97967,0.04983
5744.90814,0.04159
5746.83660,0.03356
5748.76507,0.03013
5750.69354,0.03697
5752.62201,0.05212
5754.55048,0.04905
5756.47895,0.04511
5758.40742,0.06191
5760.33588,0.07550
5762.26435,0.06779
5764.19282,0.05108
5766.12129,0.04735
5768.04976,0.05529
5769.97823,0.07251
5771.90670,0.09847
5773.83517,0.10217
5775.76363,0.07059
5777.69210,0.04314
5779.62057,0.05178
5781.54904,0.06400
5783.47751,0.05037
5785.40598,0.03182
5787.33445,0.03175
5789.26291,0.03878
5791.19138,0.04523
5793.11985,0.07232
5795.04832,0.10298
5796.97679,0.10120
5798.90526,0.06666
5800.83373,0.02305
5802.76220,-0.00174
5804.69066,-0.00097
5806.61913,0.01475
5808.54760,0.03068
5810.47607,0.04342
5812.40454,0.06686
5814.33301,0.08889
5816.26148,0.07294
5818.18994,0.04264
5820.11841,0.05573
5822.04688,0.08803
5823.97535,0.08494
5825.90382,0.05870
5827.83229,0.05378
5829.76076,0.07273
5831.68923,0.07119
5833.61769,0.04374
5835.54616,0.04345
5837.47463,0.08084
5839.40310,0.09768
5841.33157,0.06683
5843.26004,0.03860
5845.18851,0.05479
5847.11697,0.07817
5849.04544,0.06104
5850.97391,0.02776
5852.90238,0.02453
5854.83085,0.04200
5856.75932,0.05811
5858.68779,0.06136
5860.61626,0.04559
5862.54472,0.03016
5864.47319,0.01010
5866.40166,-0.01077
5868.33013,0.00393
5870.25860,0.03859
5872.18707,0.06805
5874.11554,0.08377
5876.04400,0.07743
5877.97247,0.05467
5879.90094,0.02794
5881.82941,0.01251
5883.75788,0.01046
5885.68635,0.02218
5887.61482,0.03054
5889.54329,0.00877
5891.47175,-0.00594
5893.40022,0.00763
5895.32869,0.02168
5897.25716,0.04318
5899.18563,0.07165
5901.11410,0.08612
5903.04257,0.07801
5904.97103,0.04356
5906.89950,-0.01078
5908.82797,-0.05077
5910.75644,-0.03692
5912.68491,0.00841
5914.61338,0.04783
5916.54185,0.07245
5918.47032,0.08096
5920.39878,0.06437
5922.32725,0.04426
5924.25572,0.06242
5926.18419,0.07909
5928.11266,0.06825
5930.04113,0.07974
5931.96960,0.09965
5933.89806,0.09562
5935.82653,0.10070
5937.75500,0.11395
5939.68347,0.10140
5941.61194,0.07851
5943.54041,0.06651
5945.46888,0.06298
5947.39734,0.05791
5949.32581,0.05513
5951.25428,0.05958
5953.18275,0.05510
5955.11122,0.06120
5957.03969,0.08837
5958.96816,0.08394
5960.89663,0.02056
5962.82509,-0.02922
5964.75356,0.00081
5966.68203,0.05844
5968.61050,0.05919
5970.53897,0.01715
5972.46744,-0.02551
5974.39591,-0.05534
5976.32437,-0.04667
5978.25284,0.00968
5980.18131,0.07673
5982.10978,0.10354
5984.03825,0.08038
5985.96672,0.04384
5987.89519,0.02124
5989.82366,0.01244
5991.75212,0.02926
5993.68059,0.05901
5995.60906,0.05201
5997.53753,0.02327
5999.46600,-0.00313
6001.39447,-0.02559
6003.32294,-0.00821
6005.25140,0.02384
6007.17987,0.01560
6009.10834,0.01878
6011.03681,0.07864
6012.96528,0.12467
6014.89375,0.11349
6016.82222,0.09884
6018.75069,0.10184
6020.67915,0.10428
6022.60762,0.12582
6024.53609,0.13850
6026.46456,0.09649
6028.39303,0.04215
6030.32150,0.03241
6032.24997,0.05341
6034.17843,0.05561
6036.10690,0.00985
6038.03537,-0.04744
6039.96384,-0.05444
6041.89231,0.00639
6043.82078,0.07215
6045.74925,0.09431
6047.67772,0.10695
6049.60618,0.10215
6051.53465,0.07029
6053.46312,0.06134
6055.39159,0.09082
6057.32006,0.12934
6059.24853,0.13985
6061.17700,0.10629
6063.10546,0.06146
6065.03393,0.04645
6066.96240,0.04484
6068.89087,0.04952
6070.81934,0.07032
6072.74781,0.06319
6074.67628,0.02327
6076.60475,0.00749
6078.53321,0.00815
6080.46168,0.01383
6082.39015,0.05827
6084.31862,0.11698
6086.24709,0.13861
6088.17556,0.12406
6090.10403,0.09527
6092.03249,0.07059
6093.96096,0.05962
6095.88943,0.07510
6097.81790,0.10084
6099.74637,0.07770
6101.67484,0.04462
6103.60331,0.06150
6105.53177,0.05965
6107.46024,0.02083
6109.38871,0.02558
6111.31718,0.05949
6113.24565,0.06131
6115.17412,0.05974
6117.10259,0.07048
6119.03106,0.06088
6120.95952,0.05113
6122.88799,0.04854
6124.81646,0.02850
6126.74493,0.01814
6128.67340,0.03391
6130.60187,0.05558
6132.53034,0.08450
6134.45880,0.11397
6136.38727,0.11748
6138.31574,0.09009
6140.24421,0.06448
6142.17268,0.05741
6144.10115,0.02982
6146.02962,-0.01919
6147.95809,-0.04718
6149.88655,-0.05201
6151.81502,-0.05332
6153.74349,-0.04334
6155.67196,-0.01030
6157.60043,0.02534
6159.52890,0.05051
6161.45737,0.04238
6163.38583,-0.01224
6165.31430,-0.04243
6167.24277,-0.00920
6169.17124,0.04100
6171.09971,0.06209
6173.02818,0.04525
6174.95665,0.03233
6176.88512,0.04577
6178.81358,0.05822
6180.74205,0.05936
6182.67052,0.05909
6184.59899,0.05445
6186.52746,0.02289
6188.45593,-0.03227
6190.38440,-0.02841
6192.31286,0.04555
6194.24133,0.09212
6196.16980,0.06829
6198.09827,0.03028
6200.02674,0.01372
6201.95521,0.01021
6203.88368,0.03775
6205.81215,0.06760
6207.74061,0.05904
6209.66908,0.04312
6211.59755,0.05686
6213.52602,0.09867
6215.45449,0.13561
6217.38296,0.14901
6219.31143,0.12006
6221.23989,0.05607
6223.16836,0.01495
6225.09683,0.01001
6227.02530,-0.02222
6228.95377,-0.09891
6230.88224,-0.11204
6232.81071,-0.02016
6234.73918,0.05713
6236.66764,0.07498
6238.59611,0.06659
6240.52458,0.05614
6242.45305,0.06018
6244.38152,0.06789
6246.30999,0.05872
6248.23846,0.04698
6250.16692,0.04053
6252.09539,0.02118
6254.02386,0.00919
6255.95233,0.03407
6257.88080,0.07906
6259.80927,0.10833
6261.73774,0.11475
6263.66621,0.09402
6265.59467,0.04974
6267.52314,0.01087
6269.45161,-0.00225
6271.38008,0.02256
6273.30855,0.05651
6275.23702,0.06363
6277.16549,0.08614
6279.09395,0.12697
6281.02242,0.12669
6282.95089,0.06914
6284.87936,-0.00982
6286.80783,-0.04330
6288.73630,-0.00663
6290.66477,0.05822
6292.59323,0.11555
6294.52170,0.15869
6296.45017,0.16965
6298.37864,0.13590
6300.30711,0.07365
6302.23558,0.00835
6304.16405,-0.01952
6306.09252,0.01099
6308.02098,0.06389
6309.94945,0.11094
6311.87792,0.14001
6313.80639,0.12838
6315.73486,0.09332
6317.66333,0.07987
6319.59180,0.08161
6321.52026,0.04706
6323.44873,-0.00380
6325.37720,-0.02878
6327.30567,-0.04871
6329.23414,-0.06514
6331.16261,-0.05735
6333.09108,-0.05246
6335.01955,-0.04886
6336.94801,-0.00404
6338.87648,0.03081
6340.80495,0.00217
6342.73342,-0.03398
6344.66189,-0.02466
6346.59036,0.01280
6348.51883,0.04790
6350.44729,0.10851
6352.37576,0.17172
6354.30423,0.16263
6356.23270,0.09742
6358.16117,0.02487
6360.08964,-0.03772
6362.01811,-0.07425
6363.94658,-0.04753
6365.87504,0.03498
6367.80351,0.09970
6369.73198,0.11603
6371.66045,0.08990
6373.58892,0.02626
6375.51739,0.02040
6377.44586,0.09600
6379.37432,0.11940
6381.30279,0.04535
6383.23126,-0.01388
6385.15973,0.02644
6387.08820,0.06390
6389.01667,0.01642
6390.94514,-0.03788
6392.87361,-0.01019
6394.80207,0.04827
6396.73054,0.06209
6398.65901,0.05246
6400.58748,0.07203
6402.51595,0.11234
6404.44442,0.09934
6406.37289,0.02169
6408.30135,-0.06006
6410.22982,-0.08770
6412.15829,-0.05994
6414.08676,-0.03427
6416.01523,-0.01285
6417.94370,-0.00024
6419.87217,-0.02781
6421.80064,-0.01804
6423.72910,0.06157
6425.65757,0.09743
6427.58604,0.04144
6429.51451,0.00495
6431.44298,0.05147
6433.37145,0.11363
6435.29992,0.12948
6437.22838,0.11542
6439.15685,0.11190
6441.08532,0.10683
6443.01379,0.06687
6444.94226,-0.00691
6446.87073,-0.06380
6448.79920,-0.04781
6450.72766,-0.00148
6452.65613,-0.01131
6454.58460,-0.01650
6456.51307,0.03803
6458.44154,0.07143
6460.37001,0.06960
6462.29848,0.08059
6464.22695,0.09260
6466.15541,0.09763
6468.08388,0.08287
6470.01235,0.04817
6471.94082,0.05298
6473.86929,0.08125
6475.79776,0.05141
6477.72623,-0.01685
6479.65469,-0.04381
6481.58316,-0.01853
6483.51163,0.02332
6485.44010,0.03765
6487.36857,0.04753
6489.29704,0.12682
6491.22551,0.20158
6493.15398,0.16651
6495.08244,0.11502
6497.01091,0.08344
6498.93938,0.03801
6500.86785,-0.00951
6502.79632,-0.04869
6504.72479,-0.04090
6506.65326,0.02473
6508.58172,0.10024
6510.51019,0.14413
6512.43866,0.15950
6514.36713,0.17719
6516.29560,0.17849
6518.22407,0.12175
6520.15254,0.03942
6522.08101,-0.03625
6524.00947,-0.08937
6525.93794,-0.07966
6527.86641,-0.02265
6529.79488,0.01887
6531.72335,-0.00636
6533.65182,-0.04035
6535.58029,0.02455
6537.50875,0.11887
6539.43722,0.12889
6541.36569,0.07978
6543.29416,0.02790
6545.22263,0.00262
6547.15110,-0.00364
6549.07957,-0.02489
6551.00804,-0.04444
6552.93650,-0.01538
6554.86497,0.04428
6556.79344,0.04999
6558.72191,-0.02085
6560.65038,-0.06610
6562.57885,-0.03114
6564.50732,0.04696
6566.43578,0.10329
6568.36425,0.08507
6570.29272,0.06174
6572.22119,0.10295
6574.14966,0.15790
6576.07813,0.19390
6578.00660,0.21975
6579.93507,0.21755
6581.86353,0.19271
6583.79200,0.16276
6585.72047,0.11789
6587.64894,0.08624
6589.57741,0.10371
6591.50588,0.14600
6593.43435,0.15147
6595.36281,0.09879
6597.29128,0.05970
6599.21975,0.06370
6601.14822,0.09789
6603.07669,0.14493
6605.00516,0.14652
6606.93363,0.08841
6608.86210,0.03322
6610.79056,0.02076
6612.71903,0.02039
6614.64750,0.01981
6616.57597,0.07413
6618.50444,0.16187
6620.43291,0.18768
6622.36138,0.16079
6624.28984,0.13446
6626.21831,0.09148
6628.14678,0.02242
6630.07525,-0.00143
6632.00372,0.02660
6633.93219,0.03600
6635.86066,0.01946
6637.78912,0.02559
6639.71759,0.08853
6641.64606,0.15888
6643.57453,0.14049
6645.50300,0.03683
6647.43147,-0.04432
6649.35994,-0.03998
6651.28841,0.01679
6653.21687,0.06935
6655.14534,0.09363
6657.07381,0.07442
6659.00228,0.01775
6660.93075,0.03482
6662.85922,0.12445
6664.78769,0.11672
6666.71615,0.04344
6668.64462,0.01866
6670.57309,-0.02642
6672.50156,-0.06270
6674.43003,0.00799
6676.35850,0.09316
6678.28697,0.09980
6680.21544,0.02265
6682.14390,-0.05642
6684.07237,-0.04430
6686.00084,0.02518
6687.92931,0.09796
6689.85778,0.13476
6691.78625,0.08333
6693.71472,0.02717
6695.64318,0.02148
6697.57165,0.00857
6699.50012,0.00274
6701.42859,0.06435
6703.35706,0.16197
6705.28553,0.20631
6707.21400,0.17096
6709.14247,0.10722
6711.07093,0.03694
6712.99940,-0.01309
6714.92787,-0.01605
6716.85634,-0.01670
6718.78481,-0.03840
6720.71328,-0.01774
6722.64175,0.06120
6724.57021,0.09308
6726.49868,0.05560
6728.42715,0.05643
6730.35562,0.10384
6732.28409,0.14476
6734.21256,0.17839
6736.14103,0.16538
6738.06950,0.11345
6739.99796,0.10795
6741.92643,0.14630
6743.85490,0.12150
6745.78337,0.04466
6747.71184,0.02327
6749.64031,0.07342
6751.56878,0.08770
6753.49724,0.05270
6755.42571,0.07156
6757.35418,0.12485
6759.28265,0.14542
6761.21112,0.13806
6763.13959,0.13293
6765.06806,0.11960
6766.99653,0.06233
6768.92499,0.00168
6770.85346,0.00032
6772.78193,0.04027
6774.71040,0.06278
6776.63887,0.08123
6778.56734,0.11847
6780.49581,0.08559
6782.42427,0.00193
6784.35274,0.02414
6786.28121,0.10979
6788.20968,0.12110
6790.13815,0.08659
6792.06662,0.06547
6793.99509,0.04880
6795.92355,-0.00959
6797.85202,-0.10098
6799.78049,-0.12072
6801.70896,-0.01462
6803.63743,0.12858
6805.56590,0.18695
6807.49437,0.14905
6809.42284,0.08652
6811.35130,0.06438
6813.27977,0.07694
6815.20824,0.09760
6817.13671,0.14860
6819.06518,0.16993
6820.99365,0.09415
6822.92212,-0.00322
6824.85058,0.00586
6826.77905,0.10284
6828.70752,0.22372
6830.63599,0.25324
6832.56446,0.15937
6834.49293,0.07041
6836.42140,0.03579
6838.34987,-0.01307
6840.27833,-0.02400
6842.20680,0.03362
6844.13527,0.09876
6846.06374,0.17788
6847.99221,0.18661
6849.92068,0.08862
6851.84915,0.02202
6853.77761,-0.05091
6855.70608,-0.09550
6857.63455,-0.01387
6859.56302,0.03485
6861.49149,-0.03354
6863.41996,-0.09108
6865.34843,-0.07784
6867.27690,-0.03311
6869.20536,0.01676
6871.13383,0.06394
6873.06230,0.10909
6874.99077,0.10614
6876.91924,0.01978
6878.84771,-0.05521
6880.77618,0.02054
6882.70464,0.14029
6884.63311,0.15684
6886.56158,0.09894
6888.49005,0.00200
6890.41852,-0.10990
6892.34699,-0.13064
6894.27546,-0.04014
6896.20393,0.04231
6898.13239,0.04070
6900.06086,0.01350
6901.98933,0.02702
6903.91780,0.04118
6905.84627,0.04135
6907.77474,0.05961
6909.70321,0.05380
6911.63167,-0.01920
6913.56014,-0.10476
6915.48861,-0.10684
6917.41708,0.00103
6919.34555,0.16220
6921.27402,0.20070
6923.20249,0.06996
6925.13096,-0.07393
6927.05942,-0.12910
6928.98789,-0.05218
6930.91636,0.11936
6932.84483,0.19470
6934.77330,0.12759
6936.70177,0.06365
6938.63024,0.03129
6940.55870,-0.00566
6942.48717,0.00826
6944.41564,0.06940
6946.34411,0.08586
6948.27258,0.06496
6950.20105,0.03805
6952.12952,-0.00692
6954.05799,-0.10133
6955.98645,-0.22006
6957.91492,-0.27975
6959.84339,-0.29369
6961.77186,-0.27015
6963.70033,-0.20879
6965.62880,-0.12304
6967.55727,-0.02651
6969.48573,0.02245
6971.41420,0.01177
6973.34267,0.02710
6975.27114,0.05492
6977.19961,0.05339
6979.12808,0.08561
6981.05655,0.10643
6982.98501,0.16887
6984.91348,0.33007
6986.84195,0.40595
6988.77042,0.31250
6990.69889,0.12153
6992.62736,-0.04824
6994.55583,-0.11845
6996.48430,-0.13984
6998.41276,-0.12210
7000.34123,-0.05548
7002.26970,-0.05690
7004.19817,-0.08958
7006.12664,-0.02364
7008.05511,0.06697
7009.98358,0.05798
7011.91204,0.05077
7013.84051,0.09886
7015.76898,0.12403
7017.69745,0.12173
7019.62592,0.08770
7021.55439,0.02973
7023.48286,0.03376
7025.41133,0.10023
7027.33979,0.20328
7029.26826,0.30103
7031.19673,0.29323
7033.12520,0.23859
7035.05367,0.15600
7036.98214,0.03682
7038.91061,-0.04644
7040.83907,-0.09629
7042.76754,-0.11327
7044.69601,0.00867
7046.62448,0.19132
7048.55295,0.18574
7050.48142,0.07248
7052.40989,0.06989
7054.33836,0.10669
7056.26682,0.01272
7058.19529,-0.09356
7060.12376,-0.02824
7062.05223,0.09646
7063.98070,0.14385
7065.90917,0.11730
7067.83764,0.09231
7069.76610,0.07629
7071.69457,0.04304
7073.62304,-0.04514
7075.55151,-0.19294
7077.47998,-0.28162
7079.40845,-0.19517
7081.33692,0.00843
7083.26539,0.09034
7085.19385,0.05980
7087.12232,0.04300
7089.05079,0.00663
7090.97926,-0.05244
7092.90773,-0.04264
7094.83620,-0.01341
7096.76467,-0.02139
7098.69313,0.04043
7100.62160,0.16223
7102.55007,0.21459
7104.47854,0.17024
7106.40701,0.05921
7108.33548,-0.00494
7110.26395,-0.00634
7112.19242,-0.01201
7114.12088,0.03438
7116.04935,0.16076
7117.97782,0.29671
7119.90629,0.34243
7121.83476,0.26946
7123.76323,0.18404
7125.69170,0.18778
7127.62016,0.26125
7129.54863,0.30208
7131.47710,0.29039
7133.40557,0.27237
7135.33404,0.20006
7137.26251,0.07225
7139.19098,0.00070
7141.11944,0.02233
7143.04791,0.07378
7144.97638,0.12602
7146.90485,0.09142
7148.83332,0.01473
7150.76179,0.06873
7152.69026,0.16592
7154.61873,0.13326
7156.54719,0.06027
7158.47566,0.01341
7160.40413,-0.10201
7162.33260,-0.20454
7164.26107,-0.08427
7166.18954,0.05190
7168.11801,-0.08565
7170.04647,-0.22495
7171.97494,-0.07901
7173.90341,0.11848
7175.83188,0.10211
7177.76035,0.00214
7179.68882,0.03099
7181.61729,0.10850
7183.54576,0.15396
7185.47422,0.19897
7187.40269,0.21199
7189.33116,0.12724
7191.25963,-0.02245
7193.18810,-0.12305
7195.11657,-0.09765
7197.04504,0.04941
7198.97350,0.15379
7200.90197,0.13930
7202.83044,0.10032
7204.75891,0.11753
7206.68738,0.25042
7208.61585,0.37442
7210.54432,0.33542
7212.47279,0.21631
7214.40125,0.20044
7216.32972,0.24559
7218.25819,0.16910
7220.18666,0.09392
7222.11513,0.12576
7224.04360,0.15803
7225.97207,0.17344
7227.90053,0.21552
7229.82900,0.19857
7231.75747,0.02956
7233.68594,-0.09520
7235.61441,-0.06031
7237.54288,0.01076
7239.47135,-0.01148
7241.39982,-0.09447
7243.32828,-0.12653
7245.25675,-0.10726
7247.18522,-0.03728
7249.11369,0.09670
7251.04216,0.22517
7252.97063,0.26960
7254.89910,0.16538
7256.82756,0.07131
7258.75603,0.07466
7260.68450,0.10881
7262.61297,0.16581
7264.54144,0.17701
7266.46991,0.06452
7268.39838,0.04419
7270.32685,0.23222
7272.25531,0.36832
7274.18378,0.16522
7276.11225,0.00346
7278.04072,0.07612
7279.96919,0.07024
7281.89766,-0.10881
7283.82613,-0.07443
7285.75459,0.11012
7287.68306,0.18873
7289.61153,0.08196
7291.54000,-0.15049
7293.46847,-0.25787
7295.39694,-0.17069
7297.32541,-0.06016
7299.25387,-0.00404
7301.18234,-0.02513
7303.11081,-0.14068
7305.03928,-0.12615
7306.96775,0.17469
7308.89622,0.30090
7310.82469,0.05915
7312.75316,-0.07854
7314.68162,-0.05200
7316.61009,0.12385
7318.53856,0.38461
7320.46703,0.47528
7322.39550,0.34950
7324.32397,0.13915
7326.25244,0.07428
7328.18090,0.14789
7330.10937,0.29053
7332.03784,0.41850
7333.96631,0.28915
7335.89478,0.02293
7337.82325,-0.17812
7339.75172,-0.23244
7341.68019,-0.09823
7343.60865,0.00298
7345.53712,0.07383
7347.46559,0.14314
7349.39406,0.06249
7351.32253,-0.05555
7353.25100,0.07538
7355.17947,0.31582
7357.10793,0.46873
7359.03640,0.52486
7360.96487,0.39557
7362.89334,0.21012
7364.82181,0.08809
7366.75028,-0.03465
7368.67875,-0.07148
7370.60722,0.02512
7372.53568,0.11587
7374.46415,0.13608
7376.39262,0.25256
7378.32109,0.43570
7380.24956,0.50715
7382.17803,0.45178
7384.10650,0.30052
7386.03496,0.03786
7387.96343,-0.20707
7389.89190,-0.27941
7391.82037,-0.24176
7393.74884,-0.19251
7395.67731,-0.12929
7397.60578,-0.04005
7399.53425,-0.02101
7401.46271,-0.04809
7403.39118,-0.04478
7405.31965,-0.08653
7407.24812,-0.12391
7409.17659,-0.02441
7411.10506,0.16728
7413.03353,0.28031
7414.96199,0.23281
7416.89046,0.14453
7418.81893,0.20999
7420.74740,0.33274
7422.67587,0.25834
7424.60434,0.10210
7426.53281,0.05628
7428.46128,0.06184
7430.38974,0.01417
7432.31821,0.09819
7434.24668,0.35657
7436.17515,0.52398
7438.10362,0.48592
7440.03209,0.34944
7441.96056,0.14865
7443.88902,-0.03374
7445.81749,-0.02216
7447.74596,0.13211
7449.67443,0.25375
7451.60290,0.21272
7453.53137,0.08150
7455.45984,0.07090
7457.38831,0.09095
7459.31677,0.00358
7461.24524,0.00728
7463.17371,0.16257
7465.10218,0.24916
7467.03065,0.23930
7468.95912,0.20067
7470.88759,0.09258
7472.81605,-0.04369
7474.74452,-0.04043
7476.67299,0.03499
7478.60146,0.04856
7480.52993,0.04938
7482.45840,0.11189
7484.38687,0.06095
7486.31533,-0.10717
7488.24380,-0.14820
7490.17227,-0.09961
7492.10074,-0.07240
7494.02921,-0.01726
7495.95768,0.09220
7497.88615,0.28907
