399.19301,0.53460
401.12148,-0.06337
403.04995,0.05078
404.97842,0.13901
406.90689,0.12993
408.83536,0.17859
410.76382,0.27102
412.69229,0.29014
414.62076,0.23047
416.54923,0.12775
418.47770,0.09013
420.40617,0.19617
422.33464,0.28459
424.26311,0.28141
426.19157,0.20419
428.12004,0.08917
430.04851,-0.05254
431.97698,-0.10155
433.90545,-0.02522
435.83392,0.05924
437.76239,0.10089
439.69085,0.10563
441.61932,0.12312
443.54779,0.12661
445.47626,0.04942
447.40473,0.01335
449.33320,0.06895
451.26167,0.08410
453.19013,0.02890
455.11860,-0.03849
457.04707,-0.06951
458.97554,-0.04476
460.90401,-0.05233
462.83248,-0.10129
464.76095,-0.10219
466.68942,-0.05286
468.61788,-0.02213
470.54635,-0.04353
472.47482,-0.06451
474.40329,0.02114
476.33176,0.10995
478.26023,0.11781
480.18870,0.08114
482.11716,0.02982
484.04563,0.00707
485.97410,0.04224
487.90257,0.09161
489.83104,0.09518
491.75951,0.05359
493.68798,0.00830
495.61645,0.02592
497.54491,0.09883
499.47338,0.12695
501.40185,0.12014
503.33032,0.14264
505.25879,0.13566
507.18726,0.05692
509.11573,-0.01952
511.04419,-0.03641
512.97266,0.00664
514.90113,0.06174
516.82960,0.07243
518.75807,0.06962
520.68654,0.08087
522.61501,0.07547
524.54348,0.07209
526.47194,0.09975
528.40041,0.12701
530.32888,0.13270
532.25735,0.11317
534.18582,0.08210
536.11429,0.07853
538.04276,0.08599
539.97122,0.05635
541.89969,0.02325
543.82816,0.03332
545.75663,0.06968
547.68510,0.10131
549.61357,0.10937
551.54204,0.09886
553.47051,0.07904
555.39897,0.05615
557.32744,0.03858
559.25591,0.02535
561.18438,0.02928
563.11285,0.05173
565.04132,0.08197
566.96979,0.11118
568.89825,0.09988
570.82672,0.05439
572.75519,0.03890
574.68366,0.06066
576.61213,0.07614
578.54060,0.07767
580.46907,0.08715
582.39754,0.09509
584.32600,0.06770
586.25447,0.02902
588.18294,0.02658
590.11141,0.04914
592.03988,0.07248
593.96835,0.07962
595.89682,0.06033
597.82528,0.03631
599.75375,0.03203
601.68222,0.04483
603.61069,0.06033
605.53916,0.06755
607.46763,0.06757
609.39610,0.07510
611.32456,0.07934
613.25303,0.06196
615.18150,0.04556
617.10997,0.04753
619.03844,0.05018
620.96691,0.04196
622.89538,0.03637
624.82385,0.05089
626.75231,0.07973
628.68078,0.10509
630.60925,0.11736
632.53772,0.10203
634.46619,0.06662
636.39466,0.04651
638.32313,0.04598
640.25159,0.04751
642.18006,0.03524
644.10853,0.01782
646.03700,0.02056
647.96547,0.04213
649.89394,0.06314
651.82241,0.06942
653.75088,0.07081
655.67934,0.08259
657.60781,0.09316
659.53628,0.09254
661.46475,0.09190
663.39322,0.10285
665.32169,0.11051
667.25016,0.08420
669.17862,0.04799
671.10709,0.06458
673.03556,0.08753
674.96403,0.08287
676.89250,0.06043
678.82097,0.04772
680.74944,0.05082
682.67791,0.06506
684.60637,0.07534
686.53484,0.07518
688.46331,0.08247
690.39178,0.09358
692.32025,0.09073
694.24872,0.07905
696.17719,0.07270
698.10565,0.08021
700.03412,0.09713
701.96259,0.10357
703.89106,0.09403
705.81953,0.08892
707.74800,0.09254
709.67647,0.08640
711.60494,0.06976
713.53340,0.05919
715.46187,0.06167
717.39034,0.07366
719.31881,0.08836
721.24728,0.09243
723.17575,0.08041
725.10422,0.06401
727.03268,0.05647
728.96115,0.06326
730.88962,0.07401
732.81809,0.07585
734.74656,0.06853
736.67503,0.05964
738.60350,0.06630
740.53197,0.08627
742.46043,0.09060
744.38890,0.07369
746.31737,0.05978
748.24584,0.06667
750.17431,0.08344
752.10278,0.08993
754.03125,0.08547
755.95971,0.07543
757.88818,0.06205
759.81665,0.05760
761.74512,0.06692
763.67359,0.07330
765.60206,0.06760
767.53053,0.06269
769.45900,0.06977
771.38746,0.08361
773.31593,0.08577
775.24440,0.06938
777.17287,0.05758
779.10134,0.06240
781.02981,0.06598
782.95828,0.06720
784.88674,0.07821
786.81521,0.08658
788.74368,0.07882
790.67215,0.07079
792.60062,0.07455
794.52909,0.08143
796.45756,0.08536
798.38602,0.08672
800.31449,0.08307
802.24296,0.07630
804.17143,0.07337
806.09990,0.07851
808.02837,0.08761
809.95684,0.08823
811.88531,0.07695
813.81377,0.06203
815.74224,0.05433
817.67071,0.05937
819.59918,0.07024
821.52765,0.07945
823.45612,0.08438
825.38459,0.08220
827.31305,0.07454
829.24152,0.06921
831.16999,0.06782
833.09846,0.06902
835.02693,0.07921
836.95540,0.09862
838.88387,0.10934
840.81234,0.09492
842.74080,0.07409
844.66927,0.07931
846.59774,0.10105
848.52621,0.10751
850.45468,0.09709
852.38315,0.08815
854.31162,0.08467
856.24008,0.08590
858.16855,0.09389
860.09702,0.10341
862.02549,0.10653
863.95396,0.09993
865.88243,0.08875
867.81090,0.08114
869.73937,0.08309
871.66783,0.09258
873.59630,0.09539
875.52477,0.08267
877.45324,0.06894
879.38171,0.07159
881.31018,0.08103
883.23865,0.08164
885.16711,0.07759
887.09558,0.07739
889.02405,0.07965
890.95252,0.08052
892.88099,0.08205
894.80946,0.08588
896.73793,0.08492
898.66640,0.07799
900.59486,0.07870
902.52333,0.08988
904.45180,0.09653
906.38027,0.09464
908.30874,0.09372
910.23721,0.09362
912.16568,0.08931
914.09414,0.08136
916.02261,0.07188
917.95108,0.06911
919.87955,0.07573
921.80802,0.08229
923.73649,0.08379
925.66496,0.08458
927.59343,0.08813
929.52189,0.08704
931.45036,0.07885
933.37883,0.07541
935.30730,0.08097
937.23577,0.08865
939.16424,0.09639
941.09271,0.10362
943.02117,0.10373
944.94964,0.09576
946.87811,0.08825
948.80658,0.08499
950.73505,0.08431
952.66352,0.08811
954.59199,0.09292
956.52045,0.08893
958.44892,0.08293
960.37739,0.08542
962.30586,0.08899
964.23433,0.08979
966.16280,0.09244
968.09127,0.09694
970.01974,0.10150
971.94820,0.10299
973.87667,0.10136
975.80514,0.09975
977.73361,0.09960
979.66208,0.09811
981.59055,0.09105
983.51902,0.08485
985.44748,0.08409
987.37595,0.08598
989.30442,0.09253
991.23289,0.09896
993.16136,0.09497
995.08983,0.08510
997.01830,0.08085
998.94677,0.08121
1000.87523,0.08302
1002.80370,0.08678
1004.73217,0.08837
1006.66064,0.08781
1008.58911,0.08777
1010.51758,0.08943
1012.44605,0.09611
1014.37451,0.10043
1016.30298,0.09457
1018.23145,0.08935
1020.15992,0.09042
1022.08839,0.09523
1024.01686,0.10027
1025.94533,0.09207
1027.87380,0.07813
1029.80226,0.07778
1031.73073,0.08278
1033.65920,0.08120
1035.58767,0.07549
1037.51614,0.07180
1039.44461,0.07261
1041.37308,0.07869
1043.30154,0.09022
1045.23001,0.09718
1047.15848,0.09533
1049.08695,0.09326
1051.01542,0.08964
1052.94389,0.08026
1054.87236,0.07506
1056.80083,0.08169
1058.72929,0.08968
1060.65776,0.08816
1062.58623,0.08478
1064.51470,0.08606
1066.44317,0.08381
1068.37164,0.07969
1070.30011,0.08408
1072.22857,0.09107
1074.15704,0.09338
1076.08551,0.09516
1078.01398,0.09433
1079.94245,0.09306
1081.87092,0.09928
1083.79939,0.10434
1085.72786,0.10085
1087.65632,0.09552
1089.58479,0.08877
1091.51326,0.07713
1093.44173,0.06831
1095.37020,0.06963
1097.29867,0.07594
1099.22714,0.08182
1101.15560,0.08934
1103.08407,0.09705
1105.01254,0.09696
1106.94101,0.08865
1108.86948,0.08452
1110.79795,0.09311
1112.72642,0.10669
1114.65489,0.11198
1116.58335,0.10633
1118.51182,0.09912
1120.44029,0.09668
1122.36876,0.09477
1124.29723,0.09212
1126.22570,0.09301
1128.15417,0.09655
1130.08263,0.09705
1132.01110,0.09224
1133.93957,0.08853
1135.86804,0.09098
1137.79651,0.09186
1139.72498,0.08712
1141.65345,0.08726
1143.58191,0.09557
1145.51038,0.10166
1147.43885,0.10114
1149.36732,0.10007
1151.29579,0.10035
1153.22426,0.09746
1155.15273,0.09213
1157.08120,0.08979
1159.00966,0.09174
1160.93813,0.09428
1162.86660,0.09456
1164.79507,0.09451
1166.72354,0.09621
1168.65201,0.09687
1170.58048,0.09482
1172.50894,0.09465
1174.43741,0.09782
1176.36588,0.09969
1178.29435,0.09921
1180.22282,0.09789
1182.15129,0.09655
1184.07976,0.09793
1186.00823,0.09988
1187.93669,0.09862
1189.86516,0.09793
1191.79363,0.09854
1193.72210,0.09908
1195.65057,0.10092
1197.57904,0.10109
1199.50751,0.09735
1201.43597,0.09303
1203.36444,0.09394
1205.29291,0.09915
1207.22138,0.09924
1209.14985,0.09561
1211.07832,0.09586
1213.00679,0.09563
1214.93526,0.09330
1216.86372,0.09384
1218.79219,0.09441
1220.72066,0.09295
1222.64913,0.09403
1224.57760,0.09687
1226.50607,0.09596
1228.43454,0.09332
1230.36300,0.09355
1232.29147,0.09437
1234.21994,0.09110
1236.14841,0.08625
1238.07688,0.08689
1240.00535,0.09201
1241.93382,0.09555
1243.86229,0.09489
1245.79075,0.09343
1247.71922,0.09587
1249.64769,0.09976
1251.57616,0.09986
1253.50463,0.09460
1255.43310,0.08926
1257.36157,0.08948
1259.29003,0.09250
1261.21850,0.09498
1263.14697,0.09617
1265.07544,0.09576
1267.00391,0.09412
1268.93238,0.09192
1270.86085,0.09332
1272.78932,0.09839
1274.71778,0.09990
1276.64625,0.09875
1278.57472,0.10014
1280.50319,0.09878
1282.43166,0.09302
1284.36013,0.09047
1286.28860,0.09154
1288.21706,0.09342
1290.14553,0.09619
1292.07400,0.09718
1294.00247,0.09367
1295.93094,0.08762
1297.85941,0.08198
1299.78788,0.07547
1301.71634,0.06598
1303.64481,0.05626
1305.57328,0.05776
1307.50175,0.07692
1309.43022,0.09864
1311.35869,0.10808
1313.28716,0.10756
1315.21563,0.10400
1317.14409,0.10160
1319.07256,0.09953
1321.00103,0.09692
1322.92950,0.09591
1324.85797,0.09272
1326.78644,0.08776
1328.71491,0.08930
1330.64337,0.09325
1332.57184,0.09430
1334.50031,0.09594
1336.42878,0.09548
1338.35725,0.08919
1340.28572,0.08148
1342.21419,0.08109
1344.14266,0.08665
1346.07112,0.09239
1347.99959,0.09817
1349.92806,0.09951
1351.85653,0.09464
1353.78500,0.09016
1355.71347,0.08904
1357.64194,0.09131
1359.57040,0.09403
1361.49887,0.09577
1363.42734,0.09790
1365.35581,0.09914
1367.28428,0.10060
1369.21275,0.10258
1371.14122,0.10476
1373.06969,0.10816
1374.99815,0.10720
1376.92662,0.10084
1378.85509,0.09835
1380.78356,0.09921
1382.71203,0.09912
1384.64050,0.10223
1386.56897,0.10936
1388.49743,0.11221
1390.42590,0.11222
1392.35437,0.11791
1394.28284,0.12584
1396.21131,0.12311
1398.13978,0.11155
1400.06825,0.10423
1401.99672,0.10323
1403.92518,0.10504
1405.85365,0.10771
1407.78212,0.10631
1409.71059,0.10261
1411.63906,0.10244
1413.56753,0.10508
1415.49600,0.10792
1417.42446,0.11169
1419.35293,0.11665
1421.28140,0.11655
1423.20987,0.11022
1425.13834,0.10366
1427.06681,0.10283
1428.99528,0.10577
1430.92375,0.10639
1432.85221,0.10602
1434.78068,0.10737
1436.70915,0.10997
1438.63762,0.11439
1440.56609,0.11492
1442.49456,0.11058
1444.42303,0.10747
1446.35149,0.10634
1448.27996,0.10496
1450.20843,0.10575
1452.13690,0.10955
1454.06537,0.11526
1455.99384,0.12465
1457.92231,0.13092
1459.85077,0.12479
1461.77924,0.12013
1463.70771,0.11952
1465.63618,0.11818
1467.56465,0.11435
1469.49312,0.11191
1471.42159,0.11307
1473.35006,0.11382
1475.27852,0.11071
1477.20699,0.10862
1479.13546,0.10750
1481.06393,0.10542
1482.99240,0.10552
1484.92087,0.11062
1486.84934,0.11692
1488.77780,0.11895
1490.70627,0.11566
1492.63474,0.11293
1494.56321,0.11341
1496.49168,0.11687
1498.42015,0.12055
1500.34862,0.11981
1502.27709,0.11705
1504.20555,0.11687
1506.13402,0.12093
1508.06249,0.11962
1509.99096,0.11298
1511.91943,0.11106
1513.84790,0.11628
1515.77637,0.12468
1517.70483,0.12505
1519.63330,0.12165
1521.56177,0.12681
1523.49024,0.13120
1525.41871,0.12794
1527.34718,0.12037
1529.27565,0.11487
1531.20412,0.11729
1533.13258,0.12166
1535.06105,0.11862
1536.98952,0.11926
1538.91799,0.13202
1540.84646,0.14248
1542.77493,0.13404
1544.70340,0.12454
1546.63186,0.12003
1548.56033,0.11800
1550.48880,0.11453
1552.41727,0.11293
1554.34574,0.11493
1556.27421,0.11779
1558.20268,0.12303
1560.13115,0.12117
1562.05961,0.11774
1563.98808,0.12091
1565.91655,0.12419
1567.84502,0.12399
1569.77349,0.12181
1571.70196,0.11887
1573.63043,0.11820
1575.55889,0.11885
1577.48736,0.11712
1579.41583,0.11536
1581.34430,0.11581
1583.27277,0.11727
1585.20124,0.11601
1587.12971,0.11113
1589.05818,0.10755
1590.98664,0.10835
1592.91511,0.11195
1594.84358,0.11610
1596.77205,0.11753
1598.70052,0.11488
1600.62899,0.11382
1602.55746,0.11800
1604.48592,0.12069
1606.41439,0.11739
1608.34286,0.11230
1610.27133,0.11024
1612.19980,0.11178
1614.12827,0.11467
1616.05674,0.11854
1617.98521,0.12051
1619.91367,0.11824
1621.84214,0.11744
1623.77061,0.12016
1625.69908,0.12047
1627.62755,0.11708
1629.55602,0.11414
1631.48449,0.11467
1633.41295,0.11775
1635.34142,0.12101
1637.26989,0.12064
1639.19836,0.11497
1641.12683,0.11020
1643.05530,0.11249
1644.98377,0.11917
1646.91223,0.12243
1648.84070,0.12259
1650.76917,0.12597
1652.69764,0.13131
1654.62611,0.12671
1656.55458,0.11982
1658.48305,0.11761
1660.41152,0.11871
1662.33998,0.12161
1664.26845,0.12309
1666.19692,0.12273
1668.12539,0.12314
1670.05386,0.12278
1671.98233,0.12211
1673.91080,0.12499
1675.83926,0.12509
1677.76773,0.11889
1679.69620,0.11385
1681.62467,0.11259
1683.55314,0.11579
1685.48161,0.12160
1687.41008,0.12318
1689.33855,0.12181
1691.26701,0.11816
1693.19548,0.11531
1695.12395,0.11645
1697.05242,0.11944
1698.98089,0.11872
1700.90936,0.11409
1702.83783,0.11370
1704.76629,0.11806
1706.69476,0.11989
1708.62323,0.11792
1710.55170,0.11553
1712.48017,0.11343
1714.40864,0.11358
1716.33711,0.11627
1718.26558,0.11713
1720.19404,0.11487
1722.12251,0.11239
1724.05098,0.11158
1725.97945,0.11256
1727.90792,0.11315
1729.83639,0.11236
1731.76486,0.11307
1733.69332,0.11611
1735.62179,0.11643
1737.55026,0.11679
1739.47873,0.11913
1741.40720,0.12029
1743.33567,0.11924
1745.26414,0.11740
1747.19261,0.11705
1749.12107,0.11879
1751.04954,0.11889
1752.97801,0.11679
1754.90648,0.11521
1756.83495,0.11362
1758.76342,0.11123
1760.69189,0.11020
1762.62035,0.11016
1764.54882,0.10901
1766.47729,0.10935
1768.40576,0.11311
1770.33423,0.11952
1772.26270,0.12573
1774.19117,0.12477
1776.11964,0.11911
1778.04810,0.11556
1779.97657,0.11596
1781.90504,0.11751
1783.83351,0.11737
1785.76198,0.11540
1787.69045,0.11303
1789.61892,0.11170
1791.54738,0.11254
1793.47585,0.11395
1795.40432,0.11357
1797.33279,0.11405
1799.26126,0.11518
1801.18973,0.11334
1803.11820,0.10878
1805.04666,0.10589
1806.97513,0.10686
1808.90360,0.11010
1810.83207,0.11248
1812.76054,0.11264
1814.68901,0.11220
1816.61748,0.11104
1818.54595,0.10984
1820.47441,0.11151
1822.40288,0.11447
1824.33135,0.11729
1826.25982,0.12023
1828.18829,0.12090
1830.11676,0.11862
1832.04523,0.11627
1833.97369,0.11519
1835.90216,0.11542
1837.83063,0.11630
1839.75910,0.11666
1841.68757,0.11839
1843.61604,0.12126
1845.54451,0.12156
1847.47298,0.12017
1849.40144,0.11804
1851.32991,0.11538
1853.25838,0.11282
1855.18685,0.11044
1857.11532,0.10892
1859.04379,0.10834
1860.97226,0.10905
1862.90072,0.11138
1864.82919,0.11481
1866.75766,0.11927
1868.68613,0.12076
1870.61460,0.11488
1872.54307,0.10878
1874.47154,0.10799
1876.40001,0.11042
1878.32847,0.11230
1880.25694,0.11193
1882.18541,0.10913
1884.11388,0.10661
1886.04235,0.10840
1887.97082,0.11181
1889.89929,0.11033
1891.82775,0.10689
1893.75622,0.10735
1895.68469,0.10987
1897.61316,0.11141
1899.54163,0.11137
1901.47010,0.11076
1903.39857,0.11169
1905.32704,0.11335
1907.25550,0.11325
1909.18397,0.11013
1911.11244,0.10435
1913.04091,0.10099
1914.96938,0.10297
1916.89785,0.10698
1918.82632,0.10908
1920.75478,0.10972
1922.68325,0.11242
1924.61172,0.11479
1926.54019,0.11299
1928.46866,0.10996
1930.39713,0.10843
1932.32560,0.10927
1934.25407,0.11138
1936.18253,0.11143
1938.11100,0.11079
1940.03947,0.11260
1941.96794,0.11499
1943.89641,0.11630
1945.82488,0.11719
1947.75335,0.11558
1949.68181,0.11128
1951.61028,0.10809
1953.53875,0.10783
1955.46722,0.10965
1957.39569,0.11125
1959.32416,0.11118
1961.25263,0.11053
1963.18110,0.11148
1965.10956,0.11479
1967.03803,0.11432
1968.96650,0.10792
1970.89497,0.10449
1972.82344,0.10625
1974.75191,0.10873
1976.68038,0.10933
1978.60884,0.10780
1980.53731,0.10671
1982.46578,0.10851
1984.39425,0.11176
1986.32272,0.11310
1988.25119,0.11137
1990.17966,0.10766
1992.10812,0.10472
1994.03659,0.10615
1995.96506,0.11138
1997.89353,0.11448
1999.82200,0.11207
2001.75047,0.10980
2003.67894,0.11242
2005.60741,0.11585
2007.53587,0.11651
2009.46434,0.11610
2011.39281,0.11542
2013.32128,0.11351
2015.24975,0.11153
2017.17822,0.11251
2019.10669,0.11589
2021.03515,0.11706
2022.96362,0.11541
2024.89209,0.11467
2026.82056,0.11547
2028.74903,0.11500
2030.67750,0.11326
2032.60597,0.11196
2034.53444,0.11105
2036.46290,0.10990
2038.39137,0.10867
2040.31984,0.10887
2042.24831,0.11030
2044.17678,0.11109
2046.10525,0.11154
2048.03372,0.11288
2049.96218,0.11395
2051.89065,0.11269
2053.81912,0.11027
2055.74759,0.10952
2057.67606,0.11028
2059.60453,0.11120
2061.53300,0.11303
2063.46147,0.11538
2065.38993,0.11670
2067.31840,0.11666
2069.24687,0.11544
2071.17534,0.11534
2073.10381,0.11697
2075.03228,0.11842
2076.96075,0.11995
2078.88921,0.12107
2080.81768,0.11964
2082.74615,0.11660
2084.67462,0.11517
2086.60309,0.11622
2088.53156,0.11793
2090.46003,0.11786
2092.38850,0.11448
2094.31696,0.11113
2096.24543,0.11180
2098.17390,0.11321
2100.10237,0.11259
2102.03084,0.11214
2103.95931,0.11250
2105.88778,0.11304
2107.81624,0.11267
2109.74471,0.11130
2111.67318,0.11171
2113.60165,0.11356
2115.53012,0.11264
2117.45859,0.11000
2119.38706,0.10879
2121.31553,0.10767
2123.24399,0.10795
2125.17246,0.11148
2127.10093,0.11518
2129.02940,0.11632
2130.95787,0.11423
2132.88634,0.11119
2134.81481,0.11004
2136.74327,0.10933
2138.67174,0.10865
2140.60021,0.10958
2142.52868,0.11170
2144.45715,0.11353
2146.38562,0.11321
2148.31409,0.11105
2150.24255,0.10896
2152.17102,0.10878
2154.09949,0.11139
2156.02796,0.11438
2157.95643,0.11617
2159.88490,0.11657
2161.81337,0.11645
2163.74184,0.11677
2165.67030,0.11652
2167.59877,0.11718
2169.52724,0.11895
2171.45571,0.11907
2173.38418,0.11762
2175.31265,0.11596
2177.24112,0.11480
2179.16958,0.11422
2181.09805,0.11372
2183.02652,0.11320
2184.95499,0.11286
2186.88346,0.11281
2188.81193,0.11303
2190.74040,0.11228
2192.66887,0.11043
2194.59733,0.10899
2196.52580,0.10701
2198.45427,0.10509
2200.38274,0.10567
2202.31121,0.10681
2204.23968,0.10714
2206.16815,0.10849
2208.09661,0.11092
2210.02508,0.11345
2211.95355,0.11525
2213.88202,0.11478
2215.81049,0.11231
2217.73896,0.10966
2219.66743,0.10786
2221.59590,0.10941
2223.52436,0.11496
2225.45283,0.11922
2227.38130,0.11999
2229.30977,0.11993
2231.23824,0.11874
2233.16671,0.11620
2235.09518,0.11554
2237.02364,0.11727
2238.95211,0.11825
2240.88058,0.11768
2242.80905,0.11774
2244.73752,0.11888
2246.66599,0.11892
2248.59446,0.11805
2250.52293,0.11775
2252.45139,0.11600
2254.37986,0.11369
2256.30833,0.11377
2258.23680,0.11380
2260.16527,0.11151
2262.09374,0.10918
2264.02221,0.10967
2265.95067,0.11266
2267.87914,0.11355
2269.80761,0.10969
2271.73608,0.10655
2273.66455,0.10885
2275.59302,0.11316
2277.52149,0.11516
2279.44996,0.11359
2281.37842,0.11088
2283.30689,0.11128
2285.23536,0.11272
2287.16383,0.11131
2289.09230,0.10872
2291.02077,0.10816
2292.94924,0.11150
2294.87770,0.11515
2296.80617,0.11375
2298.73464,0.10959
2300.66311,0.10705
2302.59158,0.10584
2304.52005,0.10490
2306.44852,0.10525
2308.37699,0.10601
2310.30545,0.10521
2312.23392,0.10226
2314.16239,0.09801
2316.09086,0.09572
2318.01933,0.09463
2319.94780,0.09132
2321.87627,0.08652
2323.80473,0.08386
2325.73320,0.08838
2327.66167,0.09944
2329.59014,0.10706
2331.51861,0.10506
2333.44708,0.09657
2335.37555,0.08689
2337.30401,0.08611
2339.23248,0.09496
2341.16095,0.09647
2343.08942,0.08607
2345.01789,0.08270
2346.94636,0.08707
2348.87483,0.08600
2350.80330,0.08304
2352.73176,0.08335
2354.66023,0.08483
2356.58870,0.09127
2358.51717,0.10141
2360.44564,0.09176
2362.37411,0.06487
2364.30258,0.06021
2366.23104,0.08236
2368.15951,0.09655
2370.08798,0.09022
2372.01645,0.08514
2373.94492,0.09170
2375.87339,0.09860
2377.80186,0.10098
2379.73033,0.10329
2381.65879,0.10921
2383.58726,0.11526
2385.51573,0.11657
2387.44420,0.11566
2389.37267,0.11636
2391.30114,0.11793
2393.22961,0.11802
2395.15807,0.11624
2397.08654,0.11407
2399.01501,0.11250
2400.94348,0.11235
2402.87195,0.11397
2404.80042,0.11531
2406.72889,0.11493
2408.65736,0.11485
2410.58582,0.11555
2412.51429,0.11506
2414.44276,0.11390
2416.37123,0.11331
2418.29970,0.11308
2420.22817,0.11388
2422.15664,0.11536
2424.08510,0.11441
2426.01357,0.11186
2427.94204,0.11178
2429.87051,0.11261
2431.79898,0.11253
2433.72745,0.11426
2435.65592,0.11666
2437.58439,0.11675
2439.51285,0.11645
2441.44132,0.11640
2443.36979,0.11412
2445.29826,0.11094
2447.22673,0.11114
2449.15520,0.11493
2451.08367,0.11707
2453.01213,0.11542
2454.94060,0.11390
2456.86907,0.11378
2458.79754,0.11402
2460.72601,0.11506
2462.65448,0.11601
2464.58295,0.11635
2466.51142,0.11770
2468.43988,0.11963
2470.36835,0.11936
2472.29682,0.11801
2474.22529,0.11816
2476.15376,0.11779
2478.08223,0.11574
2480.01070,0.11409
2481.93916,0.11366
2483.86763,0.11375
2485.79610,0.11388
2487.72457,0.11353
2489.65304,0.11271
2491.58151,0.11307
2493.50998,0.11487
2495.43844,0.11726
2497.36691,0.11901
2499.29538,0.11760
2501.22385,0.11547
2503.15232,0.11660
2505.08079,0.11881
2507.00926,0.12030
2508.93773,0.12191
2510.86619,0.12187
2512.79466,0.11913
2514.72313,0.11626
2516.65160,0.11457
2518.58007,0.11359
2520.50854,0.11240
2522.43701,0.11104
2524.36547,0.11184
2526.29394,0.11393
2528.22241,0.11516
2530.15088,0.11622
2532.07935,0.11701
2534.00782,0.11745
2535.93629,0.11798
2537.86476,0.11774
2539.79322,0.11682
2541.72169,0.11726
2543.65016,0.11858
2545.57863,0.11808
2547.50710,0.11521
2549.43557,0.11096
2551.36404,0.10884
2553.29250,0.11173
2555.22097,0.11709
2557.14944,0.12134
2559.07791,0.12254
2561.00638,0.12058
2562.93485,0.11849
2564.86332,0.11953
2566.79179,0.12201
2568.72025,0.12233
2570.64872,0.12065
2572.57719,0.11850
2574.50566,0.11812
2576.43413,0.11959
2578.36260,0.11850
2580.29107,0.11491
2582.21953,0.11458
2584.14800,0.11822
2586.07647,0.12091
2588.00494,0.12022
2589.93341,0.11746
2591.86188,0.11521
2593.79035,0.11403
2595.71882,0.11374
2597.64728,0.11555
2599.57575,0.11800
2601.50422,0.11867
2603.43269,0.11843
2605.36116,0.11846
2607.28963,0.11816
2609.21810,0.11613
2611.14656,0.11371
2613.07503,0.11471
2615.00350,0.11768
2616.93197,0.11826
2618.86044,0.11815
2620.78891,0.11951
2622.71738,0.12073
2624.64585,0.12161
2626.57431,0.12210
2628.50278,0.12072
2630.43125,0.11948
2632.35972,0.12069
2634.28819,0.12102
2636.21666,0.11811
2638.14513,0.11526
2640.07359,0.11545
2642.00206,0.11735
2643.93053,0.11962
2645.85900,0.12155
2647.78747,0.12097
2649.71594,0.11924
2651.64441,0.11993
2653.57288,0.12073
2655.50134,0.11863
2657.42981,0.11737
2659.35828,0.11875
2661.28675,0.11885
2663.21522,0.11678
2665.14369,0.11592
2667.07216,0.11787
2669.00062,0.11979
2670.92909,0.11957
2672.85756,0.12061
2674.78603,0.12415
2676.71450,0.12579
2678.64297,0.12519
2680.57144,0.12594
2682.49990,0.12597
2684.42837,0.12156
2686.35684,0.11618
2688.28531,0.11515
2690.21378,0.11715
2692.14225,0.11959
2694.07072,0.12318
2695.99919,0.12629
2697.92765,0.12731
2699.85612,0.12872
2701.78459,0.12970
2703.71306,0.12758
2705.64153,0.12539
2707.57000,0.12467
2709.49847,0.12373
2711.42693,0.12195
2713.35540,0.11773
2715.28387,0.11373
2717.21234,0.11491
2719.14081,0.11827
2721.06928,0.11911
2722.99775,0.11888
2724.92622,0.11924
2726.85468,0.12030
2728.78315,0.12209
2730.71162,0.12332
2732.64009,0.12373
2734.56856,0.12412
2736.49703,0.12379
2738.42550,0.12201
2740.35396,0.12105
2742.28243,0.12322
2744.21090,0.12602
2746.13937,0.12579
2748.06784,0.12323
2749.99631,0.12178
2751.92478,0.12271
2753.85325,0.12241
2755.78171,0.11864
2757.71018,0.11650
2759.63865,0.11944
2761.56712,0.12403
2763.49559,0.12610
2765.42406,0.12483
2767.35253,0.12368
2769.28099,0.12545
2771.20946,0.12897
2773.13793,0.13150
2775.06640,0.13157
2776.99487,0.13025
2778.92334,0.12759
2780.85181,0.12350
2782.78028,0.12311
2784.70874,0.12753
2786.63721,0.12915
2788.56568,0.12747
2790.49415,0.12602
2792.42262,0.12391
2794.35109,0.12465
2796.27956,0.12751
2798.20802,0.12614
2800.13649,0.12314
2802.06496,0.12190
2803.99343,0.12097
2805.92190,0.12171
2807.85037,0.12332
2809.77884,0.12142
2811.70731,0.11824
2813.63577,0.12003
2815.56424,0.12630
2817.49271,0.13099
2819.42118,0.13015
2821.34965,0.12559
2823.27812,0.12268
2825.20659,0.12314
2827.13505,0.12444
2829.06352,0.12423
2830.99199,0.12190
2832.92046,0.12094
2834.84893,0.12351
2836.77740,0.12633
2838.70587,0.12762
2840.63433,0.12779
2842.56280,0.12661
2844.49127,0.12549
2846.41974,0.12638
2848.34821,0.12740
2850.27668,0.12599
2852.20515,0.12257
2854.13362,0.12028
2856.06208,0.12266
2857.99055,0.12721
2859.91902,0.12864
2861.84749,0.12648
2863.77596,0.12363
2865.70443,0.12431
2867.63290,0.12959
2869.56136,0.13328
2871.48983,0.13086
2873.41830,0.12721
2875.34677,0.12683
2877.27524,0.12741
2879.20371,0.12803
2881.13218,0.12883
2883.06065,0.12593
2884.98911,0.12138
2886.91758,0.11955
2888.84605,0.11833
2890.77452,0.11957
2892.70299,0.12305
2894.63146,0.12174
2896.55993,0.11881
2898.48839,0.12084
2900.41686,0.12348
2902.34533,0.12330
2904.27380,0.12398
2906.20227,0.12695
2908.13074,0.12743
2910.05921,0.12310
2911.98768,0.12022
2913.91614,0.11976
2915.84461,0.11707
2917.77308,0.11650
2919.70155,0.11963
2921.63002,0.12084
2923.55849,0.11859
2925.48696,0.11297
2927.41542,0.11041
2929.34389,0.11611
2931.27236,0.12096
2933.20083,0.11864
2935.12930,0.11133
2937.05777,0.10541
2938.98624,0.10989
2940.91471,0.11991
2942.84317,0.12305
2944.77164,0.11650
2946.70011,0.10640
2948.62858,0.10613
2950.55705,0.11770
2952.48552,0.12582
2954.41399,0.12488
2956.34245,0.11813
2958.27092,0.11298
2960.19939,0.11853
2962.12786,0.12530
2964.05633,0.12401
2965.98480,0.12002
2967.91327,0.11825
2969.84174,0.12407
2971.77020,0.13323
2973.69867,0.13529
2975.62714,0.12989
2977.55561,0.11972
2979.48408,0.11282
2981.41255,0.11778
2983.34102,0.12676
2985.26948,0.12922
2987.19795,0.12562
2989.12642,0.12231
2991.05489,0.12409
2992.98336,0.12814
2994.91183,0.13125
2996.84030,0.13095
2998.76877,0.12724
3000.69723,0.12573
3002.62570,0.12499
3004.55417,0.12114
3006.48264,0.11744
3008.41111,0.11447
3010.33958,0.10577
3012.26805,0.08572
3014.19651,0.05662
3016.12498,0.03763
3018.05345,0.05346
3019.98192,0.09328
3021.91039,0.12155
3023.83886,0.12738
3025.76733,0.12336
3027.69579,0.12135
3029.62426,0.12381
3031.55273,0.12764
3033.48120,0.12918
3035.40967,0.12588
3037.33814,0.12125
3039.26661,0.12168
3041.19508,0.12537
3043.12354,0.12604
3045.05201,0.12113
3046.98048,0.11463
3048.90895,0.11675
3050.83742,0.12681
3052.76589,0.13195
3054.69436,0.12820
3056.62282,0.12083
3058.55129,0.11753
3060.47976,0.12159
3062.40823,0.12627
3064.33670,0.12354
3066.26517,0.11652
3068.19364,0.11599
3070.12211,0.12230
3072.05057,0.12555
3073.97904,0.12048
3075.90751,0.11442
3077.83598,0.11728
3079.76445,0.12385
3081.69292,0.12627
3083.62139,0.12355
3085.54985,0.12000
3087.47832,0.12445
3089.40679,0.13210
3091.33526,0.13273
3093.26373,0.12587
3095.19220,0.11764
3097.12067,0.11734
3099.04914,0.12173
3100.97760,0.12014
3102.90607,0.11347
3104.83454,0.11213
3106.76301,0.12080
3108.69148,0.12886
3110.61995,0.12377
3112.54842,0.11362
3114.47688,0.11743
3116.40535,0.13152
3118.33382,0.13841
3120.26229,0.13371
3122.19076,0.12548
3124.11923,0.12385
3126.04770,0.12720
3127.97617,0.12668
3129.90463,0.12085
3131.83310,0.11929
3133.76157,0.12782
3135.69004,0.13531
3137.61851,0.13255
3139.54698,0.12723
3141.47545,0.12945
3143.40391,0.13543
3145.33238,0.13693
3147.26085,0.13385
3149.18932,0.13172
3151.11779,0.13362
3153.04626,0.13349
3154.97473,0.12729
3156.90320,0.12094
3158.83166,0.11886
3160.76013,0.11969
3162.68860,0.12255
3164.61707,0.12627
3166.54554,0.12777
3168.47401,0.12742
3170.40248,0.12804
3172.33094,0.12900
3174.25941,0.12828
3176.18788,0.12686
3178.11635,0.12615
3180.04482,0.12585
3181.97329,0.12379
3183.90176,0.12213
3185.83022,0.12527
3187.75869,0.12793
3189.68716,0.12709
3191.61563,0.12833
3193.54410,0.13299
3195.47257,0.13664
3197.40104,0.13678
3199.32951,0.13588
3201.25797,0.13594
3203.18644,0.13831
3205.11491,0.14256
3207.04338,0.14416
3208.97185,0.14065
3210.90032,0.13495
3212.82879,0.13396
3214.75725,0.14046
3216.68572,0.14625
3218.61419,0.14295
3220.54266,0.13623
3222.47113,0.13600
3224.39960,0.13856
3226.32807,0.13736
3228.25654,0.13578
3230.18500,0.13556
3232.11347,0.13353
3234.04194,0.12893
3235.97041,0.12530
3237.89888,0.12698
3239.82735,0.12918
3241.75582,0.12498
3243.68428,0.12020
3245.61275,0.12405
3247.54122,0.13338
3249.46969,0.13868
3251.39816,0.13916
3253.32663,0.13762
3255.25510,0.13361
3257.18357,0.13020
3259.11203,0.13051
3261.04050,0.13282
3262.96897,0.13470
3264.89744,0.13276
3266.82591,0.12606
3268.75438,0.12403
3270.68285,0.13170
3272.61131,0.13860
3274.53978,0.13854
3276.46825,0.13686
3278.39672,0.13698
3280.32519,0.13562
3282.25366,0.13213
3284.18213,0.13040
3286.11060,0.13007
3288.03906,0.12957
3289.96753,0.12964
3291.89600,0.12990
3293.82447,0.12947
3295.75294,0.12911
3297.68141,0.12960
3299.60988,0.12974
3301.53834,0.13138
3303.46681,0.13601
3305.39528,0.13795
3307.32375,0.13558
3309.25222,0.13539
3311.18069,0.13809
3313.10916,0.13918
3315.03763,0.13748
3316.96609,0.13378
3318.89456,0.13187
3320.82303,0.13082
3322.75150,0.12331
3324.67997,0.11663
3326.60844,0.12339
3328.53691,0.13316
3330.46537,0.13319
3332.39384,0.13139
3334.32231,0.13409
3336.25078,0.13853
3338.17925,0.14294
3340.10772,0.14390
3342.03619,0.13938
3343.96466,0.13332
3345.89312,0.13097
3347.82159,0.13345
3349.75006,0.13702
3351.67853,0.13658
3353.60700,0.13316
3355.53547,0.13316
3357.46394,0.13832
3359.39240,0.14259
3361.32087,0.13781
3363.24934,0.12921
3365.17781,0.12998
3367.10628,0.13554
3369.03475,0.13693
3370.96322,0.13662
3372.89168,0.13720
3374.82015,0.13793
3376.74862,0.13682
3378.67709,0.13401
3380.60556,0.13150
3382.53403,0.12994
3384.46250,0.12911
3386.39097,0.12800
3388.31943,0.12609
3390.24790,0.12482
3392.17637,0.12459
3394.10484,0.12240
3396.03331,0.11918
3397.96178,0.11898
3399.89025,0.12055
3401.81871,0.12354
3403.74718,0.12929
3405.67565,0.13278
3407.60412,0.13058
3409.53259,0.12984
3411.46106,0.13150
3413.38953,0.12719
3415.31800,0.12319
3417.24646,0.12858
3419.17493,0.13445
3421.10340,0.13526
3423.03187,0.13681
3424.96034,0.13804
3426.88881,0.13294
3428.81728,0.12264
3430.74574,0.11631
3432.67421,0.11765
3434.60268,0.12191
3436.53115,0.12740
3438.45962,0.13171
3440.38809,0.13169
3442.31656,0.13061
3444.24503,0.13049
3446.17349,0.12938
3448.10196,0.12996
3450.03043,0.13242
3451.95890,0.13051
3453.88737,0.12714
3455.81584,0.12709
3457.74431,0.12697
3459.67277,0.12667
3461.60124,0.12674
3463.52971,0.12590
3465.45818,0.12482
3467.38665,0.12251
3469.31512,0.11822
3471.24359,0.11390
3473.17206,0.11182
3475.10052,0.11160
3477.02899,0.11220
3478.95746,0.11498
3480.88593,0.11992
3482.81440,0.12303
3484.74287,0.12207
3486.67134,0.12048
3488.59980,0.12131
3490.52827,0.12344
3492.45674,0.12396
3494.38521,0.12218
3496.31368,0.12017
3498.24215,0.11877
3500.17062,0.11708
3502.09909,0.11559
3504.02755,0.11574
3505.95602,0.11562
3507.88449,0.11245
3509.81296,0.10779
3511.74143,0.10655
3513.66990,0.10975
3515.59837,0.11122
3517.52683,0.10892
3519.45530,0.10848
3521.38377,0.11063
3523.31224,0.11080
3525.24071,0.10682
3527.16918,0.10126
3529.09765,0.10031
3531.02611,0.10539
3532.95458,0.11053
3534.88305,0.11271
3536.81152,0.11210
3538.73999,0.10896
3540.66846,0.10749
3542.59693,0.10708
3544.52540,0.10226
3546.45386,0.09779
3548.38233,0.09606
3550.31080,0.09430
3552.23927,0.09687
3554.16774,0.10198
3556.09621,0.10446
3558.02468,0.10565
3559.95314,0.10546
3561.88161,0.10263
3563.81008,0.10025
3565.73855,0.10197
3567.66702,0.10595
3569.59549,0.10527
3571.52396,0.10124
3573.45243,0.10032
3575.38089,0.10126
3577.30936,0.09931
3579.23783,0.09774
3581.16630,0.10115
3583.09477,0.10812
3585.02324,0.11275
3586.95171,0.11024
3588.88017,0.10302
3590.80864,0.09683
3592.73711,0.09313
3594.66558,0.09331
3596.59405,0.09300
3598.52252,0.08944
3600.45099,0.08962
3602.37946,0.09423
3604.30792,0.09681
3606.23639,0.09578
3608.16486,0.09384
3610.09333,0.09143
3612.02180,0.08559
3613.95027,0.08275
3615.87874,0.08959
3617.80720,0.09835
3619.73567,0.10030
3621.66414,0.09743
3623.59261,0.09655
3625.52108,0.09873
3627.44955,0.09994
3629.37802,0.09755
3631.30649,0.09579
3633.23495,0.09292
3635.16342,0.09031
3637.09189,0.09087
3639.02036,0.09252
3640.94883,0.09385
3642.87730,0.09357
3644.80577,0.09447
3646.73423,0.10287
3648.66270,0.11339
3650.59117,0.10906
3652.51964,0.10023
3654.44811,0.09565
3656.37658,0.09318
3658.30505,0.09020
3660.23352,0.08763
3662.16198,0.08685
3664.09045,0.08623
3666.01892,0.08479
3667.94739,0.08301
3669.87586,0.08073
3671.80433,0.08047
3673.73280,0.08409
3675.66126,0.08838
3677.58973,0.08779
3679.51820,0.08389
3681.44667,0.07977
3683.37514,0.07830
3685.30361,0.08037
3687.23208,0.08614
3689.16055,0.09305
3691.08901,0.09319
3693.01748,0.08923
3694.94595,0.08715
3696.87442,0.08658
3698.80289,0.08442
3700.73136,0.08277
3702.65983,0.08400
3704.58829,0.08342
3706.51676,0.08339
3708.44523,0.08670
3710.37370,0.08680
3712.30217,0.08216
3714.23064,0.08097
3716.15911,0.08315
3718.08757,0.08579
3720.01604,0.08377
3721.94451,0.07475
3723.87298,0.06721
3725.80145,0.07004
3727.72992,0.07829
3729.65839,0.08439
3731.58686,0.08632
3733.51532,0.08394
3735.44379,0.08624
3737.37226,0.09179
3739.30073,0.09329
3741.22920,0.09427
3743.15767,0.09401
3745.08614,0.09074
3747.01460,0.08985
3748.94307,0.09725
3750.87154,0.10626
3752.80001,0.09967
3754.72848,0.09069
3756.65695,0.08812
3758.58542,0.08919
3760.51389,0.08785
3762.44235,0.08494
3764.37082,0.08738
3766.29929,0.09259
3768.22776,0.09306
3770.15623,0.08835
3772.08470,0.08353
3774.01317,0.08137
3775.94163,0.07862
3777.87010,0.07496
3779.79857,0.07547
3781.72704,0.07982
3783.65551,0.08296
3785.58398,0.08322
3787.51245,0.08095
3789.44092,0.07833
3791.36938,0.07644
3793.29785,0.07670
3795.22632,0.08172
3797.15479,0.08665
3799.08326,0.08550
3801.01173,0.08033
3802.94020,0.07292
3804.86866,0.07039
3806.79713,0.07434
3808.72560,0.07796
3810.65407,0.07712
3812.58254,0.07502
3814.51101,0.07561
3816.43948,0.08050
3818.36795,0.08803
3820.29641,0.09612
3822.22488,0.09636
3824.15335,0.09092
3826.08182,0.08742
3828.01029,0.08777
3829.93876,0.09139
3831.86723,0.09284
3833.79569,0.09352
3835.72416,0.09686
3837.65263,0.09567
3839.58110,0.08718
3841.50957,0.07973
3843.43804,0.07611
3845.36651,0.07437
3847.29498,0.07325
3849.22344,0.07660
3851.15191,0.08929
3853.08038,0.10444
3855.00885,0.09823
3856.93732,0.08608
3858.86579,0.07922
3860.79426,0.07584
3862.72272,0.07532
3864.65119,0.07641
3866.57966,0.07649
3868.50813,0.07647
3870.43660,0.07526
3872.36507,0.07030
3874.29354,0.06770
3876.22200,0.07070
3878.15047,0.07653
3880.07894,0.08105
3882.00741,0.08055
3883.93588,0.07875
3885.86435,0.07847
3887.79282,0.08160
3889.72129,0.08471
3891.64975,0.08193
3893.57822,0.07651
3895.50669,0.07357
3897.43516,0.07221
3899.36363,0.07224
3901.29210,0.07745
3903.22057,0.08508
3905.14903,0.08163
3907.07750,0.07379
3909.00597,0.07144
3910.93444,0.07000
3912.86291,0.06795
3914.79138,0.07075
3916.71985,0.07900
3918.64832,0.08122
3920.57678,0.07296
3922.50525,0.06464
3924.43372,0.06338
3926.36219,0.06733
3928.29066,0.06969
3930.21913,0.06905
3932.14760,0.06810
3934.07606,0.06906
3936.00453,0.07219
3937.93300,0.07261
3939.86147,0.06702
3941.78994,0.06390
3943.71841,0.07197
3945.64688,0.08014
3947.57535,0.07816
3949.50381,0.07063
3951.43228,0.06729
3953.36075,0.07187
3955.28922,0.07691
3957.21769,0.07758
3959.14616,0.07886
3961.07463,0.08125
3963.00309,0.08108
3964.93156,0.07788
3966.86003,0.07301
3968.78850,0.07131
3970.71697,0.07254
3972.64544,0.06981
3974.57391,0.06464
3976.50238,0.05990
3978.43084,0.05757
3980.35931,0.06194
3982.28778,0.06867
3984.21625,0.07110
3986.14472,0.06907
3988.07319,0.06767
3990.00166,0.07122
3991.93012,0.07475
3993.85859,0.07319
3995.78706,0.06961
3997.71553,0.06769
3999.64400,0.06894
4001.57247,0.07071
4003.50094,0.06904
4005.42941,0.06504
4007.35787,0.06154
4009.28634,0.06216
4011.21481,0.06549
4013.14328,0.06526
4015.07175,0.06197
4017.00022,0.05926
4018.92869,0.05998
4020.85715,0.06474
4022.78562,0.06641
4024.71409,0.06171
4026.64256,0.05942
4028.57103,0.06258
4030.49950,0.06570
4032.42797,0.06777
4034.35644,0.06598
4036.28490,0.06018
4038.21337,0.05985
4040.14184,0.06651
4042.07031,0.07222
4043.99878,0.07520
4045.92725,0.07562
4047.85572,0.06995
4049.78418,0.06200
4051.71265,0.05926
4053.64112,0.06115
4055.56959,0.06228
4057.49806,0.05752
4059.42653,0.05197
4061.35500,0.05411
4063.28346,0.05675
4065.21193,0.05366
4067.14040,0.05155
4069.06887,0.05482
4070.99734,0.05972
4072.92581,0.06169
4074.85428,0.06180
4076.78275,0.06001
4078.71121,0.05403
4080.63968,0.04942
4082.56815,0.05180
4084.49662,0.05605
4086.42509,0.05708
4088.35356,0.05716
4090.28203,0.05683
4092.21049,0.05393
4094.13896,0.05090
4096.06743,0.05306
4097.99590,0.06004
4099.92437,0.06581
4101.85284,0.06677
4103.78131,0.06585
4105.70978,0.06776
4107.63824,0.06697
4109.56671,0.05962
4111.49518,0.05414
4113.42365,0.05278
4115.35212,0.05245
4117.28059,0.05503
4119.20906,0.06035
4121.13752,0.06265
4123.06599,0.06057
4124.99446,0.05867
4126.92293,0.05665
4128.85140,0.05178
4130.77987,0.04762
4132.70834,0.05065
4134.63681,0.05628
4136.56527,0.05531
4138.49374,0.05057
4140.42221,0.04794
4142.35068,0.04942
4144.27915,0.05270
4146.20762,0.05419
4148.13609,0.05463
4150.06455,0.05535
4151.99302,0.05581
4153.92149,0.05650
4155.84996,0.06019
4157.77843,0.06464
4159.70690,0.06255
4161.63537,0.05241
4163.56384,0.04329
4165.49230,0.04544
4167.42077,0.05506
4169.34924,0.06158
4171.27771,0.06289
4173.20618,0.05985
4175.13465,0.05101
4177.06312,0.04009
4178.99158,0.03492
4180.92005,0.03788
4182.84852,0.04433
4184.77699,0.04898
4186.70546,0.05072
4188.63393,0.05229
4190.56240,0.05481
4192.49087,0.05322
4194.41933,0.04805
4196.34780,0.04776
4198.27627,0.05324
4200.20474,0.05889
4202.13321,0.05882
4204.06168,0.05085
4205.99015,0.04260
4207.91861,0.04071
4209.84708,0.04246
4211.77555,0.04570
4213.70402,0.04990
4215.63249,0.05130
4217.56096,0.05011
4219.48943,0.04928
4221.41789,0.04729
4223.34636,0.04359
4225.27483,0.03957
4227.20330,0.03656
4229.13177,0.03699
4231.06024,0.03735
4232.98871,0.03265
4234.91718,0.02906
4236.84564,0.03364
4238.77411,0.04049
4240.70258,0.04257
4242.63105,0.04419
4244.55952,0.04661
4246.48799,0.04371
4248.41646,0.03979
4250.34492,0.04029
4252.27339,0.03945
4254.20186,0.03749
4256.13033,0.03831
4258.05880,0.03700
4259.98727,0.03435
4261.91574,0.03938
4263.84421,0.04841
4265.77267,0.05027
4267.70114,0.04438
4269.62961,0.03777
4271.55808,0.03587
4273.48655,0.03766
4275.41502,0.04080
4277.34349,0.04370
4279.27195,0.04288
4281.20042,0.04043
4283.12889,0.04087
4285.05736,0.04020
4286.98583,0.03253
4288.91430,0.02531
4290.84277,0.02582
4292.77124,0.02931
4294.69970,0.03395
4296.62817,0.03837
4298.55664,0.03994
4300.48511,0.03941
4302.41358,0.03840
4304.34205,0.03919
4306.27052,0.03750
4308.19898,0.03114
4310.12745,0.02816
4312.05592,0.02923
4313.98439,0.02996
4315.91286,0.03159
4317.84133,0.03055
4319.76980,0.02667
4321.69827,0.02889
4323.62673,0.03423
4325.55520,0.03347
4327.48367,0.03061
4329.41214,0.03347
4331.34061,0.03770
4333.26908,0.03494
4335.19755,0.02759
4337.12601,0.02361
4339.05448,0.02278
4340.98295,0.02348
4342.91142,0.02701
4344.83989,0.02430
4346.76836,0.01354
4348.69683,0.00854
4350.62530,0.01188
4352.55376,0.01722
4354.48223,0.02464
4356.41070,0.03146
4358.33917,0.03131
4360.26764,0.02904
4362.19611,0.02831
4364.12458,0.02576
4366.05304,0.02232
4367.98151,0.01748
4369.90998,0.01306
4371.83845,0.01276
4373.76692,0.01568
4375.69539,0.02114
4377.62386,0.02390
4379.55232,0.02066
4381.48079,0.02072
4383.40926,0.02745
4385.33773,0.03203
4387.26620,0.02997
4389.19467,0.02298
4391.12314,0.01533
4393.05161,0.01173
4394.98007,0.01446
4396.90854,0.01902
4398.83701,0.01979
4400.76548,0.02072
4402.69395,0.02413
4404.62242,0.02507
4406.55089,0.02281
4408.47935,0.02122
4410.40782,0.02207
4412.33629,0.02313
4414.26476,0.02329
4416.19323,0.02585
4418.12170,0.02952
4420.05017,0.02829
4421.97864,0.02375
4423.90710,0.02170
4425.83557,0.02314
4427.76404,0.02370
4429.69251,0.02138
4431.62098,0.01887
4433.54945,0.01569
4435.47792,0.01411
4437.40638,0.01711
4439.33485,0.02006
4441.26332,0.02149
4443.19179,0.02305
4445.12026,0.02412
4447.04873,0.02429
4448.97720,0.02142
4450.90567,0.01720
4452.83413,0.01589
4454.76260,0.01305
4456.69107,0.00885
4458.61954,0.00865
4460.54801,0.00556
4462.47648,-0.00128
4464.40495,0.00001
4466.33341,0.00668
4468.26188,0.00691
4470.19035,0.00262
4472.11882,0.00074
4474.04729,0.00378
4475.97576,0.01273
4477.90423,0.01483
4479.83270,0.00241
4481.76116,-0.00601
4483.68963,-0.00166
4485.61810,0.00534
4487.54657,0.00970
4489.47504,0.00980
4491.40351,0.00858
4493.33198,0.01236
4495.26044,0.01518
4497.18891,0.01096
4499.11738,0.00939
4501.04585,0.01147
4502.97432,0.00972
4504.90279,0.00964
4506.83126,0.01370
4508.75973,0.01381
4510.68819,0.01018
4512.61666,0.01039
4514.54513,0.00896
4516.47360,0.00069
4518.40207,-0.00138
4520.33054,0.00730
4522.25901,0.01373
4524.18747,0.01390
4526.11594,0.01482
4528.04441,0.01504
4529.97288,0.00895
4531.90135,0.00287
4533.82982,0.00668
4535.75829,0.01758
4537.68676,0.02318
4539.61522,0.01681
4541.54369,0.00696
4543.47216,0.00286
4545.40063,0.00189
4547.32910,0.00269
4549.25757,0.00660
4551.18604,0.00982
4553.11450,0.01071
4555.04297,0.01200
4556.97144,0.01455
4558.89991,0.01846
4560.82838,0.02108
4562.75685,0.01876
4564.68532,0.01735
4566.61378,0.01773
4568.54225,0.01237
4570.47072,0.00723
4572.39919,0.00762
4574.32766,0.01011
4576.25613,0.01717
4578.18460,0.02872
4580.11307,0.03806
4582.04153,0.03861
4583.97000,0.03115
4585.89847,0.02411
4587.82694,0.02098
4589.75541,0.01962
4591.68388,0.01809
4593.61235,0.01757
4595.54081,0.01982
4597.46928,0.02259
4599.39775,0.02339
4601.32622,0.01784
4603.25469,0.00527
4605.18316,-0.00269
4607.11163,0.00038
4609.04010,0.00541
4610.96856,0.00478
4612.89703,0.00612
4614.82550,0.01493
4616.75397,0.01973
4618.68244,0.01244
4620.61091,0.00243
4622.53938,0.00385
4624.46784,0.00771
4626.39631,-0.00431
4628.32478,-0.01519
4630.25325,-0.00599
4632.18172,0.00543
4634.11019,0.00311
4636.03866,-0.00197
4637.96713,-0.00254
4639.89559,-0.00180
4641.82406,0.00142
4643.75253,0.00965
4645.68100,0.01961
4647.60947,0.01926
4649.53794,0.00860
4651.46641,-0.00115
4653.39487,-0.00736
4655.32334,-0.00371
4657.25181,0.00811
4659.18028,0.01341
4661.10875,0.01115
4663.03722,0.00779
4664.96569,0.00357
4666.89416,0.00335
4668.82262,0.01733
4670.75109,0.03623
4672.67956,0.03689
4674.60803,0.02098
4676.53650,0.00356
4678.46497,-0.00922
4680.39344,-0.00828
4682.32190,0.00452
4684.25037,0.01301
4686.17884,0.01372
4688.10731,0.01216
4690.03578,0.00710
4691.96425,-0.00097
4693.89272,-0.00143
4695.82119,0.00755
4697.74965,0.01489
4699.67812,0.01533
4701.60659,0.01171
4703.53506,0.00864
4705.46353,0.00589
4707.39200,0.00392
4709.32047,0.00174
4711.24893,-0.00338
4713.17740,-0.00769
4715.10587,-0.00994
4717.03434,-0.01240
4718.96281,-0.01248
4720.89128,-0.00613
4722.81975,-0.00212
4724.74821,-0.00441
4726.67668,-0.00062
4728.60515,0.00687
4730.53362,0.01158
4732.46209,0.01216
4734.39056,0.00605
4736.31903,0.00364
4738.24750,0.00787
4740.17596,0.00813
4742.10443,0.00216
4744.03290,-0.00560
4745.96137,-0.00420
4747.88984,0.00678
4749.81831,0.01391
4751.74678,0.01366
4753.67524,0.01159
4755.60371,0.00884
4757.53218,0.00420
4759.46065,0.00475
4761.38912,0.00869
4763.31759,0.00176
4765.24606,-0.00813
4767.17453,-0.00691
4769.10299,-0.00424
4771.03146,-0.00633
4772.95993,-0.00313
4774.88840,0.00139
4776.81687,0.00128
4778.74534,0.00472
4780.67381,0.01032
4782.60227,0.01568
4784.53074,0.01807
4786.45921,0.00812
4788.38768,-0.00231
4790.31615,0.00063
4792.24462,0.00694
4794.17309,0.00959
4796.10156,0.01060
4798.03002,0.00919
4799.95849,0.00413
4801.88696,0.00006
4803.81543,0.00231
4805.74390,0.00512
4807.67237,0.00333
4809.60084,0.00262
4811.52930,0.00721
4813.45777,0.01413
4815.38624,0.01709
4817.31471,0.01551
4819.24318,0.00979
4821.17165,-0.00037
4823.10012,-0.00278
4825.02859,0.00464
4826.95705,0.00520
4828.88552,0.00038
4830.81399,0.00073
4832.74246,0.00468
4834.67093,0.01099
4836.59940,0.02092
4838.52787,0.02796
4840.45633,0.02350
4842.38480,0.01661
4844.31327,0.01973
4846.24174,0.02950
4848.17021,0.03697
4850.09868,0.03270
4852.02715,0.02086
4853.95562,0.01774
4855.88408,0.02159
4857.81255,0.02572
4859.74102,0.02914
4861.66949,0.02124
4863.59796,0.00148
4865.52643,-0.01285
4867.45490,-0.01301
4869.38336,-0.00333
4871.31183,0.00868
4873.24030,0.01250
4875.16877,0.00546
4877.09724,-0.00154
4879.02571,-0.00026
4880.95418,0.00772
4882.88265,0.01502
4884.81111,0.01272
4886.73958,0.00258
4888.66805,0.00097
4890.59652,0.00434
4892.52499,-0.00152
4894.45346,-0.00183
4896.38193,0.00916
4898.31039,0.01624
4900.23886,0.01302
4902.16733,-0.00121
4904.09580,-0.01667
4906.02427,-0.01744
4907.95274,-0.00394
4909.88121,0.00893
4911.80967,0.01115
4913.73814,0.00238
4915.66661,-0.00762
4917.59508,-0.00458
4919.52355,0.01102
4921.45202,0.02559
4923.38049,0.02842
4925.30896,0.01620
4927.23742,-0.00339
4929.16589,-0.01033
4931.09436,0.00166
4933.02283,0.01735
4934.95130,0.02290
4936.87977,0.01164
4938.80824,-0.00154
4940.73670,-0.00488
4942.66517,-0.01016
4944.59364,-0.01350
4946.52211,-0.00456
4948.45058,0.00615
4950.37905,0.00359
4952.30752,-0.00820
4954.23599,-0.01275
4956.16445,-0.00372
4958.09292,0.00753
4960.02139,0.00695
4961.94986,0.00400
4963.87833,0.00834
4965.80680,0.00510
4967.73527,-0.01046
4969.66373,-0.01366
4971.59220,0.00346
4973.52067,0.00877
4975.44914,-0.00635
4977.37761,-0.01241
4979.30608,-0.00044
4981.23455,0.01071
4983.16302,0.01161
4985.09148,0.01556
4987.01995,0.02410
4988.94842,0.02061
4990.87689,0.01246
4992.80536,0.01120
4994.73383,0.00729
4996.66230,0.00313
4998.59076,0.00106
5000.51923,-0.00069
5002.44770,0.00837
5004.37617,0.01727
5006.30464,0.00559
5008.23311,-0.00854
5010.16158,-0.00874
5012.09005,-0.01022
5014.01851,-0.01762
5015.94698,-0.02002
5017.87545,-0.01204
5019.80392,0.00011
5021.73239,0.00555
5023.66086,0.00517
5025.58933,0.00722
5027.51779,0.01768
5029.44626,0.03237
5031.37473,0.03371
5033.30320,0.01675
5035.23167,-0.00009
5037.16014,-0.00741
5039.08861,-0.00359
5041.01708,0.01042
5042.94554,0.02289
5044.87401,0.02214
5046.80248,0.00786
5048.73095,-0.00946
5050.65942,-0.01576
5052.58789,0.00186
5054.51636,0.02661
5056.44482,0.02871
5058.37329,0.01639
5060.30176,0.00928
5062.23023,0.00324
5064.15870,-0.00962
5066.08717,-0.02071
5068.01564,-0.01981
5069.94410,-0.01046
5071.87257,-0.00098
5073.80104,0.00176
5075.72951,-0.00154
5077.65798,-0.00423
5079.58645,0.00195
5081.51492,0.02029
5083.44339,0.03264
5085.37185,0.02896
5087.30032,0.03049
5089.22879,0.04118
5091.15726,0.04171
5093.08573,0.03307
5095.01420,0.02483
5096.94267,0.01486
5098.87113,0.00357
5100.79960,0.00120
5102.72807,0.01054
5104.65654,0.01952
5106.58501,0.01839
5108.51348,0.00925
5110.44195,-0.00160
5112.37042,-0.00502
5114.29888,-0.00314
5116.22735,-0.01182
5118.15582,-0.01844
5120.08429,-0.00666
5122.01276,0.00817
5123.94123,0.01857
5125.86970,0.02517
5127.79816,0.02461
5129.72663,0.02102
5131.65510,0.01738
5133.58357,0.01936
5135.51204,0.02533
5137.44051,0.02497
5139.36898,0.02548
5141.29745,0.02500
5143.22591,0.01409
5145.15438,0.00645
5147.08285,0.00825
5149.01132,0.01646
5150.93979,0.02940
5152.86826,0.03179
5154.79673,0.01983
5156.72519,0.01195
5158.65366,0.00950
5160.58213,0.00331
5162.51060,0.00747
5164.43907,0.02356
5166.36754,0.02651
5168.29601,0.01323
5170.22448,0.01199
5172.15294,0.02816
5174.08141,0.03116
5176.00988,0.01814
5177.93835,0.00956
5179.86682,0.01060
5181.79529,0.01638
5183.72376,0.02440
5185.65222,0.03161
5187.58069,0.03131
5189.50916,0.02778
5191.43763,0.02858
5193.36610,0.03439
5195.29457,0.03725
5197.22304,0.02761
5199.15151,0.01854
5201.07997,0.02220
5203.00844,0.03076
5204.93691,0.03467
5206.86538,0.02345
5208.79385,0.00978
5210.72232,0.01467
5212.65079,0.03054
5214.57925,0.04358
5216.50772,0.05365
5218.43619,0.06260
5220.36466,0.06147
5222.29313,0.04829
5224.22160,0.02749
5226.15007,0.01197
5228.07854,0.01413
5230.00700,0.01970
5231.93547,0.03128
5233.86394,0.05434
5235.79241,0.06068
5237.72088,0.03841
5239.64935,0.01648
5241.57782,0.02353
5243.50628,0.04223
5245.43475,0.04163
5247.36322,0.03737
5249.29169,0.04628
5251.22016,0.06063
5253.14863,0.08019
5255.07710,0.09041
5257.00556,0.07061
5258.93403,0.03762
5260.86250,0.01969
5262.79097,0.00824
5264.71944,-0.01207
5266.64791,-0.02026
5268.57638,-0.01438
5270.50485,-0.00285
5272.43331,0.01528
5274.36178,0.03084
5276.29025,0.04000
5278.21872,0.03938
5280.14719,0.02973
5282.07566,0.02934
5284.00413,0.04089
5285.93259,0.03922
5287.86106,0.02241
5289.78953,0.01262
5291.71800,0.01602
5293.64647,0.03308
5295.57494,0.04680
5297.50341,0.04248
5299.43188,0.04190
5301.36034,0.04137
5303.28881,0.01663
5305.21728,-0.00882
5307.14575,-0.00642
5309.07422,0.00888
5311.00269,0.01645
5312.93116,0.02791
5314.85962,0.05170
5316.78809,0.06888
5318.71656,0.06408
5320.64503,0.04982
5322.57350,0.05338
5324.50197,0.07913
5326.43044,0.08585
5328.35891,0.05320
5330.28737,0.02605
5332.21584,0.02928
5334.14431,0.03713
5336.07278,0.03106
5338.00125,0.03448
5339.92972,0.05677
5341.85819,0.06441
5343.78665,0.04929
5345.71512,0.03011
5347.64359,0.02186
5349.57206,0.02713
5351.50053,0.03252
5353.42900,0.02979
5355.35747,0.03685
5357.28594,0.04072
5359.21440,0.02171
5361.14287,0.00635
5363.07134,0.01391
5364.99981,0.03417
5366.92828,0.05560
5368.85675,0.05439
5370.78522,0.02910
5372.71368,0.02728
5374.64215,0.07226
5376.57062,0.10484
5378.49909,0.08310
5380.42756,0.06370
5382.35603,0.07492
5384.28450,0.09930
5386.21297,0.10828
5388.14143,0.08222
5390.06990,0.05194
5391.99837,0.04168
5393.92684,0.04491
5395.85531,0.05102
5397.78378,0.04334
5399.71225,0.03176
5401.64071,0.04918
5403.56918,0.08274
5405.49765,0.07732
5407.42612,0.03344
5409.35459,0.02057
5411.28306,0.05818
5413.21153,0.08693
5415.13999,0.07932
5417.06846,0.05981
5418.99693,0.04696
5420.92540,0.04902
5422.85387,0.04623
5424.78234,0.02137
5426.71081,-0.00166
5428.63928,0.00079
5430.56774,0.01905
5432.49621,0.04019
5434.42468,0.05423
5436.35315,0.04466
5438.28162,0.01965
5440.21009,-0.00701
5442.13856,-0.02907
5444.06702,-0.02953
5445.99549,0.00651
5447.92396,0.04467
5449.85243,0.04274
5451.78090,0.02613
5453.70937,0.02101
5455.63784,0.01993
5457.56631,0.01832
5459.49477,0.03458
5461.42324,0.07175
5463.35171,0.09166
5465.28018,0.08662
5467.20865,0.06983
5469.13712,0.03063
5471.06559,-0.00673
5472.99405,-0.00729
5474.92252,0.00888
5476.85099,0.01645
5478.77946,0.02446
5480.70793,0.02530
5482.63640,0.01494
5484.56487,0.01125
5486.49334,0.00719
5488.42180,0.00568
5490.35027,0.03451
5492.27874,0.06681
5494.20721,0.06605
5496.13568,0.06015
5498.06415,0.06252
5499.99262,0.06554
5501.92108,0.07500
5503.84955,0.08243
5505.77802,0.07194
5507.70649,0.04822
5509.63496,0.02688
5511.56343,0.02287
5513.49190,0.03593
5515.42037,0.04179
5517.34883,0.03933
5519.27730,0.05191
5521.20577,0.06728
5523.13424,0.05653
5525.06271,0.03082
5526.99118,0.01641
5528.91965,0.01790
5530.84811,0.03130
5532.77658,0.05112
5534.70505,0.07373
5536.63352,0.09345
5538.56199,0.10152
5540.49046,0.10158
5542.41893,0.10038
5544.34740,0.08821
5546.27586,0.07001
5548.20433,0.06928
5550.13280,0.08094
5552.06127,0.08136
5553.98974,0.06235
5555.91821,0.04182
5557.84668,0.04005
5559.77514,0.04460
5561.70361,0.03519
5563.63208,0.03113
5565.56055,0.05286
5567.48902,0.06131
5569.41749,0.03397
5571.34596,0.01072
5573.27443,0.00442
5575.20289,-0.00170
5577.13136,0.00412
5579.05983,0.02578
5580.98830,0.04576
5582.91677,0.06413
5584.84524,0.07616
5586.77371,0.06830
5588.70217,0.06536
5590.63064,0.09061
5592.55911,0.10546
5594.48758,0.07255
5596.41605,0.02299
5598.34452,0.01585
5600.27299,0.03937
5602.20145,0.03768
5604.12992,0.02319
5606.05839,0.02366
5607.98686,0.02258
5609.91533,0.01121
5611.84380,-0.00019
5613.77227,0.01069
5615.70074,0.05154
5617.62920,0.09330
5619.55767,0.11837
5621.48614,0.12176
5623.41461,0.09795
5625.34308,0.07233
5627.27155,0.05076
5629.20002,0.01083
5631.12848,-0.02053
5633.05695,-0.01950
5634.98542,-0.00485
5636.91389,0.00485
5638.84236,0.01041
5640.77083,0.02054
5642.69930,0.02221
5644.62777,0.00488
5646.55623,-0.01219
5648.48470,-0.01604
5650.41317,-0.00701
5652.34164,0.01539
5654.27011,0.05385
5656.19858,0.09633
5658.12705,0.11419
5660.05551,0.10078
5661.98398,0.06401
5663.91245,0.03215
5665.84092,0.04164
5667.76939,0.06627
5669.69786,0.06981
5671.62633,0.07187
5673.55480,0.09225
5675.48326,0.10428
5677.41173,0.08410
5679.34020,0.06306
5681.26867,0.04957
5683.19714,0.03570
5685.12561,0.05280
5687.05408,0.07567
5688.98254,0.05562
5690.91101,0.02505
5692.83948,0.02280
5694.76795,0.04599
5696.69642,0.07384
5698.62489,0.07005
5700.55336,0.04013
5702.48183,0.03008
5704.41029,0.04203
5706.33876,0.04752
5708.26723,0.03485
5710.19570,0.03048
5712.12417,0.05987
5714.05264,0.09480
5715.98111,0.11110
5717.90957,0.10952
5719.83804,0.08992
5721.76651,0.05306
5723.69498,0.01594
5725.62345,0.00863
5727.55192,0.02165
5729.48039,0.03507
5731.40886,0.05001
5733.33732,0.05900
5735.26579,0.04725
5737.19426,0.02301
5739.12273,0.03325
5741.05120,0.07558
5742.97967,0.09128
5744.90814,0.07479
5746.83660,0.05093
5748.76507,0.04228
5750.69354,0.06593
5752.62201,0.07237
5754.55048,0.03282
5756.47895,0.01131
5758.40742,0.03287
5760.33588,0.06975
5762.26435,0.09765
5764.19282,0.09999
5766.12129,0.09257
5768.04976,0.07924
5769.97823,0.04511
5771.90670,0.02700
5773.83517,0.04725
5775.76363,0.06580
5777.69210,0.05391
5779.62057,0.02063
5781.54904,0.00781
5783.47751,0.04159
5785.40598,0.08596
5787.33445,0.08306
5789.26291,0.02760
5791.19138,-0.02685
5793.11985,-0.02940
5795.04832,0.00545
5796.97679,0.02214
5798.90526,0.01338
5800.83373,0.00517
5802.76220,0.02041
5804.69066,0.06700
5806.61913,0.09991
5808.54760,0.09026
5810.47607,0.07166
5812.40454,0.08392
5814.33301,0.11465
5816.26148,0.11785
5818.18994,0.10295
5820.11841,0.10458
5822.04688,0.11324
5823.97535,0.09592
5825.90382,0.04696
5827.83229,0.02022
5829.76076,0.03942
5831.68923,0.05153
5833.61769,0.04337
5835.54616,0.03800
5837.47463,0.03924
5839.40310,0.05295
5841.33157,0.07881
5843.26004,0.10281
5845.18851,0.10345
5847.11697,0.07212
5849.04544,0.02918
5850.97391,0.00857
5852.90238,0.02118
5854.83085,0.03902
5856.75932,0.03126
5858.68779,0.01233
5860.61626,0.01209
5862.54472,0.02563
5864.47319,0.05159
5866.40166,0.08186
5868.33013,0.07748
5870.25860,0.06111
5872.18707,0.06306
5874.11554,0.06625
5876.04400,0.08023
5877.97247,0.09233
5879.90094,0.06549
5881.82941,0.02091
5883.75788,0.00699
5885.68635,0.03460
5887.61482,0.05939
5889.54329,0.04862
5891.47175,0.03974
5893.40022,0.05920
5895.32869,0.05957
5897.25716,0.02079
5899.18563,-0.00135
5901.11410,0.01981
5903.04257,0.04613
5904.97103,0.04782
5906.89950,0.04597
5908.82797,0.06054
5910.75644,0.07739
5912.68491,0.06989
5914.61338,0.03782
5916.54185,0.01586
5918.47032,0.02153
5920.39878,0.03553
5922.32725,0.03624
5924.25572,0.03935
5926.18419,0.05038
5928.11266,0.04538
5930.04113,0.03531
5931.96960,0.02964
5933.89806,0.01729
5935.82653,0.01364
5937.75500,0.03228
5939.68347,0.05648
5941.61194,0.07511
5943.54041,0.07358
5945.46888,0.03549
5947.39734,-0.00706
5949.32581,-0.00184
5951.25428,0.04365
5953.18275,0.04753
5955.11122,0.00166
5957.03969,-0.00469
5958.96816,0.04408
5960.89663,0.08225
5962.82509,0.07153
5964.75356,0.03345
5966.68203,0.01466
5968.61050,0.03792
5970.53897,0.08542
5972.46744,0.11612
5974.39591,0.09850
5976.32437,0.05473
5978.25284,0.03629
5980.18131,0.05921
5982.10978,0.09496
5984.03825,0.09708
5985.96672,0.05405
5987.89519,0.02092
5989.82366,0.03324
5991.75212,0.03771
5993.68059,-0.00704
5995.60906,-0.04087
5997.53753,-0.01431
5999.46600,0.02956
6001.39447,0.04874
6003.32294,0.03481
6005.25140,0.01861
6007.17987,0.03387
6009.10834,0.05969
6011.03681,0.06670
6012.96528,0.06994
6014.89375,0.09635
6016.82222,0.12780
6018.75069,0.12140
6020.67915,0.09472
6022.60762,0.07543
6024.53609,0.06344
6026.46456,0.08660
6028.39303,0.10620
6030.32150,0.06056
6032.24997,0.01955
6034.17843,0.03434
6036.10690,0.02964
6038.03537,-0.02311
6039.96384,-0.03514
6041.89231,0.02223
6043.82078,0.09127
6045.74925,0.11824
6047.67772,0.09860
6049.60618,0.08239
6051.53465,0.09578
6053.46312,0.10084
6055.39159,0.09194
6057.32006,0.10288
6059.24853,0.12240
6061.17700,0.10184
6063.10546,0.04226
6065.03393,0.02142
6066.96240,0.04132
6068.89087,0.02364
6070.81934,-0.00236
6072.74781,0.02232
6074.67628,0.04313
6076.60475,0.02164
6078.53321,0.01262
6080.46168,0.02288
6082.39015,0.00204
6084.31862,-0.03820
6086.24709,-0.06520
6088.17556,-0.06922
6090.10403,-0.05615
6092.03249,-0.02731
6093.96096,0.03409
6095.88943,0.08071
6097.81790,0.06460
6099.74637,0.03505
6101.67484,0.01861
6103.60331,-0.02140
6105.53177,-0.07184
6107.46024,-0.06891
6109.38871,0.01351
6111.31718,0.10458
6113.24565,0.11921
6115.17412,0.08163
6117.10259,0.07176
6119.03106,0.11067
6120.95952,0.13825
6122.88799,0.11349
6124.81646,0.07654
6126.74493,0.08006
6128.67340,0.10776
6130.60187,0.12355
6132.53034,0.12518
6134.45880,0.09976
6136.38727,0.06105
6138.31574,0.06941
6140.24421,0.12765
6142.17268,0.14580
6144.10115,0.10065
6146.02962,0.06720
6147.95809,0.05008
6149.88655,0.01852
6151.81502,0.01093
6153.74349,0.05706
6155.67196,0.10058
6157.60043,0.07836
6159.52890,-0.00726
6161.45737,-0.05230
6163.38583,0.01374
6165.31430,0.11934
6167.24277,0.18362
6169.17124,0.18158
6171.09971,0.13642
6173.02818,0.10802
6174.95665,0.10225
6176.88512,0.10051
6178.81358,0.13944
6180.74205,0.18365
6182.67052,0.14417
6184.59899,0.07486
6186.52746,0.04593
6188.45593,0.06630
6190.38440,0.12140
6192.31286,0.16402
6194.24133,0.16547
6196.16980,0.12679
6198.09827,0.09005
6200.02674,0.07764
6201.95521,0.06442
6203.88368,0.02970
6205.81215,0.00646
6207.74061,0.02561
6209.66908,0.03466
6211.59755,0.01820
6213.52602,0.02650
6215.45449,0.06903
6217.38296,0.10794
6219.31143,0.11496
6221.23989,0.11834
6223.16836,0.12067
6225.09683,0.10671
6227.02530,0.10090
6228.95377,0.11147
6230.88224,0.11156
6232.81071,0.08579
6234.73918,0.06200
6236.66764,0.04325
6238.59611,0.02330
6240.52458,0.05157
6242.45305,0.13083
6244.38152,0.17211
6246.30999,0.11087
6248.23846,-0.01463
6250.16692,-0.09135
6252.09539,-0.07219
6254.02386,-0.00017
6255.95233,0.08157
6257.88080,0.09049
6259.80927,0.03387
6261.73774,0.03742
6263.66621,0.10125
6265.59467,0.13731
6267.52314,0.13572
6269.45161,0.11150
6271.38008,0.09877
6273.30855,0.14527
6275.23702,0.21663
6277.16549,0.20451
6279.09395,0.11291
6281.02242,0.04871
6282.95089,0.02254
6284.87936,-0.00843
6286.80783,-0.02221
6288.73630,0.00252
6290.66477,0.03763
6292.59323,0.05056
6294.52170,0.02921
6296.45017,-0.01388
6298.37864,-0.01612
6300.30711,0.04865
6302.23558,0.09721
6304.16405,0.06108
6306.09252,0.00914
6308.02098,0.03223
6309.94945,0.09683
6311.87792,0.10506
6313.80639,0.06911
6315.73486,0.04219
6317.66333,0.03029
6319.59180,0.05517
6321.52026,0.08569
6323.44873,0.06165
6325.37720,0.01578
6327.30567,-0.01018
6329.23414,0.00615
6331.16261,0.07158
6333.09108,0.12288
6335.01955,0.14893
6336.94801,0.18937
6338.87648,0.17775
6340.80495,0.10963
6342.73342,0.07511
6344.66189,0.03992
6346.59036,-0.01401
6348.51883,-0.01105
6350.44729,0.02075
6352.37576,0.00648
6354.30423,-0.02496
6356.23270,-0.02659
6358.16117,0.00250
6360.08964,0.04348
6362.01811,0.09862
6363.94658,0.15902
6365.87504,0.16821
6367.80351,0.14538
6369.73198,0.12459
6371.66045,0.07825
6373.58892,0.05269
6375.51739,0.08774
6377.44586,0.13330
6379.37432,0.14410
6381.30279,0.11636
6383.23126,0.05148
6385.15973,-0.01980
6387.08820,-0.04709
6389.01667,-0.02739
6390.94514,-0.01200
6392.87361,-0.04552
6394.80207,-0.05437
6396.73054,-0.01310
6398.65901,0.00509
6400.58748,-0.00194
6402.51595,0.01664
6404.44442,0.06974
6406.37289,0.12836
6408.30135,0.18303
6410.22982,0.21798
6412.15829,0.22611
6414.08676,0.21878
6416.01523,0.20118
6417.94370,0.15191
6419.87217,0.06736
6421.80064,0.02702
6423.72910,0.02387
6425.65757,-0.00174
6427.58604,-0.02774
6429.51451,-0.04228
6431.44298,-0.01204
6433.37145,0.09887
6435.29992,0.18641
6437.22838,0.14297
6439.15685,0.05346
6441.08532,0.02597
6443.01379,0.00072
6444.94226,-0.02563
6446.87073,0.01314
6448.79920,0.08718
6450.72766,0.14158
6452.65613,0.14100
6454.58460,0.08813
6456.51307,0.06295
6458.44154,0.09961
6460.37001,0.12067
6462.29848,0.08899
6464.22695,0.04325
6466.15541,0.03207
6468.08388,0.07900
6470.01235,0.14147
6471.94082,0.14123
6473.86929,0.13766
6475.79776,0.19554
6477.72623,0.20725
6479.65469,0.14694
6481.58316,0.11439
6483.51163,0.11744
6485.44010,0.09378
6487.36857,0.04597
6489.29704,0.01253
6491.22551,-0.00509
6493.15398,-0.00005
6495.08244,0.00820
6497.01091,-0.01574
6498.93938,-0.03229
6500.86785,0.00805
6502.79632,0.06759
6504.72479,0.06627
6506.65326,0.03533
6508.58172,0.08485
6510.51019,0.19911
6512.43866,0.23528
6514.36713,0.15449
6516.29560,0.05869
6518.22407,0.07266
6520.15254,0.16500
6522.08101,0.19373
6524.00947,0.13712
6525.93794,0.08674
6527.86641,0.08913
6529.79488,0.10379
6531.72335,0.11852
6533.65182,0.16558
6535.58029,0.17520
6537.50875,0.07977
6539.43722,-0.01785
6541.36569,-0.03373
6543.29416,-0.01284
6545.22263,0.03825
6547.15110,0.12205
6549.07957,0.16202
6551.00804,0.10462
6552.93650,0.04634
6554.86497,0.05497
6556.79344,0.09523
6558.72191,0.14596
6560.65038,0.17214
6562.57885,0.16511
6564.50732,0.12855
6566.43578,0.05309
6568.36425,0.02867
6570.29272,0.03648
6572.22119,-0.02009
6574.14966,-0.06914
6576.07813,-0.09605
6578.00660,-0.11421
6579.93507,-0.03983
6581.86353,0.07252
6583.79200,0.12077
6585.72047,0.10373
6587.64894,0.05727
6589.57741,0.06925
6591.50588,0.15371
6593.43435,0.18560
6595.36281,0.06966
6597.29128,-0.08901
6599.21975,-0.11564
6601.14822,0.00239
6603.07669,0.07823
6605.00516,0.07283
6606.93363,0.05362
6608.86210,0.01523
6610.79056,-0.00459
6612.71903,0.04430
6614.64750,0.10784
6616.57597,0.10192
6618.50444,0.04276
6620.43291,0.02753
6622.36138,0.05235
6624.28984,0.03633
6626.21831,-0.01018
6628.14678,0.01733
6630.07525,0.13621
6632.00372,0.19369
6633.93219,0.12646
6635.86066,0.05674
6637.78912,0.07918
6639.71759,0.09478
6641.64606,0.07638
6643.57453,0.09397
6645.50300,0.13113
6647.43147,0.14346
6649.35994,0.14033
6651.28841,0.14865
6653.21687,0.14108
6655.14534,0.09113
6657.07381,0.04630
6659.00228,0.01119
6660.93075,-0.00915
6662.85922,0.03785
6664.78769,0.11106
6666.71615,0.14532
6668.64462,0.14658
6670.57309,0.12279
6672.50156,0.06323
6674.43003,0.04649
6676.35850,0.12342
6678.28697,0.20845
6680.21544,0.21837
6682.14390,0.16896
6684.07237,0.09977
6686.00084,0.04915
6687.92931,0.01660
6689.85778,-0.02269
6691.78625,0.00184
6693.71472,0.05738
6695.64318,0.04080
6697.57165,0.03410
6699.50012,0.08316
6701.42859,0.05506
6703.35706,0.01258
6705.28553,0.04497
6707.21400,0.02805
6709.14247,-0.04109
6711.07093,-0.08240
6712.99940,-0.10826
6714.92787,-0.09190
6716.85634,-0.03573
6718.78481,0.00838
6720.71328,0.05658
6722.64175,0.11712
6724.57021,0.13260
6726.49868,0.09291
6728.42715,0.04901
6730.35562,0.02326
6732.28409,0.00549
6734.21256,0.00788
6736.14103,0.01482
6738.06950,-0.00694
6739.99796,-0.01829
6741.92643,0.02026
6743.85490,0.06223
6745.78337,0.03579
6747.71184,-0.02680
6749.64031,0.02340
6751.56878,0.15500
6753.49724,0.16514
6755.42571,0.06605
6757.35418,0.00768
6759.28265,0.01637
6761.21112,0.03350
6763.13959,0.02439
6765.06806,0.01547
6766.99653,0.00287
6768.92499,-0.00595
6770.85346,-0.00287
6772.78193,-0.01755
6774.71040,-0.06732
6776.63887,-0.10436
6778.56734,-0.06365
6780.49581,0.00507
6782.42427,0.06201
6784.35274,0.08953
6786.28121,0.06250
6788.20968,0.04048
6790.13815,0.07780
6792.06662,0.12318
6793.99509,0.10066
6795.92355,0.03316
6797.85202,-0.00264
6799.78049,0.00515
6801.70896,0.04042
6803.63743,0.04121
6805.56590,-0.02903
6807.49437,-0.08854
6809.42284,-0.08491
6811.35130,-0.03092
6813.27977,0.04209
6815.20824,0.12009
6817.13671,0.12385
6819.06518,0.03424
6820.99365,-0.02734
6822.92212,-0.01857
6824.85058,0.01294
6826.77905,0.05695
6828.70752,0.10855
6830.63599,0.10136
6832.56446,0.02710
6834.49293,-0.04585
6836.42140,-0.09027
6838.34987,-0.06140
6840.27833,0.01104
6842.20680,0.02227
6844.13527,0.02149
6846.06374,0.11291
6847.99221,0.24433
6849.92068,0.26798
6851.84915,0.17508
6853.77761,0.08269
6855.70608,0.04264
6857.63455,0.01443
6859.56302,0.01795
6861.49149,0.07959
6863.41996,0.09662
6865.34843,0.02253
6867.27690,-0.02067
6869.20536,0.03789
6871.13383,0.10411
6873.06230,0.11976
6874.99077,0.11389
6876.91924,0.08755
6878.84771,0.03063
6880.77618,0.02743
6882.70464,0.12912
6884.63311,0.22071
6886.56158,0.23147
6888.49005,0.23136
6890.41852,0.22923
6892.34699,0.13582
6894.27546,0.00784
6896.20393,-0.00587
6898.13239,0.07492
6900.06086,0.09621
6901.98933,0.07709
6903.91780,0.10157
6905.84627,0.12284
6907.77474,0.06349
6909.70321,-0.02845
6911.63167,-0.08225
6913.56014,-0.11773
6915.48861,-0.17152
6917.41708,-0.18229
6919.34555,-0.10972
6921.27402,-0.03873
6923.20249,-0.02048
6925.13096,0.02502
6927.05942,0.12170
6928.98789,0.14890
6930.91636,0.05492
6932.84483,0.00818
6934.77330,0.08821
6936.70177,0.13784
6938.63024,0.11197
6940.55870,0.12018
6942.48717,0.14223
6944.41564,0.11012
6946.34411,0.11306
6948.27258,0.19412
6950.20105,0.18032
6952.12952,0.11848
6954.05799,0.22618
6955.98645,0.30705
6957.91492,0.14826
6959.84339,-0.02043
6961.77186,-0.10323
6963.70033,-0.12887
6965.62880,-0.08191
6967.55727,0.00486
6969.48573,0.06792
6971.41420,0.05416
6973.34267,-0.02657
6975.27114,-0.07462
6977.19961,-0.05267
6979.12808,-0.03818
6981.05655,-0.06272
6982.98501,-0.08063
6984.91348,-0.05089
6986.84195,0.06280
6988.77042,0.20488
6990.69889,0.24095
6992.62736,0.19187
6994.55583,0.08937
6996.48430,-0.10495
6998.41276,-0.25634
7000.34123,-0.15936
7002.26970,0.04407
7004.19817,0.11589
7006.12664,0.08695
7008.05511,0.06740
7009.98358,0.04120
7011.91204,-0.00235
7013.84051,0.03395
7015.76898,0.15699
7017.69745,0.20261
7019.62592,0.10474
7021.55439,-0.03112
7023.48286,-0.07166
7025.41133,0.02764
7027.33979,0.13001
7029.26826,0.13517
7031.19673,0.16251
7033.12520,0.17789
7035.05367,0.05905
7036.98214,0.02041
7038.91061,0.15148
7040.83907,0.22475
7042.76754,0.14016
7044.69601,0.01733
7046.62448,-0.04918
7048.55295,-0.02313
7050.48142,0.01808
7052.40989,-0.01452
7054.33836,-0.06277
7056.26682,-0.04578
7058.19529,-0.07089
7060.12376,-0.14086
7062.05223,-0.05975
7063.98070,0.10258
7065.90917,0.08603
7067.83764,-0.07366
7069.76610,-0.11997
7071.69457,0.03232
7073.62304,0.14399
7075.55151,0.15700
7077.47998,0.16827
7079.40845,0.19165
7081.33692,0.20165
7083.26539,0.18994
7085.19385,0.18893
7087.12232,0.26087
7089.05079,0.34890
7090.97926,0.32717
7092.90773,0.23739
7094.83620,0.18797
7096.76467,0.16798
7098.69313,0.09383
7100.62160,-0.01817
7102.55007,-0.10301
7104.47854,-0.13151
7106.40701,-0.15954
7108.33548,-0.15012
7110.26395,-0.02673
7112.19242,0.06145
7114.12088,0.06768
7116.04935,0.16532
7117.97782,0.38856
7119.90629,0.49663
7121.83476,0.34216
7123.76323,0.11091
7125.69170,0.02381
7127.62016,0.05926
7129.54863,0.11838
7131.47710,0.12128
7133.40557,0.01413
7135.33404,-0.12279
7137.26251,-0.18989
7139.19098,-0.15828
7141.11944,-0.09224
7143.04791,-0.02319
7144.97638,0.12777
7146.90485,0.26251
7148.83332,0.26345
7150.76179,0.20846
7152.69026,0.15028
7154.61873,0.08328
7156.54719,0.00985
7158.47566,-0.02444
7160.40413,0.08888
7162.33260,0.33334
7164.26107,0.43519
7166.18954,0.33538
7168.11801,0.28351
7170.04647,0.22812
7171.97494,0.05691
7173.90341,-0.08421
7175.83188,-0.14109
7177.76035,-0.07633
7179.68882,0.08765
7181.61729,0.27637
7183.54576,0.40646
7185.47422,0.31487
7187.40269,0.10924
7189.33116,-0.00292
7191.25963,-0.01524
7193.18810,-0.03183
7195.11657,-0.05062
7197.04504,-0.00219
7198.97350,0.06535
7200.90197,0.05653
7202.83044,0.01019
7204.75891,-0.02371
7206.68738,-0.07279
7208.61585,-0.10402
7210.54432,-0.07742
7212.47279,0.00028
7214.40125,0.05110
7216.32972,-0.01472
7218.25819,-0.11881
7220.18666,-0.12009
7222.11513,-0.03959
7224.04360,0.08794
7225.97207,0.21805
7227.90053,0.27490
7229.82900,0.25049
7231.75747,0.04884
7233.68594,-0.15543
7235.61441,-0.08940
7237.54288,0.07588
7239.47135,0.03621
7241.39982,-0.15409
7243.32828,-0.17329
7245.25675,-0.00005
7247.18522,0.12000
7249.11369,0.17990
7251.04216,0.19567
7252.97063,0.18186
7254.89910,0.27828
7256.82756,0.32761
7258.75603,0.30278
7260.68450,0.25794
7262.61297,0.12516
7264.54144,-0.07794
7266.46991,-0.17347
7268.39838,-0.11186
7270.32685,0.07024
7272.25531,0.27959
7274.18378,0.26552
7276.11225,0.11443
7278.04072,0.09647
7279.96919,0.26134
7281.89766,0.31156
7283.82613,0.09407
7285.75459,-0.10332
7287.68306,-0.05155
7289.61153,0.08121
7291.54000,0.08568
7293.46847,0.10148
7295.39694,0.23756
7297.32541,0.26195
7299.25387,0.15617
7301.18234,0.11897
7303.11081,0.08221
7305.03928,-0.04175
7306.96775,-0.10249
7308.89622,0.00812
7310.82469,0.14348
7312.75316,0.16531
7314.68162,0.15641
7316.61009,0.19078
7318.53856,0.18072
7320.46703,0.11285
7322.39550,0.09462
7324.32397,0.07202
7326.25244,0.01297
7328.18090,0.03420
7330.10937,0.11977
7332.03784,0.16792
7333.96631,0.17953
7335.89478,0.19083
7337.82325,0.19993
7339.75172,0.06800
7341.68019,-0.11058
7343.60865,-0.05507
7345.53712,0.17640
7347.46559,0.37754
7349.39406,0.35135
7351.32253,0.14499
7353.25100,-0.06807
7355.17947,-0.06848
7357.10793,0.12906
7359.03640,0.16898
7360.96487,0.01713
7362.89334,-0.09364
7364.82181,-0.07125
7366.75028,0.07851
7368.67875,0.20086
7370.60722,0.21633
7372.53568,0.14171
7374.46415,-0.07141
7376.39262,-0.24079
7378.32109,-0.15438
7380.24956,0.03775
7382.17803,0.28077
7384.10650,0.44088
7386.03496,0.34057
7387.96343,0.13418
7389.89190,0.09970
7391.82037,0.20848
7393.74884,0.31815
7395.67731,0.30351
7397.60578,0.12579
7399.53425,-0.02201
7401.46271,-0.04761
7403.39118,-0.07668
7405.31965,-0.02394
7407.24812,0.11398
7409.17659,0.11298
7411.10506,0.09764
7413.03353,0.17846
7414.96199,0.14475
7416.89046,0.01350
7418.81893,0.05034
7420.74740,0.08882
7422.67587,0.00718
7424.60434,0.00575
7426.53281,0.06741
7428.46128,0.09032
7430.38974,0.03626
7432.31821,-0.01231
7434.24668,-0.05213
7436.17515,-0.11397
7438.10362,-0.12454
7440.03209,-0.05400
7441.96056,0.04138
7443.88902,0.07824
7445.81749,0.06738
7447.74596,0.12103
7449.67443,0.21637
7451.60290,0.18216
7453.53137,0.04438
7455.45984,0.02168
7457.38831,0.14407
7459.31677,0.23027
7461.24524,0.07959
7463.17371,-0.09427
7465.10218,-0.06466
7467.03065,0.05001
7468.95912,0.03874
7470.88759,0.00381
7472.81605,0.08931
7474.74452,0.19928
7476.67299,0.25491
7478.60146,0.19740
7480.52993,0.15039
7482.45840,0.32952
7484.38687,0.38649
7486.31533,0.14959
7488.24380,-0.04715
7490.17227,-0.05575
7492.10074,0.00974
7494.02921,0.03877
7495.95768,-0.00571
7497.88615,-0.08440
