399.19301,-0.60364
401.12148,-0.26411
403.04995,-0.05888
404.97842,-0.13201
406.90689,-0.17347
408.83536,-0.22246
410.76382,-0.35056
412.69229,-0.30286
414.62076,-0.03580
416.54923,0.22115
418.47770,0.40690
420.40617,0.45327
422.33464,0.34578
424.26311,0.20177
426.19157,0.06311
428.12004,-0.05457
430.04851,-0.07587
431.97698,0.03285
433.90545,0.10584
435.83392,0.09778
437.76239,0.07952
439.69085,0.07224
441.61932,0.10542
443.54779,0.12542
445.47626,0.06741
447.40473,0.01735
449.33320,-0.01683
451.26167,-0.01873
453.19013,0.05030
455.11860,0.08837
457.04707,0.01414
458.97554,-0.06762
460.90401,-0.06713
462.83248,-0.01247
464.76095,0.09218
466.68942,0.18907
468.61788,0.19812
470.54635,0.13538
472.47482,0.04179
474.40329,-0.04720
476.33176,-0.05698
478.26023,-0.04457
480.18870,-0.01874
482.11716,0.07302
484.04563,0.14684
485.97410,0.12163
487.90257,0.11023
489.83104,0.13524
491.75951,0.11885
493.68798,0.05534
495.61645,-0.01162
497.54491,-0.01852
499.47338,0.03695
501.40185,0.08599
503.33032,0.06487
505.25879,-0.01814
507.18726,-0.07882
509.11573,-0.06813
511.04419,-0.03203
512.97266,0.01549
514.90113,0.09279
516.82960,0.14228
518.75807,0.09340
520.68654,0.01960
522.61501,0.00240
524.54348,0.04676
526.47194,0.09715
528.40041,0.09182
530.32888,0.05282
532.25735,0.02988
534.18582,0.03162
536.11429,0.04203
538.04276,0.05460
539.97122,0.05715
541.89969,0.05264
543.82816,0.05358
545.75663,0.04279
547.68510,0.04045
549.61357,0.07068
551.54204,0.07855
553.47051,0.05954
555.39897,0.05863
557.32744,0.05021
559.25591,0.01818
561.18438,-0.00265
563.11285,-0.00371
565.04132,0.00356
566.96979,0.02465
568.89825,0.06576
570.82672,0.11089
572.75519,0.13176
574.68366,0.11207
576.61213,0.07416
578.54060,0.04863
580.46907,0.04584
582.39754,0.05142
584.32600,0.04265
586.25447,0.03856
588.18294,0.05154
590.11141,0.06581
592.03988,0.07795
593.96835,0.08196
595.89682,0.07762
597.82528,0.07927
599.75375,0.08302
601.68222,0.07146
603.61069,0.05841
605.53916,0.06136
607.46763,0.06080
609.39610,0.04386
611.32456,0.03112
613.25303,0.03888
615.18150,0.05040
617.10997,0.06070
619.03844,0.07611
620.96691,0.07541
622.89538,0.05869
624.82385,0.05400
626.75231,0.06148
628.68078,0.05914
630.60925,0.04871
632.53772,0.04269
634.46619,0.04818
636.39466,0.07384
638.32313,0.09339
640.25159,0.08038
642.18006,0.05630
644.10853,0.04713
646.03700,0.05798
647.96547,0.07234
649.89394,0.07571
651.82241,0.07080
653.75088,0.05789
655.67934,0.04552
657.60781,0.04781
659.53628,0.06172
661.46475,0.06751
663.39322,0.06237
665.32169,0.05794
667.25016,0.05764
669.17862,0.05956
671.10709,0.04847
673.03556,0.03103
674.96403,0.02911
676.89250,0.03909
678.82097,0.03697
680.74944,0.03491
682.67791,0.05593
684.60637,0.08220
686.53484,0.08256
688.46331,0.06008
690.39178,0.04809
692.32025,0.06118
694.24872,0.07806
696.17719,0.08164
698.10565,0.08340
700.03412,0.08948
701.96259,0.09088
703.89106,0.08884
705.81953,0.08640
707.74800,0.07920
709.67647,0.07168
711.60494,0.06999
713.53340,0.07445
715.46187,0.08383
717.39034,0.08792
719.31881,0.08856
721.24728,0.09651
723.17575,0.10094
725.10422,0.09229
727.03268,0.07412
728.96115,0.05873
730.88962,0.05667
732.81809,0.06317
734.74656,0.07367
736.67503,0.08378
738.60350,0.08942
740.53197,0.09256
742.46043,0.09442
744.38890,0.09710
746.31737,0.09806
748.24584,0.08926
750.17431,0.07584
752.10278,0.07593
754.03125,0.08933
755.95971,0.09207
757.88818,0.08264
759.81665,0.08218
761.74512,0.08173
763.67359,0.06710
765.60206,0.05497
767.53053,0.05563
769.45900,0.06270
771.38746,0.07240
773.31593,0.07991
775.24440,0.08024
777.17287,0.07435
779.10134,0.06241
781.02981,0.05182
782.95828,0.06009
784.88674,0.07796
786.81521,0.08314
788.74368,0.08517
790.67215,0.09796
792.60062,0.11465
794.52909,0.11904
796.45756,0.10103
798.38602,0.08345
800.31449,0.08716
802.24296,0.09489
804.17143,0.09612
806.09990,0.08901
808.02837,0.07011
809.95684,0.05973
811.88531,0.06333
813.81377,0.06133
815.74224,0.05689
817.67071,0.06604
819.59918,0.07761
821.52765,0.07571
823.45612,0.06787
825.38459,0.06607
827.31305,0.07119
829.24152,0.07593
831.16999,0.07760
833.09846,0.07579
835.02693,0.06961
836.95540,0.06961
838.88387,0.07891
840.81234,0.08733
842.74080,0.09458
844.66927,0.09636
846.59774,0.08624
848.52621,0.07898
850.45468,0.08287
852.38315,0.08702
854.31162,0.08767
856.24008,0.09123
858.16855,0.10128
860.09702,0.10780
862.02549,0.09655
863.95396,0.07468
865.88243,0.05821
867.81090,0.05207
869.73937,0.06031
871.66783,0.07423
873.59630,0.07669
875.52477,0.07285
877.45324,0.07483
879.38171,0.08160
881.31018,0.08745
883.23865,0.08659
885.16711,0.07846
887.09558,0.06980
889.02405,0.06545
890.95252,0.06532
892.88099,0.06391
894.80946,0.06141
896.73793,0.06981
898.66640,0.08388
900.59486,0.08561
902.52333,0.07946
904.45180,0.08064
906.38027,0.08662
908.30874,0.08813
910.23721,0.08787
912.16568,0.09121
914.09414,0.09229
916.02261,0.08650
917.95108,0.08267
919.87955,0.08524
921.80802,0.08792
923.73649,0.08374
925.66496,0.07560
927.59343,0.07759
929.52189,0.08561
931.45036,0.08383
933.37883,0.07826
935.30730,0.08030
937.23577,0.08743
939.16424,0.08996
941.09271,0.08457
943.02117,0.08049
944.94964,0.08169
946.87811,0.08191
948.80658,0.08234
950.73505,0.08921
952.66352,0.09740
954.59199,0.09869
956.52045,0.09977
958.44892,0.10504
960.37739,0.10490
962.30586,0.09351
964.23433,0.07821
966.16280,0.07645
968.09127,0.08988
970.01974,0.09510
971.94820,0.08264
973.87667,0.07375
975.80514,0.08189
977.73361,0.09079
979.66208,0.08879
981.59055,0.08408
983.51902,0.07967
985.44748,0.07622
987.37595,0.07804
989.30442,0.08183
991.23289,0.08532
993.16136,0.09127
995.08983,0.09618
997.01830,0.09676
998.94677,0.09779
1000.87523,0.09907
1002.80370,0.09503
1004.73217,0.08850
1006.66064,0.08779
1008.58911,0.09521
1010.51758,0.10341
1012.44605,0.10412
1014.37451,0.09981
1016.30298,0.09707
1018.23145,0.09591
1020.15992,0.09352
1022.08839,0.08835
1024.01686,0.08414
1025.94533,0.08636
1027.87380,0.09088
1029.80226,0.08836
1031.73073,0.07781
1033.65920,0.07261
1035.58767,0.07859
1037.51614,0.08339
1039.44461,0.08334
1041.37308,0.09066
1043.30154,0.10917
1045.23001,0.11896
1047.15848,0.10591
1049.08695,0.08686
1051.01542,0.08254
1052.94389,0.09253
1054.87236,0.10032
1056.80083,0.09659
1058.72929,0.08947
1060.65776,0.08983
1062.58623,0.09559
1064.51470,0.09667
1066.44317,0.09125
1068.37164,0.08519
1070.30011,0.08490
1072.22857,0.09138
1074.15704,0.10008
1076.08551,0.10891
1078.01398,0.11216
1079.94245,0.10255
1081.87092,0.08831
1083.79939,0.08386
1085.72786,0.08468
1087.65632,0.08010
1089.58479,0.08131
1091.51326,0.09372
1093.44173,0.09814
1095.37020,0.08979
1097.29867,0.08123
1099.22714,0.07737
1101.15560,0.07840
1103.08407,0.08092
1105.01254,0.08190
1106.94101,0.08736
1108.86948,0.09835
1110.79795,0.10395
1112.72642,0.10311
1114.65489,0.10488
1116.58335,0.10808
1118.51182,0.10557
1120.44029,0.09595
1122.36876,0.08801
1124.29723,0.08946
1126.22570,0.09404
1128.15417,0.09525
1130.08263,0.09557
1132.01110,0.09558
1133.93957,0.09351
1135.86804,0.09530
1137.79651,0.09909
1139.72498,0.09173
1141.65345,0.08086
1143.58191,0.08446
1145.51038,0.09925
1147.43885,0.10883
1149.36732,0.10675
1151.29579,0.10045
1153.22426,0.09835
1155.15273,0.10199
1157.08120,0.10648
1159.00966,0.10676
1160.93813,0.10298
1162.86660,0.09855
1164.79507,0.09651
1166.72354,0.09594
1168.65201,0.09510
1170.58048,0.09610
1172.50894,0.10017
1174.43741,0.10292
1176.36588,0.10176
1178.29435,0.09880
1180.22282,0.09565
1182.15129,0.09576
1184.07976,0.10096
1186.00823,0.10632
1187.93669,0.10726
1189.86516,0.10414
1191.79363,0.09866
1193.72210,0.09266
1195.65057,0.09144
1197.57904,0.09582
1199.50751,0.09808
1201.43597,0.09792
1203.36444,0.09860
1205.29291,0.09705
1207.22138,0.09434
1209.14985,0.09462
1211.07832,0.09811
1213.00679,0.10271
1214.93526,0.10467
1216.86372,0.10178
1218.79219,0.09726
1220.72066,0.09401
1222.64913,0.09199
1224.57760,0.09358
1226.50607,0.09902
1228.43454,0.10245
1230.36300,0.10223
1232.29147,0.10247
1234.21994,0.10147
1236.14841,0.09738
1238.07688,0.09428
1240.00535,0.09347
1241.93382,0.09403
1243.86229,0.09418
1245.79075,0.09235
1247.71922,0.09078
1249.64769,0.09203
1251.57616,0.09404
1253.50463,0.09353
1255.43310,0.09297
1257.36157,0.09451
1259.29003,0.09410
1261.21850,0.09046
1263.14697,0.08831
1265.07544,0.09016
1267.00391,0.09507
1268.93238,0.09786
1270.86085,0.09541
1272.78932,0.09495
1274.71778,0.09726
1276.64625,0.09572
1278.57472,0.09206
1280.50319,0.08937
1282.43166,0.09030
1284.36013,0.09642
1286.28860,0.10018
1288.21706,0.09817
1290.14553,0.09634
1292.07400,0.09578
1294.00247,0.09391
1295.93094,0.09039
1297.85941,0.08712
1299.78788,0.08382
1301.71634,0.07404
1303.64481,0.06064
1305.57328,0.06281
1307.50175,0.08388
1309.43022,0.10244
1311.35869,0.10798
1313.28716,0.10632
1315.21563,0.10257
1317.14409,0.09980
1319.07256,0.09920
1321.00103,0.09947
1322.92950,0.09782
1324.85797,0.09282
1326.78644,0.08915
1328.71491,0.09038
1330.64337,0.09063
1332.57184,0.09002
1334.50031,0.09238
1336.42878,0.09304
1338.35725,0.09202
1340.28572,0.09101
1342.21419,0.08985
1344.14266,0.08973
1346.07112,0.08943
1347.99959,0.09108
1349.92806,0.09405
1351.85653,0.09638
1353.78500,0.09902
1355.71347,0.09897
1357.64194,0.09585
1359.57040,0.09384
1361.49887,0.09514
1363.42734,0.09840
1365.35581,0.10097
1367.28428,0.10277
1369.21275,0.10354
1371.14122,0.10419
1373.06969,0.10612
1374.99815,0.10725
1376.92662,0.10671
1378.85509,0.10653
1380.78356,0.10618
1382.71203,0.10584
1384.64050,0.10736
1386.56897,0.10985
1388.49743,0.11077
1390.42590,0.11015
1392.35437,0.10865
1394.28284,0.10800
1396.21131,0.10969
1398.13978,0.10869
1400.06825,0.10528
1401.99672,0.10438
1403.92518,0.10366
1405.85365,0.10091
1407.78212,0.09836
1409.71059,0.09837
1411.63906,0.10099
1413.56753,0.10436
1415.49600,0.10661
1417.42446,0.10626
1419.35293,0.10510
1421.28140,0.10473
1423.20987,0.10191
1425.13834,0.09878
1427.06681,0.10134
1428.99528,0.10912
1430.92375,0.11473
1432.85221,0.11538
1434.78068,0.11682
1436.70915,0.11958
1438.63762,0.11803
1440.56609,0.11591
1442.49456,0.11698
1444.42303,0.11688
1446.35149,0.11117
1448.27996,0.10367
1450.20843,0.10134
1452.13690,0.10289
1454.06537,0.10416
1455.99384,0.10419
1457.92231,0.10434
1459.85077,0.10614
1461.77924,0.10908
1463.70771,0.11241
1465.63618,0.11455
1467.56465,0.11548
1469.49312,0.11799
1471.42159,0.12227
1473.35006,0.12373
1475.27852,0.12087
1477.20699,0.11661
1479.13546,0.11244
1481.06393,0.10856
1482.99240,0.10646
1484.92087,0.10986
1486.84934,0.11736
1488.77780,0.12286
1490.70627,0.11907
1492.63474,0.11175
1494.56321,0.11003
1496.49168,0.11142
1498.42015,0.11058
1500.34862,0.11148
1502.27709,0.11563
1504.20555,0.12138
1506.13402,0.12786
1508.06249,0.12731
1509.99096,0.12499
1511.91943,0.12646
1513.84790,0.12803
1515.77637,0.12744
1517.70483,0.12313
1519.63330,0.11897
1521.56177,0.12070
1523.49024,0.12385
1525.41871,0.12469
1527.34718,0.12375
1529.27565,0.12051
1531.20412,0.11649
1533.13258,0.11443
1535.06105,0.11738
1536.98952,0.12245
1538.91799,0.13027
1540.84646,0.13914
1542.77493,0.13524
1544.70340,0.12547
1546.63186,0.11974
1548.56033,0.11972
1550.48880,0.11991
1552.41727,0.11719
1554.34574,0.11559
1556.27421,0.11927
1558.20268,0.12963
1560.13115,0.12744
1562.05961,0.11735
1563.98808,0.11406
1565.91655,0.11451
1567.84502,0.11486
1569.77349,0.11277
1571.70196,0.10934
1573.63043,0.10935
1575.55889,0.11380
1577.48736,0.11590
1579.41583,0.11208
1581.34430,0.10803
1583.27277,0.10577
1585.20124,0.10490
1587.12971,0.10645
1589.05818,0.10983
1590.98664,0.11238
1592.91511,0.11390
1594.84358,0.11341
1596.77205,0.11108
1598.70052,0.10967
1600.62899,0.10923
1602.55746,0.10980
1604.48592,0.11086
1606.41439,0.11033
1608.34286,0.11029
1610.27133,0.11183
1612.19980,0.11163
1614.12827,0.11046
1616.05674,0.11022
1617.98521,0.11096
1619.91367,0.11324
1621.84214,0.11578
1623.77061,0.11683
1625.69908,0.11693
1627.62755,0.11626
1629.55602,0.11311
1631.48449,0.10954
1633.41295,0.11039
1635.34142,0.11931
1637.26989,0.12457
1639.19836,0.11822
1641.12683,0.11107
1643.05530,0.11077
1644.98377,0.11938
1646.91223,0.12677
1648.84070,0.12400
1650.76917,0.12276
1652.69764,0.12370
1654.62611,0.11995
1656.55458,0.11518
1658.48305,0.11292
1660.41152,0.11534
1662.33998,0.12126
1664.26845,0.12180
1666.19692,0.11884
1668.12539,0.12122
1670.05386,0.12550
1671.98233,0.12342
1673.91080,0.12049
1675.83926,0.11987
1677.76773,0.12001
1679.69620,0.11950
1681.62467,0.11969
1683.55314,0.12128
1685.48161,0.11965
1687.41008,0.11767
1689.33855,0.11738
1691.26701,0.11672
1693.19548,0.11825
1695.12395,0.12501
1697.05242,0.13092
1698.98089,0.12601
1700.90936,0.11519
1702.83783,0.11288
1704.76629,0.11622
1706.69476,0.11835
1708.62323,0.11768
1710.55170,0.11556
1712.48017,0.11436
1714.40864,0.11728
1716.33711,0.12327
1718.26558,0.12340
1720.19404,0.11881
1722.12251,0.11528
1724.05098,0.11298
1725.97945,0.11315
1727.90792,0.11455
1729.83639,0.11528
1731.76486,0.11737
1733.69332,0.11829
1735.62179,0.11418
1737.55026,0.11228
1739.47873,0.11209
1741.40720,0.11246
1743.33567,0.11436
1745.26414,0.11493
1747.19261,0.11424
1749.12107,0.11556
1751.04954,0.11683
1752.97801,0.11609
1754.90648,0.11597
1756.83495,0.11573
1758.76342,0.11422
1760.69189,0.11254
1762.62035,0.11129
1764.54882,0.11184
1766.47729,0.11349
1768.40576,0.11498
1770.33423,0.11645
1772.26270,0.11669
1774.19117,0.11542
1776.11964,0.11339
1778.04810,0.11215
1779.97657,0.11363
1781.90504,0.11449
1783.83351,0.11200
1785.76198,0.10747
1787.69045,0.10608
1789.61892,0.11202
1791.54738,0.12028
1793.47585,0.12199
1795.40432,0.11897
1797.33279,0.11516
1799.26126,0.11160
1801.18973,0.10920
1803.11820,0.10776
1805.04666,0.10771
1806.97513,0.10814
1808.90360,0.10731
1810.83207,0.10740
1812.76054,0.10942
1814.68901,0.11189
1816.61748,0.11359
1818.54595,0.11176
1820.47441,0.10855
1822.40288,0.10908
1824.33135,0.11153
1826.25982,0.11206
1828.18829,0.11388
1830.11676,0.11795
1832.04523,0.11934
1833.97369,0.11826
1835.90216,0.11496
1837.83063,0.11035
1839.75910,0.10953
1841.68757,0.11197
1843.61604,0.11227
1845.54451,0.11085
1847.47298,0.11150
1849.40144,0.11141
1851.32991,0.10870
1853.25838,0.10624
1855.18685,0.10570
1857.11532,0.10580
1859.04379,0.10782
1860.97226,0.11141
1862.90072,0.11229
1864.82919,0.11230
1866.75766,0.11552
1868.68613,0.11772
1870.61460,0.11406
1872.54307,0.11077
1874.47154,0.11050
1876.40001,0.10948
1878.32847,0.10741
1880.25694,0.10782
1882.18541,0.11083
1884.11388,0.11304
1886.04235,0.11357
1887.97082,0.11353
1889.89929,0.11127
1891.82775,0.10878
1893.75622,0.10982
1895.68469,0.11161
1897.61316,0.11090
1899.54163,0.10930
1901.47010,0.10832
1903.39857,0.10856
1905.32704,0.10985
1907.25550,0.10956
1909.18397,0.10826
1911.11244,0.10909
1913.04091,0.11124
1914.96938,0.11274
1916.89785,0.11194
1918.82632,0.11038
1920.75478,0.11240
1922.68325,0.11527
1924.61172,0.11496
1926.54019,0.11331
1928.46866,0.11108
1930.39713,0.10897
1932.32560,0.10983
1934.25407,0.11321
1936.18253,0.11487
1938.11100,0.11310
1940.03947,0.11194
1941.96794,0.11265
1943.89641,0.11270
1945.82488,0.11283
1947.75335,0.11354
1949.68181,0.11437
1951.61028,0.11444
1953.53875,0.11286
1955.46722,0.11142
1957.39569,0.11072
1959.32416,0.10939
1961.25263,0.10757
1963.18110,0.10587
1965.10956,0.10519
1967.03803,0.10646
1968.96650,0.10810
1970.89497,0.10894
1972.82344,0.10987
1974.75191,0.10986
1976.68038,0.10801
1978.60884,0.10716
1980.53731,0.10914
1982.46578,0.11056
1984.39425,0.10925
1986.32272,0.10873
1988.25119,0.11115
1990.17966,0.11358
1992.10812,0.11398
1994.03659,0.11285
1995.96506,0.11099
1997.89353,0.10911
1999.82200,0.10771
2001.75047,0.10903
2003.67894,0.11299
2005.60741,0.11435
2007.53587,0.11272
2009.46434,0.11237
2011.39281,0.11271
2013.32128,0.11220
2015.24975,0.11392
2017.17822,0.11760
2019.10669,0.11697
2021.03515,0.11133
2022.96362,0.10597
2024.89209,0.10475
2026.82056,0.10743
2028.74903,0.11032
2030.67750,0.11096
2032.60597,0.11045
2034.53444,0.11090
2036.46290,0.11185
2038.39137,0.11151
2040.31984,0.11133
2042.24831,0.11295
2044.17678,0.11432
2046.10525,0.11377
2048.03372,0.11252
2049.96218,0.11184
2051.89065,0.11162
2053.81912,0.11133
2055.74759,0.11106
2057.67606,0.11081
2059.60453,0.11007
2061.53300,0.10999
2063.46147,0.11166
2065.38993,0.11292
2067.31840,0.11359
2069.24687,0.11601
2071.17534,0.11784
2073.10381,0.11604
2075.03228,0.11334
2076.96075,0.11257
2078.88921,0.11373
2080.81768,0.11716
2082.74615,0.12026
2084.67462,0.11933
2086.60309,0.11661
2088.53156,0.11495
2090.46003,0.11410
2092.38850,0.11394
2094.31696,0.11386
2096.24543,0.11399
2098.17390,0.11535
2100.10237,0.11716
2102.03084,0.11701
2103.95931,0.11404
2105.88778,0.11039
2107.81624,0.10883
2109.74471,0.10998
2111.67318,0.11196
2113.60165,0.11272
2115.53012,0.11225
2117.45859,0.11155
2119.38706,0.11101
2121.31553,0.11048
2123.24399,0.10968
2125.17246,0.10901
2127.10093,0.10971
2129.02940,0.11111
2130.95787,0.11087
2132.88634,0.10970
2134.81481,0.10977
2136.74327,0.10897
2138.67174,0.10624
2140.60021,0.10569
2142.52868,0.10808
2144.45715,0.10954
2146.38562,0.10932
2148.31409,0.11008
2150.24255,0.11129
2152.17102,0.11205
2154.09949,0.11386
2156.02796,0.11609
2157.95643,0.11719
2159.88490,0.11614
2161.81337,0.11350
2163.74184,0.11290
2165.67030,0.11570
2167.59877,0.11855
2169.52724,0.12057
2171.45571,0.12261
2173.38418,0.12172
2175.31265,0.11819
2177.24112,0.11620
2179.16958,0.11605
2181.09805,0.11670
2183.02652,0.11730
2184.95499,0.11526
2186.88346,0.11135
2188.81193,0.10944
2190.74040,0.10940
2192.66887,0.10951
2194.59733,0.10839
2196.52580,0.10495
2198.45427,0.10303
2200.38274,0.10656
2202.31121,0.11161
2204.23968,0.11180
2206.16815,0.10855
2208.09661,0.10868
2210.02508,0.11212
2211.95355,0.11292
2213.88202,0.11231
2215.81049,0.11434
2217.73896,0.11667
2219.66743,0.11727
2221.59590,0.11740
2223.52436,0.11636
2225.45283,0.11259
2227.38130,0.10997
2229.30977,0.11235
2231.23824,0.11543
2233.16671,0.11503
2235.09518,0.11322
2237.02364,0.11251
2238.95211,0.11228
2240.88058,0.11069
2242.80905,0.10805
2244.73752,0.10875
2246.66599,0.11480
2248.59446,0.12082
2250.52293,0.12197
2252.45139,0.11861
2254.37986,0.11388
2256.30833,0.11022
2258.23680,0.10859
2260.16527,0.11076
2262.09374,0.11416
2264.02221,0.11348
2265.95067,0.11055
2267.87914,0.10972
2269.80761,0.10844
2271.73608,0.10524
2273.66455,0.10595
2275.59302,0.11129
2277.52149,0.11558
2279.44996,0.11703
2281.37842,0.11677
2283.30689,0.11439
2285.23536,0.11065
2287.16383,0.10869
2289.09230,0.10910
2291.02077,0.11030
2292.94924,0.11041
2294.87770,0.10796
2296.80617,0.10526
2298.73464,0.10480
2300.66311,0.10576
2302.59158,0.10825
2304.52005,0.11102
2306.44852,0.10926
2308.37699,0.10431
2310.30545,0.10137
2312.23392,0.09983
2314.16239,0.09766
2316.09086,0.09474
2318.01933,0.09379
2319.94780,0.09591
2321.87627,0.09445
2323.80473,0.08768
2325.73320,0.08698
2327.66167,0.09717
2329.59014,0.10547
2331.51861,0.10346
2333.44708,0.09996
2335.37555,0.09601
2337.30401,0.09016
2339.23248,0.09592
2341.16095,0.10763
2343.08942,0.10283
2345.01789,0.09417
2346.94636,0.09921
2348.87483,0.10531
2350.80330,0.10436
2352.73176,0.10041
2354.66023,0.10018
2356.58870,0.09999
2358.51717,0.09774
2360.44564,0.09996
2362.37411,0.09627
2364.30258,0.08242
2366.23104,0.07474
2368.15951,0.07790
2370.08798,0.08734
2372.01645,0.09457
2373.94492,0.09727
2375.87339,0.09886
2377.80186,0.09841
2379.73033,0.10013
2381.65879,0.10652
2383.58726,0.11210
2385.51573,0.11526
2387.44420,0.11725
2389.37267,0.11692
2391.30114,0.11486
2393.22961,0.11253
2395.15807,0.11068
2397.08654,0.11086
2399.01501,0.11069
2400.94348,0.10744
2402.87195,0.10551
2404.80042,0.10774
2406.72889,0.11063
2408.65736,0.11197
2410.58582,0.11269
2412.51429,0.11420
2414.44276,0.11508
2416.37123,0.11252
2418.29970,0.10819
2420.22817,0.10593
2422.15664,0.10706
2424.08510,0.11117
2426.01357,0.11582
2427.94204,0.11734
2429.87051,0.11511
2431.79898,0.11281
2433.72745,0.11379
2435.65592,0.11564
2437.58439,0.11523
2439.51285,0.11394
2441.44132,0.11324
2443.36979,0.11284
2445.29826,0.11259
2447.22673,0.11329
2449.15520,0.11453
2451.08367,0.11426
2453.01213,0.11314
2454.94060,0.11289
2456.86907,0.11254
2458.79754,0.11163
2460.72601,0.11220
2462.65448,0.11384
2464.58295,0.11262
2466.51142,0.10891
2468.43988,0.10783
2470.36835,0.11007
2472.29682,0.11125
2474.22529,0.11179
2476.15376,0.11514
2478.08223,0.11772
2480.01070,0.11627
2481.93916,0.11510
2483.86763,0.11605
2485.79610,0.11547
2487.72457,0.11293
2489.65304,0.11239
2491.58151,0.11545
2493.50998,0.11786
2495.43844,0.11676
2497.36691,0.11634
2499.29538,0.11855
2501.22385,0.11916
2503.15232,0.11750
2505.08079,0.11619
2507.00926,0.11652
2508.93773,0.11806
2510.86619,0.11730
2512.79466,0.11598
2514.72313,0.11892
2516.65160,0.12184
2518.58007,0.12020
2520.50854,0.11677
2522.43701,0.11519
2524.36547,0.11607
2526.29394,0.11693
2528.22241,0.11582
2530.15088,0.11417
2532.07935,0.11430
2534.00782,0.11578
2535.93629,0.11714
2537.86476,0.11903
2539.79322,0.12162
2541.72169,0.12298
2543.65016,0.12252
2545.57863,0.12077
2547.50710,0.11836
2549.43557,0.11647
2551.36404,0.11509
2553.29250,0.11517
2555.22097,0.11767
2557.14944,0.12139
2559.07791,0.12426
2561.00638,0.12260
2562.93485,0.11794
2564.86332,0.11782
2566.79179,0.12331
2568.72025,0.12869
2570.64872,0.12898
2572.57719,0.12509
2574.50566,0.12232
2576.43413,0.12143
2578.36260,0.11992
2580.29107,0.11738
2582.21953,0.11551
2584.14800,0.11512
2586.07647,0.11524
2588.00494,0.11671
2589.93341,0.11959
2591.86188,0.12219
2593.79035,0.12285
2595.71882,0.12218
2597.64728,0.12306
2599.57575,0.12409
2601.50422,0.12194
2603.43269,0.11906
2605.36116,0.11833
2607.28963,0.11747
2609.21810,0.11671
2611.14656,0.11832
2613.07503,0.11907
2615.00350,0.11648
2616.93197,0.11480
2618.86044,0.11756
2620.78891,0.12215
2622.71738,0.12448
2624.64585,0.12266
2626.57431,0.11884
2628.50278,0.11668
2630.43125,0.11600
2632.35972,0.11613
2634.28819,0.11784
2636.21666,0.11941
2638.14513,0.11817
2640.07359,0.11461
2642.00206,0.11284
2643.93053,0.11579
2645.85900,0.11875
2647.78747,0.11568
2649.71594,0.11003
2651.64441,0.10928
2653.57288,0.11358
2655.50134,0.11796
2657.42981,0.11978
2659.35828,0.11910
2661.28675,0.11791
2663.21522,0.11859
2665.14369,0.12222
2667.07216,0.12627
2669.00062,0.12670
2670.92909,0.12470
2672.85756,0.12334
2674.78603,0.12443
2676.71450,0.12653
2678.64297,0.12537
2680.57144,0.12292
2682.49990,0.12366
2684.42837,0.12587
2686.35684,0.12649
2688.28531,0.12460
2690.21378,0.12203
2692.14225,0.12145
2694.07072,0.12122
2695.99919,0.12084
2697.92765,0.12134
2699.85612,0.12177
2701.78459,0.12256
2703.71306,0.12254
2705.64153,0.12121
2707.57000,0.12112
2709.49847,0.12317
2711.42693,0.12562
2713.35540,0.12573
2715.28387,0.12328
2717.21234,0.12069
2719.14081,0.12030
2721.06928,0.12192
2722.99775,0.12255
2724.92622,0.12169
2726.85468,0.12128
2728.78315,0.12096
2730.71162,0.12148
2732.64009,0.12433
2734.56856,0.12570
2736.49703,0.12272
2738.42550,0.11956
2740.35396,0.11896
2742.28243,0.11883
2744.21090,0.11884
2746.13937,0.11947
2748.06784,0.11985
2749.99631,0.12048
2751.92478,0.12180
2753.85325,0.12411
2755.78171,0.12665
2757.71018,0.12652
2759.63865,0.12365
2761.56712,0.12129
2763.49559,0.12147
2765.42406,0.12280
2767.35253,0.12349
2769.28099,0.12367
2771.20946,0.12289
2773.13793,0.12143
2775.06640,0.12151
2776.99487,0.12313
2778.92334,0.12480
2780.85181,0.12594
2782.78028,0.12487
2784.70874,0.12083
2786.63721,0.11890
2788.56568,0.12243
2790.49415,0.12692
2792.42262,0.12974
2794.35109,0.13075
2796.27956,0.12952
2798.20802,0.12975
2800.13649,0.13151
2802.06496,0.12991
2803.99343,0.12695
2805.92190,0.12662
2807.85037,0.12617
2809.77884,0.12353
2811.70731,0.12040
2813.63577,0.11796
2815.56424,0.11885
2817.49271,0.12438
2819.42118,0.12963
2821.34965,0.13096
2823.27812,0.12998
2825.20659,0.12849
2827.13505,0.12740
2829.06352,0.12716
2830.99199,0.12645
2832.92046,0.12396
2834.84893,0.12228
2836.77740,0.12305
2838.70587,0.12308
2840.63433,0.12357
2842.56280,0.12902
2844.49127,0.13612
2846.41974,0.13721
2848.34821,0.13362
2850.27668,0.13202
2852.20515,0.13072
2854.13362,0.12734
2856.06208,0.12601
2857.99055,0.12683
2859.91902,0.12666
2861.84749,0.12866
2863.77596,0.13429
2865.70443,0.13641
2867.63290,0.13297
2869.56136,0.12969
2871.48983,0.12606
2873.41830,0.11996
2875.34677,0.11768
2877.27524,0.12077
2879.20371,0.12249
2881.13218,0.12116
2883.06065,0.12041
2884.98911,0.12202
2886.91758,0.12536
2888.84605,0.13003
2890.77452,0.13379
2892.70299,0.13120
2894.63146,0.12261
2896.55993,0.11775
2898.48839,0.12026
2900.41686,0.12388
2902.34533,0.12541
2904.27380,0.12410
2906.20227,0.12076
2908.13074,0.12044
2910.05921,0.12501
2911.98768,0.13014
2913.91614,0.12933
2915.84461,0.12202
2917.77308,0.11734
2919.70155,0.11589
2921.63002,0.11170
2923.55849,0.10922
2925.48696,0.10813
2927.41542,0.10705
2929.34389,0.11145
2931.27236,0.11725
2933.20083,0.11907
2935.12930,0.11588
2937.05777,0.11217
2938.98624,0.11876
2940.91471,0.12924
2942.84317,0.12949
2944.77164,0.12272
2946.70011,0.11724
2948.62858,0.11863
2950.55705,0.12454
2952.48552,0.12594
2954.41399,0.12150
2956.34245,0.11243
2958.27092,0.10678
2960.19939,0.11357
2962.12786,0.12384
2964.05633,0.12764
2965.98480,0.12339
2967.91327,0.11432
2969.84174,0.11116
2971.77020,0.11708
2973.69867,0.12342
2975.62714,0.12293
2977.55561,0.11888
2979.48408,0.12083
2981.41255,0.12639
2983.34102,0.12842
2985.26948,0.12806
2987.19795,0.12368
2989.12642,0.11916
2991.05489,0.12350
2992.98336,0.12925
2994.91183,0.12672
2996.84030,0.12224
2998.76877,0.12412
3000.69723,0.13057
3002.62570,0.13359
3004.55417,0.12895
3006.48264,0.12204
3008.41111,0.11657
3010.33958,0.10605
3012.26805,0.08480
3014.19651,0.05653
3016.12498,0.03948
3018.05345,0.05513
3019.98192,0.09366
3021.91039,0.12322
3023.83886,0.13274
3025.76733,0.13177
3027.69579,0.12854
3029.62426,0.12617
3031.55273,0.12536
3033.48120,0.12567
3035.40967,0.12594
3037.33814,0.12538
3039.26661,0.12779
3041.19508,0.13336
3043.12354,0.13471
3045.05201,0.12867
3046.98048,0.12096
3048.90895,0.12107
3050.83742,0.12658
3052.76589,0.12789
3054.69436,0.12409
3056.62282,0.11852
3058.55129,0.11747
3060.47976,0.12206
3062.40823,0.12565
3064.33670,0.12249
3066.26517,0.11350
3068.19364,0.11246
3070.12211,0.12238
3072.05057,0.13023
3073.97904,0.13084
3075.90751,0.12542
3077.83598,0.12098
3079.76445,0.12341
3081.69292,0.12554
3083.62139,0.11936
3085.54985,0.11168
3087.47832,0.11418
3089.40679,0.12243
3091.33526,0.12507
3093.26373,0.11861
3095.19220,0.11417
3097.12067,0.12189
3099.04914,0.12874
3100.97760,0.12432
3102.90607,0.11569
3104.83454,0.11498
3106.76301,0.12291
3108.69148,0.12782
3110.61995,0.12554
3112.54842,0.12100
3114.47688,0.12288
3116.40535,0.13046
3118.33382,0.13248
3120.26229,0.12605
3122.19076,0.12039
3124.11923,0.12377
3126.04770,0.12944
3127.97617,0.12679
3129.90463,0.11844
3131.83310,0.11673
3133.76157,0.12511
3135.69004,0.13199
3137.61851,0.12641
3139.54698,0.11633
3141.47545,0.11977
3143.40391,0.13185
3145.33238,0.13480
3147.26085,0.12708
3149.18932,0.12156
3151.11779,0.12487
3153.04626,0.12959
3154.97473,0.13103
3156.90320,0.13154
3158.83166,0.13410
3160.76013,0.13621
3162.68860,0.13123
3164.61707,0.12197
3166.54554,0.12050
3168.47401,0.12686
3170.40248,0.12850
3172.33094,0.12657
3174.25941,0.12957
3176.18788,0.13456
3178.11635,0.13464
3180.04482,0.13123
3181.97329,0.13207
3183.90176,0.13854
3185.83022,0.14282
3187.75869,0.14061
3189.68716,0.13773
3191.61563,0.13592
3193.54410,0.13287
3195.47257,0.13180
3197.40104,0.13543
3199.32951,0.14137
3201.25797,0.14506
3203.18644,0.14173
3205.11491,0.13092
3207.04338,0.12236
3208.97185,0.12359
3210.90032,0.13119
3212.82879,0.13786
3214.75725,0.13753
3216.68572,0.13405
3218.61419,0.13403
3220.54266,0.13443
3222.47113,0.13305
3224.39960,0.13314
3226.32807,0.13511
3228.25654,0.13706
3230.18500,0.13820
3232.11347,0.13825
3234.04194,0.13697
3235.97041,0.13487
3237.89888,0.13475
3239.82735,0.13715
3241.75582,0.14001
3243.68428,0.14152
3245.61275,0.14045
3247.54122,0.13744
3249.46969,0.13467
3251.39816,0.13558
3253.32663,0.13920
3255.25510,0.14095
3257.18357,0.13991
3259.11203,0.13615
3261.04050,0.13074
3262.96897,0.12880
3264.89744,0.13309
3266.82591,0.13728
3268.75438,0.13669
3270.68285,0.13645
3272.61131,0.14053
3274.53978,0.14364
3276.46825,0.13865
3278.39672,0.12813
3280.32519,0.12007
3282.25366,0.11669
3284.18213,0.11757
3286.11060,0.12162
3288.03906,0.12340
3289.96753,0.12067
3291.89600,0.11854
3293.82447,0.12094
3295.75294,0.12679
3297.68141,0.13039
3299.60988,0.12768
3301.53834,0.12545
3303.46681,0.12946
3305.39528,0.13350
3307.32375,0.13426
3309.25222,0.13536
3311.18069,0.13586
3313.10916,0.13416
3315.03763,0.13166
3316.96609,0.12928
3318.89456,0.12920
3320.82303,0.13290
3322.75150,0.13729
3324.67997,0.13654
3326.60844,0.13069
3328.53691,0.12767
3330.46537,0.13083
3332.39384,0.13425
3334.32231,0.13412
3336.25078,0.13497
3338.17925,0.13827
3340.10772,0.13952
3342.03619,0.13805
3343.96466,0.13644
3345.89312,0.13728
3347.82159,0.13852
3349.75006,0.13707
3351.67853,0.13637
3353.60700,0.13817
3355.53547,0.13878
3357.46394,0.13496
3359.39240,0.13072
3361.32087,0.13278
3363.24934,0.13748
3365.17781,0.13644
3367.10628,0.13219
3369.03475,0.13284
3370.96322,0.13574
3372.89168,0.13510
3374.82015,0.13207
3376.74862,0.12793
3378.67709,0.12476
3380.60556,0.12462
3382.53403,0.12685
3384.46250,0.13101
3386.39097,0.13411
3388.31943,0.13281
3390.24790,0.13129
3392.17637,0.13378
3394.10484,0.13503
3396.03331,0.13247
3397.96178,0.12976
3399.89025,0.12665
3401.81871,0.12441
3403.74718,0.12469
3405.67565,0.12559
3407.60412,0.12968
3409.53259,0.13545
3411.46106,0.13332
3413.38953,0.12563
3415.31800,0.12178
3417.24646,0.11937
3419.17493,0.11656
3421.10340,0.12096
3423.03187,0.13122
3424.96034,0.13794
3426.88881,0.13833
3428.81728,0.13259
3430.74574,0.12562
3432.67421,0.12534
3434.60268,0.12880
3436.53115,0.12841
3438.45962,0.12370
3440.38809,0.12075
3442.31656,0.12246
3444.24503,0.12295
3446.17349,0.12155
3448.10196,0.12353
3450.03043,0.12666
3451.95890,0.12482
3453.88737,0.11883
3455.81584,0.11744
3457.74431,0.12299
3459.67277,0.12645
3461.60124,0.12516
3463.52971,0.12327
3465.45818,0.11774
3467.38665,0.11013
3469.31512,0.10987
3471.24359,0.11554
3473.17206,0.11685
3475.10052,0.11190
3477.02899,0.11041
3478.95746,0.11550
3480.88593,0.12050
3482.81440,0.12241
3484.74287,0.12052
3486.67134,0.11561
3488.59980,0.11213
3490.52827,0.11365
3492.45674,0.11737
3494.38521,0.11748
3496.31368,0.11336
3498.24215,0.11118
3500.17062,0.11535
3502.09909,0.12012
3504.02755,0.11898
3505.95602,0.11585
3507.88449,0.11632
3509.81296,0.11982
3511.74143,0.12264
3513.66990,0.12055
3515.59837,0.11460
3517.52683,0.11314
3519.45530,0.11536
3521.38377,0.11427
3523.31224,0.11290
3525.24071,0.11461
3527.16918,0.11514
3529.09765,0.11144
3531.02611,0.10667
3532.95458,0.10565
3534.88305,0.10900
3536.81152,0.11026
3538.73999,0.10696
3540.66846,0.10487
3542.59693,0.10558
3544.52540,0.10946
3546.45386,0.11684
3548.38233,0.12193
3550.31080,0.11857
3552.23927,0.11000
3554.16774,0.10533
3556.09621,0.10419
3558.02468,0.10148
3559.95314,0.09752
3561.88161,0.09635
3563.81008,0.09901
3565.73855,0.10265
3567.66702,0.10445
3569.59549,0.10296
3571.52396,0.10101
3573.45243,0.10035
3575.38089,0.10042
3577.30936,0.10075
3579.23783,0.10113
3581.16630,0.10154
3583.09477,0.10153
3585.02324,0.09849
3586.95171,0.09349
3588.88017,0.09379
3590.80864,0.09735
3592.73711,0.09953
3594.66558,0.09937
3596.59405,0.09665
3598.52252,0.09248
3600.45099,0.08970
3602.37946,0.08921
3604.30792,0.08838
3606.23639,0.08918
3608.16486,0.09166
3610.09333,0.09067
3612.02180,0.08907
3613.95027,0.08966
3615.87874,0.09093
3617.80720,0.09392
3619.73567,0.09641
3621.66414,0.09544
3623.59261,0.09678
3625.52108,0.10234
3627.44955,0.10871
3629.37802,0.10883
3631.30649,0.10270
3633.23495,0.09864
3635.16342,0.09668
3637.09189,0.09389
3639.02036,0.09007
3640.94883,0.08796
3642.87730,0.08808
3644.80577,0.09028
3646.73423,0.09577
3648.66270,0.10152
3650.59117,0.09838
3652.51964,0.09194
3654.44811,0.08915
3656.37658,0.08913
3658.30505,0.08931
3660.23352,0.08698
3662.16198,0.08216
3664.09045,0.07932
3666.01892,0.08195
3667.94739,0.09019
3669.87586,0.10076
3671.80433,0.10260
3673.73280,0.09706
3675.66126,0.09132
3677.58973,0.08734
3679.51820,0.08222
3681.44667,0.07767
3683.37514,0.07700
3685.30361,0.07978
3687.23208,0.08591
3689.16055,0.09588
3691.08901,0.09682
3693.01748,0.08503
3694.94595,0.07457
3696.87442,0.07143
3698.80289,0.07385
3700.73136,0.08038
3702.65983,0.08789
3704.58829,0.08734
3706.51676,0.07819
3708.44523,0.06915
3710.37370,0.07006
3712.30217,0.07924
3714.23064,0.08369
3716.15911,0.08191
3718.08757,0.07680
3720.01604,0.07395
3721.94451,0.07750
3723.87298,0.08076
3725.80145,0.07884
3727.72992,0.07632
3729.65839,0.07735
3731.58686,0.08155
3733.51532,0.08223
3735.44379,0.07921
3737.37226,0.08002
3739.30073,0.07803
3741.22920,0.07440
3743.15767,0.07587
3745.08614,0.08252
3747.01460,0.08886
3748.94307,0.09864
3750.87154,0.10950
3752.80001,0.10537
3754.72848,0.09399
3756.65695,0.08572
3758.58542,0.08029
3760.51389,0.07490
3762.44235,0.07334
3764.37082,0.07943
3766.29929,0.08576
3768.22776,0.08521
3770.15623,0.08354
3772.08470,0.08264
3774.01317,0.08407
3775.94163,0.09139
3777.87010,0.09731
3779.79857,0.09136
3781.72704,0.08105
3783.65551,0.07658
3785.58398,0.07647
3787.51245,0.07897
3789.44092,0.08188
3791.36938,0.08141
3793.29785,0.07985
3795.22632,0.08336
3797.15479,0.09172
3799.08326,0.10086
3801.01173,0.10563
3802.94020,0.09629
3804.86866,0.08490
3806.79713,0.07973
3808.72560,0.07734
3810.65407,0.07546
3812.58254,0.07351
3814.51101,0.07144
3816.43948,0.07326
3818.36795,0.08234
3820.29641,0.09112
3822.22488,0.09137
3824.15335,0.08746
3826.08182,0.08204
3828.01029,0.07696
3829.93876,0.07814
3831.86723,0.08326
3833.79569,0.08642
3835.72416,0.08658
3837.65263,0.08564
3839.58110,0.08562
3841.50957,0.08500
3843.43804,0.08136
3845.36651,0.07705
3847.29498,0.07548
3849.22344,0.07536
3851.15191,0.07515
3853.08038,0.07683
3855.00885,0.07738
3856.93732,0.07540
3858.86579,0.07524
3860.79426,0.07461
3862.72272,0.06845
3864.65119,0.06529
3866.57966,0.07337
3868.50813,0.07985
3870.43660,0.07766
3872.36507,0.07258
3874.29354,0.07005
3876.22200,0.07016
3878.15047,0.07075
3880.07894,0.07104
3882.00741,0.07580
3883.93588,0.08693
3885.86435,0.09146
3887.79282,0.08189
3889.72129,0.07326
3891.64975,0.07217
3893.57822,0.07540
3895.50669,0.07930
3897.43516,0.08073
3899.36363,0.08036
3901.29210,0.08481
3903.22057,0.09027
3905.14903,0.08595
3907.07750,0.07584
3909.00597,0.06898
3910.93444,0.06561
3912.86291,0.06327
3914.79138,0.06393
3916.71985,0.06892
3918.64832,0.07166
3920.57678,0.06991
3922.50525,0.07084
3924.43372,0.07382
3926.36219,0.07266
3928.29066,0.07050
3930.21913,0.07076
3932.14760,0.06807
3934.07606,0.06232
3936.00453,0.06252
3937.93300,0.06840
3939.86147,0.07360
3941.78994,0.07792
3943.71841,0.08231
3945.64688,0.08370
3947.57535,0.08103
3949.50381,0.07561
3951.43228,0.07352
3953.36075,0.07737
3955.28922,0.07963
3957.21769,0.07586
3959.14616,0.06921
3961.07463,0.06477
3963.00309,0.06710
3964.93156,0.07200
3966.86003,0.07040
3968.78850,0.06719
3970.71697,0.06920
3972.64544,0.06775
3974.57391,0.05993
3976.50238,0.05593
3978.43084,0.06096
3980.35931,0.06953
3982.28778,0.07289
3984.21625,0.07047
3986.14472,0.06666
3988.07319,0.06336
3990.00166,0.06269
3991.93012,0.06571
3993.85859,0.06879
3995.78706,0.06621
3997.71553,0.05995
3999.64400,0.05841
4001.57247,0.06379
4003.50094,0.07181
4005.42941,0.07432
4007.35787,0.06768
4009.28634,0.06210
4011.21481,0.06448
4013.14328,0.06713
4015.07175,0.06532
4017.00022,0.06401
4018.92869,0.06357
4020.85715,0.06212
4022.78562,0.06297
4024.71409,0.06511
4026.64256,0.06478
4028.57103,0.06307
4030.49950,0.06349
4032.42797,0.06526
4034.35644,0.06645
4036.28490,0.06850
4038.21337,0.06870
4040.14184,0.06357
4042.07031,0.05647
4043.99878,0.05278
4045.92725,0.05394
4047.85572,0.05512
4049.78418,0.05321
4051.71265,0.05341
4053.64112,0.05847
4055.56959,0.06472
4057.49806,0.06687
4059.42653,0.06320
4061.35500,0.06081
4063.28346,0.06304
4065.21193,0.06685
4067.14040,0.07070
4069.06887,0.07165
4070.99734,0.06696
4072.92581,0.05901
4074.85428,0.05671
4076.78275,0.06141
4078.71121,0.06309
4080.63968,0.05994
4082.56815,0.05641
4084.49662,0.05209
4086.42509,0.04820
4088.35356,0.04893
4090.28203,0.05437
4092.21049,0.05799
4094.13896,0.05361
4096.06743,0.04741
4097.99590,0.04979
4099.92437,0.05706
4101.85284,0.06015
4103.78131,0.05910
4105.70978,0.05739
4107.63824,0.05635
4109.56671,0.05752
4111.49518,0.05778
4113.42365,0.05251
4115.35212,0.04747
4117.28059,0.04987
4119.20906,0.05778
4121.13752,0.06519
4123.06599,0.06637
4124.99446,0.06173
4126.92293,0.05617
4128.85140,0.05380
4130.77987,0.05684
4132.70834,0.05920
4134.63681,0.05403
4136.56527,0.04632
4138.49374,0.04366
4140.42221,0.04610
4142.35068,0.04921
4144.27915,0.05076
4146.20762,0.05049
4148.13609,0.04911
4150.06455,0.04889
4151.99302,0.05060
4153.92149,0.05559
4155.84996,0.06040
4157.77843,0.05748
4159.70690,0.05299
4161.63537,0.05544
4163.56384,0.05903
4165.49230,0.06140
4167.42077,0.06582
4169.34924,0.06405
4171.27771,0.05070
4173.20618,0.03979
4175.13465,0.04168
4177.06312,0.04953
4178.99158,0.05403
4180.92005,0.05262
4182.84852,0.04983
4184.77699,0.05095
4186.70546,0.05531
4188.63393,0.05661
4190.56240,0.05099
4192.49087,0.04661
4194.41933,0.05155
4196.34780,0.05913
4198.27627,0.06150
4200.20474,0.06070
4202.13321,0.05767
4204.06168,0.05109
4205.99015,0.04682
4207.91861,0.04916
4209.84708,0.05377
4211.77555,0.05367
4213.70402,0.04579
4215.63249,0.03966
4217.56096,0.04254
4219.48943,0.04495
4221.41789,0.04341
4223.34636,0.04343
4225.27483,0.04490
4227.20330,0.04715
4229.13177,0.04968
4231.06024,0.05071
4232.98871,0.05125
4234.91718,0.05301
4236.84564,0.05240
4238.77411,0.04539
4240.70258,0.04114
4242.63105,0.04569
4244.55952,0.04779
4246.48799,0.04200
4248.41646,0.03529
4250.34492,0.03410
4252.27339,0.03742
4254.20186,0.04010
4256.13033,0.04019
4258.05880,0.03760
4259.98727,0.03616
4261.91574,0.04080
4263.84421,0.04625
4265.77267,0.04484
4267.70114,0.04031
4269.62961,0.03676
4271.55808,0.03423
4273.48655,0.03627
4275.41502,0.04199
4277.34349,0.04625
4279.27195,0.04496
4281.20042,0.03987
4283.12889,0.03720
4285.05736,0.03714
4286.98583,0.03633
4288.91430,0.03072
4290.84277,0.02148
4292.77124,0.01789
4294.69970,0.02332
4296.62817,0.03018
4298.55664,0.03452
4300.48511,0.03932
4302.41358,0.04314
4304.34205,0.04514
4306.27052,0.04625
4308.19898,0.04403
4310.12745,0.03926
4312.05592,0.03524
4313.98439,0.03259
4315.91286,0.03055
4317.84133,0.03078
4319.76980,0.03510
4321.69827,0.03935
4323.62673,0.03855
4325.55520,0.03634
4327.48367,0.03500
4329.41214,0.03083
4331.34061,0.02840
4333.26908,0.03058
4335.19755,0.03146
4337.12601,0.02999
4339.05448,0.02812
4340.98295,0.02983
4342.91142,0.03795
4344.83989,0.04443
4346.76836,0.04354
4348.69683,0.03940
4350.62530,0.03407
4352.55376,0.03111
4354.48223,0.03264
4356.41070,0.03112
4358.33917,0.02640
4360.26764,0.02632
4362.19611,0.03309
4364.12458,0.04304
4366.05304,0.04047
4367.98151,0.02031
4369.90998,0.00721
4371.83845,0.01402
4373.76692,0.02684
4375.69539,0.03085
4377.62386,0.02274
4379.55232,0.01787
4381.48079,0.02143
4383.40926,0.01985
4385.33773,0.01604
4387.26620,0.01779
4389.19467,0.02224
4391.12314,0.02650
4393.05161,0.02737
4394.98007,0.02339
4396.90854,0.01717
4398.83701,0.01322
4400.76548,0.01569
4402.69395,0.02496
4404.62242,0.03442
4406.55089,0.03495
4408.47935,0.02617
4410.40782,0.01859
4412.33629,0.01485
4414.26476,0.01084
4416.19323,0.01145
4418.12170,0.01533
4420.05017,0.01917
4421.97864,0.02118
4423.90710,0.01258
4425.83557,-0.00164
4427.76404,-0.00588
4429.69251,0.00047
4431.62098,0.00519
4433.54945,0.00680
4435.47792,0.01200
4437.40638,0.01670
4439.33485,0.01940
4441.26332,0.02225
4443.19179,0.01881
4445.12026,0.01126
4447.04873,0.00900
4448.97720,0.01106
4450.90567,0.01521
4452.83413,0.01880
4454.76260,0.01584
4456.69107,0.00657
4458.61954,-0.00019
4460.54801,0.00321
4462.47648,0.00966
4464.40495,0.00928
4466.33341,0.00741
4468.26188,0.01212
4470.19035,0.01929
4472.11882,0.02191
4474.04729,0.01882
4475.97576,0.01456
4477.90423,0.01331
4479.83270,0.01229
4481.76116,0.01160
4483.68963,0.01183
4485.61810,0.01088
4487.54657,0.01101
4489.47504,0.01193
4491.40351,0.00951
4493.33198,0.00392
4495.26044,0.00144
4497.18891,0.00316
4499.11738,0.00403
4501.04585,0.00468
4502.97432,0.00685
4504.90279,0.01119
4506.83126,0.01703
4508.75973,0.01705
4510.68819,0.01161
4512.61666,0.00919
4514.54513,0.01169
4516.47360,0.01692
4518.40207,0.01927
4520.33054,0.01621
4522.25901,0.01451
4524.18747,0.01791
4526.11594,0.02122
4528.04441,0.01928
4529.97288,0.01284
4531.90135,0.00768
4533.82982,0.00771
4535.75829,0.00707
4537.68676,0.00285
4539.61522,0.00052
4541.54369,0.00090
4543.47216,0.00094
4545.40063,0.00327
4547.32910,0.01128
4549.25757,0.01552
4551.18604,0.00948
4553.11450,0.00277
4555.04297,0.00258
4556.97144,0.00584
4558.89991,0.00664
4560.82838,0.00353
4562.75685,0.00434
4564.68532,0.01170
4566.61378,0.01504
4568.54225,0.01268
4570.47072,0.00927
4572.39919,0.00326
4574.32766,-0.00279
4576.25613,-0.00297
4578.18460,0.00439
4580.11307,0.01135
4582.04153,0.01042
4583.97000,0.00651
4585.89847,0.00807
4587.82694,0.01349
4589.75541,0.01105
4591.68388,-0.00049
4593.61235,-0.00701
4595.54081,-0.00380
4597.46928,-0.00497
4599.39775,-0.01454
4601.32622,-0.01601
4603.25469,-0.00656
4605.18316,-0.00124
4607.11163,-0.00537
4609.04010,-0.00878
4610.96856,-0.00274
4612.89703,0.00656
4614.82550,0.00821
4616.75397,0.00257
4618.68244,-0.00321
4620.61091,-0.00344
4622.53938,0.00329
4624.46784,0.00880
4626.39631,0.00965
4628.32478,0.01533
4630.25325,0.02102
4632.18172,0.01713
4634.11019,0.00980
4636.03866,0.00605
4637.96713,0.00556
4639.89559,0.00849
4641.82406,0.01601
4643.75253,0.01919
4645.68100,0.01237
4647.60947,0.00356
4649.53794,-0.00023
4651.46641,0.00406
4653.39487,0.01059
4655.32334,0.01214
4657.25181,0.00747
4659.18028,-0.00181
4661.10875,-0.00789
4663.03722,-0.00551
4664.96569,0.00318
4666.89416,0.01184
4668.82262,0.01518
4670.75109,0.01541
4672.67956,0.01652
4674.60803,0.02036
4676.53650,0.02536
4678.46497,0.02572
4680.39344,0.01800
4682.32190,0.00466
4684.25037,-0.00574
4686.17884,-0.00638
4688.10731,-0.00178
4690.03578,0.00351
4691.96425,0.00675
4693.89272,0.00362
4695.82119,0.00005
4697.74965,0.00205
4699.67812,0.00150
4701.60659,-0.00279
4703.53506,0.00219
4705.46353,0.01014
4707.39200,0.00435
4709.32047,-0.00311
4711.24893,0.00682
4713.17740,0.02361
4715.10587,0.02572
4717.03434,0.01504
4718.96281,0.01021
4720.89128,0.01598
4722.81975,0.02027
4724.74821,0.01328
4726.67668,-0.00297
4728.60515,-0.01370
4730.53362,-0.00998
4732.46209,-0.00218
4734.39056,0.00439
4736.31903,0.01352
4738.24750,0.01920
4740.17596,0.01602
4742.10443,0.00867
4744.03290,0.00686
4745.96137,0.01001
4747.88984,0.00417
4749.81831,-0.00570
4751.74678,-0.00496
4753.67524,0.00137
4755.60371,0.00780
4757.53218,0.00961
4759.46065,0.00148
4761.38912,-0.00637
4763.31759,-0.00513
4765.24606,0.00318
4767.17453,0.01517
4769.10299,0.01751
4771.03146,0.01062
4772.95993,0.01002
4774.88840,0.01059
4776.81687,0.00551
4778.74534,0.00061
4780.67381,-0.00125
4782.60227,0.00109
4784.53074,0.00718
4786.45921,0.00668
4788.38768,-0.00134
4790.31615,-0.00033
4792.24462,0.00967
4794.17309,0.01628
4796.10156,0.01789
4798.03002,0.01642
4799.95849,0.00623
4801.88696,-0.00835
4803.81543,-0.00752
4805.74390,0.00891
4807.67237,0.01786
4809.60084,0.01130
4811.52930,0.00690
4813.45777,0.01368
4815.38624,0.01961
4817.31471,0.01811
4819.24318,0.01233
4821.17165,0.00470
4823.10012,0.00053
4825.02859,0.00378
4826.95705,0.00504
4828.88552,0.00074
4830.81399,0.00239
4832.74246,0.00662
4834.67093,-0.00024
4836.59940,-0.00741
4838.52787,0.00143
4840.45633,0.01273
4842.38480,0.00910
4844.31327,-0.00264
4846.24174,-0.00667
4848.17021,0.00139
4850.09868,0.01093
4852.02715,0.00987
4853.95562,0.00135
4855.88408,-0.00601
4857.81255,-0.00905
4859.74102,-0.00238
4861.66949,0.01069
4863.59796,0.01928
4865.52643,0.02006
4867.45490,0.01503
4869.38336,0.01012
4871.31183,0.00702
4873.24030,0.01010
4875.16877,0.01849
4877.09724,0.01193
4879.02571,-0.00474
4880.95418,-0.00441
4882.88265,0.00763
4884.81111,0.01478
4886.73958,0.01985
4888.66805,0.02170
4890.59652,0.01889
4892.52499,0.01954
4894.45346,0.02205
4896.38193,0.02414
4898.31039,0.02483
4900.23886,0.01692
4902.16733,0.00341
4904.09580,-0.00944
4906.02427,-0.01362
4907.95274,-0.00732
4909.88121,-0.00701
4911.80967,-0.01288
4913.73814,-0.01016
4915.66661,-0.00013
4917.59508,0.01042
4919.52355,0.01805
4921.45202,0.01245
4923.38049,-0.00384
4925.30896,-0.00200
4927.23742,0.02082
4929.16589,0.03158
4931.09436,0.01861
4933.02283,0.00124
4934.95130,0.00110
4936.87977,0.01957
4938.80824,0.03499
4940.73670,0.03353
4942.66517,0.02372
4944.59364,0.00889
4946.52211,-0.00465
4948.45058,0.00079
4950.37905,0.01935
4952.30752,0.02483
4954.23599,0.01135
4956.16445,0.00695
4958.09292,0.02660
4960.02139,0.04541
4961.94986,0.04722
4963.87833,0.04341
4965.80680,0.04599
4967.73527,0.05325
4969.66373,0.05150
4971.59220,0.04255
4973.52067,0.03242
4975.44914,0.01113
4977.37761,-0.01169
4979.30608,-0.02165
4981.23455,-0.02321
4983.16302,-0.01498
4985.09148,-0.00332
4987.01995,0.00322
4988.94842,0.00890
4990.87689,0.01108
4992.80536,0.00864
4994.73383,0.00351
4996.66230,0.00184
4998.59076,0.01508
5000.51923,0.02963
5002.44770,0.02377
5004.37617,0.00584
5006.30464,0.00579
5008.23311,0.02414
5010.16158,0.03020
5012.09005,0.01864
5014.01851,0.01065
5015.94698,0.01512
5017.87545,0.02418
5019.80392,0.02659
5021.73239,0.02065
5023.66086,0.01463
5025.58933,0.01583
5027.51779,0.01870
5029.44626,0.01861
5031.37473,0.02252
5033.30320,0.02138
5035.23167,0.00740
5037.16014,-0.00165
5039.08861,0.00215
5041.01708,0.01072
5042.94554,0.01640
5044.87401,0.01743
5046.80248,0.02069
5048.73095,0.02761
5050.65942,0.03013
5052.58789,0.02366
5054.51636,0.01476
5056.44482,0.01381
5058.37329,0.01965
5060.30176,0.02557
5062.23023,0.02788
5064.15870,0.02951
5066.08717,0.03691
5068.01564,0.03774
5069.94410,0.02591
5071.87257,0.01584
5073.80104,0.00819
5075.72951,0.00439
5077.65798,0.00683
5079.58645,0.00807
5081.51492,0.00647
5083.44339,0.00182
5085.37185,0.00386
5087.30032,0.02070
5089.22879,0.03510
5091.15726,0.03277
5093.08573,0.01761
5095.01420,-0.00276
5096.94267,-0.00713
5098.87113,0.01068
5100.79960,0.01440
5102.72807,-0.00834
5104.65654,-0.02729
5106.58501,-0.02404
5108.51348,-0.00936
5110.44195,0.00095
5112.37042,0.01059
5114.29888,0.02269
5116.22735,0.02851
5118.15582,0.02642
5120.08429,0.01953
5122.01276,0.01555
5123.94123,0.01463
5125.86970,0.00947
5127.79816,0.00594
5129.72663,0.00241
5131.65510,-0.00519
5133.58357,-0.00659
5135.51204,0.00309
5137.44051,0.01784
5139.36898,0.02353
5141.29745,0.02031
5143.22591,0.02715
5145.15438,0.03314
5147.08285,0.02189
5149.01132,0.01675
5150.93979,0.01657
5152.86826,0.00277
5154.79673,-0.00283
5156.72519,0.01546
5158.65366,0.03768
5160.58213,0.04063
5162.51060,0.02908
5164.43907,0.02539
5166.36754,0.02479
5168.29601,0.01647
5170.22448,0.02009
5172.15294,0.04067
5174.08141,0.05031
5176.00988,0.04321
5177.93835,0.02995
5179.86682,0.01794
5181.79529,0.01844
5183.72376,0.01979
5185.65222,0.00757
5187.58069,0.00214
5189.50916,0.01611
5191.43763,0.03810
5193.36610,0.05493
5195.29457,0.05712
5197.22304,0.05214
5199.15151,0.05056
5201.07997,0.04535
5203.00844,0.03607
5204.93691,0.03493
5206.86538,0.04693
5208.79385,0.05395
5210.72232,0.04341
5212.65079,0.03089
5214.57925,0.02050
5216.50772,0.00660
5218.43619,0.00560
5220.36466,0.02685
5222.29313,0.05481
5224.22160,0.06734
5226.15007,0.05334
5228.07854,0.03912
5230.00700,0.04187
5231.93547,0.04918
5233.86394,0.04987
5235.79241,0.04000
5237.72088,0.03057
5239.64935,0.03884
5241.57782,0.05823
5243.50628,0.06173
5245.43475,0.04664
5247.36322,0.03954
5249.29169,0.04367
5251.22016,0.04164
5253.14863,0.03731
5255.07710,0.03773
5257.00556,0.03596
5258.93403,0.03555
5260.86250,0.03513
5262.79097,0.02323
5264.71944,0.01763
5266.64791,0.03352
5268.57638,0.04504
5270.50485,0.03525
5272.43331,0.01072
5274.36178,-0.01512
5276.29025,-0.02183
5278.21872,-0.00518
5280.14719,0.01792
5282.07566,0.03298
5284.00413,0.03172
5285.93259,0.02440
5287.86106,0.03195
5289.78953,0.05603
5291.71800,0.07179
5293.64647,0.05161
5295.57494,0.01790
5297.50341,0.01875
5299.43188,0.04818
5301.36034,0.06088
5303.28881,0.05741
5305.21728,0.06143
5307.14575,0.05654
5309.07422,0.02487
5311.00269,0.00181
5312.93116,0.00939
5314.85962,0.01609
5316.78809,0.01708
5318.71656,0.03611
5320.64503,0.05807
5322.57350,0.06860
5324.50197,0.06112
5326.43044,0.03171
5328.35891,0.01817
5330.28737,0.03687
5332.21584,0.05763
5334.14431,0.06956
5336.07278,0.07520
5338.00125,0.06522
5339.92972,0.03887
5341.85819,0.00928
5343.78665,-0.00824
5345.71512,0.01423
5347.64359,0.06001
5349.57206,0.08733
5351.50053,0.09640
5353.42900,0.09621
5355.35747,0.07166
5357.28594,0.03471
5359.21440,0.01100
5361.14287,0.00084
5363.07134,-0.00083
5364.99981,0.01243
5366.92828,0.04261
5368.85675,0.06554
5370.78522,0.05930
5372.71368,0.04069
5374.64215,0.02611
5376.57062,0.01354
5378.49909,0.00311
5380.42756,-0.00088
5382.35603,0.02016
5384.28450,0.05878
5386.21297,0.06684
5388.14143,0.04906
5390.06990,0.04208
5391.99837,0.03900
5393.92684,0.03612
5395.85531,0.04699
5397.78378,0.05469
5399.71225,0.04876
5401.64071,0.04771
5403.56918,0.05315
5405.49765,0.05141
5407.42612,0.03602
5409.35459,0.01583
5411.28306,0.00687
5413.21153,0.00956
5415.13999,0.02659
5417.06846,0.05742
5418.99693,0.07949
5420.92540,0.07356
5422.85387,0.04077
5424.78234,0.00695
5426.71081,0.00536
5428.63928,0.02571
5430.56774,0.02494
5432.49621,0.00683
5434.42468,0.00406
5436.35315,0.02689
5438.28162,0.04641
5440.21009,0.04291
5442.13856,0.02909
5444.06702,0.01916
5445.99549,0.01816
5447.92396,0.02474
5449.85243,0.02614
5451.78090,0.01395
5453.70937,-0.00170
5455.63784,0.00657
5457.56631,0.04355
5459.49477,0.07431
5461.42324,0.07959
5463.35171,0.06282
5465.28018,0.04495
5467.20865,0.05325
5469.13712,0.07807
5471.06559,0.09130
5472.99405,0.09946
5474.92252,0.10406
5476.85099,0.08158
5478.77946,0.04597
5480.70793,0.03231
5482.63640,0.04750
5484.56487,0.06565
5486.49334,0.06000
5488.42180,0.04093
5490.35027,0.03892
5492.27874,0.05629
5494.20721,0.06399
5496.13568,0.04095
5498.06415,0.00515
5499.99262,0.00347
5501.92108,0.04113
5503.84955,0.06084
5505.77802,0.04816
5507.70649,0.04015
5509.63496,0.04413
5511.56343,0.04283
5513.49190,0.03757
5515.42037,0.04914
5517.34883,0.06905
5519.27730,0.06597
5521.20577,0.05588
5523.13424,0.05321
5525.06271,0.03679
5526.99118,0.00480
5528.91965,-0.02437
5530.84811,-0.02859
5532.77658,-0.01167
5534.70505,-0.00682
5536.63352,-0.00848
5538.56199,0.01785
5540.49046,0.06425
5542.41893,0.09381
5544.34740,0.08526
5546.27586,0.06686
5548.20433,0.07270
5550.13280,0.06860
5552.06127,0.03350
5553.98974,0.00815
5555.91821,0.01956
5557.84668,0.05612
5559.77514,0.08410
5561.70361,0.08455
5563.63208,0.07637
5565.56055,0.07534
5567.48902,0.06786
5569.41749,0.06436
5571.34596,0.08119
5573.27443,0.07813
5575.20289,0.03825
5577.13136,0.01009
5579.05983,0.02168
5580.98830,0.05695
5582.91677,0.07626
5584.84524,0.07030
5586.77371,0.06144
5588.70217,0.06993
5590.63064,0.09249
5592.55911,0.10022
5594.48758,0.09185
5596.41605,0.08043
5598.34452,0.05222
5600.27299,0.00822
5602.20145,-0.01063
5604.12992,0.00376
5606.05839,0.00976
5607.98686,-0.00001
5609.91533,0.00152
5611.84380,0.02554
5613.77227,0.05722
5615.70074,0.06960
5617.62920,0.06027
5619.55767,0.05860
5621.48614,0.08665
5623.41461,0.11179
5625.34308,0.10260
5627.27155,0.08226
5629.20002,0.06392
5631.12848,0.04790
5633.05695,0.04176
5634.98542,0.03787
5636.91389,0.03435
5638.84236,0.02785
5640.77083,0.01128
5642.69930,0.00572
5644.62777,0.01855
5646.55623,0.02803
5648.48470,0.04051
5650.41317,0.06334
5652.34164,0.06699
5654.27011,0.05144
5656.19858,0.05461
5658.12705,0.07729
5660.05551,0.09246
5661.98398,0.08793
5663.91245,0.07152
5665.84092,0.07598
5667.76939,0.09094
5669.69786,0.07299
5671.62633,0.05285
5673.55480,0.07370
5675.48326,0.10300
5677.41173,0.09258
5679.34020,0.05715
5681.26867,0.04436
5683.19714,0.06124
5685.12561,0.08457
5687.05408,0.09936
5688.98254,0.10614
5690.91101,0.11456
5692.83948,0.11836
5694.76795,0.09252
5696.69642,0.04980
5698.62489,0.03579
5700.55336,0.04381
5702.48183,0.04890
5704.41029,0.05588
5706.33876,0.05619
5708.26723,0.05151
5710.19570,0.06258
5712.12417,0.06561
5714.05264,0.04151
5715.98111,0.04192
5717.90957,0.08119
5719.83804,0.10132
5721.76651,0.08473
5723.69498,0.05719
5725.62345,0.02958
5727.55192,0.01807
5729.48039,0.03625
5731.40886,0.06447
5733.33732,0.08361
5735.26579,0.08606
5737.19426,0.06675
5739.12273,0.03804
5741.05120,0.02778
5742.97967,0.03159
5744.90814,0.03409
5746.83660,0.04663
5748.76507,0.05260
5750.69354,0.02669
5752.62201,-0.00184
5754.55048,-0.00013
5756.47895,0.01955
5758.40742,0.03508
5760.33588,0.03871
5762.26435,0.03240
5764.19282,0.02096
5766.12129,0.01149
5768.04976,0.03167
5769.97823,0.07376
5771.90670,0.08406
5773.83517,0.06287
5775.76363,0.04534
5777.69210,0.03438
5779.62057,0.03318
5781.54904,0.05609
5783.47751,0.07489
5785.40598,0.06582
5787.33445,0.06871
5789.26291,0.08675
5791.19138,0.09154
5793.11985,0.08935
5795.04832,0.06951
5796.97679,0.03989
5798.90526,0.02980
5800.83373,0.01271
5802.76220,-0.00550
5804.69066,0.01604
5806.61913,0.03776
5808.54760,0.03771
5810.47607,0.04903
5812.40454,0.06897
5814.33301,0.07671
5816.26148,0.07661
5818.18994,0.07643
5820.11841,0.06707
5822.04688,0.06310
5823.97535,0.05828
5825.90382,0.03846
5827.83229,0.04435
5829.76076,0.07020
5831.68923,0.07022
5833.61769,0.04316
5835.54616,0.00473
5837.47463,-0.02668
5839.40310,-0.03667
5841.33157,-0.03367
5843.26004,-0.02593
5845.18851,-0.01092
5847.11697,-0.00865
5849.04544,-0.01598
5850.97391,0.00564
5852.90238,0.04712
5854.83085,0.08049
5856.75932,0.08438
5858.68779,0.04515
5860.61626,0.00284
5862.54472,0.00438
5864.47319,0.02800
5866.40166,0.03182
5868.33013,0.03024
5870.25860,0.04722
5872.18707,0.05220
5874.11554,0.04054
5876.04400,0.05149
5877.97247,0.07963
5879.90094,0.10034
5881.82941,0.11714
5883.75788,0.12493
5885.68635,0.10860
5887.61482,0.08901
5889.54329,0.09072
5891.47175,0.08424
5893.40022,0.04956
5895.32869,0.01511
5897.25716,0.01200
5899.18563,0.02969
5901.11410,0.04179
5903.04257,0.06119
5904.97103,0.09604
5906.89950,0.10721
5908.82797,0.08184
5910.75644,0.06382
5912.68491,0.05692
5914.61338,0.04239
5916.54185,0.04955
5918.47032,0.07133
5920.39878,0.07634
5922.32725,0.08004
5924.25572,0.08092
5926.18419,0.06385
5928.11266,0.04249
5930.04113,0.04246
5931.96960,0.07028
5933.89806,0.09709
5935.82653,0.10352
5937.75500,0.09883
5939.68347,0.09680
5941.61194,0.10692
5943.54041,0.12151
5945.46888,0.14532
5947.39734,0.18228
5949.32581,0.19059
5951.25428,0.15596
5953.18275,0.11681
5955.11122,0.08325
5957.03969,0.06481
5958.96816,0.07065
5960.89663,0.08915
5962.82509,0.10496
5964.75356,0.08671
5966.68203,0.04148
5968.61050,0.01293
5970.53897,0.00243
5972.46744,-0.00709
5974.39591,-0.00755
5976.32437,0.01254
5978.25284,0.02906
5980.18131,0.02130
5982.10978,0.01554
5984.03825,0.04125
5985.96672,0.07864
5987.89519,0.07946
5989.82366,0.03747
5991.75212,0.00285
5993.68059,0.01441
5995.60906,0.03455
5997.53753,0.01783
5999.46600,-0.00503
6001.39447,0.00109
6003.32294,0.01968
6005.25140,0.02797
6007.17987,0.05839
6009.10834,0.10317
6011.03681,0.10353
6012.96528,0.07475
6014.89375,0.04857
6016.82222,0.00982
6018.75069,-0.02268
6020.67915,-0.00098
6022.60762,0.03244
6024.53609,0.01988
6026.46456,-0.01561
6028.39303,-0.04079
6030.32150,-0.03995
6032.24997,-0.01329
6034.17843,0.01939
6036.10690,0.03341
6038.03537,0.01358
6039.96384,-0.02296
6041.89231,-0.03997
6043.82078,-0.02117
6045.74925,0.01306
6047.67772,0.04134
6049.60618,0.06088
6051.53465,0.08291
6053.46312,0.11033
6055.39159,0.12233
6057.32006,0.11066
6059.24853,0.10079
6061.17700,0.11495
6063.10546,0.12227
6065.03393,0.09477
6066.96240,0.08679
6068.89087,0.10071
6070.81934,0.06951
6072.74781,0.01071
6074.67628,-0.00529
6076.60475,0.02876
6078.53321,0.06711
6080.46168,0.08900
6082.39015,0.10267
6084.31862,0.09896
6086.24709,0.08958
6088.17556,0.10242
6090.10403,0.10877
6092.03249,0.08395
6093.96096,0.06824
6095.88943,0.09017
6097.81790,0.10975
6099.74637,0.10206
6101.67484,0.06835
6103.60331,0.00702
6105.53177,-0.02467
6107.46024,0.00982
6109.38871,0.03864
6111.31718,0.01396
6113.24565,-0.00703
6115.17412,0.01570
6117.10259,0.05649
6119.03106,0.11205
6120.95952,0.17235
6122.88799,0.17800
6124.81646,0.12674
6126.74493,0.08137
6128.67340,0.07818
6130.60187,0.07942
6132.53034,0.08413
6134.45880,0.12381
6136.38727,0.13824
6138.31574,0.09619
6140.24421,0.08357
6142.17268,0.11238
6144.10115,0.08611
6146.02962,0.02850
6147.95809,0.01445
6149.88655,0.02034
6151.81502,0.04028
6153.74349,0.09189
6155.67196,0.12489
6157.60043,0.11123
6159.52890,0.08576
6161.45737,0.08590
6163.38583,0.08907
6165.31430,0.05386
6167.24277,0.01710
6169.17124,0.02778
6171.09971,0.06466
6173.02818,0.06137
6174.95665,0.02715
6176.88512,0.02703
6178.81358,0.06229
6180.74205,0.10103
6182.67052,0.10875
6184.59899,0.07895
6186.52746,0.04788
6188.45593,0.05456
6190.38440,0.10730
6192.31286,0.13183
6194.24133,0.08411
6196.16980,0.02520
6198.09827,0.01871
6200.02674,0.06406
6201.95521,0.09284
6203.88368,0.06416
6205.81215,0.03209
6207.74061,0.03424
6209.66908,0.05666
6211.59755,0.08229
6213.52602,0.10390
6215.45449,0.12186
6217.38296,0.10935
6219.31143,0.05047
6221.23989,-0.01696
6223.16836,-0.01688
6225.09683,0.06867
6227.02530,0.13404
6228.95377,0.13035
6230.88224,0.09597
6232.81071,0.05032
6234.73918,0.03160
6236.66764,0.04642
6238.59611,0.05772
6240.52458,0.05792
6242.45305,0.03831
6244.38152,0.00711
6246.30999,0.02675
6248.23846,0.10525
6250.16692,0.15658
6252.09539,0.12540
6254.02386,0.08089
6255.95233,0.07050
6257.88080,0.06124
6259.80927,0.03683
6261.73774,0.01246
6263.66621,0.02847
6265.59467,0.07937
6267.52314,0.08819
6269.45161,0.05855
6271.38008,0.04311
6273.30855,0.05919
6275.23702,0.09287
6277.16549,0.12356
6279.09395,0.12920
6281.02242,0.07268
6282.95089,0.01302
6284.87936,0.03756
6286.80783,0.07791
6288.73630,0.07485
6290.66477,0.06959
6292.59323,0.04375
6294.52170,-0.01507
6296.45017,-0.02576
6298.37864,0.02418
6300.30711,0.07258
6302.23558,0.08352
6304.16405,0.09835
6306.09252,0.14459
6308.02098,0.15235
6309.94945,0.12332
6311.87792,0.12509
6313.80639,0.13925
6315.73486,0.12793
6317.66333,0.10780
6319.59180,0.11871
6321.52026,0.14656
6323.44873,0.12247
6325.37720,0.06106
6327.30567,0.06047
6329.23414,0.10494
6331.16261,0.10890
6333.09108,0.11661
6335.01955,0.12401
6336.94801,0.04486
6338.87648,-0.06334
6340.80495,-0.08831
6342.73342,-0.03787
6344.66189,0.02698
6346.59036,0.08101
6348.51883,0.10813
6350.44729,0.09936
6352.37576,0.09088
6354.30423,0.08499
6356.23270,0.04813
6358.16117,0.02177
6360.08964,0.04386
6362.01811,0.06842
6363.94658,0.06245
6365.87504,0.07245
6367.80351,0.14491
6369.73198,0.18768
6371.66045,0.10964
6373.58892,-0.01837
6375.51739,-0.07482
6377.44586,-0.02790
6379.37432,0.07821
6381.30279,0.15551
6383.23126,0.15278
6385.15973,0.13656
6387.08820,0.13078
6389.01667,0.09175
6390.94514,0.05658
6392.87361,0.05148
6394.80207,0.06841
6396.73054,0.09071
6398.65901,0.06362
6400.58748,0.01139
6402.51595,0.02010
6404.44442,0.06314
6406.37289,0.09583
6408.30135,0.13331
6410.22982,0.13205
6412.15829,0.09313
6414.08676,0.10236
6416.01523,0.14137
6417.94370,0.11739
6419.87217,0.01795
6421.80064,-0.04755
6423.72910,-0.02463
6425.65757,0.02140
6427.58604,0.02013
6429.51451,0.01238
6431.44298,0.06038
6433.37145,0.13342
6435.29992,0.15200
6437.22838,0.09636
6439.15685,0.06740
6441.08532,0.10519
6443.01379,0.12361
6444.94226,0.11436
6446.87073,0.09966
6448.79920,0.02591
6450.72766,-0.09205
6452.65613,-0.17234
6454.58460,-0.19175
6456.51307,-0.16247
6458.44154,-0.11939
6460.37001,-0.08280
6462.29848,-0.02325
6464.22695,0.06765
6466.15541,0.12275
6468.08388,0.10854
6470.01235,0.09961
6471.94082,0.10588
6473.86929,0.09393
6475.79776,0.06853
6477.72623,0.04592
6479.65469,0.05048
6481.58316,0.04062
6483.51163,-0.01327
6485.44010,-0.05263
6487.36857,-0.02519
6489.29704,0.03348
6491.22551,0.08084
6493.15398,0.12464
6495.08244,0.11240
6497.01091,0.02775
6498.93938,-0.04213
6500.86785,-0.01541
6502.79632,0.09208
6504.72479,0.15908
6506.65326,0.11503
6508.58172,0.01240
6510.51019,-0.04347
6512.43866,-0.02575
6514.36713,-0.00783
6516.29560,0.00047
6518.22407,0.04047
6520.15254,0.06486
6522.08101,0.07559
6524.00947,0.14807
6525.93794,0.20565
6527.86641,0.13197
6529.79488,0.04563
6531.72335,0.06031
6533.65182,0.07781
6535.58029,0.06587
6537.50875,0.09519
6539.43722,0.09205
6541.36569,0.04478
6543.29416,0.07935
6545.22263,0.13291
6547.15110,0.08727
6549.07957,0.00418
6551.00804,-0.04343
6552.93650,-0.06641
6554.86497,-0.04852
6556.79344,-0.01819
6558.72191,-0.03418
6560.65038,-0.03791
6562.57885,0.00760
6564.50732,0.04921
6566.43578,0.05001
6568.36425,0.02733
6570.29272,0.03779
6572.22119,0.07471
6574.14966,0.05726
6576.07813,-0.02896
6578.00660,-0.10269
6579.93507,-0.08309
6581.86353,0.01034
6583.79200,0.07209
6585.72047,0.06568
6587.64894,0.06062
6589.57741,0.07557
6591.50588,0.10928
6593.43435,0.16374
6595.36281,0.16807
6597.29128,0.13536
6599.21975,0.13455
6601.14822,0.10993
6603.07669,0.04111
6605.00516,0.00660
6606.93363,0.03914
6608.86210,0.12711
6610.79056,0.18233
6612.71903,0.14112
6614.64750,0.05545
6616.57597,-0.02607
6618.50444,-0.07780
6620.43291,-0.07650
6622.36138,-0.02601
6624.28984,0.04615
6626.21831,0.12426
6628.14678,0.16559
6630.07525,0.11869
6632.00372,0.04152
6633.93219,-0.01911
6635.86066,-0.02915
6637.78912,0.01988
6639.71759,0.03355
6641.64606,0.01068
6643.57453,0.00839
6645.50300,0.03423
6647.43147,0.08307
6649.35994,0.08045
6651.28841,-0.01808
6653.21687,-0.08150
6655.14534,0.01956
6657.07381,0.17731
6659.00228,0.17874
6660.93075,0.07723
6662.85922,0.01149
6664.78769,-0.00539
6666.71615,0.03382
6668.64462,0.11322
6670.57309,0.13234
6672.50156,0.05958
6674.43003,0.01229
6676.35850,0.02378
6678.28697,0.05363
6680.21544,0.07492
6682.14390,0.05729
6684.07237,0.05895
6686.00084,0.07653
6687.92931,0.05054
6689.85778,0.06396
6691.78625,0.11393
6693.71472,0.12117
6695.64318,0.10713
6697.57165,0.06939
6699.50012,-0.02527
6701.42859,-0.10570
6703.35706,-0.07748
6705.28553,0.03298
6707.21400,0.13093
6709.14247,0.16388
6711.07093,0.14306
6712.99940,0.09624
6714.92787,0.03522
6716.85634,-0.03837
6718.78481,-0.08309
6720.71328,-0.06827
6722.64175,-0.02968
6724.57021,-0.01502
6726.49868,-0.03588
6728.42715,-0.00003
6730.35562,0.11809
6732.28409,0.16147
6734.21256,0.11842
6736.14103,0.09787
6738.06950,0.08836
6739.99796,0.09549
6741.92643,0.11478
6743.85490,0.05394
6745.78337,-0.03092
6747.71184,-0.07193
6749.64031,-0.11568
6751.56878,-0.14293
6753.49724,-0.09703
6755.42571,-0.01668
6757.35418,0.07007
6759.28265,0.17843
6761.21112,0.23750
6763.13959,0.19970
6765.06806,0.09142
6766.99653,-0.03495
6768.92499,-0.09451
6770.85346,-0.10548
6772.78193,-0.06344
6774.71040,0.09163
6776.63887,0.23738
6778.56734,0.24937
6780.49581,0.20283
6782.42427,0.14516
6784.35274,0.10852
6786.28121,0.10527
6788.20968,0.06552
6790.13815,-0.01958
6792.06662,-0.06315
6793.99509,-0.06079
6795.92355,-0.03302
6797.85202,0.01267
6799.78049,0.02764
6801.70896,0.03977
6803.63743,0.06581
6805.56590,0.03993
6807.49437,0.00832
6809.42284,0.00277
6811.35130,-0.03104
6813.27977,-0.07677
6815.20824,-0.05528
6817.13671,0.08099
6819.06518,0.23686
6820.99365,0.23571
6822.92212,0.08836
6824.85058,0.01658
6826.77905,0.00429
6828.70752,0.00124
6830.63599,0.08477
6832.56446,0.15422
6834.49293,0.12090
6836.42140,0.08551
6838.34987,0.11808
6840.27833,0.15564
6842.20680,0.18257
6844.13527,0.21014
6846.06374,0.23163
6847.99221,0.21352
6849.92068,0.12421
6851.84915,0.06401
6853.77761,0.06172
6855.70608,0.05639
6857.63455,0.01928
6859.56302,-0.04573
6861.49149,-0.07951
6863.41996,-0.01321
6865.34843,0.07547
6867.27690,0.09423
6869.20536,0.10659
6871.13383,0.16378
6873.06230,0.20685
6874.99077,0.21223
6876.91924,0.15733
6878.84771,0.07975
6880.77618,0.11160
6882.70464,0.15817
6884.63311,0.13195
6886.56158,0.10242
6888.49005,0.06886
6890.41852,0.03514
6892.34699,0.07230
6894.27546,0.14134
6896.20393,0.12183
6898.13239,0.05504
6900.06086,0.09683
6901.98933,0.16133
6903.91780,0.09343
6905.84627,-0.02540
6907.77474,-0.04254
6909.70321,0.01247
6911.63167,0.09667
6913.56014,0.15452
6915.48861,0.12769
6917.41708,0.05318
6919.34555,-0.03191
6921.27402,-0.08398
6923.20249,-0.05246
6925.13096,0.03569
6927.05942,0.11649
6928.98789,0.13390
6930.91636,0.11061
6932.84483,0.06870
6934.77330,-0.03450
6936.70177,-0.13045
6938.63024,-0.14208
6940.55870,-0.09103
6942.48717,-0.05749
6944.41564,-0.05532
6946.34411,-0.01204
6948.27258,0.08103
6950.20105,0.10344
6952.12952,0.00551
6954.05799,-0.14160
6955.98645,-0.20161
6957.91492,-0.13149
6959.84339,-0.09372
6961.77186,-0.15897
6963.70033,-0.18311
6965.62880,-0.10430
6967.55727,0.00078
6969.48573,0.05646
6971.41420,0.08325
6973.34267,0.16458
6975.27114,0.26329
6977.19961,0.26794
6979.12808,0.22313
6981.05655,0.20673
6982.98501,0.19152
6984.91348,0.18031
6986.84195,0.22057
6988.77042,0.25641
6990.69889,0.24306
6992.62736,0.19001
6994.55583,0.05920
6996.48430,-0.06969
6998.41276,-0.01264
7000.34123,0.09208
7002.26970,0.06672
7004.19817,0.00295
7006.12664,-0.04959
7008.05511,-0.05017
7009.98358,-0.01352
7011.91204,-0.01154
7013.84051,0.02310
7015.76898,0.10227
7017.69745,0.07720
7019.62592,-0.01650
7021.55439,0.00351
7023.48286,0.13820
7025.41133,0.23680
7027.33979,0.22598
7029.26826,0.13182
7031.19673,0.06030
7033.12520,0.09344
7035.05367,0.17638
7036.98214,0.21141
7038.91061,0.24457
7040.83907,0.26725
7042.76754,0.18620
7044.69601,0.11419
7046.62448,0.16490
7048.55295,0.13345
7050.48142,0.02178
7052.40989,0.03564
7054.33836,0.13800
7056.26682,0.16077
7058.19529,0.06881
7060.12376,0.01423
7062.05223,0.02230
7063.98070,0.01799
7065.90917,-0.01821
7067.83764,-0.11678
7069.76610,-0.21836
7071.69457,-0.15943
7073.62304,-0.02369
7075.55151,0.05550
7077.47998,0.10663
7079.40845,0.14052
7081.33692,0.09498
7083.26539,0.02920
7085.19385,0.01294
7087.12232,-0.01665
7089.05079,-0.04361
7090.97926,0.06204
7092.90773,0.22198
7094.83620,0.24588
7096.76467,0.15812
7098.69313,0.06801
7100.62160,0.02531
7102.55007,0.02563
7104.47854,0.00741
7106.40701,-0.01969
7108.33548,0.02251
7110.26395,0.09353
7112.19242,0.10092
7114.12088,0.02332
7116.04935,-0.02922
7117.97782,0.05079
7119.90629,0.07990
7121.83476,-0.02054
7123.76323,-0.00161
7125.69170,0.14165
7127.62016,0.22546
7129.54863,0.27317
7131.47710,0.26123
7133.40557,0.13789
7135.33404,0.04296
7137.26251,-0.00286
7139.19098,-0.08429
7141.11944,-0.12667
7143.04791,-0.01691
7144.97638,0.21025
7146.90485,0.36226
7148.83332,0.24687
7150.76179,-0.06718
7152.69026,-0.20307
7154.61873,-0.03947
7156.54719,0.03551
7158.47566,0.02197
7160.40413,0.03858
7162.33260,0.02846
7164.26107,0.04753
7166.18954,0.07713
7168.11801,0.01133
7170.04647,-0.08680
7171.97494,-0.09045
7173.90341,0.05585
7175.83188,0.24390
7177.76035,0.34665
7179.68882,0.37708
7181.61729,0.28093
7183.54576,0.15044
7185.47422,0.19212
7187.40269,0.28440
7189.33116,0.32882
7191.25963,0.26430
7193.18810,0.09907
7195.11657,-0.02738
7197.04504,-0.09249
7198.97350,-0.06741
7200.90197,0.04831
7202.83044,0.12816
7204.75891,0.08996
7206.68738,0.03714
7208.61585,0.00877
7210.54432,-0.05018
7212.47279,-0.06116
7214.40125,0.07798
7216.32972,0.27251
7218.25819,0.24073
7220.18666,0.04362
7222.11513,-0.01661
7224.04360,0.03435
7225.97207,0.11392
7227.90053,0.22561
7229.82900,0.29587
7231.75747,0.20665
7233.68594,0.08545
7235.61441,0.04728
7237.54288,-0.05891
7239.47135,-0.20128
7241.39982,-0.21051
7243.32828,-0.17486
7245.25675,-0.14194
7247.18522,-0.10518
7249.11369,-0.05705
7251.04216,0.06766
7252.97063,0.17610
7254.89910,0.27406
7256.82756,0.36948
7258.75603,0.38375
7260.68450,0.35690
7262.61297,0.39382
7264.54144,0.37459
7266.46991,0.21255
7268.39838,0.08286
7270.32685,0.04618
7272.25531,-0.01010
7274.18378,-0.08358
7276.11225,-0.08712
7278.04072,-0.09940
7279.96919,-0.23324
7281.89766,-0.32309
7283.82613,-0.20014
7285.75459,0.00672
7287.68306,0.12062
7289.61153,0.05065
7291.54000,-0.08956
7293.46847,-0.13843
7295.39694,-0.14727
7297.32541,-0.19441
7299.25387,-0.22493
7301.18234,-0.16273
7303.11081,-0.09444
7305.03928,-0.04732
7306.96775,0.16315
7308.89622,0.42360
7310.82469,0.43276
7312.75316,0.38373
7314.68162,0.45749
7316.61009,0.55985
7318.53856,0.51135
7320.46703,0.37367
7322.39550,0.26371
7324.32397,0.19158
7326.25244,0.17310
7328.18090,0.24360
7330.10937,0.33932
7332.03784,0.34957
7333.96631,0.24296
7335.89478,0.08986
7337.82325,-0.02754
7339.75172,-0.02287
7341.68019,0.17957
7343.60865,0.33423
7345.53712,0.34609
7347.46559,0.24366
7349.39406,0.06490
7351.32253,0.04503
7353.25100,0.22926
7355.17947,0.32360
7357.10793,0.21310
7359.03640,0.00911
7360.96487,-0.14763
7362.89334,-0.19237
7364.82181,-0.02499
7366.75028,0.21162
7368.67875,0.13388
7370.60722,-0.10960
7372.53568,-0.16624
7374.46415,-0.20460
7376.39262,-0.32959
7378.32109,-0.22012
7380.24956,0.00854
7382.17803,0.08646
7384.10650,-0.00550
7386.03496,-0.15568
7387.96343,-0.26694
7389.89190,-0.21728
7391.82037,-0.08416
7393.74884,0.01523
7395.67731,0.09107
7397.60578,0.13956
7399.53425,0.17423
7401.46271,0.23203
7403.39118,0.28428
7405.31965,0.26400
7407.24812,0.18148
7409.17659,0.11495
7411.10506,0.12053
7413.03353,0.20325
7414.96199,0.27215
7416.89046,0.23238
7418.81893,0.10846
7420.74740,-0.03220
7422.67587,-0.07567
7424.60434,0.03961
7426.53281,0.16758
7428.46128,0.21515
7430.38974,0.23391
7432.31821,0.21037
7434.24668,0.07039
7436.17515,-0.16010
7438.10362,-0.33355
7440.03209,-0.37510
7441.96056,-0.33542
7443.88902,-0.19174
7445.81749,-0.02730
7447.74596,0.01614
7449.67443,-0.01229
7451.60290,-0.00248
7453.53137,0.03015
7455.45984,0.03928
7457.38831,0.02976
7459.31677,0.00784
7461.24524,0.05085
7463.17371,0.23548
7465.10218,0.40928
7467.03065,0.37245
7468.95912,0.19394
7470.88759,-0.04462
7472.81605,-0.19750
7474.74452,-0.09812
7476.67299,0.14822
7478.60146,0.33443
7480.52993,0.31624
7482.45840,0.13888
7484.38687,-0.06092
7486.31533,-0.23162
7488.24380,-0.32716
7490.17227,-0.27322
7492.10074,-0.03016
7494.02921,0.14050
7495.95768,0.12053
7497.88615,0.15824
