399.19301,4.17205
401.12148,0.36100
403.04995,-0.38146
404.97842,-0.52050
406.90689,-0.41787
408.83536,-0.21829
410.76382,-0.02914
412.69229,0.05975
414.62076,0.10426
416.54923,0.15523
418.47770,0.20431
420.40617,0.13925
422.33464,0.03009
424.26311,0.01853
426.19157,0.09936
428.12004,0.17111
430.04851,0.15270
431.97698,0.04002
433.90545,-0.02858
435.83392,-0.01688
437.76239,-0.01872
439.69085,-0.06483
441.61932,-0.08468
443.54779,0.00469
445.47626,0.12140
447.40473,0.12617
449.33320,0.07142
451.26167,0.06000
453.19013,0.08833
455.11860,0.12089
457.04707,0.09201
458.97554,-0.01179
460.90401,-0.06119
462.83248,-0.01651
464.76095,0.03566
466.68942,0.05330
468.61788,0.06155
470.54635,0.03147
472.47482,-0.05034
474.40329,-0.07777
476.33176,-0.04295
478.26023,-0.01979
480.18870,0.02109
482.11716,0.05763
484.04563,0.04692
485.97410,0.03332
487.90257,0.02687
489.83104,-0.00986
491.75951,-0.03877
493.68798,-0.01831
495.61645,0.03681
497.54491,0.07666
499.47338,0.05967
501.40185,0.02545
503.33032,0.02911
505.25879,0.04577
507.18726,0.05848
509.11573,0.08043
511.04419,0.07984
512.97266,0.05160
514.90113,0.03028
516.82960,0.02609
518.75807,0.04247
520.68654,0.05617
522.61501,0.04844
524.54348,0.05084
526.47194,0.06285
528.40041,0.04560
530.32888,0.00218
532.25735,-0.03195
534.18582,-0.02439
536.11429,0.01818
538.04276,0.05696
539.97122,0.06448
541.89969,0.04525
543.82816,0.02972
545.75663,0.03274
547.68510,0.03932
549.61357,0.04473
551.54204,0.02735
553.47051,-0.01120
555.39897,-0.01496
557.32744,0.02440
559.25591,0.07046
561.18438,0.09564
563.11285,0.08119
565.04132,0.04799
566.96979,0.03247
568.89825,0.02232
570.82672,-0.00276
572.75519,-0.00595
574.68366,0.02840
576.61213,0.05047
578.54060,0.03595
580.46907,0.02011
582.39754,0.04272
584.32600,0.08043
586.25447,0.08459
588.18294,0.05961
590.11141,0.04037
592.03988,0.04228
593.96835,0.05202
595.89682,0.05570
597.82528,0.05746
599.75375,0.05872
601.68222,0.05890
603.61069,0.06474
605.53916,0.07835
607.46763,0.08059
609.39610,0.06146
611.32456,0.04425
613.25303,0.03883
615.18150,0.03489
617.10997,0.03462
619.03844,0.04227
620.96691,0.04683
622.89538,0.03499
624.82385,0.02250
626.75231,0.03370
628.68078,0.05480
630.60925,0.05428
632.53772,0.03062
634.46619,0.00753
636.39466,0.00719
638.32313,0.02450
640.25159,0.03463
642.18006,0.04120
644.10853,0.04543
646.03700,0.02320
647.96547,-0.00510
649.89394,-0.00478
651.82241,0.00371
653.75088,-0.00494
655.67934,-0.01529
657.60781,-0.00844
659.53628,0.00872
661.46475,0.02681
663.39322,0.04183
665.32169,0.04758
667.25016,0.04920
669.17862,0.05179
671.10709,0.04546
673.03556,0.03939
674.96403,0.03355
676.89250,0.01725
678.82097,-0.00229
680.74944,-0.00827
682.67791,0.00552
684.60637,0.03638
686.53484,0.06737
688.46331,0.07291
690.39178,0.05429
692.32025,0.03482
694.24872,0.02860
696.17719,0.03181
698.10565,0.03615
700.03412,0.04196
701.96259,0.04431
703.89106,0.03676
705.81953,0.02832
707.74800,0.02852
709.67647,0.02967
711.60494,0.02613
713.53340,0.02649
715.46187,0.03013
717.39034,0.03067
719.31881,0.03084
721.24728,0.03591
723.17575,0.05049
725.10422,0.07062
727.03268,0.08032
728.96115,0.07249
730.88962,0.05771
732.81809,0.04432
734.74656,0.03289
736.67503,0.02476
738.60350,0.02493
740.53197,0.03204
742.46043,0.03674
744.38890,0.03767
746.31737,0.03965
748.24584,0.04496
750.17431,0.05248
752.10278,0.05367
754.03125,0.04386
755.95971,0.03838
757.88818,0.04494
759.81665,0.05284
761.74512,0.05703
763.67359,0.05298
765.60206,0.04188
767.53053,0.03439
769.45900,0.03583
771.38746,0.04759
773.31593,0.06283
775.24440,0.06182
777.17287,0.04136
779.10134,0.02530
781.02981,0.02698
782.95828,0.03864
784.88674,0.04524
786.81521,0.04282
788.74368,0.03881
790.67215,0.03763
792.60062,0.04445
794.52909,0.05475
796.45756,0.05813
798.38602,0.05850
800.31449,0.05868
802.24296,0.05643
804.17143,0.05543
806.09990,0.05086
808.02837,0.03962
809.95684,0.03906
811.88531,0.05248
813.81377,0.06222
815.74224,0.05899
817.67071,0.04572
819.59918,0.03104
821.52765,0.01996
823.45612,0.01078
825.38459,0.00923
827.31305,0.02438
829.24152,0.04501
831.16999,0.05197
833.09846,0.04457
835.02693,0.03751
836.95540,0.03717
838.88387,0.03686
840.81234,0.04023
842.74080,0.05650
844.66927,0.06995
846.59774,0.06347
848.52621,0.06108
850.45468,0.07718
852.38315,0.08599
854.31162,0.07546
856.24008,0.05597
858.16855,0.04393
860.09702,0.04592
862.02549,0.04405
863.95396,0.03182
865.88243,0.02387
867.81090,0.02930
869.73937,0.04885
871.66783,0.06873
873.59630,0.07439
875.52477,0.07065
877.45324,0.06462
879.38171,0.05750
881.31018,0.05235
883.23865,0.05096
885.16711,0.04598
887.09558,0.03564
889.02405,0.03105
890.95252,0.03270
892.88099,0.03424
894.80946,0.03486
896.73793,0.03775
898.66640,0.04659
900.59486,0.05253
902.52333,0.04411
904.45180,0.03320
906.38027,0.03486
908.30874,0.03924
910.23721,0.04194
912.16568,0.05197
914.09414,0.06403
916.02261,0.06716
917.95108,0.05779
919.87955,0.04040
921.80802,0.02434
923.73649,0.02126
925.66496,0.03503
927.59343,0.04707
929.52189,0.04493
931.45036,0.04243
933.37883,0.04444
935.30730,0.03835
937.23577,0.02684
939.16424,0.02432
941.09271,0.02889
943.02117,0.03362
944.94964,0.03866
946.87811,0.04339
948.80658,0.04797
950.73505,0.05509
952.66352,0.06314
954.59199,0.06357
956.52045,0.05841
958.44892,0.05664
960.37739,0.05388
962.30586,0.04839
964.23433,0.04926
966.16280,0.05555
968.09127,0.05734
970.01974,0.05568
971.94820,0.05441
973.87667,0.05512
975.80514,0.05841
977.73361,0.05610
979.66208,0.04822
981.59055,0.04242
983.51902,0.03946
985.44748,0.04163
987.37595,0.04886
989.30442,0.05423
991.23289,0.05735
993.16136,0.06163
995.08983,0.06228
997.01830,0.05754
998.94677,0.05136
1000.87523,0.04572
1002.80370,0.04330
1004.73217,0.04417
1006.66064,0.04409
1008.58911,0.04155
1010.51758,0.03960
1012.44605,0.03934
1014.37451,0.03816
1016.30298,0.03537
1018.23145,0.03587
1020.15992,0.04107
1022.08839,0.04575
1024.01686,0.04666
1025.94533,0.04491
1027.87380,0.04777
1029.80226,0.05479
1031.73073,0.05472
1033.65920,0.04466
1035.58767,0.03108
1037.51614,0.02398
1039.44461,0.02775
1041.37308,0.04060
1043.30154,0.05817
1045.23001,0.06738
1047.15848,0.06505
1049.08695,0.06396
1051.01542,0.06372
1052.94389,0.05838
1054.87236,0.05305
1056.80083,0.05033
1058.72929,0.04994
1060.65776,0.04925
1062.58623,0.04666
1064.51470,0.04548
1066.44317,0.04397
1068.37164,0.04238
1070.30011,0.04492
1072.22857,0.05072
1074.15704,0.05681
1076.08551,0.05853
1078.01398,0.05368
1079.94245,0.04853
1081.87092,0.05003
1083.79939,0.05469
1085.72786,0.05338
1087.65632,0.04787
1089.58479,0.04663
1091.51326,0.04993
1093.44173,0.05110
1095.37020,0.04651
1097.29867,0.04259
1099.22714,0.04380
1101.15560,0.04286
1103.08407,0.04002
1105.01254,0.04683
1106.94101,0.05925
1108.86948,0.06133
1110.79795,0.05333
1112.72642,0.04887
1114.65489,0.05304
1116.58335,0.05904
1118.51182,0.06338
1120.44029,0.06448
1122.36876,0.05919
1124.29723,0.05358
1126.22570,0.05165
1128.15417,0.05105
1130.08263,0.05088
1132.01110,0.04991
1133.93957,0.05019
1135.86804,0.05448
1137.79651,0.06128
1139.72498,0.06467
1141.65345,0.06011
1143.58191,0.05264
1145.51038,0.04905
1147.43885,0.04942
1149.36732,0.05134
1151.29579,0.05330
1153.22426,0.05583
1155.15273,0.05647
1157.08120,0.05083
1159.00966,0.04374
1160.93813,0.03952
1162.86660,0.04066
1164.79507,0.05128
1166.72354,0.06032
1168.65201,0.05885
1170.58048,0.05704
1172.50894,0.05951
1174.43741,0.05928
1176.36588,0.05459
1178.29435,0.05100
1180.22282,0.05071
1182.15129,0.05070
1184.07976,0.05176
1186.00823,0.05738
1187.93669,0.06199
1189.86516,0.06035
1191.79363,0.05873
1193.72210,0.05809
1195.65057,0.05378
1197.57904,0.05156
1199.50751,0.05691
1201.43597,0.06266
1203.36444,0.06385
1205.29291,0.06257
1207.22138,0.05772
1209.14985,0.05335
1211.07832,0.05552
1213.00679,0.05918
1214.93526,0.05965
1216.86372,0.05998
1218.79219,0.05937
1220.72066,0.05541
1222.64913,0.05431
1224.57760,0.05643
1226.50607,0.05308
1228.43454,0.04901
1230.36300,0.05174
1232.29147,0.05661
1234.21994,0.06076
1236.14841,0.06439
1238.07688,0.06499
1240.00535,0.06230
1241.93382,0.05863
1243.86229,0.05536
1245.79075,0.05351
1247.71922,0.05481
1249.64769,0.05896
1251.57616,0.06154
1253.50463,0.06201
1255.43310,0.06317
1257.36157,0.06221
1259.29003,0.05901
1261.21850,0.05559
1263.14697,0.04988
1265.07544,0.04694
1267.00391,0.05203
1268.93238,0.05747
1270.86085,0.05708
1272.78932,0.05506
1274.71778,0.05531
1276.64625,0.05591
1278.57472,0.05582
1280.50319,0.05747
1282.43166,0.05908
1284.36013,0.05699
1286.28860,0.05403
1288.21706,0.05495
1290.14553,0.05861
1292.07400,0.06054
1294.00247,0.05960
1295.93094,0.05737
1297.85941,0.05582
1299.78788,0.05469
1301.71634,0.05136
1303.64481,0.04764
1305.57328,0.04812
1307.50175,0.05170
1309.43022,0.05268
1311.35869,0.05226
1313.28716,0.05502
1315.21563,0.05702
1317.14409,0.05547
1319.07256,0.05500
1321.00103,0.05754
1322.92950,0.05908
1324.85797,0.05659
1326.78644,0.05288
1328.71491,0.05210
1330.64337,0.05329
1332.57184,0.05539
1334.50031,0.05767
1336.42878,0.05666
1338.35725,0.05340
1340.28572,0.05210
1342.21419,0.05318
1344.14266,0.05427
1346.07112,0.05610
1347.99959,0.06178
1349.92806,0.06618
1351.85653,0.06220
1353.78500,0.05497
1355.71347,0.05190
1357.64194,0.05088
1359.57040,0.04973
1361.49887,0.05125
1363.42734,0.05489
1365.35581,0.05755
1367.28428,0.05850
1369.21275,0.05799
1371.14122,0.05847
1373.06969,0.06159
1374.99815,0.06415
1376.92662,0.06545
1378.85509,0.06772
1380.78356,0.06831
1382.71203,0.06626
1384.64050,0.06387
1386.56897,0.06204
1388.49743,0.05790
1390.42590,0.05070
1392.35437,0.04628
1394.28284,0.04896
1396.21131,0.05567
1398.13978,0.05943
1400.06825,0.05883
1401.99672,0.05652
1403.92518,0.05621
1405.85365,0.05941
1407.78212,0.06319
1409.71059,0.06447
1411.63906,0.06361
1413.56753,0.06345
1415.49600,0.06321
1417.42446,0.05901
1419.35293,0.05416
1421.28140,0.05555
1423.20987,0.05870
1425.13834,0.05975
1427.06681,0.05893
1428.99528,0.05888
1430.92375,0.06055
1432.85221,0.06148
1434.78068,0.06188
1436.70915,0.06310
1438.63762,0.06274
1440.56609,0.05899
1442.49456,0.05580
1444.42303,0.05721
1446.35149,0.06043
1448.27996,0.06061
1450.20843,0.05852
1452.13690,0.05884
1454.06537,0.06192
1455.99384,0.06648
1457.92231,0.07044
1459.85077,0.06779
1461.77924,0.06448
1463.70771,0.06544
1465.63618,0.06810
1467.56465,0.06881
1469.49312,0.07253
1471.42159,0.07975
1473.35006,0.08005
1475.27852,0.07312
1477.20699,0.06771
1479.13546,0.06392
1481.06393,0.06276
1482.99240,0.06404
1484.92087,0.06517
1486.84934,0.06655
1488.77780,0.06940
1490.70627,0.06932
1492.63474,0.06661
1494.56321,0.06715
1496.49168,0.06997
1498.42015,0.06849
1500.34862,0.06595
1502.27709,0.06666
1504.20555,0.06955
1506.13402,0.07350
1508.06249,0.07161
1509.99096,0.06765
1511.91943,0.06639
1513.84790,0.06532
1515.77637,0.06445
1517.70483,0.06757
1519.63330,0.07471
1521.56177,0.07619
1523.49024,0.06913
1525.41871,0.06622
1527.34718,0.06717
1529.27565,0.06646
1531.20412,0.06553
1533.13258,0.06698
1535.06105,0.06906
1536.98952,0.07030
1538.91799,0.07504
1540.84646,0.08470
1542.77493,0.08384
1544.70340,0.07711
1546.63186,0.07403
1548.56033,0.07338
1550.48880,0.07110
1552.41727,0.06730
1554.34574,0.06425
1556.27421,0.06429
1558.20268,0.06490
1560.13115,0.05960
1562.05961,0.05993
1563.98808,0.06397
1565.91655,0.06779
1567.84502,0.07093
1569.77349,0.07050
1571.70196,0.06622
1573.63043,0.06636
1575.55889,0.07188
1577.48736,0.07222
1579.41583,0.06757
1581.34430,0.06560
1583.27277,0.06453
1585.20124,0.06343
1587.12971,0.06389
1589.05818,0.06490
1590.98664,0.06437
1592.91511,0.06297
1594.84358,0.06491
1596.77205,0.06853
1598.70052,0.06754
1600.62899,0.06381
1602.55746,0.06395
1604.48592,0.06748
1606.41439,0.06813
1608.34286,0.06563
1610.27133,0.06285
1612.19980,0.06033
1614.12827,0.05958
1616.05674,0.06102
1617.98521,0.06212
1619.91367,0.06374
1621.84214,0.06800
1623.77061,0.07197
1625.69908,0.07129
1627.62755,0.06919
1629.55602,0.07017
1631.48449,0.07250
1633.41295,0.07284
1635.34142,0.07156
1637.26989,0.06986
1639.19836,0.06898
1641.12683,0.06963
1643.05530,0.06987
1644.98377,0.06892
1646.91223,0.07052
1648.84070,0.07410
1650.76917,0.07454
1652.69764,0.07060
1654.62611,0.06697
1656.55458,0.06773
1658.48305,0.06986
1660.41152,0.07515
1662.33998,0.07845
1664.26845,0.07262
1666.19692,0.06876
1668.12539,0.07336
1670.05386,0.07927
1671.98233,0.07745
1673.91080,0.07229
1675.83926,0.06971
1677.76773,0.07050
1679.69620,0.07079
1681.62467,0.07276
1683.55314,0.08144
1685.48161,0.08405
1687.41008,0.07525
1689.33855,0.06717
1691.26701,0.06365
1693.19548,0.06381
1695.12395,0.06480
1697.05242,0.06495
1698.98089,0.06652
1700.90936,0.07004
1702.83783,0.07025
1704.76629,0.07110
1706.69476,0.07334
1708.62323,0.07087
1710.55170,0.06567
1712.48017,0.06230
1714.40864,0.06288
1716.33711,0.06668
1718.26558,0.06663
1720.19404,0.06334
1722.12251,0.06312
1724.05098,0.06627
1725.97945,0.06930
1727.90792,0.06894
1729.83639,0.06594
1731.76486,0.06377
1733.69332,0.06401
1735.62179,0.06546
1737.55026,0.06689
1739.47873,0.06735
1741.40720,0.06570
1743.33567,0.06470
1745.26414,0.06757
1747.19261,0.07103
1749.12107,0.07047
1751.04954,0.06761
1752.97801,0.06544
1754.90648,0.06339
1756.83495,0.06082
1758.76342,0.05849
1760.69189,0.05834
1762.62035,0.06125
1764.54882,0.06392
1766.47729,0.06478
1768.40576,0.06608
1770.33423,0.06943
1772.26270,0.07047
1774.19117,0.06590
1776.11964,0.06293
1778.04810,0.06313
1779.97657,0.06437
1781.90504,0.06609
1783.83351,0.06669
1785.76198,0.06350
1787.69045,0.05888
1789.61892,0.05931
1791.54738,0.06470
1793.47585,0.06660
1795.40432,0.06652
1797.33279,0.06945
1799.26126,0.07061
1801.18973,0.06723
1803.11820,0.06457
1805.04666,0.06236
1806.97513,0.05843
1808.90360,0.05643
1810.83207,0.05685
1812.76054,0.05736
1814.68901,0.05998
1816.61748,0.06470
1818.54595,0.06788
1820.47441,0.06673
1822.40288,0.06460
1824.33135,0.06671
1826.25982,0.07017
1828.18829,0.07112
1830.11676,0.06964
1832.04523,0.06607
1833.97369,0.06356
1835.90216,0.06245
1837.83063,0.06204
1839.75910,0.06388
1841.68757,0.06792
1843.61604,0.07152
1845.54451,0.07091
1847.47298,0.06633
1849.40144,0.06226
1851.32991,0.06222
1853.25838,0.06398
1855.18685,0.06421
1857.11532,0.06442
1859.04379,0.06585
1860.97226,0.06768
1862.90072,0.06952
1864.82919,0.07064
1866.75766,0.07060
1868.68613,0.06903
1870.61460,0.06542
1872.54307,0.06179
1874.47154,0.06111
1876.40001,0.06361
1878.32847,0.06495
1880.25694,0.06267
1882.18541,0.05993
1884.11388,0.05909
1886.04235,0.05951
1887.97082,0.06083
1889.89929,0.06230
1891.82775,0.06280
1893.75622,0.06351
1895.68469,0.06516
1897.61316,0.06581
1899.54163,0.06486
1901.47010,0.06389
1903.39857,0.06426
1905.32704,0.06564
1907.25550,0.06721
1909.18397,0.06843
1911.11244,0.06699
1913.04091,0.06418
1914.96938,0.06321
1916.89785,0.06375
1918.82632,0.06493
1920.75478,0.06495
1922.68325,0.06392
1924.61172,0.06421
1926.54019,0.06526
1928.46866,0.06638
1930.39713,0.06800
1932.32560,0.06799
1934.25407,0.06494
1936.18253,0.06319
1938.11100,0.06496
1940.03947,0.06656
1941.96794,0.06729
1943.89641,0.06857
1945.82488,0.06844
1947.75335,0.06679
1949.68181,0.06703
1951.61028,0.06992
1953.53875,0.07072
1955.46722,0.06751
1957.39569,0.06507
1959.32416,0.06460
1961.25263,0.06457
1963.18110,0.06660
1965.10956,0.06934
1967.03803,0.06818
1968.96650,0.06365
1970.89497,0.06100
1972.82344,0.06153
1974.75191,0.06294
1976.68038,0.06347
1978.60884,0.06366
1980.53731,0.06422
1982.46578,0.06433
1984.39425,0.06468
1986.32272,0.06532
1988.25119,0.06485
1990.17966,0.06518
1992.10812,0.06659
1994.03659,0.06597
1995.96506,0.06486
1997.89353,0.06562
1999.82200,0.06731
2001.75047,0.06885
2003.67894,0.06858
2005.60741,0.06688
2007.53587,0.06689
2009.46434,0.06788
2011.39281,0.06673
2013.32128,0.06469
2015.24975,0.06474
2017.17822,0.06633
2019.10669,0.06649
2021.03515,0.06443
2022.96362,0.06264
2024.89209,0.06100
2026.82056,0.06013
2028.74903,0.06315
2030.67750,0.06566
2032.60597,0.06343
2034.53444,0.06036
2036.46290,0.05947
2038.39137,0.06057
2040.31984,0.06273
2042.24831,0.06420
2044.17678,0.06426
2046.10525,0.06495
2048.03372,0.06656
2049.96218,0.06613
2051.89065,0.06372
2053.81912,0.06129
2055.74759,0.06043
2057.67606,0.06188
2059.60453,0.06403
2061.53300,0.06678
2063.46147,0.06934
2065.38993,0.06860
2067.31840,0.06564
2069.24687,0.06423
2071.17534,0.06481
2073.10381,0.06544
2075.03228,0.06541
2076.96075,0.06562
2078.88921,0.06662
2080.81768,0.06751
2082.74615,0.06850
2084.67462,0.07026
2086.60309,0.07011
2088.53156,0.06643
2090.46003,0.06401
2092.38850,0.06635
2094.31696,0.06886
2096.24543,0.06863
2098.17390,0.06737
2100.10237,0.06601
2102.03084,0.06598
2103.95931,0.06640
2105.88778,0.06492
2107.81624,0.06246
2109.74471,0.06148
2111.67318,0.06167
2113.60165,0.06162
2115.53012,0.06226
2117.45859,0.06236
2119.38706,0.06170
2121.31553,0.06261
2123.24399,0.06268
2125.17246,0.06051
2127.10093,0.05883
2129.02940,0.05886
2130.95787,0.06008
2132.88634,0.06118
2134.81481,0.06084
2136.74327,0.06021
2138.67174,0.06222
2140.60021,0.06674
2142.52868,0.06977
2144.45715,0.06994
2146.38562,0.06976
2148.31409,0.07120
2150.24255,0.07270
2152.17102,0.07084
2154.09949,0.06686
2156.02796,0.06451
2157.95643,0.06485
2159.88490,0.06798
2161.81337,0.07233
2163.74184,0.07476
2165.67030,0.07430
2167.59877,0.07209
2169.52724,0.06991
2171.45571,0.06974
2173.38418,0.07100
2175.31265,0.07057
2177.24112,0.06830
2179.16958,0.06776
2181.09805,0.06973
2183.02652,0.06975
2184.95499,0.06602
2186.88346,0.06289
2188.81193,0.06375
2190.74040,0.06628
2192.66887,0.06676
2194.59733,0.06490
2196.52580,0.06187
2198.45427,0.06020
2200.38274,0.06169
2202.31121,0.06338
2204.23968,0.06352
2206.16815,0.06473
2208.09661,0.06751
2210.02508,0.06871
2211.95355,0.06799
2213.88202,0.06762
2215.81049,0.06674
2217.73896,0.06508
2219.66743,0.06445
2221.59590,0.06425
2223.52436,0.06369
2225.45283,0.06457
2227.38130,0.06810
2229.30977,0.07080
2231.23824,0.06950
2233.16671,0.06614
2235.09518,0.06391
2237.02364,0.06487
2238.95211,0.06660
2240.88058,0.06575
2242.80905,0.06527
2244.73752,0.06756
2246.66599,0.06994
2248.59446,0.07034
2250.52293,0.06944
2252.45139,0.06870
2254.37986,0.06841
2256.30833,0.06818
2258.23680,0.06848
2260.16527,0.06768
2262.09374,0.06571
2264.02221,0.06644
2265.95067,0.06874
2267.87914,0.06919
2269.80761,0.06777
2271.73608,0.06605
2273.66455,0.06603
2275.59302,0.06708
2277.52149,0.06773
2279.44996,0.06728
2281.37842,0.06574
2283.30689,0.06457
2285.23536,0.06330
2287.16383,0.06132
2289.09230,0.05984
2291.02077,0.06002
2292.94924,0.06210
2294.87770,0.06375
2296.80617,0.06335
2298.73464,0.06225
2300.66311,0.06200
2302.59158,0.06434
2304.52005,0.06690
2306.44852,0.06355
2308.37699,0.05600
2310.30545,0.05345
2312.23392,0.05796
2314.16239,0.06425
2316.09086,0.06846
2318.01933,0.06781
2319.94780,0.06398
2321.87627,0.06075
2323.80473,0.05615
2325.73320,0.05104
2327.66167,0.05072
2329.59014,0.06028
2331.51861,0.07489
2333.44708,0.08023
2335.37555,0.07959
2337.30401,0.07914
2339.23248,0.07282
2341.16095,0.06378
2343.08942,0.05885
2345.01789,0.05808
2346.94636,0.06200
2348.87483,0.06710
2350.80330,0.06886
2352.73176,0.06780
2354.66023,0.06431
2356.58870,0.05293
2358.51717,0.04267
2360.44564,0.04357
2362.37411,0.04859
2364.30258,0.05848
2366.23104,0.07267
2368.15951,0.07351
2370.08798,0.06229
2372.01645,0.06109
2373.94492,0.06615
2375.87339,0.06425
2377.80186,0.06121
2379.73033,0.06404
2381.65879,0.06778
2383.58726,0.06761
2385.51573,0.06614
2387.44420,0.06623
2389.37267,0.06716
2391.30114,0.06768
2393.22961,0.06630
2395.15807,0.06302
2397.08654,0.06152
2399.01501,0.06282
2400.94348,0.06414
2402.87195,0.06478
2404.80042,0.06607
2406.72889,0.06878
2408.65736,0.07008
2410.58582,0.06761
2412.51429,0.06489
2414.44276,0.06436
2416.37123,0.06455
2418.29970,0.06574
2420.22817,0.06829
2422.15664,0.06986
2424.08510,0.06970
2426.01357,0.06976
2427.94204,0.06946
2429.87051,0.06760
2431.79898,0.06649
2433.72745,0.06787
2435.65592,0.07041
2437.58439,0.07129
2439.51285,0.06967
2441.44132,0.06843
2443.36979,0.06757
2445.29826,0.06562
2447.22673,0.06508
2449.15520,0.06562
2451.08367,0.06443
2453.01213,0.06417
2454.94060,0.06625
2456.86907,0.06689
2458.79754,0.06654
2460.72601,0.06812
2462.65448,0.06922
2464.58295,0.06818
2466.51142,0.06782
2468.43988,0.06854
2470.36835,0.06865
2472.29682,0.06804
2474.22529,0.06681
2476.15376,0.06490
2478.08223,0.06394
2480.01070,0.06642
2481.93916,0.07053
2483.86763,0.07215
2485.79610,0.07148
2487.72457,0.07259
2489.65304,0.07515
2491.58151,0.07367
2493.50998,0.06869
2495.43844,0.06545
2497.36691,0.06575
2499.29538,0.06678
2501.22385,0.06595
2503.15232,0.06519
2505.08079,0.06543
2507.00926,0.06582
2508.93773,0.06701
2510.86619,0.06820
2512.79466,0.06793
2514.72313,0.06683
2516.65160,0.06539
2518.58007,0.06525
2520.50854,0.06865
2522.43701,0.07188
2524.36547,0.07126
2526.29394,0.06878
2528.22241,0.06656
2530.15088,0.06620
2532.07935,0.06772
2534.00782,0.06788
2535.93629,0.06572
2537.86476,0.06311
2539.79322,0.06171
2541.72169,0.06257
2543.65016,0.06404
2545.57863,0.06501
2547.50710,0.06593
2549.43557,0.06537
2551.36404,0.06351
2553.29250,0.06332
2555.22097,0.06639
2557.14944,0.07021
2559.07791,0.07205
2561.00638,0.07174
2562.93485,0.06995
2564.86332,0.06830
2566.79179,0.06874
2568.72025,0.07025
2570.64872,0.06947
2572.57719,0.06740
2574.50566,0.06724
2576.43413,0.06766
2578.36260,0.06711
2580.29107,0.06782
2582.21953,0.07026
2584.14800,0.07107
2586.07647,0.06982
2588.00494,0.06918
2589.93341,0.07008
2591.86188,0.07169
2593.79035,0.07294
2595.71882,0.07335
2597.64728,0.07339
2599.57575,0.07354
2601.50422,0.07354
2603.43269,0.07373
2605.36116,0.07326
2607.28963,0.07140
2609.21810,0.07036
2611.14656,0.06917
2613.07503,0.06710
2615.00350,0.06813
2616.93197,0.07052
2618.86044,0.06985
2620.78891,0.06776
2622.71738,0.06577
2624.64585,0.06363
2626.57431,0.06225
2628.50278,0.06171
2630.43125,0.06307
2632.35972,0.06763
2634.28819,0.07165
2636.21666,0.07122
2638.14513,0.06930
2640.07359,0.06989
2642.00206,0.07120
2643.93053,0.07102
2645.85900,0.07062
2647.78747,0.07059
2649.71594,0.07109
2651.64441,0.07331
2653.57288,0.07510
2655.50134,0.07327
2657.42981,0.07068
2659.35828,0.07045
2661.28675,0.07056
2663.21522,0.07014
2665.14369,0.07046
2667.07216,0.07004
2669.00062,0.06754
2670.92909,0.06595
2672.85756,0.06749
2674.78603,0.07101
2676.71450,0.07346
2678.64297,0.07242
2680.57144,0.07145
2682.49990,0.07388
2684.42837,0.07740
2686.35684,0.07844
2688.28531,0.07521
2690.21378,0.07001
2692.14225,0.06758
2694.07072,0.06991
2695.99919,0.07364
2697.92765,0.07535
2699.85612,0.07664
2701.78459,0.07866
2703.71306,0.07714
2705.64153,0.07092
2707.57000,0.06865
2709.49847,0.07357
2711.42693,0.07664
2713.35540,0.07369
2715.28387,0.07012
2717.21234,0.06913
2719.14081,0.06929
2721.06928,0.06893
2722.99775,0.06801
2724.92622,0.06909
2726.85468,0.07385
2728.78315,0.07915
2730.71162,0.08009
2732.64009,0.07548
2734.56856,0.07011
2736.49703,0.06959
2738.42550,0.07255
2740.35396,0.07397
2742.28243,0.07372
2744.21090,0.07316
2746.13937,0.07128
2748.06784,0.07006
2749.99631,0.07133
2751.92478,0.07286
2753.85325,0.07525
2755.78171,0.07869
2757.71018,0.07860
2759.63865,0.07515
2761.56712,0.07375
2763.49559,0.07568
2765.42406,0.07807
2767.35253,0.07919
2769.28099,0.07857
2771.20946,0.07622
2773.13793,0.07369
2775.06640,0.07264
2776.99487,0.07330
2778.92334,0.07384
2780.85181,0.07332
2782.78028,0.07473
2784.70874,0.07836
2786.63721,0.07977
2788.56568,0.07809
2790.49415,0.07559
2792.42262,0.07429
2794.35109,0.07664
2796.27956,0.07971
2798.20802,0.07800
2800.13649,0.07438
2802.06496,0.07275
2803.99343,0.07162
2805.92190,0.07133
2807.85037,0.07175
2809.77884,0.07113
2811.70731,0.07075
2813.63577,0.07187
2815.56424,0.07320
2817.49271,0.07199
2819.42118,0.06961
2821.34965,0.07069
2823.27812,0.07437
2825.20659,0.07701
2827.13505,0.07631
2829.06352,0.07215
2830.99199,0.06922
2832.92046,0.07001
2834.84893,0.07205
2836.77740,0.07337
2838.70587,0.07366
2840.63433,0.07569
2842.56280,0.07865
2844.49127,0.07774
2846.41974,0.07630
2848.34821,0.07807
2850.27668,0.07915
2852.20515,0.07758
2854.13362,0.07577
2856.06208,0.07577
2857.99055,0.07923
2859.91902,0.08353
2861.84749,0.08323
2863.77596,0.08028
2865.70443,0.07767
2867.63290,0.07504
2869.56136,0.07438
2871.48983,0.07520
2873.41830,0.07563
2875.34677,0.07729
2877.27524,0.07988
2879.20371,0.07953
2881.13218,0.07523
2883.06065,0.07124
2884.98911,0.07218
2886.91758,0.07675
2888.84605,0.08009
2890.77452,0.07996
2892.70299,0.07631
2894.63146,0.07271
2896.55993,0.07517
2898.48839,0.08045
2900.41686,0.07922
2902.34533,0.07326
2904.27380,0.06844
2906.20227,0.06493
2908.13074,0.06444
2910.05921,0.06650
2911.98768,0.06922
2913.91614,0.07374
2915.84461,0.07795
2917.77308,0.07851
2919.70155,0.07625
2921.63002,0.07425
2923.55849,0.07369
2925.48696,0.07289
2927.41542,0.07129
2929.34389,0.07121
2931.27236,0.07456
2933.20083,0.07804
2935.12930,0.07675
2937.05777,0.07496
2938.98624,0.07836
2940.91471,0.08124
2942.84317,0.07814
2944.77164,0.07345
2946.70011,0.07109
2948.62858,0.07064
2950.55705,0.07231
2952.48552,0.07586
2954.41399,0.07885
2956.34245,0.07846
2958.27092,0.07489
2960.19939,0.07260
2962.12786,0.07360
2964.05633,0.07378
2965.98480,0.07299
2967.91327,0.07600
2969.84174,0.08028
2971.77020,0.08037
2973.69867,0.07744
2975.62714,0.07581
2977.55561,0.07478
2979.48408,0.07112
2981.41255,0.06964
2983.34102,0.07293
2985.26948,0.07352
2987.19795,0.07120
2989.12642,0.07310
2991.05489,0.07808
2992.98336,0.08164
2994.91183,0.08288
2996.84030,0.08120
2998.76877,0.07936
3000.69723,0.07969
3002.62570,0.07883
3004.55417,0.07813
3006.48264,0.08142
3008.41111,0.08425
3010.33958,0.08250
3012.26805,0.07716
3014.19651,0.06917
3016.12498,0.06293
3018.05345,0.06451
3019.98192,0.07217
3021.91039,0.07770
3023.83886,0.07850
3025.76733,0.07815
3027.69579,0.07817
3029.62426,0.07778
3031.55273,0.07497
3033.48120,0.07202
3035.40967,0.07417
3037.33814,0.07839
3039.26661,0.07810
3041.19508,0.07367
3043.12354,0.07188
3045.05201,0.07500
3046.98048,0.07747
3048.90895,0.07630
3050.83742,0.07439
3052.76589,0.07496
3054.69436,0.07637
3056.62282,0.07653
3058.55129,0.07777
3060.47976,0.07898
3062.40823,0.07660
3064.33670,0.07304
3066.26517,0.07388
3068.19364,0.07902
3070.12211,0.08143
3072.05057,0.07791
3073.97904,0.07423
3075.90751,0.07373
3077.83598,0.07222
3079.76445,0.07040
3081.69292,0.07255
3083.62139,0.07484
3085.54985,0.07456
3087.47832,0.07647
3089.40679,0.08011
3091.33526,0.08105
3093.26373,0.08029
3095.19220,0.08027
3097.12067,0.08095
3099.04914,0.08149
3100.97760,0.08121
3102.90607,0.07989
3104.83454,0.08038
3106.76301,0.08246
3108.69148,0.08190
3110.61995,0.08082
3112.54842,0.07959
3114.47688,0.07670
3116.40535,0.07446
3118.33382,0.07288
3120.26229,0.07181
3122.19076,0.07157
3124.11923,0.07247
3126.04770,0.07483
3127.97617,0.07765
3129.90463,0.08017
3131.83310,0.08263
3133.76157,0.08447
3135.69004,0.08465
3137.61851,0.08469
3139.54698,0.08475
3141.47545,0.08369
3143.40391,0.08193
3145.33238,0.08035
3147.26085,0.07982
3149.18932,0.07971
3151.11779,0.07884
3153.04626,0.07955
3154.97473,0.08246
3156.90320,0.08187
3158.83166,0.07949
3160.76013,0.08027
3162.68860,0.07994
3164.61707,0.07719
3166.54554,0.07653
3168.47401,0.07989
3170.40248,0.08279
3172.33094,0.08075
3174.25941,0.07884
3176.18788,0.08066
3178.11635,0.08197
3180.04482,0.07946
3181.97329,0.07358
3183.90176,0.07148
3185.83022,0.07651
3187.75869,0.08047
3189.68716,0.08174
3191.61563,0.08217
3193.54410,0.07824
3195.47257,0.07282
3197.40104,0.07164
3199.32951,0.07418
3201.25797,0.07834
3203.18644,0.08226
3205.11491,0.08184
3207.04338,0.07802
3208.97185,0.07791
3210.90032,0.08197
3212.82879,0.08486
3214.75725,0.08443
3216.68572,0.08246
3218.61419,0.08014
3220.54266,0.07697
3222.47113,0.07616
3224.39960,0.07915
3226.32807,0.08184
3228.25654,0.08288
3230.18500,0.08351
3232.11347,0.08566
3234.04194,0.08670
3235.97041,0.08146
3237.89888,0.07580
3239.82735,0.07591
3241.75582,0.07836
3243.68428,0.07904
3245.61275,0.07859
3247.54122,0.08218
3249.46969,0.08740
3251.39816,0.08726
3253.32663,0.08556
3255.25510,0.08417
3257.18357,0.08053
3259.11203,0.07871
3261.04050,0.07745
3262.96897,0.07293
3264.89744,0.07080
3266.82591,0.07416
3268.75438,0.07710
3270.68285,0.07646
3272.61131,0.07648
3274.53978,0.07956
3276.46825,0.08227
3278.39672,0.08058
3280.32519,0.07536
3282.25366,0.07182
3284.18213,0.07323
3286.11060,0.07658
3288.03906,0.07861
3289.96753,0.08236
3291.89600,0.08743
3293.82447,0.08672
3295.75294,0.08013
3297.68141,0.07498
3299.60988,0.07258
3301.53834,0.07016
3303.46681,0.07008
3305.39528,0.07216
3307.32375,0.07300
3309.25222,0.07521
3311.18069,0.08051
3313.10916,0.08604
3315.03763,0.08974
3316.96609,0.08808
3318.89456,0.08355
3320.82303,0.08265
3322.75150,0.08194
3324.67997,0.08091
3326.60844,0.08392
3328.53691,0.08763
3330.46537,0.08765
3332.39384,0.08431
3334.32231,0.08032
3336.25078,0.07735
3338.17925,0.07748
3340.10772,0.08134
3342.03619,0.08375
3343.96466,0.08071
3345.89312,0.07799
3347.82159,0.08293
3349.75006,0.08893
3351.67853,0.08689
3353.60700,0.08048
3355.53547,0.07489
3357.46394,0.07198
3359.39240,0.07156
3361.32087,0.07014
3363.24934,0.07039
3365.17781,0.07638
3367.10628,0.08239
3369.03475,0.08549
3370.96322,0.08899
3372.89168,0.09030
3374.82015,0.08530
3376.74862,0.07797
3378.67709,0.07473
3380.60556,0.07636
3382.53403,0.08102
3384.46250,0.08715
3386.39097,0.09031
3388.31943,0.08597
3390.24790,0.07834
3392.17637,0.07555
3394.10484,0.07645
3396.03331,0.07512
3397.96178,0.07366
3399.89025,0.07641
3401.81871,0.08044
3403.74718,0.08239
3405.67565,0.08380
3407.60412,0.08450
3409.53259,0.08243
3411.46106,0.07901
3413.38953,0.07782
3415.31800,0.08074
3417.24646,0.08313
3419.17493,0.07985
3421.10340,0.07574
3423.03187,0.07680
3424.96034,0.08035
3426.88881,0.08016
3428.81728,0.07723
3430.74574,0.07772
3432.67421,0.07838
3434.60268,0.07592
3436.53115,0.07610
3438.45962,0.07821
3440.38809,0.07689
3442.31656,0.07415
3444.24503,0.07421
3446.17349,0.07799
3448.10196,0.08217
3450.03043,0.08316
3451.95890,0.08359
3453.88737,0.08320
3455.81584,0.07602
3457.74431,0.06476
3459.67277,0.05861
3461.60124,0.05919
3463.52971,0.06444
3465.45818,0.06881
3467.38665,0.06621
3469.31512,0.06381
3471.24359,0.07096
3473.17206,0.08344
3475.10052,0.08822
3477.02899,0.07871
3478.95746,0.06407
3480.88593,0.05533
3482.81440,0.05541
3484.74287,0.06203
3486.67134,0.06734
3488.59980,0.06677
3490.52827,0.06574
3492.45674,0.06559
3494.38521,0.06328
3496.31368,0.06379
3498.24215,0.07136
3500.17062,0.07746
3502.09909,0.07527
3504.02755,0.06988
3505.95602,0.06504
3507.88449,0.06058
3509.81296,0.05989
3511.74143,0.06492
3513.66990,0.06897
3515.59837,0.06643
3517.52683,0.06119
3519.45530,0.05739
3521.38377,0.05556
3523.31224,0.05762
3525.24071,0.06536
3527.16918,0.07258
3529.09765,0.07142
3531.02611,0.06649
3532.95458,0.06441
3534.88305,0.06399
3536.81152,0.06324
3538.73999,0.06181
3540.66846,0.06014
3542.59693,0.06154
3544.52540,0.06616
3546.45386,0.06697
3548.38233,0.06208
3550.31080,0.05761
3552.23927,0.05748
3554.16774,0.05827
3556.09621,0.05686
3558.02468,0.05737
3559.95314,0.06082
3561.88161,0.06356
3563.81008,0.06512
3565.73855,0.06302
3567.66702,0.05564
3569.59549,0.05405
3571.52396,0.05600
3573.45243,0.05496
3575.38089,0.05602
3577.30936,0.05988
3579.23783,0.05973
3581.16630,0.05534
3583.09477,0.05051
3585.02324,0.04924
3586.95171,0.05381
3588.88017,0.05688
3590.80864,0.05578
3592.73711,0.05564
3594.66558,0.05598
3596.59405,0.05591
3598.52252,0.05612
3600.45099,0.05560
3602.37946,0.05347
3604.30792,0.05192
3606.23639,0.05363
3608.16486,0.05669
3610.09333,0.05879
3612.02180,0.06039
3613.95027,0.05864
3615.87874,0.05845
3617.80720,0.06482
3619.73567,0.06681
3621.66414,0.05953
3623.59261,0.05260
3625.52108,0.05011
3627.44955,0.05357
3629.37802,0.05899
3631.30649,0.05735
3633.23495,0.05237
3635.16342,0.05087
3637.09189,0.05378
3639.02036,0.05545
3640.94883,0.05509
3642.87730,0.05453
3644.80577,0.05408
3646.73423,0.05695
3648.66270,0.06012
3650.59117,0.05389
3652.51964,0.04962
3654.44811,0.05006
3656.37658,0.05224
3658.30505,0.05388
3660.23352,0.05283
3662.16198,0.05202
3664.09045,0.05228
3666.01892,0.05194
3667.94739,0.05397
3669.87586,0.05855
3671.80433,0.05742
3673.73280,0.05168
3675.66126,0.04496
3677.58973,0.04195
3679.51820,0.04302
3681.44667,0.04313
3683.37514,0.04133
3685.30361,0.04231
3687.23208,0.04963
3689.16055,0.05933
3691.08901,0.06067
3693.01748,0.05617
3694.94595,0.05095
3696.87442,0.04728
3698.80289,0.04987
3700.73136,0.05691
3702.65983,0.05912
3704.58829,0.05609
3706.51676,0.05303
3708.44523,0.04702
3710.37370,0.03949
3712.30217,0.04056
3714.23064,0.04482
3716.15911,0.04605
3718.08757,0.04643
3720.01604,0.04894
3721.94451,0.05505
3723.87298,0.05809
3725.80145,0.05224
3727.72992,0.04371
3729.65839,0.03863
3731.58686,0.03931
3733.51532,0.04899
3735.44379,0.06056
3737.37226,0.05926
3739.30073,0.04973
3741.22920,0.04232
3743.15767,0.03753
3745.08614,0.03544
3747.01460,0.04205
3748.94307,0.05274
3750.87154,0.06114
3752.80001,0.06540
3754.72848,0.06773
3756.65695,0.06672
3758.58542,0.06142
3760.51389,0.05613
3762.44235,0.05224
3764.37082,0.04484
3766.29929,0.03860
3768.22776,0.04348
3770.15623,0.05296
3772.08470,0.05408
3774.01317,0.04849
3775.94163,0.04293
3777.87010,0.04009
3779.79857,0.04054
3781.72704,0.04228
3783.65551,0.04326
3785.58398,0.04389
3787.51245,0.04437
3789.44092,0.04707
3791.36938,0.05203
3793.29785,0.05490
3795.22632,0.05352
3797.15479,0.05077
3799.08326,0.05125
3801.01173,0.05244
3802.94020,0.05014
3804.86866,0.04841
3806.79713,0.04802
3808.72560,0.04508
3810.65407,0.03991
3812.58254,0.03704
3814.51101,0.04127
3816.43948,0.04769
3818.36795,0.04417
3820.29641,0.04119
3822.22488,0.04723
3824.15335,0.04904
3826.08182,0.04562
3828.01029,0.04311
3829.93876,0.04374
3831.86723,0.04672
3833.79569,0.05005
3835.72416,0.05169
3837.65263,0.05317
3839.58110,0.05451
3841.50957,0.05326
3843.43804,0.05104
3845.36651,0.04855
3847.29498,0.04615
3849.22344,0.04662
3851.15191,0.05190
3853.08038,0.05864
3855.00885,0.06018
3856.93732,0.05994
3858.86579,0.05826
3860.79426,0.05280
3862.72272,0.04477
3864.65119,0.04054
3866.57966,0.04328
3868.50813,0.04929
3870.43660,0.05375
3872.36507,0.05169
3874.29354,0.04662
3876.22200,0.04477
3878.15047,0.04606
3880.07894,0.04637
3882.00741,0.04484
3883.93588,0.04433
3885.86435,0.04610
3887.79282,0.04937
3889.72129,0.05151
3891.64975,0.05003
3893.57822,0.04600
3895.50669,0.04209
3897.43516,0.04124
3899.36363,0.04565
3901.29210,0.04770
3903.22057,0.04522
3905.14903,0.04541
3907.07750,0.04701
3909.00597,0.04687
3910.93444,0.04428
3912.86291,0.04252
3914.79138,0.04576
3916.71985,0.05140
3918.64832,0.05278
3920.57678,0.05016
3922.50525,0.04726
3924.43372,0.04667
3926.36219,0.05044
3928.29066,0.05493
3930.21913,0.05367
3932.14760,0.04495
3934.07606,0.03786
3936.00453,0.03726
3937.93300,0.03775
3939.86147,0.03964
3941.78994,0.04470
3943.71841,0.04524
3945.64688,0.04184
3947.57535,0.04504
3949.50381,0.05092
3951.43228,0.04849
3953.36075,0.04283
3955.28922,0.04153
3957.21769,0.04119
3959.14616,0.03897
3961.07463,0.03863
3963.00309,0.04081
3964.93156,0.04127
3966.86003,0.04084
3968.78850,0.04175
3970.71697,0.03951
3972.64544,0.03466
3974.57391,0.03413
3976.50238,0.03699
3978.43084,0.03778
3980.35931,0.03635
3982.28778,0.03438
3984.21625,0.03294
3986.14472,0.03519
3988.07319,0.04108
3990.00166,0.04461
3991.93012,0.04360
3993.85859,0.04284
3995.78706,0.04472
3997.71553,0.04546
3999.64400,0.04276
4001.57247,0.03972
4003.50094,0.04110
4005.42941,0.04387
4007.35787,0.03919
4009.28634,0.03297
4011.21481,0.03434
4013.14328,0.03593
4015.07175,0.03334
4017.00022,0.02906
4018.92869,0.02412
4020.85715,0.02285
4022.78562,0.02738
4024.71409,0.03503
4026.64256,0.04355
4028.57103,0.04801
4030.49950,0.04602
4032.42797,0.04387
4034.35644,0.04290
4036.28490,0.03939
4038.21337,0.03710
4040.14184,0.03806
4042.07031,0.03714
4043.99878,0.03370
4045.92725,0.03313
4047.85572,0.03507
4049.78418,0.03515
4051.71265,0.03405
4053.64112,0.03202
4055.56959,0.02813
4057.49806,0.02650
4059.42653,0.02872
4061.35500,0.02972
4063.28346,0.03108
4065.21193,0.03589
4067.14040,0.03794
4069.06887,0.03700
4070.99734,0.03898
4072.92581,0.04060
4074.85428,0.03655
4076.78275,0.03100
4078.71121,0.02936
4080.63968,0.02977
4082.56815,0.03019
4084.49662,0.03171
4086.42509,0.03598
4088.35356,0.04323
4090.28203,0.04955
4092.21049,0.05083
4094.13896,0.04703
4096.06743,0.04049
4097.99590,0.03535
4099.92437,0.03452
4101.85284,0.03592
4103.78131,0.03719
4105.70978,0.03958
4107.63824,0.04107
4109.56671,0.03776
4111.49518,0.03400
4113.42365,0.03569
4115.35212,0.03802
4117.28059,0.03449
4119.20906,0.02985
4121.13752,0.02973
4123.06599,0.03039
4124.99446,0.02895
4126.92293,0.02908
4128.85140,0.03297
4130.77987,0.03817
4132.70834,0.04233
4134.63681,0.04030
4136.56527,0.02941
4138.49374,0.02066
4140.42221,0.02278
4142.35068,0.03156
4144.27915,0.03886
4146.20762,0.03808
4148.13609,0.03135
4150.06455,0.02926
4151.99302,0.03274
4153.92149,0.03140
4155.84996,0.02534
4157.77843,0.02414
4159.70690,0.02889
4161.63537,0.03286
4163.56384,0.03370
4165.49230,0.03456
4167.42077,0.03493
4169.34924,0.03180
4171.27771,0.02927
4173.20618,0.03214
4175.13465,0.03305
4177.06312,0.02818
4178.99158,0.02530
4180.92005,0.02602
4182.84852,0.02556
4184.77699,0.02339
4186.70546,0.02390
4188.63393,0.02519
4190.56240,0.02103
4192.49087,0.01607
4194.41933,0.01848
4196.34780,0.02556
4198.27627,0.03036
4200.20474,0.03283
4202.13321,0.03321
4204.06168,0.03006
4205.99015,0.02557
4207.91861,0.02204
4209.84708,0.02068
4211.77555,0.02195
4213.70402,0.02415
4215.63249,0.02345
4217.56096,0.01830
4219.48943,0.01336
4221.41789,0.01479
4223.34636,0.02220
4225.27483,0.02957
4227.20330,0.02986
4229.13177,0.02188
4231.06024,0.01628
4232.98871,0.01983
4234.91718,0.02511
4236.84564,0.02409
4238.77411,0.01882
4240.70258,0.01718
4242.63105,0.02046
4244.55952,0.02134
4246.48799,0.01613
4248.41646,0.01147
4250.34492,0.01208
4252.27339,0.01559
4254.20186,0.01958
4256.13033,0.02421
4258.05880,0.02982
4259.98727,0.03290
4261.91574,0.03190
4263.84421,0.02915
4265.77267,0.02624
4267.70114,0.02453
4269.62961,0.02511
4271.55808,0.02799
4273.48655,0.03146
4275.41502,0.03415
4277.34349,0.03379
4279.27195,0.03025
4281.20042,0.02769
4283.12889,0.02465
4285.05736,0.02069
4286.98583,0.02052
4288.91430,0.02302
4290.84277,0.02335
4292.77124,0.02239
4294.69970,0.02462
4296.62817,0.02629
4298.55664,0.02449
4300.48511,0.02461
4302.41358,0.02790
4304.34205,0.03081
4306.27052,0.03038
4308.19898,0.02728
4310.12745,0.02518
4312.05592,0.02538
4313.98439,0.02339
4315.91286,0.01786
4317.84133,0.01641
4319.76980,0.01982
4321.69827,0.02041
4323.62673,0.01743
4325.55520,0.01540
4327.48367,0.01474
4329.41214,0.01721
4331.34061,0.02453
4333.26908,0.02980
4335.19755,0.02809
4337.12601,0.02262
4339.05448,0.01963
4340.98295,0.02032
4342.91142,0.02057
4344.83989,0.01848
4346.76836,0.01423
4348.69683,0.01054
4350.62530,0.01017
4352.55376,0.01280
4354.48223,0.01478
4356.41070,0.01365
4358.33917,0.01249
4360.26764,0.01193
4362.19611,0.00904
4364.12458,0.00329
4366.05304,-0.00033
4367.98151,0.00161
4369.90998,0.00426
4371.83845,0.00518
4373.76692,0.00701
4375.69539,0.00723
4377.62386,0.00383
4379.55232,0.00383
4381.48079,0.00809
4383.40926,0.01009
4385.33773,0.01164
4387.26620,0.01484
4389.19467,0.01711
4391.12314,0.01893
4393.05161,0.02114
4394.98007,0.02021
4396.90854,0.01612
4398.83701,0.01438
4400.76548,0.01251
4402.69395,0.00754
4404.62242,0.00516
4406.55089,0.00796
4408.47935,0.01266
4410.40782,0.01361
4412.33629,0.01000
4414.26476,0.00645
4416.19323,0.00397
4418.12170,0.00266
4420.05017,0.00157
4421.97864,0.00108
4423.90710,0.00635
4425.83557,0.01398
4427.76404,0.01491
4429.69251,0.00731
4431.62098,0.00091
4433.54945,0.00689
4435.47792,0.01755
4437.40638,0.02059
4439.33485,0.01401
4441.26332,0.00368
4443.19179,0.00265
4445.12026,0.01285
4447.04873,0.02165
4448.97720,0.01969
4450.90567,0.00975
4452.83413,0.00306
4454.76260,0.00238
4456.69107,0.00068
4458.61954,0.00072
4460.54801,0.00965
4462.47648,0.01704
4464.40495,0.00965
4466.33341,-0.00063
4468.26188,0.00344
4470.19035,0.01435
4472.11882,0.01891
4474.04729,0.01369
4475.97576,0.00588
4477.90423,0.01069
4479.83270,0.02042
4481.76116,0.01801
4483.68963,0.00728
4485.61810,-0.00105
4487.54657,0.00040
4489.47504,0.01021
4491.40351,0.01411
4493.33198,0.00617
4495.26044,0.00026
4497.18891,0.00344
4499.11738,0.00777
4501.04585,0.01003
4502.97432,0.01081
4504.90279,0.00492
4506.83126,-0.00424
4508.75973,-0.00581
4510.68819,-0.00131
4512.61666,0.00438
4514.54513,0.01108
4516.47360,0.01835
4518.40207,0.02340
4520.33054,0.01843
4522.25901,0.00602
4524.18747,0.00055
4526.11594,0.00177
4528.04441,0.00072
4529.97288,-0.00241
4531.90135,-0.00363
4533.82982,0.00087
4535.75829,0.00670
4537.68676,0.00910
4539.61522,0.01102
4541.54369,0.00651
4543.47216,-0.00589
4545.40063,-0.01383
4547.32910,-0.01164
4549.25757,-0.00363
4551.18604,0.00200
4553.11450,0.00354
4555.04297,0.00475
4556.97144,0.00310
4558.89991,-0.00199
4560.82838,-0.00621
4562.75685,-0.01014
4564.68532,-0.01042
4566.61378,-0.00382
4568.54225,-0.00257
4570.47072,-0.00816
4572.39919,-0.00795
4574.32766,-0.00287
4576.25613,-0.00162
4578.18460,-0.00526
4580.11307,-0.00593
4582.04153,0.00175
4583.97000,0.01279
4585.89847,0.02278
4587.82694,0.02560
4589.75541,0.01676
4591.68388,0.00309
4593.61235,-0.00751
4595.54081,-0.01049
4597.46928,-0.00577
4599.39775,0.00284
4601.32622,0.01035
4603.25469,0.01092
4605.18316,0.00567
4607.11163,0.00213
4609.04010,0.00306
4610.96856,0.00735
4612.89703,0.01264
4614.82550,0.01235
4616.75397,0.00659
4618.68244,0.00063
4620.61091,-0.00602
4622.53938,-0.01088
4624.46784,-0.01430
4626.39631,-0.01592
4628.32478,-0.00896
4630.25325,0.00044
4632.18172,0.00428
4634.11019,0.00915
4636.03866,0.01729
4637.96713,0.01804
4639.89559,0.01139
4641.82406,0.00915
4643.75253,0.00745
4645.68100,0.00074
4647.60947,-0.00404
4649.53794,-0.00497
4651.46641,-0.00286
4653.39487,-0.00220
4655.32334,-0.00589
4657.25181,-0.00603
4659.18028,-0.00346
4661.10875,-0.00732
4663.03722,-0.01232
4664.96569,-0.00602
4666.89416,0.00084
4668.82262,-0.00237
4670.75109,-0.00358
4672.67956,0.00010
4674.60803,0.00197
4676.53650,0.00248
4678.46497,-0.00203
4680.39344,-0.00793
4682.32190,-0.00438
4684.25037,0.00589
4686.17884,0.01752
4688.10731,0.02786
4690.03578,0.03136
4691.96425,0.02527
4693.89272,0.01388
4695.82119,0.00559
4697.74965,0.00199
4699.67812,0.00016
4701.60659,0.00024
4703.53506,0.00062
4705.46353,0.00340
4707.39200,0.00882
4709.32047,0.00704
4711.24893,-0.00017
4713.17740,-0.00222
4715.10587,-0.00061
4717.03434,0.00094
4718.96281,0.00205
4720.89128,-0.00052
4722.81975,-0.00864
4724.74821,-0.01279
4726.67668,-0.00545
4728.60515,0.00336
4730.53362,0.00680
4732.46209,0.01000
4734.39056,0.01390
4736.31903,0.01261
4738.24750,0.00968
4740.17596,0.01388
4742.10443,0.02043
4744.03290,0.02051
4745.96137,0.01225
4747.88984,0.00549
4749.81831,0.00757
4751.74678,0.01386
4753.67524,0.02273
4755.60371,0.02886
4757.53218,0.02734
4759.46065,0.02164
4761.38912,0.01509
4763.31759,0.01053
4765.24606,0.00404
4767.17453,-0.00661
4769.10299,-0.01190
4771.03146,-0.00640
4772.95993,0.00277
4774.88840,0.01194
4776.81687,0.02110
4778.74534,0.02201
4780.67381,0.01237
4782.60227,0.00121
4784.53074,-0.00240
4786.45921,0.00238
4788.38768,0.00509
4790.31615,0.00171
4792.24462,0.00076
4794.17309,0.00397
4796.10156,0.00760
4798.03002,0.00444
4799.95849,-0.00722
4801.88696,-0.01121
4803.81543,-0.00776
4805.74390,-0.01699
4807.67237,-0.02871
4809.60084,-0.02062
4811.52930,-0.00528
4813.45777,-0.00178
4815.38624,-0.00373
4817.31471,-0.00001
4819.24318,0.00877
4821.17165,0.01438
4823.10012,0.01104
4825.02859,0.00498
4826.95705,0.00340
4828.88552,0.00630
4830.81399,0.00792
4832.74246,0.00778
4834.67093,0.01367
4836.59940,0.02109
4838.52787,0.02187
4840.45633,0.02097
4842.38480,0.02110
4844.31327,0.01595
4846.24174,0.00656
4848.17021,0.00409
4850.09868,0.00842
4852.02715,0.01276
4853.95562,0.01273
4855.88408,0.00024
4857.81255,-0.01712
4859.74102,-0.02118
4861.66949,-0.00885
4863.59796,0.00883
4865.52643,0.01825
4867.45490,0.01191
4869.38336,-0.00258
4871.31183,-0.01311
4873.24030,-0.01684
4875.16877,-0.00602
4877.09724,0.01719
4879.02571,0.02702
4880.95418,0.01417
4882.88265,0.00262
4884.81111,0.01069
4886.73958,0.02347
4888.66805,0.02186
4890.59652,0.01505
4892.52499,0.01286
4894.45346,0.01114
4896.38193,0.00730
4898.31039,0.00077
4900.23886,-0.00660
4902.16733,-0.00502
4904.09580,0.00917
4906.02427,0.02078
4907.95274,0.01718
4909.88121,0.00598
4911.80967,0.00144
4913.73814,0.00426
4915.66661,0.01196
4917.59508,0.02077
4919.52355,0.02548
4921.45202,0.03140
4923.38049,0.03591
4925.30896,0.02598
4927.23742,0.00869
4929.16589,0.00122
4931.09436,-0.00028
4933.02283,-0.00410
4934.95130,-0.00345
4936.87977,0.00140
4938.80824,-0.00411
4940.73670,-0.01775
4942.66517,-0.01461
4944.59364,0.00477
4946.52211,0.01936
4948.45058,0.02745
4950.37905,0.03654
4952.30752,0.03509
4954.23599,0.01526
4956.16445,0.00056
4958.09292,0.00590
4960.02139,0.01167
4961.94986,0.00026
4963.87833,-0.01724
4965.80680,-0.02047
4967.73527,-0.00896
4969.66373,-0.00262
4971.59220,-0.00743
4973.52067,-0.00731
4975.44914,0.00208
4977.37761,0.00817
4979.30608,0.00190
4981.23455,-0.00383
4983.16302,0.00811
4985.09148,0.02501
4987.01995,0.02751
4988.94842,0.01547
4990.87689,-0.00070
4992.80536,-0.00957
4994.73383,-0.00801
4996.66230,-0.00172
4998.59076,-0.00325
5000.51923,-0.01128
5002.44770,-0.00698
5004.37617,0.00751
5006.30464,0.01215
5008.23311,0.01125
5010.16158,0.01633
5012.09005,0.01393
5014.01851,-0.00030
5015.94698,-0.00851
5017.87545,-0.00286
5019.80392,0.00892
5021.73239,0.01324
5023.66086,0.01065
5025.58933,0.01257
5027.51779,0.01875
5029.44626,0.01422
5031.37473,-0.00232
5033.30320,-0.01118
5035.23167,-0.01123
5037.16014,-0.01243
5039.08861,-0.01260
5041.01708,-0.00331
5042.94554,0.01180
5044.87401,0.01242
5046.80248,-0.00234
5048.73095,-0.01036
5050.65942,-0.00154
5052.58789,0.01200
5054.51636,0.01792
5056.44482,0.01848
5058.37329,0.01414
5060.30176,0.00607
5062.23023,0.00682
5064.15870,0.01977
5066.08717,0.03284
5068.01564,0.03363
5069.94410,0.02157
5071.87257,0.01011
5073.80104,0.00664
5075.72951,0.00797
5077.65798,0.01193
5079.58645,0.00775
5081.51492,-0.01085
5083.44339,-0.01981
5085.37185,-0.00151
5087.30032,0.01233
5089.22879,0.00115
5091.15726,0.00202
5093.08573,0.02811
5095.01420,0.04261
5096.94267,0.02757
5098.87113,0.00580
5100.79960,0.00019
5102.72807,0.00134
5104.65654,-0.00162
5106.58501,0.00624
5108.51348,0.03154
5110.44195,0.05141
5112.37042,0.04597
5114.29888,0.02803
5116.22735,0.02143
5118.15582,0.02017
5120.08429,0.00984
5122.01276,0.00438
5123.94123,0.01690
5125.86970,0.03781
5127.79816,0.05167
5129.72663,0.05451
5131.65510,0.05196
5133.58357,0.04323
5135.51204,0.03200
5137.44051,0.02526
5139.36898,0.01987
5141.29745,0.01775
5143.22591,0.02293
5145.15438,0.02791
5147.08285,0.03387
5149.01132,0.04784
5150.93979,0.05161
5152.86826,0.03239
5154.79673,0.01296
5156.72519,0.01232
5158.65366,0.01895
5160.58213,0.01731
5162.51060,0.01028
5164.43907,0.00909
5166.36754,0.01332
5168.29601,0.00707
5170.22448,-0.00391
5172.15294,0.00354
5174.08141,0.01248
5176.00988,0.00068
5177.93835,-0.01679
5179.86682,-0.01811
5181.79529,0.00409
5183.72376,0.03021
5185.65222,0.02630
5187.58069,-0.00505
5189.50916,-0.01990
5191.43763,0.00046
5193.36610,0.02410
5195.29457,0.02969
5197.22304,0.03330
5199.15151,0.03803
5201.07997,0.03545
5203.00844,0.03113
5204.93691,0.02072
5206.86538,0.01086
5208.79385,0.02738
5210.72232,0.04601
5212.65079,0.03979
5214.57925,0.02460
5216.50772,0.02105
5218.43619,0.02807
5220.36466,0.02870
5222.29313,0.02191
5224.22160,0.01752
5226.15007,0.00856
5228.07854,-0.00998
5230.00700,-0.01753
5231.93547,-0.00457
5233.86394,0.01156
5235.79241,0.02043
5237.72088,0.02477
5239.64935,0.02700
5241.57782,0.02615
5243.50628,0.02426
5245.43475,0.02004
5247.36322,0.02046
5249.29169,0.03394
5251.22016,0.03981
5253.14863,0.03926
5255.07710,0.03496
5257.00556,0.01869
5258.93403,0.01401
5260.86250,0.02781
5262.79097,0.04021
5264.71944,0.04450
5266.64791,0.04305
5268.57638,0.02845
5270.50485,0.01050
5272.43331,0.01240
5274.36178,0.02432
5276.29025,0.02551
5278.21872,0.01447
5280.14719,0.00272
5282.07566,-0.00726
5284.00413,-0.02091
5285.93259,-0.03292
5287.86106,-0.04258
5289.78953,-0.04482
5291.71800,-0.02738
5293.64647,0.00361
5295.57494,0.03168
5297.50341,0.03516
5299.43188,0.01647
5301.36034,0.00507
5303.28881,0.01075
5305.21728,0.02235
5307.14575,0.02789
5309.07422,0.02739
5311.00269,0.02906
5312.93116,0.02969
5314.85962,0.02064
5316.78809,0.00468
5318.71656,0.00102
5320.64503,0.01817
5322.57350,0.03579
5324.50197,0.03689
5326.43044,0.02061
5328.35891,0.00027
5330.28737,-0.00336
5332.21584,-0.00113
5334.14431,0.00350
5336.07278,0.01720
5338.00125,0.01394
5339.92972,-0.00974
5341.85819,-0.02731
5343.78665,-0.02103
5345.71512,0.00975
5347.64359,0.03622
5349.57206,0.05459
5351.50053,0.06788
5353.42900,0.06103
5355.35747,0.03248
5357.28594,0.01143
5359.21440,0.00743
5361.14287,0.00200
5363.07134,-0.00579
5364.99981,-0.00256
5366.92828,-0.00101
5368.85675,-0.00870
5370.78522,-0.01285
5372.71368,-0.00676
5374.64215,0.00795
5376.57062,0.02418
5378.49909,0.04645
5380.42756,0.07207
5382.35603,0.08206
5384.28450,0.06642
5386.21297,0.04105
5388.14143,0.03626
5390.06990,0.03885
5391.99837,0.03355
5393.92684,0.03521
5395.85531,0.03622
5397.78378,0.02934
5399.71225,0.04106
5401.64071,0.06190
5403.56918,0.05221
5405.49765,0.02148
5407.42612,0.00703
5409.35459,0.01489
5411.28306,0.02128
5413.21153,0.01028
5415.13999,0.00044
5417.06846,0.00968
5418.99693,0.03165
5420.92540,0.04794
5422.85387,0.04900
5424.78234,0.03493
5426.71081,0.01072
5428.63928,0.00056
5430.56774,0.02690
5432.49621,0.06699
5434.42468,0.07644
5436.35315,0.04707
5438.28162,0.02197
5440.21009,0.02385
5442.13856,0.03448
5444.06702,0.03948
5445.99549,0.03948
5447.92396,0.02326
5449.85243,0.00489
5451.78090,-0.00033
5453.70937,-0.00520
5455.63784,0.00368
5457.56631,0.04259
5459.49477,0.07479
5461.42324,0.06986
5463.35171,0.04774
5465.28018,0.03638
5467.20865,0.04193
5469.13712,0.05765
5471.06559,0.06848
5472.99405,0.06601
5474.92252,0.05223
5476.85099,0.03726
5478.77946,0.02552
5480.70793,0.00884
5482.63640,-0.00230
5484.56487,-0.00299
5486.49334,-0.00836
5488.42180,-0.01578
5490.35027,-0.02580
5492.27874,-0.04224
5494.20721,-0.04497
5496.13568,-0.02910
5498.06415,-0.01027
5499.99262,0.00856
5501.92108,0.03409
5503.84955,0.04598
5505.77802,0.02511
5507.70649,0.00242
5509.63496,0.00783
5511.56343,0.02368
5513.49190,0.03505
5515.42037,0.05141
5517.34883,0.05811
5519.27730,0.04001
5521.20577,0.02221
5523.13424,0.02345
5525.06271,0.05124
5526.99118,0.08415
5528.91965,0.07712
5530.84811,0.03876
5532.77658,0.01660
5534.70505,0.02619
5536.63352,0.04948
5538.56199,0.06742
5540.49046,0.07442
5542.41893,0.06744
5544.34740,0.04451
5546.27586,0.01703
5548.20433,0.00690
5550.13280,0.01118
5552.06127,0.01639
5553.98974,0.01374
5555.91821,-0.01198
5557.84668,-0.04234
5559.77514,-0.04118
5561.70361,-0.01502
5563.63208,0.01334
5565.56055,0.02831
5567.48902,0.01873
5569.41749,0.01255
5571.34596,0.04206
5573.27443,0.07246
5575.20289,0.06715
5577.13136,0.06005
5579.05983,0.07155
5580.98830,0.07655
5582.91677,0.06011
5584.84524,0.03434
5586.77371,0.02873
5588.70217,0.04869
5590.63064,0.05253
5592.55911,0.03754
5594.48758,0.04185
5596.41605,0.05489
5598.34452,0.04767
5600.27299,0.03098
5602.20145,0.02771
5604.12992,0.04307
5606.05839,0.05065
5607.98686,0.03593
5609.91533,0.03288
5611.84380,0.05100
5613.77227,0.06657
5615.70074,0.07716
5617.62920,0.08226
5619.55767,0.07877
5621.48614,0.07524
5623.41461,0.07523
5625.34308,0.07115
5627.27155,0.05052
5629.20002,0.01325
5631.12848,-0.02032
5633.05695,-0.03740
5634.98542,-0.03303
5636.91389,-0.00427
5638.84236,0.02649
5640.77083,0.02849
5642.69930,0.00844
5644.62777,-0.00737
5646.55623,-0.01646
5648.48470,-0.02186
5650.41317,-0.01738
5652.34164,-0.00824
5654.27011,-0.00060
5656.19858,0.01196
5658.12705,0.03587
5660.05551,0.05281
5661.98398,0.03946
5663.91245,0.01663
5665.84092,0.01654
5667.76939,0.02815
5669.69786,0.02279
5671.62633,0.00509
5673.55480,0.00445
5675.48326,0.02454
5677.41173,0.04286
5679.34020,0.06128
5681.26867,0.08450
5683.19714,0.08462
5685.12561,0.05422
5687.05408,0.00972
5688.98254,-0.02292
5690.91101,-0.01028
5692.83948,0.03172
5694.76795,0.05041
5696.69642,0.03557
5698.62489,0.02483
5700.55336,0.02860
5702.48183,0.03324
5704.41029,0.04346
5706.33876,0.05120
5708.26723,0.04307
5710.19570,0.02634
5712.12417,0.01673
5714.05264,0.02968
5715.98111,0.06286
5717.90957,0.09579
5719.83804,0.10658
5721.76651,0.07943
5723.69498,0.03075
5725.62345,0.00257
5727.55192,-0.00320
5729.48039,-0.00901
5731.40886,-0.01199
5733.33732,-0.02308
5735.26579,-0.04549
5737.19426,-0.03732
5739.12273,0.01208
5741.05120,0.06503
5742.97967,0.08751
5744.90814,0.07180
5746.83660,0.02617
5748.76507,-0.02456
5750.69354,-0.02581
5752.62201,0.01487
5754.55048,0.02876
5756.47895,0.02527
5758.40742,0.04356
5760.33588,0.06548
5762.26435,0.05829
5764.19282,0.03757
5766.12129,0.03483
5768.04976,0.04550
5769.97823,0.04833
5771.90670,0.03651
5773.83517,0.02562
5775.76363,0.01600
5777.69210,-0.00777
5779.62057,-0.01861
5781.54904,0.01674
5783.47751,0.05413
5785.40598,0.05573
5787.33445,0.04557
5789.26291,0.03840
5791.19138,0.03935
5793.11985,0.03976
5795.04832,0.03007
5796.97679,0.01955
5798.90526,0.01640
5800.83373,0.03439
5802.76220,0.05537
5804.69066,0.04689
5806.61913,0.03193
5808.54760,0.03613
5810.47607,0.03289
5812.40454,0.01750
5814.33301,0.03177
5816.26148,0.07229
5818.18994,0.08173
5820.11841,0.03372
5822.04688,-0.01219
5823.97535,0.00118
5825.90382,0.03123
5827.83229,0.03895
5829.76076,0.04034
5831.68923,0.03530
5833.61769,0.02864
5835.54616,0.03911
5837.47463,0.04501
5839.40310,0.03464
5841.33157,0.03297
5843.26004,0.04983
5845.18851,0.05503
5847.11697,0.01932
5849.04544,-0.01086
5850.97391,0.01872
5852.90238,0.04991
5854.83085,0.04177
5856.75932,0.02778
5858.68779,0.02268
5860.61626,0.02551
5862.54472,0.03083
5864.47319,0.03002
5866.40166,0.03439
5868.33013,0.02757
5870.25860,0.01929
5872.18707,0.05853
5874.11554,0.11119
5876.04400,0.10690
5877.97247,0.05491
5879.90094,0.01973
5881.82941,0.04387
5883.75788,0.08732
5885.68635,0.09604
5887.61482,0.08761
5889.54329,0.06143
5891.47175,-0.00092
5893.40022,-0.04499
5895.32869,-0.03396
5897.25716,-0.01528
5899.18563,-0.01232
5901.11410,0.00896
5903.04257,0.01901
5904.97103,-0.01669
5906.89950,-0.03563
5908.82797,0.00187
5910.75644,0.05778
5912.68491,0.09233
5914.61338,0.08118
5916.54185,0.02434
5918.47032,-0.02085
5920.39878,-0.00603
5922.32725,0.03488
5924.25572,0.04854
5926.18419,0.03283
5928.11266,0.03715
5930.04113,0.07440
5931.96960,0.09728
5933.89806,0.09114
5935.82653,0.08333
5937.75500,0.08146
5939.68347,0.07412
5941.61194,0.05882
5943.54041,0.04495
5945.46888,0.05456
5947.39734,0.09470
5949.32581,0.11185
5951.25428,0.07988
5953.18275,0.06365
5955.11122,0.08210
5957.03969,0.09741
5958.96816,0.10161
5960.89663,0.10407
5962.82509,0.08895
5964.75356,0.06571
5966.68203,0.06331
5968.61050,0.04777
5970.53897,-0.01722
5972.46744,-0.08996
5974.39591,-0.09449
5976.32437,-0.02926
5978.25284,0.03317
5980.18131,0.07660
5982.10978,0.11525
5984.03825,0.11617
5985.96672,0.08356
5987.89519,0.05590
5989.82366,0.02686
5991.75212,0.02050
5993.68059,0.04322
5995.60906,0.04932
5997.53753,0.04197
5999.46600,0.04315
6001.39447,0.06177
6003.32294,0.07878
6005.25140,0.07613
6007.17987,0.07983
6009.10834,0.08053
6011.03681,0.06117
6012.96528,0.04760
6014.89375,0.05920
6016.82222,0.08044
6018.75069,0.08399
6020.67915,0.06925
6022.60762,0.04490
6024.53609,0.02177
6026.46456,0.02287
6028.39303,0.05976
6030.32150,0.09617
6032.24997,0.09247
6034.17843,0.08238
6036.10690,0.08937
6038.03537,0.07083
6039.96384,0.03879
6041.89231,0.04875
6043.82078,0.09013
6045.74925,0.10524
6047.67772,0.06880
6049.60618,0.01659
6051.53465,0.01645
6053.46312,0.05294
6055.39159,0.04847
6057.32006,0.01036
6059.24853,0.01441
6061.17700,0.05817
6063.10546,0.07897
6065.03393,0.06698
6066.96240,0.05620
6068.89087,0.05296
6070.81934,0.04599
6072.74781,0.02440
6074.67628,0.00687
6076.60475,0.01263
6078.53321,0.01432
6080.46168,0.00082
6082.39015,-0.00328
6084.31862,0.01891
6086.24709,0.04979
6088.17556,0.06610
6090.10403,0.05888
6092.03249,0.02526
6093.96096,-0.00365
6095.88943,-0.01169
6097.81790,-0.00110
6099.74637,0.02119
6101.67484,0.01578
6103.60331,-0.00064
6105.53177,0.01661
6107.46024,0.02981
6109.38871,0.00341
6111.31718,-0.00117
6113.24565,0.03196
6115.17412,0.03459
6117.10259,0.02657
6119.03106,0.07463
6120.95952,0.10730
6122.88799,0.06251
6124.81646,0.02882
6126.74493,0.06016
6128.67340,0.08935
6130.60187,0.04594
6132.53034,-0.04885
6134.45880,-0.09789
6136.38727,-0.04872
6138.31574,0.03861
6140.24421,0.08891
6142.17268,0.07237
6144.10115,0.00101
6146.02962,-0.05166
6147.95809,-0.04630
6149.88655,-0.02317
6151.81502,-0.00171
6153.74349,0.02228
6155.67196,0.02350
6157.60043,0.01773
6159.52890,0.02533
6161.45737,0.02319
6163.38583,0.01896
6165.31430,0.03974
6167.24277,0.07215
6169.17124,0.07181
6171.09971,0.04521
6173.02818,0.05559
6174.95665,0.07886
6176.88512,0.05255
6178.81358,0.00594
6180.74205,-0.00222
6182.67052,0.02443
6184.59899,0.03496
6186.52746,0.00137
6188.45593,-0.04963
6190.38440,-0.03459
6192.31286,0.04751
6194.24133,0.07138
6196.16980,0.02639
6198.09827,0.02536
6200.02674,0.06483
6201.95521,0.07409
6203.88368,0.05235
6205.81215,0.05390
6207.74061,0.07386
6209.66908,0.07159
6211.59755,0.07294
6213.52602,0.08685
6215.45449,0.08034
6217.38296,0.06730
6219.31143,0.09167
6221.23989,0.13275
6223.16836,0.10193
6225.09683,-0.00941
6227.02530,-0.08449
6228.95377,-0.04816
6230.88224,0.02199
6232.81071,-0.00171
6234.73918,-0.06409
6236.66764,-0.03744
6238.59611,0.03309
6240.52458,0.04768
6242.45305,0.03430
6244.38152,0.04321
6246.30999,0.04118
6248.23846,0.00974
6250.16692,-0.00839
6252.09539,0.02126
6254.02386,0.06085
6255.95233,0.07590
6257.88080,0.05251
6259.80927,0.00472
6261.73774,-0.03792
6263.66621,-0.06072
6265.59467,-0.02290
6267.52314,0.03428
6269.45161,0.02036
6271.38008,-0.01576
6273.30855,0.01329
6275.23702,0.08027
6277.16549,0.09876
6279.09395,0.11459
6281.02242,0.16735
6282.95089,0.19148
6284.87936,0.14976
6286.80783,0.08537
6288.73630,0.03054
6290.66477,-0.04748
6292.59323,-0.11218
6294.52170,-0.07046
6296.45017,0.02139
6298.37864,0.02397
6300.30711,-0.07832
6302.23558,-0.12166
6304.16405,-0.01072
6306.09252,0.09124
6308.02098,0.07239
6309.94945,0.01381
6311.87792,-0.01104
6313.80639,-0.02039
6315.73486,-0.02336
6317.66333,0.00554
6319.59180,0.03725
6321.52026,0.03281
6323.44873,0.04013
6325.37720,0.05583
6327.30567,0.00714
6329.23414,-0.06616
6331.16261,-0.05476
6333.09108,0.02179
6335.01955,0.09021
6336.94801,0.13927
6338.87648,0.13687
6340.80495,0.07826
6342.73342,0.02141
6344.66189,-0.01337
6346.59036,-0.00342
6348.51883,0.03940
6350.44729,0.05104
6352.37576,0.03869
6354.30423,0.03546
6356.23270,0.04869
6358.16117,0.06758
6360.08964,0.05653
6362.01811,0.01846
6363.94658,0.00234
6365.87504,0.03661
6367.80351,0.07367
6369.73198,0.08224
6371.66045,0.09230
6373.58892,0.09996
6375.51739,0.09423
6377.44586,0.07951
6379.37432,0.06267
6381.30279,0.06575
6383.23126,0.08531
6385.15973,0.06280
6387.08820,-0.00020
6389.01667,-0.01740
6390.94514,0.01199
6392.87361,-0.01934
6394.80207,-0.09790
6396.73054,-0.11991
6398.65901,-0.08043
6400.58748,0.02772
6402.51595,0.15422
6404.44442,0.18129
6406.37289,0.11011
6408.30135,0.07147
6410.22982,0.07531
6412.15829,0.01799
6414.08676,-0.03826
6416.01523,-0.00272
6417.94370,0.06565
6419.87217,0.07518
6421.80064,0.06214
6423.72910,0.07282
6425.65757,0.07639
6427.58604,0.07969
6429.51451,0.09768
6431.44298,0.09286
6433.37145,0.06516
6435.29992,0.03702
6437.22838,-0.01468
6439.15685,-0.07948
6441.08532,-0.10149
6443.01379,-0.05979
6444.94226,0.01164
6446.87073,0.05868
6448.79920,0.08216
6450.72766,0.07699
6452.65613,0.03558
6454.58460,-0.00213
6456.51307,-0.01539
6458.44154,-0.02369
6460.37001,-0.04869
6462.29848,-0.06236
6464.22695,-0.02603
6466.15541,0.04283
6468.08388,0.10277
6470.01235,0.11529
6471.94082,0.08959
6473.86929,0.08961
6475.79776,0.10754
6477.72623,0.07710
6479.65469,0.02698
6481.58316,0.02315
6483.51163,0.05951
6485.44010,0.08371
6487.36857,0.05743
6489.29704,0.00035
6491.22551,-0.04201
6493.15398,-0.06331
6495.08244,-0.06319
6497.01091,-0.03881
6498.93938,-0.00078
6500.86785,0.04858
6502.79632,0.09968
6504.72479,0.11610
6506.65326,0.09299
6508.58172,0.08481
6510.51019,0.08975
6512.43866,0.03494
6514.36713,-0.03001
6516.29560,-0.02370
6518.22407,-0.01389
6520.15254,-0.04342
6522.08101,-0.03805
6524.00947,0.01848
6525.93794,0.05559
6527.86641,0.06175
6529.79488,0.07027
6531.72335,0.06419
6533.65182,0.01924
6535.58029,-0.00951
6537.50875,0.06198
6539.43722,0.16562
6541.36569,0.15406
6543.29416,0.08961
6545.22263,0.09373
6547.15110,0.12736
6549.07957,0.14939
6551.00804,0.13790
6552.93650,0.07024
6554.86497,-0.01540
6556.79344,-0.04507
6558.72191,-0.00203
6560.65038,0.06167
6562.57885,0.10532
6564.50732,0.09416
6566.43578,0.02519
6568.36425,-0.01685
6570.29272,-0.00714
6572.22119,-0.00325
6574.14966,-0.01988
6576.07813,-0.04624
6578.00660,-0.07524
6579.93507,-0.07987
6581.86353,-0.07016
6583.79200,-0.07830
6585.72047,-0.09183
6587.64894,-0.07151
6589.57741,-0.00779
6591.50588,0.06946
6593.43435,0.12527
6595.36281,0.13629
6597.29128,0.16082
6599.21975,0.22138
6601.14822,0.19021
6603.07669,0.06763
6605.00516,0.02829
6606.93363,0.08525
6608.86210,0.14088
6610.79056,0.10920
6612.71903,-0.01084
6614.64750,-0.09292
6616.57597,-0.05351
6618.50444,0.01633
6620.43291,0.00341
6622.36138,-0.03829
6624.28984,0.01395
6626.21831,0.10659
6628.14678,0.08099
6630.07525,-0.02566
6632.00372,-0.02580
6633.93219,0.09751
6635.86066,0.16632
6637.78912,0.06831
6639.71759,-0.05497
6641.64606,-0.07771
6643.57453,-0.03247
6645.50300,0.03931
6647.43147,0.10203
6649.35994,0.11565
6651.28841,0.08016
6653.21687,0.02977
6655.14534,0.00677
6657.07381,0.01169
6659.00228,0.00949
6660.93075,0.00159
6662.85922,-0.04354
6664.78769,-0.10975
6666.71615,-0.08467
6668.64462,0.01719
6670.57309,0.09106
6672.50156,0.10046
6674.43003,0.02839
6676.35850,-0.08997
6678.28697,-0.14490
6680.21544,-0.08480
6682.14390,-0.00422
6684.07237,0.01019
6686.00084,-0.01120
6687.92931,-0.03268
6689.85778,-0.05924
6691.78625,-0.04198
6693.71472,0.04383
6695.64318,0.11179
6697.57165,0.08940
6699.50012,0.05348
6701.42859,0.04962
6703.35706,0.03254
6705.28553,0.01251
6707.21400,0.04435
6709.14247,0.07452
6711.07093,0.03892
6712.99940,0.01016
6714.92787,0.01716
6716.85634,0.02951
6718.78481,0.05927
6720.71328,0.05742
6722.64175,-0.02638
6724.57021,-0.10943
6726.49868,-0.09884
6728.42715,-0.00507
6730.35562,0.07543
6732.28409,0.09839
6734.21256,0.10381
6736.14103,0.12903
6738.06950,0.19272
6739.99796,0.21138
6741.92643,0.13048
6743.85490,0.09444
6745.78337,0.15817
6747.71184,0.20944
6749.64031,0.14926
6751.56878,0.03664
6753.49724,0.01074
6755.42571,0.03813
6757.35418,0.02068
6759.28265,0.02331
6761.21112,0.08128
6763.13959,0.07673
6765.06806,0.01664
6766.99653,-0.02470
6768.92499,-0.06030
6770.85346,-0.05531
6772.78193,0.00870
6774.71040,0.03999
6776.63887,0.05411
6778.56734,0.11928
6780.49581,0.15771
6782.42427,0.11102
6784.35274,0.03545
6786.28121,-0.01947
6788.20968,-0.01792
6790.13815,0.06562
6792.06662,0.13877
6793.99509,0.11044
6795.92355,0.06256
6797.85202,0.07353
6799.78049,0.09850
6801.70896,0.09465
6803.63743,0.12384
6805.56590,0.16744
6807.49437,0.14195
6809.42284,0.06891
6811.35130,-0.01548
6813.27977,-0.05641
6815.20824,-0.01313
6817.13671,0.02507
6819.06518,-0.02202
6820.99365,-0.07310
6822.92212,-0.04058
6824.85058,0.03491
6826.77905,0.07532
6828.70752,0.06342
6830.63599,0.04965
6832.56446,0.10017
6834.49293,0.18143
6836.42140,0.18954
6838.34987,0.09725
6840.27833,-0.03058
6842.20680,-0.11823
6844.13527,-0.08751
6846.06374,0.02894
6847.99221,0.10766
6849.92068,0.08607
6851.84915,0.01218
6853.77761,-0.08297
6855.70608,-0.16486
6857.63455,-0.11582
6859.56302,0.00665
6861.49149,0.05942
6863.41996,0.05560
6865.34843,0.10974
6867.27690,0.17577
6869.20536,0.12659
6871.13383,0.00022
6873.06230,-0.10488
6874.99077,-0.13972
6876.91924,-0.10257
6878.84771,-0.01518
6880.77618,0.06909
6882.70464,0.10245
6884.63311,0.09632
6886.56158,0.10865
6888.49005,0.12304
6890.41852,0.09708
6892.34699,0.07330
6894.27546,0.06531
6896.20393,0.02593
6898.13239,0.01207
6900.06086,0.08324
6901.98933,0.12959
6903.91780,0.13879
6905.84627,0.20404
6907.77474,0.21733
6909.70321,0.12285
6911.63167,0.07657
6913.56014,0.13278
6915.48861,0.20005
6917.41708,0.24336
6919.34555,0.25616
6921.27402,0.19875
6923.20249,0.09635
6925.13096,0.01107
6927.05942,-0.03169
6928.98789,-0.05009
6930.91636,-0.05149
6932.84483,0.00465
6934.77330,0.09011
6936.70177,0.15664
6938.63024,0.19864
6940.55870,0.17818
6942.48717,0.10167
6944.41564,0.04468
6946.34411,0.07828
6948.27258,0.19257
6950.20105,0.25224
6952.12952,0.18899
6954.05799,0.02895
6955.98645,-0.06803
6957.91492,0.05595
6959.84339,0.20779
6961.77186,0.17907
6963.70033,0.08939
6965.62880,0.07732
6967.55727,0.08254
6969.48573,0.05159
6971.41420,0.03963
6973.34267,0.03073
6975.27114,-0.02617
6977.19961,-0.07553
6979.12808,-0.13528
6981.05655,-0.19049
6982.98501,-0.11903
6984.91348,0.03656
6986.84195,0.09540
6988.77042,0.06935
6990.69889,0.09017
6992.62736,0.10984
6994.55583,0.08029
6996.48430,0.10159
6998.41276,0.17960
7000.34123,0.17077
7002.26970,0.03944
7004.19817,-0.08520
7006.12664,-0.14652
7008.05511,-0.14312
7009.98358,-0.08804
7011.91204,-0.04382
7013.84051,0.00605
7015.76898,0.07938
7017.69745,0.08965
7019.62592,0.04270
7021.55439,-0.03586
7023.48286,-0.14272
7025.41133,-0.12335
7027.33979,0.09325
7029.26826,0.29743
7031.19673,0.34532
7033.12520,0.32660
7035.05367,0.27295
7036.98214,0.20487
7038.91061,0.12769
7040.83907,0.07246
7042.76754,0.10819
7044.69601,0.16608
7046.62448,0.12087
7048.55295,0.05808
7050.48142,0.03963
7052.40989,-0.00749
7054.33836,-0.07132
7056.26682,-0.07979
7058.19529,-0.01129
7060.12376,0.07330
7062.05223,0.12619
7063.98070,0.13130
7065.90917,0.04942
7067.83764,-0.05196
7069.76610,-0.03646
7071.69457,0.03678
7073.62304,0.02959
7075.55151,0.04243
7077.47998,0.13334
7079.40845,0.19246
7081.33692,0.11950
7083.26539,0.07928
7085.19385,0.15617
7087.12232,0.19532
7089.05079,0.10388
7090.97926,-0.00423
7092.90773,0.00572
7094.83620,0.08320
7096.76467,0.13065
7098.69313,0.15800
7100.62160,0.10544
7102.55007,-0.02727
7104.47854,-0.06744
7106.40701,0.03755
7108.33548,0.10015
7110.26395,0.10053
7112.19242,0.06397
7114.12088,-0.04774
7116.04935,-0.12507
7117.97782,-0.11637
7119.90629,-0.06363
7121.83476,0.10547
7123.76323,0.26492
7125.69170,0.20841
7127.62016,0.03121
7129.54863,-0.02990
7131.47710,0.04211
7133.40557,0.07522
7135.33404,0.02716
7137.26251,-0.00733
7139.19098,-0.01192
7141.11944,0.00770
7143.04791,0.03150
7144.97638,-0.01676
7146.90485,-0.04722
7148.83332,0.04459
7150.76179,0.07954
7152.69026,-0.03855
7154.61873,-0.11913
7156.54719,-0.04496
7158.47566,0.03812
7160.40413,-0.00006
7162.33260,-0.09809
7164.26107,-0.08401
7166.18954,0.07336
7168.11801,0.22353
7170.04647,0.26819
7171.97494,0.25159
7173.90341,0.24053
7175.83188,0.19191
7177.76035,0.10759
7179.68882,0.07738
7181.61729,0.02959
7183.54576,-0.04695
7185.47422,0.01276
7187.40269,0.10715
7189.33116,0.10699
7191.25963,0.05138
7193.18810,0.01116
7195.11657,-0.00460
7197.04504,-0.01739
7198.97350,0.00310
7200.90197,0.09332
7202.83044,0.17834
7204.75891,0.14118
7206.68738,0.09043
7208.61585,0.12593
7210.54432,0.13146
7212.47279,0.03246
7214.40125,-0.12736
7216.32972,-0.20842
7218.25819,-0.05592
7220.18666,0.18029
7222.11513,0.27114
7224.04360,0.19648
7225.97207,0.03803
7227.90053,0.00792
7229.82900,0.16067
7231.75747,0.31636
7233.68594,0.32178
7235.61441,0.17845
7237.54288,0.04412
7239.47135,0.12397
7241.39982,0.21907
7243.32828,0.10730
7245.25675,-0.01913
7247.18522,-0.04007
7249.11369,-0.01020
7251.04216,0.01766
7252.97063,0.11468
7254.89910,0.25248
7256.82756,0.23194
7258.75603,0.13361
7260.68450,0.07516
7262.61297,0.05554
7264.54144,0.03300
7266.46991,0.00004
7268.39838,-0.03224
7270.32685,-0.08515
7272.25531,-0.14726
7274.18378,-0.09660
7276.11225,0.10021
7278.04072,0.35810
7279.96919,0.36920
7281.89766,0.04181
7283.82613,-0.11905
7285.75459,0.01108
7287.68306,0.22840
7289.61153,0.34029
7291.54000,0.25210
7293.46847,0.09948
7295.39694,0.06725
7297.32541,0.05443
7299.25387,0.01699
7301.18234,0.04109
7303.11081,0.05073
7305.03928,0.07789
7306.96775,0.19027
7308.89622,0.17248
7310.82469,0.03571
7312.75316,-0.01044
7314.68162,-0.01051
7316.61009,0.01768
7318.53856,-0.00286
7320.46703,-0.14628
7322.39550,-0.18894
7324.32397,-0.00782
7326.25244,0.12804
7328.18090,0.07933
7330.10937,-0.01831
7332.03784,0.00754
7333.96631,0.15128
7335.89478,0.28596
7337.82325,0.30358
7339.75172,0.21846
7341.68019,0.13950
7343.60865,0.05468
7345.53712,-0.03891
7347.46559,-0.09311
7349.39406,-0.06574
7351.32253,0.04316
7353.25100,0.13482
7355.17947,0.14826
7357.10793,0.13636
7359.03640,0.22955
7360.96487,0.40666
7362.89334,0.34252
7364.82181,0.03254
7366.75028,-0.16556
7368.67875,-0.17392
7370.60722,-0.10683
7372.53568,-0.05993
7374.46415,-0.09067
7376.39262,-0.11478
7378.32109,0.06319
7380.24956,0.23112
7382.17803,0.13840
7384.10650,-0.08889
7386.03496,-0.11062
7387.96343,0.05856
7389.89190,0.10453
7391.82037,-0.01611
7393.74884,0.00162
7395.67731,0.21122
7397.60578,0.27890
7399.53425,0.21493
7401.46271,0.17683
7403.39118,0.01325
7405.31965,-0.23504
7407.24812,-0.24108
7409.17659,-0.13719
7411.10506,-0.02750
7413.03353,0.16964
7414.96199,0.32831
7416.89046,0.30039
7418.81893,0.25826
7420.74740,0.38184
7422.67587,0.43939
7424.60434,0.38256
7426.53281,0.30688
7428.46128,0.21334
7430.38974,0.10425
7432.31821,0.11089
7434.24668,0.15389
7436.17515,0.08205
7438.10362,0.04216
7440.03209,0.09645
7441.96056,0.06839
7443.88902,-0.00011
7445.81749,0.01827
7447.74596,0.04968
7449.67443,0.00779
7451.60290,-0.02539
7453.53137,-0.01173
7455.45984,-0.04255
7457.38831,-0.04686
7459.31677,0.06992
7461.24524,0.12857
7463.17371,0.03251
7465.10218,-0.02684
7467.03065,-0.00281
7468.95912,0.08600
7470.88759,0.21758
7472.81605,0.24588
7474.74452,0.20637
7476.67299,0.25752
7478.60146,0.29588
7480.52993,0.17022
7482.45840,0.04501
7484.38687,0.06586
7486.31533,0.24962
7488.24380,0.46727
7490.17227,0.35718
7492.10074,0.06949
7494.02921,0.02439
7495.95768,0.11356
7497.88615,0.22752
