399.19301,0.35641
401.12148,0.21881
403.04995,0.05619
404.97842,0.16241
406.90689,0.25720
408.83536,0.26390
410.76382,0.23333
412.69229,0.15012
414.62076,0.06661
416.54923,0.06168
418.47770,0.21803
420.40617,0.40210
422.33464,0.33318
424.26311,0.08642
426.19157,-0.06255
428.12004,0.00159
430.04851,0.09225
431.97698,0.09223
433.90545,0.06135
435.83392,0.08513
437.76239,0.15137
439.69085,0.12698
441.61932,0.00793
443.54779,-0.04699
445.47626,-0.02549
447.40473,0.05333
449.33320,0.17323
451.26167,0.19641
453.19013,0.09765
455.11860,-0.00171
457.04707,-0.02462
458.97554,0.03297
460.90401,0.12387
462.83248,0.13655
464.76095,0.06187
466.68942,0.04508
468.61788,0.08172
470.54635,0.09529
472.47482,0.13949
474.40329,0.22425
476.33176,0.20337
478.26023,0.13645
480.18870,0.08678
482.11716,0.05927
484.04563,0.06465
485.97410,0.10614
487.90257,0.13648
489.83104,0.11928
491.75951,0.07603
493.68798,0.01567
495.61645,-0.02534
497.54491,-0.00273
499.47338,0.04162
501.40185,0.07056
503.33032,0.08984
505.25879,0.09845
507.18726,0.09282
509.11573,0.08344
511.04419,0.07537
512.97266,0.08421
514.90113,0.11224
516.82960,0.09255
518.75807,0.03151
520.68654,0.03950
522.61501,0.09324
524.54348,0.09806
526.47194,0.07263
528.40041,0.06671
530.32888,0.08757
532.25735,0.12300
534.18582,0.10753
536.11429,0.04221
538.04276,0.00845
539.97122,0.01571
541.89969,0.01946
543.82816,-0.00117
545.75663,-0.02023
547.68510,0.01300
549.61357,0.07557
551.54204,0.08527
553.47051,0.05963
555.39897,0.04982
557.32744,0.05181
559.25591,0.07434
561.18438,0.10087
563.11285,0.08480
565.04132,0.06968
566.96979,0.08960
568.89825,0.07647
570.82672,0.04147
572.75519,0.04165
574.68366,0.05591
576.61213,0.05905
578.54060,0.05401
580.46907,0.04790
582.39754,0.04480
584.32600,0.03961
586.25447,0.04783
588.18294,0.07794
590.11141,0.09438
592.03988,0.08066
593.96835,0.07028
595.89682,0.07034
597.82528,0.06663
599.75375,0.06590
601.68222,0.06045
603.61069,0.04591
605.53916,0.02252
607.46763,-0.00032
609.39610,0.01667
611.32456,0.05916
613.25303,0.07416
615.18150,0.07289
617.10997,0.08939
619.03844,0.09509
620.96691,0.07184
622.89538,0.05099
624.82385,0.03930
626.75231,0.03829
628.68078,0.05916
630.60925,0.07720
632.53772,0.07259
634.46619,0.07552
636.39466,0.08850
638.32313,0.08358
640.25159,0.06753
642.18006,0.05928
644.10853,0.06929
646.03700,0.08008
647.96547,0.06409
649.89394,0.04286
651.82241,0.04266
653.75088,0.04451
655.67934,0.03464
657.60781,0.02918
659.53628,0.04414
661.46475,0.06539
663.39322,0.06971
665.32169,0.06342
667.25016,0.05426
669.17862,0.04876
671.10709,0.07463
673.03556,0.09650
674.96403,0.08335
676.89250,0.06334
678.82097,0.05743
680.74944,0.05421
682.67791,0.06175
684.60637,0.07230
686.53484,0.06758
688.46331,0.06451
690.39178,0.07673
692.32025,0.08839
694.24872,0.08495
696.17719,0.06896
698.10565,0.05866
700.03412,0.06455
701.96259,0.07304
703.89106,0.07234
705.81953,0.06869
707.74800,0.06798
709.67647,0.06595
711.60494,0.05906
713.53340,0.05143
715.46187,0.05288
717.39034,0.06667
719.31881,0.08276
721.24728,0.09067
723.17575,0.08766
725.10422,0.07627
727.03268,0.07353
728.96115,0.08211
730.88962,0.08017
732.81809,0.07281
734.74656,0.06655
736.67503,0.05428
738.60350,0.05285
740.53197,0.06528
742.46043,0.08071
744.38890,0.10141
746.31737,0.11070
748.24584,0.09728
750.17431,0.08212
752.10278,0.07829
754.03125,0.07956
755.95971,0.07783
757.88818,0.07041
759.81665,0.06262
761.74512,0.06191
763.67359,0.06311
765.60206,0.05680
767.53053,0.05234
769.45900,0.06116
771.38746,0.07871
773.31593,0.08967
775.24440,0.08611
777.17287,0.07617
779.10134,0.06640
781.02981,0.06224
782.95828,0.06878
784.88674,0.07649
786.81521,0.07458
788.74368,0.06760
790.67215,0.06672
792.60062,0.07252
794.52909,0.07201
796.45756,0.06530
798.38602,0.06617
800.31449,0.07046
802.24296,0.07137
804.17143,0.07693
806.09990,0.09287
808.02837,0.10649
809.95684,0.10341
811.88531,0.09512
813.81377,0.09298
815.74224,0.09177
817.67071,0.09053
819.59918,0.08505
821.52765,0.07562
823.45612,0.07798
825.38459,0.09053
827.31305,0.09597
829.24152,0.09350
831.16999,0.09497
833.09846,0.09687
835.02693,0.08515
836.95540,0.07212
838.88387,0.07378
840.81234,0.07539
842.74080,0.07247
844.66927,0.08128
846.59774,0.09528
848.52621,0.09737
850.45468,0.08816
852.38315,0.07920
854.31162,0.07949
856.24008,0.08469
858.16855,0.08665
860.09702,0.08812
862.02549,0.09384
863.95396,0.09499
865.88243,0.08113
867.81090,0.05059
869.73937,0.02660
871.66783,0.04271
873.59630,0.07426
875.52477,0.08191
877.45324,0.07502
879.38171,0.07084
881.31018,0.07142
883.23865,0.07095
885.16711,0.07035
887.09558,0.07588
889.02405,0.07781
890.95252,0.06686
892.88099,0.05729
894.80946,0.06165
896.73793,0.07215
898.66640,0.08351
900.59486,0.09021
902.52333,0.08592
904.45180,0.08298
906.38027,0.08749
908.30874,0.09226
910.23721,0.09741
912.16568,0.09579
914.09414,0.08384
916.02261,0.07898
917.95108,0.08150
919.87955,0.07781
921.80802,0.07609
923.73649,0.08131
925.66496,0.08124
927.59343,0.07513
929.52189,0.07414
931.45036,0.07756
933.37883,0.07451
935.30730,0.07112
937.23577,0.08195
939.16424,0.09393
941.09271,0.09167
943.02117,0.08777
944.94964,0.09006
946.87811,0.09120
948.80658,0.09252
950.73505,0.09932
952.66352,0.10570
954.59199,0.10615
956.52045,0.10307
958.44892,0.09574
960.37739,0.08681
962.30586,0.08446
964.23433,0.08727
966.16280,0.08808
968.09127,0.08921
970.01974,0.09263
971.94820,0.09149
973.87667,0.08477
975.80514,0.07841
977.73361,0.07607
979.66208,0.07733
981.59055,0.08015
983.51902,0.08479
985.44748,0.08929
987.37595,0.08956
989.30442,0.08896
991.23289,0.09009
993.16136,0.09235
995.08983,0.09956
997.01830,0.10558
998.94677,0.10050
1000.87523,0.09082
1002.80370,0.08612
1004.73217,0.08613
1006.66064,0.08884
1008.58911,0.09238
1010.51758,0.09674
1012.44605,0.10133
1014.37451,0.10202
1016.30298,0.09811
1018.23145,0.08945
1020.15992,0.08200
1022.08839,0.08488
1024.01686,0.08716
1025.94533,0.06734
1027.87380,0.04794
1029.80226,0.06483
1031.73073,0.08950
1033.65920,0.09546
1035.58767,0.09467
1037.51614,0.09275
1039.44461,0.09517
1041.37308,0.10046
1043.30154,0.10122
1045.23001,0.09696
1047.15848,0.08972
1049.08695,0.08219
1051.01542,0.07738
1052.94389,0.07832
1054.87236,0.08432
1056.80083,0.08768
1058.72929,0.08406
1060.65776,0.08258
1062.58623,0.08790
1064.51470,0.09465
1066.44317,0.10244
1068.37164,0.10873
1070.30011,0.10581
1072.22857,0.09816
1074.15704,0.09315
1076.08551,0.08999
1078.01398,0.09171
1079.94245,0.09764
1081.87092,0.10312
1083.79939,0.10483
1085.72786,0.09982
1087.65632,0.09279
1089.58479,0.08980
1091.51326,0.09330
1093.44173,0.09674
1095.37020,0.09035
1097.29867,0.08571
1099.22714,0.09557
1101.15560,0.10742
1103.08407,0.10764
1105.01254,0.10187
1106.94101,0.10241
1108.86948,0.10573
1110.79795,0.10451
1112.72642,0.10253
1114.65489,0.10013
1116.58335,0.09917
1118.51182,0.10270
1120.44029,0.10075
1122.36876,0.09065
1124.29723,0.08548
1126.22570,0.08787
1128.15417,0.09145
1130.08263,0.09518
1132.01110,0.09697
1133.93957,0.09659
1135.86804,0.10012
1137.79651,0.10555
1139.72498,0.10310
1141.65345,0.09357
1143.58191,0.08775
1145.51038,0.09315
1147.43885,0.10142
1149.36732,0.10126
1151.29579,0.09898
1153.22426,0.10068
1155.15273,0.10087
1157.08120,0.09897
1159.00966,0.09913
1160.93813,0.09739
1162.86660,0.09116
1164.79507,0.08697
1166.72354,0.08875
1168.65201,0.09233
1170.58048,0.09306
1172.50894,0.09291
1174.43741,0.09151
1176.36588,0.08760
1178.29435,0.08896
1180.22282,0.09619
1182.15129,0.09556
1184.07976,0.08250
1186.00823,0.07123
1187.93669,0.07486
1189.86516,0.08870
1191.79363,0.10060
1193.72210,0.10649
1195.65057,0.10759
1197.57904,0.10405
1199.50751,0.09798
1201.43597,0.09584
1203.36444,0.09929
1205.29291,0.10108
1207.22138,0.09848
1209.14985,0.09614
1211.07832,0.09533
1213.00679,0.09436
1214.93526,0.09509
1216.86372,0.09709
1218.79219,0.09712
1220.72066,0.09803
1222.64913,0.10135
1224.57760,0.10356
1226.50607,0.10187
1228.43454,0.09689
1230.36300,0.09360
1232.29147,0.09559
1234.21994,0.10068
1236.14841,0.10437
1238.07688,0.10772
1240.00535,0.11150
1241.93382,0.11105
1243.86229,0.10754
1245.79075,0.10530
1247.71922,0.10526
1249.64769,0.10644
1251.57616,0.10521
1253.50463,0.10025
1255.43310,0.09501
1257.36157,0.09178
1259.29003,0.09172
1261.21850,0.09664
1263.14697,0.10274
1265.07544,0.10314
1267.00391,0.09764
1268.93238,0.09138
1270.86085,0.08861
1272.78932,0.09135
1274.71778,0.09695
1276.64625,0.10073
1278.57472,0.10277
1280.50319,0.10210
1282.43166,0.09703
1284.36013,0.09345
1286.28860,0.09529
1288.21706,0.09876
1290.14553,0.10182
1292.07400,0.10503
1294.00247,0.10822
1295.93094,0.10824
1297.85941,0.10122
1299.78788,0.09229
1301.71634,0.08804
1303.64481,0.08558
1305.57328,0.08494
1307.50175,0.09108
1309.43022,0.09802
1311.35869,0.09801
1313.28716,0.09606
1315.21563,0.09744
1317.14409,0.10169
1319.07256,0.10688
1321.00103,0.10918
1322.92950,0.10815
1324.85797,0.10529
1326.78644,0.10041
1328.71491,0.09571
1330.64337,0.09489
1332.57184,0.09846
1334.50031,0.10181
1336.42878,0.10259
1338.35725,0.10424
1340.28572,0.10516
1342.21419,0.10632
1344.14266,0.10947
1346.07112,0.10837
1347.99959,0.10543
1349.92806,0.10645
1351.85653,0.10732
1353.78500,0.10273
1355.71347,0.09570
1357.64194,0.09411
1359.57040,0.09792
1361.49887,0.10324
1363.42734,0.10561
1365.35581,0.10286
1367.28428,0.10085
1369.21275,0.10207
1371.14122,0.10422
1373.06969,0.10687
1374.99815,0.10869
1376.92662,0.10726
1378.85509,0.10549
1380.78356,0.10501
1382.71203,0.10390
1384.64050,0.10264
1386.56897,0.10158
1388.49743,0.10174
1390.42590,0.10722
1392.35437,0.11616
1394.28284,0.12182
1396.21131,0.12033
1398.13978,0.11435
1400.06825,0.11001
1401.99672,0.11338
1403.92518,0.11843
1405.85365,0.11565
1407.78212,0.10694
1409.71059,0.10025
1411.63906,0.10215
1413.56753,0.10967
1415.49600,0.11482
1417.42446,0.11802
1419.35293,0.12067
1421.28140,0.12048
1423.20987,0.11493
1425.13834,0.10662
1427.06681,0.10561
1428.99528,0.11216
1430.92375,0.11852
1432.85221,0.12288
1434.78068,0.12445
1436.70915,0.11660
1438.63762,0.10883
1440.56609,0.11217
1442.49456,0.11804
1444.42303,0.12095
1446.35149,0.12052
1448.27996,0.11521
1450.20843,0.11095
1452.13690,0.11260
1454.06537,0.11798
1455.99384,0.12833
1457.92231,0.13453
1459.85077,0.12631
1461.77924,0.12076
1463.70771,0.11949
1465.63618,0.11604
1467.56465,0.11191
1469.49312,0.11362
1471.42159,0.12501
1473.35006,0.13612
1475.27852,0.12720
1477.20699,0.11444
1479.13546,0.11134
1481.06393,0.11069
1482.99240,0.10748
1484.92087,0.11004
1486.84934,0.12254
1488.77780,0.13438
1490.70627,0.12871
1492.63474,0.11365
1494.56321,0.10522
1496.49168,0.10965
1498.42015,0.11957
1500.34862,0.12078
1502.27709,0.11802
1504.20555,0.11860
1506.13402,0.12696
1508.06249,0.13090
1509.99096,0.12277
1511.91943,0.11713
1513.84790,0.11602
1515.77637,0.11864
1517.70483,0.12028
1519.63330,0.11642
1521.56177,0.11119
1523.49024,0.11197
1525.41871,0.11845
1527.34718,0.12256
1529.27565,0.11996
1531.20412,0.11728
1533.13258,0.11839
1535.06105,0.11918
1536.98952,0.11935
1538.91799,0.12431
1540.84646,0.13422
1542.77493,0.13393
1544.70340,0.12636
1546.63186,0.12059
1548.56033,0.11778
1550.48880,0.11559
1552.41727,0.11674
1554.34574,0.12490
1556.27421,0.14009
1558.20268,0.15850
1560.13115,0.14404
1562.05961,0.12042
1563.98808,0.10965
1565.91655,0.10668
1567.84502,0.11045
1569.77349,0.11509
1571.70196,0.11369
1573.63043,0.11347
1575.55889,0.11739
1577.48736,0.11649
1579.41583,0.11101
1581.34430,0.10852
1583.27277,0.11050
1585.20124,0.11502
1587.12971,0.11749
1589.05818,0.11751
1590.98664,0.11833
1592.91511,0.11821
1594.84358,0.11499
1596.77205,0.11240
1598.70052,0.11488
1600.62899,0.11989
1602.55746,0.12016
1604.48592,0.11362
1606.41439,0.10768
1608.34286,0.10977
1610.27133,0.11447
1612.19980,0.11429
1614.12827,0.11407
1616.05674,0.11803
1617.98521,0.12149
1619.91367,0.12267
1621.84214,0.12243
1623.77061,0.11869
1625.69908,0.11709
1627.62755,0.12107
1629.55602,0.12451
1631.48449,0.12392
1633.41295,0.12233
1635.34142,0.12325
1637.26989,0.12567
1639.19836,0.12379
1641.12683,0.12043
1643.05530,0.12183
1644.98377,0.12993
1646.91223,0.13696
1648.84070,0.13244
1650.76917,0.12709
1652.69764,0.12626
1654.62611,0.12374
1656.55458,0.12119
1658.48305,0.12131
1660.41152,0.12264
1662.33998,0.12507
1664.26845,0.12620
1666.19692,0.12631
1668.12539,0.13156
1670.05386,0.13875
1671.98233,0.13694
1673.91080,0.13130
1675.83926,0.12280
1677.76773,0.11639
1679.69620,0.11994
1681.62467,0.13147
1683.55314,0.14275
1685.48161,0.13991
1687.41008,0.13051
1689.33855,0.12276
1691.26701,0.11729
1693.19548,0.11603
1695.12395,0.11907
1697.05242,0.12156
1698.98089,0.11836
1700.90936,0.11578
1702.83783,0.11977
1704.76629,0.12345
1706.69476,0.12075
1708.62323,0.11656
1710.55170,0.11618
1712.48017,0.12069
1714.40864,0.12974
1716.33711,0.13299
1718.26558,0.12078
1720.19404,0.11215
1722.12251,0.11126
1724.05098,0.11204
1725.97945,0.11322
1727.90792,0.11356
1729.83639,0.11361
1731.76486,0.11576
1733.69332,0.11697
1735.62179,0.11680
1737.55026,0.11979
1739.47873,0.12224
1741.40720,0.12013
1743.33567,0.11833
1745.26414,0.12042
1747.19261,0.12377
1749.12107,0.12428
1751.04954,0.11813
1752.97801,0.11176
1754.90648,0.10945
1756.83495,0.10741
1758.76342,0.10648
1760.69189,0.10990
1762.62035,0.11326
1764.54882,0.11368
1766.47729,0.11615
1768.40576,0.12272
1770.33423,0.13157
1772.26270,0.13468
1774.19117,0.12618
1776.11964,0.11785
1778.04810,0.11568
1779.97657,0.11820
1781.90504,0.12070
1783.83351,0.12091
1785.76198,0.11888
1787.69045,0.11539
1789.61892,0.11503
1791.54738,0.11808
1793.47585,0.11733
1795.40432,0.11477
1797.33279,0.11651
1799.26126,0.11983
1801.18973,0.11862
1803.11820,0.11436
1805.04666,0.11194
1806.97513,0.11159
1808.90360,0.11442
1810.83207,0.11765
1812.76054,0.11598
1814.68901,0.11435
1816.61748,0.11522
1818.54595,0.11482
1820.47441,0.11335
1822.40288,0.11367
1824.33135,0.11720
1826.25982,0.12143
1828.18829,0.12077
1830.11676,0.11541
1832.04523,0.11373
1833.97369,0.11634
1835.90216,0.11854
1837.83063,0.11919
1839.75910,0.11923
1841.68757,0.12028
1843.61604,0.11985
1845.54451,0.11545
1847.47298,0.11289
1849.40144,0.11352
1851.32991,0.11513
1853.25838,0.11615
1855.18685,0.11412
1857.11532,0.11044
1859.04379,0.10920
1860.97226,0.11090
1862.90072,0.11428
1864.82919,0.11717
1866.75766,0.11773
1868.68613,0.11577
1870.61460,0.11201
1872.54307,0.10843
1874.47154,0.10730
1876.40001,0.11007
1878.32847,0.11404
1880.25694,0.11587
1882.18541,0.11617
1884.11388,0.11455
1886.04235,0.10961
1887.97082,0.10506
1889.89929,0.10428
1891.82775,0.10411
1893.75622,0.10427
1895.68469,0.10790
1897.61316,0.11254
1899.54163,0.11445
1901.47010,0.11368
1903.39857,0.11173
1905.32704,0.11017
1907.25550,0.10965
1909.18397,0.10994
1911.11244,0.11075
1913.04091,0.11122
1914.96938,0.10989
1916.89785,0.10756
1918.82632,0.10844
1920.75478,0.11259
1922.68325,0.11441
1924.61172,0.11310
1926.54019,0.11322
1928.46866,0.11432
1930.39713,0.11383
1932.32560,0.11318
1934.25407,0.11322
1936.18253,0.11257
1938.11100,0.11206
1940.03947,0.11427
1941.96794,0.11737
1943.89641,0.11453
1945.82488,0.10739
1947.75335,0.10435
1949.68181,0.10622
1951.61028,0.11005
1953.53875,0.11391
1955.46722,0.11392
1957.39569,0.11196
1959.32416,0.11398
1961.25263,0.11687
1963.18110,0.11622
1965.10956,0.11414
1967.03803,0.11198
1968.96650,0.10984
1970.89497,0.10843
1972.82344,0.10732
1974.75191,0.10668
1976.68038,0.10727
1978.60884,0.10761
1980.53731,0.10751
1982.46578,0.10851
1984.39425,0.11044
1986.32272,0.11286
1988.25119,0.11440
1990.17966,0.11452
1992.10812,0.11424
1994.03659,0.11291
1995.96506,0.11054
1997.89353,0.10771
1999.82200,0.10565
2001.75047,0.10910
2003.67894,0.11677
2005.60741,0.11891
2007.53587,0.11677
2009.46434,0.11848
2011.39281,0.12169
2013.32128,0.12211
2015.24975,0.12050
2017.17822,0.11834
2019.10669,0.11612
2021.03515,0.11405
2022.96362,0.11242
2024.89209,0.11050
2026.82056,0.10860
2028.74903,0.10861
2030.67750,0.11085
2032.60597,0.11416
2034.53444,0.11729
2036.46290,0.11853
2038.39137,0.11654
2040.31984,0.11247
2042.24831,0.10986
2044.17678,0.11031
2046.10525,0.11267
2048.03372,0.11566
2049.96218,0.11690
2051.89065,0.11597
2053.81912,0.11535
2055.74759,0.11453
2057.67606,0.11332
2059.60453,0.11361
2061.53300,0.11337
2063.46147,0.11160
2065.38993,0.11085
2067.31840,0.11089
2069.24687,0.11141
2071.17534,0.11324
2073.10381,0.11564
2075.03228,0.11776
2076.96075,0.11909
2078.88921,0.11952
2080.81768,0.11921
2082.74615,0.11844
2084.67462,0.11785
2086.60309,0.11824
2088.53156,0.11926
2090.46003,0.11932
2092.38850,0.11818
2094.31696,0.11639
2096.24543,0.11439
2098.17390,0.11312
2100.10237,0.11188
2102.03084,0.11097
2103.95931,0.11246
2105.88778,0.11414
2107.81624,0.11335
2109.74471,0.11368
2111.67318,0.11654
2113.60165,0.11712
2115.53012,0.11433
2117.45859,0.11286
2119.38706,0.11451
2121.31553,0.11509
2123.24399,0.11164
2125.17246,0.10769
2127.10093,0.10739
2129.02940,0.10881
2130.95787,0.10830
2132.88634,0.10593
2134.81481,0.10421
2136.74327,0.10538
2138.67174,0.10858
2140.60021,0.11106
2142.52868,0.11234
2144.45715,0.11320
2146.38562,0.11326
2148.31409,0.11326
2150.24255,0.11354
2152.17102,0.11301
2154.09949,0.11448
2156.02796,0.11931
2157.95643,0.12340
2159.88490,0.12431
2161.81337,0.12270
2163.74184,0.12101
2165.67030,0.12005
2167.59877,0.11880
2169.52724,0.11905
2171.45571,0.11960
2173.38418,0.11719
2175.31265,0.11501
2177.24112,0.11475
2179.16958,0.11342
2181.09805,0.11099
2183.02652,0.11032
2184.95499,0.11216
2186.88346,0.11358
2188.81193,0.11235
2190.74040,0.11011
2192.66887,0.10886
2194.59733,0.10747
2196.52580,0.10593
2198.45427,0.10658
2200.38274,0.10799
2202.31121,0.10890
2204.23968,0.11056
2206.16815,0.11114
2208.09661,0.11029
2210.02508,0.11056
2211.95355,0.11171
2213.88202,0.11380
2215.81049,0.11613
2217.73896,0.11578
2219.66743,0.11421
2221.59590,0.11352
2223.52436,0.11242
2225.45283,0.11151
2227.38130,0.11149
2229.30977,0.11063
2231.23824,0.11012
2233.16671,0.11152
2235.09518,0.11186
2237.02364,0.11036
2238.95211,0.11063
2240.88058,0.11450
2242.80905,0.11830
2244.73752,0.11763
2246.66599,0.11487
2248.59446,0.11398
2250.52293,0.11329
2252.45139,0.11123
2254.37986,0.11137
2256.30833,0.11510
2258.23680,0.11664
2260.16527,0.11320
2262.09374,0.10969
2264.02221,0.10968
2265.95067,0.11213
2267.87914,0.11341
2269.80761,0.11276
2271.73608,0.11311
2273.66455,0.11402
2275.59302,0.11388
2277.52149,0.11283
2279.44996,0.11200
2281.37842,0.11271
2283.30689,0.11408
2285.23536,0.11506
2287.16383,0.11561
2289.09230,0.11535
2291.02077,0.11509
2292.94924,0.11660
2294.87770,0.11769
2296.80617,0.11602
2298.73464,0.11524
2300.66311,0.11615
2302.59158,0.11668
2304.52005,0.11702
2306.44852,0.11490
2308.37699,0.11134
2310.30545,0.11108
2312.23392,0.11409
2314.16239,0.11714
2316.09086,0.11649
2318.01933,0.11339
2319.94780,0.11351
2321.87627,0.11621
2323.80473,0.11443
2325.73320,0.10645
2327.66167,0.10250
2329.59014,0.10888
2331.51861,0.11631
2333.44708,0.11710
2335.37555,0.11307
2337.30401,0.11005
2339.23248,0.11104
2341.16095,0.11420
2343.08942,0.11922
2345.01789,0.12035
2346.94636,0.11717
2348.87483,0.11573
2350.80330,0.11453
2352.73176,0.11232
2354.66023,0.11573
2356.58870,0.12722
2358.51717,0.13610
2360.44564,0.13576
2362.37411,0.12374
2364.30258,0.10340
2366.23104,0.09628
2368.15951,0.10581
2370.08798,0.11332
2372.01645,0.11462
2373.94492,0.11201
2375.87339,0.10950
2377.80186,0.11022
2379.73033,0.11175
2381.65879,0.11351
2383.58726,0.11511
2385.51573,0.11588
2387.44420,0.11644
2389.37267,0.11584
2391.30114,0.11349
2393.22961,0.11195
2395.15807,0.11418
2397.08654,0.11837
2399.01501,0.11983
2400.94348,0.11757
2402.87195,0.11422
2404.80042,0.11365
2406.72889,0.11612
2408.65736,0.11653
2410.58582,0.11421
2412.51429,0.11348
2414.44276,0.11423
2416.37123,0.11429
2418.29970,0.11379
2420.22817,0.11359
2422.15664,0.11463
2424.08510,0.11553
2426.01357,0.11533
2427.94204,0.11612
2429.87051,0.11724
2431.79898,0.11674
2433.72745,0.11582
2435.65592,0.11512
2437.58439,0.11564
2439.51285,0.11789
2441.44132,0.11909
2443.36979,0.11757
2445.29826,0.11385
2447.22673,0.11031
2449.15520,0.11013
2451.08367,0.11323
2453.01213,0.11635
2454.94060,0.11633
2456.86907,0.11403
2458.79754,0.11254
2460.72601,0.11216
2462.65448,0.11191
2464.58295,0.11163
2466.51142,0.11168
2468.43988,0.11314
2470.36835,0.11476
2472.29682,0.11494
2474.22529,0.11402
2476.15376,0.11169
2478.08223,0.11097
2480.01070,0.11387
2481.93916,0.11659
2483.86763,0.11736
2485.79610,0.11733
2487.72457,0.11750
2489.65304,0.11808
2491.58151,0.11856
2493.50998,0.12040
2495.43844,0.12272
2497.36691,0.12073
2499.29538,0.11534
2501.22385,0.11174
2503.15232,0.11212
2505.08079,0.11525
2507.00926,0.11634
2508.93773,0.11464
2510.86619,0.11417
2512.79466,0.11350
2514.72313,0.11097
2516.65160,0.10944
2518.58007,0.10958
2520.50854,0.11227
2522.43701,0.11677
2524.36547,0.11844
2526.29394,0.11832
2528.22241,0.11984
2530.15088,0.12151
2532.07935,0.12169
2534.00782,0.12079
2535.93629,0.11866
2537.86476,0.11621
2539.79322,0.11687
2541.72169,0.12064
2543.65016,0.12298
2545.57863,0.12071
2547.50710,0.11680
2549.43557,0.11691
2551.36404,0.11906
2553.29250,0.11861
2555.22097,0.11771
2557.14944,0.11821
2559.07791,0.11744
2561.00638,0.11550
2562.93485,0.11550
2564.86332,0.11719
2566.79179,0.11664
2568.72025,0.11332
2570.64872,0.11231
2572.57719,0.11484
2574.50566,0.11604
2576.43413,0.11553
2578.36260,0.11638
2580.29107,0.11841
2582.21953,0.12046
2584.14800,0.12081
2586.07647,0.11920
2588.00494,0.11963
2589.93341,0.12225
2591.86188,0.12197
2593.79035,0.11866
2595.71882,0.11566
2597.64728,0.11301
2599.57575,0.11111
2601.50422,0.11199
2603.43269,0.11529
2605.36116,0.11755
2607.28963,0.11610
2609.21810,0.11463
2611.14656,0.11684
2613.07503,0.11813
2615.00350,0.11525
2616.93197,0.11346
2618.86044,0.11643
2620.78891,0.12087
2622.71738,0.12292
2624.64585,0.12104
2626.57431,0.11625
2628.50278,0.11371
2630.43125,0.11564
2632.35972,0.11711
2634.28819,0.11626
2636.21666,0.11605
2638.14513,0.11843
2640.07359,0.12199
2642.00206,0.12155
2643.93053,0.11764
2645.85900,0.11653
2647.78747,0.11813
2649.71594,0.11915
2651.64441,0.11924
2653.57288,0.11856
2655.50134,0.11780
2657.42981,0.11727
2659.35828,0.11743
2661.28675,0.11888
2663.21522,0.12008
2665.14369,0.12187
2667.07216,0.12365
2669.00062,0.12182
2670.92909,0.11912
2672.85756,0.11826
2674.78603,0.11772
2676.71450,0.11877
2678.64297,0.12145
2680.57144,0.12238
2682.49990,0.12082
2684.42837,0.11967
2686.35684,0.12064
2688.28531,0.12146
2690.21378,0.11995
2692.14225,0.11707
2694.07072,0.11650
2695.99919,0.11938
2697.92765,0.12130
2699.85612,0.12040
2701.78459,0.11880
2703.71306,0.11899
2705.64153,0.12233
2707.57000,0.12591
2709.49847,0.12618
2711.42693,0.12314
2713.35540,0.11901
2715.28387,0.11727
2717.21234,0.11877
2719.14081,0.11965
2721.06928,0.11959
2722.99775,0.12049
2724.92622,0.12047
2726.85468,0.12021
2728.78315,0.12087
2730.71162,0.12082
2732.64009,0.12102
2734.56856,0.12247
2736.49703,0.12376
2738.42550,0.12408
2740.35396,0.12354
2742.28243,0.12203
2744.21090,0.12169
2746.13937,0.12469
2748.06784,0.12758
2749.99631,0.12765
2751.92478,0.12607
2753.85325,0.12346
2755.78171,0.12250
2757.71018,0.12522
2759.63865,0.12855
2761.56712,0.13016
2763.49559,0.13116
2765.42406,0.13189
2767.35253,0.13199
2769.28099,0.13134
2771.20946,0.12860
2773.13793,0.12454
2775.06640,0.12154
2776.99487,0.12091
2778.92334,0.12244
2780.85181,0.12245
2782.78028,0.12091
2784.70874,0.12285
2786.63721,0.12712
2788.56568,0.12844
2790.49415,0.12518
2792.42262,0.12077
2794.35109,0.12167
2796.27956,0.12668
2798.20802,0.12942
2800.13649,0.13060
2802.06496,0.13089
2803.99343,0.12897
2805.92190,0.12724
2807.85037,0.12498
2809.77884,0.12025
2811.70731,0.11935
2813.63577,0.12473
2815.56424,0.12707
2817.49271,0.12619
2819.42118,0.12836
2821.34965,0.13052
2823.27812,0.13047
2825.20659,0.12942
2827.13505,0.12752
2829.06352,0.12719
2830.99199,0.12914
2832.92046,0.12979
2834.84893,0.12927
2836.77740,0.13002
2838.70587,0.13039
2840.63433,0.12874
2842.56280,0.12633
2844.49127,0.12590
2846.41974,0.12702
2848.34821,0.12663
2850.27668,0.12509
2852.20515,0.12420
2854.13362,0.12438
2856.06208,0.12697
2857.99055,0.13153
2859.91902,0.13327
2861.84749,0.13174
2863.77596,0.13010
2865.70443,0.12876
2867.63290,0.12803
2869.56136,0.12746
2871.48983,0.12722
2873.41830,0.12700
2875.34677,0.12564
2877.27524,0.12544
2879.20371,0.12741
2881.13218,0.12851
2883.06065,0.12699
2884.98911,0.12523
2886.91758,0.12579
2888.84605,0.12744
2890.77452,0.12708
2892.70299,0.12536
2894.63146,0.12576
2896.55993,0.12831
2898.48839,0.13014
2900.41686,0.12903
2902.34533,0.12645
2904.27380,0.12614
2906.20227,0.12789
2908.13074,0.12827
2910.05921,0.12529
2911.98768,0.12251
2913.91614,0.12254
2915.84461,0.12165
2917.77308,0.12059
2919.70155,0.12161
2921.63002,0.12278
2923.55849,0.12508
2925.48696,0.12782
2927.41542,0.12826
2929.34389,0.12757
2931.27236,0.12824
2933.20083,0.13056
2935.12930,0.13027
2937.05777,0.12614
2938.98624,0.12633
2940.91471,0.13314
2942.84317,0.13519
2944.77164,0.12671
2946.70011,0.11778
2948.62858,0.11690
2950.55705,0.12046
2952.48552,0.12229
2954.41399,0.12147
2956.34245,0.12053
2958.27092,0.11968
2960.19939,0.12027
2962.12786,0.12510
2964.05633,0.12850
2965.98480,0.12457
2967.91327,0.11955
2969.84174,0.12162
2971.77020,0.12780
2973.69867,0.13173
2975.62714,0.13111
2977.55561,0.12606
2979.48408,0.12499
2981.41255,0.13187
2983.34102,0.13655
2985.26948,0.13469
2987.19795,0.13199
2989.12642,0.13078
2991.05489,0.13008
2992.98336,0.13037
2994.91183,0.13087
2996.84030,0.13082
2998.76877,0.13191
3000.69723,0.13370
3002.62570,0.13211
3004.55417,0.12855
3006.48264,0.12830
3008.41111,0.12833
3010.33958,0.12486
3012.26805,0.11872
3014.19651,0.10796
3016.12498,0.09652
3018.05345,0.09968
3019.98192,0.11824
3021.91039,0.13200
3023.83886,0.13295
3025.76733,0.12886
3027.69579,0.12847
3029.62426,0.13526
3031.55273,0.13887
3033.48120,0.13209
3035.40967,0.12438
3037.33814,0.12310
3039.26661,0.12877
3041.19508,0.13633
3043.12354,0.13566
3045.05201,0.12893
3046.98048,0.12597
3048.90895,0.12803
3050.83742,0.13168
3052.76589,0.13309
3054.69436,0.13200
3056.62282,0.13141
3058.55129,0.13093
3060.47976,0.12889
3062.40823,0.12717
3064.33670,0.12515
3066.26517,0.12211
3068.19364,0.12513
3070.12211,0.13231
3072.05057,0.13387
3073.97904,0.13078
3075.90751,0.12748
3077.83598,0.12560
3079.76445,0.12556
3081.69292,0.12561
3083.62139,0.12619
3085.54985,0.13025
3087.47832,0.13493
3089.40679,0.13545
3091.33526,0.13236
3093.26373,0.12636
3095.19220,0.12370
3097.12067,0.13198
3099.04914,0.14253
3100.97760,0.14193
3102.90607,0.13214
3104.83454,0.12544
3106.76301,0.12671
3108.69148,0.13028
3110.61995,0.13056
3112.54842,0.13076
3114.47688,0.13545
3116.40535,0.13918
3118.33382,0.13784
3120.26229,0.13420
3122.19076,0.13048
3124.11923,0.12846
3126.04770,0.12839
3127.97617,0.13251
3129.90463,0.14082
3131.83310,0.14552
3133.76157,0.14542
3135.69004,0.14516
3137.61851,0.14263
3139.54698,0.13626
3141.47545,0.13115
3143.40391,0.13084
3145.33238,0.13463
3147.26085,0.14109
3149.18932,0.14612
3151.11779,0.14596
3153.04626,0.14259
3154.97473,0.13927
3156.90320,0.13589
3158.83166,0.13254
3160.76013,0.13293
3162.68860,0.13648
3164.61707,0.13626
3166.54554,0.13415
3168.47401,0.13759
3170.40248,0.14013
3172.33094,0.13433
3174.25941,0.12724
3176.18788,0.12368
3178.11635,0.12453
3180.04482,0.13259
3181.97329,0.14029
3183.90176,0.13834
3185.83022,0.13213
3187.75869,0.12966
3189.68716,0.12961
3191.61563,0.13148
3193.54410,0.13689
3195.47257,0.14163
3197.40104,0.14070
3199.32951,0.13551
3201.25797,0.13282
3203.18644,0.13384
3205.11491,0.13463
3207.04338,0.13557
3208.97185,0.13544
3210.90032,0.13489
3212.82879,0.13719
3214.75725,0.13742
3216.68572,0.13471
3218.61419,0.13560
3220.54266,0.13799
3222.47113,0.13689
3224.39960,0.13330
3226.32807,0.12918
3228.25654,0.12809
3230.18500,0.13038
3232.11347,0.13005
3234.04194,0.12898
3235.97041,0.13117
3237.89888,0.13286
3239.82735,0.13361
3241.75582,0.13536
3243.68428,0.13475
3245.61275,0.12955
3247.54122,0.12600
3249.46969,0.12907
3251.39816,0.13400
3253.32663,0.13460
3255.25510,0.13120
3257.18357,0.12771
3259.11203,0.12678
3261.04050,0.12871
3262.96897,0.13355
3264.89744,0.14069
3266.82591,0.14253
3268.75438,0.13620
3270.68285,0.13122
3272.61131,0.13183
3274.53978,0.13502
3276.46825,0.13489
3278.39672,0.12998
3280.32519,0.12782
3282.25366,0.12974
3284.18213,0.13161
3286.11060,0.13077
3288.03906,0.12524
3289.96753,0.12095
3291.89600,0.12508
3293.82447,0.13255
3295.75294,0.13619
3297.68141,0.13429
3299.60988,0.12763
3301.53834,0.12165
3303.46681,0.12178
3305.39528,0.12856
3307.32375,0.13578
3309.25222,0.13558
3311.18069,0.13058
3313.10916,0.12902
3315.03763,0.13108
3316.96609,0.13285
3318.89456,0.13610
3320.82303,0.13920
3322.75150,0.13598
3324.67997,0.13300
3326.60844,0.13564
3328.53691,0.13695
3330.46537,0.13573
3332.39384,0.13376
3334.32231,0.13404
3336.25078,0.13929
3338.17925,0.14192
3340.10772,0.13897
3342.03619,0.13500
3343.96466,0.13181
3345.89312,0.13146
3347.82159,0.13573
3349.75006,0.14209
3351.67853,0.14476
3353.60700,0.14087
3355.53547,0.13497
3357.46394,0.13323
3359.39240,0.13393
3361.32087,0.13538
3363.24934,0.14034
3365.17781,0.14472
3367.10628,0.14180
3369.03475,0.13262
3370.96322,0.12556
3372.89168,0.12590
3374.82015,0.12920
3376.74862,0.13234
3378.67709,0.13632
3380.60556,0.13921
3382.53403,0.13900
3384.46250,0.13577
3386.39097,0.13117
3388.31943,0.12719
3390.24790,0.12419
3392.17637,0.12484
3394.10484,0.12848
3396.03331,0.13068
3397.96178,0.13313
3399.89025,0.13551
3401.81871,0.13668
3403.74718,0.14012
3405.67565,0.14288
3407.60412,0.13789
3409.53259,0.12731
3411.46106,0.12271
3413.38953,0.12779
3415.31800,0.13270
3417.24646,0.13435
3419.17493,0.13842
3421.10340,0.14235
3423.03187,0.14381
3424.96034,0.14363
3426.88881,0.13672
3428.81728,0.12667
3430.74574,0.12275
3432.67421,0.12257
3434.60268,0.12388
3436.53115,0.12974
3438.45962,0.13601
3440.38809,0.13796
3442.31656,0.13813
3444.24503,0.13953
3446.17349,0.14190
3448.10196,0.13955
3450.03043,0.13026
3451.95890,0.12234
3453.88737,0.12073
3455.81584,0.12388
3457.74431,0.12837
3459.67277,0.12990
3461.60124,0.12846
3463.52971,0.12556
3465.45818,0.12052
3467.38665,0.11574
3469.31512,0.11538
3471.24359,0.12078
3473.17206,0.12951
3475.10052,0.13579
3477.02899,0.13341
3478.95746,0.12513
3480.88593,0.12173
3482.81440,0.12544
3484.74287,0.12856
3486.67134,0.12670
3488.59980,0.12058
3490.52827,0.11629
3492.45674,0.11776
3494.38521,0.11883
3496.31368,0.11640
3498.24215,0.11525
3500.17062,0.11501
3502.09909,0.11360
3504.02755,0.11132
3505.95602,0.10807
3507.88449,0.10712
3509.81296,0.11027
3511.74143,0.11301
3513.66990,0.11204
3515.59837,0.10999
3517.52683,0.11308
3519.45530,0.12313
3521.38377,0.13163
3523.31224,0.13012
3525.24071,0.12367
3527.16918,0.11922
3529.09765,0.11442
3531.02611,0.11125
3532.95458,0.11064
3534.88305,0.10879
3536.81152,0.10680
3538.73999,0.10367
3540.66846,0.10107
3542.59693,0.10492
3544.52540,0.10962
3546.45386,0.10893
3548.38233,0.10696
3550.31080,0.10433
3552.23927,0.09992
3554.16774,0.09551
3556.09621,0.09439
3558.02468,0.09917
3559.95314,0.10559
3561.88161,0.10825
3563.81008,0.10786
3565.73855,0.10304
3567.66702,0.09503
3569.59549,0.09482
3571.52396,0.10141
3573.45243,0.10628
3575.38089,0.10564
3577.30936,0.10288
3579.23783,0.10120
3581.16630,0.09947
3583.09477,0.09818
3585.02324,0.10097
3586.95171,0.10718
3588.88017,0.10687
3590.80864,0.10147
3592.73711,0.09988
3594.66558,0.09993
3596.59405,0.09907
3598.52252,0.10173
3600.45099,0.10543
3602.37946,0.10598
3604.30792,0.10567
3606.23639,0.10402
3608.16486,0.10010
3610.09333,0.09985
3612.02180,0.10573
3613.95027,0.11331
3615.87874,0.11614
3617.80720,0.11169
3619.73567,0.10462
3621.66414,0.10169
3623.59261,0.10290
3625.52108,0.10647
3627.44955,0.11119
3629.37802,0.11087
3631.30649,0.10076
3633.23495,0.09187
3635.16342,0.08947
3637.09189,0.08935
3639.02036,0.08775
3640.94883,0.08852
3642.87730,0.09410
3644.80577,0.10150
3646.73423,0.10730
3648.66270,0.10412
3650.59117,0.08972
3652.51964,0.07973
3654.44811,0.07795
3656.37658,0.08199
3658.30505,0.08519
3660.23352,0.08622
3662.16198,0.08686
3664.09045,0.08491
3666.01892,0.08247
3667.94739,0.08370
3669.87586,0.08768
3671.80433,0.09141
3673.73280,0.09696
3675.66126,0.09957
3677.58973,0.09479
3679.51820,0.09235
3681.44667,0.09320
3683.37514,0.09520
3685.30361,0.09680
3687.23208,0.09884
3689.16055,0.09982
3691.08901,0.09277
3693.01748,0.08393
3694.94595,0.07964
3696.87442,0.08154
3698.80289,0.08862
3700.73136,0.09379
3702.65983,0.09295
3704.58829,0.08925
3706.51676,0.08489
3708.44523,0.08460
3710.37370,0.09186
3712.30217,0.09464
3714.23064,0.08906
3716.15911,0.08459
3718.08757,0.08163
3720.01604,0.08077
3721.94451,0.08304
3723.87298,0.08574
3725.80145,0.08828
3727.72992,0.08829
3729.65839,0.08579
3731.58686,0.08554
3733.51532,0.08465
3735.44379,0.07947
3737.37226,0.07952
3739.30073,0.08441
3741.22920,0.08829
3743.15767,0.08932
3745.08614,0.08864
3747.01460,0.09131
3748.94307,0.09441
3750.87154,0.08752
3752.80001,0.07638
3754.72848,0.07433
3756.65695,0.07696
3758.58542,0.08244
3760.51389,0.08648
3762.44235,0.08389
3764.37082,0.07877
3766.29929,0.07598
3768.22776,0.07548
3770.15623,0.07561
3772.08470,0.07731
3774.01317,0.07888
3775.94163,0.07800
3777.87010,0.07555
3779.79857,0.07364
3781.72704,0.07385
3783.65551,0.07739
3785.58398,0.08244
3787.51245,0.08311
3789.44092,0.08060
3791.36938,0.07992
3793.29785,0.08135
3795.22632,0.08592
3797.15479,0.09252
3799.08326,0.09451
3801.01173,0.08847
3802.94020,0.07757
3804.86866,0.07234
3806.79713,0.07037
3808.72560,0.06965
3810.65407,0.07355
3812.58254,0.07869
3814.51101,0.08154
3816.43948,0.08021
3818.36795,0.07528
3820.29641,0.07487
3822.22488,0.08138
3824.15335,0.08611
3826.08182,0.08749
3828.01029,0.08459
3829.93876,0.07807
3831.86723,0.07072
3833.79569,0.06486
3835.72416,0.06384
3837.65263,0.06968
3839.58110,0.07659
3841.50957,0.08128
3843.43804,0.08360
3845.36651,0.08033
3847.29498,0.07762
3849.22344,0.07984
3851.15191,0.08506
3853.08038,0.09301
3855.00885,0.09364
3856.93732,0.08528
3858.86579,0.07621
3860.79426,0.06957
3862.72272,0.06824
3864.65119,0.07209
3866.57966,0.07646
3868.50813,0.08007
3870.43660,0.08169
3872.36507,0.07912
3874.29354,0.07706
3876.22200,0.07540
3878.15047,0.07260
3880.07894,0.07438
3882.00741,0.08038
3883.93588,0.08050
3885.86435,0.07900
3887.79282,0.08395
3889.72129,0.08874
3891.64975,0.08523
3893.57822,0.07744
3895.50669,0.07462
3897.43516,0.07613
3899.36363,0.08275
3901.29210,0.09088
3903.22057,0.08666
3905.14903,0.07545
3907.07750,0.07101
3909.00597,0.06714
3910.93444,0.06054
3912.86291,0.05958
3914.79138,0.06650
3916.71985,0.07263
3918.64832,0.07189
3920.57678,0.06933
3922.50525,0.07111
3924.43372,0.07407
3926.36219,0.07311
3928.29066,0.07217
3930.21913,0.07667
3932.14760,0.08069
3934.07606,0.07493
3936.00453,0.06979
3937.93300,0.07454
3939.86147,0.08188
3941.78994,0.08423
3943.71841,0.08179
3945.64688,0.07655
3947.57535,0.07027
3949.50381,0.06784
3951.43228,0.07159
3953.36075,0.07611
3955.28922,0.07482
3957.21769,0.06992
3959.14616,0.06782
3961.07463,0.06717
3963.00309,0.06722
3964.93156,0.06916
3966.86003,0.07161
3968.78850,0.07331
3970.71697,0.07330
3972.64544,0.07200
3974.57391,0.06913
3976.50238,0.06558
3978.43084,0.06704
3980.35931,0.07252
3982.28778,0.07300
3984.21625,0.06905
3986.14472,0.06762
3988.07319,0.06879
3990.00166,0.06984
3991.93012,0.07104
3993.85859,0.07545
3995.78706,0.08011
3997.71553,0.08022
3999.64400,0.07624
4001.57247,0.06961
4003.50094,0.06720
4005.42941,0.06975
4007.35787,0.06891
4009.28634,0.06761
4011.21481,0.06810
4013.14328,0.06510
4015.07175,0.06179
4017.00022,0.06151
4018.92869,0.06125
4020.85715,0.06080
4022.78562,0.06077
4024.71409,0.05782
4026.64256,0.05348
4028.57103,0.05523
4030.49950,0.06304
4032.42797,0.06839
4034.35644,0.06580
4036.28490,0.06015
4038.21337,0.05971
4040.14184,0.06610
4042.07031,0.07257
4043.99878,0.07190
4045.92725,0.06674
4047.85572,0.06436
4049.78418,0.06674
4051.71265,0.07068
4053.64112,0.07012
4055.56959,0.06436
4057.49806,0.05889
4059.42653,0.05597
4061.35500,0.05433
4063.28346,0.05396
4065.21193,0.05872
4067.14040,0.06777
4069.06887,0.06976
4070.99734,0.06179
4072.92581,0.05467
4074.85428,0.05447
4076.78275,0.05812
4078.71121,0.06081
4080.63968,0.06192
4082.56815,0.06344
4084.49662,0.06188
4086.42509,0.05671
4088.35356,0.05707
4090.28203,0.06229
4092.21049,0.06421
4094.13896,0.06474
4096.06743,0.06457
4097.99590,0.06500
4099.92437,0.07027
4101.85284,0.07316
4103.78131,0.06825
4105.70978,0.06119
4107.63824,0.05544
4109.56671,0.05302
4111.49518,0.05475
4113.42365,0.05609
4115.35212,0.05579
4117.28059,0.05688
4119.20906,0.05670
4121.13752,0.05452
4123.06599,0.05688
4124.99446,0.06125
4126.92293,0.06010
4128.85140,0.05548
4130.77987,0.05107
4132.70834,0.04892
4134.63681,0.05016
4136.56527,0.05193
4138.49374,0.05194
4140.42221,0.05024
4142.35068,0.05134
4144.27915,0.05793
4146.20762,0.06100
4148.13609,0.05712
4150.06455,0.05520
4151.99302,0.05522
4153.92149,0.05191
4155.84996,0.04924
4157.77843,0.05229
4159.70690,0.05803
4161.63537,0.05973
4163.56384,0.05552
4165.49230,0.05152
4167.42077,0.05210
4169.34924,0.05358
4171.27771,0.05311
4173.20618,0.04980
4175.13465,0.04663
4177.06312,0.05013
4178.99158,0.05719
4180.92005,0.05824
4182.84852,0.05164
4184.77699,0.04584
4186.70546,0.04794
4188.63393,0.05623
4190.56240,0.06173
4192.49087,0.05677
4194.41933,0.04575
4196.34780,0.03922
4198.27627,0.04356
4200.20474,0.05377
4202.13321,0.05841
4204.06168,0.05698
4205.99015,0.05669
4207.91861,0.05876
4209.84708,0.05929
4211.77555,0.05789
4213.70402,0.05486
4215.63249,0.05035
4217.56096,0.04894
4219.48943,0.04895
4221.41789,0.04681
4223.34636,0.04659
4225.27483,0.04824
4227.20330,0.05336
4229.13177,0.06004
4231.06024,0.05580
4232.98871,0.04523
4234.91718,0.03975
4236.84564,0.03606
4238.77411,0.03119
4240.70258,0.03054
4242.63105,0.03806
4244.55952,0.04579
4246.48799,0.04617
4248.41646,0.04338
4250.34492,0.04165
4252.27339,0.03846
4254.20186,0.03628
4256.13033,0.04165
4258.05880,0.04862
4259.98727,0.05014
4261.91574,0.04872
4263.84421,0.04409
4265.77267,0.03707
4267.70114,0.03289
4269.62961,0.03243
4271.55808,0.03477
4273.48655,0.03643
4275.41502,0.03380
4277.34349,0.03214
4279.27195,0.03433
4281.20042,0.03743
4283.12889,0.04135
4285.05736,0.04500
4286.98583,0.04574
4288.91430,0.04235
4290.84277,0.03586
4292.77124,0.03105
4294.69970,0.03259
4296.62817,0.03899
4298.55664,0.04424
4300.48511,0.04660
4302.41358,0.05190
4304.34205,0.05941
4306.27052,0.05469
4308.19898,0.03644
4310.12745,0.02796
4312.05592,0.03832
4313.98439,0.04752
4315.91286,0.04645
4317.84133,0.04518
4319.76980,0.04377
4321.69827,0.03885
4323.62673,0.03533
4325.55520,0.03452
4327.48367,0.03286
4329.41214,0.02891
4331.34061,0.02539
4333.26908,0.02629
4335.19755,0.03076
4337.12601,0.03050
4339.05448,0.02158
4340.98295,0.01485
4342.91142,0.01784
4344.83989,0.02114
4346.76836,0.01773
4348.69683,0.01506
4350.62530,0.02029
4352.55376,0.02981
4354.48223,0.03525
4356.41070,0.03317
4358.33917,0.03068
4360.26764,0.03190
4362.19611,0.02981
4364.12458,0.02799
4366.05304,0.03360
4367.98151,0.03890
4369.90998,0.03991
4371.83845,0.04016
4373.76692,0.03856
4375.69539,0.03166
4377.62386,0.02529
4379.55232,0.02556
4381.48079,0.02773
4383.40926,0.03203
4385.33773,0.03766
4387.26620,0.03661
4389.19467,0.02906
4391.12314,0.02271
4393.05161,0.02258
4394.98007,0.02467
4396.90854,0.02267
4398.83701,0.01479
4400.76548,0.00373
4402.69395,-0.00178
4404.62242,0.00575
4406.55089,0.02106
4408.47935,0.02790
4410.40782,0.01983
4412.33629,0.01068
4414.26476,0.01225
4416.19323,0.01900
4418.12170,0.02012
4420.05017,0.01501
4421.97864,0.01347
4423.90710,0.01753
4425.83557,0.02056
4427.76404,0.02426
4429.69251,0.02887
4431.62098,0.02717
4433.54945,0.02188
4435.47792,0.02207
4437.40638,0.02705
4439.33485,0.02946
4441.26332,0.02651
4443.19179,0.02161
4445.12026,0.01918
4447.04873,0.01744
4448.97720,0.01351
4450.90567,0.01224
4452.83413,0.01309
4454.76260,0.01207
4456.69107,0.01252
4458.61954,0.01621
4460.54801,0.02475
4462.47648,0.03361
4464.40495,0.03142
4466.33341,0.02436
4468.26188,0.02396
4470.19035,0.02202
4472.11882,0.01675
4474.04729,0.01976
4475.97576,0.02383
4477.90423,0.02075
4479.83270,0.01756
4481.76116,0.01579
4483.68963,0.01427
4485.61810,0.01628
4487.54657,0.02401
4489.47504,0.02905
4491.40351,0.02419
4493.33198,0.01872
4495.26044,0.02066
4497.18891,0.02709
4499.11738,0.03123
4501.04585,0.02744
4502.97432,0.02242
4504.90279,0.02571
4506.83126,0.03030
4508.75973,0.02833
4510.68819,0.02249
4512.61666,0.01642
4514.54513,0.01487
4516.47360,0.01481
4518.40207,0.01104
4520.33054,0.00962
4522.25901,0.00988
4524.18747,0.00715
4526.11594,0.00765
4528.04441,0.01199
4529.97288,0.01235
4531.90135,0.00870
4533.82982,0.00502
4535.75829,0.00332
4537.68676,0.01331
4539.61522,0.03294
4541.54369,0.03590
4543.47216,0.02033
4545.40063,0.00694
4547.32910,0.00075
4549.25757,0.00495
4551.18604,0.01422
4553.11450,0.01063
4555.04297,0.00108
4556.97144,0.00328
4558.89991,0.01218
4560.82838,0.01948
4562.75685,0.01993
4564.68532,0.00857
4566.61378,0.00166
4568.54225,0.01134
4570.47072,0.01616
4572.39919,0.00309
4574.32766,-0.01150
4576.25613,-0.01494
4578.18460,-0.01076
4580.11307,-0.01146
4582.04153,-0.01613
4583.97000,-0.01112
4585.89847,-0.00260
4587.82694,-0.00113
4589.75541,-0.00248
4591.68388,0.00134
4593.61235,0.01284
4595.54081,0.02637
4597.46928,0.03555
4599.39775,0.03511
4601.32622,0.02291
4603.25469,0.00810
4605.18316,0.00385
4607.11163,0.00592
4609.04010,0.00517
4610.96856,0.00644
4612.89703,0.01152
4614.82550,0.01807
4616.75397,0.01874
4618.68244,0.00461
4620.61091,-0.01055
4622.53938,-0.00652
4624.46784,0.00795
4626.39631,0.01430
4628.32478,0.01296
4630.25325,0.00909
4632.18172,0.00740
4634.11019,0.00987
4636.03866,0.00742
4637.96713,-0.00179
4639.89559,-0.00932
4641.82406,-0.01043
4643.75253,-0.00571
4645.68100,0.00272
4647.60947,0.00952
4649.53794,0.00716
4651.46641,-0.00237
4653.39487,-0.00864
4655.32334,-0.00634
4657.25181,-0.00022
4659.18028,0.00492
4661.10875,0.00675
4663.03722,0.00785
4664.96569,0.01653
4666.89416,0.02866
4668.82262,0.02731
4670.75109,0.01221
4672.67956,-0.00292
4674.60803,-0.01006
4676.53650,-0.00548
4678.46497,0.00743
4680.39344,0.01689
4682.32190,0.01989
4684.25037,0.01662
4686.17884,0.00672
4688.10731,0.00256
4690.03578,0.00729
4691.96425,0.01198
4693.89272,0.01897
4695.82119,0.02286
4697.74965,0.01708
4699.67812,0.01237
4701.60659,0.00663
4703.53506,-0.00159
4705.46353,0.00585
4707.39200,0.02340
4709.32047,0.03288
4711.24893,0.02772
4713.17740,0.00784
4715.10587,-0.00944
4717.03434,-0.01240
4718.96281,-0.00570
4720.89128,0.00425
4722.81975,0.00729
4724.74821,0.00581
4726.67668,0.00919
4728.60515,0.01320
4730.53362,0.01340
4732.46209,0.01147
4734.39056,0.00726
4736.31903,0.00207
4738.24750,0.00054
4740.17596,0.00342
4742.10443,0.00482
4744.03290,-0.00405
4745.96137,-0.01468
4747.88984,-0.00908
4749.81831,0.00365
4751.74678,0.00889
4753.67524,0.01202
4755.60371,0.01559
4757.53218,0.01045
4759.46065,-0.00604
4761.38912,-0.01268
4763.31759,0.00071
4765.24606,0.00952
4767.17453,0.00346
4769.10299,-0.00290
4771.03146,-0.00511
4772.95993,-0.00167
4774.88840,0.00820
4776.81687,0.01234
4778.74534,0.00770
4780.67381,0.00754
4782.60227,0.01260
4784.53074,0.01124
4786.45921,0.00122
4788.38768,-0.00125
4790.31615,0.00494
4792.24462,0.00825
4794.17309,0.00564
4796.10156,-0.00341
4798.03002,-0.01159
4799.95849,-0.00588
4801.88696,0.00659
4803.81543,0.00627
4805.74390,-0.00341
4807.67237,-0.00359
4809.60084,0.00281
4811.52930,0.00410
4813.45777,0.00247
4815.38624,-0.00244
4817.31471,-0.00550
4819.24318,0.00078
4821.17165,0.00422
4823.10012,0.00439
4825.02859,0.01055
4826.95705,0.00910
4828.88552,-0.00208
4830.81399,-0.00592
4832.74246,0.00159
4834.67093,0.01943
4836.59940,0.03708
4838.52787,0.03059
4840.45633,0.00060
4842.38480,-0.02515
4844.31327,-0.02864
4846.24174,-0.01880
4848.17021,-0.01424
4850.09868,-0.01575
4852.02715,-0.01862
4853.95562,-0.01951
4855.88408,-0.01277
4857.81255,-0.00109
4859.74102,0.01034
4861.66949,0.01626
4863.59796,0.01449
4865.52643,0.01184
4867.45490,0.01262
4869.38336,0.01094
4871.31183,0.00525
4873.24030,0.00774
4875.16877,0.02023
4877.09724,0.02741
4879.02571,0.02174
4880.95418,0.01269
4882.88265,0.00934
4884.81111,0.00824
4886.73958,0.00705
4888.66805,0.00929
4890.59652,0.01196
4892.52499,0.00697
4894.45346,0.00452
4896.38193,0.01232
4898.31039,0.01246
4900.23886,0.00604
4902.16733,0.00810
4904.09580,0.01429
4906.02427,0.01868
4907.95274,0.01610
4909.88121,0.00608
4911.80967,0.00206
4913.73814,0.00765
4915.66661,0.01555
4917.59508,0.02359
4919.52355,0.02003
4921.45202,0.00018
4923.38049,-0.00763
4925.30896,0.00819
4927.23742,0.02131
4929.16589,0.02232
4931.09436,0.02229
4933.02283,0.01739
4934.95130,0.00221
4936.87977,-0.00920
4938.80824,-0.00088
4940.73670,0.01981
4942.66517,0.02989
4944.59364,0.02442
4946.52211,0.01592
4948.45058,0.01326
4950.37905,0.01459
4952.30752,0.01336
4954.23599,0.01537
4956.16445,0.01975
4958.09292,0.01480
4960.02139,0.00928
4961.94986,0.01758
4963.87833,0.03313
4965.80680,0.03216
4967.73527,0.01252
4969.66373,0.00037
4971.59220,0.00295
4973.52067,0.01037
4975.44914,0.01531
4977.37761,0.01415
4979.30608,0.00814
4981.23455,-0.00420
4983.16302,-0.01263
4985.09148,0.00190
4987.01995,0.02550
4988.94842,0.03100
4990.87689,0.01633
4992.80536,-0.00929
4994.73383,-0.02889
4996.66230,-0.02679
4998.59076,-0.01466
5000.51923,-0.00801
5002.44770,0.00267
5004.37617,0.01333
5006.30464,0.00035
5008.23311,-0.01264
5010.16158,0.00359
5012.09005,0.02008
5014.01851,0.01825
5015.94698,0.01435
5017.87545,0.01558
5019.80392,0.02156
5021.73239,0.02026
5023.66086,0.00035
5025.58933,-0.02249
5027.51779,-0.03257
5029.44626,-0.03164
5031.37473,-0.03058
5033.30320,-0.03308
5035.23167,-0.02439
5037.16014,-0.00909
5039.08861,0.00083
5041.01708,0.01254
5042.94554,0.01563
5044.87401,0.00391
5046.80248,0.00112
5048.73095,0.01517
5050.65942,0.02342
5052.58789,0.01182
5054.51636,-0.00085
5056.44482,0.00411
5058.37329,0.01176
5060.30176,0.00209
5062.23023,-0.01009
5064.15870,-0.00742
5066.08717,-0.00418
5068.01564,-0.00369
5069.94410,0.00475
5071.87257,0.01189
5073.80104,0.01312
5075.72951,0.02069
5077.65798,0.03181
5079.58645,0.03292
5081.51492,0.03060
5083.44339,0.03027
5085.37185,0.02681
5087.30032,0.02306
5089.22879,0.01399
5091.15726,0.00330
5093.08573,0.00881
5095.01420,0.02306
5096.94267,0.02819
5098.87113,0.02391
5100.79960,0.01898
5102.72807,0.02080
5104.65654,0.03447
5106.58501,0.04928
5108.51348,0.04709
5110.44195,0.02789
5112.37042,0.00624
5114.29888,0.00392
5116.22735,0.01969
5118.15582,0.03283
5120.08429,0.04155
5122.01276,0.04169
5123.94123,0.03227
5125.86970,0.02781
5127.79816,0.02183
5129.72663,0.00714
5131.65510,-0.00291
5133.58357,-0.00061
5135.51204,0.01300
5137.44051,0.02504
5139.36898,0.02324
5141.29745,0.01973
5143.22591,0.02171
5145.15438,0.02204
5147.08285,0.02256
5149.01132,0.01736
5150.93979,0.00474
5152.86826,-0.00112
5154.79673,0.00021
5156.72519,0.00421
5158.65366,0.00736
5160.58213,0.01068
5162.51060,0.01921
5164.43907,0.02224
5166.36754,0.01776
5168.29601,0.01490
5170.22448,0.01759
5172.15294,0.02592
5174.08141,0.02970
5176.00988,0.02364
5177.93835,0.01073
5179.86682,-0.00285
5181.79529,-0.01033
5183.72376,-0.00718
5185.65222,0.01506
5187.58069,0.04440
5189.50916,0.05426
5191.43763,0.03832
5193.36610,0.00942
5195.29457,-0.00615
5197.22304,0.00694
5199.15151,0.02180
5201.07997,0.01570
5203.00844,0.01853
5204.93691,0.04068
5206.86538,0.04555
5208.79385,0.02558
5210.72232,0.00108
5212.65079,-0.01026
5214.57925,0.00656
5216.50772,0.03517
5218.43619,0.04540
5220.36466,0.03369
5222.29313,0.02355
5224.22160,0.02195
5226.15007,0.01851
5228.07854,0.01063
5230.00700,0.00473
5231.93547,0.00794
5233.86394,0.01889
5235.79241,0.03569
5237.72088,0.04588
5239.64935,0.02932
5241.57782,0.00136
5243.50628,-0.00383
5245.43475,0.00847
5247.36322,0.01413
5249.29169,0.02054
5251.22016,0.02928
5253.14863,0.03581
5255.07710,0.04802
5257.00556,0.05400
5258.93403,0.03991
5260.86250,0.02322
5262.79097,0.02018
5264.71944,0.02513
5266.64791,0.03684
5268.57638,0.05257
5270.50485,0.06247
5272.43331,0.05209
5274.36178,0.02850
5276.29025,0.02318
5278.21872,0.03793
5280.14719,0.05626
5282.07566,0.07004
5284.00413,0.07076
5285.93259,0.06656
5287.86106,0.06698
5289.78953,0.05717
5291.71800,0.03333
5293.64647,0.01535
5295.57494,0.01190
5297.50341,0.02194
5299.43188,0.03898
5301.36034,0.04785
5303.28881,0.04119
5305.21728,0.04290
5307.14575,0.06081
5309.07422,0.06237
5311.00269,0.05501
5312.93116,0.06310
5314.85962,0.06699
5316.78809,0.05845
5318.71656,0.05889
5320.64503,0.05665
5322.57350,0.02847
5324.50197,0.00240
5326.43044,0.02337
5328.35891,0.06957
5330.28737,0.08067
5332.21584,0.06121
5334.14431,0.04709
5336.07278,0.04390
5338.00125,0.04122
5339.92972,0.03616
5341.85819,0.04182
5343.78665,0.06047
5345.71512,0.06421
5347.64359,0.05015
5349.57206,0.03978
5351.50053,0.03464
5353.42900,0.03712
5355.35747,0.03693
5357.28594,0.02934
5359.21440,0.03365
5361.14287,0.04914
5363.07134,0.06483
5364.99981,0.07013
5366.92828,0.06203
5368.85675,0.04929
5370.78522,0.03307
5372.71368,0.02357
5374.64215,0.03151
5376.57062,0.04631
5378.49909,0.04030
5380.42756,0.01658
5382.35603,0.01014
5384.28450,0.01755
5386.21297,0.01715
5388.14143,0.02408
5390.06990,0.02455
5391.99837,0.00804
5393.92684,0.00441
5395.85531,0.02172
5397.78378,0.04494
5399.71225,0.06293
5401.64071,0.05899
5403.56918,0.02523
5405.49765,-0.01012
5407.42612,-0.01095
5409.35459,0.00943
5411.28306,0.03425
5413.21153,0.07314
5415.13999,0.09892
5417.06846,0.08366
5418.99693,0.05108
5420.92540,0.02868
5422.85387,0.01749
5424.78234,0.01789
5426.71081,0.03415
5428.63928,0.05058
5430.56774,0.04418
5432.49621,0.02681
5434.42468,0.02336
5436.35315,0.03351
5438.28162,0.03712
5440.21009,0.01929
5442.13856,-0.00716
5444.06702,-0.01448
5445.99549,-0.00359
5447.92396,0.01124
5449.85243,0.02515
5451.78090,0.03699
5453.70937,0.04460
5455.63784,0.04751
5457.56631,0.04112
5459.49477,0.02547
5461.42324,0.02104
5463.35171,0.03893
5465.28018,0.05674
5467.20865,0.05116
5469.13712,0.02997
5471.06559,0.01410
5472.99405,0.00307
5474.92252,0.00677
5476.85099,0.05124
5478.77946,0.10456
5480.70793,0.11709
5482.63640,0.09208
5484.56487,0.06526
5486.49334,0.05397
5488.42180,0.05667
5490.35027,0.06970
5492.27874,0.07454
5494.20721,0.04552
5496.13568,0.00170
5498.06415,-0.01593
5499.99262,0.00445
5501.92108,0.03529
5503.84955,0.04421
5505.77802,0.03104
5507.70649,0.02380
5509.63496,0.03081
5511.56343,0.02607
5513.49190,0.01003
5515.42037,0.01338
5517.34883,0.01927
5519.27730,0.00608
5521.20577,0.01743
5523.13424,0.04721
5525.06271,0.04140
5526.99118,0.02539
5528.91965,0.02614
5530.84811,0.02361
5532.77658,0.01515
5534.70505,0.01198
5536.63352,0.01598
5538.56199,0.01522
5540.49046,0.01342
5542.41893,0.01883
5544.34740,0.01591
5546.27586,0.00646
5548.20433,0.01329
5550.13280,0.03943
5552.06127,0.06062
5553.98974,0.06025
5555.91821,0.04286
5557.84668,0.01493
5559.77514,0.00342
5561.70361,0.03251
5563.63208,0.07320
5565.56055,0.07476
5567.48902,0.04586
5569.41749,0.03120
5571.34596,0.02946
5573.27443,0.03439
5575.20289,0.05564
5577.13136,0.08449
5579.05983,0.10869
5580.98830,0.11141
5582.91677,0.09879
5584.84524,0.09555
5586.77371,0.09426
5588.70217,0.09170
5590.63064,0.09085
5592.55911,0.07903
5594.48758,0.07030
5596.41605,0.07748
5598.34452,0.06869
5600.27299,0.03173
5602.20145,0.01052
5604.12992,0.02573
5606.05839,0.03879
5607.98686,0.02401
5609.91533,0.01079
5611.84380,0.02239
5613.77227,0.03948
5615.70074,0.06533
5617.62920,0.09429
5619.55767,0.08078
5621.48614,0.03880
5623.41461,0.01766
5625.34308,0.01901
5627.27155,0.01115
5629.20002,-0.00746
5631.12848,-0.00516
5633.05695,0.02281
5634.98542,0.05670
5636.91389,0.06597
5638.84236,0.05066
5640.77083,0.05054
5642.69930,0.07778
5644.62777,0.10786
5646.55623,0.10896
5648.48470,0.06593
5650.41317,0.01387
5652.34164,0.00728
5654.27011,0.04300
5656.19858,0.07581
5658.12705,0.07731
5660.05551,0.05993
5661.98398,0.04879
5663.91245,0.04377
5665.84092,0.04830
5667.76939,0.06866
5669.69786,0.09032
5671.62633,0.08728
5673.55480,0.05121
5675.48326,0.01606
5677.41173,0.01946
5679.34020,0.04222
5681.26867,0.04822
5683.19714,0.04798
5685.12561,0.06232
5687.05408,0.07921
5688.98254,0.08866
5690.91101,0.10000
5692.83948,0.10145
5694.76795,0.07521
5696.69642,0.05206
5698.62489,0.07425
5700.55336,0.10024
5702.48183,0.08429
5704.41029,0.06661
5706.33876,0.06337
5708.26723,0.05510
5710.19570,0.04818
5712.12417,0.04241
5714.05264,0.02789
5715.98111,0.01047
5717.90957,0.01012
5719.83804,0.03458
5721.76651,0.05910
5723.69498,0.05997
5725.62345,0.04656
5727.55192,0.04429
5729.48039,0.05971
5731.40886,0.06981
5733.33732,0.05589
5735.26579,0.04227
5737.19426,0.07388
5739.12273,0.09974
5741.05120,0.06470
5742.97967,0.04008
5744.90814,0.04261
5746.83660,0.03515
5748.76507,0.03620
5750.69354,0.04680
5752.62201,0.04722
5754.55048,0.04117
5756.47895,0.05216
5758.40742,0.08308
5760.33588,0.10627
5762.26435,0.11362
5764.19282,0.11005
5766.12129,0.09734
5768.04976,0.09133
5769.97823,0.10563
5771.90670,0.11886
5773.83517,0.09484
5775.76363,0.05903
5777.69210,0.05744
5779.62057,0.07093
5781.54904,0.07549
5783.47751,0.07618
5785.40598,0.06449
5787.33445,0.04160
5789.26291,0.02955
5791.19138,0.01628
5793.11985,-0.01857
5795.04832,-0.03082
5796.97679,-0.00002
5798.90526,0.03321
5800.83373,0.05310
5802.76220,0.06149
5804.69066,0.06210
5806.61913,0.05517
5808.54760,0.04118
5810.47607,0.04189
5812.40454,0.06166
5814.33301,0.06488
5816.26148,0.04892
5818.18994,0.03904
5820.11841,0.04875
5822.04688,0.08888
5823.97535,0.12474
5825.90382,0.13050
5827.83229,0.13045
5829.76076,0.14267
5831.68923,0.15061
5833.61769,0.12247
5835.54616,0.07189
5837.47463,0.04234
5839.40310,0.04885
5841.33157,0.07114
5843.26004,0.07678
5845.18851,0.05832
5847.11697,0.03595
5849.04544,0.01805
5850.97391,-0.00092
5852.90238,0.00506
5854.83085,0.04299
5856.75932,0.07475
5858.68779,0.08824
5860.61626,0.09414
5862.54472,0.08723
5864.47319,0.07229
5866.40166,0.04949
5868.33013,-0.00029
5870.25860,-0.03344
5872.18707,0.00842
5874.11554,0.07584
5876.04400,0.09487
5877.97247,0.09755
5879.90094,0.11650
5881.82941,0.10473
5883.75788,0.06186
5885.68635,0.04195
5887.61482,0.07225
5889.54329,0.11800
5891.47175,0.11105
5893.40022,0.05902
5895.32869,0.03132
5897.25716,0.04313
5899.18563,0.06287
5901.11410,0.07135
5903.04257,0.05349
5904.97103,0.03051
5906.89950,0.03691
5908.82797,0.04892
5910.75644,0.05070
5912.68491,0.05337
5914.61338,0.02928
5916.54185,-0.01600
5918.47032,-0.01341
5920.39878,0.04805
5922.32725,0.10431
5924.25572,0.11565
5926.18419,0.08430
5928.11266,0.03828
5930.04113,0.01108
5931.96960,0.03369
5933.89806,0.09356
5935.82653,0.10184
5937.75500,0.05563
5939.68347,0.05411
5941.61194,0.11158
5943.54041,0.14932
5945.46888,0.11430
5947.39734,0.04021
5949.32581,0.01316
5951.25428,0.06186
5953.18275,0.10910
5955.11122,0.10927
5957.03969,0.09679
5958.96816,0.08996
5960.89663,0.07953
5962.82509,0.06257
5964.75356,0.04866
5966.68203,0.06673
5968.61050,0.10489
5970.53897,0.12071
5972.46744,0.12984
5974.39591,0.11229
5976.32437,0.03359
5978.25284,-0.01742
5980.18131,0.00149
5982.10978,0.01492
5984.03825,0.01754
5985.96672,0.04766
5987.89519,0.07008
5989.82366,0.06234
5991.75212,0.04086
5993.68059,0.03214
5995.60906,0.06214
5997.53753,0.08547
5999.46600,0.07035
6001.39447,0.06306
6003.32294,0.07506
6005.25140,0.06994
6007.17987,0.04320
6009.10834,0.02776
6011.03681,0.05378
6012.96528,0.09562
6014.89375,0.09341
6016.82222,0.05706
6018.75069,0.04329
6020.67915,0.05356
6022.60762,0.07706
6024.53609,0.10942
6026.46456,0.10600
6028.39303,0.07327
6030.32150,0.07730
6032.24997,0.09122
6034.17843,0.08130
6036.10690,0.08182
6038.03537,0.07737
6039.96384,0.07114
6041.89231,0.07794
6043.82078,0.05298
6045.74925,0.00805
6047.67772,0.00456
6049.60618,0.04398
6051.53465,0.06710
6053.46312,0.07346
6055.39159,0.11557
6057.32006,0.16382
6059.24853,0.17822
6061.17700,0.17288
6063.10546,0.12611
6065.03393,0.07199
6066.96240,0.08999
6068.89087,0.14639
6070.81934,0.15834
6072.74781,0.12410
6074.67628,0.06719
6076.60475,-0.00600
6078.53321,-0.04362
6080.46168,-0.01569
6082.39015,0.02666
6084.31862,0.04041
6086.24709,0.02502
6088.17556,0.00088
6090.10403,-0.00028
6092.03249,0.03444
6093.96096,0.07689
6095.88943,0.07542
6097.81790,0.00770
6099.74637,-0.04868
6101.67484,-0.01390
6103.60331,0.04173
6105.53177,0.03764
6107.46024,0.01810
6109.38871,0.04550
6111.31718,0.09124
6113.24565,0.11648
6115.17412,0.12211
6117.10259,0.11150
6119.03106,0.07400
6120.95952,0.01508
6122.88799,-0.00345
6124.81646,0.03224
6126.74493,0.05820
6128.67340,0.04219
6130.60187,0.02315
6132.53034,0.03715
6134.45880,0.06496
6136.38727,0.06178
6138.31574,0.02078
6140.24421,-0.00854
6142.17268,0.00759
6144.10115,0.06443
6146.02962,0.14097
6147.95809,0.19043
6149.88655,0.17086
6151.81502,0.10608
6153.74349,0.06364
6155.67196,0.06586
6157.60043,0.08531
6159.52890,0.09803
6161.45737,0.09898
6163.38583,0.08119
6165.31430,0.04836
6167.24277,0.00202
6169.17124,-0.03911
6171.09971,-0.02359
6173.02818,0.04048
6174.95665,0.08827
6176.88512,0.08557
6178.81358,0.07479
6180.74205,0.08070
6182.67052,0.06817
6184.59899,0.04981
6186.52746,0.04298
6188.45593,0.05427
6190.38440,0.10252
6192.31286,0.15817
6194.24133,0.17428
6196.16980,0.16660
6198.09827,0.15501
6200.02674,0.12100
6201.95521,0.07826
6203.88368,0.05935
6205.81215,0.07432
6207.74061,0.08122
6209.66908,0.07127
6211.59755,0.10506
6213.52602,0.15908
6215.45449,0.15279
6217.38296,0.09700
6219.31143,0.06568
6221.23989,0.07798
6223.16836,0.10668
6225.09683,0.09305
6227.02530,0.03141
6228.95377,0.01179
6230.88224,0.04921
6232.81071,0.07243
6234.73918,0.07473
6236.66764,0.10326
6238.59611,0.13979
6240.52458,0.15378
6242.45305,0.15497
6244.38152,0.12152
6246.30999,0.06418
6248.23846,0.06323
6250.16692,0.11162
6252.09539,0.11923
6254.02386,0.07671
6255.95233,0.04424
6257.88080,0.04839
6259.80927,0.05846
6261.73774,0.05053
6263.66621,0.04388
6265.59467,0.04191
6267.52314,0.03590
6269.45161,0.03501
6271.38008,0.01914
6273.30855,-0.01063
6275.23702,0.00137
6277.16549,0.02275
6279.09395,0.01483
6281.02242,0.04233
6282.95089,0.07667
6284.87936,0.05281
6286.80783,0.02483
6288.73630,0.02897
6290.66477,0.05994
6292.59323,0.10654
6294.52170,0.11630
6296.45017,0.06941
6298.37864,0.00838
6300.30711,-0.00315
6302.23558,0.09046
6304.16405,0.19012
6306.09252,0.18765
6308.02098,0.14276
6309.94945,0.08427
6311.87792,0.03542
6313.80639,0.07168
6315.73486,0.12747
6317.66333,0.11167
6319.59180,0.06605
6321.52026,0.07213
6323.44873,0.10056
6325.37720,0.05798
6327.30567,-0.01629
6329.23414,-0.01758
6331.16261,0.04210
6333.09108,0.08951
6335.01955,0.10003
6336.94801,0.08571
6338.87648,0.07691
6340.80495,0.06943
6342.73342,0.04493
6344.66189,0.00550
6346.59036,-0.01740
6348.51883,0.03193
6350.44729,0.10074
6352.37576,0.11639
6354.30423,0.11930
6356.23270,0.13063
6358.16117,0.12776
6360.08964,0.09994
6362.01811,0.09144
6363.94658,0.11894
6365.87504,0.11668
6367.80351,0.08321
6369.73198,0.05189
6371.66045,0.02514
6373.58892,0.03139
6375.51739,0.03408
6377.44586,-0.00683
6379.37432,-0.03028
6381.30279,-0.02085
6383.23126,-0.03018
6385.15973,-0.00695
6387.08820,0.06646
6389.01667,0.09012
6390.94514,0.07016
6392.87361,0.05523
6394.80207,0.04762
6396.73054,0.06793
6398.65901,0.06497
6400.58748,0.00999
6402.51595,-0.01425
6404.44442,0.00368
6406.37289,0.01581
6408.30135,0.03219
6410.22982,0.06085
6412.15829,0.09198
6414.08676,0.11241
6416.01523,0.11195
6417.94370,0.09531
6419.87217,0.06414
6421.80064,0.03908
6423.72910,0.03027
6425.65757,0.02092
6427.58604,0.02373
6429.51451,0.06124
6431.44298,0.10633
6433.37145,0.07429
6435.29992,-0.01218
6437.22838,-0.03967
6439.15685,-0.00389
6441.08532,0.00381
6443.01379,-0.01970
6444.94226,-0.01752
6446.87073,-0.02092
6448.79920,-0.06751
6450.72766,-0.11524
6452.65613,-0.12385
6454.58460,-0.07942
6456.51307,0.00334
6458.44154,0.05934
6460.37001,0.04915
6462.29848,0.05011
6464.22695,0.09238
6466.15541,0.10385
6468.08388,0.07883
6470.01235,0.07750
6471.94082,0.09936
6473.86929,0.10570
6475.79776,0.09231
6477.72623,0.06589
6479.65469,0.05719
6481.58316,0.04791
6483.51163,0.00506
6485.44010,-0.03989
6487.36857,-0.03894
6489.29704,0.00500
6491.22551,0.05841
6493.15398,0.12294
6495.08244,0.19870
6497.01091,0.24268
6498.93938,0.22560
6500.86785,0.15481
6502.79632,0.08363
6504.72479,0.03652
6506.65326,0.02144
6508.58172,0.05789
6510.51019,0.10788
6512.43866,0.10713
6514.36713,0.03367
6516.29560,-0.08537
6518.22407,-0.19126
6520.15254,-0.20942
6522.08101,-0.14160
6524.00947,-0.05077
6525.93794,0.01729
6527.86641,0.04854
6529.79488,0.05258
6531.72335,0.03183
6533.65182,0.01199
6535.58029,0.04150
6537.50875,0.09982
6539.43722,0.11307
6541.36569,0.04140
6543.29416,-0.06608
6545.22263,-0.09094
6547.15110,0.01835
6549.07957,0.16915
6551.00804,0.19098
6552.93650,0.07862
6554.86497,0.01496
6556.79344,0.07935
6558.72191,0.16216
6560.65038,0.15616
6562.57885,0.08828
6564.50732,0.01732
6566.43578,-0.00977
6568.36425,0.05288
6570.29272,0.13729
6572.22119,0.14047
6574.14966,0.11972
6576.07813,0.13619
6578.00660,0.12662
6579.93507,0.06022
6581.86353,-0.02455
6583.79200,-0.07024
6585.72047,-0.05049
6587.64894,-0.00564
6589.57741,0.04739
6591.50588,0.10469
6593.43435,0.13895
6595.36281,0.16608
6597.29128,0.20321
6599.21975,0.19776
6601.14822,0.10830
6603.07669,-0.00475
6605.00516,-0.05456
6606.93363,-0.04976
6608.86210,-0.05151
6610.79056,-0.08136
6612.71903,-0.08745
6614.64750,-0.02297
6616.57597,0.04744
6618.50444,0.07146
6620.43291,0.06410
6622.36138,-0.01235
6624.28984,-0.12693
6626.21831,-0.20835
6628.14678,-0.24639
6630.07525,-0.16811
6632.00372,-0.01801
6633.93219,0.04184
6635.86066,0.02312
6637.78912,0.05208
6639.71759,0.12609
6641.64606,0.16179
6643.57453,0.13468
6645.50300,0.09464
6647.43147,0.05068
6649.35994,-0.01262
6651.28841,-0.05515
6653.21687,-0.04662
6655.14534,0.02101
6657.07381,0.12022
6659.00228,0.16312
6660.93075,0.14340
6662.85922,0.11756
6664.78769,0.09767
6666.71615,0.06341
6668.64462,0.01124
6670.57309,-0.02128
6672.50156,-0.02541
6674.43003,0.04279
6676.35850,0.19157
6678.28697,0.26562
6680.21544,0.23103
6682.14390,0.17871
6684.07237,0.10317
6686.00084,0.05174
6687.92931,0.09781
6689.85778,0.13913
6691.78625,0.09167
6693.71472,0.04517
6695.64318,0.02596
6697.57165,-0.01247
6699.50012,-0.02927
6701.42859,0.03202
6703.35706,0.11572
6705.28553,0.13081
6707.21400,0.10035
6709.14247,0.10428
6711.07093,0.09694
6712.99940,0.04111
6714.92787,0.00435
6716.85634,0.00762
6718.78481,0.00827
6720.71328,0.03221
6722.64175,0.06979
6724.57021,0.04281
6726.49868,0.01192
6728.42715,0.03935
6730.35562,0.03580
6732.28409,-0.04474
6734.21256,-0.07692
6736.14103,0.01164
6738.06950,0.09397
6739.99796,0.06833
6741.92643,-0.00580
6743.85490,-0.00904
6745.78337,0.07844
6747.71184,0.16723
6749.64031,0.17075
6751.56878,0.12835
6753.49724,0.10706
6755.42571,0.10084
6757.35418,0.06286
6759.28265,-0.02528
6761.21112,-0.09343
6763.13959,-0.07032
6765.06806,-0.00772
6766.99653,0.00281
6768.92499,-0.05270
6770.85346,-0.08613
6772.78193,-0.05588
6774.71040,-0.03900
6776.63887,-0.00586
6778.56734,0.10672
6780.49581,0.16381
6782.42427,0.10313
6784.35274,0.04021
6786.28121,0.05736
6788.20968,0.09235
6790.13815,0.04681
6792.06662,-0.03264
6793.99509,-0.05374
6795.92355,-0.01836
6797.85202,0.05155
6799.78049,0.13151
6801.70896,0.16761
6803.63743,0.10213
6805.56590,0.00877
6807.49437,0.01374
6809.42284,0.08982
6811.35130,0.08024
6813.27977,-0.03697
6815.20824,-0.07914
6817.13671,-0.03454
6819.06518,-0.02580
6820.99365,-0.03513
6822.92212,-0.03120
6824.85058,-0.07620
6826.77905,-0.09434
6828.70752,0.00596
6830.63599,0.11127
6832.56446,0.13915
6834.49293,0.14711
6836.42140,0.13804
6838.34987,0.11361
6840.27833,0.08801
6842.20680,0.05248
6844.13527,0.02275
6846.06374,0.01421
6847.99221,0.03664
6849.92068,0.05658
6851.84915,0.03043
6853.77761,-0.00436
6855.70608,-0.00457
6857.63455,0.02323
6859.56302,0.04871
6861.49149,0.07426
6863.41996,0.09538
6865.34843,0.08177
6867.27690,0.01185
6869.20536,-0.03473
6871.13383,0.02290
6873.06230,0.13505
6874.99077,0.19093
6876.91924,0.16527
6878.84771,0.09508
6880.77618,0.02446
6882.70464,0.03080
6884.63311,0.10951
6886.56158,0.14347
6888.49005,0.10922
6890.41852,0.02459
6892.34699,-0.09644
6894.27546,-0.09313
6896.20393,0.06545
6898.13239,0.15970
6900.06086,0.09307
6901.98933,0.05753
6903.91780,0.16902
6905.84627,0.25692
6907.77474,0.17971
6909.70321,0.08438
6911.63167,0.05876
6913.56014,0.05533
6915.48861,0.02305
6917.41708,-0.03014
6919.34555,-0.05958
6921.27402,-0.01928
6923.20249,0.04690
6925.13096,0.07340
6927.05942,0.06851
6928.98789,0.01808
6930.91636,-0.05533
6932.84483,-0.06775
6934.77330,-0.06522
6936.70177,-0.10022
6938.63024,-0.12456
6940.55870,-0.08191
6942.48717,-0.01687
6944.41564,-0.00049
6946.34411,-0.04423
6948.27258,-0.09904
6950.20105,-0.08762
6952.12952,-0.02492
6954.05799,0.04368
6955.98645,0.10483
6957.91492,0.13026
6959.84339,0.08209
6961.77186,-0.04108
6963.70033,-0.09769
6965.62880,-0.01330
6967.55727,0.08490
6969.48573,0.13916
6971.41420,0.19458
6973.34267,0.18354
6975.27114,0.15131
6977.19961,0.21330
6979.12808,0.27244
6981.05655,0.26468
6982.98501,0.20331
6984.91348,0.13398
6986.84195,0.17021
6988.77042,0.20823
6990.69889,0.13717
6992.62736,0.14775
6994.55583,0.21242
6996.48430,0.14010
6998.41276,0.03387
7000.34123,0.01035
7002.26970,0.00305
7004.19817,0.02731
7006.12664,0.03156
7008.05511,-0.02538
7009.98358,-0.06412
7011.91204,-0.05008
7013.84051,0.01180
7015.76898,0.05526
7017.69745,0.08038
7019.62592,0.13223
7021.55439,0.16669
7023.48286,0.15540
7025.41133,0.10464
7027.33979,0.04166
7029.26826,0.02990
7031.19673,0.05486
7033.12520,0.08606
7035.05367,0.18026
7036.98214,0.22951
7038.91061,0.14186
7040.83907,0.09826
7042.76754,0.22288
7044.69601,0.31403
7046.62448,0.27808
7048.55295,0.26217
7050.48142,0.26298
7052.40989,0.24176
7054.33836,0.26101
7056.26682,0.25613
7058.19529,0.15445
7060.12376,0.08047
7062.05223,0.02967
7063.98070,-0.02580
7065.90917,-0.01817
7067.83764,0.02440
7069.76610,0.07232
7071.69457,0.05924
7073.62304,-0.08869
7075.55151,-0.19236
7077.47998,-0.09698
7079.40845,0.08884
7081.33692,0.09828
7083.26539,-0.02065
7085.19385,0.04776
7087.12232,0.24399
7089.05079,0.27124
7090.97926,0.15066
7092.90773,0.03167
7094.83620,-0.06437
7096.76467,-0.07542
7098.69313,-0.01401
7100.62160,0.01923
7102.55007,0.00779
7104.47854,-0.09645
7106.40701,-0.22703
7108.33548,-0.18896
7110.26395,0.01078
7112.19242,0.26931
7114.12088,0.39253
7116.04935,0.28453
7117.97782,0.11021
7119.90629,0.03642
7121.83476,-0.00370
7123.76323,-0.01199
7125.69170,0.08778
7127.62016,0.21402
7129.54863,0.22870
7131.47710,0.15646
7133.40557,0.07058
7135.33404,0.05085
7137.26251,0.10305
7139.19098,0.10199
7141.11944,0.00627
7143.04791,-0.03078
7144.97638,0.05091
7146.90485,0.09676
7148.83332,0.08464
7150.76179,0.16977
7152.69026,0.36886
7154.61873,0.49483
7156.54719,0.43521
7158.47566,0.27524
7160.40413,0.10597
7162.33260,-0.02211
7164.26107,-0.08954
7166.18954,-0.06848
7168.11801,0.03965
7170.04647,0.11752
7171.97494,0.04318
7173.90341,-0.04118
7175.83188,-0.00921
7177.76035,0.04574
7179.68882,0.06315
7181.61729,0.06759
7183.54576,0.10809
7185.47422,0.21069
7187.40269,0.29743
7189.33116,0.29811
7191.25963,0.23111
7193.18810,0.17237
7195.11657,0.08872
7197.04504,-0.02421
7198.97350,-0.06055
7200.90197,-0.00924
7202.83044,0.06868
7204.75891,0.09276
7206.68738,0.02472
7208.61585,-0.01247
7210.54432,-0.00991
7212.47279,0.00539
7214.40125,0.07393
7216.32972,0.12041
7218.25819,-0.02278
7220.18666,-0.19253
7222.11513,-0.19353
7224.04360,-0.09630
7225.97207,0.03655
7227.90053,0.18898
7229.82900,0.26589
7231.75747,0.19546
7233.68594,0.06383
7235.61441,-0.02752
7237.54288,0.00182
7239.47135,0.10350
7241.39982,0.12443
7243.32828,0.06887
7245.25675,0.04613
7247.18522,0.00661
7249.11369,-0.05362
7251.04216,-0.01539
7252.97063,0.11999
7254.89910,0.21156
7256.82756,0.28510
7258.75603,0.37249
7260.68450,0.39261
7262.61297,0.29201
7264.54144,0.13407
7266.46991,0.03439
7268.39838,-0.00364
7270.32685,-0.11277
7272.25531,-0.24461
7274.18378,-0.23125
7276.11225,-0.15988
7278.04072,-0.02026
7279.96919,0.20137
7281.89766,0.27314
7283.82613,0.13204
7285.75459,-0.06038
7287.68306,-0.15485
7289.61153,-0.09536
7291.54000,0.03606
7293.46847,0.11924
7295.39694,0.20522
7297.32541,0.24700
7299.25387,0.14905
7301.18234,0.06960
7303.11081,0.11856
7305.03928,0.16438
7306.96775,0.15674
7308.89622,0.19014
7310.82469,0.25011
7312.75316,0.23721
7314.68162,0.17440
7316.61009,0.09225
7318.53856,-0.03159
7320.46703,-0.09277
7322.39550,0.01423
7324.32397,0.09629
7326.25244,-0.03295
7328.18090,-0.13882
7330.10937,0.00128
7332.03784,0.05403
7333.96631,-0.06389
7335.89478,-0.10859
7337.82325,-0.05495
7339.75172,0.05242
7341.68019,0.10830
7343.60865,0.08787
7345.53712,0.14465
7347.46559,0.26960
7349.39406,0.19461
7351.32253,0.02248
7353.25100,-0.01827
7355.17947,-0.03778
7357.10793,-0.08262
7359.03640,0.00564
7360.96487,0.23209
7362.89334,0.35258
7364.82181,0.28755
7366.75028,0.12544
7368.67875,-0.07148
7370.60722,-0.14769
7372.53568,-0.01104
7374.46415,0.27291
7376.39262,0.39940
7378.32109,0.37050
7380.24956,0.45579
7382.17803,0.44109
7384.10650,0.14212
7386.03496,-0.04868
7387.96343,0.01848
7389.89190,0.05572
7391.82037,0.03405
7393.74884,0.08663
7395.67731,0.25431
7397.60578,0.29744
7399.53425,0.09601
7401.46271,-0.08721
7403.39118,-0.10097
7405.31965,-0.07308
7407.24812,-0.06283
7409.17659,0.00965
7411.10506,0.07346
7413.03353,0.07846
7414.96199,0.01380
7416.89046,-0.16389
7418.81893,-0.36413
7420.74740,-0.39969
7422.67587,-0.26171
7424.60434,-0.08879
7426.53281,-0.02106
7428.46128,-0.08922
7430.38974,-0.21358
7432.31821,-0.19098
7434.24668,0.01420
7436.17515,0.19425
7438.10362,0.23523
7440.03209,0.23144
7441.96056,0.17693
7443.88902,0.03246
7445.81749,-0.04131
7447.74596,0.03413
7449.67443,0.12720
7451.60290,0.12279
7453.53137,0.02427
7455.45984,-0.09711
7457.38831,-0.12554
7459.31677,-0.05813
7461.24524,-0.04758
7463.17371,0.01650
7465.10218,0.23142
7467.03065,0.40784
7468.95912,0.48344
7470.88759,0.47331
7472.81605,0.29836
7474.74452,0.03816
7476.67299,-0.16792
7478.60146,-0.19442
7480.52993,-0.09577
7482.45840,-0.08362
7484.38687,-0.04497
7486.31533,0.12464
7488.24380,0.19631
7490.17227,0.09815
7492.10074,0.05166
7494.02921,0.15218
7495.95768,0.32754
7497.88615,0.46777
