399.19301,-0.67738
401.12148,-0.08536
403.04995,0.03549
404.97842,0.06586
406.90689,0.06679
408.83536,0.12402
410.76382,0.26788
412.69229,0.28209
414.62076,0.15074
416.54923,0.03213
418.47770,-0.01749
420.40617,0.06973
422.33464,0.12276
424.26311,0.04439
426.19157,-0.00543
428.12004,0.02944
430.04851,0.09292
431.97698,0.13883
433.90545,0.14171
435.83392,0.12562
437.76239,0.05679
439.69085,-0.03638
441.61932,-0.06543
443.54779,-0.04375
445.47626,-0.01184
447.40473,0.04443
449.33320,0.06405
451.26167,0.03871
453.19013,0.03365
455.11860,0.06076
457.04707,0.09534
458.97554,0.09863
460.90401,0.10392
462.83248,0.12586
464.76095,0.12216
466.68942,0.11650
468.61788,0.10412
470.54635,0.05738
472.47482,-0.02541
474.40329,-0.10691
476.33176,-0.04699
478.26023,0.04053
480.18870,0.06201
482.11716,0.04142
484.04563,0.01347
485.97410,0.02440
487.90257,0.07534
489.83104,0.10689
491.75951,0.09918
493.68798,0.07861
495.61645,0.08414
497.54491,0.09812
499.47338,0.08474
501.40185,0.05803
503.33032,0.05298
505.25879,0.08435
507.18726,0.11576
509.11573,0.10968
511.04419,0.07225
512.97266,0.04192
514.90113,0.05334
516.82960,0.08644
518.75807,0.08600
520.68654,0.03457
522.61501,-0.00920
524.54348,0.00509
526.47194,0.03645
528.40041,0.05328
530.32888,0.09732
532.25735,0.15656
534.18582,0.16411
536.11429,0.12186
538.04276,0.08144
539.97122,0.05808
541.89969,0.04192
543.82816,0.01814
545.75663,0.00832
547.68510,0.03637
549.61357,0.06082
551.54204,0.08099
553.47051,0.11488
555.39897,0.11876
557.32744,0.08931
559.25591,0.05497
561.18438,0.03407
563.11285,0.04308
565.04132,0.06165
566.96979,0.07751
568.89825,0.09615
570.82672,0.10666
572.75519,0.11258
574.68366,0.10901
576.61213,0.09300
578.54060,0.08839
580.46907,0.07808
582.39754,0.04506
584.32600,0.03197
586.25447,0.05526
588.18294,0.08268
590.11141,0.09729
592.03988,0.08701
593.96835,0.05166
595.89682,0.03865
597.82528,0.06733
599.75375,0.09064
601.68222,0.07709
603.61069,0.05772
605.53916,0.04755
607.46763,0.03352
609.39610,0.02947
611.32456,0.04335
613.25303,0.06710
615.18150,0.08929
617.10997,0.09109
619.03844,0.07350
620.96691,0.05742
622.89538,0.04920
624.82385,0.05130
626.75231,0.06306
628.68078,0.07151
630.60925,0.07385
632.53772,0.06882
634.46619,0.05591
636.39466,0.04199
638.32313,0.02806
640.25159,0.03289
642.18006,0.06776
644.10853,0.09617
646.03700,0.09817
647.96547,0.08862
649.89394,0.07129
651.82241,0.05845
653.75088,0.06531
655.67934,0.08092
657.60781,0.08603
659.53628,0.07146
661.46475,0.05532
663.39322,0.06538
665.32169,0.09649
667.25016,0.12144
669.17862,0.11744
671.10709,0.10581
673.03556,0.09764
674.96403,0.08741
676.89250,0.07357
678.82097,0.05909
680.74944,0.04937
682.67791,0.04877
684.60637,0.06250
686.53484,0.07481
688.46331,0.07018
690.39178,0.06772
692.32025,0.07963
694.24872,0.09173
696.17719,0.09114
698.10565,0.08908
700.03412,0.09315
701.96259,0.08586
703.89106,0.06894
705.81953,0.06224
707.74800,0.07293
709.67647,0.09873
711.60494,0.11957
713.53340,0.10922
715.46187,0.08115
717.39034,0.07312
719.31881,0.08311
721.24728,0.08476
723.17575,0.08182
725.10422,0.08802
727.03268,0.09402
728.96115,0.09064
730.88962,0.08272
732.81809,0.07853
734.74656,0.08339
736.67503,0.08891
738.60350,0.08494
740.53197,0.07946
742.46043,0.08109
744.38890,0.08714
746.31737,0.09625
748.24584,0.09950
750.17431,0.09044
752.10278,0.08650
754.03125,0.09029
755.95971,0.08386
757.88818,0.07653
759.81665,0.08325
761.74512,0.09135
763.67359,0.08810
765.60206,0.07390
767.53053,0.05915
769.45900,0.05941
771.38746,0.06871
773.31593,0.07309
775.24440,0.07500
777.17287,0.07437
779.10134,0.06719
781.02981,0.05905
782.95828,0.05997
784.88674,0.06659
786.81521,0.06902
788.74368,0.07255
790.67215,0.08066
792.60062,0.08720
794.52909,0.08741
796.45756,0.07995
798.38602,0.07378
800.31449,0.08003
802.24296,0.08924
804.17143,0.08414
806.09990,0.07404
808.02837,0.07263
809.95684,0.08028
811.88531,0.08808
813.81377,0.07954
815.74224,0.06487
817.67071,0.05940
819.59918,0.05497
821.52765,0.05625
823.45612,0.06966
825.38459,0.08558
827.31305,0.09493
829.24152,0.09545
831.16999,0.09646
833.09846,0.10381
835.02693,0.10764
836.95540,0.10740
838.88387,0.11167
840.81234,0.11708
842.74080,0.11463
844.66927,0.10237
846.59774,0.08889
848.52621,0.08066
850.45468,0.07964
852.38315,0.08657
854.31162,0.09548
856.24008,0.09923
858.16855,0.09328
860.09702,0.08225
862.02549,0.07825
863.95396,0.07495
865.88243,0.06490
867.81090,0.07289
869.73937,0.10394
871.66783,0.11515
873.59630,0.09662
875.52477,0.08166
877.45324,0.08019
879.38171,0.08199
881.31018,0.08284
883.23865,0.08528
885.16711,0.08759
887.09558,0.08145
889.02405,0.06994
890.95252,0.06729
892.88099,0.08022
894.80946,0.09257
896.73793,0.08962
898.66640,0.08160
900.59486,0.07951
902.52333,0.08976
904.45180,0.10293
906.38027,0.09453
908.30874,0.07382
910.23721,0.06876
912.16568,0.07500
914.09414,0.07660
916.02261,0.07979
917.95108,0.09014
919.87955,0.09607
921.80802,0.09348
923.73649,0.08852
925.66496,0.08263
927.59343,0.07824
929.52189,0.07610
931.45036,0.07329
933.37883,0.07235
935.30730,0.07511
937.23577,0.07820
939.16424,0.07603
941.09271,0.06897
943.02117,0.06546
944.94964,0.06808
946.87811,0.07523
948.80658,0.08424
950.73505,0.08932
952.66352,0.09195
954.59199,0.09649
956.52045,0.09746
958.44892,0.09088
960.37739,0.08430
962.30586,0.08228
964.23433,0.08443
966.16280,0.08840
968.09127,0.08922
970.01974,0.08889
971.94820,0.09003
973.87667,0.09198
975.80514,0.09555
977.73361,0.09745
979.66208,0.09431
981.59055,0.08851
983.51902,0.08541
985.44748,0.08508
987.37595,0.08326
989.30442,0.08052
991.23289,0.07954
993.16136,0.08395
995.08983,0.09198
997.01830,0.09225
998.94677,0.08539
1000.87523,0.08165
1002.80370,0.08155
1004.73217,0.08605
1006.66064,0.09160
1008.58911,0.08853
1010.51758,0.08670
1012.44605,0.09569
1014.37451,0.10430
1016.30298,0.10607
1018.23145,0.10177
1020.15992,0.09155
1022.08839,0.07978
1024.01686,0.07232
1025.94533,0.07233
1027.87380,0.07788
1029.80226,0.08163
1031.73073,0.08099
1033.65920,0.08234
1035.58767,0.08649
1037.51614,0.08884
1039.44461,0.09119
1041.37308,0.09495
1043.30154,0.10065
1045.23001,0.10598
1047.15848,0.10295
1049.08695,0.09568
1051.01542,0.09447
1052.94389,0.09547
1054.87236,0.08899
1056.80083,0.08415
1058.72929,0.08949
1060.65776,0.08946
1062.58623,0.08598
1064.51470,0.09123
1066.44317,0.09437
1068.37164,0.08898
1070.30011,0.08155
1072.22857,0.08085
1074.15704,0.08850
1076.08551,0.09393
1078.01398,0.08787
1079.94245,0.08067
1081.87092,0.08989
1083.79939,0.10398
1085.72786,0.10346
1087.65632,0.09597
1089.58479,0.09427
1091.51326,0.09502
1093.44173,0.09293
1095.37020,0.09046
1097.29867,0.08796
1099.22714,0.08359
1101.15560,0.08032
1103.08407,0.08298
1105.01254,0.09047
1106.94101,0.10222
1108.86948,0.11649
1110.79795,0.11813
1112.72642,0.10577
1114.65489,0.09460
1116.58335,0.08400
1118.51182,0.07532
1120.44029,0.08209
1122.36876,0.09788
1124.29723,0.10609
1126.22570,0.10603
1128.15417,0.10060
1130.08263,0.09411
1132.01110,0.09115
1133.93957,0.08908
1135.86804,0.08783
1137.79651,0.08900
1139.72498,0.09210
1141.65345,0.09853
1143.58191,0.10826
1145.51038,0.11247
1147.43885,0.10644
1149.36732,0.10019
1151.29579,0.09796
1153.22426,0.09541
1155.15273,0.09594
1157.08120,0.10165
1159.00966,0.10309
1160.93813,0.09763
1162.86660,0.09325
1164.79507,0.09291
1166.72354,0.09586
1168.65201,0.09651
1170.58048,0.08881
1172.50894,0.08078
1174.43741,0.08117
1176.36588,0.08392
1178.29435,0.08649
1180.22282,0.09364
1182.15129,0.10110
1184.07976,0.10438
1186.00823,0.10479
1187.93669,0.10452
1189.86516,0.10582
1191.79363,0.10644
1193.72210,0.10409
1195.65057,0.10142
1197.57904,0.09821
1199.50751,0.09231
1201.43597,0.08713
1203.36444,0.08801
1205.29291,0.09383
1207.22138,0.09623
1209.14985,0.09438
1211.07832,0.09609
1213.00679,0.10079
1214.93526,0.10063
1216.86372,0.09457
1218.79219,0.09083
1220.72066,0.09278
1222.64913,0.09589
1224.57760,0.09852
1226.50607,0.10061
1228.43454,0.10183
1230.36300,0.10346
1232.29147,0.10509
1234.21994,0.10669
1236.14841,0.10905
1238.07688,0.10865
1240.00535,0.10542
1241.93382,0.10550
1243.86229,0.10762
1245.79075,0.10647
1247.71922,0.10339
1249.64769,0.10124
1251.57616,0.09947
1253.50463,0.09713
1255.43310,0.09689
1257.36157,0.10024
1259.29003,0.10375
1261.21850,0.10530
1263.14697,0.10422
1265.07544,0.10094
1267.00391,0.09907
1268.93238,0.09785
1270.86085,0.09410
1272.78932,0.09235
1274.71778,0.09687
1276.64625,0.10227
1278.57472,0.10254
1280.50319,0.09929
1282.43166,0.09975
1284.36013,0.10379
1286.28860,0.10240
1288.21706,0.09623
1290.14553,0.09321
1292.07400,0.09508
1294.00247,0.09947
1295.93094,0.10273
1297.85941,0.10300
1299.78788,0.09967
1301.71634,0.09345
1303.64481,0.08960
1305.57328,0.09147
1307.50175,0.09668
1309.43022,0.10116
1311.35869,0.10334
1313.28716,0.10596
1315.21563,0.10853
1317.14409,0.10649
1319.07256,0.10149
1321.00103,0.09879
1322.92950,0.09809
1324.85797,0.09634
1326.78644,0.09481
1328.71491,0.09587
1330.64337,0.09783
1332.57184,0.09804
1334.50031,0.09511
1336.42878,0.09237
1338.35725,0.09231
1340.28572,0.09185
1342.21419,0.09413
1344.14266,0.09943
1346.07112,0.10194
1347.99959,0.10153
1349.92806,0.10081
1351.85653,0.10170
1353.78500,0.10218
1355.71347,0.09940
1357.64194,0.09772
1359.57040,0.10161
1361.49887,0.10862
1363.42734,0.11076
1365.35581,0.10858
1367.28428,0.11008
1369.21275,0.11330
1371.14122,0.11266
1373.06969,0.11003
1374.99815,0.10819
1376.92662,0.10675
1378.85509,0.10608
1380.78356,0.10493
1382.71203,0.10257
1384.64050,0.10326
1386.56897,0.10730
1388.49743,0.10742
1390.42590,0.10423
1392.35437,0.10420
1394.28284,0.10934
1396.21131,0.11593
1398.13978,0.11614
1400.06825,0.11045
1401.99672,0.10838
1403.92518,0.11085
1405.85365,0.11114
1407.78212,0.10922
1409.71059,0.10779
1411.63906,0.10641
1413.56753,0.10577
1415.49600,0.10775
1417.42446,0.11096
1419.35293,0.10880
1421.28140,0.10723
1423.20987,0.11064
1425.13834,0.11238
1427.06681,0.11327
1428.99528,0.11528
1430.92375,0.11384
1432.85221,0.10957
1434.78068,0.10924
1436.70915,0.11186
1438.63762,0.11161
1440.56609,0.11233
1442.49456,0.11324
1444.42303,0.11066
1446.35149,0.10892
1448.27996,0.11129
1450.20843,0.11347
1452.13690,0.11627
1454.06537,0.12313
1455.99384,0.13269
1457.92231,0.13029
1459.85077,0.11513
1461.77924,0.10827
1463.70771,0.11043
1465.63618,0.11496
1467.56465,0.11750
1469.49312,0.11950
1471.42159,0.12154
1473.35006,0.11884
1475.27852,0.10866
1477.20699,0.10303
1479.13546,0.10612
1481.06393,0.10885
1482.99240,0.10580
1484.92087,0.10296
1486.84934,0.10624
1488.77780,0.11433
1490.70627,0.11961
1492.63474,0.12116
1494.56321,0.12289
1496.49168,0.12436
1498.42015,0.12320
1500.34862,0.11998
1502.27709,0.11653
1504.20555,0.11593
1506.13402,0.12348
1508.06249,0.12647
1509.99096,0.11780
1511.91943,0.11410
1513.84790,0.11666
1515.77637,0.12242
1517.70483,0.12751
1519.63330,0.12975
1521.56177,0.12824
1523.49024,0.12946
1525.41871,0.13369
1527.34718,0.12865
1529.27565,0.12029
1531.20412,0.11951
1533.13258,0.12237
1535.06105,0.12314
1536.98952,0.12628
1538.91799,0.13607
1540.84646,0.14248
1542.77493,0.13372
1544.70340,0.12414
1546.63186,0.11967
1548.56033,0.11819
1550.48880,0.11739
1552.41727,0.12198
1554.34574,0.13269
1556.27421,0.14319
1558.20268,0.14454
1560.13115,0.12259
1562.05961,0.11158
1563.98808,0.11405
1565.91655,0.11952
1567.84502,0.12320
1569.77349,0.12317
1571.70196,0.11928
1573.63043,0.11706
1575.55889,0.11546
1577.48736,0.11237
1579.41583,0.11112
1581.34430,0.10995
1583.27277,0.10768
1585.20124,0.10676
1587.12971,0.10823
1589.05818,0.10896
1590.98664,0.10949
1592.91511,0.11323
1594.84358,0.11610
1596.77205,0.11490
1598.70052,0.11300
1600.62899,0.11213
1602.55746,0.11196
1604.48592,0.11141
1606.41439,0.11052
1608.34286,0.10967
1610.27133,0.10808
1612.19980,0.10796
1614.12827,0.11184
1616.05674,0.11921
1617.98521,0.12417
1619.91367,0.12476
1621.84214,0.12563
1623.77061,0.12484
1625.69908,0.12156
1627.62755,0.12103
1629.55602,0.12193
1631.48449,0.12019
1633.41295,0.11819
1635.34142,0.12102
1637.26989,0.12415
1639.19836,0.12117
1641.12683,0.11864
1643.05530,0.12093
1644.98377,0.12818
1646.91223,0.13488
1648.84070,0.13290
1650.76917,0.13066
1652.69764,0.13336
1654.62611,0.12940
1656.55458,0.12105
1658.48305,0.11728
1660.41152,0.11874
1662.33998,0.12323
1664.26845,0.12535
1666.19692,0.12589
1668.12539,0.12877
1670.05386,0.13347
1671.98233,0.13528
1673.91080,0.13231
1675.83926,0.12486
1677.76773,0.11982
1679.69620,0.12074
1681.62467,0.12739
1683.55314,0.13980
1685.48161,0.14233
1687.41008,0.13280
1689.33855,0.12223
1691.26701,0.11340
1693.19548,0.11074
1695.12395,0.11496
1697.05242,0.12317
1698.98089,0.13011
1700.90936,0.13048
1702.83783,0.12620
1704.76629,0.12244
1706.69476,0.11965
1708.62323,0.11758
1710.55170,0.11373
1712.48017,0.11076
1714.40864,0.11448
1716.33711,0.12149
1718.26558,0.11996
1720.19404,0.11567
1722.12251,0.11535
1724.05098,0.11530
1725.97945,0.11190
1727.90792,0.10734
1729.83639,0.10737
1731.76486,0.11465
1733.69332,0.12200
1735.62179,0.11833
1737.55026,0.11540
1739.47873,0.12082
1741.40720,0.12643
1743.33567,0.12466
1745.26414,0.12139
1747.19261,0.12381
1749.12107,0.13038
1751.04954,0.12969
1752.97801,0.12184
1754.90648,0.11801
1756.83495,0.11840
1758.76342,0.11656
1760.69189,0.11425
1762.62035,0.11500
1764.54882,0.11528
1766.47729,0.11569
1768.40576,0.11887
1770.33423,0.12136
1772.26270,0.11965
1774.19117,0.11857
1776.11964,0.11920
1778.04810,0.11891
1779.97657,0.11798
1781.90504,0.11690
1783.83351,0.11629
1785.76198,0.11531
1787.69045,0.11380
1789.61892,0.11412
1791.54738,0.11728
1793.47585,0.11977
1795.40432,0.11829
1797.33279,0.11579
1799.26126,0.11383
1801.18973,0.11040
1803.11820,0.10742
1805.04666,0.10788
1806.97513,0.10877
1808.90360,0.10879
1810.83207,0.10988
1812.76054,0.11045
1814.68901,0.11034
1816.61748,0.11187
1818.54595,0.11311
1820.47441,0.11266
1822.40288,0.11392
1824.33135,0.11791
1826.25982,0.12045
1828.18829,0.11902
1830.11676,0.11536
1832.04523,0.11288
1833.97369,0.11327
1835.90216,0.11508
1837.83063,0.11544
1839.75910,0.11529
1841.68757,0.11746
1843.61604,0.12028
1845.54451,0.11998
1847.47298,0.11801
1849.40144,0.11517
1851.32991,0.11030
1853.25838,0.10589
1855.18685,0.10493
1857.11532,0.10765
1859.04379,0.11185
1860.97226,0.11373
1862.90072,0.11300
1864.82919,0.11423
1866.75766,0.11812
1868.68613,0.11917
1870.61460,0.11568
1872.54307,0.11158
1874.47154,0.10926
1876.40001,0.10971
1878.32847,0.11154
1880.25694,0.11198
1882.18541,0.10974
1884.11388,0.10745
1886.04235,0.10870
1887.97082,0.11224
1889.89929,0.11265
1891.82775,0.11015
1893.75622,0.10959
1895.68469,0.10983
1897.61316,0.10880
1899.54163,0.10835
1901.47010,0.10913
1903.39857,0.10987
1905.32704,0.11071
1907.25550,0.11118
1909.18397,0.11018
1911.11244,0.10975
1913.04091,0.11230
1914.96938,0.11661
1916.89785,0.11781
1918.82632,0.11294
1920.75478,0.10809
1922.68325,0.10695
1924.61172,0.10587
1926.54019,0.10484
1928.46866,0.10566
1930.39713,0.10663
1932.32560,0.10639
1934.25407,0.10427
1936.18253,0.10265
1938.11100,0.10476
1940.03947,0.10920
1941.96794,0.11385
1943.89641,0.11669
1945.82488,0.11540
1947.75335,0.11318
1949.68181,0.11490
1951.61028,0.11700
1953.53875,0.11552
1955.46722,0.11439
1957.39569,0.11559
1959.32416,0.11620
1961.25263,0.11519
1963.18110,0.11481
1965.10956,0.11417
1967.03803,0.11009
1968.96650,0.10541
1970.89497,0.10495
1972.82344,0.10779
1974.75191,0.11004
1976.68038,0.10959
1978.60884,0.10882
1980.53731,0.11069
1982.46578,0.11272
1984.39425,0.11157
1986.32272,0.10956
1988.25119,0.10961
1990.17966,0.10963
1992.10812,0.10845
1994.03659,0.10834
1995.96506,0.10787
1997.89353,0.10681
1999.82200,0.10846
2001.75047,0.11198
2003.67894,0.11385
2005.60741,0.11318
2007.53587,0.11194
2009.46434,0.11264
2011.39281,0.11590
2013.32128,0.11865
2015.24975,0.11830
2017.17822,0.11687
2019.10669,0.11585
2021.03515,0.11496
2022.96362,0.11504
2024.89209,0.11514
2026.82056,0.11450
2028.74903,0.11478
2030.67750,0.11556
2032.60597,0.11438
2034.53444,0.11260
2036.46290,0.11380
2038.39137,0.11579
2040.31984,0.11558
2042.24831,0.11355
2044.17678,0.11008
2046.10525,0.10793
2048.03372,0.10806
2049.96218,0.10852
2051.89065,0.10972
2053.81912,0.11239
2055.74759,0.11429
2057.67606,0.11265
2059.60453,0.11049
2061.53300,0.11178
2063.46147,0.11443
2065.38993,0.11582
2067.31840,0.11671
2069.24687,0.11739
2071.17534,0.11721
2073.10381,0.11680
2075.03228,0.11658
2076.96075,0.11713
2078.88921,0.11819
2080.81768,0.11835
2082.74615,0.11782
2084.67462,0.11765
2086.60309,0.11889
2088.53156,0.12104
2090.46003,0.12080
2092.38850,0.11678
2094.31696,0.11316
2096.24543,0.11362
2098.17390,0.11535
2100.10237,0.11578
2102.03084,0.11664
2103.95931,0.11536
2105.88778,0.11077
2107.81624,0.10868
2109.74471,0.10920
2111.67318,0.10884
2113.60165,0.10906
2115.53012,0.11205
2117.45859,0.11538
2119.38706,0.11524
2121.31553,0.11272
2123.24399,0.11058
2125.17246,0.11021
2127.10093,0.11166
2129.02940,0.11247
2130.95787,0.11161
2132.88634,0.11099
2134.81481,0.11021
2136.74327,0.10890
2138.67174,0.10982
2140.60021,0.11170
2142.52868,0.11148
2144.45715,0.11091
2146.38562,0.11047
2148.31409,0.10880
2150.24255,0.10872
2152.17102,0.11170
2154.09949,0.11457
2156.02796,0.11666
2157.95643,0.11972
2159.88490,0.12230
2161.81337,0.12178
2163.74184,0.11956
2165.67030,0.11849
2167.59877,0.11853
2169.52724,0.11913
2171.45571,0.12052
2173.38418,0.12195
2175.31265,0.12151
2177.24112,0.11808
2179.16958,0.11460
2181.09805,0.11443
2183.02652,0.11572
2184.95499,0.11623
2186.88346,0.11524
2188.81193,0.11298
2190.74040,0.11148
2192.66887,0.11143
2194.59733,0.11226
2196.52580,0.11174
2198.45427,0.10859
2200.38274,0.10627
2202.31121,0.10681
2204.23968,0.10698
2206.16815,0.10547
2208.09661,0.10606
2210.02508,0.11009
2211.95355,0.11361
2213.88202,0.11479
2215.81049,0.11616
2217.73896,0.11665
2219.66743,0.11385
2221.59590,0.11170
2223.52436,0.11274
2225.45283,0.11324
2227.38130,0.11157
2229.30977,0.11103
2231.23824,0.11301
2233.16671,0.11415
2235.09518,0.11296
2237.02364,0.11266
2238.95211,0.11460
2240.88058,0.11588
2242.80905,0.11450
2244.73752,0.11306
2246.66599,0.11516
2248.59446,0.11795
2250.52293,0.11803
2252.45139,0.11777
2254.37986,0.11793
2256.30833,0.11654
2258.23680,0.11437
2260.16527,0.11426
2262.09374,0.11602
2264.02221,0.11669
2265.95067,0.11511
2267.87914,0.11362
2269.80761,0.11371
2271.73608,0.11391
2273.66455,0.11507
2275.59302,0.11625
2277.52149,0.11618
2279.44996,0.11732
2281.37842,0.11784
2283.30689,0.11731
2285.23536,0.11852
2287.16383,0.11921
2289.09230,0.11799
2291.02077,0.11735
2292.94924,0.11685
2294.87770,0.11495
2296.80617,0.11399
2298.73464,0.11557
2300.66311,0.11765
2302.59158,0.11822
2304.52005,0.11632
2306.44852,0.11260
2308.37699,0.11024
2310.30545,0.11072
2312.23392,0.11019
2314.16239,0.10738
2316.09086,0.10713
2318.01933,0.10752
2319.94780,0.10301
2321.87627,0.09880
2323.80473,0.10068
2325.73320,0.10545
2327.66167,0.10804
2329.59014,0.10967
2331.51861,0.11495
2333.44708,0.11931
2335.37555,0.11816
2337.30401,0.11038
2339.23248,0.10092
2341.16095,0.09839
2343.08942,0.10212
2345.01789,0.11290
2346.94636,0.12175
2348.87483,0.12065
2350.80330,0.11623
2352.73176,0.11755
2354.66023,0.12453
2356.58870,0.12491
2358.51717,0.11715
2360.44564,0.10348
2362.37411,0.09014
2364.30258,0.09417
2366.23104,0.10849
2368.15951,0.11455
2370.08798,0.11419
2372.01645,0.11703
2373.94492,0.12090
2375.87339,0.11919
2377.80186,0.11198
2379.73033,0.10674
2381.65879,0.10876
2383.58726,0.11313
2385.51573,0.11488
2387.44420,0.11451
2389.37267,0.11265
2391.30114,0.11144
2393.22961,0.11472
2395.15807,0.12030
2397.08654,0.12071
2399.01501,0.11664
2400.94348,0.11497
2402.87195,0.11455
2404.80042,0.11318
2406.72889,0.11403
2408.65736,0.11619
2410.58582,0.11666
2412.51429,0.11481
2414.44276,0.11222
2416.37123,0.11296
2418.29970,0.11606
2420.22817,0.11599
2422.15664,0.11242
2424.08510,0.11029
2426.01357,0.11230
2427.94204,0.11542
2429.87051,0.11588
2431.79898,0.11405
2433.72745,0.11264
2435.65592,0.11234
2437.58439,0.11227
2439.51285,0.11306
2441.44132,0.11522
2443.36979,0.11658
2445.29826,0.11651
2447.22673,0.11773
2449.15520,0.12009
2451.08367,0.12067
2453.01213,0.11828
2454.94060,0.11478
2456.86907,0.11284
2458.79754,0.11285
2460.72601,0.11266
2462.65448,0.10982
2464.58295,0.10687
2466.51142,0.10725
2468.43988,0.10874
2470.36835,0.11046
2472.29682,0.11432
2474.22529,0.11872
2476.15376,0.12040
2478.08223,0.11827
2480.01070,0.11632
2481.93916,0.11829
2483.86763,0.11882
2485.79610,0.11607
2487.72457,0.11654
2489.65304,0.12000
2491.58151,0.12149
2493.50998,0.11982
2495.43844,0.11764
2497.36691,0.11836
2499.29538,0.11977
2501.22385,0.11803
2503.15232,0.11629
2505.08079,0.11692
2507.00926,0.11653
2508.93773,0.11563
2510.86619,0.11717
2512.79466,0.11869
2514.72313,0.11791
2516.65160,0.11680
2518.58007,0.11605
2520.50854,0.11541
2522.43701,0.11538
2524.36547,0.11518
2526.29394,0.11532
2528.22241,0.11716
2530.15088,0.11849
2532.07935,0.11771
2534.00782,0.11707
2535.93629,0.11767
2537.86476,0.11884
2539.79322,0.11909
2541.72169,0.11826
2543.65016,0.11880
2545.57863,0.12079
2547.50710,0.12118
2549.43557,0.11884
2551.36404,0.11760
2553.29250,0.12027
2555.22097,0.12386
2557.14944,0.12441
2559.07791,0.12210
2561.00638,0.12015
2562.93485,0.11948
2564.86332,0.11941
2566.79179,0.11975
2568.72025,0.11939
2570.64872,0.11736
2572.57719,0.11542
2574.50566,0.11514
2576.43413,0.11604
2578.36260,0.11803
2580.29107,0.11961
2582.21953,0.12050
2584.14800,0.12211
2586.07647,0.12311
2588.00494,0.12290
2589.93341,0.12173
2591.86188,0.11820
2593.79035,0.11539
2595.71882,0.11792
2597.64728,0.12189
2599.57575,0.12262
2601.50422,0.12048
2603.43269,0.11730
2605.36116,0.11549
2607.28963,0.11419
2609.21810,0.11350
2611.14656,0.11602
2613.07503,0.11829
2615.00350,0.11770
2616.93197,0.11925
2618.86044,0.12342
2620.78891,0.12527
2622.71738,0.12431
2624.64585,0.12222
2626.57431,0.11995
2628.50278,0.12008
2630.43125,0.12240
2632.35972,0.12141
2634.28819,0.11867
2636.21666,0.12015
2638.14513,0.12208
2640.07359,0.12086
2642.00206,0.12010
2643.93053,0.11956
2645.85900,0.11689
2647.78747,0.11558
2649.71594,0.11650
2651.64441,0.11619
2653.57288,0.11456
2655.50134,0.11381
2657.42981,0.11612
2659.35828,0.12038
2661.28675,0.12236
2663.21522,0.12074
2665.14369,0.11858
2667.07216,0.11681
2669.00062,0.11543
2670.92909,0.11758
2672.85756,0.12120
2674.78603,0.12299
2676.71450,0.12472
2678.64297,0.12509
2680.57144,0.12277
2682.49990,0.12122
2684.42837,0.12156
2686.35684,0.12176
2688.28531,0.12190
2690.21378,0.12278
2692.14225,0.12315
2694.07072,0.12300
2695.99919,0.12417
2697.92765,0.12517
2699.85612,0.12295
2701.78459,0.12020
2703.71306,0.12136
2705.64153,0.12389
2707.57000,0.12501
2709.49847,0.12629
2711.42693,0.12670
2713.35540,0.12576
2715.28387,0.12480
2717.21234,0.12434
2719.14081,0.12482
2721.06928,0.12461
2722.99775,0.12275
2724.92622,0.12162
2726.85468,0.12323
2728.78315,0.12445
2730.71162,0.12239
2732.64009,0.11976
2734.56856,0.11715
2736.49703,0.11401
2738.42550,0.11356
2740.35396,0.11727
2742.28243,0.12200
2744.21090,0.12355
2746.13937,0.12143
2748.06784,0.11956
2749.99631,0.11942
2751.92478,0.11979
2753.85325,0.12235
2755.78171,0.12654
2757.71018,0.12798
2759.63865,0.12617
2761.56712,0.12456
2763.49559,0.12486
2765.42406,0.12712
2767.35253,0.13054
2769.28099,0.13235
2771.20946,0.13145
2773.13793,0.12843
2775.06640,0.12468
2776.99487,0.12107
2778.92334,0.11749
2780.85181,0.11722
2782.78028,0.12155
2784.70874,0.12576
2786.63721,0.12670
2788.56568,0.12602
2790.49415,0.12536
2792.42262,0.12489
2794.35109,0.12571
2796.27956,0.12729
2798.20802,0.12861
2800.13649,0.13036
2802.06496,0.13150
2803.99343,0.12973
2805.92190,0.12577
2807.85037,0.12258
2809.77884,0.12122
2811.70731,0.12257
2813.63577,0.12682
2815.56424,0.13020
2817.49271,0.13136
2819.42118,0.13188
2821.34965,0.13019
2823.27812,0.12632
2825.20659,0.12389
2827.13505,0.12346
2829.06352,0.12358
2830.99199,0.12570
2832.92046,0.12933
2834.84893,0.13047
2836.77740,0.13230
2838.70587,0.13705
2840.63433,0.13572
2842.56280,0.12880
2844.49127,0.12602
2846.41974,0.12543
2848.34821,0.12165
2850.27668,0.11749
2852.20515,0.11678
2854.13362,0.11839
2856.06208,0.12058
2857.99055,0.12426
2859.91902,0.12908
2861.84749,0.13254
2863.77596,0.13287
2865.70443,0.13078
2867.63290,0.12786
2869.56136,0.12514
2871.48983,0.12550
2873.41830,0.12926
2875.34677,0.13334
2877.27524,0.13634
2879.20371,0.13512
2881.13218,0.13003
2883.06065,0.12836
2884.98911,0.13031
2886.91758,0.13036
2888.84605,0.12914
2890.77452,0.12968
2892.70299,0.12900
2894.63146,0.12412
2896.55993,0.12197
2898.48839,0.12719
2900.41686,0.13327
2902.34533,0.13423
2904.27380,0.13107
2906.20227,0.12980
2908.13074,0.13291
2910.05921,0.13489
2911.98768,0.13123
2913.91614,0.12447
2915.84461,0.12033
2917.77308,0.12146
2919.70155,0.12301
2921.63002,0.11937
2923.55849,0.11641
2925.48696,0.11979
2927.41542,0.12312
2929.34389,0.12402
2931.27236,0.12617
2933.20083,0.12784
2935.12930,0.12540
2937.05777,0.12185
2938.98624,0.12211
2940.91471,0.12461
2942.84317,0.12766
2944.77164,0.13047
2946.70011,0.13134
2948.62858,0.13377
2950.55705,0.13640
2952.48552,0.13201
2954.41399,0.12336
2956.34245,0.11698
2958.27092,0.11582
2960.19939,0.12174
2962.12786,0.13043
2964.05633,0.13449
2965.98480,0.13258
2967.91327,0.13078
2969.84174,0.13219
2971.77020,0.13098
2973.69867,0.12500
2975.62714,0.12034
2977.55561,0.12034
2979.48408,0.12315
2981.41255,0.12777
2983.34102,0.13262
2985.26948,0.13439
2987.19795,0.13302
2989.12642,0.13068
2991.05489,0.12834
2992.98336,0.12724
2994.91183,0.12859
2996.84030,0.13007
2998.76877,0.12998
3000.69723,0.13017
3002.62570,0.13142
3004.55417,0.13449
3006.48264,0.13736
3008.41111,0.13421
3010.33958,0.12542
3012.26805,0.11455
3014.19651,0.10137
3016.12498,0.09108
3018.05345,0.09444
3019.98192,0.10950
3021.91039,0.12458
3023.83886,0.13211
3025.76733,0.12915
3027.69579,0.12340
3029.62426,0.12450
3031.55273,0.13057
3033.48120,0.13592
3035.40967,0.13726
3037.33814,0.13532
3039.26661,0.13268
3041.19508,0.13081
3043.12354,0.12951
3045.05201,0.12549
3046.98048,0.12095
3048.90895,0.12249
3050.83742,0.12553
3052.76589,0.12380
3054.69436,0.12190
3056.62282,0.12123
3058.55129,0.12287
3060.47976,0.12885
3062.40823,0.13115
3064.33670,0.12808
3066.26517,0.12542
3068.19364,0.12433
3070.12211,0.12489
3072.05057,0.12627
3073.97904,0.12553
3075.90751,0.12349
3077.83598,0.12664
3079.76445,0.13339
3081.69292,0.13594
3083.62139,0.13211
3085.54985,0.12755
3087.47832,0.13132
3089.40679,0.13885
3091.33526,0.13829
3093.26373,0.12995
3095.19220,0.12304
3097.12067,0.12223
3099.04914,0.12374
3100.97760,0.12255
3102.90607,0.11922
3104.83454,0.12115
3106.76301,0.12748
3108.69148,0.12903
3110.61995,0.12636
3112.54842,0.12486
3114.47688,0.12445
3116.40535,0.12390
3118.33382,0.12522
3120.26229,0.12784
3122.19076,0.12831
3124.11923,0.12802
3126.04770,0.13107
3127.97617,0.13505
3129.90463,0.13415
3131.83310,0.13144
3133.76157,0.13185
3135.69004,0.13148
3137.61851,0.12873
3139.54698,0.12807
3141.47545,0.12976
3143.40391,0.13060
3145.33238,0.12935
3147.26085,0.12730
3149.18932,0.12962
3151.11779,0.13680
3153.04626,0.14151
3154.97473,0.14070
3156.90320,0.13680
3158.83166,0.13301
3160.76013,0.13291
3162.68860,0.13509
3164.61707,0.13537
3166.54554,0.13424
3168.47401,0.13212
3170.40248,0.12879
3172.33094,0.12796
3174.25941,0.13183
3176.18788,0.13771
3178.11635,0.14045
3180.04482,0.13763
3181.97329,0.13546
3183.90176,0.13945
3185.83022,0.14341
3187.75869,0.14145
3189.68716,0.13589
3191.61563,0.12919
3193.54410,0.12468
3195.47257,0.12498
3197.40104,0.12941
3199.32951,0.13570
3201.25797,0.13898
3203.18644,0.13845
3205.11491,0.13844
3207.04338,0.13997
3208.97185,0.13989
3210.90032,0.13664
3212.82879,0.13355
3214.75725,0.13436
3216.68572,0.13826
3218.61419,0.14115
3220.54266,0.14110
3222.47113,0.13906
3224.39960,0.13468
3226.32807,0.12954
3228.25654,0.12785
3230.18500,0.12850
3232.11347,0.12739
3234.04194,0.12527
3235.97041,0.12545
3237.89888,0.12911
3239.82735,0.13431
3241.75582,0.13781
3243.68428,0.13790
3245.61275,0.13574
3247.54122,0.13410
3249.46969,0.13323
3251.39816,0.13102
3253.32663,0.12838
3255.25510,0.12871
3257.18357,0.13143
3259.11203,0.13268
3261.04050,0.13112
3262.96897,0.12867
3264.89744,0.12572
3266.82591,0.12177
3268.75438,0.12222
3270.68285,0.13098
3272.61131,0.14132
3274.53978,0.14449
3276.46825,0.13946
3278.39672,0.13354
3280.32519,0.13293
3282.25366,0.13239
3284.18213,0.12437
3286.11060,0.11616
3288.03906,0.11878
3289.96753,0.12739
3291.89600,0.13193
3293.82447,0.13213
3295.75294,0.13264
3297.68141,0.13348
3299.60988,0.13131
3301.53834,0.12889
3303.46681,0.13032
3305.39528,0.12890
3307.32375,0.12248
3309.25222,0.12132
3311.18069,0.12687
3313.10916,0.12995
3315.03763,0.12722
3316.96609,0.12502
3318.89456,0.12800
3320.82303,0.13142
3322.75150,0.13285
3324.67997,0.13574
3326.60844,0.13914
3328.53691,0.13928
3330.46537,0.13746
3332.39384,0.13763
3334.32231,0.13837
3336.25078,0.13652
3338.17925,0.13518
3340.10772,0.13593
3342.03619,0.13701
3343.96466,0.14218
3345.89312,0.15160
3347.82159,0.15475
3349.75006,0.14759
3351.67853,0.13860
3353.60700,0.13383
3355.53547,0.13338
3357.46394,0.13486
3359.39240,0.13515
3361.32087,0.13599
3363.24934,0.13844
3365.17781,0.13997
3367.10628,0.14128
3369.03475,0.14127
3370.96322,0.13750
3372.89168,0.13601
3374.82015,0.13889
3376.74862,0.13943
3378.67709,0.13773
3380.60556,0.13599
3382.53403,0.13395
3384.46250,0.13356
3386.39097,0.13397
3388.31943,0.13449
3390.24790,0.13608
3392.17637,0.13618
3394.10484,0.13619
3396.03331,0.13725
3397.96178,0.13538
3399.89025,0.13473
3401.81871,0.13772
3403.74718,0.13876
3405.67565,0.13752
3407.60412,0.13606
3409.53259,0.13464
3411.46106,0.13272
3413.38953,0.12954
3415.31800,0.12787
3417.24646,0.12902
3419.17493,0.12943
3421.10340,0.12862
3423.03187,0.12983
3424.96034,0.13462
3426.88881,0.13790
3428.81728,0.13283
3430.74574,0.12776
3432.67421,0.13170
3434.60268,0.13391
3436.53115,0.12928
3438.45962,0.12842
3440.38809,0.13250
3442.31656,0.13198
3444.24503,0.12583
3446.17349,0.12145
3448.10196,0.12237
3450.03043,0.12553
3451.95890,0.12858
3453.88737,0.13028
3455.81584,0.12748
3457.74431,0.12260
3459.67277,0.12244
3461.60124,0.12481
3463.52971,0.12377
3465.45818,0.12286
3467.38665,0.12478
3469.31512,0.12528
3471.24359,0.12559
3473.17206,0.12882
3475.10052,0.13091
3477.02899,0.12877
3478.95746,0.12665
3480.88593,0.12803
3482.81440,0.12686
3484.74287,0.12075
3486.67134,0.11666
3488.59980,0.11484
3490.52827,0.11443
3492.45674,0.11607
3494.38521,0.11710
3496.31368,0.11884
3498.24215,0.12015
3500.17062,0.12010
3502.09909,0.12362
3504.02755,0.12621
3505.95602,0.12139
3507.88449,0.11499
3509.81296,0.11175
3511.74143,0.11089
3513.66990,0.11303
3515.59837,0.11677
3517.52683,0.11669
3519.45530,0.11286
3521.38377,0.11016
3523.31224,0.11027
3525.24071,0.11282
3527.16918,0.11670
3529.09765,0.11950
3531.02611,0.11933
3532.95458,0.11698
3534.88305,0.11403
3536.81152,0.11068
3538.73999,0.10629
3540.66846,0.10150
3542.59693,0.09950
3544.52540,0.10096
3546.45386,0.10229
3548.38233,0.10288
3550.31080,0.10339
3552.23927,0.10296
3554.16774,0.10412
3556.09621,0.10696
3558.02468,0.10597
3559.95314,0.10239
3561.88161,0.10311
3563.81008,0.10932
3565.73855,0.11754
3567.66702,0.11654
3569.59549,0.10801
3571.52396,0.10687
3573.45243,0.10869
3575.38089,0.10564
3577.30936,0.10051
3579.23783,0.09717
3581.16630,0.09613
3583.09477,0.09568
3585.02324,0.09495
3586.95171,0.09643
3588.88017,0.09848
3590.80864,0.09683
3592.73711,0.09281
3594.66558,0.08843
3596.59405,0.08559
3598.52252,0.08645
3600.45099,0.09099
3602.37946,0.09695
3604.30792,0.10370
3606.23639,0.10747
3608.16486,0.10518
3610.09333,0.10460
3612.02180,0.10679
3613.95027,0.10492
3615.87874,0.10132
3617.80720,0.10017
3619.73567,0.09855
3621.66414,0.09437
3623.59261,0.09135
3625.52108,0.09215
3627.44955,0.09333
3629.37802,0.08591
3631.30649,0.08002
3633.23495,0.08425
3635.16342,0.09195
3637.09189,0.09434
3639.02036,0.09018
3640.94883,0.08776
3642.87730,0.08842
3644.80577,0.08946
3646.73423,0.09536
3648.66270,0.10550
3650.59117,0.10387
3652.51964,0.09493
3654.44811,0.08881
3656.37658,0.08526
3658.30505,0.08413
3660.23352,0.08444
3662.16198,0.08569
3664.09045,0.08627
3666.01892,0.08534
3667.94739,0.08687
3669.87586,0.09061
3671.80433,0.09290
3673.73280,0.09648
3675.66126,0.09480
3677.58973,0.08575
3679.51820,0.08187
3681.44667,0.08149
3683.37514,0.08093
3685.30361,0.07975
3687.23208,0.07798
3689.16055,0.08016
3691.08901,0.08876
3693.01748,0.09183
3694.94595,0.08816
3696.87442,0.08514
3698.80289,0.08797
3700.73136,0.09388
3702.65983,0.09303
3704.58829,0.08368
3706.51676,0.07528
3708.44523,0.07508
3710.37370,0.08381
3712.30217,0.09221
3714.23064,0.09429
3716.15911,0.09532
3718.08757,0.09994
3720.01604,0.10330
3721.94451,0.09547
3723.87298,0.08415
3725.80145,0.07739
3727.72992,0.07374
3729.65839,0.07677
3731.58686,0.08320
3733.51532,0.08809
3735.44379,0.08903
3737.37226,0.08125
3739.30073,0.07673
3741.22920,0.08113
3743.15767,0.08758
3745.08614,0.08939
3747.01460,0.08954
3748.94307,0.09253
3750.87154,0.09536
3752.80001,0.09132
3754.72848,0.08289
3756.65695,0.07867
3758.58542,0.08231
3760.51389,0.08310
3762.44235,0.07926
3764.37082,0.07905
3766.29929,0.08112
3768.22776,0.08459
3770.15623,0.08794
3772.08470,0.08631
3774.01317,0.08225
3775.94163,0.08038
3777.87010,0.08594
3779.79857,0.09495
3781.72704,0.09359
3783.65551,0.08581
3785.58398,0.08069
3787.51245,0.07824
3789.44092,0.07642
3791.36938,0.07729
3793.29785,0.08321
3795.22632,0.08947
3797.15479,0.08975
3799.08326,0.09297
3801.01173,0.10270
3802.94020,0.10054
3804.86866,0.08933
3806.79713,0.08087
3808.72560,0.07899
3810.65407,0.08129
3812.58254,0.08413
3814.51101,0.08776
3816.43948,0.08886
3818.36795,0.08542
3820.29641,0.08447
3822.22488,0.08653
3824.15335,0.08568
3826.08182,0.08279
3828.01029,0.07967
3829.93876,0.07863
3831.86723,0.08100
3833.79569,0.08452
3835.72416,0.08788
3837.65263,0.09212
3839.58110,0.09274
3841.50957,0.08533
3843.43804,0.07637
3845.36651,0.07354
3847.29498,0.07689
3849.22344,0.08284
3851.15191,0.08850
3853.08038,0.09079
3855.00885,0.09086
3856.93732,0.09161
3858.86579,0.09109
3860.79426,0.09046
3862.72272,0.09151
3864.65119,0.09126
3866.57966,0.08664
3868.50813,0.07850
3870.43660,0.07102
3872.36507,0.07154
3874.29354,0.07595
3876.22200,0.07828
3878.15047,0.07822
3880.07894,0.07583
3882.00741,0.07170
3883.93588,0.07108
3885.86435,0.07549
3887.79282,0.07782
3889.72129,0.07846
3891.64975,0.08155
3893.57822,0.08140
3895.50669,0.07818
3897.43516,0.07754
3899.36363,0.08134
3901.29210,0.08714
3903.22057,0.08879
3905.14903,0.08585
3907.07750,0.08322
3909.00597,0.07998
3910.93444,0.07426
3912.86291,0.07089
3914.79138,0.07279
3916.71985,0.07604
3918.64832,0.07756
3920.57678,0.07927
3922.50525,0.08249
3924.43372,0.08404
3926.36219,0.08278
3928.29066,0.08189
3930.21913,0.08435
3932.14760,0.08846
3934.07606,0.08685
3936.00453,0.07958
3937.93300,0.07192
3939.86147,0.06937
3941.78994,0.07518
3943.71841,0.08196
3945.64688,0.07944
3947.57535,0.06984
3949.50381,0.06138
3951.43228,0.05807
3953.36075,0.05834
3955.28922,0.05971
3957.21769,0.06306
3959.14616,0.06844
3961.07463,0.06924
3963.00309,0.06688
3964.93156,0.07017
3966.86003,0.07475
3968.78850,0.07307
3970.71697,0.07107
3972.64544,0.07391
3974.57391,0.07503
3976.50238,0.07114
3978.43084,0.06682
3980.35931,0.06397
3982.28778,0.06239
3984.21625,0.06220
3986.14472,0.06229
3988.07319,0.06092
3990.00166,0.05755
3991.93012,0.05288
3993.85859,0.04878
3995.78706,0.05199
3997.71553,0.06303
3999.64400,0.06939
4001.57247,0.06697
4003.50094,0.06331
4005.42941,0.06055
4007.35787,0.05840
4009.28634,0.06163
4011.21481,0.06894
4013.14328,0.07100
4015.07175,0.06692
4017.00022,0.06268
4018.92869,0.06029
4020.85715,0.06109
4022.78562,0.06572
4024.71409,0.06946
4026.64256,0.06668
4028.57103,0.06106
4030.49950,0.06204
4032.42797,0.06639
4034.35644,0.06490
4036.28490,0.06296
4038.21337,0.06532
4040.14184,0.06688
4042.07031,0.06619
4043.99878,0.06171
4045.92725,0.05630
4047.85572,0.05748
4049.78418,0.06222
4051.71265,0.06416
4053.64112,0.06061
4055.56959,0.05515
4057.49806,0.05623
4059.42653,0.06249
4061.35500,0.06678
4063.28346,0.06825
4065.21193,0.06986
4067.14040,0.07215
4069.06887,0.07268
4070.99734,0.07120
4072.92581,0.07046
4074.85428,0.07040
4076.78275,0.06891
4078.71121,0.06733
4080.63968,0.06427
4082.56815,0.05706
4084.49662,0.05157
4086.42509,0.05274
4088.35356,0.05710
4090.28203,0.05922
4092.21049,0.05891
4094.13896,0.05873
4096.06743,0.05774
4097.99590,0.05804
4099.92437,0.06009
4101.85284,0.05797
4103.78131,0.05515
4105.70978,0.06001
4107.63824,0.06815
4109.56671,0.06945
4111.49518,0.06349
4113.42365,0.05680
4115.35212,0.05462
4117.28059,0.05697
4119.20906,0.05874
4121.13752,0.05866
4123.06599,0.05846
4124.99446,0.05819
4126.92293,0.05813
4128.85140,0.05816
4130.77987,0.05845
4132.70834,0.06011
4134.63681,0.06381
4136.56527,0.06587
4138.49374,0.06458
4140.42221,0.06391
4142.35068,0.06443
4144.27915,0.06599
4146.20762,0.06703
4148.13609,0.06535
4150.06455,0.06421
4151.99302,0.06292
4153.92149,0.05961
4155.84996,0.05838
4157.77843,0.05777
4159.70690,0.05220
4161.63537,0.04494
4163.56384,0.04061
4165.49230,0.03875
4167.42077,0.04124
4169.34924,0.04601
4171.27771,0.04684
4173.20618,0.04698
4175.13465,0.05050
4177.06312,0.05384
4178.99158,0.05272
4180.92005,0.04736
4182.84852,0.04497
4184.77699,0.04803
4186.70546,0.05112
4188.63393,0.05351
4190.56240,0.05593
4192.49087,0.05800
4194.41933,0.05832
4196.34780,0.05371
4198.27627,0.04902
4200.20474,0.04889
4202.13321,0.04860
4204.06168,0.04573
4205.99015,0.04463
4207.91861,0.04813
4209.84708,0.04791
4211.77555,0.04187
4213.70402,0.04295
4215.63249,0.04928
4217.56096,0.05055
4219.48943,0.04962
4221.41789,0.04829
4223.34636,0.04680
4225.27483,0.04802
4227.20330,0.04631
4229.13177,0.04142
4231.06024,0.04306
4232.98871,0.04895
4234.91718,0.05336
4236.84564,0.05839
4238.77411,0.06110
4240.70258,0.05722
4242.63105,0.05316
4244.55952,0.05302
4246.48799,0.05090
4248.41646,0.04641
4250.34492,0.04125
4252.27339,0.03473
4254.20186,0.03142
4256.13033,0.03311
4258.05880,0.03939
4259.98727,0.04757
4261.91574,0.04950
4263.84421,0.04576
4265.77267,0.04339
4267.70114,0.04309
4269.62961,0.04282
4271.55808,0.04155
4273.48655,0.03615
4275.41502,0.02785
4277.34349,0.02790
4279.27195,0.03718
4281.20042,0.04290
4283.12889,0.04252
4285.05736,0.04036
4286.98583,0.03673
4288.91430,0.03434
4290.84277,0.03896
4292.77124,0.04842
4294.69970,0.05072
4296.62817,0.04212
4298.55664,0.03331
4300.48511,0.03072
4302.41358,0.02782
4304.34205,0.02624
4306.27052,0.03337
4308.19898,0.03846
4310.12745,0.03666
4312.05592,0.03736
4313.98439,0.03921
4315.91286,0.04022
4317.84133,0.04036
4319.76980,0.03698
4321.69827,0.03292
4323.62673,0.02811
4325.55520,0.02239
4327.48367,0.02240
4329.41214,0.02631
4331.34061,0.02972
4333.26908,0.03652
4335.19755,0.04412
4337.12601,0.04819
4339.05448,0.04882
4340.98295,0.04474
4342.91142,0.04175
4344.83989,0.04318
4346.76836,0.04163
4348.69683,0.03475
4350.62530,0.02769
4352.55376,0.02487
4354.48223,0.02759
4356.41070,0.03105
4358.33917,0.03025
4360.26764,0.03174
4362.19611,0.03576
4364.12458,0.03197
4366.05304,0.02609
4367.98151,0.02840
4369.90998,0.03202
4371.83845,0.02956
4373.76692,0.02656
4375.69539,0.02723
4377.62386,0.02865
4379.55232,0.03067
4381.48079,0.03018
4383.40926,0.02152
4385.33773,0.01024
4387.26620,0.00482
4389.19467,0.00989
4391.12314,0.02291
4393.05161,0.03017
4394.98007,0.02640
4396.90854,0.01933
4398.83701,0.01541
4400.76548,0.01455
4402.69395,0.01391
4404.62242,0.01480
4406.55089,0.01528
4408.47935,0.01405
4410.40782,0.01690
4412.33629,0.02203
4414.26476,0.02403
4416.19323,0.02351
4418.12170,0.01892
4420.05017,0.01095
4421.97864,0.00862
4423.90710,0.01177
4425.83557,0.01169
4427.76404,0.01455
4429.69251,0.02205
4431.62098,0.01865
4433.54945,0.00955
4435.47792,0.00756
4437.40638,0.00527
4439.33485,0.00174
4441.26332,0.00485
4443.19179,0.01241
4445.12026,0.01677
4447.04873,0.01858
4448.97720,0.02336
4450.90567,0.02976
4452.83413,0.03182
4454.76260,0.02760
4456.69107,0.02306
4458.61954,0.02242
4460.54801,0.02409
4462.47648,0.02138
4464.40495,0.01136
4466.33341,0.00603
4468.26188,0.01113
4470.19035,0.01864
4472.11882,0.02226
4474.04729,0.02381
4475.97576,0.02643
4477.90423,0.02285
4479.83270,0.01175
4481.76116,0.00247
4483.68963,-0.00103
4485.61810,0.00274
4487.54657,0.00942
4489.47504,0.01570
4491.40351,0.02495
4493.33198,0.02795
4495.26044,0.02054
4497.18891,0.01493
4499.11738,0.01201
4501.04585,0.00923
4502.97432,0.01077
4504.90279,0.01364
4506.83126,0.01590
4508.75973,0.02036
4510.68819,0.02238
4512.61666,0.01952
4514.54513,0.01725
4516.47360,0.01316
4518.40207,0.00776
4520.33054,0.00965
4522.25901,0.01255
4524.18747,0.01069
4526.11594,0.01297
4528.04441,0.01860
4529.97288,0.02022
4531.90135,0.02122
4533.82982,0.02681
4535.75829,0.02876
4537.68676,0.01467
4539.61522,-0.00328
4541.54369,-0.00363
4543.47216,0.00723
4545.40063,0.01332
4547.32910,0.01108
4549.25757,0.00480
4551.18604,0.00576
4553.11450,0.01400
4555.04297,0.01293
4556.97144,0.00431
4558.89991,0.00253
4560.82838,0.00588
4562.75685,0.01097
4564.68532,0.01679
4566.61378,0.01727
4568.54225,0.01199
4570.47072,0.00608
4572.39919,0.00284
4574.32766,0.00407
4576.25613,0.00998
4578.18460,0.01357
4580.11307,0.00922
4582.04153,0.00462
4583.97000,0.00324
4585.89847,0.00193
4587.82694,0.00272
4589.75541,0.00399
4591.68388,0.00392
4593.61235,0.00450
4595.54081,0.00716
4597.46928,0.01286
4599.39775,0.01714
4601.32622,0.01687
4603.25469,0.01564
4605.18316,0.01199
4607.11163,0.00154
4609.04010,-0.01030
4610.96856,-0.01361
4612.89703,-0.00477
4614.82550,0.00805
4616.75397,0.01219
4618.68244,0.00427
4620.61091,-0.00316
4622.53938,0.00285
4624.46784,0.01204
4626.39631,0.01458
4628.32478,0.01841
4630.25325,0.02446
4632.18172,0.02821
4634.11019,0.02628
4636.03866,0.01551
4637.96713,0.00081
4639.89559,-0.00642
4641.82406,-0.00126
4643.75253,0.00696
4645.68100,0.00913
4647.60947,0.01190
4649.53794,0.02178
4651.46641,0.02735
4653.39487,0.02170
4655.32334,0.01232
4657.25181,0.00610
4659.18028,0.00734
4661.10875,0.01023
4663.03722,0.00495
4664.96569,-0.00164
4666.89416,-0.00057
4668.82262,0.00486
4670.75109,0.00736
4672.67956,0.00308
4674.60803,-0.00300
4676.53650,-0.00229
4678.46497,0.01021
4680.39344,0.02600
4682.32190,0.02330
4684.25037,-0.00134
4686.17884,-0.02239
4688.10731,-0.01808
4690.03578,0.00186
4691.96425,0.01147
4693.89272,0.00377
4695.82119,-0.00678
4697.74965,-0.00945
4699.67812,-0.00491
4701.60659,0.00574
4703.53506,0.01811
4705.46353,0.02508
4707.39200,0.02867
4709.32047,0.03405
4711.24893,0.03788
4713.17740,0.03081
4715.10587,0.01292
4717.03434,-0.00003
4718.96281,-0.00158
4720.89128,-0.00146
4722.81975,-0.00144
4724.74821,0.00006
4726.67668,0.00163
4728.60515,0.00673
4730.53362,0.01297
4732.46209,0.01238
4734.39056,0.00581
4736.31903,0.00248
4738.24750,0.00643
4740.17596,0.01110
4742.10443,0.01043
4744.03290,0.00462
4745.96137,-0.00083
4747.88984,0.00537
4749.81831,0.01738
4751.74678,0.01540
4753.67524,0.00567
4755.60371,0.00338
4757.53218,0.00208
4759.46065,-0.00326
4761.38912,-0.00236
4763.31759,0.00750
4765.24606,0.01703
4767.17453,0.02437
4769.10299,0.02733
4771.03146,0.01955
4772.95993,0.00783
4774.88840,-0.00012
4776.81687,-0.00448
4778.74534,-0.00789
4780.67381,-0.01275
4782.60227,-0.01159
4784.53074,-0.00517
4786.45921,0.00102
4788.38768,0.01208
4790.31615,0.01868
4792.24462,0.01616
4794.17309,0.01500
4796.10156,0.01791
4798.03002,0.02064
4799.95849,0.01982
4801.88696,0.01684
4803.81543,0.01350
4805.74390,0.01025
4807.67237,0.00978
4809.60084,0.01308
4811.52930,0.01642
4813.45777,0.01796
4815.38624,0.01463
4817.31471,-0.00046
4819.24318,-0.00973
4821.17165,0.00029
4823.10012,0.01452
4825.02859,0.01653
4826.95705,0.00950
4828.88552,0.00444
4830.81399,0.00487
4832.74246,0.00817
4834.67093,0.01021
4836.59940,0.00731
4838.52787,0.00329
4840.45633,0.00150
4842.38480,-0.00044
4844.31327,-0.00409
4846.24174,-0.00599
4848.17021,0.00150
4850.09868,0.00667
4852.02715,-0.00174
4853.95562,-0.00662
4855.88408,-0.00403
4857.81255,-0.00519
4859.74102,-0.00783
4861.66949,-0.00277
4863.59796,0.00969
4865.52643,0.01997
4867.45490,0.02036
4869.38336,0.01066
4871.31183,0.00158
4873.24030,0.00022
4875.16877,-0.00033
4877.09724,-0.00510
4879.02571,-0.00575
4880.95418,0.00732
4882.88265,0.01876
4884.81111,0.01092
4886.73958,-0.00526
4888.66805,-0.01092
4890.59652,-0.00114
4892.52499,0.01561
4894.45346,0.02298
4896.38193,0.01835
4898.31039,0.01384
4900.23886,0.00835
4902.16733,0.00179
4904.09580,0.00127
4906.02427,-0.00317
4907.95274,-0.01222
4909.88121,-0.01063
4911.80967,-0.00395
4913.73814,-0.00017
4915.66661,0.00393
4917.59508,0.00717
4919.52355,0.01085
4921.45202,0.01489
4923.38049,0.01795
4925.30896,0.02300
4927.23742,0.02372
4929.16589,0.01423
4931.09436,0.00446
4933.02283,0.00538
4934.95130,0.01414
4936.87977,0.01951
4938.80824,0.01967
4940.73670,0.02026
4942.66517,0.02022
4944.59364,0.01958
4946.52211,0.01617
4948.45058,0.01121
4950.37905,0.01260
4952.30752,0.01679
4954.23599,0.02008
4956.16445,0.02332
4958.09292,0.02087
4960.02139,0.00961
4961.94986,0.00063
4963.87833,0.00965
4965.80680,0.02460
4967.73527,0.02067
4969.66373,0.00590
4971.59220,-0.00144
4973.52067,-0.00100
4975.44914,0.00357
4977.37761,0.00567
4979.30608,-0.00413
4981.23455,-0.01531
4983.16302,-0.01131
4985.09148,-0.00343
4987.01995,-0.00509
4988.94842,-0.01045
4990.87689,-0.01217
4992.80536,-0.00667
4994.73383,0.00630
4996.66230,0.02338
4998.59076,0.03365
5000.51923,0.03183
5002.44770,0.02905
5004.37617,0.02528
5006.30464,0.01475
5008.23311,0.01030
5010.16158,0.01255
5012.09005,0.01040
5014.01851,0.01493
5015.94698,0.02883
5017.87545,0.03506
5019.80392,0.03010
5021.73239,0.01953
5023.66086,0.00765
5025.58933,0.00148
5027.51779,0.00117
5029.44626,-0.00260
5031.37473,-0.00925
5033.30320,-0.01196
5035.23167,-0.01067
5037.16014,-0.00602
5039.08861,0.00704
5041.01708,0.02407
5042.94554,0.02277
5044.87401,0.00529
5046.80248,-0.00030
5048.73095,0.01100
5050.65942,0.02528
5052.58789,0.03284
5054.51636,0.02705
5056.44482,0.01793
5058.37329,0.01880
5060.30176,0.02127
5062.23023,0.02936
5064.15870,0.04837
5066.08717,0.05311
5068.01564,0.03901
5069.94410,0.02574
5071.87257,0.00722
5073.80104,-0.01290
5075.72951,-0.00597
5077.65798,0.01510
5079.58645,0.02434
5081.51492,0.02691
5083.44339,0.02534
5085.37185,0.02922
5087.30032,0.04315
5089.22879,0.04410
5091.15726,0.02875
5093.08573,0.01510
5095.01420,0.01106
5096.94267,0.01792
5098.87113,0.02534
5100.79960,0.02492
5102.72807,0.02115
5104.65654,0.01723
5106.58501,0.01413
5108.51348,0.01775
5110.44195,0.03044
5112.37042,0.03834
5114.29888,0.03540
5116.22735,0.02724
5118.15582,0.01842
5120.08429,0.01322
5122.01276,0.01238
5123.94123,0.01879
5125.86970,0.02859
5127.79816,0.03215
5129.72663,0.01907
5131.65510,-0.00572
5133.58357,-0.01087
5135.51204,0.00755
5137.44051,0.01811
5139.36898,0.01903
5141.29745,0.03402
5143.22591,0.05005
5145.15438,0.04361
5147.08285,0.03701
5149.01132,0.03740
5150.93979,0.02007
5152.86826,0.00316
5154.79673,0.00930
5156.72519,0.02380
5158.65366,0.03430
5160.58213,0.03443
5162.51060,0.02687
5164.43907,0.02847
5166.36754,0.04680
5168.29601,0.07508
5170.22448,0.09604
5172.15294,0.08870
5174.08141,0.06317
5176.00988,0.04784
5177.93835,0.05179
5179.86682,0.06928
5181.79529,0.06967
5183.72376,0.03223
5185.65222,-0.00741
5187.58069,-0.01347
5189.50916,0.00122
5191.43763,0.00785
5193.36610,0.00305
5195.29457,0.00707
5197.22304,0.01597
5199.15151,0.01208
5201.07997,0.00940
5203.00844,0.02030
5204.93691,0.02466
5206.86538,0.00726
5208.79385,-0.00244
5210.72232,0.01274
5212.65079,0.02714
5214.57925,0.02880
5216.50772,0.03004
5218.43619,0.03585
5220.36466,0.03438
5222.29313,0.02093
5224.22160,0.00639
5226.15007,0.00561
5228.07854,0.02332
5230.00700,0.04103
5231.93547,0.03403
5233.86394,0.00820
5235.79241,-0.00228
5237.72088,0.00687
5239.64935,0.02223
5241.57782,0.04781
5243.50628,0.06645
5245.43475,0.04735
5247.36322,0.01447
5249.29169,0.00767
5251.22016,0.01868
5253.14863,0.02876
5255.07710,0.03399
5257.00556,0.03274
5258.93403,0.02215
5260.86250,0.00653
5262.79097,0.00352
5264.71944,0.01435
5266.64791,0.01493
5268.57638,-0.00616
5270.50485,-0.03290
5272.43331,-0.03398
5274.36178,0.00280
5276.29025,0.04622
5278.21872,0.06487
5280.14719,0.05757
5282.07566,0.02851
5284.00413,0.00583
5285.93259,0.01397
5287.86106,0.02679
5289.78953,0.02130
5291.71800,0.00188
5293.64647,-0.00783
5295.57494,0.01125
5297.50341,0.02968
5299.43188,0.02359
5301.36034,0.02904
5303.28881,0.05492
5305.21728,0.07506
5307.14575,0.08310
5309.07422,0.07121
5311.00269,0.04016
5312.93116,0.00905
5314.85962,-0.00203
5316.78809,0.00518
5318.71656,0.01249
5320.64503,0.01570
5322.57350,0.01769
5324.50197,0.02185
5326.43044,0.02953
5328.35891,0.04283
5330.28737,0.05820
5332.21584,0.06308
5334.14431,0.06315
5336.07278,0.06519
5338.00125,0.06256
5339.92972,0.06364
5341.85819,0.07495
5343.78665,0.07981
5345.71512,0.05322
5347.64359,0.01384
5349.57206,-0.00484
5351.50053,-0.00405
5353.42900,0.00889
5355.35747,0.03083
5357.28594,0.04668
5359.21440,0.04802
5361.14287,0.04690
5363.07134,0.04540
5364.99981,0.03037
5366.92828,0.02619
5368.85675,0.04705
5370.78522,0.06604
5372.71368,0.08025
5374.64215,0.09079
5376.57062,0.08146
5378.49909,0.06813
5380.42756,0.06509
5382.35603,0.06777
5384.28450,0.06534
5386.21297,0.04903
5388.14143,0.04422
5390.06990,0.04865
5391.99837,0.03383
5393.92684,0.01726
5395.85531,0.03413
5397.78378,0.06227
5399.71225,0.06858
5401.64071,0.06043
5403.56918,0.05390
5405.49765,0.04902
5407.42612,0.04529
5409.35459,0.04285
5411.28306,0.04402
5413.21153,0.05429
5415.13999,0.06556
5417.06846,0.06616
5418.99693,0.05203
5420.92540,0.02978
5422.85387,0.01458
5424.78234,0.01750
5426.71081,0.03900
5428.63928,0.05450
5430.56774,0.05440
5432.49621,0.06322
5434.42468,0.07128
5436.35315,0.06862
5438.28162,0.07564
5440.21009,0.08558
5442.13856,0.08165
5444.06702,0.07009
5445.99549,0.04803
5447.92396,0.01243
5449.85243,-0.00615
5451.78090,0.01059
5453.70937,0.03827
5455.63784,0.05215
5457.56631,0.04945
5459.49477,0.04776
5461.42324,0.05702
5463.35171,0.06796
5465.28018,0.06841
5467.20865,0.04712
5469.13712,0.01738
5471.06559,0.01782
5472.99405,0.04188
5474.92252,0.04613
5476.85099,0.03682
5478.77946,0.04941
5480.70793,0.05507
5482.63640,0.03750
5484.56487,0.02659
5486.49334,0.02473
5488.42180,0.02320
5490.35027,0.02370
5492.27874,0.03683
5494.20721,0.07397
5496.13568,0.09002
5498.06415,0.06612
5499.99262,0.05592
5501.92108,0.06082
5503.84955,0.04281
5505.77802,0.02787
5507.70649,0.03298
5509.63496,0.04366
5511.56343,0.06528
5513.49190,0.08215
5515.42037,0.06573
5517.34883,0.03234
5519.27730,0.01134
5521.20577,-0.00101
5523.13424,-0.01348
5525.06271,-0.01411
5526.99118,0.00440
5528.91965,0.03386
5530.84811,0.05745
5532.77658,0.07026
5534.70505,0.07877
5536.63352,0.06895
5538.56199,0.04565
5540.49046,0.03633
5542.41893,0.02868
5544.34740,0.01805
5546.27586,0.02664
5548.20433,0.02677
5550.13280,0.00871
5552.06127,0.01958
5553.98974,0.04965
5555.91821,0.05822
5557.84668,0.06160
5559.77514,0.08600
5561.70361,0.10632
5563.63208,0.08845
5565.56055,0.04955
5567.48902,0.01279
5569.41749,-0.01835
5571.34596,-0.02122
5573.27443,0.02153
5575.20289,0.06897
5577.13136,0.08169
5579.05983,0.08319
5580.98830,0.08069
5582.91677,0.06157
5584.84524,0.04872
5586.77371,0.05194
5588.70217,0.05285
5590.63064,0.04881
5592.55911,0.04242
5594.48758,0.02541
5596.41605,0.00687
5598.34452,-0.00404
5600.27299,0.00264
5602.20145,0.04608
5604.12992,0.08860
5606.05839,0.08025
5607.98686,0.04947
5609.91533,0.03575
5611.84380,0.04090
5613.77227,0.07073
5615.70074,0.09987
5617.62920,0.08407
5619.55767,0.04637
5621.48614,0.03081
5623.41461,0.02633
5625.34308,0.01419
5627.27155,0.00324
5629.20002,0.00460
5631.12848,0.02363
5633.05695,0.05622
5634.98542,0.08351
5636.91389,0.08906
5638.84236,0.07796
5640.77083,0.07003
5642.69930,0.07007
5644.62777,0.05860
5646.55623,0.03872
5648.48470,0.04245
5650.41317,0.04996
5652.34164,0.03540
5654.27011,0.03897
5656.19858,0.06722
5658.12705,0.07321
5660.05551,0.04730
5661.98398,0.02397
5663.91245,0.03385
5665.84092,0.07473
5667.76939,0.11274
5669.69786,0.11718
5671.62633,0.10269
5673.55480,0.10632
5675.48326,0.11592
5677.41173,0.09058
5679.34020,0.05648
5681.26867,0.06388
5683.19714,0.07112
5685.12561,0.04020
5687.05408,0.02426
5688.98254,0.03787
5690.91101,0.03599
5692.83948,0.01238
5694.76795,0.00089
5696.69642,0.02873
5698.62489,0.05914
5700.55336,0.04149
5702.48183,-0.00790
5704.41029,-0.03585
5706.33876,-0.01930
5708.26723,0.00567
5710.19570,0.01163
5712.12417,0.01372
5714.05264,0.03073
5715.98111,0.07800
5717.90957,0.13512
5719.83804,0.14470
5721.76651,0.10844
5723.69498,0.07549
5725.62345,0.05539
5727.55192,0.04220
5729.48039,0.05057
5731.40886,0.06361
5733.33732,0.05220
5735.26579,0.04157
5737.19426,0.04187
5739.12273,0.01989
5741.05120,-0.00768
5742.97967,-0.01049
5744.90814,0.00165
5746.83660,0.01492
5748.76507,0.04229
5750.69354,0.08033
5752.62201,0.08013
5754.55048,0.04094
5756.47895,0.01936
5758.40742,0.02452
5760.33588,0.03687
5762.26435,0.05974
5764.19282,0.07452
5766.12129,0.07394
5768.04976,0.08363
5769.97823,0.09664
5771.90670,0.09138
5773.83517,0.06409
5775.76363,0.02445
5777.69210,-0.00368
5779.62057,0.01391
5781.54904,0.06008
5783.47751,0.08374
5785.40598,0.08428
5787.33445,0.07717
5789.26291,0.06197
5791.19138,0.04421
5793.11985,0.04217
5795.04832,0.07053
5796.97679,0.09693
5798.90526,0.07419
5800.83373,0.02813
5802.76220,0.00994
5804.69066,0.02494
5806.61913,0.04832
5808.54760,0.05533
5810.47607,0.05477
5812.40454,0.05833
5814.33301,0.06217
5816.26148,0.06663
5818.18994,0.06339
5820.11841,0.07176
5822.04688,0.10184
5823.97535,0.10434
5825.90382,0.07584
5827.83229,0.07719
5829.76076,0.10802
5831.68923,0.10437
5833.61769,0.07125
5835.54616,0.04481
5837.47463,0.04135
5839.40310,0.07597
5841.33157,0.10362
5843.26004,0.08485
5845.18851,0.06635
5847.11697,0.07756
5849.04544,0.10359
5850.97391,0.12117
5852.90238,0.10883
5854.83085,0.07226
5856.75932,0.03553
5858.68779,0.01969
5860.61626,0.02797
5862.54472,0.04570
5864.47319,0.04878
5866.40166,0.03330
5868.33013,0.02326
5870.25860,0.03379
5872.18707,0.07018
5874.11554,0.10354
5876.04400,0.09774
5877.97247,0.08675
5879.90094,0.09365
5881.82941,0.07861
5883.75788,0.03219
5885.68635,-0.00432
5887.61482,0.00758
5889.54329,0.05340
5891.47175,0.06858
5893.40022,0.05392
5895.32869,0.06644
5897.25716,0.08447
5899.18563,0.06674
5901.11410,0.05064
5903.04257,0.05180
5904.97103,0.04009
5906.89950,0.03623
5908.82797,0.05210
5910.75644,0.05412
5912.68491,0.03993
5914.61338,0.02347
5916.54185,0.01377
5918.47032,0.01303
5920.39878,0.01985
5922.32725,0.05325
5924.25572,0.11361
5926.18419,0.15083
5928.11266,0.13494
5930.04113,0.09383
5931.96960,0.05183
5933.89806,0.01984
5935.82653,0.00945
5937.75500,0.01506
5939.68347,0.02353
5941.61194,0.03999
5943.54041,0.06352
5945.46888,0.06707
5947.39734,0.07390
5949.32581,0.11722
5951.25428,0.13137
5953.18275,0.08972
5955.11122,0.06218
5957.03969,0.05174
5958.96816,0.02204
5960.89663,0.00351
5962.82509,0.03970
5964.75356,0.09187
5966.68203,0.09797
5968.61050,0.07008
5970.53897,0.05764
5972.46744,0.07354
5974.39591,0.08636
5976.32437,0.06740
5978.25284,0.04762
5980.18131,0.05717
5982.10978,0.08042
5984.03825,0.08978
5985.96672,0.07243
5987.89519,0.04839
5989.82366,0.03046
5991.75212,-0.00284
5993.68059,-0.04072
5995.60906,-0.04004
5997.53753,-0.00574
5999.46600,0.02596
6001.39447,0.04915
6003.32294,0.06046
6005.25140,0.05596
6007.17987,0.06618
6009.10834,0.10234
6011.03681,0.10636
6012.96528,0.04989
6014.89375,0.00242
6016.82222,0.01100
6018.75069,0.04881
6020.67915,0.08046
6022.60762,0.07427
6024.53609,0.03485
6026.46456,0.00319
6028.39303,0.00833
6030.32150,0.04216
6032.24997,0.08431
6034.17843,0.13058
6036.10690,0.15585
6038.03537,0.16213
6039.96384,0.17824
6041.89231,0.18318
6043.82078,0.14448
6045.74925,0.07836
6047.67772,0.02314
6049.60618,-0.00141
6051.53465,-0.00018
6053.46312,0.01798
6055.39159,0.05176
6057.32006,0.08617
6059.24853,0.09402
6061.17700,0.07346
6063.10546,0.05619
6065.03393,0.06944
6066.96240,0.09030
6068.89087,0.08340
6070.81934,0.05132
6072.74781,0.01823
6074.67628,-0.02061
6076.60475,-0.07627
6078.53321,-0.09595
6080.46168,-0.03976
6082.39015,0.02209
6084.31862,0.02456
6086.24709,0.01216
6088.17556,0.05333
6090.10403,0.09878
6092.03249,0.06863
6093.96096,-0.00596
6095.88943,-0.04833
6097.81790,-0.03552
6099.74637,-0.00427
6101.67484,0.00337
6103.60331,0.00011
6105.53177,-0.00940
6107.46024,-0.01164
6109.38871,0.03831
6111.31718,0.09367
6113.24565,0.11232
6115.17412,0.12664
6117.10259,0.13350
6119.03106,0.09973
6120.95952,0.04691
6122.88799,0.04925
6124.81646,0.08454
6126.74493,0.08044
6128.67340,0.06453
6130.60187,0.05962
6132.53034,0.05494
6134.45880,0.08163
6136.38727,0.11341
6138.31574,0.09460
6140.24421,0.06097
6142.17268,0.04523
6144.10115,-0.00197
6146.02962,-0.06252
6147.95809,-0.07214
6149.88655,-0.03147
6151.81502,0.02209
6153.74349,0.05965
6155.67196,0.07404
6157.60043,0.06612
6159.52890,0.06397
6161.45737,0.09193
6163.38583,0.12782
6165.31430,0.15361
6167.24277,0.15054
6169.17124,0.11148
6171.09971,0.07626
6173.02818,0.08106
6174.95665,0.09032
6176.88512,0.05187
6178.81358,0.00823
6180.74205,0.00955
6182.67052,0.00703
6184.59899,-0.01141
6186.52746,-0.00508
6188.45593,0.01735
6190.38440,0.04372
6192.31286,0.08635
6194.24133,0.11178
6196.16980,0.08394
6198.09827,0.05891
6200.02674,0.08800
6201.95521,0.11662
6203.88368,0.10637
6205.81215,0.06780
6207.74061,0.02215
6209.66908,0.02745
6211.59755,0.06726
6213.52602,0.07789
6215.45449,0.10363
6217.38296,0.13786
6219.31143,0.12644
6221.23989,0.09868
6223.16836,0.07454
6225.09683,0.06158
6227.02530,0.08203
6228.95377,0.07447
6230.88224,0.01310
6232.81071,-0.00672
6234.73918,0.01998
6236.66764,0.02036
6238.59611,0.00867
6240.52458,0.01084
6242.45305,0.00753
6244.38152,0.02125
6246.30999,0.08188
6248.23846,0.14291
6250.16692,0.14667
6252.09539,0.09166
6254.02386,0.03362
6255.95233,0.00170
6257.88080,-0.00044
6259.80927,0.02962
6261.73774,0.06638
6263.66621,0.06590
6265.59467,0.02009
6267.52314,0.00620
6269.45161,0.03701
6271.38008,0.05472
6273.30855,0.05277
6275.23702,0.04674
6277.16549,0.05989
6279.09395,0.08080
6281.02242,0.08716
6282.95089,0.07476
6284.87936,0.03090
6286.80783,-0.02287
6288.73630,-0.05063
6290.66477,-0.05348
6292.59323,-0.05002
6294.52170,-0.01145
6296.45017,0.09080
6298.37864,0.18282
6300.30711,0.16212
6302.23558,0.06901
6304.16405,0.02594
6306.09252,0.02258
6308.02098,0.02120
6309.94945,0.03058
6311.87792,0.04980
6313.80639,0.08891
6315.73486,0.13741
6317.66333,0.15603
6319.59180,0.14678
6321.52026,0.10991
6323.44873,0.05521
6325.37720,0.05266
6327.30567,0.08875
6329.23414,0.08732
6331.16261,0.06647
6333.09108,0.07964
6335.01955,0.09484
6336.94801,0.05881
6338.87648,-0.00595
6340.80495,-0.05566
6342.73342,-0.08398
6344.66189,-0.06659
6346.59036,0.00539
6348.51883,0.09380
6350.44729,0.16907
6352.37576,0.17114
6354.30423,0.11782
6356.23270,0.10666
6358.16117,0.14324
6360.08964,0.14387
6362.01811,0.08841
6363.94658,0.06081
6365.87504,0.10200
6367.80351,0.15605
6369.73198,0.17072
6371.66045,0.13477
6373.58892,0.06414
6375.51739,-0.00843
6377.44586,-0.07164
6379.37432,-0.09326
6381.30279,-0.06812
6383.23126,-0.07440
6385.15973,-0.12171
6387.08820,-0.13181
6389.01667,-0.08299
6390.94514,0.00532
6392.87361,0.07304
6394.80207,0.06243
6396.73054,0.01040
6398.65901,-0.02646
6400.58748,-0.04975
6402.51595,-0.07490
6404.44442,-0.06492
6406.37289,0.01298
6408.30135,0.07273
6410.22982,0.06226
6412.15829,0.09115
6414.08676,0.13049
6416.01523,0.07774
6417.94370,0.01447
6419.87217,0.01581
6421.80064,0.02696
6423.72910,0.05748
6425.65757,0.12473
6427.58604,0.17177
6429.51451,0.17937
6431.44298,0.16260
6433.37145,0.12045
6435.29992,0.06401
6437.22838,0.03225
6439.15685,0.04619
6441.08532,0.08435
6443.01379,0.12201
6444.94226,0.11069
6446.87073,0.05801
6448.79920,0.02417
6450.72766,0.02572
6452.65613,0.04213
6454.58460,0.07094
6456.51307,0.13516
6458.44154,0.19944
6460.37001,0.19109
6462.29848,0.12424
6464.22695,0.05163
6466.15541,0.00034
6468.08388,0.00893
6470.01235,0.02896
6471.94082,-0.02012
6473.86929,-0.05329
6475.79776,-0.00968
6477.72623,0.03236
6479.65469,0.04846
6481.58316,0.06457
6483.51163,0.05500
6485.44010,0.03908
6487.36857,0.06808
6489.29704,0.11118
6491.22551,0.08420
6493.15398,0.03559
6495.08244,0.05883
6497.01091,0.07118
6498.93938,0.02644
6500.86785,-0.01487
6502.79632,-0.03780
6504.72479,-0.05313
6506.65326,-0.03758
6508.58172,0.01217
6510.51019,0.04680
6512.43866,0.04068
6514.36713,0.03069
6516.29560,0.02156
6518.22407,0.01795
6520.15254,0.04745
6522.08101,0.09328
6524.00947,0.12228
6525.93794,0.10260
6527.86641,0.05887
6529.79488,0.03312
6531.72335,0.00431
6533.65182,-0.01072
6535.58029,0.01407
6537.50875,0.04385
6539.43722,0.03941
6541.36569,0.00320
6543.29416,-0.00668
6545.22263,0.01787
6547.15110,0.02603
6549.07957,0.02590
6551.00804,0.02300
6552.93650,0.00788
6554.86497,0.03349
6556.79344,0.10500
6558.72191,0.14158
6560.65038,0.09088
6562.57885,-0.03969
6564.50732,-0.15361
6566.43578,-0.11479
6568.36425,0.01744
6570.29272,0.10187
6572.22119,0.11638
6574.14966,0.07223
6576.07813,-0.01698
6578.00660,-0.08193
6579.93507,-0.06376
6581.86353,-0.02862
6583.79200,-0.04871
6585.72047,-0.04727
6587.64894,0.00703
6589.57741,0.03981
6591.50588,0.02632
6593.43435,-0.02113
6595.36281,-0.04737
6597.29128,0.00467
6599.21975,0.07660
6601.14822,0.07548
6603.07669,0.00826
6605.00516,-0.04741
6606.93363,-0.04390
6608.86210,-0.00960
6610.79056,-0.00157
6612.71903,0.01460
6614.64750,0.10049
6616.57597,0.19348
6618.50444,0.16390
6620.43291,0.03934
6622.36138,-0.03253
6624.28984,0.00288
6626.21831,0.08135
6628.14678,0.14001
6630.07525,0.13657
6632.00372,0.07652
6633.93219,0.02913
6635.86066,0.08744
6637.78912,0.18780
6639.71759,0.16606
6641.64606,0.05962
6643.57453,-0.01727
6645.50300,-0.01203
6647.43147,0.04996
6649.35994,0.07184
6651.28841,-0.00442
6653.21687,-0.09386
6655.14534,-0.07571
6657.07381,0.00434
6659.00228,0.00591
6660.93075,-0.05127
6662.85922,-0.10367
6664.78769,-0.12317
6666.71615,-0.06258
6668.64462,0.02193
6670.57309,0.06811
6672.50156,0.08772
6674.43003,0.03809
6676.35850,-0.01467
6678.28697,0.01794
6680.21544,0.07494
6682.14390,0.07316
6684.07237,0.04302
6686.00084,0.08834
6687.92931,0.16004
6689.85778,0.13724
6691.78625,0.06632
6693.71472,0.03743
6695.64318,0.06662
6697.57165,0.07894
6699.50012,0.03812
6701.42859,0.02482
6703.35706,0.03508
6705.28553,0.02558
6707.21400,0.05327
6709.14247,0.09398
6711.07093,0.04298
6712.99940,-0.02537
6714.92787,0.02619
6716.85634,0.12489
6718.78481,0.14552
6720.71328,0.15409
6722.64175,0.20018
6724.57021,0.21244
6726.49868,0.14367
6728.42715,0.05713
6730.35562,0.06039
6732.28409,0.13374
6734.21256,0.15856
6736.14103,0.08419
6738.06950,-0.01250
6739.99796,-0.05085
6741.92643,-0.07327
6743.85490,-0.14153
6745.78337,-0.18329
6747.71184,-0.12819
6749.64031,-0.07872
6751.56878,-0.11881
6753.49724,-0.10241
6755.42571,0.01143
6757.35418,0.08851
6759.28265,0.12983
6761.21112,0.16921
6763.13959,0.20482
6765.06806,0.21763
6766.99653,0.15032
6768.92499,0.08762
6770.85346,0.08603
6772.78193,0.05446
6774.71040,0.02017
6776.63887,0.05586
6778.56734,0.09045
6780.49581,0.07427
6782.42427,0.04438
6784.35274,0.05187
6786.28121,0.06958
6788.20968,0.03456
6790.13815,-0.00723
6792.06662,0.00122
6793.99509,0.00981
6795.92355,-0.00257
6797.85202,0.01701
6799.78049,0.09458
6801.70896,0.15953
6803.63743,0.11540
6805.56590,0.03897
6807.49437,0.06117
6809.42284,0.13883
6811.35130,0.17501
6813.27977,0.15814
6815.20824,0.14554
6817.13671,0.11880
6819.06518,0.06518
6820.99365,0.07576
6822.92212,0.17306
6824.85058,0.26277
6826.77905,0.28939
6828.70752,0.18661
6830.63599,0.00270
6832.56446,-0.05954
6834.49293,0.02455
6836.42140,0.11298
6838.34987,0.08267
6840.27833,0.00956
6842.20680,-0.01012
6844.13527,-0.02873
6846.06374,-0.04646
6847.99221,0.02052
6849.92068,0.11729
6851.84915,0.14672
6853.77761,0.09629
6855.70608,-0.03340
6857.63455,-0.09725
6859.56302,-0.02161
6861.49149,0.04082
6863.41996,0.05248
6865.34843,0.13420
6867.27690,0.19314
6869.20536,0.14055
6871.13383,0.07705
6873.06230,0.03000
6874.99077,-0.01181
6876.91924,0.00555
6878.84771,0.10884
6880.77618,0.18680
6882.70464,0.13158
6884.63311,0.02712
6886.56158,-0.00950
6888.49005,0.01582
6890.41852,0.04112
6892.34699,0.06108
6894.27546,0.05480
6896.20393,0.04992
6898.13239,0.10350
6900.06086,0.13906
6901.98933,0.09164
6903.91780,0.02866
6905.84627,-0.01460
6907.77474,-0.07736
6909.70321,-0.11185
6911.63167,-0.07197
6913.56014,0.01663
6915.48861,0.08877
6917.41708,0.12672
6919.34555,0.20361
6921.27402,0.26535
6923.20249,0.21468
6925.13096,0.12942
6927.05942,0.09435
6928.98789,0.05471
6930.91636,-0.00547
6932.84483,0.01303
6934.77330,0.05788
6936.70177,0.05947
6938.63024,0.00367
6940.55870,-0.09509
6942.48717,-0.10049
6944.41564,-0.03836
6946.34411,-0.01199
6948.27258,-0.00492
6950.20105,0.01449
6952.12952,0.01669
6954.05799,0.00019
6955.98645,0.05376
6957.91492,0.19055
6959.84339,0.24198
6961.77186,0.15637
6963.70033,0.09123
6965.62880,0.12091
6967.55727,0.17741
6969.48573,0.16669
6971.41420,0.06887
6973.34267,-0.02717
6975.27114,-0.00002
6977.19961,0.12643
6979.12808,0.21057
6981.05655,0.20907
6982.98501,0.16451
6984.91348,0.14088
6986.84195,0.14407
6988.77042,0.08818
6990.69889,-0.01650
6992.62736,-0.08185
6994.55583,-0.09228
6996.48430,-0.06700
6998.41276,-0.05189
7000.34123,-0.01286
7002.26970,0.09614
7004.19817,0.18423
7006.12664,0.14453
7008.05511,-0.00038
7009.98358,-0.06735
7011.91204,-0.05484
7013.84051,-0.01069
7015.76898,0.13291
7017.69745,0.20145
7019.62592,0.04253
7021.55439,-0.08790
7023.48286,-0.02239
7025.41133,0.06506
7027.33979,0.08037
7029.26826,0.09115
7031.19673,0.12150
7033.12520,0.14674
7035.05367,0.12977
7036.98214,0.07907
7038.91061,0.05410
7040.83907,0.08188
7042.76754,0.15850
7044.69601,0.23359
7046.62448,0.22871
7048.55295,0.15297
7050.48142,0.13165
7052.40989,0.23245
7054.33836,0.34852
7056.26682,0.31510
7058.19529,0.19591
7060.12376,0.12400
7062.05223,0.05840
7063.98070,0.02852
7065.90917,0.07781
7067.83764,0.14055
7069.76610,0.11685
7071.69457,0.04715
7073.62304,0.10053
7075.55151,0.18418
7077.47998,0.17192
7079.40845,0.10692
7081.33692,0.04864
7083.26539,0.00451
7085.19385,-0.00494
7087.12232,0.01288
7089.05079,0.04561
7090.97926,0.07049
7092.90773,0.03486
7094.83620,0.00886
7096.76467,0.00150
7098.69313,-0.03840
7100.62160,0.00113
7102.55007,0.05141
7104.47854,-0.03087
7106.40701,-0.12686
7108.33548,-0.11765
7110.26395,-0.11961
7112.19242,-0.10934
7114.12088,0.01406
7116.04935,0.18629
7117.97782,0.27951
7119.90629,0.23248
7121.83476,0.14100
7123.76323,0.06156
7125.69170,-0.01366
7127.62016,-0.04907
7129.54863,-0.03844
7131.47710,-0.01510
7133.40557,0.05210
7135.33404,0.12514
7137.26251,0.09784
7139.19098,0.05192
7141.11944,0.13830
7143.04791,0.26184
7144.97638,0.23194
7146.90485,0.10561
7148.83332,0.07325
7150.76179,0.09410
7152.69026,0.09375
7154.61873,0.08345
7156.54719,0.12509
7158.47566,0.21729
7160.40413,0.25768
7162.33260,0.22334
7164.26107,0.24373
7166.18954,0.33174
7168.11801,0.32827
7170.04647,0.23346
7171.97494,0.15804
7173.90341,0.11716
7175.83188,0.07562
7177.76035,0.03308
7179.68882,0.02060
7181.61729,0.01067
7183.54576,-0.00049
7185.47422,0.02975
7187.40269,0.06502
7189.33116,0.10197
7191.25963,0.15051
7193.18810,0.14831
7195.11657,0.09387
7197.04504,0.05607
7198.97350,0.00422
7200.90197,-0.12904
7202.83044,-0.25266
7204.75891,-0.23758
7206.68738,-0.18337
7208.61585,-0.15019
7210.54432,-0.09262
7212.47279,0.01208
7214.40125,0.16942
7216.32972,0.30427
7218.25819,0.36164
7220.18666,0.32379
7222.11513,0.20804
7224.04360,0.06096
7225.97207,-0.04150
7227.90053,-0.00482
7229.82900,0.09964
7231.75747,0.11853
7233.68594,0.10693
7235.61441,0.12950
7237.54288,0.04745
7239.47135,-0.11485
7241.39982,-0.21532
7243.32828,-0.22843
7245.25675,-0.14068
7247.18522,-0.06687
7249.11369,0.01870
7251.04216,0.24373
7252.97063,0.35917
7254.89910,0.18404
7256.82756,0.09548
7258.75603,0.11606
7260.68450,0.11125
7262.61297,0.01036
7264.54144,-0.16026
7266.46991,-0.24670
7268.39838,-0.18109
7270.32685,-0.06802
7272.25531,-0.05568
7274.18378,-0.10027
7276.11225,-0.05787
7278.04072,0.01780
7279.96919,-0.02063
7281.89766,-0.16090
7283.82613,-0.18422
7285.75459,-0.07792
7287.68306,0.08953
7289.61153,0.29989
7291.54000,0.45010
7293.46847,0.41777
7295.39694,0.20976
7297.32541,-0.05728
7299.25387,-0.22613
7301.18234,-0.21677
7303.11081,-0.09425
7305.03928,0.02735
7306.96775,0.18365
7308.89622,0.29878
7310.82469,0.23405
7312.75316,0.17263
7314.68162,0.18660
7316.61009,0.14861
7318.53856,0.05139
7320.46703,0.01551
7322.39550,-0.02800
7324.32397,-0.07829
7326.25244,0.03598
7328.18090,0.31402
7330.10937,0.42008
7332.03784,0.19778
7333.96631,-0.05336
7335.89478,-0.13061
7337.82325,-0.05407
7339.75172,0.03606
7341.68019,0.01402
7343.60865,-0.03200
7345.53712,-0.06724
7347.46559,-0.09947
7349.39406,-0.08773
7351.32253,0.02452
7353.25100,0.13162
7355.17947,0.12391
7357.10793,0.04479
7359.03640,0.04989
7360.96487,0.12172
7362.89334,0.07136
7364.82181,-0.00899
7366.75028,0.07105
7368.67875,0.16301
7370.60722,0.07875
7372.53568,0.02991
7374.46415,0.11370
7376.39262,0.13977
7378.32109,0.12056
7380.24956,0.14517
7382.17803,0.26833
7384.10650,0.42761
7386.03496,0.39544
7387.96343,0.15748
7389.89190,0.01781
7391.82037,0.07779
7393.74884,0.12362
7395.67731,0.16966
7397.60578,0.33753
7399.53425,0.36859
7401.46271,0.23785
7403.39118,0.14629
7405.31965,0.12039
7407.24812,0.12774
7409.17659,0.16954
7411.10506,0.21440
7413.03353,0.18766
7414.96199,0.07429
7416.89046,-0.02069
7418.81893,-0.00594
7420.74740,-0.04420
7422.67587,-0.12319
7424.60434,-0.08273
7426.53281,0.00138
7428.46128,0.04019
7430.38974,0.03751
7432.31821,0.10400
7434.24668,0.28990
7436.17515,0.37429
7438.10362,0.21078
7440.03209,-0.01468
7441.96056,-0.11450
7443.88902,-0.06843
7445.81749,0.02756
7447.74596,0.09161
7449.67443,0.12912
7451.60290,0.09658
7453.53137,0.00126
7455.45984,-0.00360
7457.38831,0.05055
7459.31677,0.10974
7461.24524,0.15075
7463.17371,0.03826
7465.10218,-0.08513
7467.03065,-0.05864
7468.95912,0.02427
7470.88759,0.23177
7472.81605,0.41315
7474.74452,0.30876
7476.67299,0.17307
7478.60146,0.20184
7480.52993,0.13738
7482.45840,-0.00696
7484.38687,0.02129
7486.31533,0.07568
7488.24380,0.10681
7490.17227,0.14948
7492.10074,0.14433
7494.02921,0.14208
7495.95768,0.17430
7497.88615,0.22845
