399.19301,0.21183
401.12148,0.51226
403.04995,0.31345
404.97842,0.10317
406.90689,0.04907
408.83536,0.10054
410.76382,0.12300
412.69229,0.09243
414.62076,0.09479
416.54923,0.20510
418.47770,0.31005
420.40617,0.16886
422.33464,0.02378
424.26311,0.00451
426.19157,0.05418
428.12004,0.17676
430.04851,0.29168
431.97698,0.20744
433.90545,0.07419
435.83392,0.10283
437.76239,0.20196
439.69085,0.24149
441.61932,0.16858
443.54779,0.01937
445.47626,-0.07077
447.40473,-0.04439
449.33320,0.02939
451.26167,0.07936
453.19013,0.06254
455.11860,-0.01339
457.04707,-0.05019
458.97554,-0.04051
460.90401,-0.08220
462.83248,-0.11413
464.76095,-0.03367
466.68942,0.10793
468.61788,0.17980
470.54635,0.17409
472.47482,0.18109
474.40329,0.18367
476.33176,0.12322
478.26023,0.12281
480.18870,0.19199
482.11716,0.22428
484.04563,0.17821
485.97410,0.13788
487.90257,0.11042
489.83104,0.07844
491.75951,0.06283
493.68798,0.07568
495.61645,0.12401
497.54491,0.16053
499.47338,0.11948
501.40185,0.06462
503.33032,0.07517
505.25879,0.09669
507.18726,0.11022
509.11573,0.10590
511.04419,0.06148
512.97266,0.03910
514.90113,0.06465
516.82960,0.07259
518.75807,0.03669
520.68654,0.01620
522.61501,0.00970
524.54348,-0.00976
526.47194,-0.01916
528.40041,-0.02063
530.32888,-0.02004
532.25735,-0.00001
534.18582,0.03224
536.11429,0.07337
538.04276,0.11734
539.97122,0.11122
541.89969,0.06249
543.82816,0.03555
545.75663,0.01281
547.68510,-0.00957
549.61357,0.02000
551.54204,0.06870
553.47051,0.09245
555.39897,0.11759
557.32744,0.13568
559.25591,0.11172
561.18438,0.07342
563.11285,0.05686
565.04132,0.04395
566.96979,0.02031
568.89825,0.01084
570.82672,0.01632
572.75519,0.02695
574.68366,0.05172
576.61213,0.06007
578.54060,0.03859
580.46907,0.04138
582.39754,0.08185
584.32600,0.11067
586.25447,0.11073
588.18294,0.09377
590.11141,0.05666
592.03988,0.02150
593.96835,0.03372
595.89682,0.07299
597.82528,0.09037
599.75375,0.08273
601.68222,0.07041
603.61069,0.06053
605.53916,0.06110
607.46763,0.08180
609.39610,0.10120
611.32456,0.09884
613.25303,0.09349
615.18150,0.09945
617.10997,0.09883
619.03844,0.08313
620.96691,0.07038
622.89538,0.06877
624.82385,0.06929
626.75231,0.06541
628.68078,0.05661
630.60925,0.05042
632.53772,0.05537
634.46619,0.06965
636.39466,0.08128
638.32313,0.08397
640.25159,0.08535
642.18006,0.08738
644.10853,0.08561
646.03700,0.08215
647.96547,0.07154
649.89394,0.05972
651.82241,0.06469
653.75088,0.06840
655.67934,0.05027
657.60781,0.03117
659.53628,0.04413
661.46475,0.07299
663.39322,0.06921
665.32169,0.04693
667.25016,0.05220
669.17862,0.07715
671.10709,0.07852
673.03556,0.08393
674.96403,0.09795
676.89250,0.08807
678.82097,0.05351
680.74944,0.03046
682.67791,0.03191
684.60637,0.04983
686.53484,0.07035
688.46331,0.07946
690.39178,0.07290
692.32025,0.05818
694.24872,0.05231
696.17719,0.06169
698.10565,0.07061
700.03412,0.07006
701.96259,0.06960
703.89106,0.07045
705.81953,0.07124
707.74800,0.08264
709.67647,0.10268
711.60494,0.10777
713.53340,0.09046
715.46187,0.07264
717.39034,0.07228
719.31881,0.08694
721.24728,0.09597
723.17575,0.08960
725.10422,0.08373
727.03268,0.08377
728.96115,0.08298
730.88962,0.08226
732.81809,0.08418
734.74656,0.08522
736.67503,0.08657
738.60350,0.09172
740.53197,0.09244
742.46043,0.08895
744.38890,0.09148
746.31737,0.09298
748.24584,0.08723
750.17431,0.08299
752.10278,0.07981
754.03125,0.07584
755.95971,0.07978
757.88818,0.08891
759.81665,0.09522
761.74512,0.09653
763.67359,0.09141
765.60206,0.08838
767.53053,0.09259
769.45900,0.09536
771.38746,0.09434
773.31593,0.09211
775.24440,0.08471
777.17287,0.07410
779.10134,0.06499
781.02981,0.05403
782.95828,0.05000
784.88674,0.06446
786.81521,0.08248
788.74368,0.08855
790.67215,0.08948
792.60062,0.08796
794.52909,0.08227
796.45756,0.08155
798.38602,0.08230
800.31449,0.07480
802.24296,0.07336
804.17143,0.08497
806.09990,0.09240
808.02837,0.09210
809.95684,0.09369
811.88531,0.09669
813.81377,0.09258
815.74224,0.08387
817.67071,0.08383
819.59918,0.08681
821.52765,0.08679
823.45612,0.09568
825.38459,0.10392
827.31305,0.09576
829.24152,0.08128
831.16999,0.07158
833.09846,0.07251
835.02693,0.08375
836.95540,0.09251
838.88387,0.09010
840.81234,0.08191
842.74080,0.07789
844.66927,0.08296
846.59774,0.08978
848.52621,0.08958
850.45468,0.08705
852.38315,0.08118
854.31162,0.07042
856.24008,0.06733
858.16855,0.07372
860.09702,0.08054
862.02549,0.08289
863.95396,0.08000
865.88243,0.07573
867.81090,0.07882
869.73937,0.08966
871.66783,0.09243
873.59630,0.08437
875.52477,0.08194
877.45324,0.08462
879.38171,0.08123
881.31018,0.07612
883.23865,0.07664
885.16711,0.08209
887.09558,0.09021
889.02405,0.09413
890.95252,0.08499
892.88099,0.07233
894.80946,0.06763
896.73793,0.06726
898.66640,0.07689
900.59486,0.09483
902.52333,0.09751
904.45180,0.08456
906.38027,0.08021
908.30874,0.08110
910.23721,0.07732
912.16568,0.08696
914.09414,0.10419
916.02261,0.10005
917.95108,0.08117
919.87955,0.07214
921.80802,0.07368
923.73649,0.07330
925.66496,0.06938
927.59343,0.06824
929.52189,0.07170
931.45036,0.07481
933.37883,0.07726
935.30730,0.08408
937.23577,0.09245
939.16424,0.09532
941.09271,0.09227
943.02117,0.08617
944.94964,0.08162
946.87811,0.08644
948.80658,0.09527
950.73505,0.09412
952.66352,0.08463
954.59199,0.07888
956.52045,0.08112
958.44892,0.08647
960.37739,0.09085
962.30586,0.09065
964.23433,0.08595
966.16280,0.08414
968.09127,0.08613
970.01974,0.08796
971.94820,0.09183
973.87667,0.09340
975.80514,0.08815
977.73361,0.08693
979.66208,0.09067
981.59055,0.08803
983.51902,0.08307
985.44748,0.08095
987.37595,0.07764
989.30442,0.07830
991.23289,0.08425
993.16136,0.08469
995.08983,0.08188
997.01830,0.08297
998.94677,0.08538
1000.87523,0.08988
1002.80370,0.09683
1004.73217,0.10323
1006.66064,0.11066
1008.58911,0.11621
1010.51758,0.11267
1012.44605,0.10462
1014.37451,0.10041
1016.30298,0.09744
1018.23145,0.09440
1020.15992,0.09432
1022.08839,0.09248
1024.01686,0.08710
1025.94533,0.07947
1027.87380,0.06570
1029.80226,0.05562
1031.73073,0.06197
1033.65920,0.07228
1035.58767,0.07331
1037.51614,0.07595
1039.44461,0.08981
1041.37308,0.10224
1043.30154,0.10181
1045.23001,0.09608
1047.15848,0.09417
1049.08695,0.09419
1051.01542,0.09312
1052.94389,0.08865
1054.87236,0.07913
1056.80083,0.07316
1058.72929,0.07872
1060.65776,0.08715
1062.58623,0.08456
1064.51470,0.07121
1066.44317,0.05970
1068.37164,0.05950
1070.30011,0.07249
1072.22857,0.09004
1074.15704,0.09807
1076.08551,0.09578
1078.01398,0.09345
1079.94245,0.09602
1081.87092,0.10334
1083.79939,0.11170
1085.72786,0.10949
1087.65632,0.09800
1089.58479,0.09116
1091.51326,0.08510
1093.44173,0.08141
1095.37020,0.09194
1097.29867,0.10543
1099.22714,0.11031
1101.15560,0.10951
1103.08407,0.10584
1105.01254,0.10288
1106.94101,0.09865
1108.86948,0.09189
1110.79795,0.09275
1112.72642,0.10329
1114.65489,0.10860
1116.58335,0.10704
1118.51182,0.10980
1120.44029,0.11160
1122.36876,0.10481
1124.29723,0.09438
1126.22570,0.08857
1128.15417,0.09108
1130.08263,0.09321
1132.01110,0.09092
1133.93957,0.09131
1135.86804,0.08987
1137.79651,0.08519
1139.72498,0.08621
1141.65345,0.09173
1143.58191,0.10075
1145.51038,0.10943
1147.43885,0.10753
1149.36732,0.09999
1151.29579,0.09818
1153.22426,0.09906
1155.15273,0.09664
1157.08120,0.09691
1159.00966,0.10134
1160.93813,0.10055
1162.86660,0.09549
1164.79507,0.09311
1166.72354,0.09138
1168.65201,0.09014
1170.58048,0.09796
1172.50894,0.11010
1174.43741,0.11078
1176.36588,0.10205
1178.29435,0.09380
1180.22282,0.08939
1182.15129,0.09049
1184.07976,0.09368
1186.00823,0.09525
1187.93669,0.09724
1189.86516,0.09964
1191.79363,0.10038
1193.72210,0.09904
1195.65057,0.09570
1197.57904,0.09528
1199.50751,0.09691
1201.43597,0.09547
1203.36444,0.09514
1205.29291,0.09582
1207.22138,0.09504
1209.14985,0.09552
1211.07832,0.09693
1213.00679,0.09769
1214.93526,0.09817
1216.86372,0.09775
1218.79219,0.09516
1220.72066,0.09333
1222.64913,0.09478
1224.57760,0.09776
1226.50607,0.10061
1228.43454,0.10276
1230.36300,0.10273
1232.29147,0.09963
1234.21994,0.09734
1236.14841,0.09763
1238.07688,0.09732
1240.00535,0.09691
1241.93382,0.09813
1243.86229,0.09818
1245.79075,0.09595
1247.71922,0.09404
1249.64769,0.09401
1251.57616,0.09377
1253.50463,0.09175
1255.43310,0.09227
1257.36157,0.09635
1259.29003,0.10083
1261.21850,0.10397
1263.14697,0.10255
1265.07544,0.09952
1267.00391,0.10210
1268.93238,0.10573
1270.86085,0.10390
1272.78932,0.10235
1274.71778,0.10139
1276.64625,0.09716
1278.57472,0.09620
1280.50319,0.09916
1282.43166,0.10165
1284.36013,0.10498
1286.28860,0.10685
1288.21706,0.10475
1290.14553,0.10082
1292.07400,0.09562
1294.00247,0.09036
1295.93094,0.08973
1297.85941,0.09469
1299.78788,0.09825
1301.71634,0.09514
1303.64481,0.08920
1305.57328,0.08747
1307.50175,0.09150
1309.43022,0.09696
1311.35869,0.10207
1313.28716,0.10690
1315.21563,0.10949
1317.14409,0.10973
1319.07256,0.10767
1321.00103,0.10461
1322.92950,0.10331
1324.85797,0.10274
1326.78644,0.10079
1328.71491,0.09823
1330.64337,0.09609
1332.57184,0.09529
1334.50031,0.09620
1336.42878,0.09827
1338.35725,0.10154
1340.28572,0.10324
1342.21419,0.10536
1344.14266,0.11194
1346.07112,0.11527
1347.99959,0.10915
1349.92806,0.10082
1351.85653,0.09842
1353.78500,0.10102
1355.71347,0.10281
1357.64194,0.10192
1359.57040,0.10325
1361.49887,0.10707
1363.42734,0.10602
1365.35581,0.10292
1367.28428,0.10321
1369.21275,0.10383
1371.14122,0.10426
1373.06969,0.10721
1374.99815,0.11120
1376.92662,0.11170
1378.85509,0.10972
1380.78356,0.10863
1382.71203,0.10765
1384.64050,0.10682
1386.56897,0.10831
1388.49743,0.10986
1390.42590,0.11188
1392.35437,0.11625
1394.28284,0.11872
1396.21131,0.11715
1398.13978,0.11315
1400.06825,0.10729
1401.99672,0.10410
1403.92518,0.10396
1405.85365,0.10507
1407.78212,0.10855
1409.71059,0.11190
1411.63906,0.11159
1413.56753,0.10908
1415.49600,0.10777
1417.42446,0.10937
1419.35293,0.11143
1421.28140,0.11102
1423.20987,0.11103
1425.13834,0.11321
1427.06681,0.11743
1428.99528,0.11974
1430.92375,0.11698
1432.85221,0.11585
1434.78068,0.11927
1436.70915,0.12180
1438.63762,0.11973
1440.56609,0.11561
1442.49456,0.11270
1444.42303,0.11368
1446.35149,0.11630
1448.27996,0.11590
1450.20843,0.11319
1452.13690,0.11318
1454.06537,0.11721
1455.99384,0.12203
1457.92231,0.12185
1459.85077,0.11782
1461.77924,0.11428
1463.70771,0.11194
1465.63618,0.11280
1467.56465,0.11596
1469.49312,0.11787
1471.42159,0.11857
1473.35006,0.12043
1475.27852,0.12166
1477.20699,0.11895
1479.13546,0.11477
1481.06393,0.11201
1482.99240,0.11143
1484.92087,0.11573
1486.84934,0.12422
1488.77780,0.12633
1490.70627,0.11858
1492.63474,0.11530
1494.56321,0.11843
1496.49168,0.12083
1498.42015,0.11823
1500.34862,0.11769
1502.27709,0.12220
1504.20555,0.13077
1506.13402,0.14193
1508.06249,0.13704
1509.99096,0.12514
1511.91943,0.12322
1513.84790,0.12663
1515.77637,0.12937
1517.70483,0.13203
1519.63330,0.13937
1521.56177,0.14515
1523.49024,0.14104
1525.41871,0.13461
1527.34718,0.12639
1529.27565,0.12004
1531.20412,0.11913
1533.13258,0.11832
1535.06105,0.11714
1536.98952,0.12118
1538.91799,0.13221
1540.84646,0.14527
1542.77493,0.14149
1544.70340,0.12748
1546.63186,0.11821
1548.56033,0.11758
1550.48880,0.11981
1552.41727,0.12238
1554.34574,0.12614
1556.27421,0.12865
1558.20268,0.12901
1560.13115,0.12138
1562.05961,0.11376
1563.98808,0.11345
1565.91655,0.11796
1567.84502,0.12128
1569.77349,0.11981
1571.70196,0.11585
1573.63043,0.11536
1575.55889,0.11964
1577.48736,0.12056
1579.41583,0.11570
1581.34430,0.11291
1583.27277,0.11334
1585.20124,0.11293
1587.12971,0.11118
1589.05818,0.11147
1590.98664,0.11358
1592.91511,0.11505
1594.84358,0.11399
1596.77205,0.11115
1598.70052,0.11132
1600.62899,0.11477
1602.55746,0.11511
1604.48592,0.11047
1606.41439,0.10659
1608.34286,0.10695
1610.27133,0.10906
1612.19980,0.11017
1614.12827,0.11245
1616.05674,0.11685
1617.98521,0.11627
1619.91367,0.11274
1621.84214,0.11267
1623.77061,0.11468
1625.69908,0.11807
1627.62755,0.12250
1629.55602,0.12302
1631.48449,0.12194
1633.41295,0.12642
1635.34142,0.13562
1637.26989,0.13454
1639.19836,0.12672
1641.12683,0.12248
1643.05530,0.12342
1644.98377,0.13114
1646.91223,0.14233
1648.84070,0.13966
1650.76917,0.12739
1652.69764,0.11476
1654.62611,0.11166
1656.55458,0.11436
1658.48305,0.11937
1660.41152,0.12666
1662.33998,0.12899
1664.26845,0.12228
1666.19692,0.11798
1668.12539,0.12152
1670.05386,0.12652
1671.98233,0.12648
1673.91080,0.12453
1675.83926,0.11950
1677.76773,0.11433
1679.69620,0.11405
1681.62467,0.11908
1683.55314,0.12674
1685.48161,0.12769
1687.41008,0.12550
1689.33855,0.12411
1691.26701,0.12256
1693.19548,0.12484
1695.12395,0.13044
1697.05242,0.12912
1698.98089,0.12084
1700.90936,0.11837
1702.83783,0.12104
1704.76629,0.12093
1706.69476,0.11734
1708.62323,0.11447
1710.55170,0.11392
1712.48017,0.11609
1714.40864,0.12260
1716.33711,0.13044
1718.26558,0.12701
1720.19404,0.11776
1722.12251,0.11373
1724.05098,0.11239
1725.97945,0.11113
1727.90792,0.11096
1729.83639,0.11301
1731.76486,0.11741
1733.69332,0.12021
1735.62179,0.11767
1737.55026,0.11623
1739.47873,0.11724
1741.40720,0.11868
1743.33567,0.11879
1745.26414,0.11709
1747.19261,0.11728
1749.12107,0.12072
1751.04954,0.11901
1752.97801,0.11432
1754.90648,0.11390
1756.83495,0.11404
1758.76342,0.11180
1760.69189,0.11130
1762.62035,0.11343
1764.54882,0.11408
1766.47729,0.11481
1768.40576,0.11959
1770.33423,0.12570
1772.26270,0.12616
1774.19117,0.12304
1776.11964,0.12044
1778.04810,0.11656
1779.97657,0.11260
1781.90504,0.11134
1783.83351,0.11390
1785.76198,0.11734
1787.69045,0.11771
1789.61892,0.11721
1791.54738,0.11945
1793.47585,0.12183
1795.40432,0.12001
1797.33279,0.11653
1799.26126,0.11367
1801.18973,0.11135
1803.11820,0.11047
1805.04666,0.11178
1806.97513,0.11367
1808.90360,0.11475
1810.83207,0.11497
1812.76054,0.11407
1814.68901,0.11301
1816.61748,0.11243
1818.54595,0.11125
1820.47441,0.11047
1822.40288,0.11140
1824.33135,0.11308
1826.25982,0.11482
1828.18829,0.11655
1830.11676,0.11716
1832.04523,0.11637
1833.97369,0.11642
1835.90216,0.11816
1837.83063,0.11915
1839.75910,0.11697
1841.68757,0.11494
1843.61604,0.11551
1845.54451,0.11402
1847.47298,0.11226
1849.40144,0.11385
1851.32991,0.11422
1853.25838,0.11227
1855.18685,0.11140
1857.11532,0.11107
1859.04379,0.11199
1860.97226,0.11606
1862.90072,0.11930
1864.82919,0.12039
1866.75766,0.12011
1868.68613,0.11606
1870.61460,0.11206
1872.54307,0.10957
1874.47154,0.10532
1876.40001,0.10262
1878.32847,0.10398
1880.25694,0.10603
1882.18541,0.10767
1884.11388,0.10960
1886.04235,0.11190
1887.97082,0.11511
1889.89929,0.11695
1891.82775,0.11595
1893.75622,0.11373
1895.68469,0.11042
1897.61316,0.10801
1899.54163,0.10877
1901.47010,0.10961
1903.39857,0.10745
1905.32704,0.10597
1907.25550,0.10807
1909.18397,0.10965
1911.11244,0.10867
1913.04091,0.10861
1914.96938,0.11015
1916.89785,0.11198
1918.82632,0.11382
1920.75478,0.11464
1922.68325,0.11246
1924.61172,0.10797
1926.54019,0.10583
1928.46866,0.10635
1930.39713,0.10637
1932.32560,0.10617
1934.25407,0.10753
1936.18253,0.11007
1938.11100,0.11215
1940.03947,0.11415
1941.96794,0.11704
1943.89641,0.11954
1945.82488,0.12068
1947.75335,0.12000
1949.68181,0.11721
1951.61028,0.11397
1953.53875,0.11200
1955.46722,0.11218
1957.39569,0.11452
1959.32416,0.11732
1961.25263,0.11747
1963.18110,0.11433
1965.10956,0.11224
1967.03803,0.11283
1968.96650,0.11279
1970.89497,0.11109
1972.82344,0.10912
1974.75191,0.10734
1976.68038,0.10621
1978.60884,0.10692
1980.53731,0.10836
1982.46578,0.10870
1984.39425,0.10858
1986.32272,0.10806
1988.25119,0.10773
1990.17966,0.10932
1992.10812,0.11129
1994.03659,0.11170
1995.96506,0.11150
1997.89353,0.11107
1999.82200,0.11123
2001.75047,0.11300
2003.67894,0.11508
2005.60741,0.11504
2007.53587,0.11341
2009.46434,0.11381
2011.39281,0.11428
2013.32128,0.11178
2015.24975,0.11145
2017.17822,0.11493
2019.10669,0.11622
2021.03515,0.11535
2022.96362,0.11578
2024.89209,0.11635
2026.82056,0.11556
2028.74903,0.11404
2030.67750,0.11269
2032.60597,0.11216
2034.53444,0.11305
2036.46290,0.11598
2038.39137,0.11881
2040.31984,0.11874
2042.24831,0.11699
2044.17678,0.11472
2046.10525,0.11110
2048.03372,0.10808
2049.96218,0.10761
2051.89065,0.10761
2053.81912,0.10707
2055.74759,0.10832
2057.67606,0.11106
2059.60453,0.11266
2061.53300,0.11295
2063.46147,0.11235
2065.38993,0.11161
2067.31840,0.11233
2069.24687,0.11479
2071.17534,0.11789
2073.10381,0.11936
2075.03228,0.11769
2076.96075,0.11532
2078.88921,0.11588
2080.81768,0.11747
2082.74615,0.11698
2084.67462,0.11637
2086.60309,0.11769
2088.53156,0.11891
2090.46003,0.11818
2092.38850,0.11727
2094.31696,0.11687
2096.24543,0.11651
2098.17390,0.11641
2100.10237,0.11491
2102.03084,0.11258
2103.95931,0.11282
2105.88778,0.11492
2107.81624,0.11621
2109.74471,0.11603
2111.67318,0.11428
2113.60165,0.11281
2115.53012,0.11284
2117.45859,0.11362
2119.38706,0.11454
2121.31553,0.11332
2123.24399,0.10952
2125.17246,0.10705
2127.10093,0.10866
2129.02940,0.11101
2130.95787,0.11166
2132.88634,0.11327
2134.81481,0.11568
2136.74327,0.11668
2138.67174,0.11448
2140.60021,0.10955
2142.52868,0.10688
2144.45715,0.10827
2146.38562,0.11003
2148.31409,0.11097
2150.24255,0.11320
2152.17102,0.11536
2154.09949,0.11528
2156.02796,0.11550
2157.95643,0.11751
2159.88490,0.11851
2161.81337,0.11756
2163.74184,0.11646
2165.67030,0.11580
2167.59877,0.11597
2169.52724,0.11620
2171.45571,0.11482
2173.38418,0.11333
2175.31265,0.11378
2177.24112,0.11587
2179.16958,0.11803
2181.09805,0.11790
2183.02652,0.11473
2184.95499,0.11098
2186.88346,0.10998
2188.81193,0.11155
2190.74040,0.11263
2192.66887,0.11252
2194.59733,0.11147
2196.52580,0.10950
2198.45427,0.10863
2200.38274,0.10942
2202.31121,0.11069
2204.23968,0.11281
2206.16815,0.11443
2208.09661,0.11365
2210.02508,0.11339
2211.95355,0.11490
2213.88202,0.11520
2215.81049,0.11425
2217.73896,0.11369
2219.66743,0.11325
2221.59590,0.11254
2223.52436,0.11321
2225.45283,0.11599
2227.38130,0.11813
2229.30977,0.11704
2231.23824,0.11377
2233.16671,0.11108
2235.09518,0.10923
2237.02364,0.10862
2238.95211,0.11108
2240.88058,0.11404
2242.80905,0.11486
2244.73752,0.11614
2246.66599,0.11746
2248.59446,0.11523
2250.52293,0.11191
2252.45139,0.11057
2254.37986,0.10958
2256.30833,0.11039
2258.23680,0.11433
2260.16527,0.11623
2262.09374,0.11313
2264.02221,0.10943
2265.95067,0.10853
2267.87914,0.10916
2269.80761,0.11138
2271.73608,0.11561
2273.66455,0.11911
2275.59302,0.11943
2277.52149,0.11738
2279.44996,0.11581
2281.37842,0.11496
2283.30689,0.11325
2285.23536,0.11245
2287.16383,0.11408
2289.09230,0.11496
2291.02077,0.11286
2292.94924,0.11122
2294.87770,0.11423
2296.80617,0.11808
2298.73464,0.11688
2300.66311,0.11429
2302.59158,0.11398
2304.52005,0.11335
2306.44852,0.11222
2308.37699,0.11108
2310.30545,0.10691
2312.23392,0.10083
2314.16239,0.10169
2316.09086,0.10922
2318.01933,0.11297
2319.94780,0.11374
2321.87627,0.11671
2323.80473,0.11699
2325.73320,0.11358
2327.66167,0.11272
2329.59014,0.11622
2331.51861,0.11743
2333.44708,0.11184
2335.37555,0.11002
2337.30401,0.11832
2339.23248,0.12312
2341.16095,0.11721
2343.08942,0.10589
2345.01789,0.09538
2346.94636,0.09562
2348.87483,0.10235
2350.80330,0.10876
2352.73176,0.11451
2354.66023,0.11907
2356.58870,0.12423
2358.51717,0.12931
2360.44564,0.12812
2362.37411,0.12945
2364.30258,0.13038
2366.23104,0.12021
2368.15951,0.11179
2370.08798,0.10772
2372.01645,0.10587
2373.94492,0.10909
2375.87339,0.11155
2377.80186,0.11206
2379.73033,0.11291
2381.65879,0.11367
2383.58726,0.11503
2385.51573,0.11611
2387.44420,0.11488
2389.37267,0.11181
2391.30114,0.10933
2393.22961,0.11074
2395.15807,0.11536
2397.08654,0.11746
2399.01501,0.11599
2400.94348,0.11479
2402.87195,0.11451
2404.80042,0.11316
2406.72889,0.11114
2408.65736,0.11069
2410.58582,0.11160
2412.51429,0.11302
2414.44276,0.11417
2416.37123,0.11383
2418.29970,0.11238
2420.22817,0.11094
2422.15664,0.11091
2424.08510,0.11300
2426.01357,0.11518
2427.94204,0.11490
2429.87051,0.11203
2431.79898,0.10873
2433.72745,0.10795
2435.65592,0.11033
2437.58439,0.11327
2439.51285,0.11549
2441.44132,0.11665
2443.36979,0.11606
2445.29826,0.11559
2447.22673,0.11629
2449.15520,0.11582
2451.08367,0.11436
2453.01213,0.11472
2454.94060,0.11612
2456.86907,0.11597
2458.79754,0.11429
2460.72601,0.11322
2462.65448,0.11406
2464.58295,0.11519
2466.51142,0.11466
2468.43988,0.11445
2470.36835,0.11651
2472.29682,0.11739
2474.22529,0.11607
2476.15376,0.11564
2478.08223,0.11589
2480.01070,0.11623
2481.93916,0.11609
2483.86763,0.11373
2485.79610,0.11168
2487.72457,0.11356
2489.65304,0.11741
2491.58151,0.11925
2493.50998,0.11933
2495.43844,0.11917
2497.36691,0.11797
2499.29538,0.11641
2501.22385,0.11653
2503.15232,0.11778
2505.08079,0.11798
2507.00926,0.11667
2508.93773,0.11710
2510.86619,0.12027
2512.79466,0.12233
2514.72313,0.12237
2516.65160,0.12203
2518.58007,0.12079
2520.50854,0.11777
2522.43701,0.11480
2524.36547,0.11497
2526.29394,0.11703
2528.22241,0.11809
2530.15088,0.11833
2532.07935,0.11787
2534.00782,0.11652
2535.93629,0.11544
2537.86476,0.11571
2539.79322,0.11768
2541.72169,0.11893
2543.65016,0.11665
2545.57863,0.11432
2547.50710,0.11546
2549.43557,0.11828
2551.36404,0.12002
2553.29250,0.11933
2555.22097,0.11820
2557.14944,0.11898
2559.07791,0.11995
2561.00638,0.11785
2562.93485,0.11421
2564.86332,0.11331
2566.79179,0.11471
2568.72025,0.11578
2570.64872,0.11597
2572.57719,0.11532
2574.50566,0.11523
2576.43413,0.11704
2578.36260,0.11795
2580.29107,0.11567
2582.21953,0.11332
2584.14800,0.11344
2586.07647,0.11511
2588.00494,0.11833
2589.93341,0.12214
2591.86188,0.12263
2593.79035,0.12015
2595.71882,0.11942
2597.64728,0.12117
2599.57575,0.12207
2601.50422,0.12142
2603.43269,0.12118
2605.36116,0.12160
2607.28963,0.12165
2609.21810,0.12059
2611.14656,0.11916
2613.07503,0.11723
2615.00350,0.11531
2616.93197,0.11641
2618.86044,0.11918
2620.78891,0.12060
2622.71738,0.12103
2624.64585,0.12203
2626.57431,0.12420
2628.50278,0.12507
2630.43125,0.12312
2632.35972,0.12116
2634.28819,0.12165
2636.21666,0.12319
2638.14513,0.12315
2640.07359,0.12127
2642.00206,0.12006
2643.93053,0.12082
2645.85900,0.12132
2647.78747,0.12084
2649.71594,0.12037
2651.64441,0.11906
2653.57288,0.11806
2655.50134,0.11934
2657.42981,0.12094
2659.35828,0.12167
2661.28675,0.12212
2663.21522,0.12166
2665.14369,0.11982
2667.07216,0.11773
2669.00062,0.11728
2670.92909,0.11659
2672.85756,0.11458
2674.78603,0.11534
2676.71450,0.11811
2678.64297,0.11927
2680.57144,0.11909
2682.49990,0.11815
2684.42837,0.11719
2686.35684,0.11644
2688.28531,0.11612
2690.21378,0.11820
2692.14225,0.12226
2694.07072,0.12386
2695.99919,0.12269
2697.92765,0.12380
2699.85612,0.12550
2701.78459,0.12345
2703.71306,0.12130
2705.64153,0.12106
2707.57000,0.11895
2709.49847,0.11610
2711.42693,0.11547
2713.35540,0.11570
2715.28387,0.11740
2717.21234,0.12060
2719.14081,0.12339
2721.06928,0.12518
2722.99775,0.12413
2724.92622,0.12205
2726.85468,0.12254
2728.78315,0.12431
2730.71162,0.12603
2732.64009,0.12778
2734.56856,0.12838
2736.49703,0.12736
2738.42550,0.12553
2740.35396,0.12312
2742.28243,0.12045
2744.21090,0.11951
2746.13937,0.12100
2748.06784,0.12160
2749.99631,0.12030
2751.92478,0.12124
2753.85325,0.12522
2755.78171,0.12768
2757.71018,0.12763
2759.63865,0.12788
2761.56712,0.12730
2763.49559,0.12515
2765.42406,0.12339
2767.35253,0.12214
2769.28099,0.12269
2771.20946,0.12572
2773.13793,0.12918
2775.06640,0.13276
2776.99487,0.13486
2778.92334,0.13246
2780.85181,0.12852
2782.78028,0.12671
2784.70874,0.12490
2786.63721,0.12236
2788.56568,0.12152
2790.49415,0.12159
2792.42262,0.12020
2794.35109,0.11893
2796.27956,0.11921
2798.20802,0.12117
2800.13649,0.12421
2802.06496,0.12543
2803.99343,0.12657
2805.92190,0.12908
2807.85037,0.12972
2809.77884,0.12932
2811.70731,0.12808
2813.63577,0.12468
2815.56424,0.12155
2817.49271,0.11993
2819.42118,0.11903
2821.34965,0.11856
2823.27812,0.12018
2825.20659,0.12543
2827.13505,0.13046
2829.06352,0.13106
2830.99199,0.13002
2832.92046,0.13134
2834.84893,0.13368
2836.77740,0.13426
2838.70587,0.13356
2840.63433,0.13267
2842.56280,0.13248
2844.49127,0.13399
2846.41974,0.13636
2848.34821,0.13733
2850.27668,0.13321
2852.20515,0.12623
2854.13362,0.12302
2856.06208,0.12209
2857.99055,0.12259
2859.91902,0.12648
2861.84749,0.12987
2863.77596,0.12975
2865.70443,0.12766
2867.63290,0.12729
2869.56136,0.12883
2871.48983,0.12847
2873.41830,0.12769
2875.34677,0.12870
2877.27524,0.12884
2879.20371,0.12857
2881.13218,0.12975
2883.06065,0.13002
2884.98911,0.12763
2886.91758,0.12548
2888.84605,0.12569
2890.77452,0.12591
2892.70299,0.12592
2894.63146,0.12672
2896.55993,0.12641
2898.48839,0.12412
2900.41686,0.12202
2902.34533,0.12366
2904.27380,0.12800
2906.20227,0.13026
2908.13074,0.12842
2910.05921,0.12338
2911.98768,0.11945
2913.91614,0.12048
2915.84461,0.12390
2917.77308,0.12684
2919.70155,0.13059
2921.63002,0.13418
2923.55849,0.13360
2925.48696,0.12692
2927.41542,0.12041
2929.34389,0.12152
2931.27236,0.12486
2933.20083,0.12353
2935.12930,0.11946
2937.05777,0.11723
2938.98624,0.12045
2940.91471,0.12514
2942.84317,0.12657
2944.77164,0.12703
2946.70011,0.12521
2948.62858,0.12138
2950.55705,0.12228
2952.48552,0.12779
2954.41399,0.13116
2956.34245,0.12947
2958.27092,0.12737
2960.19939,0.12930
2962.12786,0.13213
2964.05633,0.13320
2965.98480,0.13174
2967.91327,0.12561
2969.84174,0.11936
2971.77020,0.11886
2973.69867,0.12317
2975.62714,0.12789
2977.55561,0.12866
2979.48408,0.12760
2981.41255,0.12833
2983.34102,0.13041
2985.26948,0.13278
2987.19795,0.13483
2989.12642,0.13744
2991.05489,0.13878
2992.98336,0.13834
2994.91183,0.13948
2996.84030,0.14111
2998.76877,0.14196
3000.69723,0.14144
3002.62570,0.13896
3004.55417,0.13721
3006.48264,0.13369
3008.41111,0.12530
3010.33958,0.11683
3012.26805,0.11004
3014.19651,0.09892
3016.12498,0.08565
3018.05345,0.08744
3019.98192,0.10641
3021.91039,0.12333
3023.83886,0.13064
3025.76733,0.13220
3027.69579,0.13236
3029.62426,0.13480
3031.55273,0.13707
3033.48120,0.13607
3035.40967,0.13344
3037.33814,0.13246
3039.26661,0.13287
3041.19508,0.13278
3043.12354,0.13408
3045.05201,0.13489
3046.98048,0.13194
3048.90895,0.12957
3050.83742,0.12901
3052.76589,0.12664
3054.69436,0.12220
3056.62282,0.11836
3058.55129,0.11965
3060.47976,0.12494
3062.40823,0.12823
3064.33670,0.12940
3066.26517,0.13166
3068.19364,0.13531
3070.12211,0.13627
3072.05057,0.13200
3073.97904,0.12568
3075.90751,0.12226
3077.83598,0.12665
3079.76445,0.13563
3081.69292,0.13898
3083.62139,0.13454
3085.54985,0.13035
3087.47832,0.13152
3089.40679,0.13260
3091.33526,0.12834
3093.26373,0.12102
3095.19220,0.11860
3097.12067,0.12534
3099.04914,0.13306
3100.97760,0.13252
3102.90607,0.12637
3104.83454,0.12574
3106.76301,0.13067
3108.69148,0.13195
3110.61995,0.12911
3112.54842,0.12755
3114.47688,0.13032
3116.40535,0.13443
3118.33382,0.13524
3120.26229,0.13086
3122.19076,0.12454
3124.11923,0.12428
3126.04770,0.12953
3127.97617,0.13193
3129.90463,0.12911
3131.83310,0.12710
3133.76157,0.13005
3135.69004,0.13308
3137.61851,0.13165
3139.54698,0.13017
3141.47545,0.13230
3143.40391,0.13306
3145.33238,0.13166
3147.26085,0.13413
3149.18932,0.13950
3151.11779,0.14063
3153.04626,0.13778
3154.97473,0.13764
3156.90320,0.13882
3158.83166,0.13657
3160.76013,0.13525
3162.68860,0.13861
3164.61707,0.14151
3166.54554,0.13983
3168.47401,0.13608
3170.40248,0.13315
3172.33094,0.13119
3174.25941,0.13087
3176.18788,0.13407
3178.11635,0.13924
3180.04482,0.14236
3181.97329,0.14271
3183.90176,0.13988
3185.83022,0.13374
3187.75869,0.12626
3189.68716,0.12111
3191.61563,0.12469
3193.54410,0.13496
3195.47257,0.14067
3197.40104,0.13839
3199.32951,0.13488
3201.25797,0.13603
3203.18644,0.13960
3205.11491,0.13865
3207.04338,0.13316
3208.97185,0.12988
3210.90032,0.12892
3212.82879,0.12712
3214.75725,0.12769
3216.68572,0.13181
3218.61419,0.13610
3220.54266,0.13883
3222.47113,0.13919
3224.39960,0.13769
3226.32807,0.13486
3228.25654,0.13197
3230.18500,0.13311
3232.11347,0.13798
3234.04194,0.14168
3235.97041,0.14201
3237.89888,0.14063
3239.82735,0.14143
3241.75582,0.14307
3243.68428,0.13976
3245.61275,0.13210
3247.54122,0.12933
3249.46969,0.13535
3251.39816,0.13966
3253.32663,0.13754
3255.25510,0.13386
3257.18357,0.13037
3259.11203,0.13017
3261.04050,0.13476
3262.96897,0.14321
3264.89744,0.14943
3266.82591,0.14608
3268.75438,0.13982
3270.68285,0.13698
3272.61131,0.13474
3274.53978,0.13404
3276.46825,0.13529
3278.39672,0.13377
3280.32519,0.13241
3282.25366,0.13752
3284.18213,0.14382
3286.11060,0.14536
3288.03906,0.14624
3289.96753,0.14741
3291.89600,0.14082
3293.82447,0.13024
3295.75294,0.12953
3297.68141,0.13596
3299.60988,0.13933
3301.53834,0.14055
3303.46681,0.14085
3305.39528,0.13491
3307.32375,0.12720
3309.25222,0.12966
3311.18069,0.13679
3313.10916,0.13590
3315.03763,0.13141
3316.96609,0.13261
3318.89456,0.13644
3320.82303,0.13533
3322.75150,0.13252
3324.67997,0.13423
3326.60844,0.13673
3328.53691,0.13712
3330.46537,0.13764
3332.39384,0.13822
3334.32231,0.13932
3336.25078,0.14113
3338.17925,0.13975
3340.10772,0.13514
3342.03619,0.13438
3343.96466,0.13663
3345.89312,0.13501
3347.82159,0.13434
3349.75006,0.13973
3351.67853,0.14351
3353.60700,0.13961
3355.53547,0.13411
3357.46394,0.13576
3359.39240,0.14262
3361.32087,0.14453
3363.24934,0.13798
3365.17781,0.13101
3367.10628,0.13080
3369.03475,0.13681
3370.96322,0.14417
3372.89168,0.14726
3374.82015,0.14583
3376.74862,0.14205
3378.67709,0.13668
3380.60556,0.13611
3382.53403,0.14068
3384.46250,0.13804
3386.39097,0.12937
3388.31943,0.12534
3390.24790,0.12554
3392.17637,0.12815
3394.10484,0.13174
3396.03331,0.13665
3397.96178,0.14332
3399.89025,0.14329
3401.81871,0.13773
3403.74718,0.13804
3405.67565,0.14045
3407.60412,0.13660
3409.53259,0.13024
3411.46106,0.12569
3413.38953,0.12533
3415.31800,0.12821
3417.24646,0.13101
3419.17493,0.13696
3421.10340,0.14225
3423.03187,0.13668
3424.96034,0.12577
3426.88881,0.12247
3428.81728,0.12669
3430.74574,0.12917
3432.67421,0.12913
3434.60268,0.13241
3436.53115,0.13789
3438.45962,0.13885
3440.38809,0.13416
3442.31656,0.12796
3444.24503,0.12437
3446.17349,0.12441
3448.10196,0.12585
3450.03043,0.12941
3451.95890,0.13344
3453.88737,0.13124
3455.81584,0.12245
3457.74431,0.11411
3459.67277,0.11197
3461.60124,0.11732
3463.52971,0.12508
3465.45818,0.12785
3467.38665,0.12620
3469.31512,0.12774
3471.24359,0.13413
3473.17206,0.13633
3475.10052,0.13122
3477.02899,0.12438
3478.95746,0.11919
3480.88593,0.11934
3482.81440,0.12292
3484.74287,0.12326
3486.67134,0.12368
3488.59980,0.12797
3490.52827,0.12963
3492.45674,0.12681
3494.38521,0.12629
3496.31368,0.12612
3498.24215,0.11894
3500.17062,0.11116
3502.09909,0.11309
3504.02755,0.12039
3505.95602,0.12389
3507.88449,0.12156
3509.81296,0.11283
3511.74143,0.10451
3513.66990,0.10506
3515.59837,0.11037
3517.52683,0.11277
3519.45530,0.11166
3521.38377,0.10962
3523.31224,0.11036
3525.24071,0.11665
3527.16918,0.12127
3529.09765,0.11725
3531.02611,0.11281
3532.95458,0.11260
3534.88305,0.11089
3536.81152,0.10719
3538.73999,0.10246
3540.66846,0.10003
3542.59693,0.10751
3544.52540,0.11795
3546.45386,0.11806
3548.38233,0.11163
3550.31080,0.10356
3552.23927,0.09548
3554.16774,0.09472
3556.09621,0.10087
3558.02468,0.10670
3559.95314,0.10943
3561.88161,0.10934
3563.81008,0.10624
3565.73855,0.10262
3567.66702,0.10278
3569.59549,0.10258
3571.52396,0.09944
3573.45243,0.09642
3575.38089,0.09375
3577.30936,0.09289
3579.23783,0.09733
3581.16630,0.10328
3583.09477,0.10572
3585.02324,0.10460
3586.95171,0.10001
3588.88017,0.09440
3590.80864,0.09071
3592.73711,0.08963
3594.66558,0.09297
3596.59405,0.09675
3598.52252,0.09487
3600.45099,0.08981
3602.37946,0.08623
3604.30792,0.08396
3606.23639,0.08089
3608.16486,0.07878
3610.09333,0.08251
3612.02180,0.08913
3613.95027,0.09478
3615.87874,0.09951
3617.80720,0.10288
3619.73567,0.10352
3621.66414,0.10267
3623.59261,0.10120
3625.52108,0.09895
3627.44955,0.09975
3629.37802,0.09966
3631.30649,0.09236
3633.23495,0.08881
3635.16342,0.08923
3637.09189,0.08817
3639.02036,0.08667
3640.94883,0.08712
3642.87730,0.08696
3644.80577,0.08548
3646.73423,0.08726
3648.66270,0.09284
3650.59117,0.09156
3652.51964,0.08775
3654.44811,0.08715
3656.37658,0.08542
3658.30505,0.08295
3660.23352,0.08411
3662.16198,0.08627
3664.09045,0.08501
3666.01892,0.08159
3667.94739,0.08041
3669.87586,0.08156
3671.80433,0.08371
3673.73280,0.08769
3675.66126,0.08863
3677.58973,0.08449
3679.51820,0.08267
3681.44667,0.08362
3683.37514,0.08540
3685.30361,0.08710
3687.23208,0.08855
3689.16055,0.08765
3691.08901,0.08528
3693.01748,0.08400
3694.94595,0.08361
3696.87442,0.08492
3698.80289,0.08624
3700.73136,0.08525
3702.65983,0.08222
3704.58829,0.08008
3706.51676,0.08111
3708.44523,0.08622
3710.37370,0.09258
3712.30217,0.09152
3714.23064,0.08565
3716.15911,0.08184
3718.08757,0.08084
3720.01604,0.08103
3721.94451,0.07987
3723.87298,0.08021
3725.80145,0.08357
3727.72992,0.08564
3729.65839,0.08602
3731.58686,0.09041
3733.51532,0.10326
3735.44379,0.11027
3737.37226,0.10291
3739.30073,0.09727
3741.22920,0.09271
3743.15767,0.08404
3745.08614,0.07660
3747.01460,0.07587
3748.94307,0.07670
3750.87154,0.07902
3752.80001,0.08406
3754.72848,0.08933
3756.65695,0.08951
3758.58542,0.08047
3760.51389,0.07140
3762.44235,0.07205
3764.37082,0.07684
3766.29929,0.08108
3768.22776,0.08570
3770.15623,0.08760
3772.08470,0.08209
3774.01317,0.07612
3775.94163,0.07668
3777.87010,0.08243
3779.79857,0.08358
3781.72704,0.07926
3783.65551,0.08052
3785.58398,0.08748
3787.51245,0.09038
3789.44092,0.08730
3791.36938,0.08469
3793.29785,0.08386
3795.22632,0.08353
3797.15479,0.08656
3799.08326,0.09118
3801.01173,0.09077
3802.94020,0.08533
3804.86866,0.08351
3806.79713,0.08535
3808.72560,0.08678
3810.65407,0.08613
3812.58254,0.08499
3814.51101,0.08582
3816.43948,0.08834
3818.36795,0.08844
3820.29641,0.08549
3822.22488,0.08489
3824.15335,0.08900
3826.08182,0.09032
3828.01029,0.08387
3829.93876,0.07551
3831.86723,0.07319
3833.79569,0.07731
3835.72416,0.08299
3837.65263,0.08530
3839.58110,0.08508
3841.50957,0.08604
3843.43804,0.08530
3845.36651,0.08162
3847.29498,0.07885
3849.22344,0.08067
3851.15191,0.08677
3853.08038,0.09490
3855.00885,0.09427
3856.93732,0.08681
3858.86579,0.08342
3860.79426,0.08320
3862.72272,0.08128
3864.65119,0.07924
3866.57966,0.08184
3868.50813,0.08714
3870.43660,0.08882
3872.36507,0.08492
3874.29354,0.07884
3876.22200,0.07332
3878.15047,0.07118
3880.07894,0.06684
3882.00741,0.05791
3883.93588,0.05428
3885.86435,0.05784
3887.79282,0.06448
3889.72129,0.07177
3891.64975,0.07472
3893.57822,0.07172
3895.50669,0.07312
3897.43516,0.07897
3899.36363,0.08021
3901.29210,0.07947
3903.22057,0.08555
3905.14903,0.08617
3907.07750,0.07996
3909.00597,0.07679
3910.93444,0.07398
3912.86291,0.07045
3914.79138,0.06865
3916.71985,0.06680
3918.64832,0.06642
3920.57678,0.06879
3922.50525,0.07155
3924.43372,0.07523
3926.36219,0.07530
3928.29066,0.07015
3930.21913,0.06983
3932.14760,0.07676
3934.07606,0.08121
3936.00453,0.07903
3937.93300,0.07199
3939.86147,0.06487
3941.78994,0.06351
3943.71841,0.06895
3945.64688,0.07396
3947.57535,0.07306
3949.50381,0.06878
3951.43228,0.06435
3953.36075,0.06050
3955.28922,0.05825
3957.21769,0.05920
3959.14616,0.06596
3961.07463,0.07320
3963.00309,0.07169
3964.93156,0.06896
3966.86003,0.07307
3968.78850,0.07420
3970.71697,0.06893
3972.64544,0.06594
3974.57391,0.06671
3976.50238,0.06903
3978.43084,0.07193
3980.35931,0.07112
3982.28778,0.06745
3984.21625,0.06626
3986.14472,0.06719
3988.07319,0.06994
3990.00166,0.07371
3991.93012,0.07402
3993.85859,0.07151
3995.78706,0.06829
3997.71553,0.06374
3999.64400,0.06194
4001.57247,0.06662
4003.50094,0.07249
4005.42941,0.07421
4007.35787,0.07411
4009.28634,0.07438
4011.21481,0.07513
4013.14328,0.07537
4015.07175,0.07313
4017.00022,0.07066
4018.92869,0.06884
4020.85715,0.06601
4022.78562,0.06251
4024.71409,0.05722
4026.64256,0.05305
4028.57103,0.05635
4030.49950,0.06260
4032.42797,0.06260
4034.35644,0.05881
4036.28490,0.05710
4038.21337,0.05745
4040.14184,0.05898
4042.07031,0.06007
4043.99878,0.05948
4045.92725,0.05810
4047.85572,0.05696
4049.78418,0.05566
4051.71265,0.05323
4053.64112,0.05076
4055.56959,0.05141
4057.49806,0.05601
4059.42653,0.06214
4061.35500,0.06582
4063.28346,0.06404
4065.21193,0.06161
4067.14040,0.06328
4069.06887,0.06602
4070.99734,0.06679
4072.92581,0.06384
4074.85428,0.05893
4076.78275,0.05778
4078.71121,0.06072
4080.63968,0.06366
4082.56815,0.06494
4084.49662,0.06238
4086.42509,0.05688
4088.35356,0.05764
4090.28203,0.06687
4092.21049,0.07326
4094.13896,0.06942
4096.06743,0.06104
4097.99590,0.05691
4099.92437,0.05879
4101.85284,0.06234
4103.78131,0.06233
4105.70978,0.05804
4107.63824,0.05484
4109.56671,0.05658
4111.49518,0.06101
4113.42365,0.06558
4115.35212,0.06832
4117.28059,0.06604
4119.20906,0.06064
4121.13752,0.05719
4123.06599,0.05418
4124.99446,0.05044
4126.92293,0.04785
4128.85140,0.04465
4130.77987,0.04426
4132.70834,0.04875
4134.63681,0.05297
4136.56527,0.05769
4138.49374,0.06132
4140.42221,0.05807
4142.35068,0.05286
4144.27915,0.05192
4146.20762,0.05274
4148.13609,0.05473
4150.06455,0.05720
4151.99302,0.05733
4153.92149,0.05579
4155.84996,0.05137
4157.77843,0.04800
4159.70690,0.05294
4161.63537,0.05852
4163.56384,0.05508
4165.49230,0.04694
4167.42077,0.04241
4169.34924,0.04477
4171.27771,0.04986
4173.20618,0.05218
4175.13465,0.05450
4177.06312,0.06005
4178.99158,0.06483
4180.92005,0.06414
4182.84852,0.05852
4184.77699,0.04949
4186.70546,0.03821
4188.63393,0.03243
4190.56240,0.03528
4192.49087,0.04033
4194.41933,0.04425
4196.34780,0.04491
4198.27627,0.04310
4200.20474,0.04422
4202.13321,0.04985
4204.06168,0.05592
4205.99015,0.05564
4207.91861,0.05191
4209.84708,0.05178
4211.77555,0.04905
4213.70402,0.04272
4215.63249,0.04209
4217.56096,0.04635
4219.48943,0.04926
4221.41789,0.04770
4223.34636,0.04397
4225.27483,0.04398
4227.20330,0.04509
4229.13177,0.04289
4231.06024,0.04414
4232.98871,0.05097
4234.91718,0.05296
4236.84564,0.04828
4238.77411,0.04406
4240.70258,0.04054
4242.63105,0.03672
4244.55952,0.03783
4246.48799,0.04434
4248.41646,0.04624
4250.34492,0.04167
4252.27339,0.04153
4254.20186,0.04708
4256.13033,0.04932
4258.05880,0.04681
4259.98727,0.04350
4261.91574,0.04200
4263.84421,0.04476
4265.77267,0.04914
4267.70114,0.05069
4269.62961,0.04909
4271.55808,0.04530
4273.48655,0.04156
4275.41502,0.03852
4277.34349,0.03616
4279.27195,0.03535
4281.20042,0.03482
4283.12889,0.03495
4285.05736,0.03653
4286.98583,0.03845
4288.91430,0.03933
4290.84277,0.03824
4292.77124,0.03791
4294.69970,0.04178
4296.62817,0.04680
4298.55664,0.04793
4300.48511,0.04545
4302.41358,0.04332
4304.34205,0.04645
4306.27052,0.05236
4308.19898,0.05231
4310.12745,0.04679
4312.05592,0.03923
4313.98439,0.02947
4315.91286,0.02344
4317.84133,0.02526
4319.76980,0.02679
4321.69827,0.02094
4323.62673,0.01532
4325.55520,0.01894
4327.48367,0.02562
4329.41214,0.02720
4331.34061,0.02634
4333.26908,0.02811
4335.19755,0.03256
4337.12601,0.03513
4339.05448,0.03766
4340.98295,0.04363
4342.91142,0.04580
4344.83989,0.03965
4346.76836,0.02999
4348.69683,0.02044
4350.62530,0.01558
4352.55376,0.02236
4354.48223,0.03477
4356.41070,0.03763
4358.33917,0.02807
4360.26764,0.01657
4362.19611,0.01461
4364.12458,0.02042
4366.05304,0.02146
4367.98151,0.01767
4369.90998,0.01898
4371.83845,0.02226
4373.76692,0.02147
4375.69539,0.02107
4377.62386,0.02239
4379.55232,0.02424
4381.48079,0.02774
4383.40926,0.03163
4385.33773,0.03459
4387.26620,0.03720
4389.19467,0.03833
4391.12314,0.03325
4393.05161,0.02368
4394.98007,0.01781
4396.90854,0.02029
4398.83701,0.02905
4400.76548,0.03379
4402.69395,0.02764
4404.62242,0.01775
4406.55089,0.01374
4408.47935,0.01644
4410.40782,0.02152
4412.33629,0.02642
4414.26476,0.03059
4416.19323,0.03101
4418.12170,0.02399
4420.05017,0.01414
4421.97864,0.01119
4423.90710,0.01518
4425.83557,0.01584
4427.76404,0.01093
4429.69251,0.00872
4431.62098,0.00999
4433.54945,0.01204
4435.47792,0.01318
4437.40638,0.00916
4439.33485,0.00506
4441.26332,0.00716
4443.19179,0.01184
4445.12026,0.01677
4447.04873,0.02126
4448.97720,0.02323
4450.90567,0.02243
4452.83413,0.01742
4454.76260,0.00981
4456.69107,0.00997
4458.61954,0.01974
4460.54801,0.02293
4462.47648,0.01408
4464.40495,0.00686
4466.33341,0.00566
4468.26188,0.00592
4470.19035,0.00698
4472.11882,0.00912
4474.04729,0.01035
4475.97576,0.00648
4477.90423,0.00155
4479.83270,0.00549
4481.76116,0.01495
4483.68963,0.01760
4485.61810,0.01637
4487.54657,0.01964
4489.47504,0.01766
4491.40351,0.01008
4493.33198,0.01231
4495.26044,0.02077
4497.18891,0.02339
4499.11738,0.02152
4501.04585,0.02129
4502.97432,0.02177
4504.90279,0.02027
4506.83126,0.01624
4508.75973,0.00875
4510.68819,0.00312
4512.61666,0.00143
4514.54513,-0.00182
4516.47360,-0.00127
4518.40207,0.00655
4520.33054,0.01259
4522.25901,0.01318
4524.18747,0.01383
4526.11594,0.02114
4528.04441,0.02955
4529.97288,0.02752
4531.90135,0.01837
4533.82982,0.00998
4535.75829,0.00639
4537.68676,0.01199
4539.61522,0.02011
4541.54369,0.01822
4543.47216,0.01036
4545.40063,0.00634
4547.32910,0.00397
4549.25757,0.00092
4551.18604,0.00512
4553.11450,0.01879
4555.04297,0.02346
4556.97144,0.01313
4558.89991,0.01326
4560.82838,0.03204
4562.75685,0.04443
4564.68532,0.03395
4566.61378,0.01460
4568.54225,0.00938
4570.47072,0.02159
4572.39919,0.03157
4574.32766,0.02427
4576.25613,0.00994
4578.18460,0.00379
4580.11307,0.00437
4582.04153,0.00278
4583.97000,0.00168
4585.89847,0.00583
4587.82694,0.01158
4589.75541,0.01556
4591.68388,0.01353
4593.61235,0.00889
4595.54081,0.00892
4597.46928,0.01248
4599.39775,0.01622
4601.32622,0.01479
4603.25469,0.01017
4605.18316,0.00823
4607.11163,0.00903
4609.04010,0.01600
4610.96856,0.02659
4612.89703,0.03544
4614.82550,0.03845
4616.75397,0.02768
4618.68244,0.01178
4620.61091,0.00723
4622.53938,0.01008
4624.46784,0.00627
4626.39631,-0.00621
4628.32478,-0.01485
4630.25325,-0.01303
4632.18172,-0.00633
4634.11019,-0.00228
4636.03866,-0.00406
4637.96713,-0.00877
4639.89559,-0.01345
4641.82406,-0.01546
4643.75253,-0.01058
4645.68100,-0.00170
4647.60947,0.00317
4649.53794,0.00541
4651.46641,0.01338
4653.39487,0.01972
4655.32334,0.01442
4657.25181,0.00906
4659.18028,0.00882
4661.10875,0.00554
4663.03722,0.00014
4664.96569,-0.00565
4666.89416,-0.01170
4668.82262,-0.01181
4670.75109,-0.00302
4672.67956,0.00496
4674.60803,-0.00097
4676.53650,-0.01101
4678.46497,-0.01136
4680.39344,-0.00990
4682.32190,-0.00660
4684.25037,0.00592
4686.17884,0.01762
4688.10731,0.01439
4690.03578,-0.00171
4691.96425,-0.01376
4693.89272,-0.00851
4695.82119,0.00761
4697.74965,0.01747
4699.67812,0.01283
4701.60659,-0.00109
4703.53506,-0.01384
4705.46353,-0.01611
4707.39200,-0.00992
4709.32047,-0.00267
4711.24893,0.00433
4713.17740,0.00636
4715.10587,0.00045
4717.03434,-0.00763
4718.96281,-0.01303
4720.89128,-0.00758
4722.81975,0.00960
4724.74821,0.01951
4726.67668,0.01353
4728.60515,0.00398
4730.53362,0.00017
4732.46209,-0.00003
4734.39056,-0.00090
4736.31903,0.00055
4738.24750,0.00479
4740.17596,0.01005
4742.10443,0.01957
4744.03290,0.02494
4745.96137,0.01720
4747.88984,0.00589
4749.81831,0.00395
4751.74678,0.01280
4753.67524,0.02239
4755.60371,0.02390
4757.53218,0.01617
4759.46065,0.00604
4761.38912,0.00107
4763.31759,0.00291
4765.24606,0.01002
4767.17453,0.01576
4769.10299,0.01547
4771.03146,0.01624
4772.95993,0.02120
4774.88840,0.01905
4776.81687,0.00458
4778.74534,-0.00610
4780.67381,-0.00097
4782.60227,0.01167
4784.53074,0.01558
4786.45921,0.00139
4788.38768,-0.01361
4790.31615,-0.01089
4792.24462,-0.00026
4794.17309,0.00860
4796.10156,0.01380
4798.03002,0.01436
4799.95849,0.01499
4801.88696,0.02209
4803.81543,0.02965
4805.74390,0.01991
4807.67237,0.00092
4809.60084,-0.00725
4811.52930,-0.00574
4813.45777,0.00441
4815.38624,0.01464
4817.31471,0.01307
4819.24318,0.00552
4821.17165,-0.00090
4823.10012,-0.00397
4825.02859,-0.00239
4826.95705,0.00389
4828.88552,0.01085
4830.81399,0.00582
4832.74246,-0.00819
4834.67093,-0.00902
4836.59940,0.00183
4838.52787,0.00517
4840.45633,-0.00156
4842.38480,-0.01532
4844.31327,-0.02365
4846.24174,-0.01234
4848.17021,0.00295
4850.09868,0.00476
4852.02715,0.00023
4853.95562,-0.00342
4855.88408,-0.00788
4857.81255,-0.00935
4859.74102,-0.00179
4861.66949,0.00998
4863.59796,0.02159
4865.52643,0.02864
4867.45490,0.02011
4869.38336,-0.00173
4871.31183,-0.01234
4873.24030,-0.00191
4875.16877,0.00790
4877.09724,0.01319
4879.02571,0.01864
4880.95418,0.01613
4882.88265,0.00739
4884.81111,0.00065
4886.73958,-0.00328
4888.66805,-0.00241
4890.59652,0.00275
4892.52499,0.00692
4894.45346,0.00659
4896.38193,0.00538
4898.31039,0.00756
4900.23886,0.00732
4902.16733,0.00530
4904.09580,0.00396
4906.02427,-0.00110
4907.95274,-0.00427
4909.88121,0.00418
4911.80967,0.01858
4913.73814,0.02261
4915.66661,0.01413
4917.59508,0.00890
4919.52355,0.00668
4921.45202,-0.00379
4923.38049,-0.01018
4925.30896,0.00141
4927.23742,0.01028
4929.16589,-0.00794
4931.09436,-0.03386
4933.02283,-0.03259
4934.95130,-0.01071
4936.87977,0.00218
4938.80824,0.00196
4940.73670,0.00318
4942.66517,0.00379
4944.59364,-0.00270
4946.52211,-0.00613
4948.45058,-0.00465
4950.37905,-0.00689
4952.30752,-0.00542
4954.23599,0.00327
4956.16445,0.00824
4958.09292,0.01496
4960.02139,0.02588
4961.94986,0.02677
4963.87833,0.01792
4965.80680,0.01063
4967.73527,0.00822
4969.66373,0.00375
4971.59220,-0.00034
4973.52067,0.00671
4975.44914,0.01459
4977.37761,0.01554
4979.30608,0.01822
4981.23455,0.01270
4983.16302,-0.00591
4985.09148,-0.01525
4987.01995,-0.00736
4988.94842,0.00612
4990.87689,0.01342
4992.80536,0.01325
4994.73383,0.01155
4996.66230,0.00471
4998.59076,0.00206
5000.51923,0.01874
5002.44770,0.04095
5004.37617,0.05032
5006.30464,0.04448
5008.23311,0.02879
5010.16158,0.01496
5012.09005,0.01435
5014.01851,0.02544
5015.94698,0.03647
5017.87545,0.03364
5019.80392,0.01113
5021.73239,-0.01166
5023.66086,-0.01248
5025.58933,0.00347
5027.51779,0.01552
5029.44626,0.00926
5031.37473,-0.00519
5033.30320,-0.00798
5035.23167,0.00281
5037.16014,0.00956
5039.08861,0.00194
5041.01708,-0.00046
5042.94554,0.01400
5044.87401,0.02571
5046.80248,0.01749
5048.73095,0.00327
5050.65942,0.00652
5052.58789,0.01316
5054.51636,0.00410
5056.44482,-0.00265
5058.37329,0.00639
5060.30176,0.02121
5062.23023,0.03440
5064.15870,0.04510
5066.08717,0.04942
5068.01564,0.04217
5069.94410,0.02546
5071.87257,0.00599
5073.80104,-0.00995
5075.72951,-0.01818
5077.65798,-0.01684
5079.58645,-0.00361
5081.51492,0.01085
5083.44339,0.00924
5085.37185,-0.00502
5087.30032,-0.01929
5089.22879,-0.02913
5091.15726,-0.02977
5093.08573,-0.02113
5095.01420,-0.01318
5096.94267,-0.00138
5098.87113,0.01786
5100.79960,0.02820
5102.72807,0.02489
5104.65654,0.01789
5106.58501,0.01318
5108.51348,0.00241
5110.44195,-0.01594
5112.37042,-0.01968
5114.29888,-0.00467
5116.22735,0.01548
5118.15582,0.03522
5120.08429,0.04594
5122.01276,0.04774
5123.94123,0.04533
5125.86970,0.03143
5127.79816,0.01557
5129.72663,0.01452
5131.65510,0.01515
5133.58357,0.00626
5135.51204,0.00849
5137.44051,0.03209
5139.36898,0.04904
5141.29745,0.04571
5143.22591,0.03611
5145.15438,0.02147
5147.08285,0.00960
5149.01132,0.01565
5150.93979,0.02433
5152.86826,0.02081
5154.79673,0.01477
5156.72519,0.01147
5158.65366,0.01573
5160.58213,0.02702
5162.51060,0.02872
5164.43907,0.01788
5166.36754,0.01622
5168.29601,0.03183
5170.22448,0.03667
5172.15294,0.02671
5174.08141,0.02544
5176.00988,0.02824
5177.93835,0.03660
5179.86682,0.04566
5181.79529,0.03537
5183.72376,0.01987
5185.65222,0.01924
5187.58069,0.02763
5189.50916,0.03457
5191.43763,0.03043
5193.36610,0.01465
5195.29457,0.00823
5197.22304,0.01903
5199.15151,0.02636
5201.07997,0.01904
5203.00844,0.00369
5204.93691,-0.01339
5206.86538,-0.02015
5208.79385,-0.00823
5210.72232,0.01232
5212.65079,0.03469
5214.57925,0.05343
5216.50772,0.05815
5218.43619,0.04784
5220.36466,0.03753
5222.29313,0.02607
5224.22160,0.00470
5226.15007,-0.00354
5228.07854,0.00679
5230.00700,0.00874
5231.93547,0.00507
5233.86394,0.00964
5235.79241,0.01089
5237.72088,-0.00069
5239.64935,-0.00868
5241.57782,0.00369
5243.50628,0.03107
5245.43475,0.04769
5247.36322,0.04172
5249.29169,0.02598
5251.22016,0.02230
5253.14863,0.04005
5255.07710,0.04787
5257.00556,0.03565
5258.93403,0.03751
5260.86250,0.04439
5262.79097,0.03205
5264.71944,0.01476
5266.64791,0.01166
5268.57638,0.02256
5270.50485,0.02886
5272.43331,0.01739
5274.36178,0.00322
5276.29025,0.00389
5278.21872,0.01981
5280.14719,0.03674
5282.07566,0.04325
5284.00413,0.03581
5285.93259,0.01688
5287.86106,0.00537
5289.78953,0.01409
5291.71800,0.02615
5293.64647,0.02541
5295.57494,0.01877
5297.50341,0.01479
5299.43188,0.02084
5301.36034,0.03075
5303.28881,0.03304
5305.21728,0.03785
5307.14575,0.04750
5309.07422,0.04487
5311.00269,0.03594
5312.93116,0.03225
5314.85962,0.01919
5316.78809,-0.00857
5318.71656,-0.03315
5320.64503,-0.03427
5322.57350,-0.00829
5324.50197,0.02113
5326.43044,0.03221
5328.35891,0.02665
5330.28737,0.02167
5332.21584,0.02852
5334.14431,0.05191
5336.07278,0.08262
5338.00125,0.09931
5339.92972,0.09547
5341.85819,0.06881
5343.78665,0.02655
5345.71512,0.00312
5347.64359,0.00916
5349.57206,0.02146
5351.50053,0.02280
5353.42900,0.02329
5355.35747,0.03552
5357.28594,0.04246
5359.21440,0.04030
5361.14287,0.04070
5363.07134,0.03739
5364.99981,0.01785
5366.92828,0.00470
5368.85675,0.01870
5370.78522,0.04218
5372.71368,0.05843
5374.64215,0.06293
5376.57062,0.05004
5378.49909,0.03659
5380.42756,0.03294
5382.35603,0.02457
5384.28450,0.01664
5386.21297,0.02800
5388.14143,0.04521
5390.06990,0.04358
5391.99837,0.02019
5393.92684,-0.00475
5395.85531,-0.00806
5397.78378,-0.00100
5399.71225,0.00677
5401.64071,0.01874
5403.56918,0.02538
5405.49765,0.03255
5407.42612,0.05306
5409.35459,0.06834
5411.28306,0.06731
5413.21153,0.05924
5415.13999,0.03777
5417.06846,0.01127
5418.99693,-0.00012
5420.92540,-0.00086
5422.85387,-0.00204
5424.78234,0.00905
5426.71081,0.04526
5428.63928,0.07220
5430.56774,0.05367
5432.49621,0.02484
5434.42468,0.02947
5436.35315,0.06465
5438.28162,0.07889
5440.21009,0.05358
5442.13856,0.02319
5444.06702,0.01049
5445.99549,0.00497
5447.92396,-0.00221
5449.85243,0.00003
5451.78090,0.01499
5453.70937,0.02419
5455.63784,0.01693
5457.56631,0.00217
5459.49477,-0.00172
5461.42324,0.00821
5463.35171,0.02133
5465.28018,0.03516
5467.20865,0.05536
5469.13712,0.06893
5471.06559,0.06627
5472.99405,0.05547
5474.92252,0.03990
5476.85099,0.03589
5478.77946,0.03739
5480.70793,0.03114
5482.63640,0.03092
5484.56487,0.04080
5486.49334,0.04747
5488.42180,0.03927
5490.35027,0.03401
5492.27874,0.03823
5494.20721,0.03391
5496.13568,0.04834
5498.06415,0.08746
5499.99262,0.09610
5501.92108,0.06353
5503.84955,0.04196
5505.77802,0.03467
5507.70649,0.02479
5509.63496,0.02527
5511.56343,0.02433
5513.49190,0.01926
5515.42037,0.02996
5517.34883,0.04949
5519.27730,0.07001
5521.20577,0.08031
5523.13424,0.05892
5525.06271,0.02306
5526.99118,0.00912
5528.91965,0.01700
5530.84811,0.02103
5532.77658,0.01407
5534.70505,0.01573
5536.63352,0.02548
5538.56199,0.02655
5540.49046,0.02142
5542.41893,0.02329
5544.34740,0.03990
5546.27586,0.05193
5548.20433,0.03418
5550.13280,0.01530
5552.06127,0.03544
5553.98974,0.06383
5555.91821,0.06333
5557.84668,0.05874
5559.77514,0.06401
5561.70361,0.06263
5563.63208,0.04648
5565.56055,0.03477
5567.48902,0.04943
5569.41749,0.07238
5571.34596,0.08043
5573.27443,0.07121
5575.20289,0.05269
5577.13136,0.03118
5579.05983,0.00794
5580.98830,0.00538
5582.91677,0.04227
5584.84524,0.07139
5586.77371,0.05851
5588.70217,0.04350
5590.63064,0.04754
5592.55911,0.05478
5594.48758,0.06570
5596.41605,0.07105
5598.34452,0.04914
5600.27299,0.01223
5602.20145,-0.00111
5604.12992,0.01387
5606.05839,0.03325
5607.98686,0.04622
5609.91533,0.04889
5611.84380,0.03321
5613.77227,0.01924
5615.70074,0.02891
5617.62920,0.03316
5619.55767,0.01604
5621.48614,0.01258
5623.41461,0.03321
5625.34308,0.06009
5627.27155,0.08768
5629.20002,0.09297
5631.12848,0.07992
5633.05695,0.08807
5634.98542,0.11364
5636.91389,0.12267
5638.84236,0.10336
5640.77083,0.08028
5642.69930,0.06691
5644.62777,0.04349
5646.55623,0.01719
5648.48470,0.01904
5650.41317,0.04662
5652.34164,0.07449
5654.27011,0.08232
5656.19858,0.06738
5658.12705,0.05009
5660.05551,0.04386
5661.98398,0.05238
5663.91245,0.07213
5665.84092,0.06743
5667.76939,0.03039
5669.69786,0.00199
5671.62633,0.00325
5673.55480,0.01635
5675.48326,0.01765
5677.41173,0.01823
5679.34020,0.04696
5681.26867,0.08933
5683.19714,0.11128
5685.12561,0.10646
5687.05408,0.09559
5688.98254,0.09343
5690.91101,0.08662
5692.83948,0.07270
5694.76795,0.05910
5696.69642,0.05274
5698.62489,0.06368
5700.55336,0.06850
5702.48183,0.05872
5704.41029,0.05550
5706.33876,0.04543
5708.26723,0.02212
5710.19570,0.01941
5712.12417,0.03753
5714.05264,0.03659
5715.98111,0.02574
5717.90957,0.03751
5719.83804,0.06035
5721.76651,0.07849
5723.69498,0.09812
5725.62345,0.12479
5727.55192,0.12982
5729.48039,0.09179
5731.40886,0.06672
5733.33732,0.08296
5735.26579,0.09394
5737.19426,0.07510
5739.12273,0.05577
5741.05120,0.05967
5742.97967,0.06662
5744.90814,0.05554
5746.83660,0.04620
5748.76507,0.04213
5750.69354,0.03307
5752.62201,0.03728
5754.55048,0.04913
5756.47895,0.04545
5758.40742,0.03262
5760.33588,0.02697
5762.26435,0.03658
5764.19282,0.06424
5766.12129,0.07625
5768.04976,0.03182
5769.97823,-0.03304
5771.90670,-0.06319
5773.83517,-0.05278
5775.76363,-0.02297
5777.69210,0.00971
5779.62057,0.04220
5781.54904,0.05793
5783.47751,0.04449
5785.40598,0.03502
5787.33445,0.06903
5789.26291,0.11678
5791.19138,0.13991
5793.11985,0.15251
5795.04832,0.14181
5796.97679,0.09533
5798.90526,0.05214
5800.83373,0.03377
5802.76220,0.03050
5804.69066,0.03881
5806.61913,0.05541
5808.54760,0.05497
5810.47607,0.02764
5812.40454,0.01550
5814.33301,0.04347
5816.26148,0.05513
5818.18994,0.02652
5820.11841,0.02676
5822.04688,0.07257
5823.97535,0.09401
5825.90382,0.06935
5827.83229,0.03827
5829.76076,0.02432
5831.68923,0.02636
5833.61769,0.04689
5835.54616,0.07805
5837.47463,0.10447
5839.40310,0.09066
5841.33157,0.03305
5843.26004,0.01496
5845.18851,0.06379
5847.11697,0.11326
5849.04544,0.11009
5850.97391,0.05730
5852.90238,0.01186
5854.83085,0.00906
5856.75932,0.03131
5858.68779,0.04266
5860.61626,0.04831
5862.54472,0.07585
5864.47319,0.08623
5866.40166,0.03562
5868.33013,-0.00222
5870.25860,0.02091
5872.18707,0.03589
5874.11554,0.03189
5876.04400,0.05570
5877.97247,0.08578
5879.90094,0.08016
5881.82941,0.04541
5883.75788,0.00797
5885.68635,-0.01311
5887.61482,-0.00607
5889.54329,0.01125
5891.47175,0.01729
5893.40022,0.02672
5895.32869,0.04949
5897.25716,0.06033
5899.18563,0.03764
5901.11410,0.01156
5903.04257,0.02036
5904.97103,0.04982
5906.89950,0.06771
5908.82797,0.07016
5910.75644,0.06268
5912.68491,0.03812
5914.61338,0.00632
5916.54185,-0.00151
5918.47032,0.01708
5920.39878,0.03430
5922.32725,0.04721
5924.25572,0.05680
5926.18419,0.05409
5928.11266,0.04748
5930.04113,0.03791
5931.96960,0.04386
5933.89806,0.06445
5935.82653,0.05063
5937.75500,0.02653
5939.68347,0.03388
5941.61194,0.04372
5943.54041,0.04302
5945.46888,0.04899
5947.39734,0.06405
5949.32581,0.09419
5951.25428,0.11936
5953.18275,0.10826
5955.11122,0.08718
5957.03969,0.07831
5958.96816,0.07025
5960.89663,0.07140
5962.82509,0.08831
5964.75356,0.10482
5966.68203,0.11957
5968.61050,0.13473
5970.53897,0.12745
5972.46744,0.08935
5974.39591,0.04805
5976.32437,0.01826
5978.25284,0.00007
5980.18131,0.01607
5982.10978,0.06616
5984.03825,0.11277
5985.96672,0.14035
5987.89519,0.14057
5989.82366,0.10736
5991.75212,0.06653
5993.68059,0.04685
5995.60906,0.04945
5997.53753,0.05115
5999.46600,0.04588
6001.39447,0.03325
6003.32294,0.01843
6005.25140,0.02616
6007.17987,0.04436
6009.10834,0.06130
6011.03681,0.07883
6012.96528,0.06812
6014.89375,0.06141
6016.82222,0.09500
6018.75069,0.10377
6020.67915,0.08562
6022.60762,0.09567
6024.53609,0.10089
6026.46456,0.08492
6028.39303,0.06941
6030.32150,0.05628
6032.24997,0.04718
6034.17843,0.04480
6036.10690,0.04140
6038.03537,0.05244
6039.96384,0.08874
6041.89231,0.11529
6043.82078,0.11038
6045.74925,0.09693
6047.67772,0.11387
6049.60618,0.15811
6051.53465,0.16808
6053.46312,0.13167
6055.39159,0.08925
6057.32006,0.07613
6059.24853,0.09203
6061.17700,0.09430
6063.10546,0.07266
6065.03393,0.05476
6066.96240,0.03225
6068.89087,-0.00002
6070.81934,-0.00351
6072.74781,0.04727
6074.67628,0.09921
6076.60475,0.08719
6078.53321,0.06051
6080.46168,0.07218
6082.39015,0.08468
6084.31862,0.09325
6086.24709,0.10686
6088.17556,0.11286
6090.10403,0.13594
6092.03249,0.15261
6093.96096,0.12962
6095.88943,0.10475
6097.81790,0.08507
6099.74637,0.04447
6101.67484,-0.01065
6103.60331,-0.03540
6105.53177,-0.01081
6107.46024,0.02375
6109.38871,0.04427
6111.31718,0.06163
6113.24565,0.06778
6115.17412,0.03858
6117.10259,0.00230
6119.03106,0.02159
6120.95952,0.07184
6122.88799,0.08842
6124.81646,0.06593
6126.74493,0.04624
6128.67340,0.07233
6130.60187,0.09319
6132.53034,0.04060
6134.45880,-0.01349
6136.38727,0.00925
6138.31574,0.05898
6140.24421,0.08156
6142.17268,0.07100
6144.10115,0.04516
6146.02962,0.03905
6147.95809,0.03727
6149.88655,0.03191
6151.81502,0.06600
6153.74349,0.13708
6155.67196,0.16138
6157.60043,0.10940
6159.52890,0.05609
6161.45737,0.04954
6163.38583,0.06147
6165.31430,0.06679
6167.24277,0.06077
6169.17124,0.04681
6171.09971,0.03519
6173.02818,0.02309
6174.95665,-0.00965
6176.88512,-0.03627
6178.81358,-0.00297
6180.74205,0.06997
6182.67052,0.10936
6184.59899,0.09308
6186.52746,0.06520
6188.45593,0.05113
6190.38440,0.04875
6192.31286,0.07777
6194.24133,0.10622
6196.16980,0.08965
6198.09827,0.07327
6200.02674,0.05566
6201.95521,-0.00227
6203.88368,-0.03556
6205.81215,-0.00945
6207.74061,0.00585
6209.66908,-0.01204
6211.59755,-0.02405
6213.52602,-0.00422
6215.45449,0.04250
6217.38296,0.09445
6219.31143,0.11585
6221.23989,0.10241
6223.16836,0.08180
6225.09683,0.08022
6227.02530,0.09473
6228.95377,0.08560
6230.88224,0.06023
6232.81071,0.07527
6234.73918,0.11922
6236.66764,0.13154
6238.59611,0.09641
6240.52458,0.05512
6242.45305,0.01719
6244.38152,-0.03667
6246.30999,-0.05891
6248.23846,-0.02544
6250.16692,0.03480
6252.09539,0.08531
6254.02386,0.10352
6255.95233,0.10435
6257.88080,0.07003
6259.80927,0.00186
6261.73774,-0.02760
6263.66621,0.00435
6265.59467,0.05508
6267.52314,0.09491
6269.45161,0.09217
6271.38008,0.05875
6273.30855,0.05872
6275.23702,0.08853
6277.16549,0.09870
6279.09395,0.06505
6281.02242,-0.01024
6282.95089,-0.04551
6284.87936,-0.02174
6286.80783,-0.02604
6288.73630,-0.04544
6290.66477,-0.02842
6292.59323,-0.00177
6294.52170,0.01048
6296.45017,0.01926
6298.37864,0.04307
6300.30711,0.06935
6302.23558,0.06331
6304.16405,0.04426
6306.09252,0.04150
6308.02098,0.02466
6309.94945,-0.00414
6311.87792,0.02756
6313.80639,0.10376
6315.73486,0.12853
6317.66333,0.09949
6319.59180,0.08279
6321.52026,0.10607
6323.44873,0.15888
6325.37720,0.18499
6327.30567,0.13031
6329.23414,0.06217
6331.16261,0.06375
6333.09108,0.07840
6335.01955,0.03464
6336.94801,-0.03557
6338.87648,-0.05871
6340.80495,-0.02951
6342.73342,-0.00186
6344.66189,-0.00134
6346.59036,0.00591
6348.51883,0.03488
6350.44729,0.04091
6352.37576,0.04259
6354.30423,0.06001
6356.23270,0.03167
6358.16117,-0.03072
6360.08964,-0.04184
6362.01811,0.00541
6363.94658,0.08709
6365.87504,0.18421
6367.80351,0.18675
6369.73198,0.06344
6371.66045,-0.04301
6373.58892,-0.05039
6375.51739,-0.02894
6377.44586,-0.02812
6379.37432,-0.03136
6381.30279,-0.00627
6383.23126,0.03956
6385.15973,0.02713
6387.08820,-0.01146
6389.01667,0.01112
6390.94514,0.06270
6392.87361,0.07120
6394.80207,0.03749
6396.73054,0.01361
6398.65901,0.03066
6400.58748,0.07500
6402.51595,0.13076
6404.44442,0.19099
6406.37289,0.19269
6408.30135,0.11798
6410.22982,0.04880
6412.15829,0.04014
6414.08676,0.08286
6416.01523,0.13596
6417.94370,0.14238
6419.87217,0.09097
6421.80064,0.06477
6423.72910,0.05019
6425.65757,-0.02008
6427.58604,-0.09082
6429.51451,-0.09098
6431.44298,-0.02698
6433.37145,0.04285
6435.29992,0.10308
6437.22838,0.15155
6439.15685,0.14124
6441.08532,0.08944
6443.01379,0.01963
6444.94226,-0.02311
6446.87073,0.01668
6448.79920,0.08746
6450.72766,0.12547
6452.65613,0.11607
6454.58460,0.05654
6456.51307,-0.01446
6458.44154,-0.00968
6460.37001,0.06122
6462.29848,0.12452
6464.22695,0.16371
6466.15541,0.15480
6468.08388,0.12403
6470.01235,0.16111
6471.94082,0.20687
6473.86929,0.17699
6475.79776,0.09025
6477.72623,-0.01270
6479.65469,-0.04516
6481.58316,0.01757
6483.51163,0.07893
6485.44010,0.08773
6487.36857,0.08059
6489.29704,0.09172
6491.22551,0.09301
6493.15398,0.06300
6495.08244,0.06239
6497.01091,0.10275
6498.93938,0.11218
6500.86785,0.04964
6502.79632,-0.01915
6504.72479,-0.01721
6506.65326,0.05046
6508.58172,0.12391
6510.51019,0.11340
6512.43866,0.04744
6514.36713,0.05254
6516.29560,0.10315
6518.22407,0.10295
6520.15254,0.06656
6522.08101,0.06285
6524.00947,0.11518
6525.93794,0.14829
6527.86641,0.10525
6529.79488,0.05958
6531.72335,0.07108
6533.65182,0.10408
6535.58029,0.10138
6537.50875,0.05763
6539.43722,-0.00338
6541.36569,-0.04780
6543.29416,-0.04717
6545.22263,-0.02438
6547.15110,-0.00870
6549.07957,0.03087
6551.00804,0.09349
6552.93650,0.07636
6554.86497,-0.02110
6556.79344,-0.07970
6558.72191,-0.05485
6560.65038,0.00613
6562.57885,0.02653
6564.50732,0.01017
6566.43578,0.00911
6568.36425,0.02684
6570.29272,0.09435
6572.22119,0.18074
6574.14966,0.18181
6576.07813,0.13803
6578.00660,0.13409
6579.93507,0.12902
6581.86353,0.07718
6583.79200,0.02458
6585.72047,0.01335
6587.64894,0.01519
6589.57741,0.00184
6591.50588,-0.00317
6593.43435,0.03284
6595.36281,0.07035
6597.29128,0.05392
6599.21975,0.01039
6601.14822,0.00048
6603.07669,0.03197
6605.00516,0.05322
6606.93363,0.03473
6608.86210,-0.02315
6610.79056,-0.07546
6612.71903,-0.06763
6614.64750,-0.00423
6616.57597,0.05405
6618.50444,0.04211
6620.43291,-0.00703
6622.36138,-0.02646
6624.28984,-0.00219
6626.21831,0.05379
6628.14678,0.13554
6630.07525,0.15844
6632.00372,0.07915
6633.93219,0.05572
6635.86066,0.11783
6637.78912,0.11146
6639.71759,0.04287
6641.64606,-0.00848
6643.57453,-0.02794
6645.50300,-0.00361
6647.43147,0.05359
6649.35994,0.09672
6651.28841,0.11059
6653.21687,0.09431
6655.14534,0.07634
6657.07381,0.09618
6659.00228,0.10329
6660.93075,0.05961
6662.85922,0.03201
6664.78769,0.04693
6666.71615,0.07114
6668.64462,0.09818
6670.57309,0.07791
6672.50156,0.01367
6674.43003,0.02076
6676.35850,0.07788
6678.28697,0.10635
6680.21544,0.10843
6682.14390,0.07900
6684.07237,0.06232
6686.00084,0.11394
6687.92931,0.12730
6689.85778,0.06421
6691.78625,0.02475
6693.71472,0.00161
6695.64318,0.01010
6697.57165,0.06667
6699.50012,0.13526
6701.42859,0.22770
6703.35706,0.28771
6705.28553,0.21586
6707.21400,0.04310
6709.14247,-0.07103
6711.07093,-0.04933
6712.99940,-0.01728
6714.92787,-0.06338
6716.85634,-0.05340
6718.78481,0.08598
6720.71328,0.16579
6722.64175,0.10197
6724.57021,0.03655
6726.49868,0.02862
6728.42715,0.01515
6730.35562,-0.02992
6732.28409,-0.01889
6734.21256,0.08532
6736.14103,0.16621
6738.06950,0.20438
6739.99796,0.27217
6741.92643,0.32050
6743.85490,0.29151
6745.78337,0.19634
6747.71184,0.08194
6749.64031,0.02207
6751.56878,0.00851
6753.49724,0.03662
6755.42571,0.05898
6757.35418,-0.01923
6759.28265,-0.08192
6761.21112,-0.00648
6763.13959,0.06309
6765.06806,0.07019
6766.99653,0.05998
6768.92499,0.06333
6770.85346,0.11962
6772.78193,0.16940
6774.71040,0.11153
6776.63887,0.01716
6778.56734,0.05088
6780.49581,0.15425
6782.42427,0.19561
6784.35274,0.17850
6786.28121,0.11919
6788.20968,0.01620
6790.13815,-0.05937
6792.06662,-0.05681
6793.99509,-0.01200
6795.92355,0.04911
6797.85202,0.09938
6799.78049,0.11194
6801.70896,0.11152
6803.63743,0.11262
6805.56590,0.06005
6807.49437,0.00177
6809.42284,0.03210
6811.35130,0.09074
6813.27977,0.09179
6815.20824,0.06738
6817.13671,0.01057
6819.06518,-0.01690
6820.99365,0.07922
6822.92212,0.23863
6824.85058,0.30018
6826.77905,0.23778
6828.70752,0.15122
6830.63599,0.08140
6832.56446,-0.02356
6834.49293,-0.10412
6836.42140,-0.08027
6838.34987,-0.02562
6840.27833,0.00786
6842.20680,0.05638
6844.13527,0.06339
6846.06374,-0.01054
6847.99221,-0.04801
6849.92068,0.01066
6851.84915,0.05809
6853.77761,0.07929
6855.70608,0.10908
6857.63455,0.12853
6859.56302,0.14294
6861.49149,0.16226
6863.41996,0.14929
6865.34843,0.13520
6867.27690,0.18259
6869.20536,0.21836
6871.13383,0.16084
6873.06230,0.06833
6874.99077,0.04964
6876.91924,0.10768
6878.84771,0.16862
6880.77618,0.16481
6882.70464,0.13189
6884.63311,0.09435
6886.56158,0.07541
6888.49005,0.13951
6890.41852,0.22418
6892.34699,0.20189
6894.27546,0.08221
6896.20393,-0.00900
6898.13239,0.02833
6900.06086,0.12264
6901.98933,0.15366
6903.91780,0.12650
6905.84627,0.13582
6907.77474,0.16459
6909.70321,0.13003
6911.63167,0.07761
6913.56014,0.04812
6915.48861,0.02410
6917.41708,0.01581
6919.34555,0.05025
6921.27402,0.11178
6923.20249,0.20620
6925.13096,0.26873
6927.05942,0.19943
6928.98789,0.08796
6930.91636,0.02642
6932.84483,0.00543
6934.77330,0.03797
6936.70177,0.05294
6938.63024,0.04322
6940.55870,0.04919
6942.48717,0.00576
6944.41564,-0.07788
6946.34411,-0.12250
6948.27258,-0.08635
6950.20105,-0.02217
6952.12952,-0.02250
6954.05799,-0.02883
6955.98645,0.04374
6957.91492,0.06436
6959.84339,-0.04191
6961.77186,-0.13629
6963.70033,-0.08289
6965.62880,0.11444
6967.55727,0.33837
6969.48573,0.34767
6971.41420,0.16907
6973.34267,0.07620
6975.27114,0.05108
6977.19961,0.05373
6979.12808,0.14266
6981.05655,0.21023
6982.98501,0.15494
6984.91348,0.05755
6986.84195,-0.02070
6988.77042,-0.09544
6990.69889,-0.11998
6992.62736,-0.15090
6994.55583,-0.21377
6996.48430,-0.19298
6998.41276,-0.04618
7000.34123,0.09752
7002.26970,0.11559
7004.19817,0.03539
7006.12664,-0.04469
7008.05511,-0.00163
7009.98358,0.11971
7011.91204,0.19358
7013.84051,0.22001
7015.76898,0.20249
7017.69745,0.11641
7019.62592,0.03998
7021.55439,0.05666
7023.48286,0.11633
7025.41133,0.11391
7027.33979,0.05095
7029.26826,0.03958
7031.19673,0.04551
7033.12520,-0.06671
7035.05367,-0.15753
7036.98214,-0.08629
7038.91061,-0.01122
7040.83907,0.03208
7042.76754,0.13907
7044.69601,0.21977
7046.62448,0.14815
7048.55295,0.00564
7050.48142,-0.05848
7052.40989,-0.04213
7054.33836,-0.04821
7056.26682,-0.02044
7058.19529,0.15073
7060.12376,0.28071
7062.05223,0.24327
7063.98070,0.12033
7065.90917,0.03885
7067.83764,0.00477
7069.76610,-0.02761
7071.69457,-0.04039
7073.62304,-0.01790
7075.55151,0.01413
7077.47998,0.02521
7079.40845,0.03919
7081.33692,0.14034
7083.26539,0.24984
7085.19385,0.20737
7087.12232,0.08094
7089.05079,0.02289
7090.97926,0.04705
7092.90773,0.10375
7094.83620,0.08175
7096.76467,0.00885
7098.69313,0.01859
7100.62160,0.03610
7102.55007,0.05256
7104.47854,0.12308
7106.40701,0.17812
7108.33548,0.14996
7110.26395,0.07556
7112.19242,0.07217
7114.12088,0.15259
7116.04935,0.17318
7117.97782,0.08360
7119.90629,0.01727
7121.83476,0.00361
7123.76323,0.03411
7125.69170,0.15496
7127.62016,0.20844
7129.54863,0.08255
7131.47710,-0.03189
7133.40557,-0.01214
7135.33404,0.05720
7137.26251,0.08994
7139.19098,0.09661
7141.11944,0.10542
7143.04791,0.11168
7144.97638,0.15155
7146.90485,0.17851
7148.83332,0.09282
7150.76179,-0.00791
7152.69026,-0.01102
7154.61873,0.02375
7156.54719,0.01620
7158.47566,-0.03066
7160.40413,-0.05896
7162.33260,0.03109
7164.26107,0.17835
7166.18954,0.23749
7168.11801,0.22748
7170.04647,0.20984
7171.97494,0.12825
7173.90341,0.05911
7175.83188,0.11007
7177.76035,0.10502
7179.68882,-0.12455
7181.61729,-0.33999
7183.54576,-0.27729
7185.47422,-0.07956
7187.40269,0.09428
7189.33116,0.19410
7191.25963,0.18657
7193.18810,0.15623
7195.11657,0.10973
7197.04504,-0.02055
7198.97350,-0.13172
7200.90197,-0.12353
7202.83044,-0.01807
7204.75891,0.10065
7206.68738,0.11137
7208.61585,0.07041
7210.54432,0.02183
7212.47279,-0.02424
7214.40125,0.02038
7216.32972,0.20715
7218.25819,0.29059
7220.18666,0.04822
7222.11513,-0.19871
7224.04360,-0.20565
7225.97207,0.08408
7227.90053,0.39555
7229.82900,0.39338
7231.75747,0.11268
7233.68594,-0.09523
7235.61441,-0.08635
7237.54288,0.02888
7239.47135,0.10640
7241.39982,0.11644
7243.32828,0.08757
7245.25675,0.06649
7247.18522,0.04637
7249.11369,0.02370
7251.04216,0.05237
7252.97063,0.18488
7254.89910,0.29388
7256.82756,0.30138
7258.75603,0.28462
7260.68450,0.22065
7262.61297,0.14009
7264.54144,0.13856
7266.46991,0.16297
7268.39838,0.16392
7270.32685,0.14593
7272.25531,0.12311
7274.18378,0.10803
7276.11225,0.11803
7278.04072,0.14105
7279.96919,0.10232
7281.89766,0.04896
7283.82613,0.10914
7285.75459,0.19292
7287.68306,0.19324
7289.61153,0.19022
7291.54000,0.27068
7293.46847,0.29880
7295.39694,0.18315
7297.32541,0.01086
7299.25387,-0.09627
7301.18234,-0.07110
7303.11081,0.00841
7305.03928,-0.02136
7306.96775,-0.18974
7308.89622,-0.26197
7310.82469,-0.05866
7312.75316,0.08686
7314.68162,0.06140
7316.61009,-0.00431
7318.53856,0.08397
7320.46703,0.18101
7322.39550,0.20301
7324.32397,0.24498
7326.25244,0.30183
7328.18090,0.23557
7330.10937,0.03244
7332.03784,-0.11203
7333.96631,-0.16072
7335.89478,-0.12462
7337.82325,0.00274
7339.75172,0.18851
7341.68019,0.26022
7343.60865,0.25251
7345.53712,0.29361
7347.46559,0.34638
7349.39406,0.25321
7351.32253,0.09454
7353.25100,-0.00469
7355.17947,-0.06399
7357.10793,0.05519
7359.03640,0.43015
7360.96487,0.63521
7362.89334,0.50474
7364.82181,0.39220
7366.75028,0.42230
7368.67875,0.32358
7370.60722,0.09085
7372.53568,0.01998
7374.46415,0.18048
7376.39262,0.20074
7378.32109,0.02175
7380.24956,-0.08165
7382.17803,-0.14170
7384.10650,-0.16092
7386.03496,-0.10665
7387.96343,0.03726
7389.89190,0.19323
7391.82037,0.21710
7393.74884,0.17875
7395.67731,0.10803
7397.60578,-0.07001
7399.53425,-0.14076
7401.46271,0.03441
7403.39118,0.27745
7405.31965,0.30828
7407.24812,0.12038
7409.17659,-0.00648
7411.10506,0.09146
7413.03353,0.23561
7414.96199,0.21226
7416.89046,0.06260
7418.81893,-0.00623
7420.74740,0.01663
7422.67587,-0.05606
7424.60434,-0.16604
7426.53281,-0.13415
7428.46128,0.06925
7430.38974,0.27685
7432.31821,0.30883
7434.24668,0.17405
7436.17515,-0.04303
7438.10362,-0.17284
7440.03209,-0.06908
7441.96056,0.07304
7443.88902,0.07665
7445.81749,0.03658
7447.74596,0.07704
7449.67443,0.15529
7451.60290,0.18221
7453.53137,0.23137
7455.45984,0.23961
7457.38831,0.14964
7459.31677,0.04359
7461.24524,-0.04491
7463.17371,-0.06008
7465.10218,0.12439
7467.03065,0.33398
7468.95912,0.40484
7470.88759,0.39473
7472.81605,0.19013
7474.74452,-0.10973
7476.67299,-0.18806
7478.60146,-0.10829
7480.52993,-0.11254
7482.45840,-0.06730
7484.38687,0.03648
7486.31533,0.04552
7488.24380,-0.06118
7490.17227,-0.22022
7492.10074,-0.20534
7494.02921,-0.01645
7495.95768,0.17507
7497.88615,0.33247
