399.19301,3.21361
401.12148,0.34384
403.04995,0.09581
404.97842,0.21618
406.90689,0.29202
408.83536,0.29414
410.76382,0.18419
412.69229,-0.00071
414.62076,-0.13492
416.54923,-0.23330
418.47770,-0.15287
420.40617,0.11491
422.33464,0.16311
424.26311,0.06207
426.19157,0.03233
428.12004,0.05266
430.04851,0.01929
431.97698,-0.03127
433.90545,-0.00245
435.83392,0.04229
437.76239,0.01449
439.69085,-0.00816
441.61932,0.01583
443.54779,0.01074
445.47626,0.02117
447.40473,0.05735
449.33320,0.04956
451.26167,0.03214
453.19013,0.02554
455.11860,0.01146
457.04707,-0.01290
458.97554,-0.07208
460.90401,-0.10397
462.83248,-0.05301
464.76095,-0.01292
466.68942,-0.05721
468.61788,-0.08945
470.54635,-0.02392
472.47482,0.08990
474.40329,0.10524
476.33176,0.07047
478.26023,0.08296
480.18870,0.10039
482.11716,0.12587
484.04563,0.14644
485.97410,0.11278
487.90257,0.06649
489.83104,0.06217
491.75951,0.06349
493.68798,0.03501
495.61645,0.02391
497.54491,0.06198
499.47338,0.08224
501.40185,0.04732
503.33032,0.01076
505.25879,-0.00510
507.18726,-0.00255
509.11573,0.02973
511.04419,0.04808
512.97266,0.03994
514.90113,0.04356
516.82960,0.08221
518.75807,0.11824
520.68654,0.10626
522.61501,0.08849
524.54348,0.11041
526.47194,0.12491
528.40041,0.08289
530.32888,0.02770
532.25735,-0.00128
534.18582,0.00046
536.11429,0.02627
538.04276,0.04895
539.97122,0.04547
541.89969,0.01094
543.82816,-0.01928
545.75663,-0.00977
547.68510,0.01696
549.61357,0.03218
551.54204,0.04086
553.47051,0.06605
555.39897,0.08994
557.32744,0.08194
559.25591,0.08339
561.18438,0.11798
563.11285,0.12171
565.04132,0.07327
566.96979,0.03056
568.89825,0.03013
570.82672,0.04843
572.75519,0.06397
574.68366,0.09360
576.61213,0.11313
578.54060,0.09178
580.46907,0.07401
582.39754,0.09600
584.32600,0.12962
586.25447,0.12947
588.18294,0.08821
590.11141,0.03752
592.03988,0.00454
593.96835,-0.01174
595.89682,-0.02652
597.82528,-0.03701
599.75375,-0.02903
601.68222,-0.00047
603.61069,0.02688
605.53916,0.04527
607.46763,0.06638
609.39610,0.07943
611.32456,0.07995
613.25303,0.07840
615.18150,0.07369
617.10997,0.07182
619.03844,0.07543
620.96691,0.07017
622.89538,0.07125
624.82385,0.09650
626.75231,0.11825
628.68078,0.10864
630.60925,0.07973
632.53772,0.05836
634.46619,0.05896
636.39466,0.07673
638.32313,0.09212
640.25159,0.08675
642.18006,0.05975
644.10853,0.03340
646.03700,0.03087
647.96547,0.04249
649.89394,0.04966
651.82241,0.05613
653.75088,0.06185
655.67934,0.05782
657.60781,0.05133
659.53628,0.05043
661.46475,0.05155
663.39322,0.06242
665.32169,0.08070
667.25016,0.09105
669.17862,0.08921
671.10709,0.08862
673.03556,0.09317
674.96403,0.09781
676.89250,0.09718
678.82097,0.09212
680.74944,0.08618
682.67791,0.07678
684.60637,0.06565
686.53484,0.06715
688.46331,0.07843
690.39178,0.08237
692.32025,0.08140
694.24872,0.08029
696.17719,0.07790
698.10565,0.08532
700.03412,0.10037
701.96259,0.10026
703.89106,0.08662
705.81953,0.08331
707.74800,0.09379
709.67647,0.09588
711.60494,0.07590
713.53340,0.05086
715.46187,0.04345
717.39034,0.05345
719.31881,0.06282
721.24728,0.05658
723.17575,0.04552
725.10422,0.04500
727.03268,0.05295
728.96115,0.06326
730.88962,0.07179
732.81809,0.07783
734.74656,0.07721
736.67503,0.07129
738.60350,0.07116
740.53197,0.07327
742.46043,0.06970
744.38890,0.06678
746.31737,0.06871
748.24584,0.07227
750.17431,0.07788
752.10278,0.08071
754.03125,0.07570
755.95971,0.07272
757.88818,0.07587
759.81665,0.07725
761.74512,0.07382
763.67359,0.07138
765.60206,0.07413
767.53053,0.07794
769.45900,0.08343
771.38746,0.08910
773.31593,0.08285
775.24440,0.06784
777.17287,0.06426
779.10134,0.07506
781.02981,0.08058
782.95828,0.07489
784.88674,0.07468
786.81521,0.08311
788.74368,0.08985
790.67215,0.09080
792.60062,0.07948
794.52909,0.06464
796.45756,0.06801
798.38602,0.07845
800.31449,0.07734
802.24296,0.07672
804.17143,0.08140
806.09990,0.08125
808.02837,0.07788
809.95684,0.07403
811.88531,0.07396
813.81377,0.07811
815.74224,0.07653
817.67071,0.06937
819.59918,0.06706
821.52765,0.07608
823.45612,0.09061
825.38459,0.09367
827.31305,0.08198
829.24152,0.07758
831.16999,0.08605
833.09846,0.08703
835.02693,0.07634
836.95540,0.06761
838.88387,0.06388
840.81234,0.06741
842.74080,0.08405
844.66927,0.09967
846.59774,0.09799
848.52621,0.08792
850.45468,0.08474
852.38315,0.08850
854.31162,0.08780
856.24008,0.08075
858.16855,0.07584
860.09702,0.07612
862.02549,0.07515
863.95396,0.07228
865.88243,0.07434
867.81090,0.08078
869.73937,0.08917
871.66783,0.09286
873.59630,0.08332
875.52477,0.07079
877.45324,0.07347
879.38171,0.08307
881.31018,0.07874
883.23865,0.06913
885.16711,0.06903
887.09558,0.07164
889.02405,0.07283
890.95252,0.07306
892.88099,0.07319
894.80946,0.08217
896.73793,0.09415
898.66640,0.09374
900.59486,0.08912
902.52333,0.09080
904.45180,0.09132
906.38027,0.08583
908.30874,0.08180
910.23721,0.08586
912.16568,0.08827
914.09414,0.08055
916.02261,0.07106
917.95108,0.06765
919.87955,0.07276
921.80802,0.07990
923.73649,0.07936
925.66496,0.07593
927.59343,0.07511
929.52189,0.07466
931.45036,0.07258
933.37883,0.07054
935.30730,0.07689
937.23577,0.08801
939.16424,0.08913
941.09271,0.08543
943.02117,0.08775
944.94964,0.09054
946.87811,0.08965
948.80658,0.08955
950.73505,0.09613
952.66352,0.10775
954.59199,0.11118
956.52045,0.09711
958.44892,0.07647
960.37739,0.06989
962.30586,0.07931
964.23433,0.08737
966.16280,0.08554
968.09127,0.08572
970.01974,0.09126
971.94820,0.08723
973.87667,0.07571
975.80514,0.07124
977.73361,0.07372
979.66208,0.07579
981.59055,0.07647
983.51902,0.07722
985.44748,0.07562
987.37595,0.07364
989.30442,0.07532
991.23289,0.07839
993.16136,0.08045
995.08983,0.08245
997.01830,0.08443
998.94677,0.08610
1000.87523,0.08607
1002.80370,0.08495
1004.73217,0.08927
1006.66064,0.09567
1008.58911,0.09439
1010.51758,0.08935
1012.44605,0.09057
1014.37451,0.09741
1016.30298,0.10297
1018.23145,0.10578
1020.15992,0.10278
1022.08839,0.09265
1024.01686,0.08569
1025.94533,0.08772
1027.87380,0.09428
1029.80226,0.09694
1031.73073,0.09053
1033.65920,0.07834
1035.58767,0.06608
1037.51614,0.06507
1039.44461,0.07747
1041.37308,0.08613
1043.30154,0.08595
1045.23001,0.08779
1047.15848,0.09429
1049.08695,0.09857
1051.01542,0.09996
1052.94389,0.10253
1054.87236,0.10168
1056.80083,0.09386
1058.72929,0.08538
1060.65776,0.08157
1062.58623,0.08052
1064.51470,0.08173
1066.44317,0.08491
1068.37164,0.08778
1070.30011,0.09530
1072.22857,0.10854
1074.15704,0.11527
1076.08551,0.10582
1078.01398,0.08839
1079.94245,0.08055
1081.87092,0.08556
1083.79939,0.09222
1085.72786,0.09471
1087.65632,0.09749
1089.58479,0.09990
1091.51326,0.09511
1093.44173,0.08656
1095.37020,0.08276
1097.29867,0.08505
1099.22714,0.09209
1101.15560,0.09788
1103.08407,0.09534
1105.01254,0.09174
1106.94101,0.09546
1108.86948,0.09947
1110.79795,0.09773
1112.72642,0.09561
1114.65489,0.09532
1116.58335,0.09586
1118.51182,0.09828
1120.44029,0.10315
1122.36876,0.11234
1124.29723,0.11974
1126.22570,0.11595
1128.15417,0.10618
1130.08263,0.10035
1132.01110,0.09793
1133.93957,0.09577
1135.86804,0.09568
1137.79651,0.09808
1139.72498,0.09956
1141.65345,0.09744
1143.58191,0.09332
1145.51038,0.09310
1147.43885,0.09862
1149.36732,0.10389
1151.29579,0.10263
1153.22426,0.09767
1155.15273,0.09656
1157.08120,0.09818
1159.00966,0.09861
1160.93813,0.09781
1162.86660,0.09496
1164.79507,0.09241
1166.72354,0.09143
1168.65201,0.09135
1170.58048,0.09403
1172.50894,0.09604
1174.43741,0.09344
1176.36588,0.08942
1178.29435,0.08781
1180.22282,0.08934
1182.15129,0.09325
1184.07976,0.09704
1186.00823,0.09657
1187.93669,0.09625
1189.86516,0.10395
1191.79363,0.11116
1193.72210,0.10879
1195.65057,0.10411
1197.57904,0.10005
1199.50751,0.09435
1201.43597,0.09337
1203.36444,0.09701
1205.29291,0.09820
1207.22138,0.09881
1209.14985,0.10056
1211.07832,0.09940
1213.00679,0.09528
1214.93526,0.09434
1216.86372,0.10010
1218.79219,0.10624
1220.72066,0.10816
1222.64913,0.10830
1224.57760,0.10554
1226.50607,0.10098
1228.43454,0.10072
1230.36300,0.10378
1232.29147,0.10415
1234.21994,0.09973
1236.14841,0.09589
1238.07688,0.09732
1240.00535,0.10045
1241.93382,0.10318
1243.86229,0.10480
1245.79075,0.10268
1247.71922,0.10099
1249.64769,0.10383
1251.57616,0.10541
1253.50463,0.10135
1255.43310,0.09631
1257.36157,0.09428
1259.29003,0.09427
1261.21850,0.09534
1263.14697,0.09784
1265.07544,0.09998
1267.00391,0.10013
1268.93238,0.10178
1270.86085,0.10516
1272.78932,0.10552
1274.71778,0.10288
1276.64625,0.10161
1278.57472,0.10184
1280.50319,0.09857
1282.43166,0.09426
1284.36013,0.09543
1286.28860,0.09847
1288.21706,0.10001
1290.14553,0.10220
1292.07400,0.10407
1294.00247,0.10434
1295.93094,0.10265
1297.85941,0.09878
1299.78788,0.09444
1301.71634,0.08964
1303.64481,0.08496
1305.57328,0.08559
1307.50175,0.09234
1309.43022,0.10011
1311.35869,0.10774
1313.28716,0.11227
1315.21563,0.10902
1317.14409,0.10115
1319.07256,0.09348
1321.00103,0.09212
1322.92950,0.09947
1324.85797,0.10550
1326.78644,0.10353
1328.71491,0.09960
1330.64337,0.09852
1332.57184,0.09965
1334.50031,0.10281
1336.42878,0.10703
1338.35725,0.10894
1340.28572,0.10529
1342.21419,0.10045
1344.14266,0.10113
1346.07112,0.10403
1347.99959,0.10573
1349.92806,0.10864
1351.85653,0.10959
1353.78500,0.10765
1355.71347,0.10782
1357.64194,0.11048
1359.57040,0.11304
1361.49887,0.11230
1363.42734,0.10789
1365.35581,0.10381
1367.28428,0.10177
1369.21275,0.10325
1371.14122,0.10713
1373.06969,0.11086
1374.99815,0.11285
1376.92662,0.11121
1378.85509,0.10833
1380.78356,0.10781
1382.71203,0.11119
1384.64050,0.11859
1386.56897,0.12444
1388.49743,0.12067
1390.42590,0.11464
1392.35437,0.11582
1394.28284,0.12158
1396.21131,0.12276
1398.13978,0.11500
1400.06825,0.10311
1401.99672,0.09616
1403.92518,0.09666
1405.85365,0.10086
1407.78212,0.10351
1409.71059,0.10317
1411.63906,0.10198
1413.56753,0.10209
1415.49600,0.10447
1417.42446,0.10751
1419.35293,0.10804
1421.28140,0.10804
1423.20987,0.10788
1425.13834,0.10621
1427.06681,0.10616
1428.99528,0.10947
1430.92375,0.11202
1432.85221,0.11216
1434.78068,0.11517
1436.70915,0.11860
1438.63762,0.11545
1440.56609,0.11379
1442.49456,0.11622
1444.42303,0.11767
1446.35149,0.11695
1448.27996,0.11501
1450.20843,0.11328
1452.13690,0.11514
1454.06537,0.12004
1455.99384,0.12559
1457.92231,0.12799
1459.85077,0.12503
1461.77924,0.12342
1463.70771,0.12292
1465.63618,0.11815
1467.56465,0.11392
1469.49312,0.11888
1471.42159,0.13073
1473.35006,0.13500
1475.27852,0.12681
1477.20699,0.11792
1479.13546,0.11203
1481.06393,0.10842
1482.99240,0.10531
1484.92087,0.10517
1486.84934,0.11087
1488.77780,0.11664
1490.70627,0.11237
1492.63474,0.10673
1494.56321,0.10786
1496.49168,0.11334
1498.42015,0.11717
1500.34862,0.11699
1502.27709,0.11669
1504.20555,0.12207
1506.13402,0.13648
1508.06249,0.13384
1509.99096,0.11651
1511.91943,0.11186
1513.84790,0.11836
1515.77637,0.12568
1517.70483,0.12715
1519.63330,0.13323
1521.56177,0.14548
1523.49024,0.14330
1525.41871,0.13346
1527.34718,0.12927
1529.27565,0.12925
1531.20412,0.12964
1533.13258,0.12919
1535.06105,0.12651
1536.98952,0.12612
1538.91799,0.13406
1540.84646,0.14253
1542.77493,0.13564
1544.70340,0.12818
1546.63186,0.12343
1548.56033,0.12136
1550.48880,0.12310
1552.41727,0.12736
1554.34574,0.13399
1556.27421,0.14402
1558.20268,0.15161
1560.13115,0.13784
1562.05961,0.12701
1563.98808,0.12307
1565.91655,0.11819
1567.84502,0.11529
1569.77349,0.11538
1571.70196,0.11348
1573.63043,0.11348
1575.55889,0.11742
1577.48736,0.11814
1579.41583,0.11591
1581.34430,0.11547
1583.27277,0.11365
1585.20124,0.11001
1587.12971,0.10946
1589.05818,0.11023
1590.98664,0.10698
1592.91511,0.10324
1594.84358,0.10627
1596.77205,0.11489
1598.70052,0.12070
1600.62899,0.11887
1602.55746,0.11294
1604.48592,0.11002
1606.41439,0.11169
1608.34286,0.11383
1610.27133,0.11393
1612.19980,0.11371
1614.12827,0.11470
1616.05674,0.11791
1617.98521,0.11931
1619.91367,0.11627
1621.84214,0.11316
1623.77061,0.11199
1625.69908,0.11395
1627.62755,0.11598
1629.55602,0.11458
1631.48449,0.11299
1633.41295,0.11637
1635.34142,0.12706
1637.26989,0.12941
1639.19836,0.12060
1641.12683,0.11613
1643.05530,0.11869
1644.98377,0.12476
1646.91223,0.12884
1648.84070,0.12712
1650.76917,0.12454
1652.69764,0.12122
1654.62611,0.11719
1656.55458,0.11567
1658.48305,0.11699
1660.41152,0.12216
1662.33998,0.12637
1664.26845,0.12342
1666.19692,0.12112
1668.12539,0.12499
1670.05386,0.12939
1671.98233,0.12778
1673.91080,0.12496
1675.83926,0.12221
1677.76773,0.11990
1679.69620,0.12160
1681.62467,0.12493
1683.55314,0.12308
1685.48161,0.11969
1687.41008,0.12065
1689.33855,0.11993
1691.26701,0.11708
1693.19548,0.11743
1695.12395,0.12267
1697.05242,0.12938
1698.98089,0.13454
1700.90936,0.13476
1702.83783,0.13106
1704.76629,0.12615
1706.69476,0.11805
1708.62323,0.11094
1710.55170,0.10998
1712.48017,0.11478
1714.40864,0.12138
1716.33711,0.12543
1718.26558,0.12258
1720.19404,0.11783
1722.12251,0.11594
1724.05098,0.11672
1725.97945,0.11823
1727.90792,0.11779
1729.83639,0.11505
1731.76486,0.11138
1733.69332,0.11076
1735.62179,0.11662
1737.55026,0.12256
1739.47873,0.12412
1741.40720,0.12067
1743.33567,0.11739
1745.26414,0.11663
1747.19261,0.11585
1749.12107,0.11483
1751.04954,0.11575
1752.97801,0.11747
1754.90648,0.11870
1756.83495,0.11779
1758.76342,0.11379
1760.69189,0.11019
1762.62035,0.11036
1764.54882,0.11351
1766.47729,0.11614
1768.40576,0.11757
1770.33423,0.12101
1772.26270,0.12359
1774.19117,0.11735
1776.11964,0.11070
1778.04810,0.10985
1779.97657,0.11177
1781.90504,0.11311
1783.83351,0.11352
1785.76198,0.11153
1787.69045,0.10800
1789.61892,0.10735
1791.54738,0.11063
1793.47585,0.11343
1795.40432,0.11347
1797.33279,0.11359
1799.26126,0.11361
1801.18973,0.11073
1803.11820,0.10802
1805.04666,0.10982
1806.97513,0.11341
1808.90360,0.11590
1810.83207,0.11638
1812.76054,0.11381
1814.68901,0.11073
1816.61748,0.10972
1818.54595,0.11063
1820.47441,0.11260
1822.40288,0.11530
1824.33135,0.11699
1826.25982,0.11597
1828.18829,0.11608
1830.11676,0.11771
1832.04523,0.11492
1833.97369,0.11027
1835.90216,0.10973
1837.83063,0.11030
1839.75910,0.10824
1841.68757,0.10929
1843.61604,0.11368
1845.54451,0.11360
1847.47298,0.11151
1849.40144,0.11176
1851.32991,0.11236
1853.25838,0.11120
1855.18685,0.11016
1857.11532,0.11335
1859.04379,0.11765
1860.97226,0.11651
1862.90072,0.11436
1864.82919,0.11779
1866.75766,0.12304
1868.68613,0.12309
1870.61460,0.11810
1872.54307,0.11347
1874.47154,0.11137
1876.40001,0.11179
1878.32847,0.11193
1880.25694,0.11103
1882.18541,0.11238
1884.11388,0.11452
1886.04235,0.11473
1887.97082,0.11551
1889.89929,0.11631
1891.82775,0.11436
1893.75622,0.11237
1895.68469,0.11200
1897.61316,0.11171
1899.54163,0.11151
1901.47010,0.11112
1903.39857,0.10868
1905.32704,0.10603
1907.25550,0.10685
1909.18397,0.10874
1911.11244,0.10816
1913.04091,0.10810
1914.96938,0.11094
1916.89785,0.11436
1918.82632,0.11412
1920.75478,0.11011
1922.68325,0.10664
1924.61172,0.10607
1926.54019,0.10836
1928.46866,0.11115
1930.39713,0.11130
1932.32560,0.11003
1934.25407,0.11023
1936.18253,0.10967
1938.11100,0.10723
1940.03947,0.10787
1941.96794,0.11248
1943.89641,0.11648
1945.82488,0.11735
1947.75335,0.11452
1949.68181,0.11097
1951.61028,0.11147
1953.53875,0.11439
1955.46722,0.11464
1957.39569,0.11202
1959.32416,0.11117
1961.25263,0.11456
1963.18110,0.11715
1965.10956,0.11501
1967.03803,0.11159
1968.96650,0.10985
1970.89497,0.10968
1972.82344,0.10984
1974.75191,0.10973
1976.68038,0.11077
1978.60884,0.11282
1980.53731,0.11342
1982.46578,0.11074
1984.39425,0.10780
1986.32272,0.10815
1988.25119,0.10973
1990.17966,0.11019
1992.10812,0.10868
1994.03659,0.10712
1995.96506,0.10999
1997.89353,0.11472
1999.82200,0.11611
2001.75047,0.11499
2003.67894,0.11304
2005.60741,0.11148
2007.53587,0.11211
2009.46434,0.11380
2011.39281,0.11567
2013.32128,0.11779
2015.24975,0.11814
2017.17822,0.11590
2019.10669,0.11200
2021.03515,0.10885
2022.96362,0.10858
2024.89209,0.10993
2026.82056,0.11260
2028.74903,0.11488
2030.67750,0.11388
2032.60597,0.11229
2034.53444,0.11221
2036.46290,0.11261
2038.39137,0.11308
2040.31984,0.11232
2042.24831,0.11033
2044.17678,0.10895
2046.10525,0.10942
2048.03372,0.11213
2049.96218,0.11452
2051.89065,0.11420
2053.81912,0.11282
2055.74759,0.11278
2057.67606,0.11465
2059.60453,0.11665
2061.53300,0.11765
2063.46147,0.11808
2065.38993,0.11848
2067.31840,0.11969
2069.24687,0.12012
2071.17534,0.11912
2073.10381,0.11877
2075.03228,0.11840
2076.96075,0.11685
2078.88921,0.11590
2080.81768,0.11674
2082.74615,0.11722
2084.67462,0.11708
2086.60309,0.11780
2088.53156,0.11763
2090.46003,0.11666
2092.38850,0.11640
2094.31696,0.11633
2096.24543,0.11575
2098.17390,0.11341
2100.10237,0.11142
2102.03084,0.11383
2103.95931,0.11746
2105.88778,0.11709
2107.81624,0.11385
2109.74471,0.11033
2111.67318,0.10900
2113.60165,0.11097
2115.53012,0.11209
2117.45859,0.11059
2119.38706,0.10975
2121.31553,0.11016
2123.24399,0.10966
2125.17246,0.10862
2127.10093,0.10873
2129.02940,0.10915
2130.95787,0.10847
2132.88634,0.10804
2134.81481,0.11036
2136.74327,0.11431
2138.67174,0.11590
2140.60021,0.11368
2142.52868,0.11166
2144.45715,0.11374
2146.38562,0.11570
2148.31409,0.11365
2150.24255,0.11082
2152.17102,0.11047
2154.09949,0.11248
2156.02796,0.11366
2157.95643,0.11313
2159.88490,0.11409
2161.81337,0.11745
2163.74184,0.12152
2165.67030,0.12376
2167.59877,0.12283
2169.52724,0.12021
2171.45571,0.11787
2173.38418,0.11708
2175.31265,0.11732
2177.24112,0.11768
2179.16958,0.11710
2181.09805,0.11340
2183.02652,0.10828
2184.95499,0.10649
2186.88346,0.10865
2188.81193,0.11072
2190.74040,0.11033
2192.66887,0.11005
2194.59733,0.11155
2196.52580,0.11243
2198.45427,0.11147
2200.38274,0.11047
2202.31121,0.11069
2204.23968,0.11144
2206.16815,0.11092
2208.09661,0.10954
2210.02508,0.10975
2211.95355,0.11169
2213.88202,0.11492
2215.81049,0.11677
2217.73896,0.11460
2219.66743,0.11232
2221.59590,0.11255
2223.52436,0.11387
2225.45283,0.11587
2227.38130,0.11749
2229.30977,0.11739
2231.23824,0.11627
2233.16671,0.11577
2235.09518,0.11585
2237.02364,0.11528
2238.95211,0.11495
2240.88058,0.11472
2242.80905,0.11335
2244.73752,0.11312
2246.66599,0.11387
2248.59446,0.11176
2250.52293,0.10839
2252.45139,0.10781
2254.37986,0.11010
2256.30833,0.11404
2258.23680,0.11706
2260.16527,0.11685
2262.09374,0.11529
2264.02221,0.11484
2265.95067,0.11534
2267.87914,0.11513
2269.80761,0.11483
2271.73608,0.11558
2273.66455,0.11550
2275.59302,0.11364
2277.52149,0.11161
2279.44996,0.11205
2281.37842,0.11469
2283.30689,0.11570
2285.23536,0.11327
2287.16383,0.10990
2289.09230,0.10927
2291.02077,0.11154
2292.94924,0.11310
2294.87770,0.11114
2296.80617,0.10763
2298.73464,0.10615
2300.66311,0.10709
2302.59158,0.10860
2304.52005,0.11015
2306.44852,0.11295
2308.37699,0.11479
2310.30545,0.11233
2312.23392,0.11028
2314.16239,0.11274
2316.09086,0.11409
2318.01933,0.11221
2319.94780,0.11215
2321.87627,0.11477
2323.80473,0.11282
2325.73320,0.10278
2327.66167,0.09484
2329.59014,0.09705
2331.51861,0.10732
2333.44708,0.12099
2335.37555,0.12528
2337.30401,0.11407
2339.23248,0.10592
2341.16095,0.10991
2343.08942,0.11250
2345.01789,0.11016
2346.94636,0.10996
2348.87483,0.11353
2350.80330,0.11829
2352.73176,0.12465
2354.66023,0.13354
2356.58870,0.13334
2358.51717,0.12043
2360.44564,0.11672
2362.37411,0.12689
2364.30258,0.13361
2366.23104,0.13282
2368.15951,0.12334
2370.08798,0.10861
2372.01645,0.10172
2373.94492,0.10611
2375.87339,0.11498
2377.80186,0.11851
2379.73033,0.11498
2381.65879,0.11165
2383.58726,0.11134
2385.51573,0.11152
2387.44420,0.11285
2389.37267,0.11673
2391.30114,0.11990
2393.22961,0.11994
2395.15807,0.11792
2397.08654,0.11531
2399.01501,0.11413
2400.94348,0.11362
2402.87195,0.11187
2404.80042,0.11205
2406.72889,0.11538
2408.65736,0.11750
2410.58582,0.11742
2412.51429,0.11631
2414.44276,0.11504
2416.37123,0.11567
2418.29970,0.11710
2420.22817,0.11747
2422.15664,0.11798
2424.08510,0.11869
2426.01357,0.11764
2427.94204,0.11483
2429.87051,0.11337
2431.79898,0.11428
2433.72745,0.11539
2435.65592,0.11659
2437.58439,0.11747
2439.51285,0.11673
2441.44132,0.11609
2443.36979,0.11660
2445.29826,0.11648
2447.22673,0.11495
2449.15520,0.11435
2451.08367,0.11592
2453.01213,0.11688
2454.94060,0.11651
2456.86907,0.11708
2458.79754,0.11798
2460.72601,0.11654
2462.65448,0.11398
2464.58295,0.11483
2466.51142,0.11911
2468.43988,0.12124
2470.36835,0.11935
2472.29682,0.11758
2474.22529,0.11601
2476.15376,0.11231
2478.08223,0.11078
2480.01070,0.11315
2481.93916,0.11420
2483.86763,0.11275
2485.79610,0.11197
2487.72457,0.11299
2489.65304,0.11433
2491.58151,0.11513
2493.50998,0.11455
2495.43844,0.11269
2497.36691,0.11322
2499.29538,0.11551
2501.22385,0.11591
2503.15232,0.11549
2505.08079,0.11425
2507.00926,0.11251
2508.93773,0.11322
2510.86619,0.11498
2512.79466,0.11525
2514.72313,0.11595
2516.65160,0.11830
2518.58007,0.11904
2520.50854,0.11766
2522.43701,0.11682
2524.36547,0.11604
2526.29394,0.11675
2528.22241,0.12090
2530.15088,0.12442
2532.07935,0.12392
2534.00782,0.12154
2535.93629,0.11969
2537.86476,0.11788
2539.79322,0.11619
2541.72169,0.11580
2543.65016,0.11613
2545.57863,0.11610
2547.50710,0.11551
2549.43557,0.11540
2551.36404,0.11648
2553.29250,0.11839
2555.22097,0.12059
2557.14944,0.12203
2559.07791,0.12224
2561.00638,0.12149
2562.93485,0.11943
2564.86332,0.11708
2566.79179,0.11612
2568.72025,0.11629
2570.64872,0.11619
2572.57719,0.11598
2574.50566,0.11703
2576.43413,0.11708
2578.36260,0.11473
2580.29107,0.11351
2582.21953,0.11340
2584.14800,0.11313
2586.07647,0.11475
2588.00494,0.11790
2589.93341,0.11944
2591.86188,0.11812
2593.79035,0.11620
2595.71882,0.11494
2597.64728,0.11274
2599.57575,0.11012
2601.50422,0.11050
2603.43269,0.11420
2605.36116,0.11713
2607.28963,0.11734
2609.21810,0.11687
2611.14656,0.11765
2613.07503,0.11927
2615.00350,0.12075
2616.93197,0.12142
2618.86044,0.12147
2620.78891,0.12166
2622.71738,0.12044
2624.64585,0.11705
2626.57431,0.11367
2628.50278,0.11250
2630.43125,0.11419
2632.35972,0.11741
2634.28819,0.12050
2636.21666,0.12184
2638.14513,0.12205
2640.07359,0.12273
2642.00206,0.12185
2643.93053,0.11945
2645.85900,0.11961
2647.78747,0.12148
2649.71594,0.12062
2651.64441,0.11788
2653.57288,0.11789
2655.50134,0.12093
2657.42981,0.12283
2659.35828,0.12167
2661.28675,0.11873
2663.21522,0.11679
2665.14369,0.11853
2667.07216,0.12100
2669.00062,0.12038
2670.92909,0.11935
2672.85756,0.12075
2674.78603,0.12179
2676.71450,0.11924
2678.64297,0.11639
2680.57144,0.11741
2682.49990,0.11964
2684.42837,0.12102
2686.35684,0.12345
2688.28531,0.12550
2690.21378,0.12417
2692.14225,0.12102
2694.07072,0.11932
2695.99919,0.11959
2697.92765,0.12090
2699.85612,0.12201
2701.78459,0.12129
2703.71306,0.12134
2705.64153,0.12500
2707.57000,0.12765
2709.49847,0.12716
2711.42693,0.12672
2713.35540,0.12636
2715.28387,0.12644
2717.21234,0.12731
2719.14081,0.12667
2721.06928,0.12434
2722.99775,0.12266
2724.92622,0.12421
2726.85468,0.12714
2728.78315,0.12606
2730.71162,0.12295
2732.64009,0.12354
2734.56856,0.12601
2736.49703,0.12489
2738.42550,0.12061
2740.35396,0.11937
2742.28243,0.12240
2744.21090,0.12545
2746.13937,0.12614
2748.06784,0.12476
2749.99631,0.12449
2751.92478,0.12572
2753.85325,0.12550
2755.78171,0.12520
2757.71018,0.12686
2759.63865,0.12864
2761.56712,0.12816
2763.49559,0.12676
2765.42406,0.12685
2767.35253,0.12549
2769.28099,0.12082
2771.20946,0.11833
2773.13793,0.12027
2775.06640,0.12286
2776.99487,0.12566
2778.92334,0.12928
2780.85181,0.13095
2782.78028,0.12822
2784.70874,0.12298
2786.63721,0.12156
2788.56568,0.12523
2790.49415,0.12803
2792.42262,0.12827
2794.35109,0.12824
2796.27956,0.12852
2798.20802,0.12873
2800.13649,0.12703
2802.06496,0.12464
2803.99343,0.12537
2805.92190,0.12879
2807.85037,0.13092
2809.77884,0.12882
2811.70731,0.12557
2813.63577,0.12619
2815.56424,0.12825
2817.49271,0.12756
2819.42118,0.12844
2821.34965,0.13245
2823.27812,0.13195
2825.20659,0.12886
2827.13505,0.13059
2829.06352,0.13377
2830.99199,0.13248
2832.92046,0.12737
2834.84893,0.12219
2836.77740,0.11865
2838.70587,0.11869
2840.63433,0.12354
2842.56280,0.13015
2844.49127,0.13531
2846.41974,0.13686
2848.34821,0.13339
2850.27668,0.12777
2852.20515,0.12333
2854.13362,0.12063
2856.06208,0.12244
2857.99055,0.12779
2859.91902,0.13025
2861.84749,0.12873
2863.77596,0.12789
2865.70443,0.13096
2867.63290,0.13378
2869.56136,0.13203
2871.48983,0.12918
2873.41830,0.12758
2875.34677,0.12606
2877.27524,0.12560
2879.20371,0.12718
2881.13218,0.12971
2883.06065,0.12987
2884.98911,0.12550
2886.91758,0.12260
2888.84605,0.12608
2890.77452,0.13154
2892.70299,0.13302
2894.63146,0.13030
2896.55993,0.12880
2898.48839,0.12837
2900.41686,0.12682
2902.34533,0.12832
2904.27380,0.13215
2906.20227,0.13309
2908.13074,0.13143
2910.05921,0.12856
2911.98768,0.12478
2913.91614,0.12161
2915.84461,0.11860
2917.77308,0.11904
2919.70155,0.12372
2921.63002,0.12501
2923.55849,0.12297
2925.48696,0.12119
2927.41542,0.12059
2929.34389,0.12131
2931.27236,0.12161
2933.20083,0.12388
2935.12930,0.12638
2937.05777,0.12422
2938.98624,0.12200
2940.91471,0.12352
2942.84317,0.12611
2944.77164,0.12711
2946.70011,0.12516
2948.62858,0.12398
2950.55705,0.12596
2952.48552,0.12576
2954.41399,0.12198
2956.34245,0.11875
2958.27092,0.11781
2960.19939,0.11860
2962.12786,0.12145
2964.05633,0.12748
2965.98480,0.13302
2967.91327,0.13239
2969.84174,0.12653
2971.77020,0.12141
2973.69867,0.12181
2975.62714,0.12553
2977.55561,0.12690
2979.48408,0.12681
2981.41255,0.12626
2983.34102,0.12453
2985.26948,0.12481
2987.19795,0.12685
2989.12642,0.13020
2991.05489,0.13632
2992.98336,0.14114
2994.91183,0.14146
2996.84030,0.13795
2998.76877,0.13348
3000.69723,0.13357
3002.62570,0.13550
3004.55417,0.13256
3006.48264,0.12920
3008.41111,0.12886
3010.33958,0.12427
3012.26805,0.11219
3014.19651,0.09796
3016.12498,0.08913
3018.05345,0.09680
3019.98192,0.12010
3021.91039,0.13739
3023.83886,0.13954
3025.76733,0.13779
3027.69579,0.13710
3029.62426,0.13593
3031.55273,0.13565
3033.48120,0.13608
3035.40967,0.13500
3037.33814,0.13405
3039.26661,0.13440
3041.19508,0.13276
3043.12354,0.13136
3045.05201,0.13212
3046.98048,0.12997
3048.90895,0.12648
3050.83742,0.12575
3052.76589,0.12712
3054.69436,0.12869
3056.62282,0.12842
3058.55129,0.12987
3060.47976,0.13402
3062.40823,0.13467
3064.33670,0.13154
3066.26517,0.13056
3068.19364,0.13395
3070.12211,0.13606
3072.05057,0.13295
3073.97904,0.12771
3075.90751,0.12312
3077.83598,0.12217
3079.76445,0.12708
3081.69292,0.13359
3083.62139,0.13568
3085.54985,0.13408
3087.47832,0.13196
3089.40679,0.12994
3091.33526,0.12867
3093.26373,0.12568
3095.19220,0.12209
3097.12067,0.12439
3099.04914,0.12897
3100.97760,0.12631
3102.90607,0.11898
3104.83454,0.11934
3106.76301,0.12583
3108.69148,0.12815
3110.61995,0.12686
3112.54842,0.12595
3114.47688,0.12719
3116.40535,0.12894
3118.33382,0.12837
3120.26229,0.12755
3122.19076,0.12990
3124.11923,0.13505
3126.04770,0.13883
3127.97617,0.13940
3129.90463,0.13791
3131.83310,0.13689
3133.76157,0.13633
3135.69004,0.13300
3137.61851,0.13110
3139.54698,0.13492
3141.47545,0.13719
3143.40391,0.13270
3145.33238,0.12626
3147.26085,0.12299
3149.18932,0.12469
3151.11779,0.12915
3153.04626,0.13300
3154.97473,0.13632
3156.90320,0.13865
3158.83166,0.13836
3160.76013,0.13676
3162.68860,0.13543
3164.61707,0.13299
3166.54554,0.13205
3168.47401,0.13489
3170.40248,0.13601
3172.33094,0.13478
3174.25941,0.13448
3176.18788,0.13323
3178.11635,0.12936
3180.04482,0.12617
3181.97329,0.12864
3183.90176,0.13437
3185.83022,0.13585
3187.75869,0.13410
3189.68716,0.13375
3191.61563,0.13248
3193.54410,0.13180
3195.47257,0.13726
3197.40104,0.14336
3199.32951,0.14192
3201.25797,0.13787
3203.18644,0.13840
3205.11491,0.14020
3207.04338,0.13770
3208.97185,0.13307
3210.90032,0.13244
3212.82879,0.13707
3214.75725,0.14138
3216.68572,0.13933
3218.61419,0.13179
3220.54266,0.12542
3222.47113,0.12471
3224.39960,0.12662
3226.32807,0.12797
3228.25654,0.13144
3230.18500,0.13666
3232.11347,0.13899
3234.04194,0.13641
3235.97041,0.13099
3237.89888,0.12849
3239.82735,0.13037
3241.75582,0.13379
3243.68428,0.13983
3245.61275,0.14586
3247.54122,0.14633
3249.46969,0.14167
3251.39816,0.13436
3253.32663,0.13116
3255.25510,0.13412
3257.18357,0.13586
3259.11203,0.13473
3261.04050,0.13321
3262.96897,0.13134
3264.89744,0.13073
3266.82591,0.13465
3268.75438,0.13762
3270.68285,0.13417
3272.61131,0.13195
3274.53978,0.13270
3276.46825,0.13154
3278.39672,0.12991
3280.32519,0.12941
3282.25366,0.12975
3284.18213,0.12942
3286.11060,0.12953
3288.03906,0.13111
3289.96753,0.13115
3291.89600,0.13053
3293.82447,0.13055
3295.75294,0.12972
3297.68141,0.12864
3299.60988,0.12873
3301.53834,0.12895
3303.46681,0.12854
3305.39528,0.13265
3307.32375,0.13792
3309.25222,0.13366
3311.18069,0.12602
3313.10916,0.12607
3315.03763,0.12987
3316.96609,0.13264
3318.89456,0.13706
3320.82303,0.14021
3322.75150,0.14029
3324.67997,0.14271
3326.60844,0.14412
3328.53691,0.14019
3330.46537,0.13616
3332.39384,0.13487
3334.32231,0.13289
3336.25078,0.13127
3338.17925,0.13510
3340.10772,0.14005
3342.03619,0.13817
3343.96466,0.13440
3345.89312,0.13869
3347.82159,0.14560
3349.75006,0.14354
3351.67853,0.13673
3353.60700,0.13516
3355.53547,0.13563
3357.46394,0.13241
3359.39240,0.13079
3361.32087,0.13388
3363.24934,0.13653
3365.17781,0.13756
3367.10628,0.13779
3369.03475,0.13597
3370.96322,0.13366
3372.89168,0.13127
3374.82015,0.12951
3376.74862,0.13114
3378.67709,0.13313
3380.60556,0.13046
3382.53403,0.12539
3384.46250,0.12744
3386.39097,0.13846
3388.31943,0.14620
3390.24790,0.14414
3392.17637,0.13967
3394.10484,0.14101
3396.03331,0.14418
3397.96178,0.14145
3399.89025,0.13656
3401.81871,0.13349
3403.74718,0.12860
3405.67565,0.12396
3407.60412,0.12595
3409.53259,0.13020
3411.46106,0.13024
3413.38953,0.12986
3415.31800,0.12947
3417.24646,0.12750
3419.17493,0.12980
3421.10340,0.13602
3423.03187,0.13709
3424.96034,0.13352
3426.88881,0.13413
3428.81728,0.13855
3430.74574,0.14002
3432.67421,0.13622
3434.60268,0.13090
3436.53115,0.13081
3438.45962,0.13339
3440.38809,0.13235
3442.31656,0.13198
3444.24503,0.13432
3446.17349,0.13441
3448.10196,0.13309
3450.03043,0.13279
3451.95890,0.13157
3453.88737,0.12951
3455.81584,0.12854
3457.74431,0.12780
3459.67277,0.12657
3461.60124,0.12468
3463.52971,0.11986
3465.45818,0.11541
3467.38665,0.11786
3469.31512,0.12528
3471.24359,0.12952
3473.17206,0.12670
3475.10052,0.12287
3477.02899,0.12258
3478.95746,0.12091
3480.88593,0.11660
3482.81440,0.11600
3484.74287,0.12066
3486.67134,0.12389
3488.59980,0.12041
3490.52827,0.11394
3492.45674,0.10958
3494.38521,0.10616
3496.31368,0.10456
3498.24215,0.10667
3500.17062,0.11081
3502.09909,0.11499
3504.02755,0.11744
3505.95602,0.11861
3507.88449,0.11781
3509.81296,0.11675
3511.74143,0.11828
3513.66990,0.11646
3515.59837,0.11090
3517.52683,0.10948
3519.45530,0.11386
3521.38377,0.11871
3523.31224,0.11833
3525.24071,0.11270
3527.16918,0.10816
3529.09765,0.10721
3531.02611,0.10712
3532.95458,0.10895
3534.88305,0.11132
3536.81152,0.10865
3538.73999,0.10527
3540.66846,0.10933
3542.59693,0.11658
3544.52540,0.11693
3546.45386,0.11105
3548.38233,0.10740
3550.31080,0.10488
3552.23927,0.09922
3554.16774,0.09518
3556.09621,0.09842
3558.02468,0.10386
3559.95314,0.10685
3561.88161,0.11058
3563.81008,0.11516
3565.73855,0.11670
3567.66702,0.11228
3569.59549,0.10388
3571.52396,0.09734
3573.45243,0.09410
3575.38089,0.09317
3577.30936,0.09588
3579.23783,0.10003
3581.16630,0.09774
3583.09477,0.09271
3585.02324,0.09729
3586.95171,0.11241
3588.88017,0.12167
3590.80864,0.11760
3592.73711,0.11044
3594.66558,0.11083
3596.59405,0.11519
3598.52252,0.10965
3600.45099,0.09865
3602.37946,0.09319
3604.30792,0.09329
3606.23639,0.09504
3608.16486,0.09468
3610.09333,0.09596
3612.02180,0.10298
3613.95027,0.10688
3615.87874,0.10377
3617.80720,0.09765
3619.73567,0.08725
3621.66414,0.08197
3623.59261,0.08762
3625.52108,0.09518
3627.44955,0.10078
3629.37802,0.10688
3631.30649,0.10714
3633.23495,0.10196
3635.16342,0.09581
3637.09189,0.09140
3639.02036,0.08950
3640.94883,0.08723
3642.87730,0.08509
3644.80577,0.08730
3646.73423,0.09417
3648.66270,0.10092
3650.59117,0.09829
3652.51964,0.09216
3654.44811,0.08951
3656.37658,0.08856
3658.30505,0.08682
3660.23352,0.08605
3662.16198,0.08760
3664.09045,0.08943
3666.01892,0.09092
3667.94739,0.09370
3669.87586,0.09569
3671.80433,0.09426
3673.73280,0.09571
3675.66126,0.09911
3677.58973,0.09434
3679.51820,0.08848
3681.44667,0.08750
3683.37514,0.08718
3685.30361,0.08461
3687.23208,0.08366
3689.16055,0.08752
3691.08901,0.08962
3693.01748,0.08718
3694.94595,0.08612
3696.87442,0.08665
3698.80289,0.08578
3700.73136,0.08422
3702.65983,0.08199
3704.58829,0.07933
3706.51676,0.07892
3708.44523,0.07965
3710.37370,0.07881
3712.30217,0.08000
3714.23064,0.08527
3716.15911,0.08925
3718.08757,0.08991
3720.01604,0.08784
3721.94451,0.08651
3723.87298,0.08803
3725.80145,0.08826
3727.72992,0.08537
3729.65839,0.08467
3731.58686,0.08973
3733.51532,0.09618
3735.44379,0.09500
3737.37226,0.08737
3739.30073,0.08175
3741.22920,0.08154
3743.15767,0.08645
3745.08614,0.09569
3747.01460,0.10432
3748.94307,0.10847
3750.87154,0.10421
3752.80001,0.09584
3754.72848,0.09399
3756.65695,0.09504
3758.58542,0.09317
3760.51389,0.08969
3762.44235,0.08679
3764.37082,0.08245
3766.29929,0.07878
3768.22776,0.07933
3770.15623,0.08381
3772.08470,0.08870
3774.01317,0.09199
3775.94163,0.09403
3777.87010,0.09400
3779.79857,0.09197
3781.72704,0.09028
3783.65551,0.08999
3785.58398,0.08937
3787.51245,0.08573
3789.44092,0.07839
3791.36938,0.07183
3793.29785,0.07178
3795.22632,0.07957
3797.15479,0.09243
3799.08326,0.09991
3801.01173,0.09270
3802.94020,0.08005
3804.86866,0.07788
3806.79713,0.07778
3808.72560,0.07524
3810.65407,0.07566
3812.58254,0.07641
3814.51101,0.07395
3816.43948,0.07111
3818.36795,0.07140
3820.29641,0.07481
3822.22488,0.07873
3824.15335,0.08185
3826.08182,0.08628
3828.01029,0.08631
3829.93876,0.08094
3831.86723,0.07717
3833.79569,0.07702
3835.72416,0.07969
3837.65263,0.08304
3839.58110,0.08435
3841.50957,0.08532
3843.43804,0.08575
3845.36651,0.08670
3847.29498,0.08752
3849.22344,0.08630
3851.15191,0.08761
3853.08038,0.09273
3855.00885,0.08682
3856.93732,0.07945
3858.86579,0.07719
3860.79426,0.07581
3862.72272,0.07405
3864.65119,0.07236
3866.57966,0.07355
3868.50813,0.07929
3870.43660,0.08415
3872.36507,0.08518
3874.29354,0.08517
3876.22200,0.08507
3878.15047,0.08743
3880.07894,0.08759
3882.00741,0.08115
3883.93588,0.07768
3885.86435,0.07872
3887.79282,0.07735
3889.72129,0.07572
3891.64975,0.07696
3893.57822,0.07704
3895.50669,0.07722
3897.43516,0.07922
3899.36363,0.08067
3901.29210,0.08228
3903.22057,0.08053
3905.14903,0.07212
3907.07750,0.06690
3909.00597,0.06785
3910.93444,0.06964
3912.86291,0.07148
3914.79138,0.07598
3916.71985,0.07935
3918.64832,0.07923
3920.57678,0.08078
3922.50525,0.08073
3924.43372,0.07528
3926.36219,0.07184
3928.29066,0.07392
3930.21913,0.07572
3932.14760,0.07693
3934.07606,0.08048
3936.00453,0.08016
3937.93300,0.07420
3939.86147,0.06918
3941.78994,0.06834
3943.71841,0.07059
3945.64688,0.07371
3947.57535,0.07509
3949.50381,0.07387
3951.43228,0.07226
3953.36075,0.07121
3955.28922,0.07146
3957.21769,0.07154
3959.14616,0.06712
3961.07463,0.06286
3963.00309,0.06602
3964.93156,0.07105
3966.86003,0.07028
3968.78850,0.06494
3970.71697,0.05859
3972.64544,0.05550
3974.57391,0.05653
3976.50238,0.05797
3978.43084,0.06008
3980.35931,0.06463
3982.28778,0.06993
3984.21625,0.07169
3986.14472,0.06981
3988.07319,0.06842
3990.00166,0.06869
3991.93012,0.06884
3993.85859,0.06663
3995.78706,0.06357
3997.71553,0.06212
3999.64400,0.06166
4001.57247,0.06056
4003.50094,0.05984
4005.42941,0.06317
4007.35787,0.06881
4009.28634,0.07207
4011.21481,0.07269
4013.14328,0.07263
4015.07175,0.07235
4017.00022,0.07023
4018.92869,0.06618
4020.85715,0.06188
4022.78562,0.06005
4024.71409,0.06254
4026.64256,0.06380
4028.57103,0.06099
4030.49950,0.06203
4032.42797,0.06732
4034.35644,0.07061
4036.28490,0.07199
4038.21337,0.07113
4040.14184,0.06873
4042.07031,0.06642
4043.99878,0.06371
4045.92725,0.06333
4047.85572,0.06344
4049.78418,0.05979
4051.71265,0.05650
4053.64112,0.05844
4055.56959,0.06283
4057.49806,0.06410
4059.42653,0.06481
4061.35500,0.06903
4063.28346,0.06866
4065.21193,0.05961
4067.14040,0.05298
4069.06887,0.05525
4070.99734,0.06145
4072.92581,0.06627
4074.85428,0.06962
4076.78275,0.07293
4078.71121,0.07325
4080.63968,0.06794
4082.56815,0.05934
4084.49662,0.05335
4086.42509,0.05295
4088.35356,0.05518
4090.28203,0.05918
4092.21049,0.06454
4094.13896,0.06583
4096.06743,0.06102
4097.99590,0.05726
4099.92437,0.05749
4101.85284,0.05688
4103.78131,0.05552
4105.70978,0.05546
4107.63824,0.05422
4109.56671,0.05162
4111.49518,0.05190
4113.42365,0.05358
4115.35212,0.05200
4117.28059,0.05024
4119.20906,0.04980
4121.13752,0.04736
4123.06599,0.04665
4124.99446,0.05245
4126.92293,0.05960
4128.85140,0.06079
4130.77987,0.05668
4132.70834,0.05323
4134.63681,0.05078
4136.56527,0.04646
4138.49374,0.04513
4140.42221,0.04881
4142.35068,0.05245
4144.27915,0.05610
4146.20762,0.05922
4148.13609,0.05632
4150.06455,0.05192
4151.99302,0.05406
4153.92149,0.05790
4155.84996,0.05834
4157.77843,0.05571
4159.70690,0.05007
4161.63537,0.04510
4163.56384,0.04421
4165.49230,0.04613
4167.42077,0.04871
4169.34924,0.05283
4171.27771,0.05834
4173.20618,0.06068
4175.13465,0.05691
4177.06312,0.05188
4178.99158,0.05090
4180.92005,0.05112
4182.84852,0.04953
4184.77699,0.04481
4186.70546,0.03674
4188.63393,0.03409
4190.56240,0.04296
4192.49087,0.05412
4194.41933,0.05975
4196.34780,0.06249
4198.27627,0.06128
4200.20474,0.05534
4202.13321,0.05228
4204.06168,0.05355
4205.99015,0.05558
4207.91861,0.05460
4209.84708,0.04660
4211.77555,0.04225
4213.70402,0.04795
4215.63249,0.04984
4217.56096,0.04653
4219.48943,0.04763
4221.41789,0.04956
4223.34636,0.04828
4225.27483,0.04860
4227.20330,0.05209
4229.13177,0.05312
4231.06024,0.04702
4232.98871,0.03997
4234.91718,0.04208
4236.84564,0.04948
4238.77411,0.05227
4240.70258,0.04944
4242.63105,0.04629
4244.55952,0.04812
4246.48799,0.05117
4248.41646,0.04728
4250.34492,0.04068
4252.27339,0.04025
4254.20186,0.04320
4256.13033,0.04317
4258.05880,0.04092
4259.98727,0.03843
4261.91574,0.03524
4263.84421,0.03425
4265.77267,0.04009
4267.70114,0.04816
4269.62961,0.04990
4271.55808,0.04783
4273.48655,0.04736
4275.41502,0.04584
4277.34349,0.04276
4279.27195,0.04113
4281.20042,0.03802
4283.12889,0.03361
4285.05736,0.03327
4286.98583,0.03376
4288.91430,0.03025
4290.84277,0.02824
4292.77124,0.03151
4294.69970,0.03512
4296.62817,0.03722
4298.55664,0.03776
4300.48511,0.03375
4302.41358,0.02834
4304.34205,0.02852
4306.27052,0.03437
4308.19898,0.03941
4310.12745,0.03752
4312.05592,0.02861
4313.98439,0.02139
4315.91286,0.02394
4317.84133,0.03038
4319.76980,0.03067
4321.69827,0.02646
4323.62673,0.02461
4325.55520,0.02584
4327.48367,0.02812
4329.41214,0.03139
4331.34061,0.03357
4333.26908,0.03303
4335.19755,0.03295
4337.12601,0.03580
4339.05448,0.03714
4340.98295,0.03223
4342.91142,0.02729
4344.83989,0.02967
4346.76836,0.03244
4348.69683,0.02761
4350.62530,0.02193
4352.55376,0.02347
4354.48223,0.02669
4356.41070,0.02688
4358.33917,0.02833
4360.26764,0.02917
4362.19611,0.02719
4364.12458,0.02871
4366.05304,0.03384
4367.98151,0.03422
4369.90998,0.02954
4371.83845,0.02740
4373.76692,0.02902
4375.69539,0.03002
4377.62386,0.02954
4379.55232,0.02835
4381.48079,0.02257
4383.40926,0.01507
4385.33773,0.01541
4387.26620,0.01800
4389.19467,0.01577
4391.12314,0.01432
4393.05161,0.01680
4394.98007,0.02140
4396.90854,0.02554
4398.83701,0.02617
4400.76548,0.02091
4402.69395,0.01379
4404.62242,0.01025
4406.55089,0.01309
4408.47935,0.02529
4410.40782,0.03672
4412.33629,0.03324
4414.26476,0.02139
4416.19323,0.01773
4418.12170,0.02371
4420.05017,0.02804
4421.97864,0.02940
4423.90710,0.03365
4425.83557,0.03770
4427.76404,0.03610
4429.69251,0.03318
4431.62098,0.03373
4433.54945,0.03244
4435.47792,0.02451
4437.40638,0.01389
4439.33485,0.00874
4441.26332,0.01324
4443.19179,0.02201
4445.12026,0.02643
4447.04873,0.02351
4448.97720,0.01457
4450.90567,0.00682
4452.83413,0.00913
4454.76260,0.01824
4456.69107,0.02304
4458.61954,0.01770
4460.54801,0.01068
4462.47648,0.01115
4464.40495,0.01648
4466.33341,0.02237
4468.26188,0.02297
4470.19035,0.01747
4472.11882,0.01571
4474.04729,0.02060
4475.97576,0.02179
4477.90423,0.01630
4479.83270,0.01417
4481.76116,0.01601
4483.68963,0.01597
4485.61810,0.01217
4487.54657,0.00433
4489.47504,-0.00242
4491.40351,-0.00315
4493.33198,0.00327
4495.26044,0.01370
4497.18891,0.01733
4499.11738,0.01273
4501.04585,0.00814
4502.97432,0.00478
4504.90279,0.00557
4506.83126,0.01222
4508.75973,0.01678
4510.68819,0.01353
4512.61666,0.01307
4514.54513,0.01973
4516.47360,0.01993
4518.40207,0.01661
4520.33054,0.01549
4522.25901,0.01595
4524.18747,0.02244
4526.11594,0.02308
4528.04441,0.01048
4529.97288,-0.00176
4531.90135,-0.00477
4533.82982,-0.00278
4535.75829,-0.00353
4537.68676,-0.00448
4539.61522,0.00021
4541.54369,0.00484
4543.47216,0.00749
4545.40063,0.00669
4547.32910,-0.00148
4549.25757,-0.00353
4551.18604,0.00556
4553.11450,0.01218
4555.04297,0.00816
4556.97144,-0.00149
4558.89991,-0.00208
4560.82838,0.00991
4562.75685,0.02213
4564.68532,0.02148
4566.61378,0.01124
4568.54225,0.00754
4570.47072,0.01410
4572.39919,0.01938
4574.32766,0.01807
4576.25613,0.01712
4578.18460,0.01595
4580.11307,0.00907
4582.04153,0.00124
4583.97000,-0.00045
4585.89847,0.00312
4587.82694,0.00418
4589.75541,0.00350
4591.68388,0.00746
4593.61235,0.01027
4595.54081,0.00803
4597.46928,0.00457
4599.39775,-0.00404
4601.32622,-0.01551
4603.25469,-0.01285
4605.18316,0.00378
4607.11163,0.01063
4609.04010,0.00195
4610.96856,-0.00710
4612.89703,-0.00755
4614.82550,-0.00204
4616.75397,0.00013
4618.68244,-0.00047
4620.61091,0.00475
4622.53938,0.01350
4624.46784,0.01647
4626.39631,0.01021
4628.32478,0.00489
4630.25325,0.00887
4632.18172,0.01418
4634.11019,0.01324
4636.03866,0.00993
4637.96713,0.00623
4639.89559,0.00221
4641.82406,-0.00087
4643.75253,-0.00214
4645.68100,-0.00040
4647.60947,-0.00247
4649.53794,-0.00990
4651.46641,-0.00973
4653.39487,-0.00049
4655.32334,0.00827
4657.25181,0.01317
4659.18028,0.01081
4661.10875,0.00219
4663.03722,-0.00263
4664.96569,-0.00409
4666.89416,-0.01066
4668.82262,-0.01706
4670.75109,-0.01017
4672.67956,0.00559
4674.60803,0.01530
4676.53650,0.01543
4678.46497,0.00822
4680.39344,0.00071
4682.32190,0.00071
4684.25037,-0.00039
4686.17884,-0.00576
4688.10731,-0.00090
4690.03578,0.01077
4691.96425,0.01519
4693.89272,0.01132
4695.82119,-0.00109
4697.74965,-0.01394
4699.67812,-0.01451
4701.60659,-0.00400
4703.53506,0.00704
4705.46353,0.01291
4707.39200,0.01407
4709.32047,0.01297
4711.24893,0.01043
4713.17740,0.00640
4715.10587,0.00624
4717.03434,0.01238
4718.96281,0.01915
4720.89128,0.02034
4722.81975,0.01453
4724.74821,0.00476
4726.67668,-0.00214
4728.60515,0.00441
4730.53362,0.01765
4732.46209,0.02238
4734.39056,0.01304
4736.31903,-0.00567
4738.24750,-0.01568
4740.17596,-0.00781
4742.10443,0.00317
4744.03290,0.00879
4745.96137,0.01414
4747.88984,0.01394
4749.81831,0.00422
4751.74678,-0.00463
4753.67524,-0.00659
4755.60371,-0.00208
4757.53218,0.00526
4759.46065,0.00932
4761.38912,0.00884
4763.31759,0.00614
4765.24606,0.00125
4767.17453,-0.00328
4769.10299,0.00060
4771.03146,0.00846
4772.95993,0.00657
4774.88840,0.00155
4776.81687,0.00686
4778.74534,0.01898
4780.67381,0.02443
4782.60227,0.01680
4784.53074,0.00833
4786.45921,0.00780
4788.38768,0.00995
4790.31615,0.00828
4792.24462,-0.00063
4794.17309,-0.00363
4796.10156,0.00772
4798.03002,0.01541
4799.95849,0.00816
4801.88696,-0.00125
4803.81543,0.00204
4805.74390,0.01014
4807.67237,0.00763
4809.60084,-0.00108
4811.52930,-0.00622
4813.45777,-0.00144
4815.38624,0.01486
4817.31471,0.03157
4819.24318,0.03970
4821.17165,0.03325
4823.10012,0.01416
4825.02859,0.00044
4826.95705,-0.00030
4828.88552,0.00306
4830.81399,0.00594
4832.74246,0.00765
4834.67093,0.00968
4836.59940,0.01513
4838.52787,0.01602
4840.45633,0.00929
4842.38480,0.01175
4844.31327,0.02333
4846.24174,0.02948
4848.17021,0.03233
4850.09868,0.03122
4852.02715,0.02270
4853.95562,0.01617
4855.88408,0.01672
4857.81255,0.01703
4859.74102,0.01147
4861.66949,0.00529
4863.59796,-0.00004
4865.52643,-0.00507
4867.45490,-0.00021
4869.38336,0.00837
4871.31183,0.00498
4873.24030,0.00055
4875.16877,0.00797
4877.09724,0.01785
4879.02571,0.02589
4880.95418,0.03010
4882.88265,0.01768
4884.81111,-0.00260
4886.73958,-0.00481
4888.66805,0.00398
4890.59652,0.00148
4892.52499,-0.00758
4894.45346,-0.00639
4896.38193,0.00697
4898.31039,0.01637
4900.23886,0.01148
4902.16733,0.00193
4904.09580,-0.00168
4906.02427,0.00441
4907.95274,0.01463
4909.88121,0.01517
4911.80967,0.00942
4913.73814,0.01263
4915.66661,0.01996
4917.59508,0.02390
4919.52355,0.02067
4921.45202,0.00629
4923.38049,-0.00106
4925.30896,0.00597
4927.23742,0.00480
4929.16589,-0.00662
4931.09436,-0.01400
4933.02283,-0.01549
4934.95130,-0.01042
4936.87977,-0.00351
4938.80824,-0.00206
4940.73670,0.00407
4942.66517,0.01836
4944.59364,0.02173
4946.52211,0.01441
4948.45058,0.01925
4950.37905,0.03026
4952.30752,0.02736
4954.23599,0.01972
4956.16445,0.02081
4958.09292,0.02261
4960.02139,0.02030
4961.94986,0.01835
4963.87833,0.01405
4965.80680,0.00586
4967.73527,-0.00000
4969.66373,0.00393
4971.59220,0.01614
4973.52067,0.02600
4975.44914,0.02464
4977.37761,0.00940
4979.30608,0.00071
4981.23455,0.01475
4983.16302,0.03000
4985.09148,0.02707
4987.01995,0.01428
4988.94842,0.00851
4990.87689,0.01040
4992.80536,0.01402
4994.73383,0.01722
4996.66230,0.00840
4998.59076,-0.00499
5000.51923,0.00258
5002.44770,0.01853
5004.37617,0.01277
5006.30464,-0.00056
5008.23311,-0.00353
5010.16158,-0.00769
5012.09005,-0.01040
5014.01851,-0.00247
5015.94698,0.00831
5017.87545,0.01304
5019.80392,0.00687
5021.73239,-0.00258
5023.66086,0.00264
5025.58933,0.01318
5027.51779,0.00903
5029.44626,0.00322
5031.37473,0.00402
5033.30320,0.00333
5035.23167,0.00618
5037.16014,0.01259
5039.08861,0.01645
5041.01708,0.02340
5042.94554,0.03044
5044.87401,0.02327
5046.80248,0.01165
5048.73095,0.00956
5050.65942,0.00804
5052.58789,0.00726
5054.51636,0.00688
5056.44482,0.00548
5058.37329,0.01466
5060.30176,0.02553
5062.23023,0.02420
5064.15870,0.01915
5066.08717,0.01961
5068.01564,0.02081
5069.94410,0.01770
5071.87257,0.02227
5073.80104,0.03421
5075.72951,0.03955
5077.65798,0.04277
5079.58645,0.04121
5081.51492,0.02325
5083.44339,0.00442
5085.37185,0.01206
5087.30032,0.03760
5089.22879,0.04326
5091.15726,0.02840
5093.08573,0.01642
5095.01420,0.00754
5096.94267,0.00629
5098.87113,0.02202
5100.79960,0.03263
5102.72807,0.01344
5104.65654,-0.01259
5106.58501,-0.01101
5108.51348,0.00718
5110.44195,0.01766
5112.37042,0.01458
5114.29888,0.00688
5116.22735,0.01000
5118.15582,0.01293
5120.08429,0.01252
5122.01276,0.03323
5123.94123,0.05830
5125.86970,0.05538
5127.79816,0.03685
5129.72663,0.02332
5131.65510,0.01452
5133.58357,0.00706
5135.51204,-0.00074
5137.44051,-0.00615
5139.36898,-0.00462
5141.29745,-0.00167
5143.22591,0.00337
5145.15438,0.01458
5147.08285,0.01707
5149.01132,0.01597
5150.93979,0.03118
5152.86826,0.04344
5154.79673,0.03351
5156.72519,0.02208
5158.65366,0.02837
5160.58213,0.03322
5162.51060,0.02134
5164.43907,0.01965
5166.36754,0.03821
5168.29601,0.04423
5170.22448,0.03280
5172.15294,0.02142
5174.08141,0.00216
5176.00988,-0.01415
5177.93835,-0.00358
5179.86682,0.01885
5181.79529,0.02861
5183.72376,0.02670
5185.65222,0.03373
5187.58069,0.04581
5189.50916,0.03304
5191.43763,-0.00332
5193.36610,-0.02525
5195.29457,-0.01338
5197.22304,0.00104
5199.15151,-0.00376
5201.07997,-0.00722
5203.00844,0.00562
5204.93691,0.03036
5206.86538,0.05129
5208.79385,0.05315
5210.72232,0.04023
5212.65079,0.02679
5214.57925,0.02068
5216.50772,0.02129
5218.43619,0.01897
5220.36466,0.00408
5222.29313,-0.01034
5224.22160,-0.00796
5226.15007,0.00962
5228.07854,0.03001
5230.00700,0.03566
5231.93547,0.01594
5233.86394,-0.00022
5235.79241,0.01668
5237.72088,0.03664
5239.64935,0.03235
5241.57782,0.02994
5243.50628,0.04401
5245.43475,0.04498
5247.36322,0.02306
5249.29169,0.01216
5251.22016,0.03232
5253.14863,0.05837
5255.07710,0.05932
5257.00556,0.04525
5258.93403,0.03868
5260.86250,0.03135
5262.79097,0.02427
5264.71944,0.01857
5266.64791,0.00070
5268.57638,-0.00738
5270.50485,0.00930
5272.43331,0.02207
5274.36178,0.01805
5276.29025,0.02202
5278.21872,0.04519
5280.14719,0.06677
5282.07566,0.07261
5284.00413,0.06427
5285.93259,0.04098
5287.86106,0.01111
5289.78953,-0.00103
5291.71800,0.00676
5293.64647,0.00809
5295.57494,0.00186
5297.50341,0.00568
5299.43188,0.02791
5301.36034,0.05042
5303.28881,0.04690
5305.21728,0.02292
5307.14575,0.00380
5309.07422,0.01004
5311.00269,0.03829
5312.93116,0.06135
5314.85962,0.06147
5316.78809,0.04609
5318.71656,0.03539
5320.64503,0.04294
5322.57350,0.05195
5324.50197,0.03575
5326.43044,0.01233
5328.35891,0.01345
5330.28737,0.02227
5332.21584,0.02446
5334.14431,0.03123
5336.07278,0.04284
5338.00125,0.05362
5339.92972,0.05409
5341.85819,0.04307
5343.78665,0.02712
5345.71512,0.02031
5347.64359,0.02758
5349.57206,0.02525
5351.50053,0.00955
5353.42900,-0.00094
5355.35747,0.00321
5357.28594,0.01337
5359.21440,0.01872
5361.14287,0.01754
5363.07134,0.02003
5364.99981,0.03865
5366.92828,0.05842
5368.85675,0.05104
5370.78522,0.02141
5372.71368,0.00204
5374.64215,0.00421
5376.57062,0.01412
5378.49909,0.01841
5380.42756,0.02079
5382.35603,0.03650
5384.28450,0.05349
5386.21297,0.04237
5388.14143,0.01484
5390.06990,0.01185
5391.99837,0.04788
5393.92684,0.08697
5395.85531,0.09340
5397.78378,0.07709
5399.71225,0.05224
5401.64071,0.04213
5403.56918,0.05777
5405.49765,0.06536
5407.42612,0.04423
5409.35459,0.03266
5411.28306,0.05255
5413.21153,0.05690
5415.13999,0.03121
5417.06846,0.02386
5418.99693,0.04279
5420.92540,0.05212
5422.85387,0.03798
5424.78234,0.02624
5426.71081,0.03135
5428.63928,0.03990
5430.56774,0.03542
5432.49621,0.03324
5434.42468,0.04053
5436.35315,0.03741
5438.28162,0.03512
5440.21009,0.03799
5442.13856,0.02567
5444.06702,0.01489
5445.99549,0.03220
5447.92396,0.06037
5449.85243,0.07189
5451.78090,0.06348
5453.70937,0.04497
5455.63784,0.04015
5457.56631,0.05791
5459.49477,0.06851
5461.42324,0.05896
5463.35171,0.04346
5465.28018,0.03420
5467.20865,0.03436
5469.13712,0.03731
5471.06559,0.02972
5472.99405,0.00919
5474.92252,-0.00760
5476.85099,0.00138
5478.77946,0.01730
5480.70793,0.02391
5482.63640,0.04005
5484.56487,0.05552
5486.49334,0.05873
5488.42180,0.05883
5490.35027,0.03968
5492.27874,0.00898
5494.20721,-0.00074
5496.13568,0.01211
5498.06415,0.03427
5499.99262,0.04373
5501.92108,0.03025
5503.84955,0.02077
5505.77802,0.03876
5507.70649,0.06857
5509.63496,0.07960
5511.56343,0.07330
5513.49190,0.06892
5515.42037,0.06617
5517.34883,0.06378
5519.27730,0.07041
5521.20577,0.08191
5523.13424,0.08807
5525.06271,0.07273
5526.99118,0.03953
5528.91965,0.01929
5530.84811,0.02249
5532.77658,0.03583
5534.70505,0.05473
5536.63352,0.06851
5538.56199,0.05807
5540.49046,0.03889
5542.41893,0.04061
5544.34740,0.06321
5546.27586,0.08796
5548.20433,0.09753
5550.13280,0.08672
5552.06127,0.05924
5553.98974,0.03136
5555.91821,0.03722
5557.84668,0.06219
5559.77514,0.04223
5561.70361,-0.00520
5563.63208,-0.02545
5565.56055,-0.02427
5567.48902,-0.01005
5569.41749,0.02194
5571.34596,0.05564
5573.27443,0.06950
5575.20289,0.06888
5577.13136,0.07337
5579.05983,0.08304
5580.98830,0.08149
5582.91677,0.06349
5584.84524,0.04797
5586.77371,0.05045
5588.70217,0.06891
5590.63064,0.07622
5592.55911,0.06420
5594.48758,0.04741
5596.41605,0.02796
5598.34452,0.02126
5600.27299,0.03392
5602.20145,0.05006
5604.12992,0.06730
5606.05839,0.07339
5607.98686,0.05550
5609.91533,0.04129
5611.84380,0.04723
5613.77227,0.06651
5615.70074,0.09751
5617.62920,0.11469
5619.55767,0.09942
5621.48614,0.07396
5623.41461,0.06431
5625.34308,0.06283
5627.27155,0.06279
5629.20002,0.06794
5631.12848,0.05383
5633.05695,0.03157
5634.98542,0.03374
5636.91389,0.04069
5638.84236,0.02856
5640.77083,0.01342
5642.69930,0.01784
5644.62777,0.04402
5646.55623,0.07200
5648.48470,0.06842
5650.41317,0.03300
5652.34164,0.01542
5654.27011,0.04442
5656.19858,0.09026
5658.12705,0.09812
5660.05551,0.06406
5661.98398,0.05593
5663.91245,0.07308
5665.84092,0.05794
5667.76939,0.04142
5669.69786,0.06536
5671.62633,0.09769
5673.55480,0.10156
5675.48326,0.08250
5677.41173,0.05143
5679.34020,0.02126
5681.26867,0.01873
5683.19714,0.04514
5685.12561,0.07128
5687.05408,0.07392
5688.98254,0.05356
5690.91101,0.02853
5692.83948,0.02347
5694.76795,0.04391
5696.69642,0.05717
5698.62489,0.04503
5700.55336,0.03989
5702.48183,0.05412
5704.41029,0.06563
5706.33876,0.08031
5708.26723,0.09089
5710.19570,0.06825
5712.12417,0.03862
5714.05264,0.04244
5715.98111,0.05542
5717.90957,0.03954
5719.83804,0.03413
5721.76651,0.06937
5723.69498,0.08563
5725.62345,0.07173
5727.55192,0.06236
5729.48039,0.04518
5731.40886,0.02005
5733.33732,0.00041
5735.26579,-0.00771
5737.19426,0.00947
5739.12273,0.02491
5741.05120,0.00909
5742.97967,0.00120
5744.90814,0.02679
5746.83660,0.05540
5748.76507,0.07274
5750.69354,0.08396
5752.62201,0.07875
5754.55048,0.05849
5756.47895,0.03916
5758.40742,0.03909
5760.33588,0.06311
5762.26435,0.09159
5764.19282,0.10317
5766.12129,0.09353
5768.04976,0.07612
5769.97823,0.06323
5771.90670,0.06685
5773.83517,0.08240
5775.76363,0.09249
5777.69210,0.10767
5779.62057,0.12225
5781.54904,0.10441
5783.47751,0.05606
5785.40598,0.03085
5787.33445,0.07265
5789.26291,0.11679
5791.19138,0.10077
5793.11985,0.06935
5795.04832,0.06083
5796.97679,0.05217
5798.90526,0.02927
5800.83373,0.02050
5802.76220,0.02606
5804.69066,0.01345
5806.61913,0.00148
5808.54760,0.02280
5810.47607,0.04925
5812.40454,0.04929
5814.33301,0.04793
5816.26148,0.06604
5818.18994,0.06804
5820.11841,0.03262
5822.04688,0.00957
5823.97535,0.02680
5825.90382,0.03772
5827.83229,0.03031
5829.76076,0.04246
5831.68923,0.06116
5833.61769,0.05663
5835.54616,0.04632
5837.47463,0.03669
5839.40310,0.01551
5841.33157,-0.00619
5843.26004,-0.00577
5845.18851,0.01928
5847.11697,0.05112
5849.04544,0.06705
5850.97391,0.05540
5852.90238,0.04079
5854.83085,0.03123
5856.75932,0.00509
5858.68779,-0.01308
5860.61626,0.01732
5862.54472,0.07152
5864.47319,0.10170
5866.40166,0.10183
5868.33013,0.09209
5870.25860,0.08988
5872.18707,0.10174
5874.11554,0.10474
5876.04400,0.08082
5877.97247,0.06328
5879.90094,0.06268
5881.82941,0.06184
5883.75788,0.09069
5885.68635,0.15111
5887.61482,0.17595
5889.54329,0.13282
5891.47175,0.06391
5893.40022,0.01836
5895.32869,0.01196
5897.25716,0.02662
5899.18563,0.01591
5901.11410,-0.03291
5903.04257,-0.04746
5904.97103,0.00654
5906.89950,0.05753
5908.82797,0.07754
5910.75644,0.09426
5912.68491,0.08854
5914.61338,0.05495
5916.54185,0.03883
5918.47032,0.05275
5920.39878,0.07871
5922.32725,0.10252
5924.25572,0.10982
5926.18419,0.07948
5928.11266,0.02870
5930.04113,0.02082
5931.96960,0.05215
5933.89806,0.06362
5935.82653,0.06105
5937.75500,0.07797
5939.68347,0.09062
5941.61194,0.07384
5943.54041,0.03928
5945.46888,0.00843
5947.39734,0.01249
5949.32581,0.05788
5951.25428,0.08699
5953.18275,0.08151
5955.11122,0.08005
5957.03969,0.07099
5958.96816,0.03320
5960.89663,0.00430
5962.82509,0.02554
5964.75356,0.08490
5966.68203,0.13519
5968.61050,0.12359
5970.53897,0.05885
5972.46744,0.01668
5974.39591,0.02254
5976.32437,0.04693
5978.25284,0.07322
5980.18131,0.08524
5982.10978,0.07455
5984.03825,0.03827
5985.96672,-0.01451
5987.89519,-0.02763
5989.82366,0.02722
5991.75212,0.06969
5993.68059,0.06351
5995.60906,0.06168
5997.53753,0.04965
5999.46600,0.01610
6001.39447,-0.00024
6003.32294,0.00624
6005.25140,0.03667
6007.17987,0.06940
6009.10834,0.05396
6011.03681,0.03372
6012.96528,0.06663
6014.89375,0.08742
6016.82222,0.05753
6018.75069,0.03183
6020.67915,0.02711
6022.60762,0.02472
6024.53609,0.03260
6026.46456,0.05122
6028.39303,0.05651
6030.32150,0.03764
6032.24997,0.03053
6034.17843,0.06019
6036.10690,0.08577
6038.03537,0.07254
6039.96384,0.05098
6041.89231,0.05912
6043.82078,0.09086
6045.74925,0.09984
6047.67772,0.06325
6049.60618,0.02040
6051.53465,0.02405
6053.46312,0.05551
6055.39159,0.07823
6057.32006,0.07914
6059.24853,0.05173
6061.17700,0.03181
6063.10546,0.03874
6065.03393,0.04104
6066.96240,0.04643
6068.89087,0.05807
6070.81934,0.06218
6072.74781,0.08110
6074.67628,0.09895
6076.60475,0.06328
6078.53321,0.00760
6080.46168,0.01467
6082.39015,0.06829
6084.31862,0.09024
6086.24709,0.08186
6088.17556,0.09154
6090.10403,0.12330
6092.03249,0.13756
6093.96096,0.10386
6095.88943,0.06036
6097.81790,0.04321
6099.74637,0.04160
6101.67484,0.02864
6103.60331,-0.00609
6105.53177,-0.01084
6107.46024,0.04877
6109.38871,0.11123
6111.31718,0.11128
6113.24565,0.05559
6115.17412,-0.00945
6117.10259,-0.03037
6119.03106,0.00965
6120.95952,0.04692
6122.88799,0.04063
6124.81646,0.05553
6126.74493,0.09744
6128.67340,0.06544
6130.60187,-0.00271
6132.53034,-0.01162
6134.45880,0.00369
6136.38727,0.01253
6138.31574,0.02329
6140.24421,0.04211
6142.17268,0.07910
6144.10115,0.11911
6146.02962,0.12933
6147.95809,0.11128
6149.88655,0.07931
6151.81502,0.03908
6153.74349,0.02005
6155.67196,0.04421
6157.60043,0.07426
6159.52890,0.06507
6161.45737,0.01848
6163.38583,-0.00951
6165.31430,0.01076
6167.24277,0.03078
6169.17124,0.03254
6171.09971,0.01828
6173.02818,-0.02104
6174.95665,-0.03647
6176.88512,0.00455
6178.81358,0.04853
6180.74205,0.05916
6182.67052,0.05001
6184.59899,0.01401
6186.52746,-0.02092
6188.45593,-0.00543
6190.38440,0.03703
6192.31286,0.06377
6194.24133,0.03190
6196.16980,-0.00593
6198.09827,0.05573
6200.02674,0.13675
6201.95521,0.13218
6203.88368,0.09964
6205.81215,0.11621
6207.74061,0.14073
6209.66908,0.10372
6211.59755,0.01487
6213.52602,-0.03086
6215.45449,0.02399
6217.38296,0.11493
6219.31143,0.14914
6221.23989,0.13422
6223.16836,0.10801
6225.09683,0.09434
6227.02530,0.08463
6228.95377,0.05604
6230.88224,0.03732
6232.81071,0.03651
6234.73918,0.00755
6236.66764,-0.05645
6238.59611,-0.11360
6240.52458,-0.13427
6242.45305,-0.13636
6244.38152,-0.10933
6246.30999,-0.03735
6248.23846,0.02591
6250.16692,0.06054
6252.09539,0.09497
6254.02386,0.09895
6255.95233,0.05816
6257.88080,0.04461
6259.80927,0.08217
6261.73774,0.11724
6263.66621,0.12761
6265.59467,0.12244
6267.52314,0.11187
6269.45161,0.09563
6271.38008,0.04062
6273.30855,-0.05413
6275.23702,-0.09416
6277.16549,-0.04268
6279.09395,0.02506
6281.02242,0.05601
6282.95089,0.04412
6284.87936,0.01613
6286.80783,-0.01451
6288.73630,-0.06263
6290.66477,-0.09448
6292.59323,-0.06380
6294.52170,-0.03438
6296.45017,-0.03707
6298.37864,-0.00990
6300.30711,0.03217
6302.23558,0.03259
6304.16405,0.01861
6306.09252,0.02204
6308.02098,0.01252
6309.94945,0.00229
6311.87792,0.02110
6313.80639,0.04573
6315.73486,0.07216
6317.66333,0.08923
6319.59180,0.08775
6321.52026,0.09824
6323.44873,0.11345
6325.37720,0.10128
6327.30567,0.06242
6329.23414,0.02548
6331.16261,0.02285
6333.09108,0.05750
6335.01955,0.09825
6336.94801,0.11527
6338.87648,0.11109
6340.80495,0.07896
6342.73342,0.03453
6344.66189,0.02859
6346.59036,0.05027
6348.51883,0.06823
6350.44729,0.07750
6352.37576,0.06520
6354.30423,0.05130
6356.23270,0.04259
6358.16117,0.01805
6360.08964,-0.01976
6362.01811,-0.03886
6363.94658,-0.03364
6365.87504,-0.03556
6367.80351,-0.01561
6369.73198,0.03544
6371.66045,0.04129
6373.58892,0.03029
6375.51739,0.04750
6377.44586,0.02403
6379.37432,-0.03251
6381.30279,-0.04325
6383.23126,-0.00123
6385.15973,0.01683
6387.08820,0.02052
6389.01667,0.06894
6390.94514,0.11820
6392.87361,0.12627
6394.80207,0.10570
6396.73054,0.05896
6398.65901,0.01200
6400.58748,-0.00704
6402.51595,-0.00826
6404.44442,-0.00482
6406.37289,0.00641
6408.30135,0.02722
6410.22982,0.06770
6412.15829,0.10720
6414.08676,0.13236
6416.01523,0.18542
6417.94370,0.21864
6419.87217,0.14655
6421.80064,0.04057
6423.72910,-0.00768
6425.65757,0.00506
6427.58604,0.01294
6429.51451,0.00997
6431.44298,0.02946
6433.37145,0.02441
6435.29992,0.00153
6437.22838,0.01120
6439.15685,0.04286
6441.08532,0.08973
6443.01379,0.11946
6444.94226,0.07209
6446.87073,0.00514
6448.79920,-0.02185
6450.72766,-0.03556
6452.65613,-0.04486
6454.58460,-0.02622
6456.51307,0.00853
6458.44154,0.02478
6460.37001,0.03196
6462.29848,0.04848
6464.22695,0.07129
6466.15541,0.10207
6468.08388,0.10129
6470.01235,0.06941
6471.94082,0.11089
6473.86929,0.21324
6475.79776,0.23427
6477.72623,0.15015
6479.65469,0.07229
6481.58316,0.03503
6483.51163,0.03283
6485.44010,0.07230
6487.36857,0.12328
6489.29704,0.15588
6491.22551,0.13927
6493.15398,0.05027
6495.08244,-0.02979
6497.01091,-0.03200
6498.93938,0.00890
6500.86785,0.05062
6502.79632,0.04576
6504.72479,0.00077
6506.65326,-0.01234
6508.58172,0.02818
6510.51019,0.11986
6512.43866,0.22173
6514.36713,0.20432
6516.29560,0.07421
6518.22407,0.00252
6520.15254,0.00343
6522.08101,-0.02496
6524.00947,-0.04590
6525.93794,-0.01065
6527.86641,0.00490
6529.79488,-0.03664
6531.72335,-0.05418
6533.65182,-0.02498
6535.58029,-0.01324
6537.50875,0.01129
6539.43722,0.07047
6541.36569,0.13005
6543.29416,0.13528
6545.22263,0.04041
6547.15110,-0.04590
6549.07957,-0.05611
6551.00804,-0.05966
6552.93650,-0.06828
6554.86497,-0.06256
6556.79344,-0.09182
6558.72191,-0.12747
6560.65038,-0.11366
6562.57885,-0.09183
6564.50732,-0.03688
6566.43578,0.05903
6568.36425,0.02932
6570.29272,-0.07307
6572.22119,-0.02922
6574.14966,0.08038
6576.07813,0.08027
6578.00660,0.00043
6579.93507,-0.04649
6581.86353,-0.04900
6583.79200,-0.05985
6585.72047,-0.05528
6587.64894,-0.02439
6589.57741,-0.00280
6591.50588,0.00996
6593.43435,0.03210
6595.36281,0.08803
6597.29128,0.14111
6599.21975,0.11767
6601.14822,0.06000
6603.07669,0.03974
6605.00516,0.00730
6606.93363,-0.02498
6608.86210,0.00344
6610.79056,0.06725
6612.71903,0.10456
6614.64750,0.09933
6616.57597,0.08617
6618.50444,0.07338
6620.43291,0.08659
6622.36138,0.14013
6624.28984,0.13199
6626.21831,0.03377
6628.14678,-0.02896
6630.07525,0.00104
6632.00372,0.03255
6633.93219,0.02285
6635.86066,0.00677
6637.78912,-0.01890
6639.71759,-0.05324
6641.64606,-0.04093
6643.57453,0.00747
6645.50300,0.02506
6647.43147,-0.02085
6649.35994,-0.10091
6651.28841,-0.09043
6653.21687,0.03982
6655.14534,0.14631
6657.07381,0.17529
6659.00228,0.13531
6660.93075,0.01398
6662.85922,-0.03357
6664.78769,-0.00251
6666.71615,-0.02796
6668.64462,-0.02580
6670.57309,0.03192
6672.50156,0.02440
6674.43003,0.03131
6676.35850,0.13085
6678.28697,0.20035
6680.21544,0.16390
6682.14390,0.12091
6684.07237,0.13805
6686.00084,0.12798
6687.92931,0.07831
6689.85778,0.06699
6691.78625,0.05975
6693.71472,0.04679
6695.64318,0.05850
6697.57165,0.06176
6699.50012,0.04061
6701.42859,0.02846
6703.35706,0.06069
6705.28553,0.12672
6707.21400,0.15316
6709.14247,0.08630
6711.07093,-0.01696
6712.99940,-0.05226
6714.92787,0.00651
6716.85634,0.08962
6718.78481,0.13158
6720.71328,0.13359
6722.64175,0.11789
6724.57021,0.08707
6726.49868,0.04217
6728.42715,0.01233
6730.35562,0.05363
6732.28409,0.11375
6734.21256,0.07565
6736.14103,-0.00705
6738.06950,-0.02220
6739.99796,-0.00291
6741.92643,0.00011
6743.85490,0.00100
6745.78337,-0.01046
6747.71184,-0.03352
6749.64031,-0.03571
6751.56878,-0.04858
6753.49724,-0.08745
6755.42571,-0.09007
6757.35418,-0.02201
6759.28265,0.09183
6761.21112,0.14241
6763.13959,0.06792
6765.06806,-0.00245
6766.99653,0.02259
6768.92499,0.11377
6770.85346,0.22447
6772.78193,0.25664
6774.71040,0.19878
6776.63887,0.15330
6778.56734,0.12165
6780.49581,0.09941
6782.42427,0.11007
6784.35274,0.14089
6786.28121,0.18551
6788.20968,0.19954
6790.13815,0.13527
6792.06662,0.00792
6793.99509,-0.05393
6795.92355,-0.01127
6797.85202,-0.01193
6799.78049,-0.07547
6801.70896,-0.08272
6803.63743,-0.03611
6805.56590,-0.02076
6807.49437,-0.05556
6809.42284,-0.08370
6811.35130,-0.04181
6813.27977,0.01185
6815.20824,0.03194
6817.13671,0.05980
6819.06518,0.06995
6820.99365,0.08126
6822.92212,0.14506
6824.85058,0.15846
6826.77905,0.06691
6828.70752,-0.01061
6830.63599,-0.02090
6832.56446,-0.02227
6834.49293,-0.01749
6836.42140,0.05064
6838.34987,0.15829
6840.27833,0.16612
6842.20680,0.08732
6844.13527,0.08175
6846.06374,0.14857
6847.99221,0.11503
6849.92068,-0.04322
6851.84915,-0.09784
6853.77761,-0.02433
6855.70608,-0.00152
6857.63455,-0.08401
6859.56302,-0.12724
6861.49149,-0.11094
6863.41996,-0.09243
6865.34843,-0.04210
6867.27690,0.02972
6869.20536,0.08155
6871.13383,0.11174
6873.06230,0.10723
6874.99077,0.10200
6876.91924,0.14068
6878.84771,0.19986
6880.77618,0.18967
6882.70464,0.10609
6884.63311,0.04982
6886.56158,0.07191
6888.49005,0.16286
6890.41852,0.18944
6892.34699,0.08436
6894.27546,0.04062
6896.20393,0.13518
6898.13239,0.20126
6900.06086,0.14255
6901.98933,-0.00501
6903.91780,-0.17743
6905.84627,-0.17371
6907.77474,0.00659
6909.70321,0.14735
6911.63167,0.20464
6913.56014,0.14636
6915.48861,-0.02837
6917.41708,-0.21611
6919.34555,-0.31785
6921.27402,-0.27958
6923.20249,-0.17878
6925.13096,-0.07044
6927.05942,0.01541
6928.98789,0.00270
6930.91636,-0.06872
6932.84483,-0.04597
6934.77330,0.05240
6936.70177,0.11707
6938.63024,0.09284
6940.55870,0.01591
6942.48717,-0.00368
6944.41564,-0.00766
6946.34411,-0.01856
6948.27258,-0.01300
6950.20105,-0.03021
6952.12952,-0.04611
6954.05799,-0.00969
6955.98645,0.02451
6957.91492,0.03847
6959.84339,0.08066
6961.77186,0.06960
6963.70033,-0.01934
6965.62880,-0.03916
6967.55727,0.08270
6969.48573,0.25019
6971.41420,0.32730
6973.34267,0.25198
6975.27114,0.12915
6977.19961,0.12893
6979.12808,0.15136
6981.05655,0.09253
6982.98501,0.02314
6984.91348,0.01684
6986.84195,0.07999
6988.77042,0.12874
6990.69889,0.10235
6992.62736,0.09836
6994.55583,0.13924
6996.48430,0.12952
6998.41276,0.11027
7000.34123,0.17221
7002.26970,0.15511
7004.19817,-0.01827
7006.12664,-0.15498
7008.05511,-0.11611
7009.98358,-0.04492
7011.91204,-0.03338
7013.84051,-0.03791
7015.76898,-0.07359
7017.69745,-0.11182
7019.62592,-0.04632
7021.55439,0.07787
7023.48286,0.10731
7025.41133,0.08654
7027.33979,0.11725
7029.26826,0.11815
7031.19673,0.10937
7033.12520,0.14148
7035.05367,0.12531
7036.98214,0.05401
7038.91061,0.02682
7040.83907,0.08197
7042.76754,0.12623
7044.69601,0.05953
7046.62448,0.01887
7048.55295,0.03789
7050.48142,0.00303
7052.40989,-0.01556
7054.33836,0.05391
7056.26682,0.11712
7058.19529,0.12204
7060.12376,0.13000
7062.05223,0.09872
7063.98070,0.00191
7065.90917,-0.04631
7067.83764,-0.04080
7069.76610,-0.03570
7071.69457,-0.03168
7073.62304,0.03096
7075.55151,0.11964
7077.47998,0.16760
7079.40845,0.17533
7081.33692,0.12660
7083.26539,0.03716
7085.19385,-0.06896
7087.12232,-0.11630
7089.05079,-0.05577
7090.97926,-0.01028
7092.90773,0.07250
7094.83620,0.17231
7096.76467,0.12099
7098.69313,-0.00900
7100.62160,-0.05538
7102.55007,0.00242
7104.47854,0.09271
7106.40701,0.08848
7108.33548,0.06090
7110.26395,0.14642
7112.19242,0.20549
7114.12088,0.12509
7116.04935,0.06044
7117.97782,0.05642
7119.90629,-0.01827
7121.83476,-0.08861
7123.76323,-0.12544
7125.69170,-0.14578
7127.62016,-0.11565
7129.54863,-0.07429
7131.47710,-0.02092
7133.40557,0.03408
7135.33404,0.06962
7137.26251,0.05627
7139.19098,-0.06083
7141.11944,-0.17593
7143.04791,-0.18369
7144.97638,-0.12542
7146.90485,0.00451
7148.83332,0.11817
7150.76179,0.07816
7152.69026,-0.02372
7154.61873,-0.00010
7156.54719,0.09631
7158.47566,0.16807
7160.40413,0.19551
7162.33260,0.16892
7164.26107,0.09320
7166.18954,-0.03757
7168.11801,-0.10773
7170.04647,0.01260
7171.97494,0.16507
7173.90341,0.17636
7175.83188,0.08146
7177.76035,-0.04629
7179.68882,-0.06283
7181.61729,0.06024
7183.54576,0.15236
7185.47422,0.18276
7187.40269,0.21764
7189.33116,0.27426
7191.25963,0.33321
7193.18810,0.18138
7195.11657,-0.03681
7197.04504,-0.00208
7198.97350,0.13224
7200.90197,0.17044
7202.83044,0.13050
7204.75891,0.06351
7206.68738,0.04840
7208.61585,-0.00054
7210.54432,-0.11683
7212.47279,-0.08440
7214.40125,0.09749
7216.32972,0.02393
7218.25819,-0.33469
7220.18666,-0.35204
7222.11513,-0.06838
7224.04360,0.18238
7225.97207,0.20201
7227.90053,0.09208
7229.82900,0.10951
7231.75747,0.22509
7233.68594,0.19098
7235.61441,0.08013
7237.54288,0.11378
7239.47135,0.19982
7241.39982,0.14032
7243.32828,0.07430
7245.25675,0.14788
7247.18522,0.17472
7249.11369,0.11273
7251.04216,0.07527
7252.97063,0.13341
7254.89910,0.22260
7256.82756,0.22128
7258.75603,0.16464
7260.68450,0.17086
7262.61297,0.32642
7264.54144,0.44317
7266.46991,0.29349
7268.39838,0.07118
7270.32685,0.01393
7272.25531,0.12251
7274.18378,0.25224
7276.11225,0.33110
7278.04072,0.32998
7279.96919,0.27236
7281.89766,0.26807
7283.82613,0.21512
7285.75459,0.04845
7287.68306,-0.10069
7289.61153,-0.13635
7291.54000,0.00473
7293.46847,0.20774
7295.39694,0.19181
7297.32541,0.00437
7299.25387,-0.08821
7301.18234,-0.06877
7303.11081,-0.01001
7305.03928,0.09675
7306.96775,0.23126
7308.89622,0.29140
7310.82469,0.19280
7312.75316,0.09486
7314.68162,0.08831
7316.61009,0.04372
7318.53856,-0.06818
7320.46703,-0.16155
7322.39550,-0.20132
7324.32397,-0.06758
7326.25244,0.16509
7328.18090,0.25872
7330.10937,0.09518
7332.03784,-0.10238
7333.96631,-0.13452
7335.89478,-0.01994
7337.82325,0.09680
7339.75172,0.00468
7341.68019,-0.15708
7343.60865,-0.07846
7345.53712,0.05318
7347.46559,0.08486
7349.39406,0.13041
7351.32253,0.27323
7353.25100,0.41501
7355.17947,0.47386
7357.10793,0.37856
7359.03640,0.17586
7360.96487,0.10757
7362.89334,0.17122
7364.82181,0.20283
7366.75028,0.13924
7368.67875,0.05109
7370.60722,0.04528
7372.53568,0.07079
7374.46415,0.08731
7376.39262,0.12375
7378.32109,0.09227
7380.24956,0.04581
7382.17803,0.09706
7384.10650,0.11887
7386.03496,-0.01721
7387.96343,-0.15462
7389.89190,-0.20782
7391.82037,-0.25233
7393.74884,-0.22247
7395.67731,-0.08872
7397.60578,0.05570
7399.53425,0.20631
7401.46271,0.34720
7403.39118,0.34999
7405.31965,0.17970
7407.24812,0.09301
7409.17659,0.22382
7411.10506,0.36817
7413.03353,0.33232
7414.96199,0.26299
7416.89046,0.23399
7418.81893,0.04829
7420.74740,-0.18466
7422.67587,-0.22118
7424.60434,-0.19863
7426.53281,-0.13024
7428.46128,0.04952
7430.38974,0.20529
7432.31821,0.27373
7434.24668,0.38243
7436.17515,0.36601
7438.10362,0.18557
7440.03209,0.01890
7441.96056,-0.05677
7443.88902,-0.02326
7445.81749,0.01363
7447.74596,0.00254
7449.67443,0.04869
7451.60290,0.17241
7453.53137,0.21897
7455.45984,0.18879
7457.38831,0.18052
7459.31677,0.17130
7461.24524,0.17881
7463.17371,0.21755
7465.10218,0.17602
7467.03065,0.04769
7468.95912,-0.11304
7470.88759,-0.17438
7472.81605,-0.07116
7474.74452,-0.02542
7476.67299,-0.07172
7478.60146,-0.10890
7480.52993,-0.10563
7482.45840,0.02608
7484.38687,0.17821
7486.31533,0.17549
7488.24380,0.09899
7490.17227,0.10496
7492.10074,0.17863
7494.02921,0.21030
7495.95768,0.17403
7497.88615,0.17498
