399.19301,1.17987
401.12148,0.02833
403.04995,-0.28169
404.97842,-0.29923
406.90689,-0.18248
408.83536,-0.08981
410.76382,-0.10039
412.69229,-0.10298
414.62076,-0.06585
416.54923,-0.05471
418.47770,-0.05177
420.40617,0.01964
422.33464,0.13359
424.26311,0.20313
426.19157,0.18945
428.12004,0.17104
430.04851,0.18337
431.97698,0.10754
433.90545,-0.02676
435.83392,-0.05127
437.76239,0.02062
439.69085,0.07186
441.61932,0.03997
443.54779,-0.00846
445.47626,0.00327
447.40473,0.07300
449.33320,0.16635
451.26167,0.23207
453.19013,0.21350
455.11860,0.10340
457.04707,-0.01297
458.97554,-0.02856
460.90401,0.04054
462.83248,0.08979
464.76095,0.08204
466.68942,0.06568
468.61788,0.07943
470.54635,0.07800
472.47482,-0.00792
474.40329,-0.09590
476.33176,-0.06653
478.26023,-0.00458
480.18870,0.09614
482.11716,0.19488
484.04563,0.18023
485.97410,0.11758
487.90257,0.10815
489.83104,0.09627
491.75951,0.07132
493.68798,0.07685
495.61645,0.10266
497.54491,0.11782
499.47338,0.11856
501.40185,0.10696
503.33032,0.07339
505.25879,0.02833
507.18726,-0.00614
509.11573,-0.01033
511.04419,0.01370
512.97266,0.06012
514.90113,0.10364
516.82960,0.10765
518.75807,0.08591
520.68654,0.06212
522.61501,0.04010
524.54348,0.03931
526.47194,0.06855
528.40041,0.09259
530.32888,0.09469
532.25735,0.09136
534.18582,0.08746
536.11429,0.09580
538.04276,0.11469
539.97122,0.12159
541.89969,0.11199
543.82816,0.08596
545.75663,0.06805
547.68510,0.07996
549.61357,0.09043
551.54204,0.05963
553.47051,0.03789
555.39897,0.08249
557.32744,0.11899
559.25591,0.09616
561.18438,0.07535
563.11285,0.08377
565.04132,0.10340
566.96979,0.11805
568.89825,0.11934
570.82672,0.10922
572.75519,0.09882
574.68366,0.08587
576.61213,0.04592
578.54060,0.00245
580.46907,-0.00087
582.39754,0.02660
584.32600,0.05098
586.25447,0.07059
588.18294,0.08171
590.11141,0.08233
592.03988,0.10185
593.96835,0.12035
595.89682,0.10521
597.82528,0.08987
599.75375,0.09223
601.68222,0.08717
603.61069,0.07367
605.53916,0.06771
607.46763,0.06606
609.39610,0.07326
611.32456,0.08619
613.25303,0.08943
615.18150,0.08187
617.10997,0.07492
619.03844,0.07741
620.96691,0.07944
622.89538,0.07581
624.82385,0.07802
626.75231,0.08552
628.68078,0.09142
630.60925,0.09788
632.53772,0.09934
634.46619,0.09851
636.39466,0.10488
638.32313,0.10740
640.25159,0.09662
642.18006,0.07800
644.10853,0.07355
646.03700,0.09650
647.96547,0.12114
649.89394,0.11615
651.82241,0.09140
653.75088,0.07389
655.67934,0.07678
657.60781,0.09279
659.53628,0.09513
661.46475,0.08643
663.39322,0.08817
665.32169,0.09736
667.25016,0.10516
669.17862,0.09679
671.10709,0.08413
673.03556,0.07662
674.96403,0.06886
676.89250,0.07321
678.82097,0.08189
680.74944,0.07264
682.67791,0.06500
684.60637,0.07792
686.53484,0.09068
688.46331,0.09566
690.39178,0.10310
692.32025,0.10330
694.24872,0.09165
696.17719,0.08604
698.10565,0.09460
700.03412,0.10714
701.96259,0.11437
703.89106,0.11294
705.81953,0.11005
707.74800,0.11024
709.67647,0.11266
711.60494,0.11278
713.53340,0.09738
715.46187,0.08300
717.39034,0.08890
719.31881,0.09546
721.24728,0.09807
723.17575,0.10931
725.10422,0.11596
727.03268,0.10656
728.96115,0.09714
730.88962,0.09675
732.81809,0.09851
734.74656,0.10323
736.67503,0.10270
738.60350,0.08794
740.53197,0.07747
742.46043,0.08323
744.38890,0.08861
746.31737,0.08773
748.24584,0.09605
750.17431,0.11011
752.10278,0.10869
754.03125,0.10077
755.95971,0.10459
757.88818,0.10746
759.81665,0.10465
761.74512,0.10844
763.67359,0.11607
765.60206,0.11724
767.53053,0.11072
769.45900,0.10371
771.38746,0.10340
773.31593,0.10879
775.24440,0.10864
777.17287,0.10129
779.10134,0.09890
781.02981,0.09889
782.95828,0.09589
784.88674,0.09531
786.81521,0.09230
788.74368,0.08228
790.67215,0.07870
792.60062,0.08898
794.52909,0.09774
796.45756,0.09894
798.38602,0.10654
800.31449,0.11463
802.24296,0.11092
804.17143,0.10337
806.09990,0.10062
808.02837,0.10318
809.95684,0.10414
811.88531,0.10205
813.81377,0.10343
815.74224,0.10185
817.67071,0.09534
819.59918,0.09551
821.52765,0.10279
823.45612,0.11236
825.38459,0.11833
827.31305,0.11142
829.24152,0.09967
831.16999,0.09742
833.09846,0.10256
835.02693,0.11045
836.95540,0.11711
838.88387,0.11708
840.81234,0.11479
842.74080,0.11759
844.66927,0.12494
846.59774,0.12360
848.52621,0.10829
850.45468,0.10128
852.38315,0.11227
854.31162,0.11975
856.24008,0.11759
858.16855,0.11692
860.09702,0.11768
862.02549,0.11889
863.95396,0.12168
865.88243,0.12167
867.81090,0.11346
869.73937,0.10216
871.66783,0.10408
873.59630,0.11710
875.52477,0.12241
877.45324,0.11895
879.38171,0.11436
881.31018,0.11017
883.23865,0.11110
885.16711,0.11428
887.09558,0.11249
889.02405,0.10606
890.95252,0.09820
892.88099,0.09820
894.80946,0.10254
896.73793,0.10072
898.66640,0.10048
900.59486,0.10366
902.52333,0.10183
904.45180,0.10091
906.38027,0.10841
908.30874,0.11292
910.23721,0.10908
912.16568,0.10947
914.09414,0.11563
916.02261,0.12001
917.95108,0.11960
919.87955,0.11388
921.80802,0.10938
923.73649,0.11090
925.66496,0.11248
927.59343,0.10975
929.52189,0.10522
931.45036,0.10259
933.37883,0.10714
935.30730,0.11711
937.23577,0.12058
939.16424,0.11412
941.09271,0.10504
943.02117,0.10150
944.94964,0.10868
946.87811,0.12126
948.80658,0.12555
950.73505,0.12072
952.66352,0.11765
954.59199,0.11892
956.52045,0.11806
958.44892,0.11380
960.37739,0.11389
962.30586,0.11650
964.23433,0.11316
966.16280,0.10989
968.09127,0.11200
970.01974,0.11429
971.94820,0.11549
973.87667,0.11974
975.80514,0.12662
977.73361,0.13001
979.66208,0.12715
981.59055,0.11939
983.51902,0.11326
985.44748,0.11836
987.37595,0.12970
989.30442,0.13204
991.23289,0.12756
993.16136,0.12908
995.08983,0.13561
997.01830,0.13611
998.94677,0.12760
1000.87523,0.12166
1002.80370,0.12255
1004.73217,0.12192
1006.66064,0.12298
1008.58911,0.12902
1010.51758,0.13065
1012.44605,0.12639
1014.37451,0.12303
1016.30298,0.12421
1018.23145,0.12870
1020.15992,0.12861
1022.08839,0.12313
1024.01686,0.12058
1025.94533,0.11952
1027.87380,0.11904
1029.80226,0.12313
1031.73073,0.12490
1033.65920,0.12337
1035.58767,0.12578
1037.51614,0.12717
1039.44461,0.12269
1041.37308,0.11862
1043.30154,0.11896
1045.23001,0.11964
1047.15848,0.11734
1049.08695,0.11516
1051.01542,0.11769
1052.94389,0.12334
1054.87236,0.12710
1056.80083,0.12863
1058.72929,0.12848
1060.65776,0.12663
1062.58623,0.12652
1064.51470,0.13086
1066.44317,0.13419
1068.37164,0.13369
1070.30011,0.13561
1072.22857,0.13920
1074.15704,0.14235
1076.08551,0.14525
1078.01398,0.14309
1079.94245,0.13982
1081.87092,0.14291
1083.79939,0.14563
1085.72786,0.13991
1087.65632,0.13282
1089.58479,0.13209
1091.51326,0.13510
1093.44173,0.13815
1095.37020,0.13951
1097.29867,0.13985
1099.22714,0.14070
1101.15560,0.14116
1103.08407,0.14133
1105.01254,0.14309
1106.94101,0.14649
1108.86948,0.14771
1110.79795,0.14460
1112.72642,0.14121
1114.65489,0.13874
1116.58335,0.13643
1118.51182,0.13788
1120.44029,0.14067
1122.36876,0.13919
1124.29723,0.13628
1126.22570,0.13700
1128.15417,0.13916
1130.08263,0.13597
1132.01110,0.12481
1133.93957,0.11409
1135.86804,0.11638
1137.79651,0.12595
1139.72498,0.12785
1141.65345,0.12612
1143.58191,0.13169
1145.51038,0.14075
1147.43885,0.14383
1149.36732,0.14056
1151.29579,0.13654
1153.22426,0.13841
1155.15273,0.14486
1157.08120,0.14532
1159.00966,0.14198
1160.93813,0.14515
1162.86660,0.15080
1164.79507,0.15139
1166.72354,0.14846
1168.65201,0.14419
1170.58048,0.14113
1172.50894,0.14141
1174.43741,0.14239
1176.36588,0.14397
1178.29435,0.14773
1180.22282,0.14990
1182.15129,0.14689
1184.07976,0.14018
1186.00823,0.13434
1187.93669,0.13523
1189.86516,0.14257
1191.79363,0.14903
1193.72210,0.14972
1195.65057,0.14480
1197.57904,0.13961
1199.50751,0.13839
1201.43597,0.13902
1203.36444,0.13820
1205.29291,0.13665
1207.22138,0.13701
1209.14985,0.13845
1211.07832,0.14100
1213.00679,0.14444
1214.93526,0.14660
1216.86372,0.14755
1218.79219,0.14697
1220.72066,0.14462
1222.64913,0.14119
1224.57760,0.13912
1226.50607,0.13872
1228.43454,0.13672
1230.36300,0.13486
1232.29147,0.13525
1234.21994,0.13606
1236.14841,0.13595
1238.07688,0.13476
1240.00535,0.13484
1241.93382,0.13819
1243.86229,0.14058
1245.79075,0.13851
1247.71922,0.13619
1249.64769,0.13663
1251.57616,0.13815
1253.50463,0.14088
1255.43310,0.14418
1257.36157,0.14331
1259.29003,0.13772
1261.21850,0.13345
1263.14697,0.13226
1265.07544,0.13213
1267.00391,0.13223
1268.93238,0.13232
1270.86085,0.13608
1272.78932,0.14271
1274.71778,0.14486
1276.64625,0.14330
1278.57472,0.14284
1280.50319,0.14056
1282.43166,0.13656
1284.36013,0.13728
1286.28860,0.14018
1288.21706,0.14136
1290.14553,0.14342
1292.07400,0.14475
1294.00247,0.14248
1295.93094,0.13719
1297.85941,0.13005
1299.78788,0.12028
1301.71634,0.10380
1303.64481,0.08619
1305.57328,0.09034
1307.50175,0.12000
1309.43022,0.14440
1311.35869,0.14988
1313.28716,0.14880
1315.21563,0.14825
1317.14409,0.15131
1319.07256,0.15370
1321.00103,0.14918
1322.92950,0.14439
1324.85797,0.14163
1326.78644,0.14028
1328.71491,0.14274
1330.64337,0.14010
1332.57184,0.13408
1334.50031,0.13562
1336.42878,0.13938
1338.35725,0.14082
1340.28572,0.13721
1342.21419,0.13458
1344.14266,0.14025
1346.07112,0.14353
1347.99959,0.14159
1349.92806,0.13819
1351.85653,0.13365
1353.78500,0.13250
1355.71347,0.13609
1357.64194,0.14130
1359.57040,0.14701
1361.49887,0.15563
1363.42734,0.16188
1365.35581,0.15962
1367.28428,0.15618
1369.21275,0.15718
1371.14122,0.16117
1373.06969,0.16454
1374.99815,0.16609
1376.92662,0.16560
1378.85509,0.16475
1380.78356,0.16543
1382.71203,0.16589
1384.64050,0.16760
1386.56897,0.17050
1388.49743,0.16688
1390.42590,0.16152
1392.35437,0.16352
1394.28284,0.17009
1396.21131,0.17524
1398.13978,0.17656
1400.06825,0.17170
1401.99672,0.16568
1403.92518,0.16586
1405.85365,0.16839
1407.78212,0.16737
1409.71059,0.16555
1411.63906,0.16474
1413.56753,0.16553
1415.49600,0.17068
1417.42446,0.17994
1419.35293,0.18222
1421.28140,0.17593
1423.20987,0.17307
1425.13834,0.17174
1427.06681,0.16941
1428.99528,0.16607
1430.92375,0.16111
1432.85221,0.16077
1434.78068,0.16903
1436.70915,0.17662
1438.63762,0.17154
1440.56609,0.16486
1442.49456,0.16455
1444.42303,0.16787
1446.35149,0.16993
1448.27996,0.17058
1450.20843,0.17236
1452.13690,0.17421
1454.06537,0.17899
1455.99384,0.19373
1457.92231,0.20021
1459.85077,0.18345
1461.77924,0.17269
1463.70771,0.17344
1465.63618,0.17791
1467.56465,0.17714
1469.49312,0.17734
1471.42159,0.18637
1473.35006,0.19648
1475.27852,0.19248
1477.20699,0.18443
1479.13546,0.17920
1481.06393,0.17485
1482.99240,0.17152
1484.92087,0.17326
1486.84934,0.18369
1488.77780,0.19562
1490.70627,0.19044
1492.63474,0.17903
1494.56321,0.17947
1496.49168,0.19004
1498.42015,0.19463
1500.34862,0.18748
1502.27709,0.17703
1504.20555,0.17762
1506.13402,0.21122
1508.06249,0.23388
1509.99096,0.21113
1511.91943,0.19501
1513.84790,0.19194
1515.77637,0.19909
1517.70483,0.20653
1519.63330,0.21221
1521.56177,0.22001
1523.49024,0.21343
1525.41871,0.19774
1527.34718,0.18442
1529.27565,0.17898
1531.20412,0.18439
1533.13258,0.19097
1535.06105,0.18791
1536.98952,0.19011
1538.91799,0.20858
1540.84646,0.22480
1542.77493,0.21303
1544.70340,0.19803
1546.63186,0.18906
1548.56033,0.18730
1550.48880,0.18688
1552.41727,0.18630
1554.34574,0.19444
1556.27421,0.21246
1558.20268,0.22996
1560.13115,0.21321
1562.05961,0.19061
1563.98808,0.18047
1565.91655,0.17828
1567.84502,0.18460
1569.77349,0.19368
1571.70196,0.19425
1573.63043,0.19370
1575.55889,0.19507
1577.48736,0.18704
1579.41583,0.17683
1581.34430,0.17208
1583.27277,0.17076
1585.20124,0.17230
1587.12971,0.17550
1589.05818,0.17852
1590.98664,0.18099
1592.91511,0.18204
1594.84358,0.17984
1596.77205,0.17485
1598.70052,0.17014
1600.62899,0.16993
1602.55746,0.17637
1604.48592,0.18328
1606.41439,0.18520
1608.34286,0.18513
1610.27133,0.18448
1612.19980,0.18299
1614.12827,0.18400
1616.05674,0.18782
1617.98521,0.18668
1619.91367,0.18385
1621.84214,0.18697
1623.77061,0.19067
1625.69908,0.19079
1627.62755,0.19210
1629.55602,0.18987
1631.48449,0.18604
1633.41295,0.19171
1635.34142,0.20613
1637.26989,0.20460
1639.19836,0.19238
1641.12683,0.18645
1643.05530,0.19122
1644.98377,0.20902
1646.91223,0.22485
1648.84070,0.21604
1650.76917,0.20961
1652.69764,0.21880
1654.62611,0.21577
1656.55458,0.19971
1658.48305,0.19153
1660.41152,0.19660
1662.33998,0.20441
1664.26845,0.19683
1666.19692,0.19103
1668.12539,0.19940
1670.05386,0.20676
1671.98233,0.20216
1673.91080,0.19923
1675.83926,0.19714
1677.76773,0.19397
1679.69620,0.19732
1681.62467,0.20990
1683.55314,0.22573
1685.48161,0.21995
1687.41008,0.20477
1689.33855,0.19689
1691.26701,0.19380
1693.19548,0.19806
1695.12395,0.21110
1697.05242,0.22231
1698.98089,0.22310
1700.90936,0.21597
1702.83783,0.20961
1704.76629,0.20669
1706.69476,0.20020
1708.62323,0.19282
1710.55170,0.18957
1712.48017,0.19154
1714.40864,0.20092
1716.33711,0.21232
1718.26558,0.20741
1720.19404,0.19332
1722.12251,0.18600
1724.05098,0.18433
1725.97945,0.18485
1727.90792,0.18691
1729.83639,0.19004
1731.76486,0.19540
1733.69332,0.20136
1735.62179,0.19833
1737.55026,0.19339
1739.47873,0.19282
1741.40720,0.19557
1743.33567,0.19806
1745.26414,0.19880
1747.19261,0.20067
1749.12107,0.20233
1751.04954,0.19559
1752.97801,0.18584
1754.90648,0.18338
1756.83495,0.18634
1758.76342,0.18976
1760.69189,0.19343
1762.62035,0.19280
1764.54882,0.18749
1766.47729,0.18623
1768.40576,0.19008
1770.33423,0.19538
1772.26270,0.19857
1774.19117,0.19613
1776.11964,0.19196
1778.04810,0.19129
1779.97657,0.19294
1781.90504,0.19099
1783.83351,0.18692
1785.76198,0.18429
1787.69045,0.18360
1789.61892,0.18751
1791.54738,0.19446
1793.47585,0.19524
1795.40432,0.19229
1797.33279,0.19297
1799.26126,0.19431
1801.18973,0.18953
1803.11820,0.18163
1805.04666,0.17931
1806.97513,0.18265
1808.90360,0.18715
1810.83207,0.18941
1812.76054,0.18810
1814.68901,0.18560
1816.61748,0.18415
1818.54595,0.18257
1820.47441,0.18232
1822.40288,0.18651
1824.33135,0.18963
1826.25982,0.18898
1828.18829,0.19131
1830.11676,0.19210
1832.04523,0.18725
1833.97369,0.18460
1835.90216,0.18405
1837.83063,0.18264
1839.75910,0.18304
1841.68757,0.18729
1843.61604,0.19281
1845.54451,0.19332
1847.47298,0.18890
1849.40144,0.18466
1851.32991,0.18149
1853.25838,0.17944
1855.18685,0.18077
1857.11532,0.18459
1859.04379,0.18687
1860.97226,0.18686
1862.90072,0.18649
1864.82919,0.18817
1866.75766,0.19376
1868.68613,0.19788
1870.61460,0.19184
1872.54307,0.18299
1874.47154,0.17926
1876.40001,0.17926
1878.32847,0.18041
1880.25694,0.18148
1882.18541,0.18275
1884.11388,0.18489
1886.04235,0.18624
1887.97082,0.18774
1889.89929,0.18874
1891.82775,0.18668
1893.75622,0.18527
1895.68469,0.18514
1897.61316,0.18384
1899.54163,0.18235
1901.47010,0.18116
1903.39857,0.17938
1905.32704,0.17776
1907.25550,0.17869
1909.18397,0.17956
1911.11244,0.17739
1913.04091,0.17732
1914.96938,0.18119
1916.89785,0.18522
1918.82632,0.18853
1920.75478,0.19233
1922.68325,0.19426
1924.61172,0.19087
1926.54019,0.18558
1928.46866,0.18324
1930.39713,0.18286
1932.32560,0.18210
1934.25407,0.18096
1936.18253,0.17944
1938.11100,0.18036
1940.03947,0.18598
1941.96794,0.19077
1943.89641,0.19009
1945.82488,0.18689
1947.75335,0.18358
1949.68181,0.18205
1951.61028,0.18257
1953.53875,0.18304
1955.46722,0.18351
1957.39569,0.18372
1959.32416,0.18363
1961.25263,0.18421
1963.18110,0.18472
1965.10956,0.18555
1967.03803,0.18630
1968.96650,0.18497
1970.89497,0.18315
1972.82344,0.18278
1974.75191,0.18058
1976.68038,0.17243
1978.60884,0.16594
1980.53731,0.17184
1982.46578,0.18297
1984.39425,0.18816
1986.32272,0.18762
1988.25119,0.18461
1990.17966,0.18433
1992.10812,0.18743
1994.03659,0.18802
1995.96506,0.18666
1997.89353,0.18536
1999.82200,0.18283
2001.75047,0.18036
2003.67894,0.17959
2005.60741,0.17945
2007.53587,0.17965
2009.46434,0.18055
2011.39281,0.18126
2013.32128,0.18186
2015.24975,0.18417
2017.17822,0.18772
2019.10669,0.19011
2021.03515,0.19120
2022.96362,0.18988
2024.89209,0.18649
2026.82056,0.18514
2028.74903,0.18547
2030.67750,0.18495
2032.60597,0.18507
2034.53444,0.18615
2036.46290,0.18572
2038.39137,0.18445
2040.31984,0.18429
2042.24831,0.18551
2044.17678,0.18710
2046.10525,0.18660
2048.03372,0.18457
2049.96218,0.18308
2051.89065,0.18190
2053.81912,0.18213
2055.74759,0.18409
2057.67606,0.18475
2059.60453,0.18396
2061.53300,0.18392
2063.46147,0.18466
2065.38993,0.18544
2067.31840,0.18545
2069.24687,0.18557
2071.17534,0.18691
2073.10381,0.18729
2075.03228,0.18613
2076.96075,0.18601
2078.88921,0.18702
2080.81768,0.18640
2082.74615,0.18361
2084.67462,0.18200
2086.60309,0.18343
2088.53156,0.18503
2090.46003,0.18508
2092.38850,0.18513
2094.31696,0.18588
2096.24543,0.18636
2098.17390,0.18579
2100.10237,0.18445
2102.03084,0.18413
2103.95931,0.18569
2105.88778,0.18645
2107.81624,0.18545
2109.74471,0.18581
2111.67318,0.18812
2113.60165,0.18962
2115.53012,0.18940
2117.45859,0.18815
2119.38706,0.18637
2121.31553,0.18625
2123.24399,0.18887
2125.17246,0.19168
2127.10093,0.19224
2129.02940,0.19122
2130.95787,0.19077
2132.88634,0.19006
2134.81481,0.18792
2136.74327,0.18679
2138.67174,0.18828
2140.60021,0.18965
2142.52868,0.18789
2144.45715,0.18491
2146.38562,0.18425
2148.31409,0.18482
2150.24255,0.18494
2152.17102,0.18624
2154.09949,0.18870
2156.02796,0.18957
2157.95643,0.18916
2159.88490,0.18943
2161.81337,0.18879
2163.74184,0.18679
2165.67030,0.18659
2167.59877,0.18847
2169.52724,0.18876
2171.45571,0.18661
2173.38418,0.18601
2175.31265,0.18750
2177.24112,0.18760
2179.16958,0.18629
2181.09805,0.18582
2183.02652,0.18708
2184.95499,0.18926
2186.88346,0.19042
2188.81193,0.18982
2190.74040,0.18749
2192.66887,0.18392
2194.59733,0.18271
2196.52580,0.18479
2198.45427,0.18571
2200.38274,0.18513
2202.31121,0.18607
2204.23968,0.18802
2206.16815,0.18929
2208.09661,0.18948
2210.02508,0.18864
2211.95355,0.18815
2213.88202,0.18841
2215.81049,0.18836
2217.73896,0.18864
2219.66743,0.18943
2221.59590,0.19024
2223.52436,0.19160
2225.45283,0.19276
2227.38130,0.19129
2229.30977,0.18860
2231.23824,0.18893
2233.16671,0.18946
2235.09518,0.18714
2237.02364,0.18588
2238.95211,0.18775
2240.88058,0.19097
2242.80905,0.19291
2244.73752,0.19192
2246.66599,0.18996
2248.59446,0.18980
2250.52293,0.19038
2252.45139,0.19010
2254.37986,0.18972
2256.30833,0.18937
2258.23680,0.18899
2260.16527,0.18938
2262.09374,0.19030
2264.02221,0.19072
2265.95067,0.19118
2267.87914,0.19199
2269.80761,0.19199
2271.73608,0.19149
2273.66455,0.19079
2275.59302,0.19010
2277.52149,0.19078
2279.44996,0.19177
2281.37842,0.19192
2283.30689,0.19253
2285.23536,0.19365
2287.16383,0.19345
2289.09230,0.19147
2291.02077,0.18933
2292.94924,0.18786
2294.87770,0.18751
2296.80617,0.18889
2298.73464,0.19023
2300.66311,0.19015
2302.59158,0.18990
2304.52005,0.19115
2306.44852,0.19451
2308.37699,0.19931
2310.30545,0.20454
2312.23392,0.20856
2314.16239,0.20856
2316.09086,0.20697
2318.01933,0.20997
2319.94780,0.21558
2321.87627,0.21749
2323.80473,0.21785
2325.73320,0.22282
2327.66167,0.23067
2329.59014,0.23331
2331.51861,0.22798
2333.44708,0.22375
2335.37555,0.22927
2337.30401,0.23817
2339.23248,0.23945
2341.16095,0.23656
2343.08942,0.23800
2345.01789,0.23650
2346.94636,0.22793
2348.87483,0.22395
2350.80330,0.22887
2352.73176,0.23911
2354.66023,0.24680
2356.58870,0.25172
2358.51717,0.26976
2360.44564,0.28973
2362.37411,0.27966
2364.30258,0.25611
2366.23104,0.24975
2368.15951,0.25101
2370.08798,0.24194
2372.01645,0.22821
2373.94492,0.21941
2375.87339,0.21542
2377.80186,0.21214
2379.73033,0.20613
2381.65879,0.19858
2383.58726,0.19195
2385.51573,0.18724
2387.44420,0.18644
2389.37267,0.18948
2391.30114,0.19239
2393.22961,0.19299
2395.15807,0.19284
2397.08654,0.19296
2399.01501,0.19246
2400.94348,0.19163
2402.87195,0.19155
2404.80042,0.19172
2406.72889,0.19179
2408.65736,0.19168
2410.58582,0.19082
2412.51429,0.18945
2414.44276,0.18723
2416.37123,0.18529
2418.29970,0.18751
2420.22817,0.19193
2422.15664,0.19202
2424.08510,0.18927
2426.01357,0.18864
2427.94204,0.18887
2429.87051,0.18894
2431.79898,0.19049
2433.72745,0.19158
2435.65592,0.18985
2437.58439,0.18765
2439.51285,0.18739
2441.44132,0.18871
2443.36979,0.19019
2445.29826,0.19080
2447.22673,0.19037
2449.15520,0.18921
2451.08367,0.18932
2453.01213,0.19110
2454.94060,0.19068
2456.86907,0.18878
2458.79754,0.18995
2460.72601,0.19336
2462.65448,0.19599
2464.58295,0.19584
2466.51142,0.19282
2468.43988,0.19029
2470.36835,0.18969
2472.29682,0.18954
2474.22529,0.19028
2476.15376,0.19208
2478.08223,0.19272
2480.01070,0.19201
2481.93916,0.19213
2483.86763,0.19271
2485.79610,0.19094
2487.72457,0.18868
2489.65304,0.19030
2491.58151,0.19340
2493.50998,0.19403
2495.43844,0.19214
2497.36691,0.19039
2499.29538,0.19209
2501.22385,0.19545
2503.15232,0.19773
2505.08079,0.19862
2507.00926,0.19608
2508.93773,0.19186
2510.86619,0.19092
2512.79466,0.19156
2514.72313,0.19099
2516.65160,0.19090
2518.58007,0.19074
2520.50854,0.19001
2522.43701,0.19023
2524.36547,0.19140
2526.29394,0.19285
2528.22241,0.19366
2530.15088,0.19359
2532.07935,0.19306
2534.00782,0.19230
2535.93629,0.19266
2537.86476,0.19485
2539.79322,0.19545
2541.72169,0.19273
2543.65016,0.19032
2545.57863,0.19062
2547.50710,0.19234
2549.43557,0.19232
2551.36404,0.19078
2553.29250,0.19164
2555.22097,0.19466
2557.14944,0.19648
2559.07791,0.19570
2561.00638,0.19377
2562.93485,0.19269
2564.86332,0.19280
2566.79179,0.19360
2568.72025,0.19380
2570.64872,0.19489
2572.57719,0.19773
2574.50566,0.19760
2576.43413,0.19520
2578.36260,0.19508
2580.29107,0.19577
2582.21953,0.19664
2584.14800,0.19791
2586.07647,0.19712
2588.00494,0.19423
2589.93341,0.19168
2591.86188,0.19062
2593.79035,0.19016
2595.71882,0.19043
2597.64728,0.19199
2599.57575,0.19305
2601.50422,0.19338
2603.43269,0.19384
2605.36116,0.19440
2607.28963,0.19576
2609.21810,0.19803
2611.14656,0.19996
2613.07503,0.19924
2615.00350,0.19589
2616.93197,0.19309
2618.86044,0.19199
2620.78891,0.19313
2622.71738,0.19675
2624.64585,0.19946
2626.57431,0.19864
2628.50278,0.19635
2630.43125,0.19675
2632.35972,0.19902
2634.28819,0.19928
2636.21666,0.19889
2638.14513,0.19920
2640.07359,0.19838
2642.00206,0.19663
2643.93053,0.19487
2645.85900,0.19349
2647.78747,0.19400
2649.71594,0.19621
2651.64441,0.19751
2653.57288,0.19645
2655.50134,0.19382
2657.42981,0.19266
2659.35828,0.19396
2661.28675,0.19488
2663.21522,0.19528
2665.14369,0.19664
2667.07216,0.19749
2669.00062,0.19723
2670.92909,0.19746
2672.85756,0.19721
2674.78603,0.19652
2676.71450,0.19831
2678.64297,0.20089
2680.57144,0.20157
2682.49990,0.20194
2684.42837,0.20288
2686.35684,0.20284
2688.28531,0.20199
2690.21378,0.20212
2692.14225,0.20241
2694.07072,0.20165
2695.99919,0.19987
2697.92765,0.19755
2699.85612,0.19739
2701.78459,0.19994
2703.71306,0.20236
2705.64153,0.20354
2707.57000,0.20293
2709.49847,0.20091
2711.42693,0.20034
2713.35540,0.20114
2715.28387,0.20130
2717.21234,0.20195
2719.14081,0.20309
2721.06928,0.20201
2722.99775,0.19937
2724.92622,0.19916
2726.85468,0.20241
2728.78315,0.20570
2730.71162,0.20507
2732.64009,0.20060
2734.56856,0.19685
2736.49703,0.19693
2738.42550,0.19940
2740.35396,0.20137
2742.28243,0.20248
2744.21090,0.20404
2746.13937,0.20479
2748.06784,0.20234
2749.99631,0.19957
2751.92478,0.20167
2753.85325,0.20553
2755.78171,0.20529
2757.71018,0.20331
2759.63865,0.20274
2761.56712,0.20259
2763.49559,0.20328
2765.42406,0.20439
2767.35253,0.20443
2769.28099,0.20493
2771.20946,0.20542
2773.13793,0.20488
2775.06640,0.20451
2776.99487,0.20359
2778.92334,0.20320
2780.85181,0.20563
2782.78028,0.20889
2784.70874,0.20911
2786.63721,0.20622
2788.56568,0.20356
2790.49415,0.20239
2792.42262,0.20385
2794.35109,0.20723
2796.27956,0.20678
2798.20802,0.20208
2800.13649,0.19965
2802.06496,0.20085
2803.99343,0.20187
2805.92190,0.20232
2807.85037,0.20434
2809.77884,0.20792
2811.70731,0.21200
2813.63577,0.21461
2815.56424,0.21372
2817.49271,0.21042
2819.42118,0.20812
2821.34965,0.20912
2823.27812,0.21183
2825.20659,0.21245
2827.13505,0.20972
2829.06352,0.20686
2830.99199,0.20778
2832.92046,0.21057
2834.84893,0.21018
2836.77740,0.20780
2838.70587,0.20792
2840.63433,0.20907
2842.56280,0.20825
2844.49127,0.20744
2846.41974,0.20805
2848.34821,0.20732
2850.27668,0.20516
2852.20515,0.20398
2854.13362,0.20343
2856.06208,0.20216
2857.99055,0.20063
2859.91902,0.20210
2861.84749,0.20514
2863.77596,0.20521
2865.70443,0.20487
2867.63290,0.20510
2869.56136,0.20289
2871.48983,0.20139
2873.41830,0.20318
2875.34677,0.20520
2877.27524,0.20754
2879.20371,0.21072
2881.13218,0.21054
2883.06065,0.20506
2884.98911,0.19973
2886.91758,0.20146
2888.84605,0.20737
2890.77452,0.21031
2892.70299,0.20775
2894.63146,0.20205
2896.55993,0.20027
2898.48839,0.20386
2900.41686,0.20638
2902.34533,0.20446
2904.27380,0.20010
2906.20227,0.19814
2908.13074,0.20069
2910.05921,0.20357
2911.98768,0.20415
2913.91614,0.19927
2915.84461,0.18851
2917.77308,0.18536
2919.70155,0.19278
2921.63002,0.19866
2923.55849,0.19868
2925.48696,0.19334
2927.41542,0.19104
2929.34389,0.19992
2931.27236,0.20958
2933.20083,0.20813
2935.12930,0.19551
2937.05777,0.18258
2938.98624,0.18579
2940.91471,0.20138
2942.84317,0.21050
2944.77164,0.20381
2946.70011,0.18628
2948.62858,0.17925
2950.55705,0.18997
2952.48552,0.20083
2954.41399,0.19946
2956.34245,0.18288
2958.27092,0.17090
2960.19939,0.18430
2962.12786,0.20295
2964.05633,0.20597
2965.98480,0.19736
2967.91327,0.18815
2969.84174,0.19262
2971.77020,0.20752
2973.69867,0.21575
2975.62714,0.20962
2977.55561,0.19436
2979.48408,0.18913
2981.41255,0.20104
2983.34102,0.21462
2985.26948,0.21587
2987.19795,0.20383
2989.12642,0.19600
2991.05489,0.20381
2992.98336,0.21272
2994.91183,0.21150
2996.84030,0.20586
2998.76877,0.20559
3000.69723,0.21249
3002.62570,0.21709
3004.55417,0.21367
3006.48264,0.20601
3008.41111,0.19610
3010.33958,0.17811
3012.26805,0.14390
3014.19651,0.09600
3016.12498,0.06346
3018.05345,0.08629
3019.98192,0.15187
3021.91039,0.20219
3023.83886,0.21624
3025.76733,0.21135
3027.69579,0.20427
3029.62426,0.20453
3031.55273,0.20963
3033.48120,0.21363
3035.40967,0.21396
3037.33814,0.21073
3039.26661,0.21036
3041.19508,0.21193
3043.12354,0.21029
3045.05201,0.20619
3046.98048,0.20213
3048.90895,0.20552
3050.83742,0.21402
3052.76589,0.21371
3054.69436,0.19941
3056.62282,0.18273
3058.55129,0.18495
3060.47976,0.20286
3062.40823,0.21247
3064.33670,0.20485
3066.26517,0.19159
3068.19364,0.19255
3070.12211,0.20572
3072.05057,0.21061
3073.97904,0.19918
3075.90751,0.18480
3077.83598,0.18931
3079.76445,0.20456
3081.69292,0.20469
3083.62139,0.18779
3085.54985,0.17557
3087.47832,0.18640
3089.40679,0.20574
3091.33526,0.20904
3093.26373,0.19386
3095.19220,0.18281
3097.12067,0.19381
3099.04914,0.20759
3100.97760,0.20417
3102.90607,0.19028
3104.83454,0.18627
3106.76301,0.19816
3108.69148,0.20846
3110.61995,0.20351
3112.54842,0.19046
3114.47688,0.19138
3116.40535,0.20655
3118.33382,0.21220
3120.26229,0.19946
3122.19076,0.18559
3124.11923,0.19170
3126.04770,0.20762
3127.97617,0.21085
3129.90463,0.20332
3131.83310,0.20099
3133.76157,0.20779
3135.69004,0.21335
3137.61851,0.20940
3139.54698,0.20089
3141.47545,0.20179
3143.40391,0.20981
3145.33238,0.21064
3147.26085,0.20459
3149.18932,0.20304
3151.11779,0.21005
3153.04626,0.21733
3154.97473,0.21890
3156.90320,0.21861
3158.83166,0.22009
3160.76013,0.22116
3162.68860,0.22147
3164.61707,0.22120
3166.54554,0.21702
3168.47401,0.21048
3170.40248,0.20795
3172.33094,0.21135
3174.25941,0.21461
3176.18788,0.21363
3178.11635,0.21243
3180.04482,0.21385
3181.97329,0.21547
3183.90176,0.21715
3185.83022,0.21897
3187.75869,0.21749
3189.68716,0.21537
3191.61563,0.21679
3193.54410,0.21954
3195.47257,0.22161
3197.40104,0.22108
3199.32951,0.21590
3201.25797,0.21113
3203.18644,0.21440
3205.11491,0.22198
3207.04338,0.22502
3208.97185,0.22221
3210.90032,0.21542
3212.82879,0.20990
3214.75725,0.20904
3216.68572,0.20825
3218.61419,0.20751
3220.54266,0.20782
3222.47113,0.20691
3224.39960,0.20826
3226.32807,0.21320
3228.25654,0.21858
3230.18500,0.22295
3232.11347,0.22417
3234.04194,0.22191
3235.97041,0.21706
3237.89888,0.21072
3239.82735,0.20901
3241.75582,0.21484
3243.68428,0.22028
3245.61275,0.21969
3247.54122,0.21941
3249.46969,0.22204
3251.39816,0.22136
3253.32663,0.21655
3255.25510,0.21155
3257.18357,0.20936
3259.11203,0.20819
3261.04050,0.20631
3262.96897,0.20775
3264.89744,0.21178
3266.82591,0.21404
3268.75438,0.21370
3270.68285,0.21349
3272.61131,0.21367
3274.53978,0.20967
3276.46825,0.20383
3278.39672,0.20124
3280.32519,0.20162
3282.25366,0.20515
3284.18213,0.21136
3286.11060,0.21765
3288.03906,0.22118
3289.96753,0.21986
3291.89600,0.21674
3293.82447,0.21637
3295.75294,0.21808
3297.68141,0.22023
3299.60988,0.22139
3301.53834,0.21894
3303.46681,0.21409
3305.39528,0.21145
3307.32375,0.21202
3309.25222,0.21363
3311.18069,0.21356
3313.10916,0.21069
3315.03763,0.20757
3316.96609,0.20583
3318.89456,0.20664
3320.82303,0.21095
3322.75150,0.21664
3324.67997,0.22189
3326.60844,0.22406
3328.53691,0.22134
3330.46537,0.21842
3332.39384,0.21861
3334.32231,0.21817
3336.25078,0.21478
3338.17925,0.21324
3340.10772,0.21708
3342.03619,0.22024
3343.96466,0.21669
3345.89312,0.21206
3347.82159,0.21443
3349.75006,0.21886
3351.67853,0.21615
3353.60700,0.21020
3355.53547,0.20872
3357.46394,0.21118
3359.39240,0.21416
3361.32087,0.21691
3363.24934,0.22050
3365.17781,0.22245
3367.10628,0.21980
3369.03475,0.21517
3370.96322,0.21145
3372.89168,0.21177
3374.82015,0.21818
3376.74862,0.22540
3378.67709,0.22666
3380.60556,0.22181
3382.53403,0.21625
3384.46250,0.21283
3386.39097,0.21051
3388.31943,0.21071
3390.24790,0.21460
3392.17637,0.21817
3394.10484,0.21875
3396.03331,0.21964
3397.96178,0.22199
3399.89025,0.22158
3401.81871,0.21517
3403.74718,0.20814
3405.67565,0.20687
3407.60412,0.20931
3409.53259,0.21336
3411.46106,0.21560
3413.38953,0.21380
3415.31800,0.21374
3417.24646,0.21674
3419.17493,0.21802
3421.10340,0.21507
3423.03187,0.20857
3424.96034,0.20406
3426.88881,0.20456
3428.81728,0.20631
3430.74574,0.20926
3432.67421,0.21171
3434.60268,0.20868
3436.53115,0.20513
3438.45962,0.20509
3440.38809,0.20542
3442.31656,0.20502
3444.24503,0.20372
3446.17349,0.20313
3448.10196,0.20322
3450.03043,0.19920
3451.95890,0.19318
3453.88737,0.19045
3455.81584,0.19186
3457.74431,0.19711
3459.67277,0.20185
3461.60124,0.20145
3463.52971,0.19834
3465.45818,0.19628
3467.38665,0.19633
3469.31512,0.19717
3471.24359,0.19529
3473.17206,0.19158
3475.10052,0.19065
3477.02899,0.19102
3478.95746,0.19185
3480.88593,0.19666
3482.81440,0.19991
3484.74287,0.19591
3486.67134,0.19250
3488.59980,0.19526
3490.52827,0.19733
3492.45674,0.19267
3494.38521,0.18625
3496.31368,0.18535
3498.24215,0.18755
3500.17062,0.18889
3502.09909,0.19008
3504.02755,0.18832
3505.95602,0.18384
3507.88449,0.18213
3509.81296,0.18317
3511.74143,0.18282
3513.66990,0.17969
3515.59837,0.17723
3517.52683,0.17841
3519.45530,0.18086
3521.38377,0.18249
3523.31224,0.18580
3525.24071,0.19040
3527.16918,0.19060
3529.09765,0.18454
3531.02611,0.17781
3532.95458,0.17454
3534.88305,0.17077
3536.81152,0.16355
3538.73999,0.15884
3540.66846,0.16204
3542.59693,0.17130
3544.52540,0.18088
3546.45386,0.18359
3548.38233,0.17554
3550.31080,0.16454
3552.23927,0.16053
3554.16774,0.16262
3556.09621,0.16535
3558.02468,0.16742
3559.95314,0.16822
3561.88161,0.16875
3563.81008,0.17478
3565.73855,0.18776
3567.66702,0.19199
3569.59549,0.18203
3571.52396,0.17307
3573.45243,0.16789
3575.38089,0.16535
3577.30936,0.16510
3579.23783,0.16248
3581.16630,0.15687
3583.09477,0.15650
3585.02324,0.16320
3586.95171,0.16819
3588.88017,0.16579
3590.80864,0.16363
3592.73711,0.16417
3594.66558,0.16319
3596.59405,0.16049
3598.52252,0.15912
3600.45099,0.15971
3602.37946,0.16089
3604.30792,0.16016
3606.23639,0.15774
3608.16486,0.15565
3610.09333,0.15706
3612.02180,0.16305
3613.95027,0.16738
3615.87874,0.16629
3617.80720,0.16702
3619.73567,0.16856
3621.66414,0.16136
3623.59261,0.15270
3625.52108,0.15098
3627.44955,0.15668
3629.37802,0.16178
3631.30649,0.15859
3633.23495,0.15420
3635.16342,0.14851
3637.09189,0.14259
3639.02036,0.14098
3640.94883,0.14255
3642.87730,0.14442
3644.80577,0.14821
3646.73423,0.15731
3648.66270,0.16597
3650.59117,0.15585
3652.51964,0.14373
3654.44811,0.14382
3656.37658,0.14662
3658.30505,0.14107
3660.23352,0.13340
3662.16198,0.12901
3664.09045,0.12764
3666.01892,0.13129
3667.94739,0.14209
3669.87586,0.15367
3671.80433,0.15641
3673.73280,0.16079
3675.66126,0.16625
3677.58973,0.15766
3679.51820,0.14699
3681.44667,0.14213
3683.37514,0.13828
3685.30361,0.13458
3687.23208,0.13727
3689.16055,0.14461
3691.08901,0.14171
3693.01748,0.13310
3694.94595,0.12876
3696.87442,0.12800
3698.80289,0.13081
3700.73136,0.13904
3702.65983,0.14542
3704.58829,0.14357
3706.51676,0.14009
3708.44523,0.13800
3710.37370,0.13589
3712.30217,0.13392
3714.23064,0.13283
3716.15911,0.13370
3718.08757,0.13678
3720.01604,0.14028
3721.94451,0.14444
3723.87298,0.14864
3725.80145,0.14767
3727.72992,0.14239
3729.65839,0.13970
3731.58686,0.14468
3733.51532,0.15691
3735.44379,0.15926
3737.37226,0.14787
3739.30073,0.14165
3741.22920,0.14284
3743.15767,0.15189
3745.08614,0.16581
3747.01460,0.17070
3748.94307,0.17291
3750.87154,0.17059
3752.80001,0.15366
3754.72848,0.13936
3756.65695,0.13491
3758.58542,0.13456
3760.51389,0.12967
3762.44235,0.12378
3764.37082,0.12341
3766.29929,0.12447
3768.22776,0.12429
3770.15623,0.12653
3772.08470,0.12662
3774.01317,0.12285
3775.94163,0.12228
3777.87010,0.12748
3779.79857,0.13203
3781.72704,0.13151
3783.65551,0.13018
3785.58398,0.12750
3787.51245,0.12150
3789.44092,0.11668
3791.36938,0.11678
3793.29785,0.12198
3795.22632,0.12842
3797.15479,0.12983
3799.08326,0.13236
3801.01173,0.14261
3802.94020,0.14518
3804.86866,0.13889
3806.79713,0.13305
3808.72560,0.12923
3810.65407,0.12925
3812.58254,0.13140
3814.51101,0.13499
3816.43948,0.13965
3818.36795,0.14416
3820.29641,0.14534
3822.22488,0.13738
3824.15335,0.13121
3826.08182,0.12868
3828.01029,0.12461
3829.93876,0.12128
3831.86723,0.11971
3833.79569,0.12245
3835.72416,0.13252
3837.65263,0.14274
3839.58110,0.14293
3841.50957,0.13768
3843.43804,0.13179
3845.36651,0.12643
3847.29498,0.12415
3849.22344,0.12559
3851.15191,0.13058
3853.08038,0.13529
3855.00885,0.13133
3856.93732,0.12399
3858.86579,0.11691
3860.79426,0.11456
3862.72272,0.12156
3864.65119,0.13022
3866.57966,0.12971
3868.50813,0.12490
3870.43660,0.12189
3872.36507,0.12180
3874.29354,0.12083
3876.22200,0.11661
3878.15047,0.11365
3880.07894,0.11559
3882.00741,0.11942
3883.93588,0.12091
3885.86435,0.11885
3887.79282,0.11776
3889.72129,0.12404
3891.64975,0.13202
3893.57822,0.12984
3895.50669,0.12446
3897.43516,0.12482
3899.36363,0.12842
3901.29210,0.12841
3903.22057,0.12296
3905.14903,0.11354
3907.07750,0.10614
3909.00597,0.10361
3910.93444,0.10363
3912.86291,0.10638
3914.79138,0.11064
3916.71985,0.11182
3918.64832,0.11120
3920.57678,0.11289
3922.50525,0.11580
3924.43372,0.11504
3926.36219,0.11069
3928.29066,0.10959
3930.21913,0.11166
3932.14760,0.11460
3934.07606,0.11654
3936.00453,0.11456
3937.93300,0.11220
3939.86147,0.11322
3941.78994,0.11587
3943.71841,0.11675
3945.64688,0.11380
3947.57535,0.10768
3949.50381,0.10223
3951.43228,0.10190
3953.36075,0.10483
3955.28922,0.10782
3957.21769,0.10862
3959.14616,0.10317
3961.07463,0.09622
3963.00309,0.09482
3964.93156,0.09592
3966.86003,0.09854
3968.78850,0.10162
3970.71697,0.10164
3972.64544,0.10019
3974.57391,0.09833
3976.50238,0.09711
3978.43084,0.09705
3980.35931,0.09726
3982.28778,0.09796
3984.21625,0.09786
3986.14472,0.09818
3988.07319,0.10083
3990.00166,0.10231
3991.93012,0.10132
3993.85859,0.09911
3995.78706,0.09324
3997.71553,0.08594
3999.64400,0.08395
4001.57247,0.08907
4003.50094,0.09476
4005.42941,0.09331
4007.35787,0.09024
4009.28634,0.09084
4011.21481,0.09001
4013.14328,0.08858
4015.07175,0.09032
4017.00022,0.09386
4018.92869,0.09591
4020.85715,0.09593
4022.78562,0.09770
4024.71409,0.10047
4026.64256,0.10093
4028.57103,0.10086
4030.49950,0.10017
4032.42797,0.09708
4034.35644,0.09348
4036.28490,0.09122
4038.21337,0.08991
4040.14184,0.08893
4042.07031,0.08709
4043.99878,0.08240
4045.92725,0.07827
4047.85572,0.08009
4049.78418,0.08390
4051.71265,0.08422
4053.64112,0.08458
4055.56959,0.08757
4057.49806,0.08708
4059.42653,0.08049
4061.35500,0.07399
4063.28346,0.07422
4065.21193,0.08046
4067.14040,0.08804
4069.06887,0.09351
4070.99734,0.09156
4072.92581,0.08536
4074.85428,0.08503
4076.78275,0.08848
4078.71121,0.08898
4080.63968,0.08721
4082.56815,0.08412
4084.49662,0.08018
4086.42509,0.07955
4088.35356,0.08141
4090.28203,0.08158
4092.21049,0.08294
4094.13896,0.08659
4096.06743,0.08944
4097.99590,0.09111
4099.92437,0.09016
4101.85284,0.08476
4103.78131,0.07838
4105.70978,0.07758
4107.63824,0.08203
4109.56671,0.08458
4111.49518,0.08360
4113.42365,0.08073
4115.35212,0.07643
4117.28059,0.07512
4119.20906,0.07887
4121.13752,0.08221
4123.06599,0.08153
4124.99446,0.08029
4126.92293,0.08110
4128.85140,0.08104
4130.77987,0.07894
4132.70834,0.07689
4134.63681,0.07468
4136.56527,0.07321
4138.49374,0.07270
4140.42221,0.07089
4142.35068,0.07107
4144.27915,0.07499
4146.20762,0.07900
4148.13609,0.08035
4150.06455,0.07795
4151.99302,0.07343
4153.92149,0.07101
4155.84996,0.07431
4157.77843,0.07794
4159.70690,0.07494
4161.63537,0.07090
4163.56384,0.07206
4165.49230,0.07488
4167.42077,0.07354
4169.34924,0.06813
4171.27771,0.06456
4173.20618,0.06497
4175.13465,0.06431
4177.06312,0.06172
4178.99158,0.06122
4180.92005,0.06007
4182.84852,0.05512
4184.77699,0.05372
4186.70546,0.05960
4188.63393,0.06298
4190.56240,0.05889
4192.49087,0.05374
4194.41933,0.05181
4196.34780,0.05299
4198.27627,0.05545
4200.20474,0.05560
4202.13321,0.05403
4204.06168,0.05522
4205.99015,0.05881
4207.91861,0.05983
4209.84708,0.05771
4211.77555,0.05731
4213.70402,0.05597
4215.63249,0.04832
4217.56096,0.04270
4219.48943,0.04775
4221.41789,0.05545
4223.34636,0.05495
4225.27483,0.05169
4227.20330,0.05354
4229.13177,0.05608
4231.06024,0.05682
4232.98871,0.05848
4234.91718,0.06001
4236.84564,0.05989
4238.77411,0.05898
4240.70258,0.05754
4242.63105,0.05470
4244.55952,0.05119
4246.48799,0.05227
4248.41646,0.05872
4250.34492,0.06178
4252.27339,0.05809
4254.20186,0.05354
4256.13033,0.05128
4258.05880,0.04959
4259.98727,0.04702
4261.91574,0.04209
4263.84421,0.03493
4265.77267,0.03022
4267.70114,0.03224
4269.62961,0.04169
4271.55808,0.05342
4273.48655,0.05803
4275.41502,0.05622
4277.34349,0.05429
4279.27195,0.04899
4281.20042,0.04009
4283.12889,0.03626
4285.05736,0.03989
4286.98583,0.04524
4288.91430,0.05077
4290.84277,0.05487
4292.77124,0.05013
4294.69970,0.04185
4296.62817,0.04201
4298.55664,0.04738
4300.48511,0.04844
4302.41358,0.04273
4304.34205,0.03446
4306.27052,0.02923
4308.19898,0.02936
4310.12745,0.03291
4312.05592,0.03403
4313.98439,0.02938
4315.91286,0.02613
4317.84133,0.02821
4319.76980,0.02985
4321.69827,0.03350
4323.62673,0.04108
4325.55520,0.04632
4327.48367,0.04588
4329.41214,0.04085
4331.34061,0.03908
4333.26908,0.04222
4335.19755,0.04251
4337.12601,0.03962
4339.05448,0.03743
4340.98295,0.03586
4342.91142,0.03147
4344.83989,0.02528
4346.76836,0.02345
4348.69683,0.02547
4350.62530,0.02582
4352.55376,0.02314
4354.48223,0.02201
4356.41070,0.02558
4358.33917,0.02825
4360.26764,0.02751
4362.19611,0.03051
4364.12458,0.03701
4366.05304,0.03638
4367.98151,0.02820
4369.90998,0.02329
4371.83845,0.02273
4373.76692,0.02173
4375.69539,0.02227
4377.62386,0.02399
4379.55232,0.02309
4381.48079,0.01857
4383.40926,0.01728
4385.33773,0.02460
4387.26620,0.03017
4389.19467,0.02610
4391.12314,0.02013
4393.05161,0.02107
4394.98007,0.02603
4396.90854,0.02532
4398.83701,0.01558
4400.76548,0.00299
4402.69395,-0.00321
4404.62242,-0.00235
4406.55089,0.00106
4408.47935,0.00586
4410.40782,0.01068
4412.33629,0.01609
4414.26476,0.02215
4416.19323,0.02440
4418.12170,0.01879
4420.05017,0.00984
4421.97864,0.01126
4423.90710,0.02083
4425.83557,0.02390
4427.76404,0.02276
4429.69251,0.02239
4431.62098,0.02023
4433.54945,0.01907
4435.47792,0.02026
4437.40638,0.01862
4439.33485,0.01514
4441.26332,0.01475
4443.19179,0.01396
4445.12026,0.01240
4447.04873,0.01453
4448.97720,0.01713
4450.90567,0.01756
4452.83413,0.01863
4454.76260,0.02176
4456.69107,0.02705
4458.61954,0.02959
4460.54801,0.02224
4462.47648,0.01010
4464.40495,0.00533
4466.33341,0.01073
4468.26188,0.01549
4470.19035,0.01177
4472.11882,0.00360
4474.04729,-0.00535
4475.97576,-0.00994
4477.90423,-0.00536
4479.83270,0.00480
4481.76116,0.01296
4483.68963,0.01504
4485.61810,0.01459
4487.54657,0.01313
4489.47504,0.00995
4491.40351,0.00689
4493.33198,0.00165
4495.26044,-0.00510
4497.18891,-0.00555
4499.11738,0.00302
4501.04585,0.01106
4502.97432,0.00526
4504.90279,-0.00762
4506.83126,-0.01033
4508.75973,-0.00329
4510.68819,0.00503
4512.61666,0.00778
4514.54513,0.00448
4516.47360,0.00234
4518.40207,0.00555
4520.33054,0.00996
4522.25901,0.00975
4524.18747,0.00879
4526.11594,0.00928
4528.04441,0.00642
4529.97288,0.00328
4531.90135,0.00788
4533.82982,0.01645
4535.75829,0.01675
4537.68676,0.00847
4539.61522,0.00275
4541.54369,0.00259
4543.47216,-0.00021
4545.40063,-0.00782
4547.32910,-0.00912
4549.25757,0.00133
4551.18604,0.01394
4553.11450,0.01751
4555.04297,0.00829
4556.97144,-0.00533
4558.89991,-0.00990
4560.82838,-0.00363
4562.75685,0.00160
4564.68532,-0.00278
4566.61378,-0.00812
4568.54225,-0.00604
4570.47072,-0.00291
4572.39919,-0.00395
4574.32766,-0.00564
4576.25613,-0.00074
4578.18460,0.01165
4580.11307,0.02305
4582.04153,0.02421
4583.97000,0.01638
4585.89847,0.01322
4587.82694,0.01637
4589.75541,0.01243
4591.68388,0.00429
4593.61235,0.00096
4595.54081,-0.00036
4597.46928,0.00268
4599.39775,0.01268
4601.32622,0.01709
4603.25469,0.01039
4605.18316,0.00857
4607.11163,0.01442
4609.04010,0.01357
4610.96856,0.00737
4612.89703,0.00485
4614.82550,0.00441
4616.75397,0.00271
4618.68244,-0.00025
4620.61091,-0.00064
4622.53938,0.00741
4624.46784,0.01760
4626.39631,0.01878
4628.32478,0.01165
4630.25325,0.00321
4632.18172,-0.00374
4634.11019,-0.00784
4636.03866,-0.00067
4637.96713,0.01131
4639.89559,0.00805
4641.82406,-0.00304
4643.75253,-0.00250
4645.68100,0.00695
4647.60947,0.01176
4649.53794,0.00906
4651.46641,0.00921
4653.39487,0.01429
4655.32334,0.01649
4657.25181,0.01405
4659.18028,0.00898
4661.10875,0.00490
4663.03722,0.00415
4664.96569,0.00190
4666.89416,-0.00269
4668.82262,-0.00143
4670.75109,0.00532
4672.67956,0.00591
4674.60803,0.00101
4676.53650,0.00150
4678.46497,0.00735
4680.39344,0.01247
4682.32190,0.01534
4684.25037,0.01588
4686.17884,0.01236
4688.10731,0.00245
4690.03578,-0.00929
4691.96425,-0.01416
4693.89272,-0.00969
4695.82119,0.00264
4697.74965,0.01488
4699.67812,0.01727
4701.60659,0.00941
4703.53506,-0.00194
4705.46353,-0.00661
4707.39200,-0.00194
4709.32047,-0.00014
4711.24893,-0.00587
4713.17740,-0.00871
4715.10587,-0.00825
4717.03434,-0.00845
4718.96281,-0.00789
4720.89128,-0.00828
4722.81975,-0.00483
4724.74821,0.00653
4726.67668,0.01409
4728.60515,0.01581
4730.53362,0.01023
4732.46209,-0.00262
4734.39056,-0.00996
4736.31903,-0.00737
4738.24750,0.00069
4740.17596,0.00698
4742.10443,0.00036
4744.03290,-0.01314
4745.96137,-0.01689
4747.88984,-0.01240
4749.81831,-0.00980
4751.74678,-0.00910
4753.67524,-0.00262
4755.60371,0.01166
4757.53218,0.01907
4759.46065,0.01443
4761.38912,0.01190
4763.31759,0.01012
4765.24606,-0.00005
4767.17453,-0.00547
4769.10299,0.00158
4771.03146,0.00762
4772.95993,0.00755
4774.88840,0.00602
4776.81687,0.00018
4778.74534,-0.01005
4780.67381,-0.00847
4782.60227,0.00926
4784.53074,0.01487
4786.45921,-0.00034
4788.38768,-0.00917
4790.31615,-0.00253
4792.24462,0.00155
4794.17309,-0.00738
4796.10156,-0.01720
4798.03002,-0.01495
4799.95849,-0.00599
4801.88696,-0.00168
4803.81543,-0.00307
4805.74390,-0.00101
4807.67237,0.00464
4809.60084,0.00685
4811.52930,0.00641
4813.45777,0.00758
4815.38624,0.00941
4817.31471,0.00936
4819.24318,0.00484
4821.17165,-0.00074
4823.10012,-0.00395
4825.02859,-0.00098
4826.95705,0.01290
4828.88552,0.02604
4830.81399,0.02409
4832.74246,0.01289
4834.67093,0.00974
4836.59940,0.01908
4838.52787,0.02368
4840.45633,0.01362
4842.38480,-0.00102
4844.31327,-0.01008
4846.24174,-0.00654
4848.17021,0.00873
4850.09868,0.01925
4852.02715,0.01606
4853.95562,0.00680
4855.88408,0.00237
4857.81255,0.00588
4859.74102,0.00519
4861.66949,0.00114
4863.59796,0.00983
4865.52643,0.01860
4867.45490,0.01106
4869.38336,0.00123
4871.31183,-0.00486
4873.24030,-0.00543
4875.16877,0.00883
4877.09724,0.02204
4879.02571,0.01827
4880.95418,0.01054
4882.88265,0.00840
4884.81111,0.00624
4886.73958,0.00319
4888.66805,0.00238
4890.59652,0.00487
4892.52499,0.00274
4894.45346,-0.00813
4896.38193,-0.01076
4898.31039,0.00130
4900.23886,0.00937
4902.16733,0.00283
4904.09580,-0.00872
4906.02427,-0.01528
4907.95274,-0.01409
4909.88121,-0.00676
4911.80967,-0.00462
4913.73814,-0.00903
4915.66661,-0.00713
4917.59508,0.00043
4919.52355,0.00300
4921.45202,0.00408
4923.38049,0.01217
4925.30896,0.01661
4927.23742,0.00768
4929.16589,-0.00663
4931.09436,-0.01357
4933.02283,-0.01045
4934.95130,-0.00730
4936.87977,-0.00560
4938.80824,0.00145
4940.73670,0.00841
4942.66517,0.01025
4944.59364,0.01378
4946.52211,0.01448
4948.45058,0.00739
4950.37905,0.00526
4952.30752,0.01013
4954.23599,0.01105
4956.16445,0.00482
4958.09292,0.00008
4960.02139,-0.00389
4961.94986,-0.01329
4963.87833,-0.01487
4965.80680,-0.00510
4967.73527,0.00053
4969.66373,-0.00176
4971.59220,-0.00061
4973.52067,0.00883
4975.44914,0.01229
4977.37761,0.00825
4979.30608,0.00408
4981.23455,0.00117
4983.16302,0.00836
4985.09148,0.01520
4987.01995,0.00835
4988.94842,0.00316
4990.87689,0.01089
4992.80536,0.02642
4994.73383,0.03687
4996.66230,0.03260
4998.59076,0.02187
5000.51923,0.01540
5002.44770,0.01132
5004.37617,0.00856
5006.30464,0.01026
5008.23311,0.01372
5010.16158,0.01889
5012.09005,0.02504
5014.01851,0.02426
5015.94698,0.01237
5017.87545,-0.00417
5019.80392,-0.01461
5021.73239,-0.01504
5023.66086,-0.00123
5025.58933,0.02105
5027.51779,0.03307
5029.44626,0.02943
5031.37473,0.01755
5033.30320,0.00636
5035.23167,0.00007
5037.16014,-0.00917
5039.08861,-0.02371
5041.01708,-0.02437
5042.94554,-0.01165
5044.87401,-0.00966
5046.80248,-0.01420
5048.73095,-0.00741
5050.65942,0.00728
5052.58789,0.01349
5054.51636,0.00980
5056.44482,0.00692
5058.37329,0.00628
5060.30176,0.00810
5062.23023,0.01085
5064.15870,0.00382
5066.08717,-0.01321
5068.01564,-0.02355
5069.94410,-0.01660
5071.87257,0.00186
5073.80104,0.01513
5075.72951,0.01371
5077.65798,0.00552
5079.58645,0.00125
5081.51492,0.00327
5083.44339,0.00913
5085.37185,0.01399
5087.30032,0.01402
5089.22879,0.01126
5091.15726,0.00795
5093.08573,0.00337
5095.01420,0.00291
5096.94267,0.01220
5098.87113,0.01828
5100.79960,0.01281
5102.72807,0.00681
5104.65654,0.00630
5106.58501,0.01194
5108.51348,0.01434
5110.44195,0.01287
5112.37042,0.02238
5114.29888,0.03611
5116.22735,0.04202
5118.15582,0.04243
5120.08429,0.03493
5122.01276,0.02510
5123.94123,0.03236
5125.86970,0.04922
5127.79816,0.04593
5129.72663,0.02530
5131.65510,0.01625
5133.58357,0.02430
5135.51204,0.02932
5137.44051,0.02687
5139.36898,0.02989
5141.29745,0.03931
5143.22591,0.04192
5145.15438,0.02913
5147.08285,0.01513
5149.01132,0.01798
5150.93979,0.03133
5152.86826,0.03621
5154.79673,0.02412
5156.72519,0.00605
5158.65366,0.00431
5160.58213,0.02085
5162.51060,0.03031
5164.43907,0.02211
5166.36754,0.01530
5168.29601,0.01580
5170.22448,0.01618
5172.15294,0.01014
5174.08141,0.00186
5176.00988,0.00768
5177.93835,0.01896
5179.86682,0.01741
5181.79529,0.01297
5183.72376,0.01559
5185.65222,0.01051
5187.58069,-0.00149
5189.50916,0.00300
5191.43763,0.02203
5193.36610,0.03879
5195.29457,0.04457
5197.22304,0.03935
5199.15151,0.02649
5201.07997,0.01457
5203.00844,0.01415
5204.93691,0.01945
5206.86538,0.02515
5208.79385,0.02429
5210.72232,0.01168
5212.65079,0.00691
5214.57925,0.01824
5216.50772,0.02454
5218.43619,0.01281
5220.36466,0.00264
5222.29313,0.00906
5224.22160,0.02742
5226.15007,0.04444
5228.07854,0.04523
5230.00700,0.04194
5231.93547,0.04283
5233.86394,0.03504
5235.79241,0.02290
5237.72088,0.02236
5239.64935,0.03119
5241.57782,0.04102
5243.50628,0.04604
5245.43475,0.04217
5247.36322,0.03482
5249.29169,0.02629
5251.22016,0.01856
5253.14863,0.01999
5255.07710,0.03049
5257.00556,0.03370
5258.93403,0.02257
5260.86250,0.01249
5262.79097,0.01631
5264.71944,0.02677
5266.64791,0.03327
5268.57638,0.04024
5270.50485,0.05259
5272.43331,0.05967
5274.36178,0.04824
5276.29025,0.02735
5278.21872,0.01813
5280.14719,0.02531
5282.07566,0.03531
5284.00413,0.03977
5285.93259,0.04043
5287.86106,0.03424
5289.78953,0.02371
5291.71800,0.01846
5293.64647,0.01793
5295.57494,0.02614
5297.50341,0.04627
5299.43188,0.05879
5301.36034,0.05559
5303.28881,0.05362
5305.21728,0.05220
5307.14575,0.03838
5309.07422,0.02226
5311.00269,0.02196
5312.93116,0.03023
5314.85962,0.03448
5316.78809,0.03489
5318.71656,0.03205
5320.64503,0.03218
5322.57350,0.04029
5324.50197,0.04111
5326.43044,0.03279
5328.35891,0.03472
5330.28737,0.04475
5332.21584,0.06109
5334.14431,0.08078
5336.07278,0.08284
5338.00125,0.06824
5339.92972,0.05459
5341.85819,0.04495
5343.78665,0.03689
5345.71512,0.03000
5347.64359,0.02242
5349.57206,0.01404
5351.50053,0.00447
5353.42900,-0.00321
5355.35747,0.00348
5357.28594,0.02855
5359.21440,0.05223
5361.14287,0.06119
5363.07134,0.06286
5364.99981,0.04964
5366.92828,0.03121
5368.85675,0.02968
5370.78522,0.03632
5372.71368,0.04462
5374.64215,0.05267
5376.57062,0.05762
5378.49909,0.05838
5380.42756,0.04987
5382.35603,0.03190
5384.28450,0.01365
5386.21297,0.01529
5388.14143,0.03677
5390.06990,0.05557
5391.99837,0.06139
5393.92684,0.05607
5395.85531,0.05590
5397.78378,0.06738
5399.71225,0.07713
5401.64071,0.08577
5403.56918,0.08604
5405.49765,0.07013
5407.42612,0.05967
5409.35459,0.05026
5411.28306,0.02601
5413.21153,0.01183
5415.13999,0.02159
5417.06846,0.02627
5418.99693,0.02157
5420.92540,0.02437
5422.85387,0.03059
5424.78234,0.03721
5426.71081,0.04956
5428.63928,0.06163
5430.56774,0.07072
5432.49621,0.08895
5434.42468,0.10153
5436.35315,0.07894
5438.28162,0.03818
5440.21009,0.00564
5442.13856,0.00318
5444.06702,0.02895
5445.99549,0.05202
5447.92396,0.05316
5449.85243,0.04906
5451.78090,0.06711
5453.70937,0.09080
5455.63784,0.09208
5457.56631,0.08622
5459.49477,0.09309
5461.42324,0.08597
5463.35171,0.06034
5465.28018,0.04031
5467.20865,0.02279
5469.13712,0.00995
5471.06559,0.01360
5472.99405,0.03038
5474.92252,0.05282
5476.85099,0.06511
5478.77946,0.05862
5480.70793,0.05525
5482.63640,0.07235
5484.56487,0.08822
5486.49334,0.09101
5488.42180,0.09569
5490.35027,0.09206
5492.27874,0.06091
5494.20721,0.03488
5496.13568,0.04499
5498.06415,0.06157
5499.99262,0.05770
5501.92108,0.05156
5503.84955,0.06927
5505.77802,0.09800
5507.70649,0.10577
5509.63496,0.08736
5511.56343,0.06345
5513.49190,0.04935
5515.42037,0.04750
5517.34883,0.05817
5519.27730,0.07116
5521.20577,0.06911
5523.13424,0.05436
5525.06271,0.05014
5526.99118,0.06504
5528.91965,0.07452
5530.84811,0.06521
5532.77658,0.06072
5534.70505,0.06746
5536.63352,0.05350
5538.56199,0.02162
5540.49046,0.01960
5542.41893,0.05102
5544.34740,0.07867
5546.27586,0.08397
5548.20433,0.06814
5550.13280,0.05762
5552.06127,0.06892
5553.98974,0.08295
5555.91821,0.08655
5557.84668,0.07781
5559.77514,0.06087
5561.70361,0.04809
5563.63208,0.04728
5565.56055,0.05591
5567.48902,0.05390
5569.41749,0.03569
5571.34596,0.02703
5573.27443,0.03989
5575.20289,0.05102
5577.13136,0.05001
5579.05983,0.05818
5580.98830,0.06719
5582.91677,0.05012
5584.84524,0.03185
5586.77371,0.03814
5588.70217,0.04871
5590.63064,0.05188
5592.55911,0.05424
5594.48758,0.05213
5596.41605,0.04961
5598.34452,0.05656
5600.27299,0.07091
5602.20145,0.07152
5604.12992,0.04896
5606.05839,0.03896
5607.98686,0.05961
5609.91533,0.07120
5611.84380,0.06128
5613.77227,0.05740
5615.70074,0.05992
5617.62920,0.06405
5619.55767,0.06429
5621.48614,0.05685
5623.41461,0.05581
5625.34308,0.05793
5627.27155,0.05104
5629.20002,0.03265
5631.12848,0.02207
5633.05695,0.04488
5634.98542,0.07057
5636.91389,0.06357
5638.84236,0.06723
5640.77083,0.09652
5642.69930,0.10382
5644.62777,0.09321
5646.55623,0.09915
5648.48470,0.10951
5650.41317,0.08631
5652.34164,0.04310
5654.27011,0.03401
5656.19858,0.05090
5658.12705,0.05903
5660.05551,0.06592
5661.98398,0.08392
5663.91245,0.09813
5665.84092,0.08817
5667.76939,0.06150
5669.69786,0.04902
5671.62633,0.05272
5673.55480,0.04296
5675.48326,0.04125
5677.41173,0.07042
5679.34020,0.08630
5681.26867,0.07410
5683.19714,0.06065
5685.12561,0.05047
5687.05408,0.02190
5688.98254,-0.00181
5690.91101,0.01997
5692.83948,0.03999
5694.76795,0.03434
5696.69642,0.03711
5698.62489,0.03487
5700.55336,0.03421
5702.48183,0.06699
5704.41029,0.09298
5706.33876,0.07972
5708.26723,0.06751
5710.19570,0.08154
5712.12417,0.09476
5714.05264,0.08537
5715.98111,0.05281
5717.90957,0.02629
5719.83804,0.04094
5721.76651,0.06609
5723.69498,0.06610
5725.62345,0.05930
5727.55192,0.07385
5729.48039,0.10079
5731.40886,0.09613
5733.33732,0.06325
5735.26579,0.05822
5737.19426,0.08514
5739.12273,0.08622
5741.05120,0.06784
5742.97967,0.07060
5744.90814,0.08028
5746.83660,0.08547
5748.76507,0.09920
5750.69354,0.10024
5752.62201,0.06705
5754.55048,0.03898
5756.47895,0.05055
5758.40742,0.08378
5760.33588,0.10071
5762.26435,0.08845
5764.19282,0.07800
5766.12129,0.07940
5768.04976,0.06468
5769.97823,0.04891
5771.90670,0.06590
5773.83517,0.08756
5775.76363,0.09242
5777.69210,0.10636
5779.62057,0.12329
5781.54904,0.11864
5783.47751,0.09840
5785.40598,0.07769
5787.33445,0.07178
5789.26291,0.07574
5791.19138,0.07589
5793.11985,0.08572
5795.04832,0.08862
5796.97679,0.05958
5798.90526,0.04040
5800.83373,0.06171
5802.76220,0.08514
5804.69066,0.06485
5806.61913,0.02572
5808.54760,0.01292
5810.47607,0.01819
5812.40454,0.03127
5814.33301,0.04902
5816.26148,0.05500
5818.18994,0.05809
5820.11841,0.07685
5822.04688,0.08859
5823.97535,0.07164
5825.90382,0.04436
5827.83229,0.03830
5829.76076,0.06321
5831.68923,0.09717
5833.61769,0.11811
5835.54616,0.10825
5837.47463,0.06772
5839.40310,0.03046
5841.33157,0.03029
5843.26004,0.05543
5845.18851,0.07434
5847.11697,0.07740
5849.04544,0.06749
5850.97391,0.05491
5852.90238,0.05070
5854.83085,0.06154
5856.75932,0.07802
5858.68779,0.07518
5860.61626,0.05520
5862.54472,0.04351
5864.47319,0.04123
5866.40166,0.04192
5868.33013,0.04672
5870.25860,0.03806
5872.18707,0.02760
5874.11554,0.04139
5876.04400,0.05415
5877.97247,0.04753
5879.90094,0.06041
5881.82941,0.09988
5883.75788,0.10506
5885.68635,0.06049
5887.61482,0.01967
5889.54329,0.00733
5891.47175,0.00405
5893.40022,0.01464
5895.32869,0.05554
5897.25716,0.09158
5899.18563,0.08535
5901.11410,0.05454
5903.04257,0.03537
5904.97103,0.04388
5906.89950,0.06293
5908.82797,0.08027
5910.75644,0.10424
5912.68491,0.12743
5914.61338,0.12176
5916.54185,0.08116
5918.47032,0.04368
5920.39878,0.04865
5922.32725,0.08987
5924.25572,0.12483
5926.18419,0.11438
5928.11266,0.08994
5930.04113,0.10618
5931.96960,0.12855
5933.89806,0.10371
5935.82653,0.05521
5937.75500,0.02517
5939.68347,0.03009
5941.61194,0.07407
5943.54041,0.10998
5945.46888,0.10104
5947.39734,0.07387
5949.32581,0.05769
5951.25428,0.07113
5953.18275,0.09739
5955.11122,0.09395
5957.03969,0.05078
5958.96816,0.01431
5960.89663,0.03570
5962.82509,0.08331
5964.75356,0.10783
5966.68203,0.10900
5968.61050,0.10931
5970.53897,0.10621
5972.46744,0.08710
5974.39591,0.06841
5976.32437,0.05540
5978.25284,0.04485
5980.18131,0.05025
5982.10978,0.06808
5984.03825,0.07854
5985.96672,0.07845
5987.89519,0.06286
5989.82366,0.03535
5991.75212,0.02993
5993.68059,0.06136
5995.60906,0.09966
5997.53753,0.11750
5999.46600,0.12821
6001.39447,0.12239
6003.32294,0.08679
6005.25140,0.04747
6007.17987,0.00557
6009.10834,-0.03310
6011.03681,-0.04118
6012.96528,-0.02943
6014.89375,0.00759
6016.82222,0.07242
6018.75069,0.09958
6020.67915,0.07400
6022.60762,0.05275
6024.53609,0.04965
6026.46456,0.04938
6028.39303,0.04596
6030.32150,0.05776
6032.24997,0.06789
6034.17843,0.03871
6036.10690,0.01857
6038.03537,0.05329
6039.96384,0.07179
6041.89231,0.03083
6043.82078,0.00202
6045.74925,0.02348
6047.67772,0.05229
6049.60618,0.07085
6051.53465,0.07200
6053.46312,0.03705
6055.39159,0.00358
6057.32006,0.02411
6059.24853,0.04955
6061.17700,0.03351
6063.10546,0.03484
6065.03393,0.07868
6066.96240,0.08917
6068.89087,0.05562
6070.81934,0.04540
6072.74781,0.05177
6074.67628,0.03142
6076.60475,0.02081
6078.53321,0.05904
6080.46168,0.10725
6082.39015,0.11801
6084.31862,0.11159
6086.24709,0.11977
6088.17556,0.10341
6090.10403,0.05554
6092.03249,0.04122
6093.96096,0.06016
6095.88943,0.06374
6097.81790,0.04651
6099.74637,0.04171
6101.67484,0.06441
6103.60331,0.05618
6105.53177,-0.00384
6107.46024,-0.03880
6109.38871,-0.01233
6111.31718,0.04171
6113.24565,0.10884
6115.17412,0.15947
6117.10259,0.14568
6119.03106,0.08442
6120.95952,0.04607
6122.88799,0.03934
6124.81646,0.04143
6126.74493,0.04797
6128.67340,0.07161
6130.60187,0.11139
6132.53034,0.11363
6134.45880,0.07923
6136.38727,0.06452
6138.31574,0.07449
6140.24421,0.09854
6142.17268,0.12761
6144.10115,0.12886
6146.02962,0.09479
6147.95809,0.06114
6149.88655,0.05217
6151.81502,0.06203
6153.74349,0.09568
6155.67196,0.12999
6157.60043,0.12393
6159.52890,0.09382
6161.45737,0.06571
6163.38583,0.06524
6165.31430,0.11288
6167.24277,0.16562
6169.17124,0.18403
6171.09971,0.16010
6173.02818,0.11423
6174.95665,0.11106
6176.88512,0.16237
6178.81358,0.18750
6180.74205,0.15398
6182.67052,0.10408
6184.59899,0.05261
6186.52746,0.00420
6188.45593,-0.00401
6190.38440,0.02344
6192.31286,0.03158
6194.24133,0.01525
6196.16980,-0.00060
6198.09827,-0.00434
6200.02674,0.01508
6201.95521,0.06298
6203.88368,0.12284
6205.81215,0.15647
6207.74061,0.13515
6209.66908,0.05333
6211.59755,-0.01269
6213.52602,0.00334
6215.45449,0.04615
6217.38296,0.07064
6219.31143,0.07879
6221.23989,0.08395
6223.16836,0.08230
6225.09683,0.05669
6227.02530,0.01705
6228.95377,-0.00400
6230.88224,0.01107
6232.81071,0.03274
6234.73918,0.05911
6236.66764,0.10572
6238.59611,0.13267
6240.52458,0.12804
6242.45305,0.12642
6244.38152,0.14838
6246.30999,0.19546
6248.23846,0.24365
6250.16692,0.22669
6252.09539,0.11770
6254.02386,0.00879
6255.95233,-0.00228
6257.88080,0.06096
6259.80927,0.09342
6261.73774,0.08245
6263.66621,0.06806
6265.59467,0.05356
6267.52314,0.04273
6269.45161,0.04999
6271.38008,0.08034
6273.30855,0.09339
6275.23702,0.04606
6277.16549,0.00018
6279.09395,0.01844
6281.02242,0.07056
6282.95089,0.11056
6284.87936,0.11551
6286.80783,0.11135
6288.73630,0.09469
6290.66477,0.01410
6292.59323,-0.04977
6294.52170,-0.00963
6296.45017,0.05442
6298.37864,0.08107
6300.30711,0.09596
6302.23558,0.09839
6304.16405,0.07622
6306.09252,0.05550
6308.02098,0.04149
6309.94945,0.02286
6311.87792,-0.00259
6313.80639,-0.01920
6315.73486,-0.02520
6317.66333,-0.03965
6319.59180,-0.03565
6321.52026,0.00412
6323.44873,0.04611
6325.37720,0.06759
6327.30567,0.07844
6329.23414,0.08695
6331.16261,0.08330
6333.09108,0.06534
6335.01955,0.04976
6336.94801,0.06130
6338.87648,0.07398
6340.80495,0.06843
6342.73342,0.07152
6344.66189,0.06005
6346.59036,0.02585
6348.51883,0.02946
6350.44729,0.09372
6352.37576,0.15028
6354.30423,0.14589
6356.23270,0.12363
6358.16117,0.14050
6360.08964,0.19643
6362.01811,0.21662
6363.94658,0.18155
6365.87504,0.16852
6367.80351,0.16174
6369.73198,0.12126
6371.66045,0.12081
6373.58892,0.13387
6375.51739,0.07842
6377.44586,0.00658
6379.37432,-0.02208
6381.30279,-0.01086
6383.23126,0.01286
6385.15973,0.03867
6387.08820,0.07158
6389.01667,0.09840
6390.94514,0.10367
6392.87361,0.05860
6394.80207,-0.01312
6396.73054,-0.02066
6398.65901,0.02075
6400.58748,0.02796
6402.51595,-0.00214
6404.44442,-0.02650
6406.37289,-0.05113
6408.30135,-0.05070
6410.22982,-0.01103
6412.15829,0.02939
6414.08676,0.08469
6416.01523,0.15427
6417.94370,0.19602
6419.87217,0.19378
6421.80064,0.13275
6423.72910,0.03262
6425.65757,-0.00888
6427.58604,0.02864
6429.51451,0.06151
6431.44298,0.05951
6433.37145,0.04865
6435.29992,0.04133
6437.22838,0.04704
6439.15685,0.08963
6441.08532,0.12991
6443.01379,0.11626
6444.94226,0.08158
6446.87073,0.06020
6448.79920,0.03979
6450.72766,0.02469
6452.65613,0.03507
6454.58460,0.05896
6456.51307,0.06586
6458.44154,0.06668
6460.37001,0.07885
6462.29848,0.08965
6464.22695,0.10836
6466.15541,0.13640
6468.08388,0.12787
6470.01235,0.10145
6471.94082,0.09113
6473.86929,0.07523
6475.79776,0.09950
6477.72623,0.13419
6479.65469,0.10371
6481.58316,0.06183
6483.51163,0.06149
6485.44010,0.08822
6487.36857,0.07629
6489.29704,-0.00189
6491.22551,-0.07308
6493.15398,-0.06954
6495.08244,-0.02781
6497.01091,-0.03418
6498.93938,-0.08892
6500.86785,-0.09525
6502.79632,-0.01007
6504.72479,0.08785
6506.65326,0.12880
6508.58172,0.09565
6510.51019,0.05489
6512.43866,0.08595
6514.36713,0.11368
6516.29560,0.03894
6518.22407,-0.06004
6520.15254,-0.06095
6522.08101,0.01388
6524.00947,0.09307
6525.93794,0.15524
6527.86641,0.17680
6529.79488,0.14628
6531.72335,0.11544
6533.65182,0.10690
6535.58029,0.08561
6537.50875,0.05822
6539.43722,0.06917
6541.36569,0.10982
6543.29416,0.13390
6545.22263,0.12369
6547.15110,0.10087
6549.07957,0.07919
6551.00804,0.06242
6552.93650,0.07884
6554.86497,0.10347
6556.79344,0.07152
6558.72191,0.03282
6560.65038,0.05641
6562.57885,0.07192
6564.50732,0.03192
6566.43578,0.02464
6568.36425,0.06849
6570.29272,0.09419
6572.22119,0.08510
6574.14966,0.06051
6576.07813,0.04724
6578.00660,0.05425
6579.93507,0.09179
6581.86353,0.11329
6583.79200,0.02130
6585.72047,-0.07725
6587.64894,-0.05743
6589.57741,-0.01314
6591.50588,-0.00669
6593.43435,0.00687
6595.36281,0.02659
6597.29128,0.06830
6599.21975,0.15264
6601.14822,0.19401
6603.07669,0.17159
6605.00516,0.15174
6606.93363,0.11939
6608.86210,0.09738
6610.79056,0.12896
6612.71903,0.15320
6614.64750,0.12876
6616.57597,0.09613
6618.50444,0.08258
6620.43291,0.09419
6622.36138,0.11300
6624.28984,0.12628
6626.21831,0.15701
6628.14678,0.17307
6630.07525,0.11274
6632.00372,0.01848
6633.93219,-0.05297
6635.86066,-0.07314
6637.78912,-0.00828
6639.71759,0.07466
6641.64606,0.08626
6643.57453,0.03559
6645.50300,0.01262
6647.43147,0.04175
6649.35994,0.04641
6651.28841,0.03495
6653.21687,0.06311
6655.14534,0.09348
6657.07381,0.06877
6659.00228,0.02186
6660.93075,-0.00663
6662.85922,-0.02061
6664.78769,-0.03366
6666.71615,-0.08155
6668.64462,-0.11640
6670.57309,-0.01648
6672.50156,0.17490
6674.43003,0.23824
6676.35850,0.13196
6678.28697,0.02276
6680.21544,0.01845
6682.14390,0.09193
6684.07237,0.14099
6686.00084,0.10866
6687.92931,0.06853
6689.85778,0.09809
6691.78625,0.14620
6693.71472,0.11800
6695.64318,0.02546
6697.57165,-0.02753
6699.50012,-0.00339
6701.42859,0.03637
6703.35706,0.00779
6705.28553,-0.07631
6707.21400,-0.05778
6709.14247,0.05959
6711.07093,0.10495
6712.99940,0.08761
6714.92787,0.08152
6716.85634,0.09301
6718.78481,0.10743
6720.71328,0.08608
6722.64175,0.00942
6724.57021,-0.07167
6726.49868,-0.10837
6728.42715,-0.10470
6730.35562,-0.06214
6732.28409,0.05160
6734.21256,0.18013
6736.14103,0.17531
6738.06950,0.09469
6739.99796,0.08907
6741.92643,0.10119
6743.85490,0.04632
6745.78337,-0.02004
6747.71184,-0.03783
6749.64031,0.00049
6751.56878,0.05607
6753.49724,0.06383
6755.42571,-0.01417
6757.35418,-0.08905
6759.28265,-0.05646
6761.21112,0.03397
6763.13959,0.04572
6765.06806,-0.00626
6766.99653,-0.04514
6768.92499,-0.04682
6770.85346,-0.00350
6772.78193,0.05534
6774.71040,0.07646
6776.63887,0.06072
6778.56734,0.05731
6780.49581,0.08879
6782.42427,0.13156
6784.35274,0.16365
6786.28121,0.17112
6788.20968,0.14617
6790.13815,0.12221
6792.06662,0.12717
6793.99509,0.12364
6795.92355,0.07382
6797.85202,0.00004
6799.78049,-0.03569
6801.70896,-0.00878
6803.63743,-0.00987
6805.56590,-0.06657
6807.49437,-0.05891
6809.42284,0.02931
6811.35130,0.09256
6813.27977,0.07158
6815.20824,0.06806
6817.13671,0.11685
6819.06518,0.14362
6820.99365,0.14621
6822.92212,0.13592
6824.85058,0.13017
6826.77905,0.10955
6828.70752,0.05187
6830.63599,0.02693
6832.56446,0.04458
6834.49293,0.02736
6836.42140,-0.04439
6838.34987,-0.10264
6840.27833,-0.08101
6842.20680,0.01247
6844.13527,0.09868
6846.06374,0.15045
6847.99221,0.19440
6849.92068,0.22519
6851.84915,0.22575
6853.77761,0.18407
6855.70608,0.11457
6857.63455,0.02700
6859.56302,-0.09664
6861.49149,-0.18688
6863.41996,-0.18450
6865.34843,-0.14369
6867.27690,-0.08454
6869.20536,-0.01726
6871.13383,0.03994
6873.06230,0.14127
6874.99077,0.24995
6876.91924,0.23513
6878.84771,0.11469
6880.77618,0.04868
6882.70464,0.07112
6884.63311,0.08814
6886.56158,0.09908
6888.49005,0.09533
6890.41852,0.05831
6892.34699,0.05065
6894.27546,0.11787
6896.20393,0.18937
6898.13239,0.13199
6900.06086,0.00329
6901.98933,-0.04394
6903.91780,-0.03581
6905.84627,-0.04411
6907.77474,-0.06038
6909.70321,-0.06695
6911.63167,-0.05154
6913.56014,-0.02644
6915.48861,-0.01857
6917.41708,-0.01793
6919.34555,-0.07304
6921.27402,-0.12586
6923.20249,-0.06614
6925.13096,-0.00863
6927.05942,0.00293
6928.98789,0.07650
6930.91636,0.18771
6932.84483,0.24106
6934.77330,0.26317
6936.70177,0.25684
6938.63024,0.21656
6940.55870,0.18091
6942.48717,0.13472
6944.41564,0.08387
6946.34411,0.06919
6948.27258,0.07342
6950.20105,0.09744
6952.12952,0.13772
6954.05799,0.10644
6955.98645,0.02301
6957.91492,0.04594
6959.84339,0.10781
6961.77186,0.10718
6963.70033,0.12582
6965.62880,0.18942
6967.55727,0.19134
6969.48573,0.08371
6971.41420,0.02620
6973.34267,0.09561
6975.27114,0.16111
6977.19961,0.14235
6979.12808,0.07120
6981.05655,0.05165
6982.98501,0.08335
6984.91348,0.05334
6986.84195,-0.02046
6988.77042,-0.06617
6990.69889,-0.05856
6992.62736,-0.05914
6994.55583,-0.11287
6996.48430,-0.14946
6998.41276,-0.12232
7000.34123,-0.07920
7002.26970,-0.02653
7004.19817,0.03948
7006.12664,0.07002
7008.05511,0.04669
7009.98358,0.01419
7011.91204,-0.00773
7013.84051,0.02519
7015.76898,0.12636
7017.69745,0.17770
7019.62592,0.08345
7021.55439,-0.09295
7023.48286,-0.16573
7025.41133,-0.05269
7027.33979,0.09865
7029.26826,0.15065
7031.19673,0.05525
7033.12520,-0.10314
7035.05367,-0.11796
7036.98214,0.00370
7038.91061,0.04866
7040.83907,0.01133
7042.76754,-0.00102
7044.69601,0.02346
7046.62448,0.07338
7048.55295,0.15979
7050.48142,0.21897
7052.40989,0.21282
7054.33836,0.17323
7056.26682,0.14494
7058.19529,0.12442
7060.12376,0.10690
7062.05223,0.07834
7063.98070,0.03919
7065.90917,0.01578
7067.83764,-0.01317
7069.76610,-0.03968
7071.69457,-0.02798
7073.62304,-0.01652
7075.55151,-0.03674
7077.47998,-0.03920
7079.40845,0.01553
7081.33692,0.07401
7083.26539,0.09240
7085.19385,0.12375
7087.12232,0.16081
7089.05079,0.17021
7090.97926,0.16927
7092.90773,0.15441
7094.83620,0.16511
7096.76467,0.22736
7098.69313,0.23495
7100.62160,0.17108
7102.55007,0.14363
7104.47854,0.15606
7106.40701,0.14765
7108.33548,0.11076
7110.26395,0.04782
7112.19242,-0.02070
7114.12088,0.01393
7116.04935,0.15191
7117.97782,0.22760
7119.90629,0.17584
7121.83476,0.10998
7123.76323,0.04285
7125.69170,-0.01554
7127.62016,-0.02436
7129.54863,-0.03946
7131.47710,-0.06761
7133.40557,-0.07092
7135.33404,-0.09443
7137.26251,-0.11997
7139.19098,-0.07466
7141.11944,0.09909
7143.04791,0.36440
7144.97638,0.49436
7146.90485,0.34349
7148.83332,0.05832
7150.76179,-0.18338
7152.69026,-0.19765
7154.61873,-0.01488
7156.54719,0.08441
7158.47566,0.07146
7160.40413,-0.00277
7162.33260,-0.08935
7164.26107,-0.06614
7166.18954,0.05364
7168.11801,0.14994
7170.04647,0.17011
7171.97494,0.07549
7173.90341,-0.01213
7175.83188,0.04242
7177.76035,0.16480
7179.68882,0.20092
7181.61729,0.15763
7183.54576,0.18779
7185.47422,0.24047
7187.40269,0.19672
7189.33116,0.14072
7191.25963,0.15344
7193.18810,0.13347
7195.11657,0.03685
7197.04504,-0.00630
7198.97350,0.06703
7200.90197,0.15560
7202.83044,0.14926
7204.75891,0.03883
7206.68738,0.02338
7208.61585,0.13066
7210.54432,0.21600
7212.47279,0.20469
7214.40125,0.08249
7216.32972,-0.09575
7218.25819,-0.11467
7220.18666,-0.00743
7222.11513,-0.07329
7224.04360,-0.21993
7225.97207,-0.17385
7227.90053,0.06583
7229.82900,0.18339
7231.75747,0.08004
7233.68594,0.01542
7235.61441,0.02200
7237.54288,0.06896
7239.47135,0.19391
7241.39982,0.25791
7243.32828,0.20794
7245.25675,0.18130
7247.18522,0.15812
7249.11369,0.08731
7251.04216,0.07056
7252.97063,0.21429
7254.89910,0.29703
7256.82756,0.21750
7258.75603,0.13114
7260.68450,0.06292
7262.61297,-0.04540
7264.54144,-0.08782
7266.46991,0.01642
7268.39838,0.11908
7270.32685,0.13587
7272.25531,0.13936
7274.18378,0.13269
7276.11225,0.10107
7278.04072,0.10912
7279.96919,0.14232
7281.89766,0.19353
7283.82613,0.24729
7285.75459,0.30295
7287.68306,0.31489
7289.61153,0.25542
7291.54000,0.09871
7293.46847,-0.02117
7295.39694,-0.04983
7297.32541,-0.07102
7299.25387,-0.12610
7301.18234,-0.22768
7303.11081,-0.26363
7305.03928,-0.15264
7306.96775,-0.03359
7308.89622,0.03573
7310.82469,0.04450
7312.75316,-0.02816
7314.68162,-0.06691
7316.61009,-0.00886
7318.53856,0.09320
7320.46703,0.15037
7322.39550,0.09957
7324.32397,-0.01800
7326.25244,-0.01331
7328.18090,0.15403
7330.10937,0.33580
7332.03784,0.36779
7333.96631,0.26003
7335.89478,0.07474
7337.82325,-0.17729
7339.75172,-0.36178
7341.68019,-0.25307
7343.60865,-0.08295
7345.53712,0.11521
7347.46559,0.33726
7349.39406,0.43672
7351.32253,0.35635
7353.25100,0.19068
7355.17947,0.03879
7357.10793,-0.05382
7359.03640,-0.04994
7360.96487,0.06984
7362.89334,0.22135
7364.82181,0.24554
7366.75028,0.13508
7368.67875,0.00475
7370.60722,-0.00499
7372.53568,0.06152
7374.46415,0.01638
7376.39262,-0.19479
7378.32109,-0.27193
7380.24956,-0.19004
7382.17803,-0.07411
7384.10650,-0.05042
7386.03496,-0.04782
7387.96343,0.00311
7389.89190,0.00830
7391.82037,-0.00140
7393.74884,0.01337
7395.67731,0.00123
7397.60578,-0.01922
7399.53425,0.02254
7401.46271,0.12537
7403.39118,0.23901
7405.31965,0.28175
7407.24812,0.23679
7409.17659,0.18589
7411.10506,0.14826
7413.03353,0.12928
7414.96199,0.09816
7416.89046,0.01833
7418.81893,-0.00256
7420.74740,0.12402
7422.67587,0.24426
7424.60434,0.24737
7426.53281,0.14915
7428.46128,0.06739
7430.38974,0.11194
7432.31821,0.13390
7434.24668,0.04818
7436.17515,0.01667
7438.10362,0.04540
7440.03209,0.11952
7441.96056,0.21154
7443.88902,0.26266
7445.81749,0.26672
7447.74596,0.16130
7449.67443,0.00072
7451.60290,-0.10277
7453.53137,-0.16283
7455.45984,-0.13530
7457.38831,0.01170
7459.31677,0.15217
7461.24524,0.08405
7463.17371,-0.05157
7465.10218,-0.06362
7467.03065,0.01355
7468.95912,0.03814
7470.88759,-0.03740
7472.81605,-0.15185
7474.74452,-0.20365
7476.67299,-0.13441
7478.60146,0.00895
7480.52993,0.07027
7482.45840,0.00001
7484.38687,-0.12472
7486.31533,-0.21789
7488.24380,-0.17474
7490.17227,-0.05626
7492.10074,-0.04111
7494.02921,-0.05933
7495.95768,0.01145
7497.88615,0.10337
