399.19301,0.07953
401.12148,0.26397
403.04995,0.20759
404.97842,0.14000
406.90689,0.06459
408.83536,-0.10445
410.76382,-0.24183
412.69229,-0.23269
414.62076,-0.15861
416.54923,-0.08860
418.47770,-0.01384
420.40617,0.05497
422.33464,0.08664
424.26311,0.06497
426.19157,0.01069
428.12004,0.00241
430.04851,-0.00151
431.97698,-0.06001
433.90545,-0.06658
435.83392,-0.00298
437.76239,0.07598
439.69085,0.14127
441.61932,0.17046
443.54779,0.12520
445.47626,0.03646
447.40473,-0.05411
449.33320,-0.11464
451.26167,-0.08923
453.19013,-0.02395
455.11860,0.02750
457.04707,0.03079
458.97554,-0.02581
460.90401,-0.04600
462.83248,0.01743
464.76095,0.10855
466.68942,0.14383
468.61788,0.12494
470.54635,0.07546
472.47482,0.02668
474.40329,0.05209
476.33176,0.10141
478.26023,0.12326
480.18870,0.13088
482.11716,0.13920
484.04563,0.14257
485.97410,0.13515
487.90257,0.15210
489.83104,0.19436
491.75951,0.20300
493.68798,0.14087
495.61645,0.04398
497.54491,-0.02191
499.47338,-0.01135
501.40185,0.05055
503.33032,0.09929
505.25879,0.11925
507.18726,0.11296
509.11573,0.06215
511.04419,0.00627
512.97266,-0.00508
514.90113,0.00935
516.82960,0.02579
518.75807,0.06405
520.68654,0.10026
522.61501,0.09903
524.54348,0.08217
526.47194,0.07707
528.40041,0.07893
530.32888,0.07149
532.25735,0.05745
534.18582,0.06342
536.11429,0.08554
538.04276,0.09717
539.97122,0.08668
541.89969,0.06152
543.82816,0.05252
545.75663,0.07379
547.68510,0.09733
549.61357,0.09724
551.54204,0.08663
553.47051,0.09474
555.39897,0.10755
557.32744,0.09010
559.25591,0.05894
561.18438,0.03031
563.11285,0.00868
565.04132,0.00888
566.96979,0.01594
568.89825,0.02769
570.82672,0.05951
572.75519,0.09848
574.68366,0.11369
576.61213,0.09661
578.54060,0.08272
580.46907,0.08923
582.39754,0.09393
584.32600,0.08208
586.25447,0.06564
588.18294,0.06752
590.11141,0.08956
592.03988,0.10216
593.96835,0.08788
595.89682,0.07544
597.82528,0.08333
599.75375,0.08231
601.68222,0.06916
603.61069,0.07431
605.53916,0.08414
607.46763,0.07009
609.39610,0.05064
611.32456,0.05983
613.25303,0.08443
615.18150,0.09538
617.10997,0.10004
619.03844,0.10596
620.96691,0.10240
622.89538,0.09934
624.82385,0.10198
626.75231,0.08445
628.68078,0.05477
630.60925,0.05044
632.53772,0.06835
634.46619,0.07392
636.39466,0.06936
638.32313,0.08208
640.25159,0.09534
642.18006,0.08504
644.10853,0.06853
646.03700,0.06623
647.96547,0.07532
649.89394,0.08437
651.82241,0.08894
653.75088,0.09058
655.67934,0.09472
657.60781,0.09811
659.53628,0.09227
661.46475,0.08595
663.39322,0.08864
665.32169,0.09372
667.25016,0.09181
669.17862,0.08423
671.10709,0.08296
673.03556,0.07519
674.96403,0.06204
676.89250,0.06524
678.82097,0.08424
680.74944,0.09744
682.67791,0.08980
684.60637,0.07276
686.53484,0.07481
688.46331,0.09182
690.39178,0.09593
692.32025,0.08782
694.24872,0.08216
696.17719,0.07606
698.10565,0.07021
700.03412,0.07577
701.96259,0.08796
703.89106,0.09599
705.81953,0.10480
707.74800,0.11792
709.67647,0.11621
711.60494,0.09830
713.53340,0.09216
715.46187,0.09370
717.39034,0.09049
719.31881,0.09314
721.24728,0.09451
723.17575,0.09326
725.10422,0.09763
727.03268,0.09775
728.96115,0.09793
730.88962,0.10738
732.81809,0.11314
734.74656,0.10776
736.67503,0.09908
738.60350,0.09183
740.53197,0.08779
742.46043,0.08273
744.38890,0.07661
746.31737,0.08046
748.24584,0.08844
750.17431,0.08937
752.10278,0.08802
754.03125,0.08591
755.95971,0.08408
757.88818,0.08977
759.81665,0.09678
761.74512,0.09634
763.67359,0.09551
765.60206,0.09252
767.53053,0.08132
769.45900,0.07597
771.38746,0.08050
773.31593,0.08146
775.24440,0.08085
777.17287,0.08999
779.10134,0.10369
781.02981,0.11256
782.95828,0.11840
784.88674,0.12044
786.81521,0.11406
788.74368,0.10747
790.67215,0.11012
792.60062,0.10917
794.52909,0.09916
796.45756,0.09737
798.38602,0.10650
800.31449,0.11423
802.24296,0.11231
804.17143,0.10414
806.09990,0.09570
808.02837,0.09020
809.95684,0.09905
811.88531,0.11749
813.81377,0.11830
815.74224,0.10332
817.67071,0.10087
819.59918,0.10574
821.52765,0.10090
823.45612,0.10407
825.38459,0.11888
827.31305,0.11479
829.24152,0.09570
831.16999,0.08929
833.09846,0.09454
835.02693,0.09784
836.95540,0.09718
838.88387,0.09723
840.81234,0.09994
842.74080,0.10930
844.66927,0.12170
846.59774,0.12350
848.52621,0.11429
850.45468,0.10694
852.38315,0.10993
854.31162,0.11785
856.24008,0.12291
858.16855,0.12344
860.09702,0.11919
862.02549,0.11382
863.95396,0.11004
865.88243,0.10744
867.81090,0.11053
869.73937,0.11978
871.66783,0.12302
873.59630,0.11378
875.52477,0.10206
877.45324,0.09862
879.38171,0.10073
881.31018,0.10372
883.23865,0.11053
885.16711,0.11440
887.09558,0.10774
889.02405,0.10316
890.95252,0.10709
892.88099,0.10994
894.80946,0.11011
896.73793,0.10904
898.66640,0.10529
900.59486,0.10612
902.52333,0.11079
904.45180,0.10720
906.38027,0.09859
908.30874,0.09465
910.23721,0.09565
912.16568,0.09898
914.09414,0.10499
916.02261,0.11259
917.95108,0.11408
919.87955,0.10750
921.80802,0.10187
923.73649,0.10265
925.66496,0.10841
927.59343,0.11618
929.52189,0.11931
931.45036,0.11475
933.37883,0.10757
935.30730,0.10408
937.23577,0.10833
939.16424,0.11703
941.09271,0.12176
943.02117,0.12029
944.94964,0.11926
946.87811,0.11982
948.80658,0.11894
950.73505,0.11904
952.66352,0.11805
954.59199,0.11616
956.52045,0.11841
958.44892,0.11880
960.37739,0.11288
962.30586,0.10906
964.23433,0.11177
966.16280,0.11537
968.09127,0.11477
970.01974,0.11316
971.94820,0.11676
973.87667,0.12126
975.80514,0.12291
977.73361,0.12723
979.66208,0.12970
981.59055,0.12182
983.51902,0.11422
985.44748,0.11735
987.37595,0.12403
989.30442,0.12847
991.23289,0.12998
993.16136,0.12795
995.08983,0.12286
997.01830,0.11817
998.94677,0.12049
1000.87523,0.12607
1002.80370,0.12825
1004.73217,0.12900
1006.66064,0.12595
1008.58911,0.11797
1010.51758,0.11569
1012.44605,0.12028
1014.37451,0.12145
1016.30298,0.12080
1018.23145,0.12341
1020.15992,0.12678
1022.08839,0.12891
1024.01686,0.11874
1025.94533,0.08273
1027.87380,0.04728
1029.80226,0.05595
1031.73073,0.09483
1033.65920,0.12400
1035.58767,0.13759
1037.51614,0.14105
1039.44461,0.13571
1041.37308,0.12427
1043.30154,0.11552
1045.23001,0.11950
1047.15848,0.12948
1049.08695,0.13402
1051.01542,0.13376
1052.94389,0.13351
1054.87236,0.13459
1056.80083,0.13392
1058.72929,0.13136
1060.65776,0.13099
1062.58623,0.13172
1064.51470,0.13279
1066.44317,0.13820
1068.37164,0.14655
1070.30011,0.14946
1072.22857,0.14486
1074.15704,0.14385
1076.08551,0.14951
1078.01398,0.15143
1079.94245,0.14473
1081.87092,0.13316
1083.79939,0.12385
1085.72786,0.12108
1087.65632,0.12407
1089.58479,0.12929
1091.51326,0.12988
1093.44173,0.12433
1095.37020,0.11978
1097.29867,0.11961
1099.22714,0.12476
1101.15560,0.13174
1103.08407,0.13322
1105.01254,0.13541
1106.94101,0.14049
1108.86948,0.14031
1110.79795,0.13488
1112.72642,0.13007
1114.65489,0.13076
1116.58335,0.13550
1118.51182,0.13840
1120.44029,0.13323
1122.36876,0.12385
1124.29723,0.12196
1126.22570,0.12595
1128.15417,0.12700
1130.08263,0.12367
1132.01110,0.12064
1133.93957,0.12205
1135.86804,0.12553
1137.79651,0.12807
1139.72498,0.12933
1141.65345,0.12868
1143.58191,0.13007
1145.51038,0.13632
1147.43885,0.14137
1149.36732,0.14100
1151.29579,0.13942
1153.22426,0.14251
1155.15273,0.14703
1157.08120,0.14616
1159.00966,0.14323
1160.93813,0.14165
1162.86660,0.13893
1164.79507,0.13694
1166.72354,0.13786
1168.65201,0.13895
1170.58048,0.13665
1172.50894,0.13099
1174.43741,0.12863
1176.36588,0.13421
1178.29435,0.14122
1180.22282,0.14305
1182.15129,0.13863
1184.07976,0.12653
1186.00823,0.11483
1187.93669,0.11828
1189.86516,0.13318
1191.79363,0.14356
1193.72210,0.14376
1195.65057,0.14020
1197.57904,0.14073
1199.50751,0.14497
1201.43597,0.14865
1203.36444,0.14975
1205.29291,0.14728
1207.22138,0.14426
1209.14985,0.14483
1211.07832,0.14690
1213.00679,0.14761
1214.93526,0.14700
1216.86372,0.14427
1218.79219,0.13998
1220.72066,0.13675
1222.64913,0.13581
1224.57760,0.13717
1226.50607,0.14023
1228.43454,0.14234
1230.36300,0.14321
1232.29147,0.14505
1234.21994,0.14418
1236.14841,0.13926
1238.07688,0.13637
1240.00535,0.13636
1241.93382,0.13681
1243.86229,0.13824
1245.79075,0.13954
1247.71922,0.14069
1249.64769,0.14328
1251.57616,0.14234
1253.50463,0.13789
1255.43310,0.14015
1257.36157,0.14628
1259.29003,0.14478
1261.21850,0.13748
1263.14697,0.13153
1265.07544,0.13004
1267.00391,0.13165
1268.93238,0.13027
1270.86085,0.12856
1272.78932,0.13166
1274.71778,0.13442
1276.64625,0.13577
1278.57472,0.13804
1280.50319,0.13697
1282.43166,0.13624
1284.36013,0.14205
1286.28860,0.14520
1288.21706,0.14307
1290.14553,0.14296
1292.07400,0.14101
1294.00247,0.13503
1295.93094,0.12966
1297.85941,0.12460
1299.78788,0.11519
1301.71634,0.09743
1303.64481,0.08002
1305.57328,0.08576
1307.50175,0.11690
1309.43022,0.14345
1311.35869,0.15124
1313.28716,0.15355
1315.21563,0.15758
1317.14409,0.16178
1319.07256,0.16212
1321.00103,0.15626
1322.92950,0.14969
1324.85797,0.14187
1326.78644,0.13430
1328.71491,0.13499
1330.64337,0.13571
1332.57184,0.13302
1334.50031,0.13476
1336.42878,0.13890
1338.35725,0.14448
1340.28572,0.14702
1342.21419,0.14891
1344.14266,0.15498
1346.07112,0.15112
1347.99959,0.13846
1349.92806,0.13215
1351.85653,0.13122
1353.78500,0.13085
1355.71347,0.13215
1357.64194,0.13672
1359.57040,0.14322
1361.49887,0.14955
1363.42734,0.15301
1365.35581,0.15287
1367.28428,0.15339
1369.21275,0.15603
1371.14122,0.15763
1373.06969,0.15747
1374.99815,0.15736
1376.92662,0.15682
1378.85509,0.15767
1380.78356,0.16096
1382.71203,0.16416
1384.64050,0.16828
1386.56897,0.17023
1388.49743,0.16322
1390.42590,0.15778
1392.35437,0.16142
1394.28284,0.16771
1396.21131,0.17234
1398.13978,0.17441
1400.06825,0.17056
1401.99672,0.16665
1403.92518,0.16794
1405.85365,0.16853
1407.78212,0.16695
1409.71059,0.16720
1411.63906,0.16606
1413.56753,0.16322
1415.49600,0.16442
1417.42446,0.17061
1419.35293,0.17244
1421.28140,0.16767
1423.20987,0.16569
1425.13834,0.16541
1427.06681,0.16651
1428.99528,0.17058
1430.92375,0.17270
1432.85221,0.17203
1434.78068,0.17481
1436.70915,0.17737
1438.63762,0.17111
1440.56609,0.16417
1442.49456,0.16146
1444.42303,0.16354
1446.35149,0.16948
1448.27996,0.17379
1450.20843,0.17563
1452.13690,0.18025
1454.06537,0.19131
1455.99384,0.20923
1457.92231,0.20942
1459.85077,0.18791
1461.77924,0.17767
1463.70771,0.17934
1465.63618,0.18129
1467.56465,0.17646
1469.49312,0.17643
1471.42159,0.19170
1473.35006,0.20896
1475.27852,0.20245
1477.20699,0.18817
1479.13546,0.17865
1481.06393,0.17242
1482.99240,0.16883
1484.92087,0.17059
1486.84934,0.18005
1488.77780,0.19245
1490.70627,0.19227
1492.63474,0.18570
1494.56321,0.18872
1496.49168,0.19853
1498.42015,0.19807
1500.34862,0.19023
1502.27709,0.18690
1504.20555,0.18932
1506.13402,0.19801
1508.06249,0.19796
1509.99096,0.18943
1511.91943,0.18719
1513.84790,0.19162
1515.77637,0.20095
1517.70483,0.20606
1519.63330,0.20582
1521.56177,0.20928
1523.49024,0.20784
1525.41871,0.19830
1527.34718,0.18654
1529.27565,0.18103
1531.20412,0.18747
1533.13258,0.19919
1535.06105,0.20106
1536.98952,0.20074
1538.91799,0.21399
1540.84646,0.23680
1542.77493,0.23245
1544.70340,0.20933
1546.63186,0.19125
1548.56033,0.18715
1550.48880,0.18941
1552.41727,0.19209
1554.34574,0.19850
1556.27421,0.21080
1558.20268,0.22622
1560.13115,0.21388
1562.05961,0.19426
1563.98808,0.18551
1565.91655,0.18294
1567.84502,0.18734
1569.77349,0.19203
1571.70196,0.18778
1573.63043,0.18657
1575.55889,0.19452
1577.48736,0.19508
1579.41583,0.18599
1581.34430,0.18047
1583.27277,0.17730
1585.20124,0.17391
1587.12971,0.17278
1589.05818,0.17587
1590.98664,0.18010
1592.91511,0.18193
1594.84358,0.18149
1596.77205,0.17898
1598.70052,0.17623
1600.62899,0.17569
1602.55746,0.17696
1604.48592,0.17843
1606.41439,0.17929
1608.34286,0.17931
1610.27133,0.17886
1612.19980,0.17865
1614.12827,0.17979
1616.05674,0.18372
1617.98521,0.18620
1619.91367,0.18776
1621.84214,0.19440
1623.77061,0.19908
1625.69908,0.19431
1627.62755,0.18777
1629.55602,0.18388
1631.48449,0.18533
1633.41295,0.19507
1635.34142,0.20956
1637.26989,0.20847
1639.19836,0.19749
1641.12683,0.19073
1643.05530,0.19098
1644.98377,0.20167
1646.91223,0.21613
1648.84070,0.21553
1650.76917,0.21588
1652.69764,0.22572
1654.62611,0.21179
1656.55458,0.18870
1658.48305,0.17809
1660.41152,0.17820
1662.33998,0.18472
1664.26845,0.19080
1666.19692,0.19547
1668.12539,0.20296
1670.05386,0.20830
1671.98233,0.20781
1673.91080,0.20923
1675.83926,0.20578
1677.76773,0.19827
1679.69620,0.19712
1681.62467,0.20271
1683.55314,0.21243
1685.48161,0.21312
1687.41008,0.20653
1689.33855,0.20096
1691.26701,0.19553
1693.19548,0.19537
1695.12395,0.20310
1697.05242,0.21094
1698.98089,0.21089
1700.90936,0.20125
1702.83783,0.19402
1704.76629,0.19468
1706.69476,0.19259
1708.62323,0.18628
1710.55170,0.18423
1712.48017,0.18714
1714.40864,0.19307
1716.33711,0.20149
1718.26558,0.20221
1720.19404,0.19381
1722.12251,0.18821
1724.05098,0.18602
1725.97945,0.18592
1727.90792,0.18899
1729.83639,0.19420
1731.76486,0.20244
1733.69332,0.20950
1735.62179,0.20247
1737.55026,0.19701
1739.47873,0.19899
1741.40720,0.19861
1743.33567,0.19538
1745.26414,0.19531
1747.19261,0.19909
1749.12107,0.20054
1751.04954,0.19280
1752.97801,0.18421
1754.90648,0.18263
1756.83495,0.18619
1758.76342,0.18866
1760.69189,0.18702
1762.62035,0.18396
1764.54882,0.18413
1766.47729,0.18856
1768.40576,0.19466
1770.33423,0.20185
1772.26270,0.20494
1774.19117,0.19537
1776.11964,0.18607
1778.04810,0.18557
1779.97657,0.18818
1781.90504,0.18638
1783.83351,0.18308
1785.76198,0.18186
1787.69045,0.18272
1789.61892,0.18810
1791.54738,0.19488
1793.47585,0.19303
1795.40432,0.18732
1797.33279,0.18602
1799.26126,0.18780
1801.18973,0.18701
1803.11820,0.18253
1805.04666,0.18022
1806.97513,0.18185
1808.90360,0.18444
1810.83207,0.18582
1812.76054,0.18430
1814.68901,0.17752
1816.61748,0.16420
1818.54595,0.15327
1820.47441,0.15934
1822.40288,0.17736
1824.33135,0.18945
1826.25982,0.19118
1828.18829,0.19229
1830.11676,0.19314
1832.04523,0.18858
1833.97369,0.18478
1835.90216,0.18496
1837.83063,0.18361
1839.75910,0.18024
1841.68757,0.18162
1843.61604,0.18915
1845.54451,0.19340
1847.47298,0.19058
1849.40144,0.18647
1851.32991,0.18254
1853.25838,0.17988
1855.18685,0.17970
1857.11532,0.17964
1859.04379,0.17890
1860.97226,0.17984
1862.90072,0.18224
1864.82919,0.18482
1866.75766,0.18973
1868.68613,0.19579
1870.61460,0.19464
1872.54307,0.18752
1874.47154,0.18130
1876.40001,0.17867
1878.32847,0.17846
1880.25694,0.17896
1882.18541,0.18019
1884.11388,0.18192
1886.04235,0.18389
1887.97082,0.18612
1889.89929,0.18707
1891.82775,0.18559
1893.75622,0.18267
1895.68469,0.17975
1897.61316,0.17909
1899.54163,0.18089
1901.47010,0.18349
1903.39857,0.18584
1905.32704,0.18676
1907.25550,0.18640
1909.18397,0.18551
1911.11244,0.18478
1913.04091,0.18464
1914.96938,0.18543
1916.89785,0.18809
1918.82632,0.19067
1920.75478,0.19205
1922.68325,0.19160
1924.61172,0.18677
1926.54019,0.18222
1928.46866,0.18257
1930.39713,0.18385
1932.32560,0.18165
1934.25407,0.17910
1936.18253,0.17931
1938.11100,0.18062
1940.03947,0.18293
1941.96794,0.18528
1943.89641,0.18482
1945.82488,0.18255
1947.75335,0.18059
1949.68181,0.18070
1951.61028,0.18318
1953.53875,0.18528
1955.46722,0.18532
1957.39569,0.18438
1959.32416,0.18416
1961.25263,0.18575
1963.18110,0.18797
1965.10956,0.18880
1967.03803,0.18654
1968.96650,0.18235
1970.89497,0.18036
1972.82344,0.18045
1974.75191,0.18050
1976.68038,0.17959
1978.60884,0.17867
1980.53731,0.18029
1982.46578,0.18208
1984.39425,0.18192
1986.32272,0.18165
1988.25119,0.18078
1990.17966,0.18073
1992.10812,0.18335
1994.03659,0.18508
1995.96506,0.18400
1997.89353,0.18254
1999.82200,0.18261
2001.75047,0.18423
2003.67894,0.18623
2005.60741,0.18667
2007.53587,0.18549
2009.46434,0.18443
2011.39281,0.18370
2013.32128,0.18279
2015.24975,0.18250
2017.17822,0.18287
2019.10669,0.18241
2021.03515,0.18156
2022.96362,0.18260
2024.89209,0.18610
2026.82056,0.18887
2028.74903,0.18751
2030.67750,0.18389
2032.60597,0.18214
2034.53444,0.18260
2036.46290,0.18291
2038.39137,0.18375
2040.31984,0.18713
2042.24831,0.19015
2044.17678,0.18886
2046.10525,0.18506
2048.03372,0.18391
2049.96218,0.18625
2051.89065,0.18814
2053.81912,0.18799
2055.74759,0.18704
2057.67606,0.18670
2059.60453,0.18800
2061.53300,0.18907
2063.46147,0.18743
2065.38993,0.18441
2067.31840,0.18226
2069.24687,0.18104
2071.17534,0.18137
2073.10381,0.18344
2075.03228,0.18565
2076.96075,0.18782
2078.88921,0.18970
2080.81768,0.18915
2082.74615,0.18693
2084.67462,0.18548
2086.60309,0.18484
2088.53156,0.18585
2090.46003,0.18755
2092.38850,0.18700
2094.31696,0.18579
2096.24543,0.18560
2098.17390,0.18517
2100.10237,0.18467
2102.03084,0.18576
2103.95931,0.18838
2105.88778,0.19021
2107.81624,0.18954
2109.74471,0.18726
2111.67318,0.18622
2113.60165,0.18732
2115.53012,0.18822
2117.45859,0.18760
2119.38706,0.18632
2121.31553,0.18519
2123.24399,0.18470
2125.17246,0.18528
2127.10093,0.18646
2129.02940,0.18657
2130.95787,0.18507
2132.88634,0.18474
2134.81481,0.18637
2136.74327,0.18681
2138.67174,0.18659
2140.60021,0.18727
2142.52868,0.18676
2144.45715,0.18607
2146.38562,0.18793
2148.31409,0.18984
2150.24255,0.19014
2152.17102,0.19077
2154.09949,0.19149
2156.02796,0.19095
2157.95643,0.18965
2159.88490,0.18914
2161.81337,0.18903
2163.74184,0.18837
2165.67030,0.18825
2167.59877,0.18904
2169.52724,0.19004
2171.45571,0.19032
2173.38418,0.18898
2175.31265,0.18617
2177.24112,0.18309
2179.16958,0.18145
2181.09805,0.18264
2183.02652,0.18610
2184.95499,0.18871
2186.88346,0.18885
2188.81193,0.18856
2190.74040,0.18917
2192.66887,0.18882
2194.59733,0.18690
2196.52580,0.18558
2198.45427,0.18554
2200.38274,0.18642
2202.31121,0.18844
2204.23968,0.19042
2206.16815,0.19054
2208.09661,0.18990
2210.02508,0.18984
2211.95355,0.18992
2213.88202,0.19052
2215.81049,0.19179
2217.73896,0.19261
2219.66743,0.19227
2221.59590,0.19088
2223.52436,0.18841
2225.45283,0.18614
2227.38130,0.18620
2229.30977,0.18771
2231.23824,0.18859
2233.16671,0.18865
2235.09518,0.18884
2237.02364,0.18923
2238.95211,0.18892
2240.88058,0.18785
2242.80905,0.18677
2244.73752,0.18617
2246.66599,0.18639
2248.59446,0.18688
2250.52293,0.18763
2252.45139,0.18898
2254.37986,0.18896
2256.30833,0.18825
2258.23680,0.18890
2260.16527,0.18912
2262.09374,0.18927
2264.02221,0.19121
2265.95067,0.19341
2267.87914,0.19320
2269.80761,0.19026
2271.73608,0.18796
2273.66455,0.18831
2275.59302,0.18816
2277.52149,0.18567
2279.44996,0.18390
2281.37842,0.18460
2283.30689,0.18704
2285.23536,0.18904
2287.16383,0.18814
2289.09230,0.18823
2291.02077,0.19191
2292.94924,0.19506
2294.87770,0.19695
2296.80617,0.19684
2298.73464,0.19507
2300.66311,0.19668
2302.59158,0.19941
2304.52005,0.19991
2306.44852,0.20118
2308.37699,0.20377
2310.30545,0.20677
2312.23392,0.20923
2314.16239,0.20941
2316.09086,0.21007
2318.01933,0.21543
2319.94780,0.22284
2321.87627,0.22553
2323.80473,0.22184
2325.73320,0.21653
2327.66167,0.21616
2329.59014,0.22376
2331.51861,0.23133
2333.44708,0.22983
2335.37555,0.22840
2337.30401,0.23096
2339.23248,0.22781
2341.16095,0.22535
2343.08942,0.22973
2345.01789,0.22599
2346.94636,0.21452
2348.87483,0.21036
2350.80330,0.21520
2352.73176,0.22181
2354.66023,0.22492
2356.58870,0.22981
2358.51717,0.23739
2360.44564,0.25014
2362.37411,0.26732
2364.30258,0.26770
2366.23104,0.25193
2368.15951,0.23796
2370.08798,0.22779
2372.01645,0.22084
2373.94492,0.21589
2375.87339,0.21013
2377.80186,0.20626
2379.73033,0.20472
2381.65879,0.20003
2383.58726,0.19286
2385.51573,0.18909
2387.44420,0.18852
2389.37267,0.18828
2391.30114,0.18842
2393.22961,0.18977
2395.15807,0.19217
2397.08654,0.19314
2399.01501,0.19152
2400.94348,0.18962
2402.87195,0.18943
2404.80042,0.19010
2406.72889,0.18979
2408.65736,0.18968
2410.58582,0.19102
2412.51429,0.19181
2414.44276,0.19067
2416.37123,0.18965
2418.29970,0.19171
2420.22817,0.19526
2422.15664,0.19640
2424.08510,0.19531
2426.01357,0.19381
2427.94204,0.19252
2429.87051,0.19198
2431.79898,0.19186
2433.72745,0.19102
2435.65592,0.18918
2437.58439,0.18748
2439.51285,0.18725
2441.44132,0.18823
2443.36979,0.18914
2445.29826,0.18936
2447.22673,0.18824
2449.15520,0.18469
2451.08367,0.18162
2453.01213,0.18346
2454.94060,0.18777
2456.86907,0.19103
2458.79754,0.19362
2460.72601,0.19441
2462.65448,0.19171
2464.58295,0.18865
2466.51142,0.18938
2468.43988,0.19183
2470.36835,0.19212
2472.29682,0.19086
2474.22529,0.19117
2476.15376,0.19379
2478.08223,0.19551
2480.01070,0.19458
2481.93916,0.19237
2483.86763,0.19050
2485.79610,0.19098
2487.72457,0.19371
2489.65304,0.19542
2491.58151,0.19357
2493.50998,0.18946
2495.43844,0.18630
2497.36691,0.18549
2499.29538,0.18735
2501.22385,0.19061
2503.15232,0.19269
2505.08079,0.19214
2507.00926,0.18912
2508.93773,0.18718
2510.86619,0.18822
2512.79466,0.18929
2514.72313,0.18971
2516.65160,0.19091
2518.58007,0.19169
2520.50854,0.19179
2522.43701,0.19199
2524.36547,0.19151
2526.29394,0.19157
2528.22241,0.19281
2530.15088,0.19340
2532.07935,0.19342
2534.00782,0.19364
2535.93629,0.19393
2537.86476,0.19359
2539.79322,0.19217
2541.72169,0.19095
2543.65016,0.19178
2545.57863,0.19394
2547.50710,0.19510
2549.43557,0.19526
2551.36404,0.19558
2553.29250,0.19546
2555.22097,0.19398
2557.14944,0.19263
2559.07791,0.19263
2561.00638,0.19272
2562.93485,0.19268
2564.86332,0.19272
2566.79179,0.19200
2568.72025,0.19103
2570.64872,0.19127
2572.57719,0.19260
2574.50566,0.19302
2576.43413,0.19192
2578.36260,0.19150
2580.29107,0.19280
2582.21953,0.19452
2584.14800,0.19634
2586.07647,0.19845
2588.00494,0.19878
2589.93341,0.19646
2591.86188,0.19456
2593.79035,0.19495
2595.71882,0.19569
2597.64728,0.19519
2599.57575,0.19400
2601.50422,0.19368
2603.43269,0.19491
2605.36116,0.19640
2607.28963,0.19767
2609.21810,0.19710
2611.14656,0.19343
2613.07503,0.19143
2615.00350,0.19255
2616.93197,0.19342
2618.86044,0.19412
2620.78891,0.19547
2622.71738,0.19766
2624.64585,0.20011
2626.57431,0.20054
2628.50278,0.19835
2630.43125,0.19620
2632.35972,0.19697
2634.28819,0.19978
2636.21666,0.20059
2638.14513,0.19852
2640.07359,0.19657
2642.00206,0.19574
2643.93053,0.19493
2645.85900,0.19392
2647.78747,0.19377
2649.71594,0.19518
2651.64441,0.19705
2653.57288,0.19668
2655.50134,0.19442
2657.42981,0.19473
2659.35828,0.19638
2661.28675,0.19591
2663.21522,0.19506
2665.14369,0.19419
2667.07216,0.19378
2669.00062,0.19512
2670.92909,0.19543
2672.85756,0.19441
2674.78603,0.19512
2676.71450,0.19657
2678.64297,0.19727
2680.57144,0.19838
2682.49990,0.19933
2684.42837,0.19859
2686.35684,0.19765
2688.28531,0.19809
2690.21378,0.19891
2692.14225,0.19946
2694.07072,0.19896
2695.99919,0.19728
2697.92765,0.19689
2699.85612,0.19862
2701.78459,0.19952
2703.71306,0.19860
2705.64153,0.19883
2707.57000,0.19961
2709.49847,0.19755
2711.42693,0.19419
2713.35540,0.19311
2715.28387,0.19527
2717.21234,0.19988
2719.14081,0.20355
2721.06928,0.20305
2722.99775,0.20160
2724.92622,0.20163
2726.85468,0.20160
2728.78315,0.20260
2730.71162,0.20509
2732.64009,0.20675
2734.56856,0.20607
2736.49703,0.20371
2738.42550,0.20107
2740.35396,0.19990
2742.28243,0.20187
2744.21090,0.20417
2746.13937,0.20368
2748.06784,0.20079
2749.99631,0.19770
2751.92478,0.19832
2753.85325,0.20102
2755.78171,0.20221
2757.71018,0.20276
2759.63865,0.20251
2761.56712,0.20250
2763.49559,0.20338
2765.42406,0.20409
2767.35253,0.20411
2769.28099,0.20233
2771.20946,0.20137
2773.13793,0.20288
2775.06640,0.20249
2776.99487,0.20011
2778.92334,0.20085
2780.85181,0.20259
2782.78028,0.20178
2784.70874,0.20213
2786.63721,0.20348
2788.56568,0.20397
2790.49415,0.20499
2792.42262,0.20430
2794.35109,0.20299
2796.27956,0.20602
2798.20802,0.21013
2800.13649,0.21073
2802.06496,0.21020
2803.99343,0.21006
2805.92190,0.20982
2807.85037,0.20969
2809.77884,0.20929
2811.70731,0.20927
2813.63577,0.20989
2815.56424,0.20887
2817.49271,0.20593
2819.42118,0.20384
2821.34965,0.20333
2823.27812,0.20344
2825.20659,0.20310
2827.13505,0.20168
2829.06352,0.20139
2830.99199,0.20439
2832.92046,0.20852
2834.84893,0.21088
2836.77740,0.21150
2838.70587,0.21074
2840.63433,0.20945
2842.56280,0.20967
2844.49127,0.21009
2846.41974,0.20931
2848.34821,0.20780
2850.27668,0.20476
2852.20515,0.20286
2854.13362,0.20452
2856.06208,0.20578
2857.99055,0.20493
2859.91902,0.20435
2861.84749,0.20321
2863.77596,0.20180
2865.70443,0.20197
2867.63290,0.20144
2869.56136,0.20094
2871.48983,0.20140
2873.41830,0.20028
2875.34677,0.19970
2877.27524,0.20245
2879.20371,0.20796
2881.13218,0.21203
2883.06065,0.20846
2884.98911,0.20034
2886.91758,0.19762
2888.84605,0.20023
2890.77452,0.20177
2892.70299,0.20111
2894.63146,0.19839
2896.55993,0.19601
2898.48839,0.19834
2900.41686,0.20325
2902.34533,0.20513
2904.27380,0.20081
2906.20227,0.19478
2908.13074,0.19615
2910.05921,0.20106
2911.98768,0.19911
2913.91614,0.19032
2915.84461,0.18153
2917.77308,0.18296
2919.70155,0.19554
2921.63002,0.20657
2923.55849,0.20383
2925.48696,0.18638
2927.41542,0.17643
2929.34389,0.18642
2931.27236,0.19606
2933.20083,0.19516
2935.12930,0.18637
2937.05777,0.17498
2938.98624,0.17908
2940.91471,0.19626
2942.84317,0.20620
2944.77164,0.20050
2946.70011,0.18333
2948.62858,0.17867
2950.55705,0.19497
2952.48552,0.20594
2954.41399,0.19860
2956.34245,0.18010
2958.27092,0.17119
2960.19939,0.18821
2962.12786,0.20948
2964.05633,0.21210
2965.98480,0.19877
2967.91327,0.18337
2969.84174,0.18391
2971.77020,0.19760
2973.69867,0.20862
2975.62714,0.20576
2977.55561,0.18896
2979.48408,0.18352
2981.41255,0.19888
2983.34102,0.21261
2985.26948,0.21137
2987.19795,0.19840
2989.12642,0.19048
2991.05489,0.19733
2992.98336,0.20569
2994.91183,0.20852
2996.84030,0.20808
2998.76877,0.20624
3000.69723,0.20915
3002.62570,0.21356
3004.55417,0.20933
3006.48264,0.19693
3008.41111,0.18265
3010.33958,0.16368
3012.26805,0.13076
3014.19651,0.08730
3016.12498,0.06101
3018.05345,0.08642
3019.98192,0.15131
3021.91039,0.20003
3023.83886,0.21244
3025.76733,0.21009
3027.69579,0.20799
3029.62426,0.20963
3031.55273,0.21249
3033.48120,0.21234
3035.40967,0.21000
3037.33814,0.20561
3039.26661,0.20330
3041.19508,0.20703
3043.12354,0.21074
3045.05201,0.20642
3046.98048,0.19637
3048.90895,0.19627
3050.83742,0.20730
3052.76589,0.21387
3054.69436,0.20811
3056.62282,0.19196
3058.55129,0.18550
3060.47976,0.19832
3062.40823,0.20814
3064.33670,0.19881
3066.26517,0.18042
3068.19364,0.17672
3070.12211,0.19015
3072.05057,0.19918
3073.97904,0.19158
3075.90751,0.18023
3077.83598,0.18744
3079.76445,0.20480
3081.69292,0.20770
3083.62139,0.19254
3085.54985,0.17807
3087.47832,0.18562
3089.40679,0.20411
3091.33526,0.20699
3093.26373,0.19116
3095.19220,0.17950
3097.12067,0.18798
3099.04914,0.20046
3100.97760,0.19981
3102.90607,0.18869
3104.83454,0.18501
3106.76301,0.19601
3108.69148,0.20470
3110.61995,0.19792
3112.54842,0.18670
3114.47688,0.19286
3116.40535,0.20951
3118.33382,0.21283
3120.26229,0.20113
3122.19076,0.19210
3124.11923,0.19821
3126.04770,0.20876
3127.97617,0.21032
3129.90463,0.20535
3131.83310,0.20497
3133.76157,0.21125
3135.69004,0.21505
3137.61851,0.21066
3139.54698,0.20344
3141.47545,0.20497
3143.40391,0.21212
3145.33238,0.21345
3147.26085,0.20924
3149.18932,0.20869
3151.11779,0.21637
3153.04626,0.22406
3154.97473,0.22359
3156.90320,0.21853
3158.83166,0.21697
3160.76013,0.21900
3162.68860,0.21967
3164.61707,0.21925
3166.54554,0.22076
3168.47401,0.22319
3170.40248,0.22382
3172.33094,0.22292
3174.25941,0.22138
3176.18788,0.21842
3178.11635,0.21476
3180.04482,0.21496
3181.97329,0.21859
3183.90176,0.22002
3185.83022,0.21840
3187.75869,0.21736
3189.68716,0.22078
3191.61563,0.22650
3193.54410,0.22781
3195.47257,0.22429
3197.40104,0.21914
3199.32951,0.21181
3201.25797,0.20508
3203.18644,0.20486
3205.11491,0.21136
3207.04338,0.21874
3208.97185,0.22176
3210.90032,0.22038
3212.82879,0.21879
3214.75725,0.21992
3216.68572,0.22029
3218.61419,0.21934
3220.54266,0.22160
3222.47113,0.22469
3224.39960,0.22322
3226.32807,0.21825
3228.25654,0.21745
3230.18500,0.22212
3232.11347,0.22368
3234.04194,0.22134
3235.97041,0.21974
3237.89888,0.21861
3239.82735,0.21941
3241.75582,0.22318
3243.68428,0.22509
3245.61275,0.22144
3247.54122,0.21655
3249.46969,0.21464
3251.39816,0.21318
3253.32663,0.21146
3255.25510,0.21207
3257.18357,0.21595
3259.11203,0.22018
3261.04050,0.21873
3262.96897,0.21175
3264.89744,0.20819
3266.82591,0.21138
3268.75438,0.21526
3270.68285,0.21749
3272.61131,0.21818
3274.53978,0.21763
3276.46825,0.21735
3278.39672,0.21713
3280.32519,0.21735
3282.25366,0.21595
3284.18213,0.21282
3286.11060,0.21450
3288.03906,0.22093
3289.96753,0.22369
3291.89600,0.21992
3293.82447,0.21378
3295.75294,0.21146
3297.68141,0.21572
3299.60988,0.21961
3301.53834,0.21788
3303.46681,0.21521
3305.39528,0.21663
3307.32375,0.22129
3309.25222,0.22355
3311.18069,0.21921
3313.10916,0.21155
3315.03763,0.20783
3316.96609,0.21011
3318.89456,0.21358
3320.82303,0.21314
3322.75150,0.21014
3324.67997,0.20981
3326.60844,0.21311
3328.53691,0.21672
3330.46537,0.21656
3332.39384,0.21525
3334.32231,0.21845
3336.25078,0.22213
3338.17925,0.22196
3340.10772,0.21996
3342.03619,0.21880
3343.96466,0.22122
3345.89312,0.22476
3347.82159,0.22519
3349.75006,0.22338
3351.67853,0.22185
3353.60700,0.22257
3355.53547,0.22411
3357.46394,0.22163
3359.39240,0.21530
3361.32087,0.21152
3363.24934,0.21420
3365.17781,0.21813
3367.10628,0.21638
3369.03475,0.21419
3370.96322,0.21687
3372.89168,0.21716
3374.82015,0.21311
3376.74862,0.21032
3378.67709,0.21016
3380.60556,0.21318
3382.53403,0.21726
3384.46250,0.21487
3386.39097,0.20573
3388.31943,0.20123
3390.24790,0.20774
3392.17637,0.21774
3394.10484,0.22038
3396.03331,0.21577
3397.96178,0.21296
3399.89025,0.21528
3401.81871,0.21739
3403.74718,0.21572
3405.67565,0.21232
3407.60412,0.20961
3409.53259,0.20767
3411.46106,0.20771
3413.38953,0.21003
3415.31800,0.21080
3417.24646,0.21119
3419.17493,0.21665
3421.10340,0.22494
3423.03187,0.22776
3424.96034,0.22287
3426.88881,0.21777
3428.81728,0.21656
3430.74574,0.21560
3432.67421,0.21499
3434.60268,0.21479
3436.53115,0.21224
3438.45962,0.20860
3440.38809,0.20590
3442.31656,0.20576
3444.24503,0.20938
3446.17349,0.21420
3448.10196,0.21395
3450.03043,0.20626
3451.95890,0.19744
3453.88737,0.19216
3455.81584,0.19205
3457.74431,0.19683
3459.67277,0.20042
3461.60124,0.19924
3463.52971,0.19723
3465.45818,0.19748
3467.38665,0.19949
3469.31512,0.20182
3471.24359,0.20028
3473.17206,0.19568
3475.10052,0.19537
3477.02899,0.19724
3478.95746,0.19428
3480.88593,0.18743
3482.81440,0.18234
3484.74287,0.18165
3486.67134,0.18309
3488.59980,0.18358
3490.52827,0.18267
3492.45674,0.18478
3494.38521,0.19116
3496.31368,0.19510
3498.24215,0.19351
3500.17062,0.18948
3502.09909,0.18261
3504.02755,0.17488
3505.95602,0.17615
3507.88449,0.18460
3509.81296,0.18722
3511.74143,0.18400
3513.66990,0.18229
3515.59837,0.17904
3517.52683,0.17513
3519.45530,0.17746
3521.38377,0.18229
3523.31224,0.18215
3525.24071,0.18002
3527.16918,0.18070
3529.09765,0.18119
3531.02611,0.17765
3532.95458,0.17346
3534.88305,0.17360
3536.81152,0.17705
3538.73999,0.17933
3540.66846,0.17857
3542.59693,0.17689
3544.52540,0.17694
3546.45386,0.17788
3548.38233,0.17929
3550.31080,0.18220
3552.23927,0.18209
3554.16774,0.17577
3556.09621,0.17025
3558.02468,0.16957
3559.95314,0.17032
3561.88161,0.17110
3563.81008,0.17474
3565.73855,0.17871
3567.66702,0.17517
3569.59549,0.16939
3571.52396,0.16670
3573.45243,0.16496
3575.38089,0.16513
3577.30936,0.16619
3579.23783,0.16444
3581.16630,0.16092
3583.09477,0.16027
3585.02324,0.16214
3586.95171,0.16354
3588.88017,0.16379
3590.80864,0.16276
3592.73711,0.16205
3594.66558,0.16273
3596.59405,0.16487
3598.52252,0.16875
3600.45099,0.16842
3602.37946,0.15960
3604.30792,0.15225
3606.23639,0.15205
3608.16486,0.15361
3610.09333,0.15629
3612.02180,0.16169
3613.95027,0.16519
3615.87874,0.16660
3617.80720,0.16999
3619.73567,0.16966
3621.66414,0.15929
3623.59261,0.15013
3625.52108,0.15024
3627.44955,0.15771
3629.37802,0.16132
3631.30649,0.15599
3633.23495,0.15028
3635.16342,0.14478
3637.09189,0.14184
3639.02036,0.14189
3640.94883,0.14119
3642.87730,0.14053
3644.80577,0.14426
3646.73423,0.15395
3648.66270,0.16467
3650.59117,0.16208
3652.51964,0.15116
3654.44811,0.14494
3656.37658,0.14160
3658.30505,0.13442
3660.23352,0.12876
3662.16198,0.13008
3664.09045,0.13465
3666.01892,0.13980
3667.94739,0.14833
3669.87586,0.15556
3671.80433,0.15474
3673.73280,0.15841
3675.66126,0.16432
3677.58973,0.15603
3679.51820,0.14462
3681.44667,0.13813
3683.37514,0.13404
3685.30361,0.13082
3687.23208,0.13181
3689.16055,0.13794
3691.08901,0.13954
3693.01748,0.13464
3694.94595,0.13013
3696.87442,0.12969
3698.80289,0.13477
3700.73136,0.14116
3702.65983,0.14084
3704.58829,0.13716
3706.51676,0.13864
3708.44523,0.14604
3710.37370,0.15343
3712.30217,0.14945
3714.23064,0.14007
3716.15911,0.13754
3718.08757,0.13891
3720.01604,0.13712
3721.94451,0.13591
3723.87298,0.13954
3725.80145,0.13831
3727.72992,0.13392
3729.65839,0.13767
3731.58686,0.14604
3733.51532,0.14799
3735.44379,0.14070
3737.37226,0.13263
3739.30073,0.12905
3741.22920,0.13038
3743.15767,0.13585
3745.08614,0.14173
3747.01460,0.14689
3748.94307,0.15570
3750.87154,0.16204
3752.80001,0.15123
3754.72848,0.13799
3756.65695,0.13434
3758.58542,0.13361
3760.51389,0.12698
3762.44235,0.12438
3764.37082,0.13194
3766.29929,0.14012
3768.22776,0.14100
3770.15623,0.13678
3772.08470,0.12999
3774.01317,0.12317
3775.94163,0.11908
3777.87010,0.12283
3779.79857,0.13135
3781.72704,0.13106
3783.65551,0.12471
3785.58398,0.12188
3787.51245,0.12364
3789.44092,0.12581
3791.36938,0.12501
3793.29785,0.12202
3795.22632,0.12104
3797.15479,0.12248
3799.08326,0.12842
3801.01173,0.13936
3802.94020,0.13993
3804.86866,0.13537
3806.79713,0.13615
3808.72560,0.13358
3810.65407,0.12726
3812.58254,0.12433
3814.51101,0.12778
3816.43948,0.13574
3818.36795,0.14333
3820.29641,0.14775
3822.22488,0.13838
3824.15335,0.12528
3826.08182,0.12048
3828.01029,0.12007
3829.93876,0.12165
3831.86723,0.12339
3833.79569,0.12169
3835.72416,0.12305
3837.65263,0.13266
3839.58110,0.13785
3841.50957,0.13551
3843.43804,0.13076
3845.36651,0.12211
3847.29498,0.11679
3849.22344,0.12166
3851.15191,0.13529
3853.08038,0.14724
3855.00885,0.13644
3856.93732,0.12166
3858.86579,0.11788
3860.79426,0.12345
3862.72272,0.13000
3864.65119,0.12906
3866.57966,0.12498
3868.50813,0.12474
3870.43660,0.12720
3872.36507,0.12834
3874.29354,0.12670
3876.22200,0.12290
3878.15047,0.11997
3880.07894,0.11785
3882.00741,0.11602
3883.93588,0.11710
3885.86435,0.11967
3887.79282,0.11931
3889.72129,0.11798
3891.64975,0.11717
3893.57822,0.11435
3895.50669,0.11320
3897.43516,0.11847
3899.36363,0.12535
3901.29210,0.12461
3903.22057,0.12180
3905.14903,0.12015
3907.07750,0.11516
3909.00597,0.11148
3910.93444,0.11274
3912.86291,0.11630
3914.79138,0.11779
3916.71985,0.11591
3918.64832,0.11135
3920.57678,0.10572
3922.50525,0.10199
3924.43372,0.10280
3926.36219,0.10722
3928.29066,0.11116
3930.21913,0.11386
3932.14760,0.11522
3934.07606,0.11248
3936.00453,0.10666
3937.93300,0.10319
3939.86147,0.10546
3941.78994,0.11085
3943.71841,0.11169
3945.64688,0.10816
3947.57535,0.10817
3949.50381,0.10744
3951.43228,0.10193
3953.36075,0.10096
3955.28922,0.10475
3957.21769,0.10342
3959.14616,0.09704
3961.07463,0.09526
3963.00309,0.09964
3964.93156,0.10304
3966.86003,0.10288
3968.78850,0.10372
3970.71697,0.10537
3972.64544,0.10248
3974.57391,0.09855
3976.50238,0.09954
3978.43084,0.10300
3980.35931,0.10426
3982.28778,0.10398
3984.21625,0.10379
3986.14472,0.10265
3988.07319,0.10090
3990.00166,0.09789
3991.93012,0.09466
3993.85859,0.09502
3995.78706,0.09677
3997.71553,0.09794
3999.64400,0.10031
4001.57247,0.10121
4003.50094,0.09826
4005.42941,0.09337
4007.35787,0.09061
4009.28634,0.09217
4011.21481,0.09291
4013.14328,0.09046
4015.07175,0.09006
4017.00022,0.09295
4018.92869,0.09578
4020.85715,0.09816
4022.78562,0.09929
4024.71409,0.09829
4026.64256,0.09794
4028.57103,0.09794
4030.49950,0.09650
4032.42797,0.09414
4034.35644,0.09240
4036.28490,0.09359
4038.21337,0.09436
4040.14184,0.09103
4042.07031,0.09018
4043.99878,0.09415
4045.92725,0.09610
4047.85572,0.09608
4049.78418,0.09545
4051.71265,0.09388
4053.64112,0.09465
4055.56959,0.09515
4057.49806,0.09200
4059.42653,0.08855
4061.35500,0.08878
4063.28346,0.09113
4065.21193,0.08780
4067.14040,0.07787
4069.06887,0.07289
4070.99734,0.07709
4072.92581,0.08361
4074.85428,0.08844
4076.78275,0.08872
4078.71121,0.08430
4080.63968,0.08097
4082.56815,0.08167
4084.49662,0.08639
4086.42509,0.09267
4088.35356,0.09289
4090.28203,0.08618
4092.21049,0.08174
4094.13896,0.08233
4096.06743,0.08062
4097.99590,0.07394
4099.92437,0.07080
4101.85284,0.07471
4103.78131,0.07924
4105.70978,0.08188
4107.63824,0.08409
4109.56671,0.08578
4111.49518,0.08419
4113.42365,0.07834
4115.35212,0.07416
4117.28059,0.07449
4119.20906,0.07619
4121.13752,0.07759
4123.06599,0.07668
4124.99446,0.07135
4126.92293,0.06432
4128.85140,0.06330
4130.77987,0.06866
4132.70834,0.07154
4134.63681,0.07171
4136.56527,0.07313
4138.49374,0.07374
4140.42221,0.07379
4142.35068,0.07425
4144.27915,0.07607
4146.20762,0.07955
4148.13609,0.07883
4150.06455,0.07228
4151.99302,0.06660
4153.92149,0.06669
4155.84996,0.07183
4157.77843,0.07747
4159.70690,0.07908
4161.63537,0.07525
4163.56384,0.06815
4165.49230,0.06320
4167.42077,0.06216
4169.34924,0.06258
4171.27771,0.06472
4173.20618,0.06815
4175.13465,0.07216
4177.06312,0.07474
4178.99158,0.07100
4180.92005,0.06524
4182.84852,0.06421
4184.77699,0.06599
4186.70546,0.06703
4188.63393,0.06404
4190.56240,0.05710
4192.49087,0.05237
4194.41933,0.05513
4196.34780,0.06216
4198.27627,0.06461
4200.20474,0.06069
4202.13321,0.05642
4204.06168,0.05598
4205.99015,0.05826
4207.91861,0.05802
4209.84708,0.05469
4211.77555,0.05631
4213.70402,0.06512
4215.63249,0.07168
4217.56096,0.07049
4219.48943,0.06486
4221.41789,0.05632
4223.34636,0.04914
4225.27483,0.05057
4227.20330,0.05441
4229.13177,0.05344
4231.06024,0.05433
4232.98871,0.05829
4234.91718,0.05816
4236.84564,0.05425
4238.77411,0.05188
4240.70258,0.05250
4242.63105,0.05195
4244.55952,0.04955
4246.48799,0.04859
4248.41646,0.04830
4250.34492,0.05073
4252.27339,0.05732
4254.20186,0.05985
4256.13033,0.05271
4258.05880,0.04420
4259.98727,0.04492
4261.91574,0.04877
4263.84421,0.04532
4265.77267,0.04009
4267.70114,0.04098
4269.62961,0.04666
4271.55808,0.05063
4273.48655,0.04742
4275.41502,0.04232
4277.34349,0.04476
4279.27195,0.05159
4281.20042,0.05448
4283.12889,0.05190
4285.05736,0.04406
4286.98583,0.03721
4288.91430,0.03918
4290.84277,0.04090
4292.77124,0.03620
4294.69970,0.03475
4296.62817,0.03794
4298.55664,0.03943
4300.48511,0.03848
4302.41358,0.03698
4304.34205,0.03707
4306.27052,0.03815
4308.19898,0.03649
4310.12745,0.03490
4312.05592,0.03868
4313.98439,0.04187
4315.91286,0.03838
4317.84133,0.03498
4319.76980,0.03721
4321.69827,0.04095
4323.62673,0.04346
4325.55520,0.04555
4327.48367,0.04452
4329.41214,0.03764
4331.34061,0.03096
4333.26908,0.03143
4335.19755,0.03483
4337.12601,0.03324
4339.05448,0.02703
4340.98295,0.02419
4342.91142,0.02849
4344.83989,0.03553
4346.76836,0.03977
4348.69683,0.03934
4350.62530,0.03642
4352.55376,0.03163
4354.48223,0.02498
4356.41070,0.01998
4358.33917,0.01955
4360.26764,0.02336
4362.19611,0.02624
4364.12458,0.02546
4366.05304,0.02649
4367.98151,0.02785
4369.90998,0.02439
4371.83845,0.02098
4373.76692,0.02092
4375.69539,0.02260
4377.62386,0.02462
4379.55232,0.02281
4381.48079,0.01540
4383.40926,0.01071
4385.33773,0.01461
4387.26620,0.02017
4389.19467,0.02275
4391.12314,0.02194
4393.05161,0.01883
4394.98007,0.01894
4396.90854,0.02023
4398.83701,0.01850
4400.76548,0.01824
4402.69395,0.02177
4404.62242,0.02435
4406.55089,0.02199
4408.47935,0.01797
4410.40782,0.01806
4412.33629,0.01934
4414.26476,0.02019
4416.19323,0.02570
4418.12170,0.03024
4420.05017,0.02556
4421.97864,0.01667
4423.90710,0.01277
4425.83557,0.01301
4427.76404,0.01022
4429.69251,0.00664
4431.62098,0.00619
4433.54945,0.00437
4435.47792,0.00094
4437.40638,0.00225
4439.33485,0.00769
4441.26332,0.00970
4443.19179,0.00682
4445.12026,0.00696
4447.04873,0.01503
4448.97720,0.02285
4450.90567,0.02322
4452.83413,0.01681
4454.76260,0.00600
4456.69107,-0.00066
4458.61954,0.00218
4460.54801,0.00895
4462.47648,0.01475
4464.40495,0.01496
4466.33341,0.01032
4468.26188,0.01273
4470.19035,0.02017
4472.11882,0.02081
4474.04729,0.01969
4475.97576,0.01879
4477.90423,0.01308
4479.83270,0.00653
4481.76116,0.00207
4483.68963,0.00263
4485.61810,0.00730
4487.54657,0.00522
4489.47504,-0.00420
4491.40351,-0.00882
4493.33198,-0.00688
4495.26044,-0.00434
4497.18891,0.00120
4499.11738,0.00694
4501.04585,0.00642
4502.97432,0.00533
4504.90279,0.00844
4506.83126,0.01226
4508.75973,0.01091
4510.68819,0.00610
4512.61666,0.00833
4514.54513,0.01475
4516.47360,0.01600
4518.40207,0.01671
4520.33054,0.01812
4522.25901,0.01607
4524.18747,0.01219
4526.11594,0.00762
4528.04441,0.00550
4529.97288,0.00832
4531.90135,0.01203
4533.82982,0.01196
4535.75829,0.00827
4537.68676,0.00974
4539.61522,0.01616
4541.54369,0.01215
4543.47216,0.00271
4545.40063,0.00640
4547.32910,0.01698
4549.25757,0.01586
4551.18604,0.00235
4553.11450,-0.00884
4555.04297,-0.00910
4556.97144,-0.00266
4558.89991,0.00372
4560.82838,0.00664
4562.75685,0.00610
4564.68532,0.00655
4566.61378,0.01042
4568.54225,0.01311
4570.47072,0.01319
4572.39919,0.01250
4574.32766,0.01013
4576.25613,0.00596
4578.18460,0.00207
4580.11307,0.00126
4582.04153,0.00293
4583.97000,0.00187
4585.89847,-0.00470
4587.82694,-0.00877
4589.75541,-0.00382
4591.68388,0.00126
4593.61235,-0.00171
4595.54081,-0.00599
4597.46928,-0.00112
4599.39775,0.00636
4601.32622,0.00439
4603.25469,-0.00047
4605.18316,0.00179
4607.11163,0.01054
4609.04010,0.01890
4610.96856,0.01941
4612.89703,0.01544
4614.82550,0.01272
4616.75397,0.00867
4618.68244,0.00617
4620.61091,0.00886
4622.53938,0.00863
4624.46784,0.00098
4626.39631,-0.00593
4628.32478,-0.00425
4630.25325,0.00418
4632.18172,0.01664
4634.11019,0.02957
4636.03866,0.03020
4637.96713,0.01771
4639.89559,0.00631
4641.82406,-0.00283
4643.75253,-0.01012
4645.68100,-0.00851
4647.60947,-0.00383
4649.53794,-0.00445
4651.46641,-0.00613
4653.39487,-0.00510
4655.32334,-0.00479
4657.25181,-0.00699
4659.18028,-0.00673
4661.10875,0.00144
4663.03722,0.01032
4664.96569,0.01059
4666.89416,0.00743
4668.82262,0.00458
4670.75109,0.00306
4672.67956,0.00937
4674.60803,0.01631
4676.53650,0.01151
4678.46497,0.00042
4680.39344,-0.00553
4682.32190,-0.00476
4684.25037,-0.00001
4686.17884,0.00852
4688.10731,0.01664
4690.03578,0.01745
4691.96425,0.01250
4693.89272,0.00452
4695.82119,-0.00386
4697.74965,-0.00450
4699.67812,0.00284
4701.60659,0.00741
4703.53506,0.00755
4705.46353,0.00853
4707.39200,0.00585
4709.32047,-0.00346
4711.24893,-0.00619
4713.17740,0.00441
4715.10587,0.01365
4717.03434,0.01175
4718.96281,0.00378
4720.89128,-0.00479
4722.81975,-0.00879
4724.74821,-0.00381
4726.67668,0.00294
4728.60515,0.00419
4730.53362,0.00452
4732.46209,0.00642
4734.39056,0.00745
4736.31903,0.00835
4738.24750,0.01340
4740.17596,0.01934
4742.10443,0.01385
4744.03290,0.00033
4745.96137,-0.00382
4747.88984,0.00300
4749.81831,0.00818
4751.74678,0.00875
4753.67524,0.00718
4755.60371,0.00148
4757.53218,-0.00276
4759.46065,0.00046
4761.38912,0.00148
4763.31759,-0.00648
4765.24606,-0.01051
4767.17453,-0.00257
4769.10299,0.00432
4771.03146,0.00027
4772.95993,-0.00413
4774.88840,0.00077
4776.81687,0.00607
4778.74534,0.00475
4780.67381,0.00458
4782.60227,0.01214
4784.53074,0.02387
4786.45921,0.02935
4788.38768,0.02213
4790.31615,0.01109
4792.24462,0.00984
4794.17309,0.01979
4796.10156,0.02544
4798.03002,0.01462
4799.95849,-0.00131
4801.88696,-0.00738
4803.81543,-0.00389
4805.74390,0.00391
4807.67237,0.01296
4809.60084,0.01562
4811.52930,0.00623
4813.45777,-0.00564
4815.38624,-0.00874
4817.31471,-0.00580
4819.24318,-0.00222
4821.17165,0.00026
4823.10012,0.00352
4825.02859,0.00442
4826.95705,-0.00241
4828.88552,-0.00633
4830.81399,-0.00329
4832.74246,-0.00092
4834.67093,0.00070
4836.59940,0.00327
4838.52787,0.00936
4840.45633,0.01397
4842.38480,0.00997
4844.31327,0.00575
4846.24174,0.01052
4848.17021,0.02024
4850.09868,0.02403
4852.02715,0.02074
4853.95562,0.01878
4855.88408,0.01352
4857.81255,0.00122
4859.74102,-0.00304
4861.66949,0.00140
4863.59796,0.00162
4865.52643,0.00384
4867.45490,0.01084
4869.38336,0.01083
4871.31183,0.00714
4873.24030,0.01058
4875.16877,0.01063
4877.09724,-0.00028
4879.02571,-0.00608
4880.95418,-0.00011
4882.88265,0.00673
4884.81111,0.01227
4886.73958,0.01758
4888.66805,0.01228
4890.59652,-0.00876
4892.52499,-0.02511
4894.45346,-0.01739
4896.38193,-0.00359
4898.31039,-0.00395
4900.23886,-0.00853
4902.16733,-0.00571
4904.09580,-0.00166
4906.02427,-0.00577
4907.95274,-0.00338
4909.88121,0.01238
4911.80967,0.01611
4913.73814,0.00507
4915.66661,-0.00077
4917.59508,-0.00059
4919.52355,0.00245
4921.45202,0.01075
4923.38049,0.02182
4925.30896,0.02961
4927.23742,0.02202
4929.16589,0.00257
4931.09436,-0.01001
4933.02283,-0.01063
4934.95130,-0.00164
4936.87977,0.00886
4938.80824,0.01310
4940.73670,0.01316
4942.66517,0.00760
4944.59364,-0.00094
4946.52211,-0.00235
4948.45058,0.00468
4950.37905,0.01118
4952.30752,0.01320
4954.23599,0.01192
4956.16445,0.00692
4958.09292,0.00203
4960.02139,0.00259
4961.94986,0.01064
4963.87833,0.02022
4965.80680,0.02076
4967.73527,0.01369
4969.66373,0.00846
4971.59220,0.00589
4973.52067,0.00618
4975.44914,0.01535
4977.37761,0.02370
4979.30608,0.01939
4981.23455,0.01150
4983.16302,0.01167
4985.09148,0.01477
4987.01995,0.00601
4988.94842,-0.00406
4990.87689,0.00674
4992.80536,0.02556
4994.73383,0.02815
4996.66230,0.01326
4998.59076,-0.00435
5000.51923,-0.01200
5002.44770,-0.00867
5004.37617,0.00110
5006.30464,0.01048
5008.23311,0.01082
5010.16158,0.00763
5012.09005,0.01353
5014.01851,0.01938
5015.94698,0.01354
5017.87545,0.00555
5019.80392,0.00355
5021.73239,0.00618
5023.66086,0.01476
5025.58933,0.01648
5027.51779,0.00056
5029.44626,-0.00831
5031.37473,0.00234
5033.30320,0.01094
5035.23167,0.00990
5037.16014,0.01098
5039.08861,0.01780
5041.01708,0.02371
5042.94554,0.01962
5044.87401,0.01007
5046.80248,0.01125
5048.73095,0.01420
5050.65942,0.00359
5052.58789,-0.00823
5054.51636,-0.00779
5056.44482,0.00541
5058.37329,0.01969
5060.30176,0.01934
5062.23023,0.01142
5064.15870,0.01168
5066.08717,0.01673
5068.01564,0.01951
5069.94410,0.01809
5071.87257,0.00849
5073.80104,-0.00820
5075.72951,-0.02448
5077.65798,-0.03411
5079.58645,-0.03146
5081.51492,-0.01621
5083.44339,-0.00324
5085.37185,0.00138
5087.30032,0.00574
5089.22879,0.00513
5091.15726,-0.00213
5093.08573,0.00020
5095.01420,0.01247
5096.94267,0.02022
5098.87113,0.02256
5100.79960,0.02388
5102.72807,0.02244
5104.65654,0.01733
5106.58501,0.00963
5108.51348,-0.00569
5110.44195,-0.02616
5112.37042,-0.03221
5114.29888,-0.01885
5116.22735,-0.00426
5118.15582,-0.00127
5120.08429,-0.00285
5122.01276,-0.00153
5123.94123,-0.00103
5125.86970,0.00499
5127.79816,0.01928
5129.72663,0.02921
5131.65510,0.02990
5133.58357,0.02292
5135.51204,0.00941
5137.44051,-0.00014
5139.36898,0.00052
5141.29745,0.00289
5143.22591,0.00497
5145.15438,0.01484
5147.08285,0.03222
5149.01132,0.04242
5150.93979,0.03693
5152.86826,0.02698
5154.79673,0.01956
5156.72519,0.01352
5158.65366,0.01259
5160.58213,0.01270
5162.51060,0.00675
5164.43907,-0.00037
5166.36754,0.00047
5168.29601,0.00941
5170.22448,0.01460
5172.15294,0.00859
5174.08141,0.00494
5176.00988,0.01746
5177.93835,0.03937
5179.86682,0.05116
5181.79529,0.04005
5183.72376,0.01521
5185.65222,-0.00105
5187.58069,0.00503
5189.50916,0.02303
5191.43763,0.03188
5193.36610,0.03109
5195.29457,0.03237
5197.22304,0.03124
5199.15151,0.02941
5201.07997,0.03879
5203.00844,0.04937
5204.93691,0.04416
5206.86538,0.02885
5208.79385,0.02336
5210.72232,0.02235
5212.65079,0.00872
5214.57925,-0.00383
5216.50772,0.01021
5218.43619,0.03827
5220.36466,0.04889
5222.29313,0.04048
5224.22160,0.03339
5226.15007,0.04232
5228.07854,0.05505
5230.00700,0.04938
5231.93547,0.02643
5233.86394,0.01090
5235.79241,0.01922
5237.72088,0.03576
5239.64935,0.04466
5241.57782,0.04491
5243.50628,0.03376
5245.43475,0.02845
5247.36322,0.04032
5249.29169,0.03911
5251.22016,0.01867
5253.14863,0.00810
5255.07710,0.01925
5257.00556,0.03709
5258.93403,0.04212
5260.86250,0.03812
5262.79097,0.03836
5264.71944,0.03909
5266.64791,0.03249
5268.57638,0.02757
5270.50485,0.03038
5272.43331,0.02635
5274.36178,0.00859
5276.29025,-0.00089
5278.21872,0.00447
5280.14719,0.00816
5282.07566,0.01866
5284.00413,0.04249
5285.93259,0.05592
5287.86106,0.05113
5289.78953,0.04275
5291.71800,0.03921
5293.64647,0.04400
5295.57494,0.05337
5297.50341,0.05529
5299.43188,0.04626
5301.36034,0.04014
5303.28881,0.04681
5305.21728,0.04798
5307.14575,0.02842
5309.07422,0.01032
5311.00269,0.01417
5312.93116,0.02917
5314.85962,0.03789
5316.78809,0.03324
5318.71656,0.02687
5320.64503,0.02927
5322.57350,0.03742
5324.50197,0.05056
5326.43044,0.06034
5328.35891,0.05253
5330.28737,0.03778
5332.21584,0.03458
5334.14431,0.04391
5336.07278,0.05843
5338.00125,0.06950
5339.92972,0.06645
5341.85819,0.05880
5343.78665,0.06465
5345.71512,0.08036
5347.64359,0.07731
5349.57206,0.05305
5351.50053,0.02914
5353.42900,0.01498
5355.35747,0.01849
5357.28594,0.03699
5359.21440,0.04493
5361.14287,0.03615
5363.07134,0.03331
5364.99981,0.03885
5366.92828,0.04116
5368.85675,0.04422
5370.78522,0.04339
5372.71368,0.04165
5374.64215,0.04367
5376.57062,0.03320
5378.49909,0.01807
5380.42756,0.01833
5382.35603,0.02947
5384.28450,0.03596
5386.21297,0.03118
5388.14143,0.02596
5390.06990,0.03251
5391.99837,0.05901
5393.92684,0.09581
5395.85531,0.11355
5397.78378,0.10384
5399.71225,0.08362
5401.64071,0.07551
5403.56918,0.08279
5405.49765,0.08088
5407.42612,0.06422
5409.35459,0.05639
5411.28306,0.06821
5413.21153,0.07766
5415.13999,0.06462
5417.06846,0.05303
5418.99693,0.05126
5420.92540,0.03937
5422.85387,0.02640
5424.78234,0.03788
5426.71081,0.06086
5428.63928,0.06466
5430.56774,0.06021
5432.49621,0.06808
5434.42468,0.07451
5436.35315,0.06337
5438.28162,0.03143
5440.21009,0.00331
5442.13856,0.02005
5444.06702,0.06220
5445.99549,0.07841
5447.92396,0.06112
5449.85243,0.03174
5451.78090,0.00921
5453.70937,0.01507
5455.63784,0.04579
5457.56631,0.05596
5459.49477,0.04654
5461.42324,0.05565
5463.35171,0.06536
5465.28018,0.05636
5467.20865,0.04854
5469.13712,0.05288
5471.06559,0.05021
5472.99405,0.03636
5474.92252,0.03295
5476.85099,0.04190
5478.77946,0.05508
5480.70793,0.07146
5482.63640,0.07803
5484.56487,0.07636
5486.49334,0.07926
5488.42180,0.08307
5490.35027,0.07646
5492.27874,0.05536
5494.20721,0.03520
5496.13568,0.02637
5498.06415,0.02218
5499.99262,0.02402
5501.92108,0.03175
5503.84955,0.04060
5505.77802,0.04906
5507.70649,0.05692
5509.63496,0.06555
5511.56343,0.06887
5513.49190,0.06413
5515.42037,0.05295
5517.34883,0.03361
5519.27730,0.02195
5521.20577,0.02232
5523.13424,0.02611
5525.06271,0.04967
5526.99118,0.08065
5528.91965,0.08150
5530.84811,0.06724
5532.77658,0.06616
5534.70505,0.06597
5536.63352,0.05685
5538.56199,0.05391
5540.49046,0.06066
5542.41893,0.05596
5544.34740,0.04194
5546.27586,0.04443
5548.20433,0.05407
5550.13280,0.04242
5552.06127,0.02412
5553.98974,0.02626
5555.91821,0.03417
5557.84668,0.03063
5559.77514,0.02710
5561.70361,0.02780
5563.63208,0.02664
5565.56055,0.03734
5567.48902,0.06753
5569.41749,0.08657
5571.34596,0.07636
5573.27443,0.06478
5575.20289,0.07630
5577.13136,0.08537
5579.05983,0.07906
5580.98830,0.07327
5582.91677,0.06804
5584.84524,0.05551
5586.77371,0.03874
5588.70217,0.03945
5590.63064,0.06168
5592.55911,0.08270
5594.48758,0.08736
5596.41605,0.07534
5598.34452,0.06462
5600.27299,0.06361
5602.20145,0.05937
5604.12992,0.04470
5606.05839,0.03647
5607.98686,0.04418
5609.91533,0.05345
5611.84380,0.05419
5613.77227,0.05367
5615.70074,0.07185
5617.62920,0.09400
5619.55767,0.08672
5621.48614,0.06714
5623.41461,0.06245
5625.34308,0.06795
5627.27155,0.08292
5629.20002,0.10445
5631.12848,0.11397
5633.05695,0.09983
5634.98542,0.06532
5636.91389,0.04045
5638.84236,0.04613
5640.77083,0.06086
5642.69930,0.06502
5644.62777,0.06320
5646.55623,0.06318
5648.48470,0.06654
5650.41317,0.07362
5652.34164,0.07917
5654.27011,0.08090
5656.19858,0.09250
5658.12705,0.10406
5660.05551,0.08864
5661.98398,0.06270
5663.91245,0.04828
5665.84092,0.05107
5667.76939,0.06495
5669.69786,0.06237
5671.62633,0.05539
5673.55480,0.06035
5675.48326,0.06310
5677.41173,0.07197
5679.34020,0.08113
5681.26867,0.07437
5683.19714,0.06761
5685.12561,0.06128
5687.05408,0.04607
5688.98254,0.03809
5690.91101,0.03815
5692.83948,0.04257
5694.76795,0.06656
5696.69642,0.08885
5698.62489,0.07634
5700.55336,0.05378
5702.48183,0.04892
5704.41029,0.05022
5706.33876,0.04543
5708.26723,0.03080
5710.19570,0.01738
5712.12417,0.01763
5714.05264,0.03413
5715.98111,0.07335
5717.90957,0.11830
5719.83804,0.13647
5721.76651,0.12953
5723.69498,0.12098
5725.62345,0.10994
5727.55192,0.08342
5729.48039,0.04675
5731.40886,0.01981
5733.33732,0.03683
5735.26579,0.09397
5737.19426,0.11791
5739.12273,0.08393
5741.05120,0.04509
5742.97967,0.03940
5744.90814,0.05151
5746.83660,0.05772
5748.76507,0.07691
5750.69354,0.10554
5752.62201,0.09427
5754.55048,0.06568
5756.47895,0.06875
5758.40742,0.08141
5760.33588,0.07377
5762.26435,0.05826
5764.19282,0.05144
5766.12129,0.04347
5768.04976,0.04312
5769.97823,0.07127
5771.90670,0.09422
5773.83517,0.08171
5775.76363,0.06287
5777.69210,0.05499
5779.62057,0.05391
5781.54904,0.06009
5783.47751,0.06884
5785.40598,0.08058
5787.33445,0.09593
5789.26291,0.08801
5791.19138,0.05214
5793.11985,0.04200
5795.04832,0.06618
5796.97679,0.07908
5798.90526,0.08034
5800.83373,0.08543
5802.76220,0.07663
5804.69066,0.05655
5806.61913,0.05687
5808.54760,0.06914
5810.47607,0.05270
5812.40454,0.01001
5814.33301,0.00003
5816.26148,0.03015
5818.18994,0.04417
5820.11841,0.03570
5822.04688,0.02882
5823.97535,0.02881
5825.90382,0.04114
5827.83229,0.05516
5829.76076,0.06243
5831.68923,0.06751
5833.61769,0.06868
5835.54616,0.06517
5837.47463,0.06090
5839.40310,0.06172
5841.33157,0.07314
5843.26004,0.09099
5845.18851,0.09476
5847.11697,0.08208
5849.04544,0.07961
5850.97391,0.07879
5852.90238,0.06315
5854.83085,0.06017
5856.75932,0.06924
5858.68779,0.05609
5860.61626,0.04244
5862.54472,0.07199
5864.47319,0.09799
5866.40166,0.07407
5868.33013,0.06255
5870.25860,0.08962
5872.18707,0.09153
5874.11554,0.05513
5876.04400,0.03813
5877.97247,0.05834
5879.90094,0.07614
5881.82941,0.06754
5883.75788,0.05191
5885.68635,0.05634
5887.61482,0.05903
5889.54329,0.04937
5891.47175,0.05196
5893.40022,0.05586
5895.32869,0.05649
5897.25716,0.05247
5899.18563,0.03576
5901.11410,0.04879
5903.04257,0.09853
5904.97103,0.11974
5906.89950,0.10729
5908.82797,0.10701
5910.75644,0.10365
5912.68491,0.05462
5914.61338,0.02083
5916.54185,0.07321
5918.47032,0.13186
5920.39878,0.12880
5922.32725,0.11774
5924.25572,0.09610
5926.18419,0.04320
5928.11266,0.02510
5930.04113,0.05733
5931.96960,0.07441
5933.89806,0.04391
5935.82653,0.01379
5937.75500,0.04572
5939.68347,0.10804
5941.61194,0.12090
5943.54041,0.08902
5945.46888,0.07317
5947.39734,0.07350
5949.32581,0.07108
5951.25428,0.06405
5953.18275,0.05193
5955.11122,0.04099
5957.03969,0.04358
5958.96816,0.07007
5960.89663,0.09050
5962.82509,0.08820
5964.75356,0.09651
5966.68203,0.11773
5968.61050,0.13016
5970.53897,0.11493
5972.46744,0.07513
5974.39591,0.05281
5976.32437,0.04762
5978.25284,0.01505
5980.18131,-0.03067
5982.10978,-0.01532
5984.03825,0.05381
5985.96672,0.07786
5987.89519,0.06957
5989.82366,0.10834
5991.75212,0.15645
5993.68059,0.15116
5995.60906,0.10858
5997.53753,0.07331
5999.46600,0.06070
6001.39447,0.06033
6003.32294,0.05841
6005.25140,0.06368
6007.17987,0.08205
6009.10834,0.09380
6011.03681,0.08747
6012.96528,0.05727
6014.89375,0.01223
6016.82222,-0.00706
6018.75069,0.02692
6020.67915,0.06578
6022.60762,0.04526
6024.53609,0.02269
6026.46456,0.06978
6028.39303,0.11572
6030.32150,0.09891
6032.24997,0.09424
6034.17843,0.14298
6036.10690,0.17947
6038.03537,0.15771
6039.96384,0.11512
6041.89231,0.08272
6043.82078,0.06388
6045.74925,0.07692
6047.67772,0.11388
6049.60618,0.11844
6051.53465,0.07759
6053.46312,0.01955
6055.39159,-0.04147
6057.32006,-0.06722
6059.24853,-0.04587
6061.17700,-0.00599
6063.10546,0.04380
6065.03393,0.08533
6066.96240,0.09147
6068.89087,0.06827
6070.81934,0.03622
6072.74781,0.02780
6074.67628,0.06161
6076.60475,0.09882
6078.53321,0.09794
6080.46168,0.04505
6082.39015,-0.02159
6084.31862,-0.02726
6086.24709,0.03166
6088.17556,0.09172
6090.10403,0.12579
6092.03249,0.13902
6093.96096,0.11819
6095.88943,0.06835
6097.81790,0.03997
6099.74637,0.06112
6101.67484,0.08567
6103.60331,0.07105
6105.53177,0.05885
6107.46024,0.07970
6109.38871,0.10257
6111.31718,0.10586
6113.24565,0.07845
6115.17412,0.01994
6117.10259,-0.02525
6119.03106,-0.00897
6120.95952,0.03716
6122.88799,0.07793
6124.81646,0.11950
6126.74493,0.13508
6128.67340,0.11905
6130.60187,0.10464
6132.53034,0.09384
6134.45880,0.07024
6136.38727,0.05119
6138.31574,0.05909
6140.24421,0.06939
6142.17268,0.07264
6144.10115,0.07228
6146.02962,0.06141
6147.95809,0.05625
6149.88655,0.06471
6151.81502,0.09225
6153.74349,0.12815
6155.67196,0.13594
6157.60043,0.10583
6159.52890,0.05544
6161.45737,0.01611
6163.38583,0.01702
6165.31430,0.04687
6167.24277,0.07100
6169.17124,0.08942
6171.09971,0.11455
6173.02818,0.10939
6174.95665,0.04009
6176.88512,-0.02564
6178.81358,-0.03528
6180.74205,-0.01322
6182.67052,0.03298
6184.59899,0.08536
6186.52746,0.11816
6188.45593,0.11081
6190.38440,0.08286
6192.31286,0.08842
6194.24133,0.12446
6196.16980,0.15497
6198.09827,0.14759
6200.02674,0.08521
6201.95521,0.00109
6203.88368,-0.02907
6205.81215,0.01864
6207.74061,0.07639
6209.66908,0.10088
6211.59755,0.10287
6213.52602,0.09478
6215.45449,0.07292
6217.38296,0.03733
6219.31143,0.01530
6221.23989,0.04551
6223.16836,0.09269
6225.09683,0.07546
6227.02530,0.01557
6228.95377,-0.00689
6230.88224,0.01745
6232.81071,0.05407
6234.73918,0.08222
6236.66764,0.08537
6238.59611,0.07919
6240.52458,0.08398
6242.45305,0.07141
6244.38152,0.03679
6246.30999,0.01618
6248.23846,0.02250
6250.16692,0.04902
6252.09539,0.08308
6254.02386,0.10266
6255.95233,0.10696
6257.88080,0.09440
6259.80927,0.07198
6261.73774,0.08208
6263.66621,0.11349
6265.59467,0.11268
6267.52314,0.08649
6269.45161,0.07050
6271.38008,0.05086
6273.30855,0.01189
6275.23702,-0.00347
6277.16549,0.02352
6279.09395,0.05991
6281.02242,0.06101
6282.95089,0.00497
6284.87936,-0.02488
6286.80783,0.01449
6288.73630,0.04803
6290.66477,0.03857
6292.59323,0.02114
6294.52170,0.02519
6296.45017,0.03075
6298.37864,0.02174
6300.30711,0.02766
6302.23558,0.04593
6304.16405,0.04400
6306.09252,0.02611
6308.02098,0.00974
6309.94945,0.00939
6311.87792,0.02664
6313.80639,0.05397
6315.73486,0.06517
6317.66333,0.05353
6319.59180,0.04437
6321.52026,0.04453
6323.44873,0.04975
6325.37720,0.05307
6327.30567,0.06363
6329.23414,0.07338
6331.16261,0.06071
6333.09108,0.05254
6335.01955,0.05083
6336.94801,0.03354
6338.87648,0.02303
6340.80495,0.03528
6342.73342,0.05637
6344.66189,0.07322
6346.59036,0.06295
6348.51883,0.03536
6350.44729,0.03039
6352.37576,0.04266
6354.30423,0.05049
6356.23270,0.04129
6358.16117,0.00837
6360.08964,-0.03102
6362.01811,-0.01976
6363.94658,0.06218
6365.87504,0.13042
6367.80351,0.14902
6369.73198,0.14640
6371.66045,0.11948
6373.58892,0.09300
6375.51739,0.05621
6377.44586,0.00325
6379.37432,-0.00998
6381.30279,0.02520
6383.23126,0.05758
6385.15973,0.04712
6387.08820,0.03170
6389.01667,0.04263
6390.94514,0.04020
6392.87361,0.03469
6394.80207,0.08824
6396.73054,0.11747
6398.65901,0.06881
6400.58748,0.01831
6402.51595,-0.00219
6404.44442,-0.01284
6406.37289,0.00726
6408.30135,0.05624
6410.22982,0.08761
6412.15829,0.09532
6414.08676,0.08666
6416.01523,0.04724
6417.94370,0.02427
6419.87217,0.06941
6421.80064,0.10867
6423.72910,0.09712
6425.65757,0.08197
6427.58604,0.09514
6429.51451,0.11305
6431.44298,0.10415
6433.37145,0.07100
6435.29992,0.02553
6437.22838,-0.02367
6439.15685,-0.04131
6441.08532,-0.01544
6443.01379,0.03424
6444.94226,0.06251
6446.87073,0.04221
6448.79920,-0.00914
6450.72766,-0.06586
6452.65613,-0.08890
6454.58460,-0.04969
6456.51307,0.02626
6458.44154,0.07326
6460.37001,0.08296
6462.29848,0.06910
6464.22695,0.01732
6466.15541,-0.02631
6468.08388,0.00765
6470.01235,0.09097
6471.94082,0.13262
6473.86929,0.11346
6475.79776,0.09076
6477.72623,0.09427
6479.65469,0.07953
6481.58316,0.04864
6483.51163,0.06135
6485.44010,0.10287
6487.36857,0.10601
6489.29704,0.04758
6491.22551,0.00413
6493.15398,0.03659
6495.08244,0.08250
6497.01091,0.08548
6498.93938,0.06413
6500.86785,0.06439
6502.79632,0.08587
6504.72479,0.08007
6506.65326,0.04315
6508.58172,0.01558
6510.51019,0.01111
6512.43866,0.02843
6514.36713,0.07500
6516.29560,0.11267
6518.22407,0.11794
6520.15254,0.10702
6522.08101,0.09218
6524.00947,0.08557
6525.93794,0.05722
6527.86641,0.02514
6529.79488,0.05556
6531.72335,0.08395
6533.65182,0.04694
6535.58029,0.00155
6537.50875,-0.00595
6539.43722,0.02488
6541.36569,0.05556
6543.29416,0.06134
6545.22263,0.07964
6547.15110,0.10455
6549.07957,0.09956
6551.00804,0.07479
6552.93650,0.05518
6554.86497,0.02739
6556.79344,0.00013
6558.72191,0.03060
6560.65038,0.09088
6562.57885,0.09338
6564.50732,0.05032
6566.43578,0.03248
6568.36425,0.06418
6570.29272,0.11631
6572.22119,0.15487
6574.14966,0.13163
6576.07813,0.07459
6578.00660,0.07110
6579.93507,0.09375
6581.86353,0.09943
6583.79200,0.09708
6585.72047,0.08334
6587.64894,0.04770
6589.57741,-0.02080
6591.50588,-0.07229
6593.43435,-0.06035
6595.36281,-0.00820
6597.29128,0.04899
6599.21975,0.05131
6601.14822,-0.03425
6603.07669,-0.07796
6605.00516,-0.04604
6606.93363,-0.02383
6608.86210,0.01114
6610.79056,0.07818
6612.71903,0.12125
6614.64750,0.10622
6616.57597,0.05567
6618.50444,0.00915
6620.43291,-0.03687
6622.36138,-0.05534
6624.28984,0.01886
6626.21831,0.10503
6628.14678,0.08556
6630.07525,0.03891
6632.00372,0.02789
6633.93219,0.00070
6635.86066,0.01102
6637.78912,0.06539
6639.71759,0.06914
6641.64606,0.01389
6643.57453,-0.03088
6645.50300,-0.00863
6647.43147,0.01551
6649.35994,-0.02168
6651.28841,-0.05514
6653.21687,-0.05151
6655.14534,-0.03535
6657.07381,-0.00983
6659.00228,0.03247
6660.93075,0.05666
6662.85922,0.03588
6664.78769,0.03369
6666.71615,0.05213
6668.64462,0.02627
6670.57309,-0.00409
6672.50156,0.03428
6674.43003,0.13104
6676.35850,0.18614
6678.28697,0.13109
6680.21544,0.04805
6682.14390,0.02585
6684.07237,0.02219
6686.00084,-0.00905
6687.92931,0.00004
6689.85778,0.08683
6691.78625,0.13185
6693.71472,0.10007
6695.64318,0.07916
6697.57165,0.10024
6699.50012,0.12164
6701.42859,0.12420
6703.35706,0.09858
6705.28553,0.09548
6707.21400,0.15339
6709.14247,0.16947
6711.07093,0.11089
6712.99940,0.08385
6714.92787,0.12149
6716.85634,0.14345
6718.78481,0.10995
6720.71328,0.08894
6722.64175,0.08847
6724.57021,0.03957
6726.49868,-0.03482
6728.42715,-0.06988
6730.35562,-0.05028
6732.28409,-0.02852
6734.21256,-0.02878
6736.14103,-0.00843
6738.06950,0.02486
6739.99796,0.03986
6741.92643,0.04087
6743.85490,0.03398
6745.78337,0.02209
6747.71184,0.00297
6749.64031,-0.01602
6751.56878,-0.01344
6753.49724,0.00532
6755.42571,0.01360
6757.35418,0.00820
6759.28265,-0.00121
6761.21112,-0.01667
6763.13959,-0.04237
6765.06806,-0.05101
6766.99653,-0.01160
6768.92499,0.00883
6770.85346,-0.03451
6772.78193,-0.04230
6774.71040,0.02550
6776.63887,0.08294
6778.56734,0.08593
6780.49581,0.07750
6782.42427,0.04578
6784.35274,-0.03500
6786.28121,-0.08248
6788.20968,-0.03417
6790.13815,0.06611
6792.06662,0.13021
6793.99509,0.12055
6795.92355,0.09721
6797.85202,0.08247
6799.78049,0.05294
6801.70896,0.04488
6803.63743,0.05621
6805.56590,0.01335
6807.49437,0.01346
6809.42284,0.08175
6811.35130,0.07400
6813.27977,0.03215
6815.20824,0.08516
6817.13671,0.14697
6819.06518,0.13428
6820.99365,0.11286
6822.92212,0.12795
6824.85058,0.14708
6826.77905,0.14395
6828.70752,0.13161
6830.63599,0.12083
6832.56446,0.06743
6834.49293,-0.00890
6836.42140,-0.00502
6838.34987,0.06368
6840.27833,0.10497
6842.20680,0.12443
6844.13527,0.14301
6846.06374,0.14229
6847.99221,0.11607
6849.92068,0.10970
6851.84915,0.17218
6853.77761,0.21204
6855.70608,0.12206
6857.63455,0.01783
6859.56302,-0.00351
6861.49149,-0.00170
6863.41996,-0.00424
6865.34843,0.00921
6867.27690,0.06114
6869.20536,0.08992
6871.13383,0.03732
6873.06230,-0.02530
6874.99077,0.00405
6876.91924,0.07966
6878.84771,0.10894
6880.77618,0.09099
6882.70464,0.08522
6884.63311,0.06735
6886.56158,-0.00151
6888.49005,-0.04721
6890.41852,-0.00396
6892.34699,0.05475
6894.27546,0.06254
6896.20393,0.04627
6898.13239,0.06684
6900.06086,0.11010
6901.98933,0.10688
6903.91780,0.06737
6905.84627,0.03402
6907.77474,0.02352
6909.70321,0.03240
6911.63167,0.07615
6913.56014,0.11040
6915.48861,0.06685
6917.41708,0.01878
6919.34555,0.00389
6921.27402,-0.04269
6923.20249,-0.05424
6925.13096,-0.00128
6927.05942,0.03467
6928.98789,0.02137
6930.91636,-0.03485
6932.84483,-0.08643
6934.77330,-0.07805
6936.70177,-0.06859
6938.63024,-0.09308
6940.55870,-0.11527
6942.48717,-0.10116
6944.41564,-0.04360
6946.34411,0.00141
6948.27258,-0.00159
6950.20105,0.01666
6952.12952,0.01628
6954.05799,-0.07692
6955.98645,-0.15067
6957.91492,-0.08250
6959.84339,0.03872
6961.77186,0.06359
6963.70033,0.00902
6965.62880,-0.00437
6967.55727,0.00904
6969.48573,-0.02409
6971.41420,0.00741
6973.34267,0.20617
6975.27114,0.34912
6977.19961,0.30159
6979.12808,0.22412
6981.05655,0.13622
6982.98501,-0.01560
6984.91348,-0.09500
6986.84195,-0.04943
6988.77042,-0.01215
6990.69889,0.01539
6992.62736,0.07761
6994.55583,0.14465
6996.48430,0.15265
6998.41276,0.08245
7000.34123,0.03433
7002.26970,0.04178
7004.19817,0.03796
7006.12664,-0.00879
7008.05511,-0.06324
7009.98358,-0.04835
7011.91204,0.06587
7013.84051,0.17878
7015.76898,0.17731
7017.69745,0.13977
7019.62592,0.12737
7021.55439,0.10408
7023.48286,0.09467
7025.41133,0.13197
7027.33979,0.09094
7029.26826,-0.02466
7031.19673,-0.03656
7033.12520,-0.00282
7035.05367,0.00558
7036.98214,-0.00072
7038.91061,-0.03897
7040.83907,-0.03772
7042.76754,0.07169
7044.69601,0.16733
7046.62448,0.19242
7048.55295,0.14016
7050.48142,0.05991
7052.40989,0.08691
7054.33836,0.15139
7056.26682,0.15980
7058.19529,0.16534
7060.12376,0.19280
7062.05223,0.23449
7063.98070,0.21155
7065.90917,0.10154
7067.83764,-0.00363
7069.76610,-0.04659
7071.69457,0.04176
7073.62304,0.19694
7075.55151,0.27470
7077.47998,0.30563
7079.40845,0.29277
7081.33692,0.18616
7083.26539,0.11587
7085.19385,0.13819
7087.12232,0.13477
7089.05079,0.04983
7090.97926,0.01728
7092.90773,0.05939
7094.83620,0.04483
7096.76467,-0.00509
7098.69313,0.02278
7100.62160,0.06036
7102.55007,0.00845
7104.47854,-0.03918
7106.40701,0.00198
7108.33548,0.04360
7110.26395,0.02376
7112.19242,0.02017
7114.12088,0.06462
7116.04935,0.09782
7117.97782,0.14001
7119.90629,0.19855
7121.83476,0.20982
7123.76323,0.17645
7125.69170,0.17695
7127.62016,0.19570
7129.54863,0.09691
7131.47710,-0.05375
7133.40557,-0.09486
7135.33404,-0.03931
7137.26251,0.00454
7139.19098,0.01296
7141.11944,0.02704
7143.04791,-0.02386
7144.97638,-0.14787
7146.90485,-0.12326
7148.83332,0.03499
7150.76179,0.11451
7152.69026,0.07381
7154.61873,0.04299
7156.54719,0.14203
7158.47566,0.26246
7160.40413,0.28314
7162.33260,0.25662
7164.26107,0.25121
7166.18954,0.25492
7168.11801,0.16999
7170.04647,-0.02476
7171.97494,-0.11801
7173.90341,-0.00342
7175.83188,0.22417
7177.76035,0.39334
7179.68882,0.37657
7181.61729,0.22662
7183.54576,0.08685
7185.47422,0.06749
7187.40269,0.11048
7189.33116,0.16238
7191.25963,0.19469
7193.18810,0.15824
7195.11657,0.10870
7197.04504,0.12867
7198.97350,0.12701
7200.90197,0.04059
7202.83044,-0.05365
7204.75891,-0.05456
7206.68738,0.01972
7208.61585,0.02151
7210.54432,-0.04558
7212.47279,-0.04868
7214.40125,0.07000
7216.32972,0.18727
7218.25819,0.15048
7220.18666,0.06942
7222.11513,0.00798
7224.04360,-0.05618
7225.97207,-0.00164
7227.90053,0.15823
7229.82900,0.23640
7231.75747,0.20222
7233.68594,0.17128
7235.61441,0.13639
7237.54288,0.01428
7239.47135,-0.08701
7241.39982,-0.03587
7243.32828,0.07840
7245.25675,0.12037
7247.18522,0.10771
7249.11369,0.06172
7251.04216,-0.03563
7252.97063,-0.11133
7254.89910,-0.03421
7256.82756,0.05360
7258.75603,0.05753
7260.68450,0.02336
7262.61297,0.06719
7264.54144,0.16266
7266.46991,0.16871
7268.39838,0.07316
7270.32685,-0.00673
7272.25531,0.05935
7274.18378,0.08029
7276.11225,-0.04455
7278.04072,-0.17917
7279.96919,-0.26094
7281.89766,-0.25262
7283.82613,-0.20079
7285.75459,-0.11263
7287.68306,0.01055
7289.61153,0.10896
7291.54000,0.10213
7293.46847,0.02358
7295.39694,0.04271
7297.32541,0.16440
7299.25387,0.20909
7301.18234,0.14188
7303.11081,0.09011
7305.03928,0.11704
7306.96775,0.11224
7308.89622,0.01922
7310.82469,-0.00480
7312.75316,0.06588
7314.68162,0.10065
7316.61009,0.09615
7318.53856,0.13863
7320.46703,0.14833
7322.39550,0.13361
7324.32397,0.11500
7326.25244,-0.01383
7328.18090,-0.25518
7330.10937,-0.44879
7332.03784,-0.38485
7333.96631,-0.17288
7335.89478,-0.05019
7337.82325,-0.02467
7339.75172,0.00967
7341.68019,0.09369
7343.60865,0.16458
7345.53712,0.18840
7347.46559,0.13909
7349.39406,0.05263
7351.32253,-0.00394
7353.25100,-0.00929
7355.17947,0.02284
7357.10793,0.06800
7359.03640,0.09396
7360.96487,0.14278
7362.89334,0.23345
7364.82181,0.24794
7366.75028,0.17499
7368.67875,0.10203
7370.60722,0.06014
7372.53568,0.01289
7374.46415,-0.06038
7376.39262,-0.05516
7378.32109,-0.04218
7380.24956,-0.07783
7382.17803,-0.04130
7384.10650,0.00436
7386.03496,-0.02751
7387.96343,0.01445
7389.89190,0.16242
7391.82037,0.25970
7393.74884,0.20225
7395.67731,0.05097
7397.60578,-0.00570
7399.53425,0.07175
7401.46271,0.14197
7403.39118,0.12288
7405.31965,0.05898
7407.24812,-0.02359
7409.17659,-0.10408
7411.10506,-0.11222
7413.03353,-0.09844
7414.96199,-0.15228
7416.89046,-0.23048
7418.81893,-0.21509
7420.74740,-0.09682
7422.67587,0.04868
7424.60434,0.14221
7426.53281,0.13959
7428.46128,0.14433
7430.38974,0.24090
7432.31821,0.29559
7434.24668,0.24217
7436.17515,0.14345
7438.10362,0.02180
7440.03209,0.02764
7441.96056,0.18947
7443.88902,0.20861
7445.81749,0.15524
7447.74596,0.18666
7449.67443,0.15139
7451.60290,0.06791
7453.53137,0.04924
7455.45984,0.01434
7457.38831,-0.01234
7459.31677,0.10014
7461.24524,0.33777
7463.17371,0.39745
7465.10218,0.17072
7467.03065,-0.04502
7468.95912,-0.01425
7470.88759,0.11091
7472.81605,0.15818
7474.74452,0.16988
7476.67299,0.19483
7478.60146,0.21101
7480.52993,0.22999
7482.45840,0.24731
7484.38687,0.27680
7486.31533,0.28246
7488.24380,0.24221
7490.17227,0.17902
7492.10074,0.02567
7494.02921,-0.12645
7495.95768,-0.17364
7497.88615,-0.16402
