399.19301,0.30707
401.12148,-0.51371
403.04995,-0.44156
404.97842,-0.24067
406.90689,-0.18894
408.83536,-0.25922
410.76382,-0.28438
412.69229,-0.14725
414.62076,-0.03444
416.54923,-0.11103
418.47770,-0.27045
420.40617,-0.21176
422.33464,0.00106
424.26311,0.17423
426.19157,0.21199
428.12004,0.15270
430.04851,0.08214
431.97698,0.09779
433.90545,0.18625
435.83392,0.19369
437.76239,0.12991
439.69085,0.08815
441.61932,0.07115
443.54779,0.07365
445.47626,0.10806
447.40473,0.10221
449.33320,0.02479
451.26167,-0.04643
453.19013,-0.03918
455.11860,0.03699
457.04707,0.11699
458.97554,0.13680
460.90401,0.08529
462.83248,0.04746
464.76095,0.08612
466.68942,0.12678
468.61788,0.12256
470.54635,0.14373
472.47482,0.20529
474.40329,0.13759
476.33176,-0.01160
478.26023,-0.03778
480.18870,0.00057
482.11716,0.04313
484.04563,0.10889
485.97410,0.17953
487.90257,0.19593
489.83104,0.15964
491.75951,0.12727
493.68798,0.13540
495.61645,0.14608
497.54491,0.13125
499.47338,0.11509
501.40185,0.10881
503.33032,0.10775
505.25879,0.11585
507.18726,0.13562
509.11573,0.15937
511.04419,0.17273
512.97266,0.16657
514.90113,0.15034
516.82960,0.14376
518.75807,0.15429
520.68654,0.15719
522.61501,0.14393
524.54348,0.13663
526.47194,0.12476
528.40041,0.09097
530.32888,0.07133
532.25735,0.06705
534.18582,0.04434
536.11429,0.02317
538.04276,0.01429
539.97122,0.00769
541.89969,0.00854
543.82816,0.00660
545.75663,-0.00262
547.68510,-0.01368
549.61357,-0.01948
551.54204,-0.03147
553.47051,-0.02824
555.39897,0.04464
557.32744,0.13244
559.25591,0.15257
561.18438,0.14261
563.11285,0.14578
565.04132,0.14004
566.96979,0.10982
568.89825,0.08297
570.82672,0.08151
572.75519,0.08788
574.68366,0.09247
576.61213,0.09288
578.54060,0.07601
580.46907,0.06216
582.39754,0.08018
584.32600,0.10431
586.25447,0.10296
588.18294,0.08740
590.11141,0.07820
592.03988,0.09099
593.96835,0.10490
595.89682,0.08815
597.82528,0.07681
599.75375,0.09054
601.68222,0.08786
603.61069,0.05639
605.53916,0.03214
607.46763,0.03018
609.39610,0.03230
611.32456,0.03361
613.25303,0.03440
615.18150,0.03460
617.10997,0.04449
619.03844,0.05411
620.96691,0.05464
622.89538,0.05706
624.82385,0.07164
626.75231,0.09858
628.68078,0.10825
630.60925,0.08854
632.53772,0.07233
634.46619,0.06782
636.39466,0.06954
638.32313,0.08439
640.25159,0.09659
642.18006,0.09841
644.10853,0.10771
646.03700,0.12144
647.96547,0.12288
649.89394,0.11821
651.82241,0.11214
653.75088,0.09218
655.67934,0.07452
657.60781,0.08122
659.53628,0.09262
661.46475,0.08785
663.39322,0.08411
665.32169,0.09391
667.25016,0.09890
669.17862,0.08446
671.10709,0.08019
673.03556,0.08628
674.96403,0.09779
676.89250,0.11166
678.82097,0.11071
680.74944,0.10079
682.67791,0.09967
684.60637,0.10195
686.53484,0.11264
688.46331,0.13215
690.39178,0.13156
692.32025,0.11086
694.24872,0.09855
696.17719,0.09519
698.10565,0.09226
700.03412,0.09487
701.96259,0.10395
703.89106,0.11571
705.81953,0.12060
707.74800,0.11569
709.67647,0.11019
711.60494,0.10670
713.53340,0.10357
715.46187,0.10428
717.39034,0.10798
719.31881,0.10542
721.24728,0.09877
723.17575,0.10281
725.10422,0.11089
727.03268,0.10639
728.96115,0.10377
730.88962,0.11058
732.81809,0.10577
734.74656,0.09632
736.67503,0.09750
738.60350,0.09770
740.53197,0.09242
742.46043,0.08848
744.38890,0.08916
746.31737,0.09307
748.24584,0.09546
750.17431,0.09624
752.10278,0.09758
754.03125,0.09984
755.95971,0.10640
757.88818,0.11173
759.81665,0.10696
761.74512,0.09933
763.67359,0.09226
765.60206,0.08622
767.53053,0.09124
769.45900,0.10680
771.38746,0.11717
773.31593,0.11206
775.24440,0.10496
777.17287,0.10817
779.10134,0.11071
781.02981,0.10300
782.95828,0.09361
784.88674,0.09253
786.81521,0.09539
788.74368,0.10090
790.67215,0.10846
792.60062,0.11083
794.52909,0.10556
796.45756,0.09270
798.38602,0.08196
800.31449,0.08598
802.24296,0.09605
804.17143,0.10095
806.09990,0.10779
808.02837,0.10999
809.95684,0.10143
811.88531,0.10123
813.81377,0.11174
815.74224,0.11949
817.67071,0.12193
819.59918,0.12035
821.52765,0.11702
823.45612,0.11269
825.38459,0.10748
827.31305,0.10374
829.24152,0.10067
831.16999,0.09732
833.09846,0.09635
835.02693,0.09822
836.95540,0.09953
838.88387,0.09835
840.81234,0.09718
842.74080,0.09612
844.66927,0.09335
846.59774,0.09482
848.52621,0.10173
850.45468,0.10664
852.38315,0.10662
854.31162,0.10054
856.24008,0.09935
858.16855,0.11183
860.09702,0.12197
862.02549,0.12474
863.95396,0.12771
865.88243,0.12433
867.81090,0.11028
869.73937,0.10071
871.66783,0.11100
873.59630,0.12511
875.52477,0.12296
877.45324,0.11185
879.38171,0.09823
881.31018,0.08314
883.23865,0.08224
885.16711,0.09844
887.09558,0.10981
889.02405,0.10749
890.95252,0.09998
892.88099,0.09600
894.80946,0.10149
896.73793,0.11328
898.66640,0.12302
900.59486,0.12457
902.52333,0.11568
904.45180,0.10603
906.38027,0.10725
908.30874,0.11536
910.23721,0.12118
912.16568,0.12453
914.09414,0.12775
916.02261,0.12779
917.95108,0.12497
919.87955,0.12108
921.80802,0.11486
923.73649,0.10999
925.66496,0.10862
927.59343,0.10933
929.52189,0.11246
931.45036,0.11476
933.37883,0.11517
935.30730,0.11758
937.23577,0.11856
939.16424,0.11688
941.09271,0.11662
943.02117,0.11419
944.94964,0.11010
946.87811,0.10992
948.80658,0.11197
950.73505,0.11399
952.66352,0.11635
954.59199,0.11765
956.52045,0.11835
958.44892,0.11942
960.37739,0.11888
962.30586,0.12011
964.23433,0.12424
966.16280,0.12719
968.09127,0.13065
970.01974,0.13146
971.94820,0.12752
973.87667,0.12527
975.80514,0.12124
977.73361,0.11257
979.66208,0.10953
981.59055,0.11628
983.51902,0.12220
985.44748,0.11995
987.37595,0.11665
989.30442,0.11854
991.23289,0.11976
993.16136,0.11776
995.08983,0.11904
997.01830,0.12199
998.94677,0.12162
1000.87523,0.12224
1002.80370,0.12637
1004.73217,0.12895
1006.66064,0.12632
1008.58911,0.12322
1010.51758,0.12576
1012.44605,0.12979
1014.37451,0.13096
1016.30298,0.13453
1018.23145,0.14074
1020.15992,0.14085
1022.08839,0.12978
1024.01686,0.11210
1025.94533,0.09941
1027.87380,0.09747
1029.80226,0.10328
1031.73073,0.11094
1033.65920,0.11322
1035.58767,0.11299
1037.51614,0.11987
1039.44461,0.12942
1041.37308,0.13265
1043.30154,0.12743
1045.23001,0.11478
1047.15848,0.10119
1049.08695,0.09285
1051.01542,0.09408
1052.94389,0.10650
1054.87236,0.12007
1056.80083,0.12603
1058.72929,0.12969
1060.65776,0.13732
1062.58623,0.14216
1064.51470,0.13884
1066.44317,0.13725
1068.37164,0.14187
1070.30011,0.14751
1072.22857,0.15362
1074.15704,0.15769
1076.08551,0.15395
1078.01398,0.14480
1079.94245,0.13957
1081.87092,0.14046
1083.79939,0.14006
1085.72786,0.13569
1087.65632,0.13365
1089.58479,0.13336
1091.51326,0.13031
1093.44173,0.12476
1095.37020,0.11514
1097.29867,0.10964
1099.22714,0.11696
1101.15560,0.12607
1103.08407,0.12883
1105.01254,0.13046
1106.94101,0.13402
1108.86948,0.13846
1110.79795,0.14060
1112.72642,0.13813
1114.65489,0.13639
1116.58335,0.13717
1118.51182,0.13695
1120.44029,0.13438
1122.36876,0.12833
1124.29723,0.12651
1126.22570,0.12906
1128.15417,0.12537
1130.08263,0.12181
1132.01110,0.12631
1133.93957,0.13321
1135.86804,0.13708
1137.79651,0.13632
1139.72498,0.13088
1141.65345,0.12726
1143.58191,0.13298
1145.51038,0.14227
1147.43885,0.14452
1149.36732,0.14091
1151.29579,0.14077
1153.22426,0.14731
1155.15273,0.15223
1157.08120,0.15054
1159.00966,0.14819
1160.93813,0.14605
1162.86660,0.14123
1164.79507,0.13877
1166.72354,0.14074
1168.65201,0.14051
1170.58048,0.13804
1172.50894,0.14030
1174.43741,0.14392
1176.36588,0.14059
1178.29435,0.13342
1180.22282,0.13006
1182.15129,0.13339
1184.07976,0.14655
1186.00823,0.16170
1187.93669,0.16021
1189.86516,0.14909
1191.79363,0.14711
1193.72210,0.15024
1195.65057,0.15071
1197.57904,0.15014
1199.50751,0.15119
1201.43597,0.15224
1203.36444,0.15068
1205.29291,0.14927
1207.22138,0.14980
1209.14985,0.14880
1211.07832,0.14703
1213.00679,0.15008
1214.93526,0.15361
1216.86372,0.15047
1218.79219,0.14640
1220.72066,0.14684
1222.64913,0.14753
1224.57760,0.14667
1226.50607,0.14729
1228.43454,0.14765
1230.36300,0.14608
1232.29147,0.14446
1234.21994,0.14257
1236.14841,0.14104
1238.07688,0.14285
1240.00535,0.14747
1241.93382,0.14961
1243.86229,0.14916
1245.79075,0.14889
1247.71922,0.14661
1249.64769,0.14309
1251.57616,0.14195
1253.50463,0.14327
1255.43310,0.14508
1257.36157,0.14623
1259.29003,0.14622
1261.21850,0.14599
1263.14697,0.14808
1265.07544,0.15146
1267.00391,0.15161
1268.93238,0.14874
1270.86085,0.14817
1272.78932,0.14967
1274.71778,0.14969
1276.64625,0.15086
1278.57472,0.15415
1280.50319,0.15481
1282.43166,0.15387
1284.36013,0.15600
1286.28860,0.15810
1288.21706,0.15677
1290.14553,0.15480
1292.07400,0.15324
1294.00247,0.15112
1295.93094,0.15105
1297.85941,0.15262
1299.78788,0.14958
1301.71634,0.14256
1303.64481,0.13766
1305.57328,0.13915
1307.50175,0.14757
1309.43022,0.15561
1311.35869,0.15699
1313.28716,0.15497
1315.21563,0.15527
1317.14409,0.15748
1319.07256,0.15721
1321.00103,0.15475
1322.92950,0.15407
1324.85797,0.15440
1326.78644,0.15465
1328.71491,0.15577
1330.64337,0.15487
1332.57184,0.15368
1334.50031,0.15611
1336.42878,0.15890
1338.35725,0.16177
1340.28572,0.15540
1342.21419,0.12696
1344.14266,0.10740
1346.07112,0.12429
1347.99959,0.14811
1349.92806,0.15106
1351.85653,0.14577
1353.78500,0.14428
1355.71347,0.14679
1357.64194,0.14978
1359.57040,0.15251
1361.49887,0.15527
1363.42734,0.15617
1365.35581,0.15604
1367.28428,0.15686
1369.21275,0.16127
1371.14122,0.16967
1373.06969,0.17727
1374.99815,0.17570
1376.92662,0.16713
1378.85509,0.16351
1380.78356,0.16354
1382.71203,0.16159
1384.64050,0.16485
1386.56897,0.17301
1388.49743,0.17025
1390.42590,0.16244
1392.35437,0.16357
1394.28284,0.17255
1396.21131,0.18143
1398.13978,0.18312
1400.06825,0.17632
1401.99672,0.16958
1403.92518,0.16680
1405.85365,0.16189
1407.78212,0.15860
1409.71059,0.16197
1411.63906,0.16635
1413.56753,0.16808
1415.49600,0.16962
1417.42446,0.17301
1419.35293,0.17413
1421.28140,0.17289
1423.20987,0.17337
1425.13834,0.17243
1427.06681,0.17259
1428.99528,0.17595
1430.92375,0.17472
1432.85221,0.17005
1434.78068,0.17058
1436.70915,0.17399
1438.63762,0.17176
1440.56609,0.16664
1442.49456,0.16335
1444.42303,0.16421
1446.35149,0.16946
1448.27996,0.17595
1450.20843,0.18118
1452.13690,0.18520
1454.06537,0.18980
1455.99384,0.20314
1457.92231,0.21310
1459.85077,0.19780
1461.77924,0.18614
1463.70771,0.18616
1465.63618,0.18782
1467.56465,0.18490
1469.49312,0.18487
1471.42159,0.19245
1473.35006,0.19969
1475.27852,0.19288
1477.20699,0.18157
1479.13546,0.17649
1481.06393,0.17552
1482.99240,0.17387
1484.92087,0.17610
1486.84934,0.18610
1488.77780,0.19556
1490.70627,0.19160
1492.63474,0.18374
1494.56321,0.18246
1496.49168,0.18622
1498.42015,0.18789
1500.34862,0.18407
1502.27709,0.18367
1504.20555,0.19723
1506.13402,0.22866
1508.06249,0.23390
1509.99096,0.21027
1511.91943,0.19758
1513.84790,0.19660
1515.77637,0.20475
1517.70483,0.21677
1519.63330,0.22648
1521.56177,0.22631
1523.49024,0.21078
1525.41871,0.19865
1527.34718,0.19492
1529.27565,0.19158
1531.20412,0.18833
1533.13258,0.19001
1535.06105,0.19558
1536.98952,0.20544
1538.91799,0.22742
1540.84646,0.24544
1542.77493,0.22926
1544.70340,0.20456
1546.63186,0.18856
1548.56033,0.18388
1550.48880,0.18233
1552.41727,0.18277
1554.34574,0.19253
1556.27421,0.21111
1558.20268,0.22889
1560.13115,0.21676
1562.05961,0.19961
1563.98808,0.19190
1565.91655,0.18862
1567.84502,0.19202
1569.77349,0.19762
1571.70196,0.19438
1573.63043,0.19114
1575.55889,0.19327
1577.48736,0.19145
1579.41583,0.18658
1581.34430,0.18364
1583.27277,0.17969
1585.20124,0.17635
1587.12971,0.17800
1589.05818,0.18107
1590.98664,0.18023
1592.91511,0.17806
1594.84358,0.17788
1596.77205,0.17757
1598.70052,0.17757
1600.62899,0.17960
1602.55746,0.17987
1604.48592,0.17943
1606.41439,0.18206
1608.34286,0.18188
1610.27133,0.17791
1612.19980,0.17854
1614.12827,0.18490
1616.05674,0.19210
1617.98521,0.19393
1619.91367,0.19425
1621.84214,0.19789
1623.77061,0.20015
1625.69908,0.19857
1627.62755,0.19811
1629.55602,0.19799
1631.48449,0.19734
1633.41295,0.20104
1635.34142,0.21293
1637.26989,0.21458
1639.19836,0.20073
1641.12683,0.19028
1643.05530,0.19096
1644.98377,0.20382
1646.91223,0.21822
1648.84070,0.21636
1650.76917,0.21923
1652.69764,0.23344
1654.62611,0.21945
1656.55458,0.20394
1658.48305,0.21090
1660.41152,0.22449
1662.33998,0.21749
1664.26845,0.19578
1666.19692,0.19042
1668.12539,0.19940
1670.05386,0.20742
1671.98233,0.20469
1673.91080,0.20108
1675.83926,0.19966
1677.76773,0.19951
1679.69620,0.20342
1681.62467,0.21215
1683.55314,0.22069
1685.48161,0.21381
1687.41008,0.20125
1689.33855,0.19353
1691.26701,0.19110
1693.19548,0.19385
1695.12395,0.20023
1697.05242,0.20722
1698.98089,0.21147
1700.90936,0.20870
1702.83783,0.20320
1704.76629,0.19980
1706.69476,0.19511
1708.62323,0.19174
1710.55170,0.19249
1712.48017,0.19732
1714.40864,0.20723
1716.33711,0.21637
1718.26558,0.20715
1720.19404,0.19248
1722.12251,0.18835
1724.05098,0.18845
1725.97945,0.18603
1727.90792,0.18361
1729.83639,0.18579
1731.76486,0.19337
1733.69332,0.20014
1735.62179,0.19554
1737.55026,0.18978
1739.47873,0.18796
1741.40720,0.18826
1743.33567,0.19231
1745.26414,0.19863
1747.19261,0.20464
1749.12107,0.20687
1751.04954,0.19906
1752.97801,0.18861
1754.90648,0.18484
1756.83495,0.18603
1758.76342,0.18828
1760.69189,0.19062
1762.62035,0.18933
1764.54882,0.18509
1766.47729,0.18531
1768.40576,0.19173
1770.33423,0.19992
1772.26270,0.20137
1774.19117,0.19528
1776.11964,0.18985
1778.04810,0.18851
1779.97657,0.19094
1781.90504,0.19104
1783.83351,0.18826
1785.76198,0.18527
1787.69045,0.18350
1789.61892,0.18731
1791.54738,0.19442
1793.47585,0.19542
1795.40432,0.19296
1797.33279,0.19217
1799.26126,0.19319
1801.18973,0.19495
1803.11820,0.19248
1805.04666,0.18682
1806.97513,0.18300
1808.90360,0.18220
1810.83207,0.18340
1812.76054,0.18350
1814.68901,0.18439
1816.61748,0.18922
1818.54595,0.19086
1820.47441,0.18535
1822.40288,0.18191
1824.33135,0.18450
1826.25982,0.18859
1828.18829,0.19352
1830.11676,0.19449
1832.04523,0.18746
1833.97369,0.18270
1835.90216,0.18454
1837.83063,0.18820
1839.75910,0.19022
1841.68757,0.19335
1843.61604,0.19847
1845.54451,0.19861
1847.47298,0.19299
1849.40144,0.18792
1851.32991,0.18619
1853.25838,0.18741
1855.18685,0.18854
1857.11532,0.18716
1859.04379,0.18459
1860.97226,0.18279
1862.90072,0.18258
1864.82919,0.18568
1866.75766,0.19221
1868.68613,0.19594
1870.61460,0.19232
1872.54307,0.18789
1874.47154,0.18648
1876.40001,0.18639
1878.32847,0.18599
1880.25694,0.18631
1882.18541,0.18718
1884.11388,0.18689
1886.04235,0.18726
1887.97082,0.18964
1889.89929,0.19027
1891.82775,0.18811
1893.75622,0.18685
1895.68469,0.18585
1897.61316,0.18287
1899.54163,0.17950
1901.47010,0.17923
1903.39857,0.18336
1905.32704,0.18871
1907.25550,0.19168
1909.18397,0.19162
1911.11244,0.18974
1913.04091,0.18759
1914.96938,0.18773
1916.89785,0.19204
1918.82632,0.19472
1920.75478,0.19096
1922.68325,0.18712
1924.61172,0.18648
1926.54019,0.18588
1928.46866,0.18463
1930.39713,0.18449
1932.32560,0.18621
1934.25407,0.18796
1936.18253,0.18770
1938.11100,0.18696
1940.03947,0.18821
1941.96794,0.18968
1943.89641,0.18819
1945.82488,0.18514
1947.75335,0.18378
1949.68181,0.18530
1951.61028,0.18797
1953.53875,0.18918
1955.46722,0.18721
1957.39569,0.18410
1959.32416,0.18442
1961.25263,0.18745
1963.18110,0.18903
1965.10956,0.18818
1967.03803,0.18670
1968.96650,0.18647
1970.89497,0.18744
1972.82344,0.18784
1974.75191,0.18682
1976.68038,0.18510
1978.60884,0.18293
1980.53731,0.18176
1982.46578,0.18363
1984.39425,0.18625
1986.32272,0.18718
1988.25119,0.18767
1990.17966,0.18756
1992.10812,0.18561
1994.03659,0.18290
1995.96506,0.18070
1997.89353,0.18018
1999.82200,0.18253
2001.75047,0.18560
2003.67894,0.18546
2005.60741,0.18371
2007.53587,0.18587
2009.46434,0.19031
2011.39281,0.19080
2013.32128,0.18829
2015.24975,0.18787
2017.17822,0.18875
2019.10669,0.18813
2021.03515,0.18761
2022.96362,0.18806
2024.89209,0.18930
2026.82056,0.19095
2028.74903,0.19057
2030.67750,0.18798
2032.60597,0.18594
2034.53444,0.18514
2036.46290,0.18550
2038.39137,0.18799
2040.31984,0.19095
2042.24831,0.19115
2044.17678,0.18877
2046.10525,0.18709
2048.03372,0.18739
2049.96218,0.18809
2051.89065,0.18855
2053.81912,0.18876
2055.74759,0.18908
2057.67606,0.19008
2059.60453,0.19017
2061.53300,0.18974
2063.46147,0.19153
2065.38993,0.19232
2067.31840,0.18873
2069.24687,0.18517
2071.17534,0.18542
2073.10381,0.18710
2075.03228,0.18715
2076.96075,0.18652
2078.88921,0.18683
2080.81768,0.18778
2082.74615,0.18814
2084.67462,0.18727
2086.60309,0.18705
2088.53156,0.18743
2090.46003,0.18617
2092.38850,0.18480
2094.31696,0.18536
2096.24543,0.18710
2098.17390,0.18888
2100.10237,0.19045
2102.03084,0.19113
2103.95931,0.18998
2105.88778,0.18824
2107.81624,0.18681
2109.74471,0.18558
2111.67318,0.18651
2113.60165,0.18952
2115.53012,0.19025
2117.45859,0.18718
2119.38706,0.18526
2121.31553,0.18568
2123.24399,0.18432
2125.17246,0.18303
2127.10093,0.18502
2129.02940,0.18704
2130.95787,0.18686
2132.88634,0.18746
2134.81481,0.19054
2136.74327,0.19288
2138.67174,0.19220
2140.60021,0.19139
2142.52868,0.19174
2144.45715,0.19141
2146.38562,0.18968
2148.31409,0.18801
2150.24255,0.18916
2152.17102,0.19180
2154.09949,0.19191
2156.02796,0.18992
2157.95643,0.18873
2159.88490,0.18828
2161.81337,0.18834
2163.74184,0.19050
2165.67030,0.19296
2167.59877,0.19299
2169.52724,0.19103
2171.45571,0.18943
2173.38418,0.18970
2175.31265,0.19019
2177.24112,0.19021
2179.16958,0.19124
2181.09805,0.19184
2183.02652,0.18966
2184.95499,0.18779
2186.88346,0.18838
2188.81193,0.18869
2190.74040,0.18782
2192.66887,0.18685
2194.59733,0.18797
2196.52580,0.19117
2198.45427,0.19229
2200.38274,0.19014
2202.31121,0.18758
2204.23968,0.18610
2206.16815,0.18566
2208.09661,0.18767
2210.02508,0.19052
2211.95355,0.19069
2213.88202,0.18977
2215.81049,0.18968
2217.73896,0.19047
2219.66743,0.19182
2221.59590,0.19173
2223.52436,0.19015
2225.45283,0.18973
2227.38130,0.19162
2229.30977,0.19347
2231.23824,0.19262
2233.16671,0.18991
2235.09518,0.18742
2237.02364,0.18661
2238.95211,0.18831
2240.88058,0.19151
2242.80905,0.19364
2244.73752,0.19251
2246.66599,0.18926
2248.59446,0.18741
2250.52293,0.18723
2252.45139,0.18694
2254.37986,0.18692
2256.30833,0.18825
2258.23680,0.19058
2260.16527,0.19202
2262.09374,0.19159
2264.02221,0.19127
2265.95067,0.19189
2267.87914,0.19179
2269.80761,0.19218
2271.73608,0.19450
2273.66455,0.19528
2275.59302,0.19381
2277.52149,0.19353
2279.44996,0.19388
2281.37842,0.19295
2283.30689,0.19169
2285.23536,0.19102
2287.16383,0.19131
2289.09230,0.19238
2291.02077,0.19311
2292.94924,0.19266
2294.87770,0.19184
2296.80617,0.19425
2298.73464,0.19995
2300.66311,0.20398
2302.59158,0.20499
2304.52005,0.20352
2306.44852,0.20082
2308.37699,0.20164
2310.30545,0.20776
2312.23392,0.21261
2314.16239,0.20953
2316.09086,0.20581
2318.01933,0.21057
2319.94780,0.21729
2321.87627,0.21867
2323.80473,0.21587
2325.73320,0.21099
2327.66167,0.20943
2329.59014,0.21191
2331.51861,0.21392
2333.44708,0.22050
2335.37555,0.23032
2337.30401,0.23039
2339.23248,0.22503
2341.16095,0.22462
2343.08942,0.22259
2345.01789,0.21901
2346.94636,0.22133
2348.87483,0.22737
2350.80330,0.23625
2352.73176,0.24996
2354.66023,0.26799
2356.58870,0.28108
2358.51717,0.26971
2360.44564,0.24517
2362.37411,0.24298
2364.30258,0.25230
2366.23104,0.24813
2368.15951,0.23895
2370.08798,0.23216
2372.01645,0.22247
2373.94492,0.21229
2375.87339,0.20592
2377.80186,0.20154
2379.73033,0.19906
2381.65879,0.19889
2383.58726,0.19762
2385.51573,0.19486
2387.44420,0.19404
2389.37267,0.19572
2391.30114,0.19683
2393.22961,0.19451
2395.15807,0.19060
2397.08654,0.18936
2399.01501,0.19143
2400.94348,0.19548
2402.87195,0.19916
2404.80042,0.19892
2406.72889,0.19547
2408.65736,0.19245
2410.58582,0.19195
2412.51429,0.19371
2414.44276,0.19462
2416.37123,0.19363
2418.29970,0.19186
2420.22817,0.18931
2422.15664,0.18801
2424.08510,0.18952
2426.01357,0.19122
2427.94204,0.19171
2429.87051,0.19216
2431.79898,0.19339
2433.72745,0.19579
2435.65592,0.19739
2437.58439,0.19681
2439.51285,0.19586
2441.44132,0.19459
2443.36979,0.19344
2445.29826,0.19465
2447.22673,0.19681
2449.15520,0.19770
2451.08367,0.19741
2453.01213,0.19491
2454.94060,0.19138
2456.86907,0.18953
2458.79754,0.18908
2460.72601,0.18990
2462.65448,0.19189
2464.58295,0.19300
2466.51142,0.19179
2468.43988,0.19036
2470.36835,0.19126
2472.29682,0.19206
2474.22529,0.19117
2476.15376,0.19196
2478.08223,0.19456
2480.01070,0.19554
2481.93916,0.19564
2483.86763,0.19609
2485.79610,0.19519
2487.72457,0.19328
2489.65304,0.19240
2491.58151,0.19199
2493.50998,0.19070
2495.43844,0.19080
2497.36691,0.19356
2499.29538,0.19559
2501.22385,0.19435
2503.15232,0.19116
2505.08079,0.18941
2507.00926,0.19048
2508.93773,0.19164
2510.86619,0.19174
2512.79466,0.19337
2514.72313,0.19626
2516.65160,0.19675
2518.58007,0.19413
2520.50854,0.19233
2522.43701,0.19405
2524.36547,0.19545
2526.29394,0.19362
2528.22241,0.19213
2530.15088,0.19371
2532.07935,0.19585
2534.00782,0.19520
2535.93629,0.19288
2537.86476,0.19192
2539.79322,0.19254
2541.72169,0.19329
2543.65016,0.19366
2545.57863,0.19393
2547.50710,0.19380
2549.43557,0.19348
2551.36404,0.19345
2553.29250,0.19349
2555.22097,0.19447
2557.14944,0.19709
2559.07791,0.19933
2561.00638,0.19909
2562.93485,0.19798
2564.86332,0.19727
2566.79179,0.19591
2568.72025,0.19631
2570.64872,0.19904
2572.57719,0.19836
2574.50566,0.19492
2576.43413,0.19614
2578.36260,0.20045
2580.29107,0.20143
2582.21953,0.19983
2584.14800,0.19726
2586.07647,0.19457
2588.00494,0.19389
2589.93341,0.19498
2591.86188,0.19651
2593.79035,0.19627
2595.71882,0.19537
2597.64728,0.19709
2599.57575,0.19866
2601.50422,0.19726
2603.43269,0.19572
2605.36116,0.19648
2607.28963,0.19661
2609.21810,0.19516
2611.14656,0.19707
2613.07503,0.20186
2615.00350,0.20435
2616.93197,0.20409
2618.86044,0.20251
2620.78891,0.20209
2622.71738,0.20409
2624.64585,0.20372
2626.57431,0.20025
2628.50278,0.19929
2630.43125,0.20119
2632.35972,0.20259
2634.28819,0.20282
2636.21666,0.20112
2638.14513,0.19791
2640.07359,0.19614
2642.00206,0.19574
2643.93053,0.19561
2645.85900,0.19723
2647.78747,0.20055
2649.71594,0.20272
2651.64441,0.20301
2653.57288,0.20206
2655.50134,0.19835
2657.42981,0.19382
2659.35828,0.19255
2661.28675,0.19512
2663.21522,0.19936
2665.14369,0.20173
2667.07216,0.20184
2669.00062,0.20198
2670.92909,0.20139
2672.85756,0.19908
2674.78603,0.19762
2676.71450,0.19894
2678.64297,0.20214
2680.57144,0.20530
2682.49990,0.20609
2684.42837,0.20493
2686.35684,0.20499
2688.28531,0.20558
2690.21378,0.20464
2692.14225,0.20401
2694.07072,0.20471
2695.99919,0.20466
2697.92765,0.20402
2699.85612,0.20419
2701.78459,0.20222
2703.71306,0.19866
2705.64153,0.19915
2707.57000,0.20251
2709.49847,0.20480
2711.42693,0.20573
2713.35540,0.20547
2715.28387,0.20507
2717.21234,0.20588
2719.14081,0.20619
2721.06928,0.20503
2722.99775,0.20488
2724.92622,0.20607
2726.85468,0.20703
2728.78315,0.20663
2730.71162,0.20491
2732.64009,0.20381
2734.56856,0.20491
2736.49703,0.20784
2738.42550,0.20891
2740.35396,0.20636
2742.28243,0.20444
2744.21090,0.20701
2746.13937,0.21243
2748.06784,0.21423
2749.99631,0.21082
2751.92478,0.20865
2753.85325,0.20961
2755.78171,0.21060
2757.71018,0.21134
2759.63865,0.21083
2761.56712,0.20857
2763.49559,0.20968
2765.42406,0.21414
2767.35253,0.21558
2769.28099,0.21522
2771.20946,0.21576
2773.13793,0.21434
2775.06640,0.21106
2776.99487,0.20864
2778.92334,0.20865
2780.85181,0.21127
2782.78028,0.21140
2784.70874,0.20653
2786.63721,0.20338
2788.56568,0.20300
2790.49415,0.20210
2792.42262,0.20364
2794.35109,0.20762
2796.27956,0.20983
2798.20802,0.20972
2800.13649,0.20884
2802.06496,0.20714
2803.99343,0.20614
2805.92190,0.20830
2807.85037,0.21142
2809.77884,0.21237
2811.70731,0.21145
2813.63577,0.21017
2815.56424,0.20998
2817.49271,0.21126
2819.42118,0.21265
2821.34965,0.21361
2823.27812,0.21445
2825.20659,0.21487
2827.13505,0.21558
2829.06352,0.21656
2830.99199,0.21593
2832.92046,0.21423
2834.84893,0.21403
2836.77740,0.21472
2838.70587,0.21257
2840.63433,0.20677
2842.56280,0.20226
2844.49127,0.20335
2846.41974,0.20638
2848.34821,0.20629
2850.27668,0.20565
2852.20515,0.20767
2854.13362,0.21099
2856.06208,0.21394
2857.99055,0.21475
2859.91902,0.21397
2861.84749,0.21375
2863.77596,0.21330
2865.70443,0.21216
2867.63290,0.21231
2869.56136,0.21443
2871.48983,0.21651
2873.41830,0.21512
2875.34677,0.21011
2877.27524,0.20871
2879.20371,0.21398
2881.13218,0.21992
2883.06065,0.22233
2884.98911,0.21885
2886.91758,0.21168
2888.84605,0.20786
2890.77452,0.20867
2892.70299,0.21038
2894.63146,0.21033
2896.55993,0.21017
2898.48839,0.21341
2900.41686,0.21696
2902.34533,0.21530
2904.27380,0.21124
2906.20227,0.20947
2908.13074,0.20845
2910.05921,0.20716
2911.98768,0.20805
2913.91614,0.20988
2915.84461,0.20810
2917.77308,0.20490
2919.70155,0.20527
2921.63002,0.20835
2923.55849,0.20936
2925.48696,0.20428
2927.41542,0.19897
2929.34389,0.20239
2931.27236,0.20997
2933.20083,0.21095
2935.12930,0.20550
2937.05777,0.20282
2938.98624,0.20636
2940.91471,0.21030
2942.84317,0.21112
2944.77164,0.20993
2946.70011,0.20733
2948.62858,0.20819
2950.55705,0.21306
2952.48552,0.21203
2954.41399,0.20414
2956.34245,0.19907
2958.27092,0.20097
2960.19939,0.20434
2962.12786,0.20288
2964.05633,0.19832
2965.98480,0.19699
2967.91327,0.20192
2969.84174,0.20848
2971.77020,0.21105
2973.69867,0.21194
2975.62714,0.21271
2977.55561,0.21047
2979.48408,0.20875
2981.41255,0.21404
2983.34102,0.22180
2985.26948,0.22254
2987.19795,0.21792
2989.12642,0.21479
2991.05489,0.21426
2992.98336,0.21606
2994.91183,0.21744
2996.84030,0.21410
2998.76877,0.20996
3000.69723,0.21157
3002.62570,0.21662
3004.55417,0.21872
3006.48264,0.21753
3008.41111,0.21733
3010.33958,0.21549
3012.26805,0.20356
3014.19651,0.18224
3016.12498,0.16571
3018.05345,0.17283
3019.98192,0.20028
3021.91039,0.21830
3023.83886,0.21800
3025.76733,0.21640
3027.69579,0.21907
3029.62426,0.22180
3031.55273,0.22308
3033.48120,0.22302
3035.40967,0.22300
3037.33814,0.22292
3039.26661,0.22179
3041.19508,0.21947
3043.12354,0.21643
3045.05201,0.21301
3046.98048,0.20914
3048.90895,0.20717
3050.83742,0.20894
3052.76589,0.21096
3054.69436,0.20991
3056.62282,0.20914
3058.55129,0.21176
3060.47976,0.21360
3062.40823,0.21350
3064.33670,0.21295
3066.26517,0.21098
3068.19364,0.21085
3070.12211,0.21343
3072.05057,0.21546
3073.97904,0.21488
3075.90751,0.21326
3077.83598,0.21539
3079.76445,0.21924
3081.69292,0.22138
3083.62139,0.21930
3085.54985,0.21217
3087.47832,0.20788
3089.40679,0.20746
3091.33526,0.20456
3093.26373,0.19988
3095.19220,0.19882
3097.12067,0.20270
3099.04914,0.20938
3100.97760,0.21564
3102.90607,0.21442
3104.83454,0.20906
3106.76301,0.21010
3108.69148,0.21396
3110.61995,0.21250
3112.54842,0.20917
3114.47688,0.21198
3116.40535,0.21872
3118.33382,0.22067
3120.26229,0.21629
3122.19076,0.21338
3124.11923,0.21766
3126.04770,0.22308
3127.97617,0.22284
3129.90463,0.21876
3131.83310,0.21700
3133.76157,0.22059
3135.69004,0.22265
3137.61851,0.21674
3139.54698,0.21095
3141.47545,0.21457
3143.40391,0.22156
3145.33238,0.22375
3147.26085,0.22168
3149.18932,0.21890
3151.11779,0.22077
3153.04626,0.22698
3154.97473,0.22846
3156.90320,0.22237
3158.83166,0.21704
3160.76013,0.21707
3162.68860,0.21836
3164.61707,0.22063
3166.54554,0.22668
3168.47401,0.23346
3170.40248,0.23481
3172.33094,0.22847
3174.25941,0.22023
3176.18788,0.21706
3178.11635,0.21796
3180.04482,0.21800
3181.97329,0.21836
3183.90176,0.22345
3185.83022,0.22969
3187.75869,0.22981
3189.68716,0.22510
3191.61563,0.22205
3193.54410,0.22264
3195.47257,0.22438
3197.40104,0.22587
3199.32951,0.22696
3201.25797,0.22453
3203.18644,0.21948
3205.11491,0.21902
3207.04338,0.22270
3208.97185,0.22425
3210.90032,0.22321
3212.82879,0.22202
3214.75725,0.22104
3216.68572,0.22159
3218.61419,0.22355
3220.54266,0.22210
3222.47113,0.21953
3224.39960,0.22032
3226.32807,0.21896
3228.25654,0.21482
3230.18500,0.21449
3232.11347,0.21746
3234.04194,0.22042
3235.97041,0.22265
3237.89888,0.22129
3239.82735,0.21825
3241.75582,0.22107
3243.68428,0.22591
3245.61275,0.22539
3247.54122,0.22436
3249.46969,0.22559
3251.39816,0.22319
3253.32663,0.21687
3255.25510,0.21377
3257.18357,0.21469
3259.11203,0.21644
3261.04050,0.22147
3262.96897,0.22658
3264.89744,0.22349
3266.82591,0.21610
3268.75438,0.21301
3270.68285,0.21308
3272.61131,0.21423
3274.53978,0.21666
3276.46825,0.21766
3278.39672,0.21769
3280.32519,0.21913
3282.25366,0.22046
3284.18213,0.21927
3286.11060,0.21640
3288.03906,0.21385
3289.96753,0.20983
3291.89600,0.20585
3293.82447,0.20644
3295.75294,0.20767
3297.68141,0.20492
3299.60988,0.20308
3301.53834,0.20761
3303.46681,0.21540
3305.39528,0.21928
3307.32375,0.21690
3309.25222,0.21148
3311.18069,0.20676
3313.10916,0.20324
3315.03763,0.20387
3316.96609,0.21115
3318.89456,0.21820
3320.82303,0.22158
3322.75150,0.22379
3324.67997,0.22322
3326.60844,0.22056
3328.53691,0.21944
3330.46537,0.21981
3332.39384,0.21968
3334.32231,0.22075
3336.25078,0.22319
3338.17925,0.22384
3340.10772,0.22434
3342.03619,0.22643
3343.96466,0.22664
3345.89312,0.22318
3347.82159,0.21954
3349.75006,0.21760
3351.67853,0.21806
3353.60700,0.22014
3355.53547,0.21710
3357.46394,0.21039
3359.39240,0.20975
3361.32087,0.21510
3363.24934,0.22119
3365.17781,0.22595
3367.10628,0.22732
3369.03475,0.22612
3370.96322,0.22690
3372.89168,0.22900
3374.82015,0.22762
3376.74862,0.22355
3378.67709,0.22016
3380.60556,0.21794
3382.53403,0.21828
3384.46250,0.22061
3386.39097,0.22161
3388.31943,0.22223
3390.24790,0.22449
3392.17637,0.22738
3394.10484,0.22950
3396.03331,0.22708
3397.96178,0.21859
3399.89025,0.21364
3401.81871,0.21743
3403.74718,0.22045
3405.67565,0.21738
3407.60412,0.21711
3409.53259,0.22548
3411.46106,0.23238
3413.38953,0.22987
3415.31800,0.22333
3417.24646,0.21982
3419.17493,0.22101
3421.10340,0.22135
3423.03187,0.21742
3424.96034,0.21427
3426.88881,0.21402
3428.81728,0.21435
3430.74574,0.21289
3432.67421,0.21003
3434.60268,0.20888
3436.53115,0.20868
3438.45962,0.20796
3440.38809,0.20822
3442.31656,0.20821
3444.24503,0.20502
3446.17349,0.20091
3448.10196,0.20046
3450.03043,0.20376
3451.95890,0.20710
3453.88737,0.20737
3455.81584,0.20778
3457.74431,0.21129
3459.67277,0.21298
3461.60124,0.20952
3463.52971,0.20244
3465.45818,0.19476
3467.38665,0.19045
3469.31512,0.19119
3471.24359,0.19377
3473.17206,0.19487
3475.10052,0.19633
3477.02899,0.19921
3478.95746,0.19948
3480.88593,0.19535
3482.81440,0.19170
3484.74287,0.19290
3486.67134,0.19773
3488.59980,0.20115
3490.52827,0.19913
3492.45674,0.19578
3494.38521,0.19478
3496.31368,0.19262
3498.24215,0.19004
3500.17062,0.19130
3502.09909,0.19326
3504.02755,0.19069
3505.95602,0.18607
3507.88449,0.18449
3509.81296,0.18456
3511.74143,0.18260
3513.66990,0.18069
3515.59837,0.17937
3517.52683,0.17714
3519.45530,0.17704
3521.38377,0.17968
3523.31224,0.18247
3525.24071,0.18705
3527.16918,0.19351
3529.09765,0.19494
3531.02611,0.18706
3532.95458,0.17563
3534.88305,0.17099
3536.81152,0.17457
3538.73999,0.17675
3540.66846,0.17509
3542.59693,0.17466
3544.52540,0.17846
3546.45386,0.18292
3548.38233,0.18214
3550.31080,0.17940
3552.23927,0.17591
3554.16774,0.16838
3556.09621,0.16199
3558.02468,0.16412
3559.95314,0.17157
3561.88161,0.17684
3563.81008,0.17887
3565.73855,0.17889
3567.66702,0.17722
3569.59549,0.17437
3571.52396,0.17266
3573.45243,0.17096
3575.38089,0.16861
3577.30936,0.16874
3579.23783,0.16715
3581.16630,0.16192
3583.09477,0.16086
3585.02324,0.16911
3586.95171,0.18169
3588.88017,0.18180
3590.80864,0.17148
3592.73711,0.16356
3594.66558,0.16324
3596.59405,0.16696
3598.52252,0.16524
3600.45099,0.15902
3602.37946,0.15396
3604.30792,0.15258
3606.23639,0.15714
3608.16486,0.16478
3610.09333,0.16459
3612.02180,0.15663
3613.95027,0.15075
3615.87874,0.15342
3617.80720,0.16224
3619.73567,0.16499
3621.66414,0.15798
3623.59261,0.15489
3625.52108,0.16045
3627.44955,0.17190
3629.37802,0.17629
3631.30649,0.16463
3633.23495,0.14996
3635.16342,0.13809
3637.09189,0.13378
3639.02036,0.13623
3640.94883,0.13861
3642.87730,0.13893
3644.80577,0.14196
3646.73423,0.15213
3648.66270,0.16560
3650.59117,0.15956
3652.51964,0.14594
3654.44811,0.14306
3656.37658,0.14345
3658.30505,0.13846
3660.23352,0.13400
3662.16198,0.13338
3664.09045,0.13381
3666.01892,0.13550
3667.94739,0.14155
3669.87586,0.15007
3671.80433,0.15545
3673.73280,0.16523
3675.66126,0.17269
3677.58973,0.15993
3679.51820,0.14723
3681.44667,0.14098
3683.37514,0.13673
3685.30361,0.13518
3687.23208,0.14015
3689.16055,0.15249
3691.08901,0.15509
3693.01748,0.14516
3694.94595,0.13675
3696.87442,0.13190
3698.80289,0.13098
3700.73136,0.13638
3702.65983,0.14122
3704.58829,0.13828
3706.51676,0.13432
3708.44523,0.13546
3710.37370,0.14028
3712.30217,0.14021
3714.23064,0.13666
3716.15911,0.13606
3718.08757,0.13822
3720.01604,0.14230
3721.94451,0.14523
3723.87298,0.14307
3725.80145,0.14077
3727.72992,0.14275
3729.65839,0.14518
3731.58686,0.14941
3733.51532,0.15713
3735.44379,0.15484
3737.37226,0.13856
3739.30073,0.12957
3741.22920,0.13081
3743.15767,0.13454
3745.08614,0.14198
3747.01460,0.15313
3748.94307,0.16358
3750.87154,0.16466
3752.80001,0.14766
3754.72848,0.13501
3756.65695,0.13075
3758.58542,0.12893
3760.51389,0.12980
3762.44235,0.13293
3764.37082,0.13646
3766.29929,0.13784
3768.22776,0.13767
3770.15623,0.13658
3772.08470,0.12983
3774.01317,0.12152
3775.94163,0.11738
3777.87010,0.11759
3779.79857,0.12004
3781.72704,0.12321
3783.65551,0.12723
3785.58398,0.12998
3787.51245,0.12928
3789.44092,0.12546
3791.36938,0.12221
3793.29785,0.12700
3795.22632,0.13784
3797.15479,0.14234
3799.08326,0.13995
3801.01173,0.13829
3802.94020,0.13568
3804.86866,0.13368
3806.79713,0.13394
3808.72560,0.13243
3810.65407,0.12995
3812.58254,0.13109
3814.51101,0.13473
3816.43948,0.13462
3818.36795,0.13441
3820.29641,0.13860
3822.22488,0.13849
3824.15335,0.13428
3826.08182,0.13093
3828.01029,0.12927
3829.93876,0.13019
3831.86723,0.12984
3833.79569,0.12614
3835.72416,0.12798
3837.65263,0.14082
3839.58110,0.14880
3841.50957,0.14133
3843.43804,0.12756
3845.36651,0.11879
3847.29498,0.12023
3849.22344,0.12620
3851.15191,0.12964
3853.08038,0.12782
3855.00885,0.12572
3856.93732,0.12428
3858.86579,0.12098
3860.79426,0.12020
3862.72272,0.12451
3864.65119,0.12496
3866.57966,0.11994
3868.50813,0.12395
3870.43660,0.13779
3872.36507,0.14191
3874.29354,0.13241
3876.22200,0.12002
3878.15047,0.11562
3880.07894,0.12164
3882.00741,0.12998
3883.93588,0.13469
3885.86435,0.13484
3887.79282,0.13254
3889.72129,0.13546
3891.64975,0.13779
3893.57822,0.12854
3895.50669,0.11962
3897.43516,0.11876
3899.36363,0.11983
3901.29210,0.12109
3903.22057,0.12466
3905.14903,0.12396
3907.07750,0.11985
3909.00597,0.11902
3910.93444,0.12097
3912.86291,0.12143
3914.79138,0.11991
3916.71985,0.11784
3918.64832,0.11650
3920.57678,0.11575
3922.50525,0.11417
3924.43372,0.11330
3926.36219,0.11394
3928.29066,0.11448
3930.21913,0.11360
3932.14760,0.11206
3934.07606,0.11258
3936.00453,0.11324
3937.93300,0.11125
3939.86147,0.10996
3941.78994,0.11209
3943.71841,0.11272
3945.64688,0.11095
3947.57535,0.11045
3949.50381,0.10830
3951.43228,0.10503
3953.36075,0.10591
3955.28922,0.11082
3957.21769,0.11382
3959.14616,0.10910
3961.07463,0.10186
3963.00309,0.10096
3964.93156,0.10351
3966.86003,0.10223
3968.78850,0.09996
3970.71697,0.10259
3972.64544,0.10654
3974.57391,0.10730
3976.50238,0.10690
3978.43084,0.10700
3980.35931,0.10642
3982.28778,0.10497
3984.21625,0.10524
3986.14472,0.10972
3988.07319,0.11520
3990.00166,0.11503
3991.93012,0.10930
3993.85859,0.10244
3995.78706,0.09760
3997.71553,0.09628
3999.64400,0.09599
4001.57247,0.09595
4003.50094,0.09768
4005.42941,0.09981
4007.35787,0.10106
4009.28634,0.10298
4011.21481,0.10691
4013.14328,0.10959
4015.07175,0.10782
4017.00022,0.10380
4018.92869,0.09869
4020.85715,0.09336
4022.78562,0.09245
4024.71409,0.09523
4026.64256,0.09711
4028.57103,0.09818
4030.49950,0.09747
4032.42797,0.09428
4034.35644,0.09329
4036.28490,0.09585
4038.21337,0.09767
4040.14184,0.09457
4042.07031,0.08752
4043.99878,0.08521
4045.92725,0.09069
4047.85572,0.09344
4049.78418,0.09005
4051.71265,0.09095
4053.64112,0.09700
4055.56959,0.09866
4057.49806,0.09490
4059.42653,0.08962
4061.35500,0.08410
4063.28346,0.08036
4065.21193,0.07964
4067.14040,0.07928
4069.06887,0.07778
4070.99734,0.07755
4072.92581,0.08065
4074.85428,0.08610
4076.78275,0.08842
4078.71121,0.08498
4080.63968,0.08271
4082.56815,0.08544
4084.49662,0.08667
4086.42509,0.08582
4088.35356,0.08911
4090.28203,0.09314
4092.21049,0.09427
4094.13896,0.09547
4096.06743,0.09460
4097.99590,0.09087
4099.92437,0.08806
4101.85284,0.08588
4103.78131,0.08552
4105.70978,0.08878
4107.63824,0.08913
4109.56671,0.08454
4111.49518,0.08150
4113.42365,0.07924
4115.35212,0.07594
4117.28059,0.07539
4119.20906,0.07722
4121.13752,0.07917
4123.06599,0.08130
4124.99446,0.08233
4126.92293,0.08116
4128.85140,0.07917
4130.77987,0.07630
4132.70834,0.07234
4134.63681,0.07143
4136.56527,0.07720
4138.49374,0.08512
4140.42221,0.08714
4142.35068,0.08356
4144.27915,0.07894
4146.20762,0.07552
4148.13609,0.07510
4150.06455,0.07446
4151.99302,0.07017
4153.92149,0.06635
4155.84996,0.06723
4157.77843,0.07082
4159.70690,0.07265
4161.63537,0.07184
4163.56384,0.07006
4165.49230,0.06877
4167.42077,0.06877
4169.34924,0.06755
4171.27771,0.06644
4173.20618,0.07258
4175.13465,0.08109
4177.06312,0.07982
4178.99158,0.07280
4180.92005,0.07104
4182.84852,0.07327
4184.77699,0.07414
4186.70546,0.07089
4188.63393,0.06351
4190.56240,0.05678
4192.49087,0.05526
4194.41933,0.05977
4196.34780,0.06343
4198.27627,0.06025
4200.20474,0.05689
4202.13321,0.05709
4204.06168,0.05530
4205.99015,0.05160
4207.91861,0.05059
4209.84708,0.05248
4211.77555,0.05518
4213.70402,0.05694
4215.63249,0.05701
4217.56096,0.05578
4219.48943,0.05263
4221.41789,0.04779
4223.34636,0.04338
4225.27483,0.04207
4227.20330,0.04635
4229.13177,0.05561
4231.06024,0.06368
4232.98871,0.06397
4234.91718,0.05770
4236.84564,0.04951
4238.77411,0.04481
4240.70258,0.04966
4242.63105,0.05907
4244.55952,0.06229
4246.48799,0.05962
4248.41646,0.05559
4250.34492,0.05142
4252.27339,0.04951
4254.20186,0.04971
4256.13033,0.04987
4258.05880,0.05157
4259.98727,0.05447
4261.91574,0.05337
4263.84421,0.04946
4265.77267,0.04997
4267.70114,0.05274
4269.62961,0.05269
4271.55808,0.05153
4273.48655,0.04915
4275.41502,0.04509
4277.34349,0.04210
4279.27195,0.04099
4281.20042,0.03892
4283.12889,0.03595
4285.05736,0.03710
4286.98583,0.04329
4288.91430,0.04495
4290.84277,0.03858
4292.77124,0.03882
4294.69970,0.04866
4296.62817,0.05310
4298.55664,0.04785
4300.48511,0.04456
4302.41358,0.04998
4304.34205,0.05280
4306.27052,0.04781
4308.19898,0.04171
4310.12745,0.03568
4312.05592,0.03131
4313.98439,0.03086
4315.91286,0.03059
4317.84133,0.02600
4319.76980,0.02298
4321.69827,0.02694
4323.62673,0.03145
4325.55520,0.03372
4327.48367,0.03343
4329.41214,0.02735
4331.34061,0.02164
4333.26908,0.02613
4335.19755,0.03544
4337.12601,0.03642
4339.05448,0.02870
4340.98295,0.02325
4342.91142,0.02711
4344.83989,0.03458
4346.76836,0.03557
4348.69683,0.02987
4350.62530,0.02539
4352.55376,0.02279
4354.48223,0.01810
4356.41070,0.01869
4358.33917,0.02617
4360.26764,0.02829
4362.19611,0.02502
4364.12458,0.02289
4366.05304,0.02096
4367.98151,0.02048
4369.90998,0.02160
4371.83845,0.02173
4373.76692,0.02088
4375.69539,0.01894
4377.62386,0.01756
4379.55232,0.01817
4381.48079,0.02197
4383.40926,0.02977
4385.33773,0.03599
4387.26620,0.03516
4389.19467,0.02914
4391.12314,0.02348
4393.05161,0.01978
4394.98007,0.01701
4396.90854,0.01838
4398.83701,0.02332
4400.76548,0.02209
4402.69395,0.01217
4404.62242,0.00412
4406.55089,0.00392
4408.47935,0.00892
4410.40782,0.01394
4412.33629,0.01570
4414.26476,0.01642
4416.19323,0.01899
4418.12170,0.02243
4420.05017,0.02324
4421.97864,0.02071
4423.90710,0.01549
4425.83557,0.01306
4427.76404,0.01983
4429.69251,0.02375
4431.62098,0.01749
4433.54945,0.01723
4435.47792,0.02326
4437.40638,0.01847
4439.33485,0.00801
4441.26332,0.00711
4443.19179,0.01301
4445.12026,0.01543
4447.04873,0.01538
4448.97720,0.02000
4450.90567,0.02563
4452.83413,0.02529
4454.76260,0.01988
4456.69107,0.01059
4458.61954,0.00057
4460.54801,-0.00473
4462.47648,-0.00483
4464.40495,-0.00076
4466.33341,0.00605
4468.26188,0.01348
4470.19035,0.01957
4472.11882,0.02057
4474.04729,0.01710
4475.97576,0.01423
4477.90423,0.01389
4479.83270,0.01344
4481.76116,0.00911
4483.68963,0.00497
4485.61810,0.00649
4487.54657,0.00795
4489.47504,0.00583
4491.40351,0.00526
4493.33198,0.01004
4495.26044,0.01646
4497.18891,0.01667
4499.11738,0.01215
4501.04585,0.00983
4502.97432,0.01221
4504.90279,0.01563
4506.83126,0.01289
4508.75973,0.00825
4510.68819,0.00709
4512.61666,0.00598
4514.54513,0.00478
4516.47360,0.00245
4518.40207,0.00041
4520.33054,0.00266
4522.25901,0.00153
4524.18747,-0.00444
4526.11594,-0.00305
4528.04441,0.00455
4529.97288,0.00885
4531.90135,0.01162
4533.82982,0.01498
4535.75829,0.01431
4537.68676,0.01226
4539.61522,0.01408
4541.54369,0.01443
4543.47216,0.00976
4545.40063,0.00468
4547.32910,0.00359
4549.25757,0.00427
4551.18604,0.00474
4553.11450,0.00810
4555.04297,0.01020
4556.97144,0.00940
4558.89991,0.01205
4560.82838,0.01340
4562.75685,0.00857
4564.68532,0.00562
4566.61378,0.00723
4568.54225,0.00616
4570.47072,0.00196
4572.39919,-0.00006
4574.32766,-0.00018
4576.25613,-0.00007
4578.18460,-0.00060
4580.11307,-0.00294
4582.04153,-0.00310
4583.97000,-0.00041
4585.89847,0.00230
4587.82694,0.00483
4589.75541,0.00476
4591.68388,0.00311
4593.61235,0.00044
4595.54081,-0.00159
4597.46928,0.00357
4599.39775,0.01159
4601.32622,0.01415
4603.25469,0.01169
4605.18316,0.00700
4607.11163,0.00359
4609.04010,0.00322
4610.96856,0.00348
4612.89703,0.00269
4614.82550,0.00308
4616.75397,0.00618
4618.68244,0.00686
4620.61091,0.00205
4622.53938,0.00269
4624.46784,0.00959
4626.39631,0.01055
4628.32478,0.00845
4630.25325,0.00987
4632.18172,0.01161
4634.11019,0.00761
4636.03866,-0.00120
4637.96713,-0.00769
4639.89559,-0.01029
4641.82406,-0.01015
4643.75253,-0.00779
4645.68100,-0.00584
4647.60947,-0.00409
4649.53794,-0.00057
4651.46641,0.00197
4653.39487,0.00375
4655.32334,0.00704
4657.25181,0.00539
4659.18028,-0.00525
4661.10875,-0.01246
4663.03722,-0.00395
4664.96569,0.00429
4666.89416,-0.00111
4668.82262,-0.00717
4670.75109,-0.00087
4672.67956,0.00738
4674.60803,0.00336
4676.53650,-0.00526
4678.46497,-0.00634
4680.39344,-0.00420
4682.32190,-0.00596
4684.25037,-0.00857
4686.17884,-0.00987
4688.10731,-0.01227
4690.03578,-0.01553
4691.96425,-0.01162
4693.89272,0.00032
4695.82119,0.00827
4697.74965,0.00881
4699.67812,0.01154
4701.60659,0.01429
4703.53506,0.01071
4705.46353,0.00762
4707.39200,0.01357
4709.32047,0.02347
4711.24893,0.02883
4713.17740,0.02649
4715.10587,0.01952
4717.03434,0.01774
4718.96281,0.02154
4720.89128,0.02113
4722.81975,0.01407
4724.74821,0.00641
4726.67668,0.00315
4728.60515,0.00246
4730.53362,-0.00347
4732.46209,-0.01164
4734.39056,-0.01039
4736.31903,-0.00199
4738.24750,0.00159
4740.17596,-0.00282
4742.10443,-0.00288
4744.03290,0.00592
4745.96137,0.01159
4747.88984,0.01002
4749.81831,0.00575
4751.74678,0.00079
4753.67524,-0.00457
4755.60371,-0.00818
4757.53218,-0.00555
4759.46065,0.00335
4761.38912,0.01104
4763.31759,0.01652
4765.24606,0.02532
4767.17453,0.03113
4769.10299,0.02731
4771.03146,0.02191
4772.95993,0.01666
4774.88840,0.00496
4776.81687,-0.00249
4778.74534,0.00210
4780.67381,0.00691
4782.60227,0.01109
4784.53074,0.01828
4786.45921,0.01432
4788.38768,-0.00029
4790.31615,-0.00197
4792.24462,0.00588
4794.17309,0.00837
4796.10156,0.01232
4798.03002,0.01831
4799.95849,0.02238
4801.88696,0.02124
4803.81543,0.01477
4805.74390,0.01317
4807.67237,0.00862
4809.60084,-0.00132
4811.52930,0.00196
4813.45777,0.01167
4815.38624,0.01457
4817.31471,0.01462
4819.24318,0.01317
4821.17165,0.01406
4823.10012,0.01432
4825.02859,0.00348
4826.95705,-0.00742
4828.88552,-0.00311
4830.81399,0.00479
4832.74246,0.00412
4834.67093,0.00195
4836.59940,0.00129
4838.52787,0.00023
4840.45633,0.00222
4842.38480,0.00893
4844.31327,0.01433
4846.24174,0.01091
4848.17021,0.00700
4850.09868,0.01041
4852.02715,0.01021
4853.95562,0.00300
4855.88408,0.00204
4857.81255,0.00824
4859.74102,0.00505
4861.66949,-0.00815
4863.59796,-0.01577
4865.52643,-0.01539
4867.45490,-0.01037
4869.38336,-0.00627
4871.31183,-0.00748
4873.24030,-0.00740
4875.16877,-0.00785
4877.09724,-0.00948
4879.02571,-0.00217
4880.95418,0.00617
4882.88265,0.00352
4884.81111,-0.00084
4886.73958,-0.00213
4888.66805,-0.00176
4890.59652,0.00728
4892.52499,0.01503
4894.45346,0.00636
4896.38193,-0.00766
4898.31039,-0.00808
4900.23886,0.01002
4902.16733,0.02814
4904.09580,0.02628
4906.02427,0.01139
4907.95274,0.00223
4909.88121,0.00491
4911.80967,0.01480
4913.73814,0.02243
4915.66661,0.01550
4917.59508,-0.00214
4919.52355,-0.01296
4921.45202,-0.01336
4923.38049,-0.00600
4925.30896,0.00763
4927.23742,0.01600
4929.16589,0.01065
4931.09436,0.00360
4933.02283,0.00867
4934.95130,0.01807
4936.87977,0.01994
4938.80824,0.01135
4940.73670,-0.00397
4942.66517,-0.01344
4944.59364,-0.01000
4946.52211,-0.00199
4948.45058,0.00350
4950.37905,0.00753
4952.30752,0.01051
4954.23599,0.01557
4956.16445,0.02185
4958.09292,0.01981
4960.02139,0.00850
4961.94986,-0.00310
4963.87833,-0.00725
4965.80680,-0.00236
4967.73527,0.00436
4969.66373,0.00301
4971.59220,-0.00768
4973.52067,-0.01819
4975.44914,-0.02139
4977.37761,-0.01863
4979.30608,-0.01198
4981.23455,-0.00142
4983.16302,0.01156
4985.09148,0.02087
4987.01995,0.02090
4988.94842,0.01219
4990.87689,0.00325
4992.80536,0.00847
4994.73383,0.02086
4996.66230,0.01693
4998.59076,0.00574
5000.51923,0.00850
5002.44770,0.02080
5004.37617,0.02836
5006.30464,0.02601
5008.23311,0.02014
5010.16158,0.01835
5012.09005,0.01946
5014.01851,0.01878
5015.94698,0.01362
5017.87545,0.00303
5019.80392,-0.00496
5021.73239,-0.00370
5023.66086,0.00150
5025.58933,0.00122
5027.51779,-0.00316
5029.44626,0.00075
5031.37473,0.00519
5033.30320,-0.00107
5035.23167,-0.00732
5037.16014,-0.00550
5039.08861,0.00128
5041.01708,0.00716
5042.94554,0.01742
5044.87401,0.03274
5046.80248,0.03407
5048.73095,0.01832
5050.65942,0.00644
5052.58789,0.01316
5054.51636,0.03102
5056.44482,0.03664
5058.37329,0.02426
5060.30176,0.01582
5062.23023,0.01809
5064.15870,0.02223
5066.08717,0.02880
5068.01564,0.02805
5069.94410,0.01108
5071.87257,-0.00549
5073.80104,-0.00250
5075.72951,0.01466
5077.65798,0.02298
5079.58645,0.01522
5081.51492,0.00699
5083.44339,0.00555
5085.37185,0.00484
5087.30032,0.00362
5089.22879,0.00240
5091.15726,0.00705
5093.08573,0.02097
5095.01420,0.02827
5096.94267,0.01995
5098.87113,0.01178
5100.79960,0.01042
5102.72807,0.00395
5104.65654,-0.00917
5106.58501,-0.02524
5108.51348,-0.03492
5110.44195,-0.02313
5112.37042,-0.00262
5114.29888,0.00549
5116.22735,0.00800
5118.15582,0.01573
5120.08429,0.02341
5122.01276,0.02350
5123.94123,0.01612
5125.86970,0.00495
5127.79816,-0.00560
5129.72663,-0.01069
5131.65510,-0.00745
5133.58357,0.00273
5135.51204,0.00903
5137.44051,0.00868
5139.36898,0.01432
5141.29745,0.02631
5143.22591,0.03507
5145.15438,0.03247
5147.08285,0.02130
5149.01132,0.01933
5150.93979,0.02478
5152.86826,0.02917
5154.79673,0.03391
5156.72519,0.02541
5158.65366,-0.00073
5160.58213,-0.02387
5162.51060,-0.02740
5164.43907,-0.00981
5166.36754,0.01969
5168.29601,0.05011
5170.22448,0.06418
5172.15294,0.05073
5174.08141,0.03223
5176.00988,0.02644
5177.93835,0.01777
5179.86682,0.00328
5181.79529,0.00164
5183.72376,0.00905
5185.65222,0.00910
5187.58069,0.00964
5189.50916,0.02085
5191.43763,0.02621
5193.36610,0.01031
5195.29457,-0.01221
5197.22304,-0.01704
5199.15151,-0.00395
5201.07997,0.01347
5203.00844,0.03164
5204.93691,0.04180
5206.86538,0.04100
5208.79385,0.04524
5210.72232,0.05055
5212.65079,0.04270
5214.57925,0.02440
5216.50772,0.00627
5218.43619,-0.00205
5220.36466,0.00444
5222.29313,0.01688
5224.22160,0.01550
5226.15007,-0.00483
5228.07854,-0.01509
5230.00700,-0.00133
5231.93547,0.01653
5233.86394,0.02347
5235.79241,0.01636
5237.72088,-0.00414
5239.64935,-0.01791
5241.57782,-0.00418
5243.50628,0.02424
5245.43475,0.04605
5247.36322,0.05381
5249.29169,0.03972
5251.22016,0.02096
5253.14863,0.01771
5255.07710,0.01814
5257.00556,0.01937
5258.93403,0.02773
5260.86250,0.03772
5262.79097,0.05063
5264.71944,0.06993
5266.64791,0.07892
5268.57638,0.06571
5270.50485,0.04737
5272.43331,0.04124
5274.36178,0.04441
5276.29025,0.05325
5278.21872,0.05691
5280.14719,0.04448
5282.07566,0.02837
5284.00413,0.02192
5285.93259,0.02175
5287.86106,0.01985
5289.78953,0.01586
5291.71800,0.01859
5293.64647,0.03598
5295.57494,0.06200
5297.50341,0.08052
5299.43188,0.07911
5301.36034,0.05976
5303.28881,0.03718
5305.21728,0.02103
5307.14575,0.00976
5309.07422,0.00146
5311.00269,0.00230
5312.93116,0.01648
5314.85962,0.03214
5316.78809,0.03720
5318.71656,0.02845
5320.64503,0.01547
5322.57350,0.01183
5324.50197,0.01411
5326.43044,0.02269
5328.35891,0.04107
5330.28737,0.05820
5332.21584,0.06754
5334.14431,0.06791
5336.07278,0.05644
5338.00125,0.04082
5339.92972,0.03988
5341.85819,0.04277
5343.78665,0.03627
5345.71512,0.03452
5347.64359,0.04535
5349.57206,0.06563
5351.50053,0.07856
5353.42900,0.05899
5355.35747,0.02328
5357.28594,-0.00024
5359.21440,-0.00603
5361.14287,0.01264
5363.07134,0.03527
5364.99981,0.03329
5366.92828,0.02468
5368.85675,0.02760
5370.78522,0.03411
5372.71368,0.05028
5374.64215,0.06371
5376.57062,0.04906
5378.49909,0.04127
5380.42756,0.05210
5382.35603,0.05688
5384.28450,0.05368
5386.21297,0.04751
5388.14143,0.03159
5390.06990,0.01429
5391.99837,0.02732
5393.92684,0.05536
5395.85531,0.04438
5397.78378,0.01541
5399.71225,0.01378
5401.64071,0.03373
5403.56918,0.04837
5405.49765,0.05143
5407.42612,0.04282
5409.35459,0.02806
5411.28306,0.02749
5413.21153,0.04334
5415.13999,0.06022
5417.06846,0.07454
5418.99693,0.07906
5420.92540,0.06345
5422.85387,0.05085
5424.78234,0.06061
5426.71081,0.06583
5428.63928,0.05063
5430.56774,0.03452
5432.49621,0.02706
5434.42468,0.03285
5436.35315,0.04871
5438.28162,0.05548
5440.21009,0.05491
5442.13856,0.05024
5444.06702,0.03321
5445.99549,0.01686
5447.92396,0.01811
5449.85243,0.04318
5451.78090,0.08524
5453.70937,0.11019
5455.63784,0.10600
5457.56631,0.08706
5459.49477,0.06348
5461.42324,0.04210
5463.35171,0.02117
5465.28018,0.01302
5467.20865,0.02635
5469.13712,0.04114
5471.06559,0.05086
5472.99405,0.07057
5474.92252,0.09019
5476.85099,0.08114
5478.77946,0.06650
5480.70793,0.06114
5482.63640,0.04326
5484.56487,0.02190
5486.49334,0.02208
5488.42180,0.03186
5490.35027,0.02788
5492.27874,0.02204
5494.20721,0.02081
5496.13568,0.02660
5498.06415,0.04592
5499.99262,0.05262
5501.92108,0.04055
5503.84955,0.04198
5505.77802,0.06476
5507.70649,0.07782
5509.63496,0.05820
5511.56343,0.02888
5513.49190,0.02109
5515.42037,0.03635
5517.34883,0.05838
5519.27730,0.08088
5521.20577,0.09527
5523.13424,0.09236
5525.06271,0.07986
5526.99118,0.06565
5528.91965,0.04920
5530.84811,0.04665
5532.77658,0.07213
5534.70505,0.09788
5536.63352,0.09912
5538.56199,0.09096
5540.49046,0.08719
5542.41893,0.07845
5544.34740,0.05110
5546.27586,0.01878
5548.20433,0.02102
5550.13280,0.05879
5552.06127,0.09013
5553.98974,0.08428
5555.91821,0.04926
5557.84668,0.03025
5559.77514,0.04783
5561.70361,0.06637
5563.63208,0.06388
5565.56055,0.05693
5567.48902,0.05964
5569.41749,0.06682
5571.34596,0.06793
5573.27443,0.06657
5575.20289,0.06726
5577.13136,0.05895
5579.05983,0.04767
5580.98830,0.05378
5582.91677,0.07609
5584.84524,0.09801
5586.77371,0.10561
5588.70217,0.09849
5590.63064,0.09114
5592.55911,0.08036
5594.48758,0.05275
5596.41605,0.02392
5598.34452,0.02096
5600.27299,0.04328
5602.20145,0.05516
5604.12992,0.02889
5606.05839,0.00166
5607.98686,0.01833
5609.91533,0.05187
5611.84380,0.05982
5613.77227,0.05220
5615.70074,0.06640
5617.62920,0.09584
5619.55767,0.10219
5621.48614,0.09451
5623.41461,0.08996
5625.34308,0.08076
5627.27155,0.07587
5629.20002,0.06178
5631.12848,0.01935
5633.05695,-0.00812
5634.98542,0.03126
5636.91389,0.09191
5638.84236,0.09300
5640.77083,0.05712
5642.69930,0.03255
5644.62777,0.02295
5646.55623,0.03400
5648.48470,0.05572
5650.41317,0.06596
5652.34164,0.07295
5654.27011,0.08093
5656.19858,0.07656
5658.12705,0.06737
5660.05551,0.06874
5661.98398,0.08258
5663.91245,0.09118
5665.84092,0.06658
5667.76939,0.03521
5669.69786,0.04560
5671.62633,0.07255
5673.55480,0.07619
5675.48326,0.07272
5677.41173,0.08263
5679.34020,0.10414
5681.26867,0.11960
5683.19714,0.10095
5685.12561,0.05612
5687.05408,0.03627
5688.98254,0.05956
5690.91101,0.07818
5692.83948,0.06436
5694.76795,0.04388
5696.69642,0.03243
5698.62489,0.03522
5700.55336,0.05964
5702.48183,0.07783
5704.41029,0.07595
5706.33876,0.08164
5708.26723,0.09320
5710.19570,0.09173
5712.12417,0.08916
5714.05264,0.09526
5715.98111,0.10169
5717.90957,0.09608
5719.83804,0.06814
5721.76651,0.04434
5723.69498,0.05249
5725.62345,0.05869
5727.55192,0.03128
5729.48039,0.00667
5731.40886,0.00742
5733.33732,0.01144
5735.26579,0.02211
5737.19426,0.03755
5739.12273,0.03525
5741.05120,0.03179
5742.97967,0.04447
5744.90814,0.04466
5746.83660,0.02309
5748.76507,0.01470
5750.69354,0.03763
5752.62201,0.06743
5754.55048,0.05998
5756.47895,0.03385
5758.40742,0.04519
5760.33588,0.06728
5762.26435,0.06474
5764.19282,0.06974
5766.12129,0.09549
5768.04976,0.12349
5769.97823,0.13476
5771.90670,0.11121
5773.83517,0.06770
5775.76363,0.03414
5777.69210,0.01865
5779.62057,0.02416
5781.54904,0.04915
5783.47751,0.08057
5785.40598,0.11362
5787.33445,0.13366
5789.26291,0.13074
5791.19138,0.12698
5793.11985,0.11910
5795.04832,0.09077
5796.97679,0.05742
5798.90526,0.04319
5800.83373,0.04892
5802.76220,0.06174
5804.69066,0.07094
5806.61913,0.06569
5808.54760,0.06392
5810.47607,0.08599
5812.40454,0.12207
5814.33301,0.14529
5816.26148,0.13160
5818.18994,0.10474
5820.11841,0.09752
5822.04688,0.09159
5823.97535,0.06729
5825.90382,0.05357
5827.83229,0.07456
5829.76076,0.09591
5831.68923,0.09747
5833.61769,0.10377
5835.54616,0.10315
5837.47463,0.07240
5839.40310,0.04289
5841.33157,0.03456
5843.26004,0.02868
5845.18851,0.04110
5847.11697,0.07369
5849.04544,0.08152
5850.97391,0.06687
5852.90238,0.05881
5854.83085,0.03411
5856.75932,-0.00747
5858.68779,-0.01807
5860.61626,0.01698
5862.54472,0.06020
5864.47319,0.07088
5866.40166,0.03972
5868.33013,-0.00435
5870.25860,-0.01512
5872.18707,0.01548
5874.11554,0.05370
5876.04400,0.06874
5877.97247,0.06665
5879.90094,0.06758
5881.82941,0.06681
5883.75788,0.06101
5885.68635,0.05920
5887.61482,0.06919
5889.54329,0.08574
5891.47175,0.09099
5893.40022,0.07929
5895.32869,0.06891
5897.25716,0.06857
5899.18563,0.05544
5901.11410,0.04016
5903.04257,0.05859
5904.97103,0.08376
5906.89950,0.07904
5908.82797,0.08244
5910.75644,0.11542
5912.68491,0.12847
5914.61338,0.12727
5916.54185,0.12534
5918.47032,0.08320
5920.39878,0.03688
5922.32725,0.03287
5924.25572,0.04681
5926.18419,0.06972
5928.11266,0.08930
5930.04113,0.09288
5931.96960,0.09802
5933.89806,0.09103
5935.82653,0.06135
5937.75500,0.03739
5939.68347,0.03189
5941.61194,0.04338
5943.54041,0.05634
5945.46888,0.04519
5947.39734,0.01522
5949.32581,-0.00141
5951.25428,0.00894
5953.18275,0.03346
5955.11122,0.04404
5957.03969,0.02273
5958.96816,0.00204
5960.89663,0.01428
5962.82509,0.03925
5964.75356,0.05925
5966.68203,0.08748
5968.61050,0.11125
5970.53897,0.09298
5972.46744,0.05085
5974.39591,0.02603
5976.32437,0.03445
5978.25284,0.06834
5980.18131,0.09465
5982.10978,0.10431
5984.03825,0.11506
5985.96672,0.12843
5987.89519,0.13355
5989.82366,0.13086
5991.75212,0.11824
5993.68059,0.08278
5995.60906,0.05910
5997.53753,0.08035
5999.46600,0.09170
6001.39447,0.06795
6003.32294,0.06136
6005.25140,0.09898
6007.17987,0.13625
6009.10834,0.12610
6011.03681,0.06413
6012.96528,0.00443
6014.89375,0.01019
6016.82222,0.05666
6018.75069,0.06557
6020.67915,0.03655
6022.60762,0.01986
6024.53609,0.01146
6026.46456,-0.00225
6028.39303,0.00132
6030.32150,0.02820
6032.24997,0.04836
6034.17843,0.05104
6036.10690,0.03987
6038.03537,0.03502
6039.96384,0.06517
6041.89231,0.09013
6043.82078,0.08007
6045.74925,0.07838
6047.67772,0.08695
6049.60618,0.05759
6051.53465,-0.00624
6053.46312,-0.02760
6055.39159,0.00255
6057.32006,0.01119
6059.24853,0.01294
6061.17700,0.03456
6063.10546,0.04631
6065.03393,0.05108
6066.96240,0.05886
6068.89087,0.05951
6070.81934,0.05280
6072.74781,0.04351
6074.67628,0.03470
6076.60475,0.04690
6078.53321,0.07477
6080.46168,0.07644
6082.39015,0.05610
6084.31862,0.05483
6086.24709,0.06981
6088.17556,0.07819
6090.10403,0.09813
6092.03249,0.12914
6093.96096,0.14156
6095.88943,0.11962
6097.81790,0.07045
6099.74637,0.05066
6101.67484,0.08234
6103.60331,0.09850
6105.53177,0.07586
6107.46024,0.05195
6109.38871,0.04503
6111.31718,0.06813
6113.24565,0.12027
6115.17412,0.15744
6117.10259,0.15493
6119.03106,0.11479
6120.95952,0.04865
6122.88799,-0.00003
6124.81646,0.00407
6126.74493,0.03751
6128.67340,0.05575
6130.60187,0.06325
6132.53034,0.07101
6134.45880,0.06872
6136.38727,0.06276
6138.31574,0.04552
6140.24421,-0.00037
6142.17268,-0.01856
6144.10115,0.05068
6146.02962,0.13571
6147.95809,0.16388
6149.88655,0.14602
6151.81502,0.10911
6153.74349,0.07754
6155.67196,0.06166
6157.60043,0.04171
6159.52890,0.01730
6161.45737,0.05463
6163.38583,0.14573
6165.31430,0.15425
6167.24277,0.08152
6169.17124,0.05659
6171.09971,0.08101
6173.02818,0.07489
6174.95665,0.05861
6176.88512,0.08519
6178.81358,0.12110
6180.74205,0.10945
6182.67052,0.06455
6184.59899,0.02367
6186.52746,0.00405
6188.45593,0.02024
6190.38440,0.03832
6192.31286,0.03785
6194.24133,0.05154
6196.16980,0.07234
6198.09827,0.04609
6200.02674,-0.01929
6201.95521,-0.04425
6203.88368,-0.00088
6205.81215,0.05480
6207.74061,0.08774
6209.66908,0.10758
6211.59755,0.10060
6213.52602,0.08870
6215.45449,0.10515
6217.38296,0.12291
6219.31143,0.12004
6221.23989,0.11253
6223.16836,0.14399
6225.09683,0.18882
6227.02530,0.15967
6228.95377,0.11097
6230.88224,0.12171
6232.81071,0.12153
6234.73918,0.07403
6236.66764,0.06057
6238.59611,0.08812
6240.52458,0.09986
6242.45305,0.07222
6244.38152,0.03897
6246.30999,0.04549
6248.23846,0.06994
6250.16692,0.08240
6252.09539,0.09459
6254.02386,0.10422
6255.95233,0.07782
6257.88080,0.03161
6259.80927,0.01766
6261.73774,0.02364
6263.66621,0.03928
6265.59467,0.06518
6267.52314,0.06345
6269.45161,0.04444
6271.38008,0.03791
6273.30855,0.03599
6275.23702,0.04826
6277.16549,0.07583
6279.09395,0.08981
6281.02242,0.10828
6282.95089,0.13507
6284.87936,0.11652
6286.80783,0.07029
6288.73630,0.07377
6290.66477,0.12850
6292.59323,0.16789
6294.52170,0.15181
6296.45017,0.10969
6298.37864,0.09655
6300.30711,0.07866
6302.23558,0.03549
6304.16405,0.04416
6306.09252,0.05485
6308.02098,-0.00352
6309.94945,-0.02834
6311.87792,0.02117
6313.80639,0.04049
6315.73486,0.01978
6317.66333,0.01441
6319.59180,0.01297
6321.52026,0.01461
6323.44873,0.03744
6325.37720,0.05809
6327.30567,0.05571
6329.23414,0.03837
6331.16261,0.04282
6333.09108,0.07248
6335.01955,0.08282
6336.94801,0.06311
6338.87648,0.05015
6340.80495,0.06571
6342.73342,0.08272
6344.66189,0.07669
6346.59036,0.04205
6348.51883,0.01043
6350.44729,0.02088
6352.37576,0.05861
6354.30423,0.10629
6356.23270,0.15872
6358.16117,0.19654
6360.08964,0.20157
6362.01811,0.17376
6363.94658,0.10637
6365.87504,0.00666
6367.80351,-0.04036
6369.73198,0.02230
6371.66045,0.11915
6373.58892,0.12613
6375.51739,0.04944
6377.44586,-0.00925
6379.37432,-0.00607
6381.30279,0.04315
6383.23126,0.07461
6385.15973,0.04309
6387.08820,0.00045
6389.01667,-0.01309
6390.94514,-0.00409
6392.87361,0.04245
6394.80207,0.10016
6396.73054,0.10743
6398.65901,0.09753
6400.58748,0.08561
6402.51595,0.03634
6404.44442,-0.01645
6406.37289,-0.02107
6408.30135,-0.02612
6410.22982,-0.05964
6412.15829,-0.08562
6414.08676,-0.10851
6416.01523,-0.10695
6417.94370,-0.05960
6419.87217,0.00597
6421.80064,0.04991
6423.72910,0.04747
6425.65757,0.02669
6427.58604,0.02843
6429.51451,0.04702
6431.44298,0.06409
6433.37145,0.09037
6435.29992,0.11809
6437.22838,0.09746
6439.15685,0.06907
6441.08532,0.08913
6443.01379,0.10266
6444.94226,0.09648
6446.87073,0.08902
6448.79920,0.05000
6450.72766,0.00503
6452.65613,0.00044
6454.58460,-0.00217
6456.51307,-0.03525
6458.44154,-0.04166
6460.37001,-0.00666
6462.29848,0.00794
6464.22695,0.01262
6466.15541,0.03527
6468.08388,0.04155
6470.01235,0.06605
6471.94082,0.13670
6473.86929,0.14122
6475.79776,0.07663
6477.72623,0.05146
6479.65469,0.04431
6481.58316,0.01866
6483.51163,0.04387
6485.44010,0.11651
6487.36857,0.14238
6489.29704,0.10419
6491.22551,0.02751
6493.15398,-0.05017
6495.08244,-0.06330
6497.01091,-0.04657
6498.93938,-0.03289
6500.86785,0.00572
6502.79632,0.05203
6504.72479,0.04795
6506.65326,-0.01422
6508.58172,-0.06806
6510.51019,-0.05886
6512.43866,0.00471
6514.36713,0.04842
6516.29560,0.02193
6518.22407,-0.01951
6520.15254,-0.02764
6522.08101,-0.01128
6524.00947,0.01552
6525.93794,0.05305
6527.86641,0.09928
6529.79488,0.10459
6531.72335,0.04483
6533.65182,-0.01239
6535.58029,0.00023
6537.50875,0.06048
6539.43722,0.08834
6541.36569,0.04898
6543.29416,0.00871
6545.22263,0.00688
6547.15110,-0.00501
6549.07957,-0.00001
6551.00804,0.06840
6552.93650,0.11493
6554.86497,0.08851
6556.79344,0.04922
6558.72191,0.04252
6560.65038,0.07284
6562.57885,0.08303
6564.50732,0.01433
6566.43578,-0.04512
6568.36425,-0.00255
6570.29272,0.06597
6572.22119,0.06611
6574.14966,0.01972
6576.07813,0.00567
6578.00660,0.02323
6579.93507,0.04079
6581.86353,0.08324
6583.79200,0.11606
6585.72047,0.08237
6587.64894,0.03316
6589.57741,0.02247
6591.50588,0.03476
6593.43435,0.00628
6595.36281,-0.06037
6597.29128,-0.05101
6599.21975,0.05913
6601.14822,0.16585
6603.07669,0.14248
6605.00516,0.02596
6606.93363,-0.03370
6608.86210,0.00895
6610.79056,0.05690
6612.71903,0.03155
6614.64750,-0.04379
6616.57597,-0.06388
6618.50444,-0.00837
6620.43291,0.03970
6622.36138,0.07421
6624.28984,0.09188
6626.21831,0.06952
6628.14678,0.06304
6630.07525,0.12004
6632.00372,0.18062
6633.93219,0.17066
6635.86066,0.07483
6637.78912,-0.02593
6639.71759,-0.06828
6641.64606,-0.07941
6643.57453,-0.06229
6645.50300,0.01501
6647.43147,0.10698
6649.35994,0.11647
6651.28841,0.07077
6653.21687,0.05671
6655.14534,0.06358
6657.07381,0.02442
6659.00228,0.00944
6660.93075,0.07820
6662.85922,0.09913
6664.78769,0.02285
6666.71615,-0.03876
6668.64462,-0.01589
6670.57309,0.02658
6672.50156,0.03006
6674.43003,0.02218
6676.35850,0.02289
6678.28697,0.03358
6680.21544,0.07315
6682.14390,0.14508
6684.07237,0.17211
6686.00084,0.09522
6687.92931,0.01922
6689.85778,0.04156
6691.78625,0.08786
6693.71472,0.11189
6695.64318,0.11759
6697.57165,0.08555
6699.50012,0.04638
6701.42859,0.03727
6703.35706,0.03803
6705.28553,0.03900
6707.21400,0.03967
6709.14247,0.03182
6711.07093,0.04847
6712.99940,0.10408
6714.92787,0.14759
6716.85634,0.15263
6718.78481,0.14811
6720.71328,0.11764
6722.64175,0.04234
6724.57021,-0.03504
6726.49868,-0.07596
6728.42715,-0.06346
6730.35562,0.01025
6732.28409,0.10109
6734.21256,0.11419
6736.14103,0.04836
6738.06950,0.03881
6739.99796,0.09221
6741.92643,0.07494
6743.85490,-0.01613
6745.78337,-0.11332
6747.71184,-0.18639
6749.64031,-0.14438
6751.56878,-0.02530
6753.49724,0.02979
6755.42571,0.03509
6757.35418,0.06353
6759.28265,0.10031
6761.21112,0.09794
6763.13959,0.09924
6765.06806,0.13443
6766.99653,0.12153
6768.92499,0.07101
6770.85346,0.07629
6772.78193,0.11539
6774.71040,0.12458
6776.63887,0.09120
6778.56734,0.03172
6780.49581,0.00432
6782.42427,0.06180
6784.35274,0.14090
6786.28121,0.14679
6788.20968,0.08664
6790.13815,0.01862
6792.06662,0.00972
6793.99509,0.05099
6795.92355,0.04737
6797.85202,0.00258
6799.78049,-0.02959
6801.70896,-0.02821
6803.63743,0.04134
6805.56590,0.12975
6807.49437,0.14642
6809.42284,0.06832
6811.35130,-0.03701
6813.27977,-0.00341
6815.20824,0.12102
6817.13671,0.11824
6819.06518,0.01601
6820.99365,-0.00805
6822.92212,0.06478
6824.85058,0.09996
6826.77905,0.11193
6828.70752,0.09394
6830.63599,-0.00099
6832.56446,-0.06987
6834.49293,-0.04138
6836.42140,0.04738
6838.34987,0.10472
6840.27833,0.06614
6842.20680,-0.01322
6844.13527,-0.05878
6846.06374,-0.05060
6847.99221,0.00862
6849.92068,0.05350
6851.84915,0.04429
6853.77761,0.03429
6855.70608,0.04422
6857.63455,0.06744
6859.56302,0.06543
6861.49149,-0.00433
6863.41996,-0.06403
6865.34843,-0.01773
6867.27690,0.05579
6869.20536,0.03607
6871.13383,-0.03423
6873.06230,-0.01231
6874.99077,0.12386
6876.91924,0.21988
6878.84771,0.20027
6880.77618,0.13019
6882.70464,0.05094
6884.63311,-0.07457
6886.56158,-0.18311
6888.49005,-0.18227
6890.41852,-0.10736
6892.34699,-0.01413
6894.27546,0.08622
6896.20393,0.13592
6898.13239,0.06453
6900.06086,-0.03527
6901.98933,-0.04632
6903.91780,0.01182
6905.84627,0.07355
6907.77474,0.12065
6909.70321,0.15524
6911.63167,0.14364
6913.56014,0.10233
6915.48861,0.10423
6917.41708,0.13791
6919.34555,0.11427
6921.27402,0.02485
6923.20249,-0.00886
6925.13096,0.05322
6927.05942,0.12177
6928.98789,0.13918
6930.91636,0.14666
6932.84483,0.14249
6934.77330,0.11430
6936.70177,0.08178
6938.63024,0.01534
6940.55870,-0.02193
6942.48717,0.05466
6944.41564,0.13360
6946.34411,0.12830
6948.27258,0.06851
6950.20105,0.03441
6952.12952,0.05147
6954.05799,0.08439
6955.98645,0.09005
6957.91492,0.09179
6959.84339,0.14497
6961.77186,0.19140
6963.70033,0.14776
6965.62880,0.07270
6967.55727,0.02873
6969.48573,0.02697
6971.41420,0.11175
6973.34267,0.23770
6975.27114,0.20595
6977.19961,0.04095
6979.12808,-0.03677
6981.05655,0.00811
6982.98501,0.08484
6984.91348,0.10331
6986.84195,0.07735
6988.77042,0.06186
6990.69889,0.01784
6992.62736,-0.06412
6994.55583,-0.10227
6996.48430,-0.05800
6998.41276,0.00103
7000.34123,0.02470
7002.26970,0.03770
7004.19817,0.03433
7006.12664,-0.00049
7008.05511,-0.00284
7009.98358,0.04266
7011.91204,0.06495
7013.84051,0.07810
7015.76898,0.09206
7017.69745,0.05101
7019.62592,0.00444
7021.55439,0.05193
7023.48286,0.13508
7025.41133,0.15761
7027.33979,0.17639
7029.26826,0.18780
7031.19673,0.13794
7033.12520,0.10560
7035.05367,0.13328
7036.98214,0.12440
7038.91061,0.06259
7040.83907,0.03274
7042.76754,0.02070
7044.69601,-0.02154
7046.62448,-0.06917
7048.55295,-0.09454
7050.48142,-0.07292
7052.40989,-0.01506
7054.33836,0.01562
7056.26682,0.01414
7058.19529,0.01286
7060.12376,-0.03324
7062.05223,-0.09038
7063.98070,-0.09317
7065.90917,-0.05651
7067.83764,-0.02812
7069.76610,-0.00236
7071.69457,0.08821
7073.62304,0.16506
7075.55151,0.14624
7077.47998,0.13315
7079.40845,0.19583
7081.33692,0.24163
7083.26539,0.17689
7085.19385,0.09958
7087.12232,0.08517
7089.05079,0.11118
7090.97926,0.12401
7092.90773,0.17565
7094.83620,0.24924
7096.76467,0.21592
7098.69313,0.09576
7100.62160,-0.00658
7102.55007,-0.09773
7104.47854,-0.15674
7106.40701,-0.12689
7108.33548,-0.05954
7110.26395,-0.03653
7112.19242,-0.07499
7114.12088,-0.10177
7116.04935,-0.00059
7117.97782,0.11631
7119.90629,0.07438
7121.83476,0.05521
7123.76323,0.10926
7125.69170,0.12710
7127.62016,0.07323
7129.54863,0.00755
7131.47710,0.03691
7133.40557,0.14234
7135.33404,0.18055
7137.26251,0.14055
7139.19098,0.13880
7141.11944,0.23399
7143.04791,0.31883
7144.97638,0.23661
7146.90485,0.05869
7148.83332,0.01115
7150.76179,0.13295
7152.69026,0.23922
7154.61873,0.15146
7156.54719,0.06011
7158.47566,0.08848
7160.40413,0.18368
7162.33260,0.27793
7164.26107,0.23581
7166.18954,0.12942
7168.11801,0.18548
7170.04647,0.23026
7171.97494,0.01474
7173.90341,-0.17841
7175.83188,-0.06249
7177.76035,0.14823
7179.68882,0.11988
7181.61729,-0.05277
7183.54576,-0.09538
7185.47422,0.02255
7187.40269,0.11066
7189.33116,0.09889
7191.25963,0.02246
7193.18810,-0.05421
7195.11657,-0.05820
7197.04504,0.04052
7198.97350,0.09808
7200.90197,0.02787
7202.83044,-0.07237
7204.75891,-0.10042
7206.68738,-0.05664
7208.61585,-0.01166
7210.54432,-0.00574
7212.47279,-0.03771
7214.40125,-0.02396
7216.32972,0.08218
7218.25819,0.10917
7220.18666,-0.04032
7222.11513,-0.18081
7224.04360,-0.22837
7225.97207,-0.13572
7227.90053,0.00557
7229.82900,0.05748
7231.75747,0.08937
7233.68594,0.14980
7235.61441,0.16135
7237.54288,0.16209
7239.47135,0.14083
7241.39982,0.01314
7243.32828,-0.08792
7245.25675,-0.03024
7247.18522,-0.00301
7249.11369,-0.03099
7251.04216,0.03414
7252.97063,0.14105
7254.89910,0.11972
7256.82756,0.16431
7258.75603,0.36790
7260.68450,0.51811
7262.61297,0.33349
7264.54144,-0.00407
7266.46991,-0.18753
7268.39838,-0.16703
7270.32685,0.02711
7272.25531,0.26231
7274.18378,0.30033
7276.11225,0.23015
7278.04072,0.21730
7279.96919,0.23726
7281.89766,0.15898
7283.82613,0.07271
7285.75459,0.06488
7287.68306,0.04769
7289.61153,-0.00794
7291.54000,-0.03076
7293.46847,-0.00261
7295.39694,0.08058
7297.32541,0.14218
7299.25387,0.15442
7301.18234,0.19296
7303.11081,0.17630
7305.03928,0.09122
7306.96775,0.08874
7308.89622,0.07975
7310.82469,-0.01993
7312.75316,-0.06989
7314.68162,-0.07903
7316.61009,-0.08629
7318.53856,-0.07805
7320.46703,-0.01956
7322.39550,0.09422
7324.32397,0.15486
7326.25244,0.17812
7328.18090,0.28119
7330.10937,0.31103
7332.03784,0.19599
7333.96631,0.11717
7335.89478,0.08440
7337.82325,0.02801
7339.75172,-0.08841
7341.68019,-0.15449
7343.60865,-0.09120
7345.53712,0.08586
7347.46559,0.32094
7349.39406,0.41032
7351.32253,0.27227
7353.25100,0.11995
7355.17947,0.11660
7357.10793,0.18572
7359.03640,0.17496
7360.96487,0.07885
7362.89334,-0.07036
7364.82181,-0.21845
7366.75028,-0.14585
7368.67875,0.07318
7370.60722,0.17990
7372.53568,0.19899
7374.46415,0.15078
7376.39262,0.08348
7378.32109,0.12608
7380.24956,0.20178
7382.17803,0.27390
7384.10650,0.33474
7386.03496,0.34124
7387.96343,0.27948
7389.89190,0.25886
7391.82037,0.31111
7393.74884,0.28826
7395.67731,0.11304
7397.60578,-0.06054
7399.53425,-0.13574
7401.46271,-0.15240
7403.39118,-0.12377
7405.31965,-0.05051
7407.24812,0.04962
7409.17659,0.16893
7411.10506,0.25940
7413.03353,0.24834
7414.96199,0.15441
7416.89046,0.08672
7418.81893,0.13728
7420.74740,0.17442
7422.67587,0.12107
7424.60434,0.10029
7426.53281,0.15021
7428.46128,0.24436
7430.38974,0.32128
7432.31821,0.30461
7434.24668,0.19727
7436.17515,0.04326
7438.10362,-0.09074
7440.03209,-0.15525
7441.96056,-0.14926
7443.88902,-0.18050
7445.81749,-0.17841
7447.74596,-0.10246
7449.67443,-0.13023
7451.60290,-0.31655
7453.53137,-0.40548
7455.45984,-0.28894
7457.38831,-0.15009
7459.31677,-0.09799
7461.24524,-0.05253
7463.17371,-0.01734
7465.10218,-0.03931
7467.03065,-0.05271
7468.95912,-0.03443
7470.88759,-0.01941
7472.81605,-0.07359
7474.74452,-0.12815
7476.67299,-0.11885
7478.60146,-0.05622
7480.52993,-0.04391
7482.45840,-0.02918
7484.38687,0.16533
7486.31533,0.32431
7488.24380,0.16008
7490.17227,-0.13149
7492.10074,-0.19523
7494.02921,-0.08136
7495.95768,0.04284
7497.88615,0.14940
