399.19301,0.15147
401.12148,0.46597
403.04995,0.49556
404.97842,0.17281
406.90689,-0.04732
408.83536,-0.03122
410.76382,0.13270
412.69229,0.27807
414.62076,0.22205
416.54923,0.00641
418.47770,-0.04406
420.40617,0.19283
422.33464,0.27516
424.26311,0.24534
426.19157,0.21359
428.12004,0.15180
430.04851,0.14156
431.97698,0.20539
433.90545,0.18452
435.83392,0.09868
437.76239,0.04587
439.69085,0.03190
441.61932,0.03598
443.54779,0.02274
445.47626,-0.02616
447.40473,-0.02256
449.33320,0.03567
451.26167,0.06497
453.19013,0.07763
455.11860,0.07661
457.04707,0.04963
458.97554,0.02637
460.90401,0.02881
462.83248,0.03652
464.76095,0.03628
466.68942,0.04459
468.61788,0.03534
470.54635,-0.00389
472.47482,-0.07073
474.40329,-0.14082
476.33176,-0.09853
478.26023,-0.02755
480.18870,0.01059
482.11716,0.05176
484.04563,0.09508
485.97410,0.09569
487.90257,0.09268
489.83104,0.12244
491.75951,0.13838
493.68798,0.11230
495.61645,0.09009
497.54491,0.08385
499.47338,0.04515
501.40185,-0.00254
503.33032,-0.00006
505.25879,0.03169
507.18726,0.04727
509.11573,0.03946
511.04419,0.03816
512.97266,0.05908
514.90113,0.08350
516.82960,0.08764
518.75807,0.08172
520.68654,0.10353
522.61501,0.13272
524.54348,0.11993
526.47194,0.10404
528.40041,0.10672
530.32888,0.08314
532.25735,0.04619
534.18582,0.02277
536.11429,0.01757
538.04276,0.03838
539.97122,0.07143
541.89969,0.08805
543.82816,0.09091
545.75663,0.08665
547.68510,0.07960
549.61357,0.09167
551.54204,0.10984
553.47051,0.10789
555.39897,0.07815
557.32744,0.04991
559.25591,0.04875
561.18438,0.04083
563.11285,0.02479
565.04132,0.04104
566.96979,0.08195
568.89825,0.09885
570.82672,0.09010
572.75519,0.08628
574.68366,0.07523
576.61213,0.04246
578.54060,0.02293
580.46907,0.03236
582.39754,0.05072
584.32600,0.07663
586.25447,0.09933
588.18294,0.09014
590.11141,0.06312
592.03988,0.05282
593.96835,0.07284
595.89682,0.10582
597.82528,0.11049
599.75375,0.07336
601.68222,0.03969
603.61069,0.05568
605.53916,0.08982
607.46763,0.08501
609.39610,0.06104
611.32456,0.05984
613.25303,0.07242
615.18150,0.07501
617.10997,0.06797
619.03844,0.07076
620.96691,0.07999
622.89538,0.07684
624.82385,0.06575
626.75231,0.05845
628.68078,0.06740
630.60925,0.08697
632.53772,0.09423
634.46619,0.08686
636.39466,0.08010
638.32313,0.08116
640.25159,0.08002
642.18006,0.07778
644.10853,0.08991
646.03700,0.10694
647.96547,0.10990
649.89394,0.09952
651.82241,0.08895
653.75088,0.08815
655.67934,0.09485
657.60781,0.09659
659.53628,0.09233
661.46475,0.09178
663.39322,0.09623
665.32169,0.09456
667.25016,0.07163
669.17862,0.04848
671.10709,0.05693
673.03556,0.06573
674.96403,0.06594
676.89250,0.06210
678.82097,0.05986
680.74944,0.06781
682.67791,0.08296
684.60637,0.08796
686.53484,0.08242
688.46331,0.08278
690.39178,0.09083
692.32025,0.09479
694.24872,0.08746
696.17719,0.07945
698.10565,0.08268
700.03412,0.08565
701.96259,0.08022
703.89106,0.07487
705.81953,0.07196
707.74800,0.07313
709.67647,0.08515
711.60494,0.09997
713.53340,0.10594
715.46187,0.10912
717.39034,0.10971
719.31881,0.10228
721.24728,0.09536
723.17575,0.09541
725.10422,0.09903
727.03268,0.09612
728.96115,0.08540
730.88962,0.08343
732.81809,0.09706
734.74656,0.11271
736.67503,0.11246
738.60350,0.09624
740.53197,0.08526
742.46043,0.08655
744.38890,0.08935
746.31737,0.09314
748.24584,0.09803
750.17431,0.10131
752.10278,0.10481
754.03125,0.10759
755.95971,0.10374
757.88818,0.09262
759.81665,0.08736
761.74512,0.09029
763.67359,0.09024
765.60206,0.09190
767.53053,0.10008
769.45900,0.10376
771.38746,0.10075
773.31593,0.09860
775.24440,0.09453
777.17287,0.08819
779.10134,0.08945
781.02981,0.09912
782.95828,0.10990
784.88674,0.11255
786.81521,0.10388
788.74368,0.09707
790.67215,0.09957
792.60062,0.10225
794.52909,0.10545
796.45756,0.11308
798.38602,0.11094
800.31449,0.09587
802.24296,0.08325
804.17143,0.07786
806.09990,0.08017
808.02837,0.08545
809.95684,0.08124
811.88531,0.07515
813.81377,0.08370
815.74224,0.09897
817.67071,0.10420
819.59918,0.10265
821.52765,0.10111
823.45612,0.09567
825.38459,0.08899
827.31305,0.08609
829.24152,0.08781
831.16999,0.09847
833.09846,0.11302
835.02693,0.12149
836.95540,0.12462
838.88387,0.12302
840.81234,0.11595
842.74080,0.11110
844.66927,0.11234
846.59774,0.11258
848.52621,0.10921
850.45468,0.10617
852.38315,0.10938
854.31162,0.11676
856.24008,0.11934
858.16855,0.11710
860.09702,0.11336
862.02549,0.11143
863.95396,0.11615
865.88243,0.12248
867.81090,0.11874
869.73937,0.10987
871.66783,0.10821
873.59630,0.10687
875.52477,0.09806
877.45324,0.09010
879.38171,0.08966
881.31018,0.09276
883.23865,0.09550
885.16711,0.09821
887.09558,0.10298
889.02405,0.11076
890.95252,0.11593
892.88099,0.11312
894.80946,0.10713
896.73793,0.10307
898.66640,0.09646
900.59486,0.09248
902.52333,0.10098
904.45180,0.11147
906.38027,0.11434
908.30874,0.11185
910.23721,0.10611
912.16568,0.10561
914.09414,0.11376
916.02261,0.12106
917.95108,0.12332
919.87955,0.11983
921.80802,0.11339
923.73649,0.11358
925.66496,0.11929
927.59343,0.12280
929.52189,0.12205
931.45036,0.11629
933.37883,0.10574
935.30730,0.09780
937.23577,0.10111
939.16424,0.11247
941.09271,0.12084
943.02117,0.11934
944.94964,0.11386
946.87811,0.11332
948.80658,0.11643
950.73505,0.11959
952.66352,0.12246
954.59199,0.12605
956.52045,0.12840
958.44892,0.13043
960.37739,0.13523
962.30586,0.13469
964.23433,0.12553
966.16280,0.11809
968.09127,0.11790
970.01974,0.12070
971.94820,0.12145
973.87667,0.12038
975.80514,0.12095
977.73361,0.12333
979.66208,0.12334
981.59055,0.12291
983.51902,0.12647
985.44748,0.12771
987.37595,0.12362
989.30442,0.12502
991.23289,0.13051
993.16136,0.12701
995.08983,0.12159
997.01830,0.12206
998.94677,0.11994
1000.87523,0.11493
1002.80370,0.11547
1004.73217,0.12427
1006.66064,0.13390
1008.58911,0.13476
1010.51758,0.12709
1012.44605,0.11842
1014.37451,0.11506
1016.30298,0.11714
1018.23145,0.11826
1020.15992,0.11765
1022.08839,0.11878
1024.01686,0.12266
1025.94533,0.13287
1027.87380,0.14326
1029.80226,0.14209
1031.73073,0.13549
1033.65920,0.13788
1035.58767,0.14430
1037.51614,0.13931
1039.44461,0.13222
1041.37308,0.13799
1043.30154,0.14456
1045.23001,0.13892
1047.15848,0.12779
1049.08695,0.12131
1051.01542,0.12251
1052.94389,0.12727
1054.87236,0.12831
1056.80083,0.12656
1058.72929,0.12639
1060.65776,0.12843
1062.58623,0.13262
1064.51470,0.13358
1066.44317,0.12876
1068.37164,0.12665
1070.30011,0.13181
1072.22857,0.13698
1074.15704,0.13541
1076.08551,0.13233
1078.01398,0.13115
1079.94245,0.12737
1081.87092,0.12742
1083.79939,0.13889
1085.72786,0.14922
1087.65632,0.14619
1089.58479,0.13690
1091.51326,0.13229
1093.44173,0.13667
1095.37020,0.14134
1097.29867,0.13587
1099.22714,0.12962
1101.15560,0.13130
1103.08407,0.13521
1105.01254,0.13619
1106.94101,0.13120
1108.86948,0.12405
1110.79795,0.12566
1112.72642,0.13335
1114.65489,0.13606
1116.58335,0.13542
1118.51182,0.13674
1120.44029,0.13979
1122.36876,0.14187
1124.29723,0.14009
1126.22570,0.13612
1128.15417,0.13070
1130.08263,0.12188
1132.01110,0.11754
1133.93957,0.12326
1135.86804,0.12858
1137.79651,0.13055
1139.72498,0.13413
1141.65345,0.13389
1143.58191,0.12868
1145.51038,0.12692
1147.43885,0.13144
1149.36732,0.13689
1151.29579,0.14133
1153.22426,0.14746
1155.15273,0.15112
1157.08120,0.14688
1159.00966,0.14017
1160.93813,0.13776
1162.86660,0.13775
1164.79507,0.13845
1166.72354,0.14034
1168.65201,0.14233
1170.58048,0.14516
1172.50894,0.14736
1174.43741,0.14702
1176.36588,0.14708
1178.29435,0.14776
1180.22282,0.14391
1182.15129,0.13621
1184.07976,0.13275
1186.00823,0.13279
1187.93669,0.13246
1189.86516,0.13486
1191.79363,0.13885
1193.72210,0.14126
1195.65057,0.14185
1197.57904,0.14115
1199.50751,0.14073
1201.43597,0.14192
1203.36444,0.14491
1205.29291,0.14713
1207.22138,0.14785
1209.14985,0.14910
1211.07832,0.14925
1213.00679,0.14784
1214.93526,0.14693
1216.86372,0.14459
1218.79219,0.14128
1220.72066,0.14273
1222.64913,0.14827
1224.57760,0.15086
1226.50607,0.14812
1228.43454,0.14458
1230.36300,0.14369
1232.29147,0.14409
1234.21994,0.14475
1236.14841,0.14585
1238.07688,0.14727
1240.00535,0.14914
1241.93382,0.15030
1243.86229,0.15005
1245.79075,0.14851
1247.71922,0.14526
1249.64769,0.14269
1251.57616,0.14301
1253.50463,0.14321
1255.43310,0.14135
1257.36157,0.14032
1259.29003,0.14124
1261.21850,0.14185
1263.14697,0.14199
1265.07544,0.14386
1267.00391,0.14623
1268.93238,0.14670
1270.86085,0.14839
1272.78932,0.15237
1274.71778,0.15407
1276.64625,0.15419
1278.57472,0.15536
1280.50319,0.15520
1282.43166,0.15407
1284.36013,0.15417
1286.28860,0.15413
1288.21706,0.15398
1290.14553,0.15523
1292.07400,0.15663
1294.00247,0.15560
1295.93094,0.15174
1297.85941,0.14812
1299.78788,0.14614
1301.71634,0.14268
1303.64481,0.13707
1305.57328,0.13654
1307.50175,0.14432
1309.43022,0.15131
1311.35869,0.15252
1313.28716,0.15161
1315.21563,0.15055
1317.14409,0.15095
1319.07256,0.15297
1321.00103,0.15424
1322.92950,0.15415
1324.85797,0.15288
1326.78644,0.15143
1328.71491,0.15017
1330.64337,0.14760
1332.57184,0.14550
1334.50031,0.14638
1336.42878,0.15023
1338.35725,0.15524
1340.28572,0.15471
1342.21419,0.14959
1344.14266,0.14764
1346.07112,0.14914
1347.99959,0.15198
1349.92806,0.15361
1351.85653,0.15318
1353.78500,0.15237
1355.71347,0.15060
1357.64194,0.14959
1359.57040,0.15211
1361.49887,0.15753
1363.42734,0.16173
1365.35581,0.16017
1367.28428,0.15566
1369.21275,0.15289
1371.14122,0.15416
1373.06969,0.15911
1374.99815,0.16324
1376.92662,0.16362
1378.85509,0.16312
1380.78356,0.16181
1382.71203,0.16060
1384.64050,0.16434
1386.56897,0.17130
1388.49743,0.17287
1390.42590,0.17014
1392.35437,0.16866
1394.28284,0.17052
1396.21131,0.17627
1398.13978,0.18056
1400.06825,0.17749
1401.99672,0.17103
1403.92518,0.16835
1405.85365,0.16743
1407.78212,0.16442
1409.71059,0.16275
1411.63906,0.16327
1413.56753,0.16355
1415.49600,0.16647
1417.42446,0.17400
1419.35293,0.17571
1421.28140,0.17089
1423.20987,0.17003
1425.13834,0.16989
1427.06681,0.17106
1428.99528,0.17439
1430.92375,0.17234
1432.85221,0.16732
1434.78068,0.16701
1436.70915,0.16882
1438.63762,0.16759
1440.56609,0.16558
1442.49456,0.16450
1444.42303,0.16568
1446.35149,0.17024
1448.27996,0.17490
1450.20843,0.17638
1452.13690,0.17708
1454.06537,0.17973
1455.99384,0.18672
1457.92231,0.19086
1459.85077,0.18316
1461.77924,0.17849
1463.70771,0.18237
1465.63618,0.18508
1467.56465,0.17898
1469.49312,0.17760
1471.42159,0.18676
1473.35006,0.19264
1475.27852,0.18632
1477.20699,0.17994
1479.13546,0.17778
1481.06393,0.17806
1482.99240,0.17775
1484.92087,0.17833
1486.84934,0.18397
1488.77780,0.19229
1490.70627,0.19181
1492.63474,0.18777
1494.56321,0.19117
1496.49168,0.19848
1498.42015,0.19761
1500.34862,0.19106
1502.27709,0.18945
1504.20555,0.19870
1506.13402,0.21922
1508.06249,0.21566
1509.99096,0.19517
1511.91943,0.18773
1513.84790,0.19173
1515.77637,0.20049
1517.70483,0.20512
1519.63330,0.20789
1521.56177,0.20860
1523.49024,0.20114
1525.41871,0.19545
1527.34718,0.18942
1529.27565,0.18170
1531.20412,0.18078
1533.13258,0.18615
1535.06105,0.18941
1536.98952,0.19649
1538.91799,0.21749
1540.84646,0.23354
1542.77493,0.21830
1544.70340,0.19909
1546.63186,0.18749
1548.56033,0.18507
1550.48880,0.18470
1552.41727,0.18504
1554.34574,0.19205
1556.27421,0.20554
1558.20268,0.22389
1560.13115,0.21633
1562.05961,0.19767
1563.98808,0.19135
1565.91655,0.19295
1567.84502,0.19653
1569.77349,0.19251
1571.70196,0.18445
1573.63043,0.18666
1575.55889,0.19640
1577.48736,0.19583
1579.41583,0.18724
1581.34430,0.18343
1583.27277,0.18176
1585.20124,0.17707
1587.12971,0.17282
1589.05818,0.17515
1590.98664,0.17992
1592.91511,0.18066
1594.84358,0.17926
1596.77205,0.17898
1598.70052,0.18004
1600.62899,0.18047
1602.55746,0.17737
1604.48592,0.17244
1606.41439,0.17220
1608.34286,0.17674
1610.27133,0.17846
1612.19980,0.17762
1614.12827,0.18173
1616.05674,0.19084
1617.98521,0.19222
1619.91367,0.18994
1621.84214,0.19590
1623.77061,0.20190
1625.69908,0.19585
1627.62755,0.18663
1629.55602,0.18331
1631.48449,0.18682
1633.41295,0.19645
1635.34142,0.20876
1637.26989,0.20525
1639.19836,0.19335
1641.12683,0.18821
1643.05530,0.19131
1644.98377,0.20400
1646.91223,0.22016
1648.84070,0.21971
1650.76917,0.21616
1652.69764,0.21817
1654.62611,0.20608
1656.55458,0.19381
1658.48305,0.19071
1660.41152,0.19162
1662.33998,0.19249
1664.26845,0.19122
1666.19692,0.19417
1668.12539,0.20646
1670.05386,0.21434
1671.98233,0.20725
1673.91080,0.20174
1675.83926,0.19893
1677.76773,0.19650
1679.69620,0.19842
1681.62467,0.20649
1683.55314,0.21854
1685.48161,0.21634
1687.41008,0.20388
1689.33855,0.19497
1691.26701,0.19045
1693.19548,0.19185
1695.12395,0.20032
1697.05242,0.21187
1698.98089,0.21457
1700.90936,0.20356
1702.83783,0.19567
1704.76629,0.19709
1706.69476,0.19589
1708.62323,0.18787
1710.55170,0.18413
1712.48017,0.18831
1714.40864,0.19658
1716.33711,0.20497
1718.26558,0.20268
1720.19404,0.19364
1722.12251,0.18832
1724.05098,0.18500
1725.97945,0.18296
1727.90792,0.18601
1729.83639,0.19375
1731.76486,0.19926
1733.69332,0.19714
1735.62179,0.19036
1737.55026,0.18864
1739.47873,0.19077
1741.40720,0.19212
1743.33567,0.19320
1745.26414,0.19814
1747.19261,0.20630
1749.12107,0.20945
1751.04954,0.20123
1752.97801,0.19120
1754.90648,0.18805
1756.83495,0.18891
1758.76342,0.18856
1760.69189,0.18719
1762.62035,0.18455
1764.54882,0.18235
1766.47729,0.18519
1768.40576,0.19338
1770.33423,0.20458
1772.26270,0.21238
1774.19117,0.20807
1776.11964,0.19955
1778.04810,0.19455
1779.97657,0.19283
1781.90504,0.19185
1783.83351,0.19070
1785.76198,0.18908
1787.69045,0.18940
1789.61892,0.19604
1791.54738,0.20480
1793.47585,0.20178
1795.40432,0.19216
1797.33279,0.18847
1799.26126,0.18918
1801.18973,0.18785
1803.11820,0.18446
1805.04666,0.18198
1806.97513,0.18122
1808.90360,0.18251
1810.83207,0.18332
1812.76054,0.18269
1814.68901,0.18361
1816.61748,0.18514
1818.54595,0.18441
1820.47441,0.18341
1822.40288,0.18582
1824.33135,0.18920
1826.25982,0.19080
1828.18829,0.19375
1830.11676,0.19436
1832.04523,0.18761
1833.97369,0.18200
1835.90216,0.18280
1837.83063,0.18585
1839.75910,0.18757
1841.68757,0.19147
1843.61604,0.19759
1845.54451,0.19693
1847.47298,0.19029
1849.40144,0.18509
1851.32991,0.18326
1853.25838,0.18366
1855.18685,0.18345
1857.11532,0.18273
1859.04379,0.18273
1860.97226,0.18257
1862.90072,0.18324
1864.82919,0.18742
1866.75766,0.19393
1868.68613,0.19474
1870.61460,0.18795
1872.54307,0.18263
1874.47154,0.18061
1876.40001,0.18002
1878.32847,0.18097
1880.25694,0.18347
1882.18541,0.18505
1884.11388,0.18484
1886.04235,0.18536
1887.97082,0.18636
1889.89929,0.18600
1891.82775,0.18661
1893.75622,0.18806
1895.68469,0.18617
1897.61316,0.18278
1899.54163,0.18269
1901.47010,0.18478
1903.39857,0.18661
1905.32704,0.18802
1907.25550,0.18885
1909.18397,0.18840
1911.11244,0.18678
1913.04091,0.18676
1914.96938,0.19019
1916.89785,0.19413
1918.82632,0.19435
1920.75478,0.19370
1922.68325,0.19421
1924.61172,0.19083
1926.54019,0.18548
1928.46866,0.18367
1930.39713,0.18437
1932.32560,0.18473
1934.25407,0.18413
1936.18253,0.18378
1938.11100,0.18473
1940.03947,0.18803
1941.96794,0.19168
1943.89641,0.19112
1945.82488,0.18849
1947.75335,0.18742
1949.68181,0.18759
1951.61028,0.18895
1953.53875,0.19115
1955.46722,0.19088
1957.39569,0.18711
1959.32416,0.18491
1961.25263,0.18589
1963.18110,0.18573
1965.10956,0.18440
1967.03803,0.18447
1968.96650,0.18516
1970.89497,0.18586
1972.82344,0.18605
1974.75191,0.18547
1976.68038,0.18404
1978.60884,0.18159
1980.53731,0.18114
1982.46578,0.18244
1984.39425,0.18222
1986.32272,0.18237
1988.25119,0.18492
1990.17966,0.18825
1992.10812,0.18921
1994.03659,0.18692
1995.96506,0.18501
1997.89353,0.18600
1999.82200,0.18816
2001.75047,0.18881
2003.67894,0.18864
2005.60741,0.18829
2007.53587,0.18695
2009.46434,0.18578
2011.39281,0.18615
2013.32128,0.18780
2015.24975,0.18908
2017.17822,0.18924
2019.10669,0.18932
2021.03515,0.18923
2022.96362,0.18731
2024.89209,0.18421
2026.82056,0.18230
2028.74903,0.18181
2030.67750,0.18232
2032.60597,0.18310
2034.53444,0.18352
2036.46290,0.18401
2038.39137,0.18425
2040.31984,0.18477
2042.24831,0.18568
2044.17678,0.18536
2046.10525,0.18410
2048.03372,0.18465
2049.96218,0.18706
2051.89065,0.18843
2053.81912,0.18805
2055.74759,0.18682
2057.67606,0.18577
2059.60453,0.18575
2061.53300,0.18654
2063.46147,0.18725
2065.38993,0.18769
2067.31840,0.18876
2069.24687,0.18936
2071.17534,0.18803
2073.10381,0.18556
2075.03228,0.18308
2076.96075,0.18229
2078.88921,0.18433
2080.81768,0.18821
2082.74615,0.19176
2084.67462,0.19191
2086.60309,0.18906
2088.53156,0.18785
2090.46003,0.18878
2092.38850,0.18829
2094.31696,0.18685
2096.24543,0.18718
2098.17390,0.18876
2100.10237,0.19015
2102.03084,0.18979
2103.95931,0.18637
2105.88778,0.18369
2107.81624,0.18563
2109.74471,0.18960
2111.67318,0.19191
2113.60165,0.19182
2115.53012,0.18976
2117.45859,0.18722
2119.38706,0.18643
2121.31553,0.18899
2123.24399,0.19219
2125.17246,0.19053
2127.10093,0.18681
2129.02940,0.18762
2130.95787,0.19130
2132.88634,0.19212
2134.81481,0.18946
2136.74327,0.18849
2138.67174,0.18928
2140.60021,0.18786
2142.52868,0.18637
2144.45715,0.18699
2146.38562,0.18814
2148.31409,0.18847
2150.24255,0.18750
2152.17102,0.18729
2154.09949,0.18939
2156.02796,0.19041
2157.95643,0.18917
2159.88490,0.18823
2161.81337,0.18828
2163.74184,0.18877
2165.67030,0.18900
2167.59877,0.18928
2169.52724,0.18951
2171.45571,0.18863
2173.38418,0.18777
2175.31265,0.18848
2177.24112,0.19016
2179.16958,0.19130
2181.09805,0.19148
2183.02652,0.19108
2184.95499,0.18902
2186.88346,0.18438
2188.81193,0.18106
2190.74040,0.18323
2192.66887,0.18760
2194.59733,0.18946
2196.52580,0.18889
2198.45427,0.18758
2200.38274,0.18679
2202.31121,0.18709
2204.23968,0.18737
2206.16815,0.18727
2208.09661,0.18862
2210.02508,0.19062
2211.95355,0.19036
2213.88202,0.18807
2215.81049,0.18645
2217.73896,0.18721
2219.66743,0.18931
2221.59590,0.19056
2223.52436,0.19019
2225.45283,0.18951
2227.38130,0.18867
2229.30977,0.18724
2231.23824,0.18747
2233.16671,0.18950
2235.09518,0.19094
2237.02364,0.19088
2238.95211,0.18905
2240.88058,0.18594
2242.80905,0.18420
2244.73752,0.18605
2246.66599,0.18858
2248.59446,0.18842
2250.52293,0.18802
2252.45139,0.19029
2254.37986,0.19246
2256.30833,0.19159
2258.23680,0.19013
2260.16527,0.19072
2262.09374,0.19128
2264.02221,0.18884
2265.95067,0.18618
2267.87914,0.18735
2269.80761,0.19021
2271.73608,0.19284
2273.66455,0.19610
2275.59302,0.19723
2277.52149,0.19464
2279.44996,0.19240
2281.37842,0.19158
2283.30689,0.19020
2285.23536,0.18939
2287.16383,0.19121
2289.09230,0.19486
2291.02077,0.19661
2292.94924,0.19461
2294.87770,0.19247
2296.80617,0.19308
2298.73464,0.19514
2300.66311,0.19625
2302.59158,0.19563
2304.52005,0.19587
2306.44852,0.19747
2308.37699,0.19889
2310.30545,0.20170
2312.23392,0.20615
2314.16239,0.21000
2316.09086,0.21094
2318.01933,0.20992
2319.94780,0.20914
2321.87627,0.21111
2323.80473,0.21760
2325.73320,0.22574
2327.66167,0.23602
2329.59014,0.24109
2331.51861,0.23762
2333.44708,0.23992
2335.37555,0.24452
2337.30401,0.24479
2339.23248,0.24837
2341.16095,0.25022
2343.08942,0.24075
2345.01789,0.22861
2346.94636,0.22117
2348.87483,0.21639
2350.80330,0.21538
2352.73176,0.21896
2354.66023,0.22307
2356.58870,0.22995
2358.51717,0.24549
2360.44564,0.25549
2362.37411,0.24499
2364.30258,0.23084
2366.23104,0.23661
2368.15951,0.25037
2370.08798,0.24749
2372.01645,0.22606
2373.94492,0.20490
2375.87339,0.19865
2377.80186,0.20118
2379.73033,0.20087
2381.65879,0.19703
2383.58726,0.19441
2385.51573,0.19272
2387.44420,0.19022
2389.37267,0.18892
2391.30114,0.18897
2393.22961,0.18880
2395.15807,0.18902
2397.08654,0.18927
2399.01501,0.18847
2400.94348,0.18713
2402.87195,0.18673
2404.80042,0.18795
2406.72889,0.18925
2408.65736,0.19013
2410.58582,0.19155
2412.51429,0.19251
2414.44276,0.19143
2416.37123,0.18868
2418.29970,0.18693
2420.22817,0.18825
2422.15664,0.19098
2424.08510,0.19282
2426.01357,0.19357
2427.94204,0.19282
2429.87051,0.19054
2431.79898,0.18832
2433.72745,0.18826
2435.65592,0.19159
2437.58439,0.19483
2439.51285,0.19430
2441.44132,0.19288
2443.36979,0.19275
2445.29826,0.19230
2447.22673,0.19149
2449.15520,0.19152
2451.08367,0.19239
2453.01213,0.19279
2454.94060,0.19168
2456.86907,0.19105
2458.79754,0.19246
2460.72601,0.19322
2462.65448,0.19131
2464.58295,0.18956
2466.51142,0.19114
2468.43988,0.19467
2470.36835,0.19712
2472.29682,0.19805
2474.22529,0.19857
2476.15376,0.19900
2478.08223,0.19845
2480.01070,0.19628
2481.93916,0.19363
2483.86763,0.19218
2485.79610,0.19153
2487.72457,0.19101
2489.65304,0.19152
2491.58151,0.19297
2493.50998,0.19487
2495.43844,0.19689
2497.36691,0.19785
2499.29538,0.19779
2501.22385,0.19781
2503.15232,0.19776
2505.08079,0.19719
2507.00926,0.19678
2508.93773,0.19722
2510.86619,0.19692
2512.79466,0.19527
2514.72313,0.19472
2516.65160,0.19487
2518.58007,0.19484
2520.50854,0.19507
2522.43701,0.19467
2524.36547,0.19446
2526.29394,0.19538
2528.22241,0.19643
2530.15088,0.19654
2532.07935,0.19529
2534.00782,0.19393
2535.93629,0.19374
2537.86476,0.19426
2539.79322,0.19490
2541.72169,0.19542
2543.65016,0.19525
2545.57863,0.19470
2547.50710,0.19424
2549.43557,0.19410
2551.36404,0.19479
2553.29250,0.19660
2555.22097,0.19844
2557.14944,0.19861
2559.07791,0.19806
2561.00638,0.19746
2562.93485,0.19649
2564.86332,0.19600
2566.79179,0.19573
2568.72025,0.19567
2570.64872,0.19576
2572.57719,0.19559
2574.50566,0.19634
2576.43413,0.19707
2578.36260,0.19587
2580.29107,0.19529
2582.21953,0.19735
2584.14800,0.20000
2586.07647,0.19998
2588.00494,0.19601
2589.93341,0.19273
2591.86188,0.19336
2593.79035,0.19454
2595.71882,0.19443
2597.64728,0.19287
2599.57575,0.19050
2601.50422,0.19093
2603.43269,0.19480
2605.36116,0.19816
2607.28963,0.19905
2609.21810,0.19835
2611.14656,0.19720
2613.07503,0.19739
2615.00350,0.19742
2616.93197,0.19511
2618.86044,0.19457
2620.78891,0.19758
2622.71738,0.19980
2624.64585,0.19970
2626.57431,0.19849
2628.50278,0.19762
2630.43125,0.19834
2632.35972,0.19985
2634.28819,0.20098
2636.21666,0.20132
2638.14513,0.20090
2640.07359,0.20027
2642.00206,0.20044
2643.93053,0.20125
2645.85900,0.20039
2647.78747,0.19780
2649.71594,0.19571
2651.64441,0.19505
2653.57288,0.19556
2655.50134,0.19637
2657.42981,0.19669
2659.35828,0.19600
2661.28675,0.19631
2663.21522,0.19902
2665.14369,0.20010
2667.07216,0.19786
2669.00062,0.19660
2670.92909,0.19806
2672.85756,0.19956
2674.78603,0.19995
2676.71450,0.19958
2678.64297,0.19898
2680.57144,0.20021
2682.49990,0.20324
2684.42837,0.20469
2686.35684,0.20295
2688.28531,0.20024
2690.21378,0.19900
2692.14225,0.19948
2694.07072,0.20129
2695.99919,0.20226
2697.92765,0.20013
2699.85612,0.19798
2701.78459,0.19965
2703.71306,0.20309
2705.64153,0.20467
2707.57000,0.20511
2709.49847,0.20577
2711.42693,0.20474
2713.35540,0.20205
2715.28387,0.19986
2717.21234,0.19892
2719.14081,0.20010
2721.06928,0.20178
2722.99775,0.20153
2724.92622,0.20055
2726.85468,0.20054
2728.78315,0.20274
2730.71162,0.20617
2732.64009,0.20800
2734.56856,0.20816
2736.49703,0.20751
2738.42550,0.20637
2740.35396,0.20509
2742.28243,0.20385
2744.21090,0.20317
2746.13937,0.20390
2748.06784,0.20684
2749.99631,0.21089
2751.92478,0.21251
2753.85325,0.21049
2755.78171,0.20812
2757.71018,0.20721
2759.63865,0.20589
2761.56712,0.20417
2763.49559,0.20316
2765.42406,0.20250
2767.35253,0.20377
2769.28099,0.20726
2771.20946,0.20922
2773.13793,0.20823
2775.06640,0.20639
2776.99487,0.20670
2778.92334,0.21029
2780.85181,0.21329
2782.78028,0.21204
2784.70874,0.20877
2786.63721,0.20786
2788.56568,0.20969
2790.49415,0.21101
2792.42262,0.20975
2794.35109,0.20659
2796.27956,0.20503
2798.20802,0.20646
2800.13649,0.20778
2802.06496,0.20910
2803.99343,0.21106
2805.92190,0.21183
2807.85037,0.21233
2809.77884,0.21290
2811.70731,0.21206
2813.63577,0.20970
2815.56424,0.20745
2817.49271,0.20654
2819.42118,0.20785
2821.34965,0.21100
2823.27812,0.21265
2825.20659,0.21233
2827.13505,0.21169
2829.06352,0.21144
2830.99199,0.21208
2832.92046,0.21352
2834.84893,0.21509
2836.77740,0.21524
2838.70587,0.21373
2840.63433,0.20913
2842.56280,0.20250
2844.49127,0.20042
2846.41974,0.20350
2848.34821,0.20618
2850.27668,0.20716
2852.20515,0.20851
2854.13362,0.21138
2856.06208,0.21642
2857.99055,0.22038
2859.91902,0.21871
2861.84749,0.21301
2863.77596,0.20908
2865.70443,0.20937
2867.63290,0.20938
2869.56136,0.20767
2871.48983,0.20796
2873.41830,0.21024
2875.34677,0.21241
2877.27524,0.21324
2879.20371,0.21358
2881.13218,0.21503
2883.06065,0.21553
2884.98911,0.21388
2886.91758,0.21370
2888.84605,0.21651
2890.77452,0.21806
2892.70299,0.21531
2894.63146,0.21179
2896.55993,0.21106
2898.48839,0.21073
2900.41686,0.20858
2902.34533,0.20629
2904.27380,0.20556
2906.20227,0.20717
2908.13074,0.20884
2910.05921,0.20746
2911.98768,0.20647
2913.91614,0.20763
2915.84461,0.20620
2917.77308,0.20296
2919.70155,0.20327
2921.63002,0.20630
2923.55849,0.20727
2925.48696,0.20470
2927.41542,0.20116
2929.34389,0.20060
2931.27236,0.20404
2933.20083,0.20681
2935.12930,0.20518
2937.05777,0.20326
2938.98624,0.20799
2940.91471,0.21675
2942.84317,0.21948
2944.77164,0.21351
2946.70011,0.20670
2948.62858,0.20669
2950.55705,0.21053
2952.48552,0.21213
2954.41399,0.21080
2956.34245,0.20548
2958.27092,0.19991
2960.19939,0.20202
2962.12786,0.20816
2964.05633,0.21003
2965.98480,0.20781
2967.91327,0.20680
2969.84174,0.21210
2971.77020,0.21938
2973.69867,0.22045
2975.62714,0.21616
2977.55561,0.21044
2979.48408,0.20823
2981.41255,0.21242
2983.34102,0.21674
2985.26948,0.21387
2987.19795,0.20670
2989.12642,0.20622
2991.05489,0.21288
2992.98336,0.21593
2994.91183,0.21446
2996.84030,0.21484
2998.76877,0.21785
3000.69723,0.22128
3002.62570,0.22317
3004.55417,0.22158
3006.48264,0.21720
3008.41111,0.21268
3010.33958,0.20701
3012.26805,0.19517
3014.19651,0.17545
3016.12498,0.16100
3018.05345,0.17269
3019.98192,0.20411
3021.91039,0.22476
3023.83886,0.22573
3025.76733,0.22041
3027.69579,0.21754
3029.62426,0.21741
3031.55273,0.21707
3033.48120,0.21586
3035.40967,0.21586
3037.33814,0.21849
3039.26661,0.22221
3041.19508,0.22217
3043.12354,0.21862
3045.05201,0.21554
3046.98048,0.21393
3048.90895,0.21369
3050.83742,0.21206
3052.76589,0.20794
3054.69436,0.20301
3056.62282,0.19726
3058.55129,0.19644
3060.47976,0.20502
3062.40823,0.21474
3064.33670,0.21646
3066.26517,0.21217
3068.19364,0.21080
3070.12211,0.21370
3072.05057,0.21649
3073.97904,0.21701
3075.90751,0.21393
3077.83598,0.21281
3079.76445,0.21782
3081.69292,0.22087
3083.62139,0.21296
3085.54985,0.20017
3087.47832,0.19785
3089.40679,0.20617
3091.33526,0.21048
3093.26373,0.20388
3095.19220,0.19871
3097.12067,0.20550
3099.04914,0.21322
3100.97760,0.21142
3102.90607,0.20470
3104.83454,0.20312
3106.76301,0.20944
3108.69148,0.21713
3110.61995,0.22048
3112.54842,0.21899
3114.47688,0.21638
3116.40535,0.21634
3118.33382,0.21878
3120.26229,0.21863
3122.19076,0.21530
3124.11923,0.21574
3126.04770,0.21806
3127.97617,0.21584
3129.90463,0.21243
3131.83310,0.21356
3133.76157,0.21857
3135.69004,0.22342
3137.61851,0.22363
3139.54698,0.21918
3141.47545,0.21587
3143.40391,0.21401
3145.33238,0.21127
3147.26085,0.20998
3149.18932,0.21243
3151.11779,0.21984
3153.04626,0.22807
3154.97473,0.22987
3156.90320,0.22449
3158.83166,0.21724
3160.76013,0.21516
3162.68860,0.21869
3164.61707,0.22212
3166.54554,0.22303
3168.47401,0.21966
3170.40248,0.21275
3172.33094,0.21056
3174.25941,0.21728
3176.18788,0.22588
3178.11635,0.22728
3180.04482,0.22335
3181.97329,0.22267
3183.90176,0.22336
3185.83022,0.22022
3187.75869,0.21700
3189.68716,0.21723
3191.61563,0.21889
3193.54410,0.22038
3195.47257,0.22166
3197.40104,0.22126
3199.32951,0.22052
3201.25797,0.22229
3203.18644,0.22454
3205.11491,0.22497
3207.04338,0.22366
3208.97185,0.22078
3210.90032,0.21964
3212.82879,0.22317
3214.75725,0.22596
3216.68572,0.22508
3218.61419,0.22341
3220.54266,0.22021
3222.47113,0.21915
3224.39960,0.22215
3226.32807,0.22325
3228.25654,0.22119
3230.18500,0.21737
3232.11347,0.21492
3234.04194,0.21745
3235.97041,0.22071
3237.89888,0.22187
3239.82735,0.22392
3241.75582,0.22602
3243.68428,0.22353
3245.61275,0.21741
3247.54122,0.21540
3249.46969,0.21893
3251.39816,0.22264
3253.32663,0.22336
3255.25510,0.22129
3257.18357,0.21858
3259.11203,0.21708
3261.04050,0.21746
3262.96897,0.21792
3264.89744,0.21644
3266.82591,0.21424
3268.75438,0.21327
3270.68285,0.21562
3272.61131,0.22125
3274.53978,0.22413
3276.46825,0.22165
3278.39672,0.21973
3280.32519,0.21878
3282.25366,0.21667
3284.18213,0.21748
3286.11060,0.22037
3288.03906,0.22137
3289.96753,0.22162
3291.89600,0.22100
3293.82447,0.21884
3295.75294,0.21756
3297.68141,0.21750
3299.60988,0.21699
3301.53834,0.21506
3303.46681,0.21291
3305.39528,0.21329
3307.32375,0.21699
3309.25222,0.22233
3311.18069,0.22308
3313.10916,0.21667
3315.03763,0.21136
3316.96609,0.21236
3318.89456,0.21603
3320.82303,0.21921
3322.75150,0.22061
3324.67997,0.21997
3326.60844,0.21961
3328.53691,0.22021
3330.46537,0.21931
3332.39384,0.21715
3334.32231,0.21727
3336.25078,0.21842
3338.17925,0.21684
3340.10772,0.21497
3342.03619,0.21745
3343.96466,0.22178
3345.89312,0.21983
3347.82159,0.21322
3349.75006,0.21059
3351.67853,0.21271
3353.60700,0.21717
3355.53547,0.22221
3357.46394,0.22312
3359.39240,0.21823
3361.32087,0.21310
3363.24934,0.21385
3365.17781,0.21998
3367.10628,0.22413
3369.03475,0.22090
3370.96322,0.21611
3372.89168,0.21854
3374.82015,0.22554
3376.74862,0.22859
3378.67709,0.22673
3380.60556,0.22405
3382.53403,0.22251
3384.46250,0.22099
3386.39097,0.21847
3388.31943,0.21647
3390.24790,0.21712
3392.17637,0.21865
3394.10484,0.21621
3396.03331,0.21341
3397.96178,0.21593
3399.89025,0.21663
3401.81871,0.21028
3403.74718,0.20303
3405.67565,0.20136
3407.60412,0.20530
3409.53259,0.20739
3411.46106,0.20572
3413.38953,0.20858
3415.31800,0.21552
3417.24646,0.21930
3419.17493,0.22075
3421.10340,0.22169
3423.03187,0.21979
3424.96034,0.21695
3426.88881,0.21599
3428.81728,0.21631
3430.74574,0.21691
3432.67421,0.21597
3434.60268,0.21249
3436.53115,0.20911
3438.45962,0.20869
3440.38809,0.20952
3442.31656,0.20966
3444.24503,0.21038
3446.17349,0.20911
3448.10196,0.20310
3450.03043,0.19869
3451.95890,0.20152
3453.88737,0.20638
3455.81584,0.20476
3457.74431,0.20014
3459.67277,0.20101
3461.60124,0.20279
3463.52971,0.20018
3465.45818,0.19921
3467.38665,0.20050
3469.31512,0.19885
3471.24359,0.19629
3473.17206,0.19723
3475.10052,0.20248
3477.02899,0.20694
3478.95746,0.20252
3480.88593,0.19295
3482.81440,0.18917
3484.74287,0.19127
3486.67134,0.19215
3488.59980,0.18978
3490.52827,0.18849
3492.45674,0.19112
3494.38521,0.19547
3496.31368,0.19798
3498.24215,0.19838
3500.17062,0.19758
3502.09909,0.19546
3504.02755,0.19465
3505.95602,0.19503
3507.88449,0.19213
3509.81296,0.18669
3511.74143,0.18352
3513.66990,0.18186
3515.59837,0.18124
3517.52683,0.18427
3519.45530,0.18724
3521.38377,0.18621
3523.31224,0.18342
3525.24071,0.18273
3527.16918,0.18656
3529.09765,0.18923
3531.02611,0.18349
3532.95458,0.17576
3534.88305,0.17315
3536.81152,0.17392
3538.73999,0.17559
3540.66846,0.17729
3542.59693,0.17913
3544.52540,0.18037
3546.45386,0.17938
3548.38233,0.17871
3550.31080,0.17913
3552.23927,0.17669
3554.16774,0.17297
3556.09621,0.17192
3558.02468,0.17173
3559.95314,0.17225
3561.88161,0.17460
3563.81008,0.17907
3565.73855,0.18457
3567.66702,0.18260
3569.59549,0.17267
3571.52396,0.16605
3573.45243,0.16510
3575.38089,0.16473
3577.30936,0.16255
3579.23783,0.16161
3581.16630,0.16240
3583.09477,0.16521
3585.02324,0.17056
3586.95171,0.17274
3588.88017,0.16576
3590.80864,0.15831
3592.73711,0.15615
3594.66558,0.15617
3596.59405,0.15415
3598.52252,0.15237
3600.45099,0.15194
3602.37946,0.14931
3604.30792,0.14839
3606.23639,0.15332
3608.16486,0.15744
3610.09333,0.15503
3612.02180,0.15097
3613.95027,0.14906
3615.87874,0.15240
3617.80720,0.16205
3619.73567,0.16897
3621.66414,0.16217
3623.59261,0.15289
3625.52108,0.15407
3627.44955,0.16511
3629.37802,0.16727
3631.30649,0.15560
3633.23495,0.14887
3635.16342,0.14530
3637.09189,0.14080
3639.02036,0.13768
3640.94883,0.13845
3642.87730,0.14345
3644.80577,0.15166
3646.73423,0.16378
3648.66270,0.17430
3650.59117,0.16380
3652.51964,0.14519
3654.44811,0.13545
3656.37658,0.13456
3658.30505,0.13505
3660.23352,0.13250
3662.16198,0.13175
3664.09045,0.13624
3666.01892,0.14484
3667.94739,0.15575
3669.87586,0.16076
3671.80433,0.15384
3673.73280,0.14959
3675.66126,0.14990
3677.58973,0.14676
3679.51820,0.14236
3681.44667,0.14026
3683.37514,0.14154
3685.30361,0.14517
3687.23208,0.15035
3689.16055,0.15441
3691.08901,0.14872
3693.01748,0.13763
3694.94595,0.13014
3696.87442,0.12731
3698.80289,0.13012
3700.73136,0.13710
3702.65983,0.13911
3704.58829,0.13487
3706.51676,0.13325
3708.44523,0.13919
3710.37370,0.15017
3712.30217,0.15136
3714.23064,0.14448
3716.15911,0.14236
3718.08757,0.14242
3720.01604,0.13891
3721.94451,0.13522
3723.87298,0.13678
3725.80145,0.13915
3727.72992,0.14182
3729.65839,0.14807
3731.58686,0.15442
3733.51532,0.15654
3735.44379,0.15735
3737.37226,0.15897
3739.30073,0.15584
3741.22920,0.14932
3743.15767,0.14463
3745.08614,0.14240
3747.01460,0.14119
3748.94307,0.14619
3750.87154,0.15182
3752.80001,0.14061
3754.72848,0.12850
3756.65695,0.12886
3758.58542,0.13684
3760.51389,0.13783
3762.44235,0.13200
3764.37082,0.12761
3766.29929,0.12539
3768.22776,0.12917
3770.15623,0.13444
3772.08470,0.12919
3774.01317,0.12217
3775.94163,0.12262
3777.87010,0.12970
3779.79857,0.13742
3781.72704,0.13683
3783.65551,0.12905
3785.58398,0.12084
3787.51245,0.11903
3789.44092,0.12169
3791.36938,0.12335
3793.29785,0.12657
3795.22632,0.13363
3797.15479,0.13893
3799.08326,0.13877
3801.01173,0.13715
3802.94020,0.13524
3804.86866,0.13402
3806.79713,0.13489
3808.72560,0.13158
3810.65407,0.12322
3812.58254,0.11815
3814.51101,0.12116
3816.43948,0.12615
3818.36795,0.13080
3820.29641,0.14025
3822.22488,0.13659
3824.15335,0.12374
3826.08182,0.11859
3828.01029,0.11688
3829.93876,0.11618
3831.86723,0.11952
3833.79569,0.12677
3835.72416,0.13649
3837.65263,0.14317
3839.58110,0.13607
3841.50957,0.12699
3843.43804,0.12386
3845.36651,0.12084
3847.29498,0.12172
3849.22344,0.13021
3851.15191,0.14271
3853.08038,0.15243
3855.00885,0.15020
3856.93732,0.14099
3858.86579,0.13223
3860.79426,0.12971
3862.72272,0.13205
3864.65119,0.12763
3866.57966,0.11965
3868.50813,0.12120
3870.43660,0.13210
3872.36507,0.13988
3874.29354,0.13417
3876.22200,0.12001
3878.15047,0.11310
3880.07894,0.11507
3882.00741,0.12047
3883.93588,0.12757
3885.86435,0.12888
3887.79282,0.12273
3889.72129,0.11961
3891.64975,0.12203
3893.57822,0.12497
3895.50669,0.12456
3897.43516,0.12179
3899.36363,0.11809
3901.29210,0.11955
3903.22057,0.12701
3905.14903,0.12650
3907.07750,0.11866
3909.00597,0.11346
3910.93444,0.11010
3912.86291,0.10696
3914.79138,0.10479
3916.71985,0.10274
3918.64832,0.10255
3920.57678,0.10621
3922.50525,0.11118
3924.43372,0.11470
3926.36219,0.11465
3928.29066,0.11316
3930.21913,0.11429
3932.14760,0.11721
3934.07606,0.11816
3936.00453,0.11620
3937.93300,0.11250
3939.86147,0.10964
3941.78994,0.11032
3943.71841,0.11187
3945.64688,0.10899
3947.57535,0.10512
3949.50381,0.10365
3951.43228,0.09957
3953.36075,0.09387
3955.28922,0.09484
3957.21769,0.10130
3959.14616,0.10392
3961.07463,0.10263
3963.00309,0.10225
3964.93156,0.10134
3966.86003,0.10010
3968.78850,0.10056
3970.71697,0.10302
3972.64544,0.10654
3974.57391,0.10675
3976.50238,0.10285
3978.43084,0.09925
3980.35931,0.09769
3982.28778,0.09695
3984.21625,0.09741
3986.14472,0.09997
3988.07319,0.10224
3990.00166,0.10251
3991.93012,0.10135
3993.85859,0.09913
3995.78706,0.09597
3997.71553,0.09401
3999.64400,0.09523
4001.57247,0.09649
4003.50094,0.09713
4005.42941,0.09858
4007.35787,0.09825
4009.28634,0.09715
4011.21481,0.09779
4013.14328,0.09793
4015.07175,0.09626
4017.00022,0.09577
4018.92869,0.09951
4020.85715,0.10466
4022.78562,0.10335
4024.71409,0.09472
4026.64256,0.08939
4028.57103,0.09257
4030.49950,0.09573
4032.42797,0.09456
4034.35644,0.09472
4036.28490,0.09521
4038.21337,0.09220
4040.14184,0.08868
4042.07031,0.08859
4043.99878,0.09202
4045.92725,0.09137
4047.85572,0.08681
4049.78418,0.09041
4051.71265,0.09759
4053.64112,0.09391
4055.56959,0.08442
4057.49806,0.08242
4059.42653,0.08783
4061.35500,0.09384
4063.28346,0.09647
4065.21193,0.09489
4067.14040,0.09149
4069.06887,0.09078
4070.99734,0.09178
4072.92581,0.09058
4074.85428,0.08752
4076.78275,0.08235
4078.71121,0.07640
4080.63968,0.07509
4082.56815,0.07959
4084.49662,0.08420
4086.42509,0.08621
4088.35356,0.08797
4090.28203,0.08990
4092.21049,0.09200
4094.13896,0.09128
4096.06743,0.08670
4097.99590,0.08484
4099.92437,0.08745
4101.85284,0.08987
4103.78131,0.08993
4105.70978,0.08695
4107.63824,0.08089
4109.56671,0.07830
4111.49518,0.08322
4113.42365,0.08779
4115.35212,0.08695
4117.28059,0.08496
4119.20906,0.08314
4121.13752,0.08000
4123.06599,0.07721
4124.99446,0.07593
4126.92293,0.07629
4128.85140,0.07825
4130.77987,0.08134
4132.70834,0.08369
4134.63681,0.08113
4136.56527,0.07477
4138.49374,0.07147
4140.42221,0.07227
4142.35068,0.07333
4144.27915,0.07584
4146.20762,0.08024
4148.13609,0.08050
4150.06455,0.07431
4151.99302,0.06751
4153.92149,0.06562
4155.84996,0.06660
4157.77843,0.06746
4159.70690,0.06762
4161.63537,0.06655
4163.56384,0.06522
4165.49230,0.06498
4167.42077,0.06844
4169.34924,0.07298
4171.27771,0.07056
4173.20618,0.06332
4175.13465,0.06054
4177.06312,0.06321
4178.99158,0.06326
4180.92005,0.05880
4182.84852,0.05778
4184.77699,0.06258
4186.70546,0.06828
4188.63393,0.06835
4190.56240,0.06192
4192.49087,0.05684
4194.41933,0.05461
4196.34780,0.05595
4198.27627,0.06383
4200.20474,0.06901
4202.13321,0.06897
4204.06168,0.07158
4205.99015,0.07171
4207.91861,0.06380
4209.84708,0.05658
4211.77555,0.05765
4213.70402,0.06127
4215.63249,0.05973
4217.56096,0.05652
4219.48943,0.05694
4221.41789,0.05890
4223.34636,0.06038
4225.27483,0.06141
4227.20330,0.05811
4229.13177,0.04761
4231.06024,0.04147
4232.98871,0.04729
4234.91718,0.05091
4236.84564,0.04794
4238.77411,0.04930
4240.70258,0.05439
4242.63105,0.05737
4244.55952,0.05971
4246.48799,0.05719
4248.41646,0.04601
4250.34492,0.03754
4252.27339,0.03586
4254.20186,0.03770
4256.13033,0.04366
4258.05880,0.04875
4259.98727,0.04951
4261.91574,0.04920
4263.84421,0.05276
4265.77267,0.05728
4267.70114,0.05446
4269.62961,0.04498
4271.55808,0.03536
4273.48655,0.03049
4275.41502,0.03114
4277.34349,0.03238
4279.27195,0.03332
4281.20042,0.04012
4283.12889,0.04884
4285.05736,0.05241
4286.98583,0.05433
4288.91430,0.05351
4290.84277,0.04609
4292.77124,0.03638
4294.69970,0.02953
4296.62817,0.02756
4298.55664,0.02916
4300.48511,0.03088
4302.41358,0.03426
4304.34205,0.03793
4306.27052,0.03751
4308.19898,0.03923
4310.12745,0.04434
4312.05592,0.04661
4313.98439,0.04834
4315.91286,0.05006
4317.84133,0.04740
4319.76980,0.04268
4321.69827,0.04057
4323.62673,0.04044
4325.55520,0.04118
4327.48367,0.04204
4329.41214,0.03940
4331.34061,0.03304
4333.26908,0.03060
4335.19755,0.03553
4337.12601,0.04147
4339.05448,0.04285
4340.98295,0.04172
4342.91142,0.04272
4344.83989,0.04220
4346.76836,0.03462
4348.69683,0.02543
4350.62530,0.02300
4352.55376,0.02589
4354.48223,0.02721
4356.41070,0.02776
4358.33917,0.02990
4360.26764,0.03012
4362.19611,0.03073
4364.12458,0.03425
4366.05304,0.03533
4367.98151,0.03465
4369.90998,0.03220
4371.83845,0.02530
4373.76692,0.02124
4375.69539,0.02137
4377.62386,0.02051
4379.55232,0.01930
4381.48079,0.01749
4383.40926,0.01709
4385.33773,0.02305
4387.26620,0.02978
4389.19467,0.02612
4391.12314,0.01794
4393.05161,0.01973
4394.98007,0.02775
4396.90854,0.02817
4398.83701,0.02020
4400.76548,0.01565
4402.69395,0.02039
4404.62242,0.02673
4406.55089,0.02756
4408.47935,0.02500
4410.40782,0.02335
4412.33629,0.02426
4414.26476,0.02529
4416.19323,0.02432
4418.12170,0.02150
4420.05017,0.01852
4421.97864,0.02058
4423.90710,0.02542
4425.83557,0.02463
4427.76404,0.01861
4429.69251,0.01120
4431.62098,0.00321
4433.54945,-0.00234
4435.47792,-0.00101
4437.40638,0.00689
4439.33485,0.01434
4441.26332,0.01442
4443.19179,0.01046
4445.12026,0.01000
4447.04873,0.01510
4448.97720,0.02079
4450.90567,0.01723
4452.83413,0.00780
4454.76260,0.00667
4456.69107,0.00911
4458.61954,0.00396
4460.54801,0.00102
4462.47648,0.01078
4464.40495,0.01971
4466.33341,0.01501
4468.26188,0.01078
4470.19035,0.01683
4472.11882,0.01744
4474.04729,0.00887
4475.97576,0.00379
4477.90423,0.00506
4479.83270,0.00881
4481.76116,0.01051
4483.68963,0.00840
4485.61810,0.00685
4487.54657,0.00836
4489.47504,0.00997
4491.40351,0.01035
4493.33198,0.01031
4495.26044,0.00918
4497.18891,0.00676
4499.11738,0.00818
4501.04585,0.01716
4502.97432,0.02249
4504.90279,0.01400
4506.83126,0.00512
4508.75973,0.00884
4510.68819,0.01304
4512.61666,0.00880
4514.54513,0.00405
4516.47360,0.00398
4518.40207,0.00648
4520.33054,0.00559
4522.25901,0.00088
4524.18747,-0.00108
4526.11594,0.00307
4528.04441,0.00763
4529.97288,0.00447
4531.90135,0.00043
4533.82982,0.00553
4535.75829,0.01328
4537.68676,0.01405
4539.61522,0.01007
4541.54369,0.00679
4543.47216,0.00775
4545.40063,0.01382
4547.32910,0.01509
4549.25757,0.00615
4551.18604,-0.00053
4553.11450,0.00160
4555.04297,-0.00019
4556.97144,-0.00717
4558.89991,-0.00603
4560.82838,-0.00066
4562.75685,0.00214
4564.68532,0.00625
4566.61378,0.00829
4568.54225,0.00535
4570.47072,0.00372
4572.39919,0.00305
4574.32766,0.00179
4576.25613,0.00151
4578.18460,-0.00286
4580.11307,-0.00702
4582.04153,-0.00055
4583.97000,0.00878
4585.89847,0.00970
4587.82694,0.00545
4589.75541,0.00123
4591.68388,-0.00570
4593.61235,-0.00981
4595.54081,-0.00311
4597.46928,0.00441
4599.39775,0.00365
4601.32622,0.00078
4603.25469,-0.00084
4605.18316,-0.00144
4607.11163,0.00351
4609.04010,0.00999
4610.96856,0.01159
4612.89703,0.01212
4614.82550,0.01170
4616.75397,0.00908
4618.68244,0.00857
4620.61091,0.00586
4622.53938,0.00030
4624.46784,0.00350
4626.39631,0.01152
4628.32478,0.01481
4630.25325,0.01573
4632.18172,0.01267
4634.11019,0.00194
4636.03866,-0.00722
4637.96713,-0.00328
4639.89559,0.00624
4641.82406,0.00975
4643.75253,0.00848
4645.68100,0.00647
4647.60947,0.00675
4649.53794,0.00738
4651.46641,0.00520
4653.39487,0.00184
4655.32334,-0.00176
4657.25181,-0.00401
4659.18028,-0.00386
4661.10875,-0.00180
4663.03722,0.00420
4664.96569,0.00949
4666.89416,0.00476
4668.82262,-0.00440
4670.75109,-0.00622
4672.67956,-0.00285
4674.60803,0.00180
4676.53650,0.00743
4678.46497,0.00948
4680.39344,0.00767
4682.32190,0.00427
4684.25037,0.00204
4686.17884,0.00491
4688.10731,0.01060
4690.03578,0.01559
4691.96425,0.01853
4693.89272,0.02378
4695.82119,0.03181
4697.74965,0.02759
4699.67812,0.00629
4701.60659,-0.01330
4703.53506,-0.01627
4705.46353,-0.01118
4707.39200,-0.00547
4709.32047,0.00971
4711.24893,0.02251
4713.17740,0.01068
4715.10587,-0.01239
4717.03434,-0.01736
4718.96281,-0.00097
4720.89128,0.01499
4722.81975,0.01762
4724.74821,0.01334
4726.67668,0.00782
4728.60515,0.00453
4730.53362,0.00694
4732.46209,0.00777
4734.39056,0.00435
4736.31903,0.01090
4738.24750,0.02640
4740.17596,0.02806
4742.10443,0.01207
4744.03290,0.00100
4745.96137,0.00212
4747.88984,0.00314
4749.81831,0.00189
4751.74678,0.00228
4753.67524,0.00157
4755.60371,0.00010
4757.53218,0.00631
4759.46065,0.01786
4761.38912,0.02055
4763.31759,0.01481
4765.24606,0.01427
4767.17453,0.01837
4769.10299,0.01407
4771.03146,0.00530
4772.95993,0.00389
4774.88840,0.00767
4776.81687,0.00822
4778.74534,0.00265
4780.67381,-0.00238
4782.60227,-0.00221
4784.53074,-0.00021
4786.45921,0.00038
4788.38768,-0.00009
4790.31615,0.00076
4792.24462,-0.00004
4794.17309,-0.00397
4796.10156,-0.00420
4798.03002,0.00490
4799.95849,0.01996
4801.88696,0.03218
4803.81543,0.03483
4805.74390,0.02869
4807.67237,0.02087
4809.60084,0.01734
4811.52930,0.01815
4813.45777,0.01329
4815.38624,-0.00248
4817.31471,-0.01115
4819.24318,-0.00186
4821.17165,0.00867
4823.10012,0.01060
4825.02859,0.01238
4826.95705,0.01585
4828.88552,0.01522
4830.81399,0.01283
4832.74246,0.01230
4834.67093,0.01306
4836.59940,0.01379
4838.52787,0.01205
4840.45633,0.00630
4842.38480,-0.00368
4844.31327,-0.00886
4846.24174,0.00113
4848.17021,0.01417
4850.09868,0.01683
4852.02715,0.01455
4853.95562,0.00888
4855.88408,0.00019
4857.81255,-0.00133
4859.74102,0.00038
4861.66949,-0.00530
4863.59796,-0.01374
4865.52643,-0.01766
4867.45490,-0.01152
4869.38336,-0.00058
4871.31183,0.00153
4873.24030,-0.00444
4875.16877,-0.00525
4877.09724,-0.00187
4879.02571,-0.01001
4880.95418,-0.02424
4882.88265,-0.01983
4884.81111,0.00096
4886.73958,0.01629
4888.66805,0.01677
4890.59652,0.01290
4892.52499,0.01608
4894.45346,0.02170
4896.38193,0.02288
4898.31039,0.01815
4900.23886,0.00959
4902.16733,0.00504
4904.09580,0.00911
4906.02427,0.01976
4907.95274,0.02843
4909.88121,0.02614
4911.80967,0.01752
4913.73814,0.01203
4915.66661,0.01550
4917.59508,0.02206
4919.52355,0.01729
4921.45202,0.00479
4923.38049,-0.00357
4925.30896,-0.00859
4927.23742,-0.01089
4929.16589,-0.00576
4931.09436,0.00640
4933.02283,0.01939
4934.95130,0.02509
4936.87977,0.01770
4938.80824,0.00406
4940.73670,-0.00439
4942.66517,-0.00317
4944.59364,0.01082
4946.52211,0.02517
4948.45058,0.01821
4950.37905,0.00077
4952.30752,-0.00467
4954.23599,-0.00517
4956.16445,-0.00680
4958.09292,-0.00615
4960.02139,-0.00666
4961.94986,-0.00203
4963.87833,0.00365
4965.80680,-0.00228
4967.73527,-0.00746
4969.66373,-0.00435
4971.59220,0.00084
4973.52067,0.01791
4975.44914,0.04391
4977.37761,0.04799
4979.30608,0.02818
4981.23455,0.01022
4983.16302,0.00270
4985.09148,0.00173
4987.01995,0.00179
4988.94842,0.00075
4990.87689,0.00093
4992.80536,0.00046
4994.73383,-0.00615
4996.66230,-0.01329
4998.59076,-0.00665
5000.51923,0.00575
5002.44770,0.01345
5004.37617,0.02242
5006.30464,0.02974
5008.23311,0.03241
5010.16158,0.03243
5012.09005,0.02951
5014.01851,0.02818
5015.94698,0.02290
5017.87545,0.00853
5019.80392,0.00028
5021.73239,0.00177
5023.66086,0.00483
5025.58933,0.01021
5027.51779,0.01116
5029.44626,0.00535
5031.37473,0.00203
5033.30320,0.00632
5035.23167,0.01376
5037.16014,0.01043
5039.08861,-0.00218
5041.01708,-0.00712
5042.94554,-0.00381
5044.87401,0.00479
5046.80248,0.01980
5048.73095,0.02378
5050.65942,0.00698
5052.58789,-0.01045
5054.51636,-0.01357
5056.44482,-0.00595
5058.37329,-0.00254
5060.30176,-0.00647
5062.23023,-0.00099
5064.15870,0.00633
5066.08717,0.00635
5068.01564,0.01569
5069.94410,0.02611
5071.87257,0.02149
5073.80104,0.01372
5075.72951,0.00827
5077.65798,-0.00043
5079.58645,-0.00610
5081.51492,-0.00530
5083.44339,-0.00580
5085.37185,-0.00587
5087.30032,-0.00068
5089.22879,0.00627
5091.15726,0.01853
5093.08573,0.03275
5095.01420,0.03350
5096.94267,0.02293
5098.87113,0.01543
5100.79960,0.01529
5102.72807,0.02078
5104.65654,0.02798
5106.58501,0.03275
5108.51348,0.03655
5110.44195,0.03440
5112.37042,0.02427
5114.29888,0.01268
5116.22735,0.00053
5118.15582,-0.00274
5120.08429,0.01543
5122.01276,0.04541
5123.94123,0.05224
5125.86970,0.02528
5127.79816,0.00104
5129.72663,-0.00169
5131.65510,0.00657
5133.58357,0.02024
5135.51204,0.03280
5137.44051,0.03579
5139.36898,0.02884
5141.29745,0.01996
5143.22591,0.01703
5145.15438,0.02072
5147.08285,0.02321
5149.01132,0.02582
5150.93979,0.03010
5152.86826,0.01943
5154.79673,0.00255
5156.72519,0.01150
5158.65366,0.03572
5160.58213,0.04803
5162.51060,0.04831
5164.43907,0.03727
5166.36754,0.02199
5168.29601,0.02027
5170.22448,0.03187
5172.15294,0.04014
5174.08141,0.03532
5176.00988,0.02248
5177.93835,0.01562
5179.86682,0.01752
5181.79529,0.01904
5183.72376,0.01969
5185.65222,0.02192
5187.58069,0.02395
5189.50916,0.01800
5191.43763,0.00578
5193.36610,0.00536
5195.29457,0.01528
5197.22304,0.02397
5199.15151,0.03157
5201.07997,0.03259
5203.00844,0.02746
5204.93691,0.03001
5206.86538,0.04008
5208.79385,0.04012
5210.72232,0.03071
5212.65079,0.02281
5214.57925,0.01635
5216.50772,0.01379
5218.43619,0.02114
5220.36466,0.02461
5222.29313,0.02040
5224.22160,0.02451
5226.15007,0.02834
5228.07854,0.02065
5230.00700,0.01346
5231.93547,0.01111
5233.86394,0.00659
5235.79241,0.00791
5237.72088,0.02151
5239.64935,0.02463
5241.57782,0.01217
5243.50628,0.00407
5245.43475,0.00524
5247.36322,0.00526
5249.29169,-0.00199
5251.22016,-0.00224
5253.14863,0.01112
5255.07710,0.02713
5257.00556,0.04349
5258.93403,0.05166
5260.86250,0.03641
5262.79097,0.01337
5264.71944,0.00733
5266.64791,0.01153
5268.57638,0.01972
5270.50485,0.03983
5272.43331,0.06564
5274.36178,0.07709
5276.29025,0.06307
5278.21872,0.03414
5280.14719,0.01645
5282.07566,0.01934
5284.00413,0.02850
5285.93259,0.03625
5287.86106,0.03758
5289.78953,0.02713
5291.71800,0.01705
5293.64647,0.02306
5295.57494,0.04261
5297.50341,0.06824
5299.43188,0.09244
5301.36034,0.09985
5303.28881,0.08748
5305.21728,0.06819
5307.14575,0.04528
5309.07422,0.02600
5311.00269,0.02153
5312.93116,0.02801
5314.85962,0.03272
5316.78809,0.02582
5318.71656,0.02182
5320.64503,0.03743
5322.57350,0.04961
5324.50197,0.03775
5326.43044,0.02401
5328.35891,0.02583
5330.28737,0.03489
5332.21584,0.04077
5334.14431,0.03760
5336.07278,0.03289
5338.00125,0.03470
5339.92972,0.04184
5341.85819,0.05277
5343.78665,0.06962
5345.71512,0.08280
5347.64359,0.07936
5349.57206,0.07489
5351.50053,0.07876
5353.42900,0.07065
5355.35747,0.04709
5357.28594,0.03779
5359.21440,0.04670
5361.14287,0.05707
5363.07134,0.07065
5364.99981,0.08934
5366.92828,0.09601
5368.85675,0.08376
5370.78522,0.05664
5372.71368,0.03319
5374.64215,0.04178
5376.57062,0.07133
5378.49909,0.07666
5380.42756,0.06788
5382.35603,0.06769
5384.28450,0.06765
5386.21297,0.05980
5388.14143,0.05147
5390.06990,0.05926
5391.99837,0.08232
5393.92684,0.09346
5395.85531,0.07410
5397.78378,0.04683
5399.71225,0.04473
5401.64071,0.06337
5403.56918,0.07869
5405.49765,0.07585
5407.42612,0.06285
5409.35459,0.06549
5411.28306,0.07401
5413.21153,0.06568
5415.13999,0.05171
5417.06846,0.04795
5418.99693,0.05795
5420.92540,0.07007
5422.85387,0.06643
5424.78234,0.04999
5426.71081,0.04291
5428.63928,0.05092
5430.56774,0.05400
5432.49621,0.05701
5434.42468,0.07421
5436.35315,0.08722
5438.28162,0.08826
5440.21009,0.08399
5442.13856,0.06890
5444.06702,0.05168
5445.99549,0.04006
5447.92396,0.02580
5449.85243,0.01678
5451.78090,0.02829
5453.70937,0.04913
5455.63784,0.06102
5457.56631,0.05813
5459.49477,0.04922
5461.42324,0.05043
5463.35171,0.05822
5465.28018,0.05099
5467.20865,0.03242
5469.13712,0.02693
5471.06559,0.03498
5472.99405,0.04440
5474.92252,0.05871
5476.85099,0.07475
5478.77946,0.07621
5480.70793,0.06520
5482.63640,0.06248
5484.56487,0.05780
5486.49334,0.03171
5488.42180,0.01276
5490.35027,0.02688
5492.27874,0.05899
5494.20721,0.07497
5496.13568,0.06040
5498.06415,0.03606
5499.99262,0.02511
5501.92108,0.03034
5503.84955,0.04155
5505.77802,0.05914
5507.70649,0.08052
5509.63496,0.08667
5511.56343,0.07853
5513.49190,0.07210
5515.42037,0.06559
5517.34883,0.05300
5519.27730,0.05048
5521.20577,0.07684
5523.13424,0.11020
5525.06271,0.10864
5526.99118,0.07917
5528.91965,0.06295
5530.84811,0.06661
5532.77658,0.06564
5534.70505,0.05436
5536.63352,0.04224
5538.56199,0.04329
5540.49046,0.05338
5542.41893,0.04494
5544.34740,0.02720
5546.27586,0.03527
5548.20433,0.06207
5550.13280,0.07880
5552.06127,0.07606
5553.98974,0.06328
5555.91821,0.06536
5557.84668,0.08086
5559.77514,0.07964
5561.70361,0.05358
5563.63208,0.01943
5565.56055,0.00951
5567.48902,0.02801
5569.41749,0.04959
5571.34596,0.06704
5573.27443,0.07107
5575.20289,0.06947
5577.13136,0.08508
5579.05983,0.10185
5580.98830,0.10620
5582.91677,0.10031
5584.84524,0.08252
5586.77371,0.06682
5588.70217,0.06150
5590.63064,0.05767
5592.55911,0.05722
5594.48758,0.06396
5596.41605,0.06978
5598.34452,0.07330
5600.27299,0.07469
5602.20145,0.07001
5604.12992,0.06654
5606.05839,0.05900
5607.98686,0.03479
5609.91533,0.01572
5611.84380,0.02969
5613.77227,0.05723
5615.70074,0.07139
5617.62920,0.07774
5619.55767,0.07880
5621.48614,0.07365
5623.41461,0.06803
5625.34308,0.06332
5627.27155,0.06189
5629.20002,0.06501
5631.12848,0.06408
5633.05695,0.06358
5634.98542,0.06669
5636.91389,0.05704
5638.84236,0.05154
5640.77083,0.07720
5642.69930,0.11461
5644.62777,0.12010
5646.55623,0.07689
5648.48470,0.03483
5650.41317,0.02693
5652.34164,0.02313
5654.27011,0.02206
5656.19858,0.04328
5658.12705,0.06654
5660.05551,0.06388
5661.98398,0.03843
5663.91245,0.02481
5665.84092,0.04356
5667.76939,0.07697
5669.69786,0.09756
5671.62633,0.09143
5673.55480,0.07384
5675.48326,0.05760
5677.41173,0.03987
5679.34020,0.02167
5681.26867,0.01714
5683.19714,0.04244
5685.12561,0.06651
5687.05408,0.05698
5688.98254,0.04202
5690.91101,0.04496
5692.83948,0.04428
5694.76795,0.03636
5696.69642,0.04002
5698.62489,0.05549
5700.55336,0.07120
5702.48183,0.06989
5704.41029,0.04347
5706.33876,0.01839
5708.26723,0.02686
5710.19570,0.06043
5712.12417,0.08817
5714.05264,0.09922
5715.98111,0.10055
5717.90957,0.10434
5719.83804,0.10338
5721.76651,0.08011
5723.69498,0.05101
5725.62345,0.04545
5727.55192,0.06314
5729.48039,0.08247
5731.40886,0.10039
5733.33732,0.12040
5735.26579,0.11966
5737.19426,0.09134
5739.12273,0.07638
5741.05120,0.09340
5742.97967,0.10328
5744.90814,0.08371
5746.83660,0.07341
5748.76507,0.09520
5750.69354,0.10848
5752.62201,0.09072
5754.55048,0.06130
5756.47895,0.03651
5758.40742,0.04419
5760.33588,0.08221
5762.26435,0.09551
5764.19282,0.07020
5766.12129,0.05065
5768.04976,0.05032
5769.97823,0.05313
5771.90670,0.06257
5773.83517,0.08008
5775.76363,0.07852
5777.69210,0.06634
5779.62057,0.07905
5781.54904,0.09228
5783.47751,0.07472
5785.40598,0.04507
5787.33445,0.03448
5789.26291,0.04240
5791.19138,0.04283
5793.11985,0.02840
5795.04832,0.00671
5796.97679,0.00536
5798.90526,0.04464
5800.83373,0.08854
5802.76220,0.10109
5804.69066,0.08680
5806.61913,0.06312
5808.54760,0.05119
5810.47607,0.05761
5812.40454,0.06141
5814.33301,0.06621
5816.26148,0.08973
5818.18994,0.10989
5820.11841,0.10853
5822.04688,0.08659
5823.97535,0.05613
5825.90382,0.05676
5827.83229,0.08865
5829.76076,0.09889
5831.68923,0.08156
5833.61769,0.07298
5835.54616,0.08271
5837.47463,0.10995
5839.40310,0.13607
5841.33157,0.12777
5843.26004,0.10110
5845.18851,0.09283
5847.11697,0.10216
5849.04544,0.11393
5850.97391,0.10872
5852.90238,0.08290
5854.83085,0.06856
5856.75932,0.07549
5858.68779,0.06441
5860.61626,0.03432
5862.54472,0.02957
5864.47319,0.04141
5866.40166,0.04035
5868.33013,0.03802
5870.25860,0.04360
5872.18707,0.04932
5874.11554,0.05159
5876.04400,0.05907
5877.97247,0.07782
5879.90094,0.10021
5881.82941,0.10554
5883.75788,0.08864
5885.68635,0.07664
5887.61482,0.06828
5889.54329,0.05640
5891.47175,0.06979
5893.40022,0.10178
5895.32869,0.10528
5897.25716,0.07726
5899.18563,0.06279
5901.11410,0.06378
5903.04257,0.04681
5904.97103,0.01917
5906.89950,0.01372
5908.82797,0.05070
5910.75644,0.09981
5912.68491,0.10668
5914.61338,0.08855
5916.54185,0.08854
5918.47032,0.10209
5920.39878,0.11196
5922.32725,0.10061
5924.25572,0.08615
5926.18419,0.10340
5928.11266,0.13118
5930.04113,0.13959
5931.96960,0.14614
5933.89806,0.15727
5935.82653,0.13370
5937.75500,0.08269
5939.68347,0.05432
5941.61194,0.05845
5943.54041,0.06378
5945.46888,0.04611
5947.39734,0.03711
5949.32581,0.07721
5951.25428,0.12969
5953.18275,0.11600
5955.11122,0.05611
5957.03969,0.03423
5958.96816,0.04708
5960.89663,0.04741
5962.82509,0.04585
5964.75356,0.05989
5966.68203,0.08167
5968.61050,0.09439
5970.53897,0.08367
5972.46744,0.07550
5974.39591,0.09790
5976.32437,0.11082
5978.25284,0.08152
5980.18131,0.04602
5982.10978,0.04149
5984.03825,0.05458
5985.96672,0.05576
5987.89519,0.04367
5989.82366,0.04176
5991.75212,0.04280
5993.68059,0.02511
5995.60906,0.01439
5997.53753,0.02327
5999.46600,0.02591
6001.39447,0.02547
6003.32294,0.04273
6005.25140,0.07877
6007.17987,0.11584
6009.10834,0.12724
6011.03681,0.09187
6012.96528,0.04463
6014.89375,0.03014
6016.82222,0.02361
6018.75069,0.01840
6020.67915,0.06442
6022.60762,0.12257
6024.53609,0.12620
6026.46456,0.10003
6028.39303,0.08226
6030.32150,0.08706
6032.24997,0.10893
6034.17843,0.12594
6036.10690,0.12645
6038.03537,0.11710
6039.96384,0.12076
6041.89231,0.12420
6043.82078,0.08892
6045.74925,0.04541
6047.67772,0.04409
6049.60618,0.07443
6051.53465,0.08374
6053.46312,0.06313
6055.39159,0.06501
6057.32006,0.09821
6059.24853,0.10792
6061.17700,0.09234
6063.10546,0.09612
6065.03393,0.10994
6066.96240,0.09379
6068.89087,0.07403
6070.81934,0.09275
6072.74781,0.12270
6074.67628,0.10881
6076.60475,0.07225
6078.53321,0.08367
6080.46168,0.11843
6082.39015,0.11178
6084.31862,0.06869
6086.24709,0.01375
6088.17556,-0.00881
6090.10403,0.02191
6092.03249,0.03830
6093.96096,0.02698
6095.88943,0.07094
6097.81790,0.13917
6099.74637,0.13224
6101.67484,0.09018
6103.60331,0.09332
6105.53177,0.12718
6107.46024,0.14953
6109.38871,0.13367
6111.31718,0.08586
6113.24565,0.04298
6115.17412,0.03290
6117.10259,0.04900
6119.03106,0.06639
6120.95952,0.09180
6122.88799,0.13974
6124.81646,0.17869
6126.74493,0.17277
6128.67340,0.13359
6130.60187,0.08442
6132.53034,0.05351
6134.45880,0.06937
6136.38727,0.10190
6138.31574,0.11151
6140.24421,0.09402
6142.17268,0.07312
6144.10115,0.07015
6146.02962,0.05785
6147.95809,0.03467
6149.88655,0.03746
6151.81502,0.05582
6153.74349,0.04805
6155.67196,0.03433
6157.60043,0.03755
6159.52890,0.03432
6161.45737,0.04914
6163.38583,0.09378
6165.31430,0.10338
6167.24277,0.08362
6169.17124,0.06906
6171.09971,0.04029
6173.02818,0.01454
6174.95665,0.01597
6176.88512,0.03248
6178.81358,0.05642
6180.74205,0.06264
6182.67052,0.05735
6184.59899,0.07092
6186.52746,0.08688
6188.45593,0.10621
6190.38440,0.13868
6192.31286,0.13066
6194.24133,0.05851
6196.16980,-0.00292
6198.09827,0.01385
6200.02674,0.05512
6201.95521,0.05084
6203.88368,0.03219
6205.81215,0.04648
6207.74061,0.07705
6209.66908,0.08075
6211.59755,0.04828
6213.52602,0.04683
6215.45449,0.08209
6217.38296,0.08970
6219.31143,0.05867
6221.23989,0.02721
6223.16836,0.02685
6225.09683,0.03242
6227.02530,0.00917
6228.95377,-0.01207
6230.88224,0.02553
6232.81071,0.09789
6234.73918,0.09250
6236.66764,0.04141
6238.59611,0.04145
6240.52458,0.06734
6242.45305,0.07211
6244.38152,0.06954
6246.30999,0.08050
6248.23846,0.08068
6250.16692,0.04578
6252.09539,0.02332
6254.02386,0.02836
6255.95233,0.01916
6257.88080,-0.00743
6259.80927,-0.04820
6261.73774,-0.07739
6263.66621,-0.04839
6265.59467,0.00280
6267.52314,0.00552
6269.45161,-0.01284
6271.38008,0.00413
6273.30855,0.04147
6275.23702,0.06737
6277.16549,0.07807
6279.09395,0.04718
6281.02242,0.00724
6282.95089,0.03074
6284.87936,0.08702
6286.80783,0.12159
6288.73630,0.14383
6290.66477,0.15124
6292.59323,0.12999
6294.52170,0.09505
6296.45017,0.08067
6298.37864,0.09261
6300.30711,0.09397
6302.23558,0.07890
6304.16405,0.08750
6306.09252,0.11474
6308.02098,0.11256
6309.94945,0.08685
6311.87792,0.05835
6313.80639,0.00451
6315.73486,-0.02389
6317.66333,0.01966
6319.59180,0.05227
6321.52026,0.03195
6323.44873,0.03564
6325.37720,0.07915
6327.30567,0.09164
6329.23414,0.03822
6331.16261,-0.01882
6333.09108,-0.00151
6335.01955,0.04839
6336.94801,0.06301
6338.87648,0.04533
6340.80495,0.02821
6342.73342,0.03917
6344.66189,0.06613
6346.59036,0.09113
6348.51883,0.12698
6350.44729,0.17268
6352.37576,0.17903
6354.30423,0.14104
6356.23270,0.11060
6358.16117,0.10412
6360.08964,0.09691
6362.01811,0.07513
6363.94658,0.04611
6365.87504,0.00667
6367.80351,-0.01198
6369.73198,-0.00066
6371.66045,0.00517
6373.58892,0.03942
6375.51739,0.09008
6377.44586,0.09143
6379.37432,0.07726
6381.30279,0.10144
6383.23126,0.12808
6385.15973,0.10654
6387.08820,0.06071
6389.01667,0.01973
6390.94514,0.02188
6392.87361,0.06384
6394.80207,0.08314
6396.73054,0.07523
6398.65901,0.04993
6400.58748,0.02213
6402.51595,0.05184
6404.44442,0.13522
6406.37289,0.15617
6408.30135,0.07006
6410.22982,-0.00222
6412.15829,0.00388
6414.08676,0.03040
6416.01523,0.01574
6417.94370,-0.01470
6419.87217,0.04158
6421.80064,0.15361
6423.72910,0.17035
6425.65757,0.07886
6427.58604,0.02465
6429.51451,0.03759
6431.44298,0.05721
6433.37145,0.07511
6435.29992,0.08340
6437.22838,0.06353
6439.15685,0.01649
6441.08532,0.00355
6443.01379,0.05615
6444.94226,0.07373
6446.87073,0.01276
6448.79920,-0.02182
6450.72766,0.00080
6452.65613,0.01026
6454.58460,0.01418
6456.51307,0.04988
6458.44154,0.08458
6460.37001,0.08220
6462.29848,0.06758
6464.22695,0.04758
6466.15541,-0.01353
6468.08388,-0.05271
6470.01235,-0.01983
6471.94082,-0.00096
6473.86929,0.00493
6475.79776,0.04797
6477.72623,0.09116
6479.65469,0.13862
6481.58316,0.19530
6483.51163,0.17651
6485.44010,0.10534
6487.36857,0.05442
6489.29704,0.01123
6491.22551,-0.00629
6493.15398,0.03016
6495.08244,0.05034
6497.01091,0.03000
6498.93938,0.03188
6500.86785,0.05055
6502.79632,0.02962
6504.72479,0.00870
6506.65326,0.03426
6508.58172,0.09716
6510.51019,0.15083
6512.43866,0.14182
6514.36713,0.10191
6516.29560,0.07376
6518.22407,0.06429
6520.15254,0.05861
6522.08101,0.02153
6524.00947,-0.00834
6525.93794,0.02451
6527.86641,0.06727
6529.79488,0.06198
6531.72335,0.02683
6533.65182,0.01628
6535.58029,0.02410
6537.50875,0.00986
6539.43722,-0.02267
6541.36569,-0.07022
6543.29416,-0.11983
6545.22263,-0.13902
6547.15110,-0.12815
6549.07957,-0.06043
6551.00804,0.05461
6552.93650,0.12366
6554.86497,0.12629
6556.79344,0.07243
6558.72191,0.01109
6560.65038,0.01557
6562.57885,0.06737
6564.50732,0.10839
6566.43578,0.08025
6568.36425,0.02554
6570.29272,0.03528
6572.22119,0.06528
6574.14966,0.06570
6576.07813,0.07872
6578.00660,0.09694
6579.93507,0.03832
6581.86353,-0.07399
6583.79200,-0.08973
6585.72047,0.01580
6587.64894,0.11520
6589.57741,0.13989
6591.50588,0.10628
6593.43435,0.04391
6595.36281,-0.00677
6597.29128,-0.01051
6599.21975,0.01689
6601.14822,0.01922
6603.07669,-0.03329
6605.00516,-0.09332
6606.93363,-0.08288
6608.86210,0.00569
6610.79056,0.08942
6612.71903,0.11704
6614.64750,0.07657
6616.57597,0.00696
6618.50444,0.00226
6620.43291,0.04313
6622.36138,0.05668
6624.28984,0.06516
6626.21831,0.09504
6628.14678,0.12696
6630.07525,0.11727
6632.00372,0.04215
6633.93219,-0.01204
6635.86066,0.01368
6637.78912,0.07658
6639.71759,0.15826
6641.64606,0.22989
6643.57453,0.23399
6645.50300,0.16421
6647.43147,0.05337
6649.35994,-0.03079
6651.28841,-0.05534
6653.21687,-0.05729
6655.14534,-0.06752
6657.07381,-0.05708
6659.00228,0.01779
6660.93075,0.12171
6662.85922,0.16227
6664.78769,0.12753
6666.71615,0.09310
6668.64462,0.11109
6670.57309,0.15447
6672.50156,0.13756
6674.43003,0.06470
6676.35850,0.02736
6678.28697,0.02737
6680.21544,0.04639
6682.14390,0.07698
6684.07237,0.07718
6686.00084,0.04679
6687.92931,0.05542
6689.85778,0.10823
6691.78625,0.12533
6693.71472,0.07725
6695.64318,-0.01979
6697.57165,-0.08389
6699.50012,-0.06046
6701.42859,0.00345
6703.35706,0.03909
6705.28553,-0.00571
6707.21400,-0.03802
6709.14247,0.03147
6711.07093,0.07998
6712.99940,0.04616
6714.92787,-0.00052
6716.85634,-0.03494
6718.78481,-0.06980
6720.71328,-0.09500
6722.64175,-0.06463
6724.57021,0.04254
6726.49868,0.11663
6728.42715,0.11702
6730.35562,0.12943
6732.28409,0.14782
6734.21256,0.13402
6736.14103,0.12880
6738.06950,0.09910
6739.99796,0.02056
6741.92643,0.00677
6743.85490,0.07818
6745.78337,0.12294
6747.71184,0.10382
6749.64031,0.06886
6751.56878,0.04824
6753.49724,0.01526
6755.42571,0.00719
6757.35418,0.04391
6759.28265,0.05010
6761.21112,0.01128
6763.13959,0.01401
6765.06806,0.06301
6766.99653,0.09373
6768.92499,0.07788
6770.85346,0.01898
6772.78193,-0.04375
6774.71040,-0.04714
6776.63887,-0.00166
6778.56734,0.01460
6780.49581,0.01056
6782.42427,0.02060
6784.35274,0.02794
6786.28121,0.03079
6788.20968,0.04589
6790.13815,0.05860
6792.06662,0.06181
6793.99509,0.06783
6795.92355,0.08038
6797.85202,0.09238
6799.78049,0.07763
6801.70896,0.02456
6803.63743,0.00620
6805.56590,0.03541
6807.49437,0.04367
6809.42284,0.05141
6811.35130,0.08513
6813.27977,0.11638
6815.20824,0.11345
6817.13671,0.04354
6819.06518,-0.05418
6820.99365,-0.08519
6822.92212,0.02341
6824.85058,0.13242
6826.77905,0.08712
6828.70752,-0.02846
6830.63599,-0.06666
6832.56446,-0.01267
6834.49293,0.03389
6836.42140,0.02031
6838.34987,-0.01132
6840.27833,-0.02694
6842.20680,0.00235
6844.13527,0.10118
6846.06374,0.17638
6847.99221,0.11522
6849.92068,-0.01165
6851.84915,-0.09782
6853.77761,-0.14508
6855.70608,-0.09028
6857.63455,0.03276
6859.56302,0.07976
6861.49149,0.02892
6863.41996,-0.02730
6865.34843,-0.02139
6867.27690,0.00028
6869.20536,0.01626
6871.13383,0.06776
6873.06230,0.10147
6874.99077,0.05250
6876.91924,0.00498
6878.84771,0.01508
6880.77618,0.04562
6882.70464,0.07798
6884.63311,0.11385
6886.56158,0.13382
6888.49005,0.14514
6890.41852,0.15160
6892.34699,0.14596
6894.27546,0.13758
6896.20393,0.12735
6898.13239,0.11909
6900.06086,0.12633
6901.98933,0.14897
6903.91780,0.13007
6905.84627,0.05073
6907.77474,0.03859
6909.70321,0.10977
6911.63167,0.14134
6913.56014,0.09933
6915.48861,0.05489
6917.41708,0.03224
6919.34555,0.00406
6921.27402,0.00078
6923.20249,0.05086
6925.13096,0.10411
6927.05942,0.12737
6928.98789,0.11456
6930.91636,0.05552
6932.84483,-0.01661
6934.77330,-0.01822
6936.70177,0.06903
6938.63024,0.15969
6940.55870,0.15087
6942.48717,0.07008
6944.41564,0.01309
6946.34411,0.01734
6948.27258,0.05623
6950.20105,0.07462
6952.12952,0.03883
6954.05799,-0.03845
6955.98645,-0.05048
6957.91492,0.03609
6959.84339,0.10108
6961.77186,0.08733
6963.70033,0.03149
6965.62880,-0.03280
6967.55727,-0.06647
6969.48573,-0.04159
6971.41420,0.03598
6973.34267,0.13502
6975.27114,0.17058
6977.19961,0.14969
6979.12808,0.16276
6981.05655,0.19326
6982.98501,0.19566
6984.91348,0.17663
6986.84195,0.12993
6988.77042,0.10292
6990.69889,0.16004
6992.62736,0.20823
6994.55583,0.15990
6996.48430,0.09369
6998.41276,0.08120
7000.34123,0.00452
7002.26970,-0.10480
7004.19817,-0.06359
7006.12664,0.04808
7008.05511,0.04708
7009.98358,0.00392
7011.91204,0.04873
7013.84051,0.14713
7015.76898,0.20175
7017.69745,0.21501
7019.62592,0.16818
7021.55439,0.04945
7023.48286,-0.04287
7025.41133,-0.06109
7027.33979,-0.05090
7029.26826,-0.03248
7031.19673,-0.01099
7033.12520,0.02984
7035.05367,0.05498
7036.98214,0.02928
7038.91061,-0.02849
7040.83907,-0.07451
7042.76754,-0.02771
7044.69601,0.10805
7046.62448,0.18032
7048.55295,0.14355
7050.48142,0.05960
7052.40989,-0.00107
7054.33836,-0.00548
7056.26682,-0.02006
7058.19529,-0.08743
7060.12376,-0.07120
7062.05223,-0.01619
7063.98070,-0.04557
7065.90917,-0.06444
7067.83764,-0.02581
7069.76610,0.03320
7071.69457,0.10337
7073.62304,0.14423
7075.55151,0.10631
7077.47998,0.02028
7079.40845,-0.00129
7081.33692,0.09310
7083.26539,0.10048
7085.19385,-0.03239
7087.12232,-0.12723
7089.05079,-0.14794
7090.97926,-0.16905
7092.90773,-0.12418
7094.83620,-0.00541
7096.76467,0.10054
7098.69313,0.18370
7100.62160,0.16730
7102.55007,0.09436
7104.47854,0.08709
7106.40701,0.13733
7108.33548,0.17878
7110.26395,0.22419
7112.19242,0.26655
7114.12088,0.20765
7116.04935,0.04511
7117.97782,-0.08223
7119.90629,-0.11803
7121.83476,-0.11676
7123.76323,-0.07903
7125.69170,-0.07177
7127.62016,-0.12427
7129.54863,-0.10944
7131.47710,0.02638
7133.40557,0.16866
7135.33404,0.17650
7137.26251,0.08106
7139.19098,0.03919
7141.11944,0.13223
7143.04791,0.26404
7144.97638,0.27809
7146.90485,0.17261
7148.83332,0.05392
7150.76179,0.01486
7152.69026,0.11733
7154.61873,0.18188
7156.54719,0.06590
7158.47566,-0.01710
7160.40413,0.06072
7162.33260,0.15764
7164.26107,0.13503
7166.18954,0.07041
7168.11801,0.08253
7170.04647,0.10879
7171.97494,0.13634
7173.90341,0.17694
7175.83188,0.09118
7177.76035,-0.03765
7179.68882,-0.07173
7181.61729,-0.07525
7183.54576,-0.04428
7185.47422,-0.00454
7187.40269,0.05642
7189.33116,0.18620
7191.25963,0.23343
7193.18810,0.11775
7195.11657,-0.01511
7197.04504,-0.14278
7198.97350,-0.19932
7200.90197,-0.15044
7202.83044,-0.07909
7204.75891,0.00863
7206.68738,0.09049
7208.61585,0.13016
7210.54432,0.19130
7212.47279,0.24889
7214.40125,0.20040
7216.32972,0.08000
7218.25819,0.02653
7220.18666,0.01909
7222.11513,-0.00810
7224.04360,-0.04151
7225.97207,-0.03297
7227.90053,-0.00326
7229.82900,-0.02079
7231.75747,-0.02614
7233.68594,0.04756
7235.61441,0.13313
7237.54288,0.16248
7239.47135,0.13711
7241.39982,0.07439
7243.32828,-0.01966
7245.25675,-0.03517
7247.18522,0.04873
7249.11369,0.12347
7251.04216,0.07002
7252.97063,-0.03988
7254.89910,0.05010
7256.82756,0.17799
7258.75603,0.14915
7260.68450,0.02069
7262.61297,-0.07093
7264.54144,-0.10864
7266.46991,-0.02052
7268.39838,0.12025
7270.32685,0.13737
7272.25531,0.04123
7274.18378,0.00549
7276.11225,0.05695
7278.04072,0.13995
7279.96919,0.16282
7281.89766,0.02217
7283.82613,-0.19439
7285.75459,-0.26731
7287.68306,-0.13069
7289.61153,0.05867
7291.54000,0.12083
7293.46847,0.05105
7295.39694,0.00902
7297.32541,0.02205
7299.25387,0.04509
7301.18234,0.08643
7303.11081,0.07324
7305.03928,-0.07536
7306.96775,-0.19338
7308.89622,-0.03830
7310.82469,0.10202
7312.75316,-0.00406
7314.68162,-0.15483
7316.61009,-0.27360
7318.53856,-0.27931
7320.46703,-0.06206
7322.39550,0.24270
7324.32397,0.35558
7326.25244,0.31412
7328.18090,0.33467
7330.10937,0.35089
7332.03784,0.20407
7333.96631,0.05127
7335.89478,0.01194
7337.82325,-0.01602
7339.75172,-0.08189
7341.68019,-0.01687
7343.60865,0.15938
7345.53712,0.30941
7347.46559,0.31843
7349.39406,0.21487
7351.32253,0.14789
7353.25100,0.09134
7355.17947,-0.01106
7357.10793,-0.11766
7359.03640,-0.11182
7360.96487,0.02037
7362.89334,0.10846
7364.82181,0.11957
7366.75028,0.07360
7368.67875,-0.02231
7370.60722,-0.07264
7372.53568,0.00923
7374.46415,0.22389
7376.39262,0.21929
7378.32109,-0.07376
7380.24956,-0.26473
7382.17803,-0.20008
7384.10650,-0.02081
7386.03496,-0.00943
7387.96343,-0.18575
7389.89190,-0.21356
7391.82037,-0.01842
7393.74884,0.20380
7395.67731,0.27200
7397.60578,0.16191
7399.53425,0.02918
7401.46271,-0.03444
7403.39118,0.00039
7405.31965,0.15267
7407.24812,0.22196
7409.17659,0.15164
7411.10506,0.11604
7413.03353,0.07510
7414.96199,-0.03747
7416.89046,-0.07855
7418.81893,0.10886
7420.74740,0.35451
7422.67587,0.35778
7424.60434,0.19209
7426.53281,0.06650
7428.46128,0.03534
7430.38974,-0.00040
7432.31821,-0.08492
7434.24668,-0.13449
7436.17515,-0.13538
7438.10362,-0.08250
7440.03209,0.04904
7441.96056,0.11381
7443.88902,0.07279
7445.81749,0.06946
7447.74596,0.08931
7449.67443,0.09773
7451.60290,0.11542
7453.53137,0.09583
7455.45984,0.08634
7457.38831,0.18419
7459.31677,0.32797
7461.24524,0.30717
7463.17371,0.18397
7465.10218,0.09020
7467.03065,0.02733
7468.95912,0.04134
7470.88759,0.11306
7472.81605,0.12477
7474.74452,0.11299
7476.67299,0.13637
7478.60146,0.17269
7480.52993,0.18301
7482.45840,-0.00168
7484.38687,-0.23755
7486.31533,-0.21394
7488.24380,-0.04586
7490.17227,0.04379
7492.10074,0.04671
7494.02921,0.00813
7495.95768,0.03836
7497.88615,0.20731
