399.19301,-1.38462
401.12148,-0.49434
403.04995,0.01079
404.97842,0.15357
406.90689,0.18520
408.83536,0.23089
410.76382,0.20909
412.69229,0.19457
414.62076,0.23348
416.54923,0.22668
418.47770,0.22992
420.40617,0.34282
422.33464,0.40915
424.26311,0.36959
426.19157,0.23657
428.12004,0.07626
430.04851,0.00479
431.97698,0.07596
433.90545,0.11108
435.83392,0.08142
437.76239,0.08592
439.69085,0.09293
441.61932,0.04835
443.54779,0.03449
445.47626,0.12062
447.40473,0.20004
449.33320,0.19639
451.26167,0.16753
453.19013,0.14103
455.11860,0.10247
457.04707,0.08215
458.97554,0.07861
460.90401,0.06792
462.83248,0.04351
464.76095,-0.00452
466.68942,-0.00988
468.61788,0.07177
470.54635,0.18926
472.47482,0.25393
474.40329,0.17550
476.33176,0.09994
478.26023,0.09386
480.18870,0.10512
482.11716,0.11368
484.04563,0.09904
485.97410,0.06904
487.90257,0.07236
489.83104,0.13471
491.75951,0.19509
493.68798,0.19307
495.61645,0.14250
497.54491,0.08040
499.47338,0.03831
501.40185,0.04475
503.33032,0.10151
505.25879,0.13877
507.18726,0.12177
509.11573,0.08970
511.04419,0.05809
512.97266,0.05266
514.90113,0.09178
516.82960,0.09972
518.75807,0.06856
520.68654,0.07094
522.61501,0.08445
524.54348,0.09185
526.47194,0.09774
528.40041,0.07180
530.32888,0.03147
532.25735,0.02713
534.18582,0.06909
536.11429,0.11766
538.04276,0.12622
539.97122,0.09762
541.89969,0.07095
543.82816,0.07194
545.75663,0.08861
547.68510,0.08851
549.61357,0.11252
551.54204,0.32097
553.47051,0.56416
555.39897,0.46897
557.32744,0.18799
559.25591,0.07892
561.18438,0.09057
563.11285,0.11276
565.04132,0.12672
566.96979,0.11238
568.89825,0.07924
570.82672,0.06172
572.75519,0.07494
574.68366,0.09409
576.61213,0.09685
578.54060,0.08344
580.46907,0.06697
582.39754,0.07193
584.32600,0.10134
586.25447,0.11611
588.18294,0.10464
590.11141,0.10079
592.03988,0.09596
593.96835,0.05657
595.89682,0.01253
597.82528,0.01118
599.75375,0.03930
601.68222,0.05936
603.61069,0.06206
605.53916,0.05988
607.46763,0.06045
609.39610,0.06239
611.32456,0.07355
613.25303,0.09619
615.18150,0.11654
617.10997,0.12385
619.03844,0.11475
620.96691,0.09887
622.89538,0.08926
624.82385,0.08145
626.75231,0.07173
628.68078,0.06978
630.60925,0.07893
632.53772,0.08270
634.46619,0.07289
636.39466,0.06540
638.32313,0.05882
640.25159,0.05142
642.18006,0.05842
644.10853,0.07121
646.03700,0.07186
647.96547,0.06407
649.89394,0.05777
651.82241,0.05338
653.75088,0.05444
655.67934,0.06514
657.60781,0.07802
659.53628,0.08816
661.46475,0.10165
663.39322,0.11811
665.32169,0.12370
667.25016,0.10734
669.17862,0.09446
671.10709,0.10970
673.03556,0.11308
674.96403,0.10300
676.89250,0.09527
678.82097,0.08215
680.74944,0.07239
682.67791,0.08350
684.60637,0.09813
686.53484,0.10101
688.46331,0.10119
690.39178,0.09434
692.32025,0.07733
694.24872,0.07409
696.17719,0.08576
698.10565,0.09166
700.03412,0.09141
701.96259,0.09340
703.89106,0.10196
705.81953,0.11063
707.74800,0.10975
709.67647,0.10878
711.60494,0.11606
713.53340,0.12115
715.46187,0.11828
717.39034,0.11143
719.31881,0.09998
721.24728,0.08879
723.17575,0.09042
725.10422,0.10134
727.03268,0.10614
728.96115,0.09698
730.88962,0.08495
732.81809,0.09051
734.74656,0.10327
736.67503,0.10054
738.60350,0.08969
740.53197,0.08014
742.46043,0.07136
744.38890,0.06914
746.31737,0.07914
748.24584,0.09613
750.17431,0.10717
752.10278,0.10428
754.03125,0.09194
755.95971,0.08029
757.88818,0.07344
759.81665,0.07465
761.74512,0.08905
763.67359,0.10194
765.60206,0.09321
767.53053,0.07487
769.45900,0.07401
771.38746,0.09285
773.31593,0.10731
775.24440,0.10559
777.17287,0.10113
779.10134,0.10678
781.02981,0.11632
782.95828,0.11556
784.88674,0.10848
786.81521,0.10114
788.74368,0.08976
790.67215,0.08163
792.60062,0.08194
794.52909,0.08704
796.45756,0.09564
798.38602,0.10549
800.31449,0.11169
802.24296,0.11342
804.17143,0.10934
806.09990,0.09917
808.02837,0.09378
809.95684,0.09814
811.88531,0.10613
813.81377,0.11122
815.74224,0.10667
817.67071,0.09681
819.59918,0.09528
821.52765,0.10289
823.45612,0.10500
825.38459,0.09318
827.31305,0.08162
829.24152,0.08647
831.16999,0.10050
833.09846,0.11018
835.02693,0.11077
836.95540,0.10822
838.88387,0.11131
840.81234,0.11529
842.74080,0.11263
844.66927,0.10724
846.59774,0.10435
848.52621,0.10285
850.45468,0.10484
852.38315,0.11029
854.31162,0.11183
856.24008,0.10781
858.16855,0.09994
860.09702,0.08837
862.02549,0.07851
863.95396,0.08197
865.88243,0.09925
867.81090,0.11381
869.73937,0.11732
871.66783,0.11760
873.59630,0.11815
875.52477,0.11637
877.45324,0.11257
879.38171,0.10561
881.31018,0.10220
883.23865,0.10409
885.16711,0.10313
887.09558,0.10786
889.02405,0.11686
890.95252,0.11352
892.88099,0.10677
894.80946,0.11206
896.73793,0.11995
898.66640,0.11684
900.59486,0.10684
902.52333,0.10397
904.45180,0.11249
906.38027,0.11877
908.30874,0.11601
910.23721,0.11308
912.16568,0.11399
914.09414,0.11480
916.02261,0.11381
917.95108,0.11644
919.87955,0.12296
921.80802,0.12608
923.73649,0.12698
925.66496,0.12671
927.59343,0.12307
929.52189,0.12119
931.45036,0.12525
933.37883,0.13458
935.30730,0.14101
937.23577,0.13458
939.16424,0.12282
941.09271,0.11972
943.02117,0.12454
944.94964,0.12873
946.87811,0.12901
948.80658,0.12782
950.73505,0.12965
952.66352,0.13063
954.59199,0.12150
956.52045,0.11004
958.44892,0.11012
960.37739,0.11745
962.30586,0.12299
964.23433,0.12472
966.16280,0.12308
968.09127,0.11861
970.01974,0.10939
971.94820,0.10116
973.87667,0.10564
975.80514,0.11740
977.73361,0.12340
979.66208,0.12659
981.59055,0.13326
983.51902,0.13525
985.44748,0.12753
987.37595,0.12062
989.30442,0.12155
991.23289,0.12739
993.16136,0.13246
995.08983,0.12984
997.01830,0.12056
998.94677,0.11123
1000.87523,0.10512
1002.80370,0.10580
1004.73217,0.10862
1006.66064,0.10845
1008.58911,0.11149
1010.51758,0.12010
1012.44605,0.13050
1014.37451,0.13526
1016.30298,0.13249
1018.23145,0.13067
1020.15992,0.13260
1022.08839,0.13645
1024.01686,0.13960
1025.94533,0.13680
1027.87380,0.12976
1029.80226,0.12545
1031.73073,0.12435
1033.65920,0.12696
1035.58767,0.13376
1037.51614,0.13714
1039.44461,0.13683
1041.37308,0.13642
1043.30154,0.13043
1045.23001,0.12403
1047.15848,0.12565
1049.08695,0.12813
1051.01542,0.12686
1052.94389,0.12235
1054.87236,0.11789
1056.80083,0.12000
1058.72929,0.12392
1060.65776,0.12379
1062.58623,0.12386
1064.51470,0.12585
1066.44317,0.13027
1068.37164,0.14124
1070.30011,0.14746
1072.22857,0.13606
1074.15704,0.12227
1076.08551,0.12323
1078.01398,0.13039
1079.94245,0.12887
1081.87092,0.12594
1083.79939,0.13120
1085.72786,0.13704
1087.65632,0.13681
1089.58479,0.13089
1091.51326,0.12593
1093.44173,0.12584
1095.37020,0.12607
1097.29867,0.12486
1099.22714,0.12615
1101.15560,0.13248
1103.08407,0.13799
1105.01254,0.14194
1106.94101,0.14794
1108.86948,0.14933
1110.79795,0.14437
1112.72642,0.13831
1114.65489,0.13571
1116.58335,0.14081
1118.51182,0.14776
1120.44029,0.14506
1122.36876,0.13173
1124.29723,0.12069
1126.22570,0.12004
1128.15417,0.12391
1130.08263,0.12874
1132.01110,0.13161
1133.93957,0.12887
1135.86804,0.12369
1137.79651,0.11933
1139.72498,0.12069
1141.65345,0.13131
1143.58191,0.14533
1145.51038,0.15472
1147.43885,0.15438
1149.36732,0.14629
1151.29579,0.13943
1153.22426,0.13621
1155.15273,0.13296
1157.08120,0.13259
1159.00966,0.13665
1160.93813,0.13659
1162.86660,0.13163
1164.79507,0.12970
1166.72354,0.13044
1168.65201,0.13263
1170.58048,0.13965
1172.50894,0.14661
1174.43741,0.14505
1176.36588,0.13981
1178.29435,0.13991
1180.22282,0.14302
1182.15129,0.14524
1184.07976,0.14787
1186.00823,0.14908
1187.93669,0.14506
1189.86516,0.13808
1191.79363,0.13583
1193.72210,0.14086
1195.65057,0.14450
1197.57904,0.14281
1199.50751,0.14272
1201.43597,0.14458
1203.36444,0.14413
1205.29291,0.14333
1207.22138,0.14305
1209.14985,0.14401
1211.07832,0.14866
1213.00679,0.15037
1214.93526,0.14466
1216.86372,0.14029
1218.79219,0.14369
1220.72066,0.14938
1222.64913,0.14913
1224.57760,0.14515
1226.50607,0.14353
1228.43454,0.14384
1230.36300,0.14563
1232.29147,0.14851
1234.21994,0.14872
1236.14841,0.14674
1238.07688,0.14815
1240.00535,0.15078
1241.93382,0.14946
1243.86229,0.14728
1245.79075,0.14566
1247.71922,0.14485
1249.64769,0.14686
1251.57616,0.14653
1253.50463,0.14102
1255.43310,0.13630
1257.36157,0.13561
1259.29003,0.13825
1261.21850,0.14181
1263.14697,0.14349
1265.07544,0.14251
1267.00391,0.14000
1268.93238,0.14066
1270.86085,0.14581
1272.78932,0.14868
1274.71778,0.14714
1276.64625,0.14874
1278.57472,0.15382
1280.50319,0.15229
1282.43166,0.14576
1284.36013,0.14495
1286.28860,0.14936
1288.21706,0.15335
1290.14553,0.15530
1292.07400,0.15520
1294.00247,0.15388
1295.93094,0.15219
1297.85941,0.15097
1299.78788,0.14728
1301.71634,0.13834
1303.64481,0.13001
1305.57328,0.13058
1307.50175,0.14040
1309.43022,0.14980
1311.35869,0.15269
1313.28716,0.15341
1315.21563,0.15501
1317.14409,0.15653
1319.07256,0.15681
1321.00103,0.15630
1322.92950,0.15589
1324.85797,0.15258
1326.78644,0.14554
1328.71491,0.13970
1330.64337,0.13778
1332.57184,0.14157
1334.50031,0.15022
1336.42878,0.15723
1338.35725,0.15916
1340.28572,0.15457
1342.21419,0.14928
1344.14266,0.14972
1346.07112,0.14998
1347.99959,0.14895
1349.92806,0.14962
1351.85653,0.14833
1353.78500,0.14634
1355.71347,0.14766
1357.64194,0.15151
1359.57040,0.15688
1361.49887,0.16144
1363.42734,0.15964
1365.35581,0.15442
1367.28428,0.15431
1369.21275,0.15958
1371.14122,0.16552
1373.06969,0.16926
1374.99815,0.16665
1376.92662,0.16068
1378.85509,0.15952
1380.78356,0.16081
1382.71203,0.16050
1384.64050,0.16132
1386.56897,0.16542
1388.49743,0.16891
1390.42590,0.17032
1392.35437,0.17327
1394.28284,0.17651
1396.21131,0.17695
1398.13978,0.17475
1400.06825,0.16844
1401.99672,0.16148
1403.92518,0.15910
1405.85365,0.16078
1407.78212,0.16347
1409.71059,0.16575
1411.63906,0.16729
1413.56753,0.17058
1415.49600,0.17872
1417.42446,0.18935
1419.35293,0.18948
1421.28140,0.17972
1423.20987,0.17363
1425.13834,0.16921
1427.06681,0.16755
1428.99528,0.17089
1430.92375,0.17370
1432.85221,0.17608
1434.78068,0.18282
1436.70915,0.18644
1438.63762,0.17857
1440.56609,0.17042
1442.49456,0.16748
1444.42303,0.16930
1446.35149,0.17259
1448.27996,0.17339
1450.20843,0.17258
1452.13690,0.17345
1454.06537,0.17849
1455.99384,0.18981
1457.92231,0.19547
1459.85077,0.18591
1461.77924,0.18058
1463.70771,0.18226
1465.63618,0.18217
1467.56465,0.17856
1469.49312,0.17834
1471.42159,0.18231
1473.35006,0.18577
1475.27852,0.18450
1477.20699,0.18012
1479.13546,0.17430
1481.06393,0.17113
1482.99240,0.17413
1484.92087,0.18188
1486.84934,0.19218
1488.77780,0.20136
1490.70627,0.19908
1492.63474,0.19042
1494.56321,0.18864
1496.49168,0.19150
1498.42015,0.18826
1500.34862,0.18392
1502.27709,0.18513
1504.20555,0.19300
1506.13402,0.20967
1508.06249,0.21322
1509.99096,0.20259
1511.91943,0.19639
1513.84790,0.19588
1515.77637,0.20417
1517.70483,0.21514
1519.63330,0.22217
1521.56177,0.22448
1523.49024,0.21483
1525.41871,0.20533
1527.34718,0.19948
1529.27565,0.19452
1531.20412,0.19569
1533.13258,0.20164
1535.06105,0.20227
1536.98952,0.20422
1538.91799,0.22113
1540.84646,0.23876
1542.77493,0.22545
1544.70340,0.20421
1546.63186,0.18851
1548.56033,0.18460
1550.48880,0.18857
1552.41727,0.19405
1554.34574,0.20264
1556.27421,0.21774
1558.20268,0.23827
1560.13115,0.22371
1562.05961,0.19903
1563.98808,0.18920
1565.91655,0.18721
1567.84502,0.19127
1569.77349,0.19383
1571.70196,0.18970
1573.63043,0.19073
1575.55889,0.19654
1577.48736,0.19228
1579.41583,0.18460
1581.34430,0.18378
1583.27277,0.18474
1585.20124,0.18217
1587.12971,0.17897
1589.05818,0.17792
1590.98664,0.17693
1592.91511,0.17661
1594.84358,0.17771
1596.77205,0.17628
1598.70052,0.17343
1600.62899,0.17423
1602.55746,0.17873
1604.48592,0.18307
1606.41439,0.18378
1608.34286,0.18064
1610.27133,0.17686
1612.19980,0.17611
1614.12827,0.18098
1616.05674,0.19203
1617.98521,0.19744
1619.91367,0.19476
1621.84214,0.19539
1623.77061,0.19705
1625.69908,0.19468
1627.62755,0.19159
1629.55602,0.18713
1631.48449,0.18379
1633.41295,0.19011
1635.34142,0.20706
1637.26989,0.20853
1639.19836,0.19839
1641.12683,0.19391
1643.05530,0.19471
1644.98377,0.20286
1646.91223,0.21441
1648.84070,0.21378
1650.76917,0.21521
1652.69764,0.22974
1654.62611,0.22666
1656.55458,0.20905
1658.48305,0.20171
1660.41152,0.20810
1662.33998,0.21601
1664.26845,0.20825
1666.19692,0.20162
1668.12539,0.20808
1670.05386,0.21483
1671.98233,0.21071
1673.91080,0.20572
1675.83926,0.20107
1677.76773,0.19761
1679.69620,0.20076
1681.62467,0.21250
1683.55314,0.22604
1685.48161,0.21986
1687.41008,0.20914
1689.33855,0.20387
1691.26701,0.19844
1693.19548,0.19772
1695.12395,0.20593
1697.05242,0.21681
1698.98089,0.22119
1700.90936,0.21400
1702.83783,0.20262
1704.76629,0.19608
1706.69476,0.19134
1708.62323,0.18834
1710.55170,0.19005
1712.48017,0.19682
1714.40864,0.20768
1716.33711,0.21687
1718.26558,0.21010
1720.19404,0.19460
1722.12251,0.18439
1724.05098,0.18164
1725.97945,0.18531
1727.90792,0.19188
1729.83639,0.19828
1731.76486,0.20416
1733.69332,0.20629
1735.62179,0.19800
1737.55026,0.19215
1739.47873,0.19327
1741.40720,0.19666
1743.33567,0.20159
1745.26414,0.20827
1747.19261,0.21208
1749.12107,0.20953
1751.04954,0.20059
1752.97801,0.19153
1754.90648,0.18729
1756.83495,0.18703
1758.76342,0.18943
1760.69189,0.19232
1762.62035,0.19163
1764.54882,0.18916
1766.47729,0.18899
1768.40576,0.19158
1770.33423,0.19897
1772.26270,0.20546
1774.19117,0.19949
1776.11964,0.19037
1778.04810,0.18701
1779.97657,0.18911
1781.90504,0.19156
1783.83351,0.19079
1785.76198,0.18677
1787.69045,0.18392
1789.61892,0.18923
1791.54738,0.19951
1793.47585,0.20168
1795.40432,0.19812
1797.33279,0.19548
1799.26126,0.19365
1801.18973,0.19204
1803.11820,0.18863
1805.04666,0.18465
1806.97513,0.18251
1808.90360,0.18346
1810.83207,0.18621
1812.76054,0.18573
1814.68901,0.18129
1816.61748,0.17564
1818.54595,0.17285
1820.47441,0.17444
1822.40288,0.17974
1824.33135,0.18862
1826.25982,0.19499
1828.18829,0.19745
1830.11676,0.19558
1832.04523,0.18758
1833.97369,0.18287
1835.90216,0.18429
1837.83063,0.18648
1839.75910,0.18738
1841.68757,0.19095
1843.61604,0.19503
1845.54451,0.19257
1847.47298,0.18923
1849.40144,0.18724
1851.32991,0.18339
1853.25838,0.18153
1855.18685,0.18374
1857.11532,0.18423
1859.04379,0.18128
1860.97226,0.17882
1862.90072,0.17906
1864.82919,0.18353
1866.75766,0.19201
1868.68613,0.19589
1870.61460,0.18859
1872.54307,0.18231
1874.47154,0.18274
1876.40001,0.18389
1878.32847,0.18270
1880.25694,0.18246
1882.18541,0.18455
1884.11388,0.18607
1886.04235,0.18647
1887.97082,0.18698
1889.89929,0.18513
1891.82775,0.18189
1893.75622,0.18145
1895.68469,0.18235
1897.61316,0.18283
1899.54163,0.18373
1901.47010,0.18549
1903.39857,0.18691
1905.32704,0.18574
1907.25550,0.18413
1909.18397,0.18545
1911.11244,0.18734
1913.04091,0.18653
1914.96938,0.18599
1916.89785,0.18799
1918.82632,0.18848
1920.75478,0.18921
1922.68325,0.19251
1924.61172,0.19147
1926.54019,0.18598
1928.46866,0.18267
1930.39713,0.18302
1932.32560,0.18579
1934.25407,0.18791
1936.18253,0.18559
1938.11100,0.18279
1940.03947,0.18642
1941.96794,0.19377
1943.89641,0.19388
1945.82488,0.18701
1947.75335,0.18399
1949.68181,0.18534
1951.61028,0.18603
1953.53875,0.18739
1955.46722,0.18965
1957.39569,0.18890
1959.32416,0.18550
1961.25263,0.18356
1963.18110,0.18406
1965.10956,0.18524
1967.03803,0.18521
1968.96650,0.18304
1970.89497,0.18045
1972.82344,0.17870
1974.75191,0.17770
1976.68038,0.17847
1978.60884,0.18032
1980.53731,0.18101
1982.46578,0.18222
1984.39425,0.18630
1986.32272,0.19070
1988.25119,0.19166
1990.17966,0.18874
1992.10812,0.18596
1994.03659,0.18746
1995.96506,0.18990
1997.89353,0.18842
1999.82200,0.18531
2001.75047,0.18473
2003.67894,0.18562
2005.60741,0.18561
2007.53587,0.18444
2009.46434,0.18304
2011.39281,0.18247
2013.32128,0.18375
2015.24975,0.18757
2017.17822,0.19048
2019.10669,0.18887
2021.03515,0.18644
2022.96362,0.18664
2024.89209,0.18723
2026.82056,0.18737
2028.74903,0.18857
2030.67750,0.18957
2032.60597,0.18936
2034.53444,0.18815
2036.46290,0.18673
2038.39137,0.18682
2040.31984,0.18708
2042.24831,0.18578
2044.17678,0.18501
2046.10525,0.18618
2048.03372,0.18701
2049.96218,0.18572
2051.89065,0.18432
2053.81912,0.18404
2055.74759,0.18427
2057.67606,0.18647
2059.60453,0.18990
2061.53300,0.19142
2063.46147,0.19081
2065.38993,0.18844
2067.31840,0.18608
2069.24687,0.18608
2071.17534,0.18745
2073.10381,0.18831
2075.03228,0.18812
2076.96075,0.18803
2078.88921,0.18877
2080.81768,0.18880
2082.74615,0.18701
2084.67462,0.18556
2086.60309,0.18650
2088.53156,0.18781
2090.46003,0.18711
2092.38850,0.18503
2094.31696,0.18425
2096.24543,0.18562
2098.17390,0.18774
2100.10237,0.18955
2102.03084,0.18984
2103.95931,0.18838
2105.88778,0.18655
2107.81624,0.18605
2109.74471,0.18796
2111.67318,0.19003
2113.60165,0.19067
2115.53012,0.19154
2117.45859,0.19163
2119.38706,0.19036
2121.31553,0.18988
2123.24399,0.18992
2125.17246,0.19028
2127.10093,0.19241
2129.02940,0.19453
2130.95787,0.19331
2132.88634,0.18964
2134.81481,0.18751
2136.74327,0.18844
2138.67174,0.18942
2140.60021,0.18829
2142.52868,0.18743
2144.45715,0.18785
2146.38562,0.18799
2148.31409,0.18814
2150.24255,0.18808
2152.17102,0.18738
2154.09949,0.18807
2156.02796,0.19039
2157.95643,0.19158
2159.88490,0.19023
2161.81337,0.18853
2163.74184,0.18795
2165.67030,0.18756
2167.59877,0.18880
2169.52724,0.19030
2171.45571,0.18820
2173.38418,0.18593
2175.31265,0.18807
2177.24112,0.19191
2179.16958,0.19352
2181.09805,0.19325
2183.02652,0.19243
2184.95499,0.19082
2186.88346,0.18915
2188.81193,0.18828
2190.74040,0.18682
2192.66887,0.18596
2194.59733,0.18853
2196.52580,0.19139
2198.45427,0.19065
2200.38274,0.18777
2202.31121,0.18603
2204.23968,0.18648
2206.16815,0.18782
2208.09661,0.18876
2210.02508,0.18907
2211.95355,0.18925
2213.88202,0.18867
2215.81049,0.18659
2217.73896,0.18511
2219.66743,0.18577
2221.59590,0.18766
2223.52436,0.19002
2225.45283,0.19084
2227.38130,0.19029
2229.30977,0.19159
2231.23824,0.19328
2233.16671,0.19261
2235.09518,0.19057
2237.02364,0.18810
2238.95211,0.18583
2240.88058,0.18588
2242.80905,0.18821
2244.73752,0.18952
2246.66599,0.18930
2248.59446,0.18945
2250.52293,0.19001
2252.45139,0.19111
2254.37986,0.19220
2256.30833,0.19138
2258.23680,0.18991
2260.16527,0.19057
2262.09374,0.19213
2264.02221,0.19259
2265.95067,0.19278
2267.87914,0.19304
2269.80761,0.19369
2271.73608,0.19502
2273.66455,0.19489
2275.59302,0.19214
2277.52149,0.18895
2279.44996,0.18784
2281.37842,0.18864
2283.30689,0.18951
2285.23536,0.19006
2287.16383,0.19071
2289.09230,0.19175
2291.02077,0.19423
2292.94924,0.19873
2294.87770,0.20298
2296.80617,0.20402
2298.73464,0.20317
2300.66311,0.20349
2302.59158,0.20381
2304.52005,0.20190
2306.44852,0.19925
2308.37699,0.19860
2310.30545,0.20148
2312.23392,0.20500
2314.16239,0.20442
2316.09086,0.20316
2318.01933,0.20601
2319.94780,0.21136
2321.87627,0.21717
2323.80473,0.22185
2325.73320,0.22352
2327.66167,0.22269
2329.59014,0.22584
2331.51861,0.23757
2333.44708,0.24683
2335.37555,0.24550
2337.30401,0.24244
2339.23248,0.24385
2341.16095,0.24196
2343.08942,0.23267
2345.01789,0.22485
2346.94636,0.22330
2348.87483,0.22570
2350.80330,0.22924
2352.73176,0.23050
2354.66023,0.23552
2356.58870,0.25041
2358.51717,0.25487
2360.44564,0.24167
2362.37411,0.23497
2364.30258,0.24733
2366.23104,0.25746
2368.15951,0.24939
2370.08798,0.23467
2372.01645,0.22124
2373.94492,0.20934
2375.87339,0.20241
2377.80186,0.20189
2379.73033,0.20329
2381.65879,0.20246
2383.58726,0.20010
2385.51573,0.19811
2387.44420,0.19615
2389.37267,0.19459
2391.30114,0.19482
2393.22961,0.19507
2395.15807,0.19430
2397.08654,0.19476
2399.01501,0.19623
2400.94348,0.19502
2402.87195,0.19102
2404.80042,0.18797
2406.72889,0.18681
2408.65736,0.18724
2410.58582,0.18904
2412.51429,0.18982
2414.44276,0.18925
2416.37123,0.18848
2418.29970,0.18667
2420.22817,0.18496
2422.15664,0.18544
2424.08510,0.18631
2426.01357,0.18643
2427.94204,0.18809
2429.87051,0.19030
2431.79898,0.19027
2433.72745,0.19066
2435.65592,0.19320
2437.58439,0.19444
2439.51285,0.19493
2441.44132,0.19670
2443.36979,0.19685
2445.29826,0.19521
2447.22673,0.19435
2449.15520,0.19602
2451.08367,0.20089
2453.01213,0.20309
2454.94060,0.19874
2456.86907,0.19369
2458.79754,0.19232
2460.72601,0.19291
2462.65448,0.19283
2464.58295,0.19173
2466.51142,0.19072
2468.43988,0.19030
2470.36835,0.19072
2472.29682,0.19264
2474.22529,0.19476
2476.15376,0.19489
2478.08223,0.19431
2480.01070,0.19487
2481.93916,0.19716
2483.86763,0.19927
2485.79610,0.19730
2487.72457,0.19369
2489.65304,0.19394
2491.58151,0.19593
2493.50998,0.19586
2495.43844,0.19509
2497.36691,0.19402
2499.29538,0.19270
2501.22385,0.19387
2503.15232,0.19707
2505.08079,0.19889
2507.00926,0.19809
2508.93773,0.19659
2510.86619,0.19623
2512.79466,0.19546
2514.72313,0.19407
2516.65160,0.19430
2518.58007,0.19470
2520.50854,0.19390
2522.43701,0.19381
2524.36547,0.19506
2526.29394,0.19630
2528.22241,0.19628
2530.15088,0.19679
2532.07935,0.19898
2534.00782,0.19948
2535.93629,0.19780
2537.86476,0.19735
2539.79322,0.19797
2541.72169,0.19754
2543.65016,0.19700
2545.57863,0.19730
2547.50710,0.19684
2549.43557,0.19473
2551.36404,0.19247
2553.29250,0.19183
2555.22097,0.19288
2557.14944,0.19438
2559.07791,0.19435
2561.00638,0.19443
2562.93485,0.19797
2564.86332,0.20118
2566.79179,0.19951
2568.72025,0.19533
2570.64872,0.19248
2572.57719,0.19224
2574.50566,0.19257
2576.43413,0.19173
2578.36260,0.19035
2580.29107,0.19000
2582.21953,0.19289
2584.14800,0.19743
2586.07647,0.19895
2588.00494,0.19758
2589.93341,0.19650
2591.86188,0.19607
2593.79035,0.19601
2595.71882,0.19631
2597.64728,0.19652
2599.57575,0.19707
2601.50422,0.19725
2603.43269,0.19629
2605.36116,0.19423
2607.28963,0.19224
2609.21810,0.19388
2611.14656,0.19862
2613.07503,0.20169
2615.00350,0.20153
2616.93197,0.19951
2618.86044,0.19756
2620.78891,0.19676
2622.71738,0.19598
2624.64585,0.19470
2626.57431,0.19415
2628.50278,0.19341
2630.43125,0.19208
2632.35972,0.19247
2634.28819,0.19413
2636.21666,0.19487
2638.14513,0.19479
2640.07359,0.19451
2642.00206,0.19416
2643.93053,0.19494
2645.85900,0.19704
2647.78747,0.19936
2649.71594,0.20117
2651.64441,0.19991
2653.57288,0.19556
2655.50134,0.19332
2657.42981,0.19609
2659.35828,0.20128
2661.28675,0.20369
2663.21522,0.20246
2665.14369,0.20130
2667.07216,0.20116
2669.00062,0.20106
2670.92909,0.20088
2672.85756,0.20078
2674.78603,0.20214
2676.71450,0.20433
2678.64297,0.20502
2680.57144,0.20500
2682.49990,0.20383
2684.42837,0.20086
2686.35684,0.19979
2688.28531,0.20095
2690.21378,0.20032
2692.14225,0.19874
2694.07072,0.20005
2695.99919,0.20196
2697.92765,0.20054
2699.85612,0.19753
2701.78459,0.19705
2703.71306,0.19879
2705.64153,0.19833
2707.57000,0.19669
2709.49847,0.19777
2711.42693,0.19977
2713.35540,0.20037
2715.28387,0.20137
2717.21234,0.20334
2719.14081,0.20468
2721.06928,0.20457
2722.99775,0.20277
2724.92622,0.20087
2726.85468,0.19978
2728.78315,0.19983
2730.71162,0.20267
2732.64009,0.20681
2734.56856,0.20974
2736.49703,0.20995
2738.42550,0.20621
2740.35396,0.20124
2742.28243,0.19884
2744.21090,0.19828
2746.13937,0.19947
2748.06784,0.20342
2749.99631,0.20739
2751.92478,0.20889
2753.85325,0.20797
2755.78171,0.20659
2757.71018,0.20539
2759.63865,0.20457
2761.56712,0.20663
2763.49559,0.21035
2765.42406,0.21208
2767.35253,0.21203
2769.28099,0.21247
2771.20946,0.21258
2773.13793,0.21049
2775.06640,0.20676
2776.99487,0.20373
2778.92334,0.20528
2780.85181,0.20949
2782.78028,0.21014
2784.70874,0.20758
2786.63721,0.20559
2788.56568,0.20562
2790.49415,0.20701
2792.42262,0.20763
2794.35109,0.20616
2796.27956,0.20516
2798.20802,0.20723
2800.13649,0.21012
2802.06496,0.21036
2803.99343,0.20936
2805.92190,0.21022
2807.85037,0.21150
2809.77884,0.21267
2811.70731,0.21493
2813.63577,0.21541
2815.56424,0.21292
2817.49271,0.21064
2819.42118,0.21039
2821.34965,0.21083
2823.27812,0.21061
2825.20659,0.21110
2827.13505,0.21252
2829.06352,0.21212
2830.99199,0.21104
2832.92046,0.21127
2834.84893,0.20993
2836.77740,0.20747
2838.70587,0.20791
2840.63433,0.21006
2842.56280,0.21097
2844.49127,0.21163
2846.41974,0.21267
2848.34821,0.21238
2850.27668,0.21016
2852.20515,0.20851
2854.13362,0.21013
2856.06208,0.21246
2857.99055,0.21172
2859.91902,0.21119
2861.84749,0.21482
2863.77596,0.21699
2865.70443,0.21355
2867.63290,0.21121
2869.56136,0.21298
2871.48983,0.21521
2873.41830,0.21580
2875.34677,0.21371
2877.27524,0.21090
2879.20371,0.21042
2881.13218,0.21098
2883.06065,0.21141
2884.98911,0.21288
2886.91758,0.21378
2888.84605,0.21217
2890.77452,0.21088
2892.70299,0.21086
2894.63146,0.20895
2896.55993,0.20811
2898.48839,0.21182
2900.41686,0.21476
2902.34533,0.21115
2904.27380,0.20353
2906.20227,0.20075
2908.13074,0.20420
2910.05921,0.20686
2911.98768,0.20697
2913.91614,0.20528
2915.84461,0.20197
2917.77308,0.20080
2919.70155,0.20178
2921.63002,0.20248
2923.55849,0.20292
2925.48696,0.19974
2927.41542,0.19752
2929.34389,0.20466
2931.27236,0.21303
2933.20083,0.21295
2935.12930,0.20509
2937.05777,0.19723
2938.98624,0.19893
2940.91471,0.20790
2942.84317,0.21591
2944.77164,0.21743
2946.70011,0.21082
2948.62858,0.20343
2950.55705,0.20008
2952.48552,0.19785
2954.41399,0.19634
2956.34245,0.19545
2958.27092,0.19711
2960.19939,0.20402
2962.12786,0.21144
2964.05633,0.21514
2965.98480,0.21401
2967.91327,0.20956
2969.84174,0.20994
2971.77020,0.21617
2973.69867,0.21902
2975.62714,0.21408
2977.55561,0.20638
2979.48408,0.20413
2981.41255,0.20860
2983.34102,0.21359
2985.26948,0.21418
2987.19795,0.21122
2989.12642,0.21077
2991.05489,0.21554
2992.98336,0.22051
2994.91183,0.22199
2996.84030,0.22083
2998.76877,0.21777
3000.69723,0.21433
3002.62570,0.21222
3004.55417,0.21006
3006.48264,0.20666
3008.41111,0.20456
3010.33958,0.20193
3012.26805,0.18900
3014.19651,0.16127
3016.12498,0.13788
3018.05345,0.14976
3019.98192,0.18834
3021.91039,0.21500
3023.83886,0.22041
3025.76733,0.21694
3027.69579,0.21458
3029.62426,0.21868
3031.55273,0.22343
3033.48120,0.22279
3035.40967,0.21986
3037.33814,0.21646
3039.26661,0.21389
3041.19508,0.21417
3043.12354,0.21527
3045.05201,0.21561
3046.98048,0.21495
3048.90895,0.21465
3050.83742,0.21669
3052.76589,0.21925
3054.69436,0.21877
3056.62282,0.21439
3058.55129,0.21256
3060.47976,0.21527
3062.40823,0.21546
3064.33670,0.20944
3066.26517,0.20001
3068.19364,0.19851
3070.12211,0.20889
3072.05057,0.21670
3073.97904,0.21157
3075.90751,0.20242
3077.83598,0.20246
3079.76445,0.20938
3081.69292,0.21256
3083.62139,0.20527
3085.54985,0.19391
3087.47832,0.19296
3089.40679,0.20131
3091.33526,0.20718
3093.26373,0.20467
3095.19220,0.20187
3097.12067,0.20887
3099.04914,0.21839
3100.97760,0.21999
3102.90607,0.21147
3104.83454,0.20389
3106.76301,0.20816
3108.69148,0.21354
3110.61995,0.20824
3112.54842,0.20124
3114.47688,0.20634
3116.40535,0.21855
3118.33382,0.22638
3120.26229,0.22655
3122.19076,0.21984
3124.11923,0.21506
3126.04770,0.21714
3127.97617,0.21967
3129.90463,0.21900
3131.83310,0.21858
3133.76157,0.22007
3135.69004,0.21968
3137.61851,0.21539
3139.54698,0.21068
3141.47545,0.20986
3143.40391,0.21312
3145.33238,0.21830
3147.26085,0.21901
3149.18932,0.21350
3151.11779,0.21193
3153.04626,0.21511
3154.97473,0.21516
3156.90320,0.21297
3158.83166,0.21133
3160.76013,0.21146
3162.68860,0.21538
3164.61707,0.21879
3166.54554,0.21742
3168.47401,0.21553
3170.40248,0.21688
3172.33094,0.22030
3174.25941,0.22490
3176.18788,0.22994
3178.11635,0.23075
3180.04482,0.22630
3181.97329,0.22168
3183.90176,0.21956
3185.83022,0.22106
3187.75869,0.22196
3189.68716,0.21728
3191.61563,0.21380
3193.54410,0.21725
3195.47257,0.22044
3197.40104,0.21709
3199.32951,0.21119
3201.25797,0.20909
3203.18644,0.21220
3205.11491,0.21637
3207.04338,0.21852
3208.97185,0.21928
3210.90032,0.22006
3212.82879,0.22215
3214.75725,0.22511
3216.68572,0.22570
3218.61419,0.22211
3220.54266,0.21895
3222.47113,0.22083
3224.39960,0.22376
3226.32807,0.22122
3228.25654,0.21588
3230.18500,0.21419
3232.11347,0.21599
3234.04194,0.21746
3235.97041,0.21608
3237.89888,0.21340
3239.82735,0.21280
3241.75582,0.21385
3243.68428,0.21527
3245.61275,0.21886
3247.54122,0.22320
3249.46969,0.22509
3251.39816,0.22261
3253.32663,0.21358
3255.25510,0.20678
3257.18357,0.21166
3259.11203,0.21874
3261.04050,0.21790
3262.96897,0.21402
3264.89744,0.21204
3266.82591,0.21132
3268.75438,0.21243
3270.68285,0.21372
3272.61131,0.21416
3274.53978,0.21550
3276.46825,0.21805
3278.39672,0.22041
3280.32519,0.22004
3282.25366,0.21814
3284.18213,0.21827
3286.11060,0.21947
3288.03906,0.21923
3289.96753,0.21899
3291.89600,0.21938
3293.82447,0.21915
3295.75294,0.21923
3297.68141,0.21818
3299.60988,0.21351
3301.53834,0.20772
3303.46681,0.20610
3305.39528,0.20844
3307.32375,0.21010
3309.25222,0.21141
3311.18069,0.21180
3313.10916,0.20956
3315.03763,0.21076
3316.96609,0.21632
3318.89456,0.21935
3320.82303,0.21925
3322.75150,0.21883
3324.67997,0.22104
3326.60844,0.22446
3328.53691,0.22385
3330.46537,0.22085
3332.39384,0.21751
3334.32231,0.21646
3336.25078,0.22018
3338.17925,0.22312
3340.10772,0.22062
3342.03619,0.21591
3343.96466,0.21636
3345.89312,0.22080
3347.82159,0.22171
3349.75006,0.22048
3351.67853,0.22192
3353.60700,0.22595
3355.53547,0.22891
3357.46394,0.22875
3359.39240,0.22586
3361.32087,0.22051
3363.24934,0.21934
3365.17781,0.22677
3367.10628,0.23422
3369.03475,0.23484
3370.96322,0.23152
3372.89168,0.22896
3374.82015,0.22734
3376.74862,0.22458
3378.67709,0.22263
3380.60556,0.22168
3382.53403,0.21904
3384.46250,0.21650
3386.39097,0.21470
3388.31943,0.21409
3390.24790,0.21755
3392.17637,0.21917
3394.10484,0.21527
3396.03331,0.21284
3397.96178,0.21414
3399.89025,0.21672
3401.81871,0.21673
3403.74718,0.21424
3405.67565,0.21503
3407.60412,0.21799
3409.53259,0.21895
3411.46106,0.21777
3413.38953,0.21283
3415.31800,0.20784
3417.24646,0.21061
3419.17493,0.21529
3421.10340,0.21368
3423.03187,0.21221
3424.96034,0.21583
3426.88881,0.21932
3428.81728,0.21551
3430.74574,0.20529
3432.67421,0.19688
3434.60268,0.19300
3436.53115,0.19346
3438.45962,0.19652
3440.38809,0.19848
3442.31656,0.20267
3444.24503,0.20935
3446.17349,0.21262
3448.10196,0.21078
3450.03043,0.20570
3451.95890,0.20266
3453.88737,0.20265
3455.81584,0.20188
3457.74431,0.20059
3459.67277,0.20025
3461.60124,0.20050
3463.52971,0.19914
3465.45818,0.19532
3467.38665,0.19226
3469.31512,0.19246
3471.24359,0.19530
3473.17206,0.19899
3475.10052,0.19980
3477.02899,0.19796
3478.95746,0.20058
3480.88593,0.20505
3482.81440,0.20274
3484.74287,0.19812
3486.67134,0.19594
3488.59980,0.19256
3490.52827,0.18969
3492.45674,0.19250
3494.38521,0.19881
3496.31368,0.20152
3498.24215,0.19610
3500.17062,0.18753
3502.09909,0.18393
3504.02755,0.18428
3505.95602,0.18363
3507.88449,0.18273
3509.81296,0.18139
3511.74143,0.17633
3513.66990,0.17420
3515.59837,0.17975
3517.52683,0.18167
3519.45530,0.17874
3521.38377,0.18143
3523.31224,0.18592
3525.24071,0.18667
3527.16918,0.18725
3529.09765,0.18534
3531.02611,0.17957
3532.95458,0.17736
3534.88305,0.18201
3536.81152,0.18719
3538.73999,0.18643
3540.66846,0.18326
3542.59693,0.18217
3544.52540,0.18164
3546.45386,0.17996
3548.38233,0.17859
3550.31080,0.18014
3552.23927,0.18048
3554.16774,0.17372
3556.09621,0.16587
3558.02468,0.16260
3559.95314,0.16457
3561.88161,0.17063
3563.81008,0.17619
3565.73855,0.18084
3567.66702,0.18244
3569.59549,0.17486
3571.52396,0.16546
3573.45243,0.16097
3575.38089,0.16042
3577.30936,0.16088
3579.23783,0.16202
3581.16630,0.16462
3583.09477,0.16815
3585.02324,0.17325
3586.95171,0.17736
3588.88017,0.17267
3590.80864,0.16886
3592.73711,0.17112
3594.66558,0.16849
3596.59405,0.16073
3598.52252,0.15772
3600.45099,0.15703
3602.37946,0.15609
3604.30792,0.15863
3606.23639,0.16426
3608.16486,0.16578
3610.09333,0.16021
3612.02180,0.15743
3613.95027,0.16056
3615.87874,0.16367
3617.80720,0.16415
3619.73567,0.16036
3621.66414,0.15725
3623.59261,0.15968
3625.52108,0.16396
3627.44955,0.16470
3629.37802,0.15750
3631.30649,0.15315
3633.23495,0.15520
3635.16342,0.15477
3637.09189,0.14940
3639.02036,0.14486
3640.94883,0.14389
3642.87730,0.14495
3644.80577,0.15064
3646.73423,0.16336
3648.66270,0.17703
3650.59117,0.17243
3652.51964,0.15675
3654.44811,0.14837
3656.37658,0.14632
3658.30505,0.14365
3660.23352,0.14015
3662.16198,0.13680
3664.09045,0.13532
3666.01892,0.13785
3667.94739,0.14304
3669.87586,0.14819
3671.80433,0.15180
3673.73280,0.15407
3675.66126,0.15086
3677.58973,0.14427
3679.51820,0.13984
3681.44667,0.13670
3683.37514,0.13710
3685.30361,0.14209
3687.23208,0.15253
3689.16055,0.16217
3691.08901,0.15422
3693.01748,0.14106
3694.94595,0.13631
3696.87442,0.13611
3698.80289,0.13623
3700.73136,0.13684
3702.65983,0.13648
3704.58829,0.13550
3706.51676,0.13888
3708.44523,0.14848
3710.37370,0.16044
3712.30217,0.16085
3714.23064,0.14908
3716.15911,0.14184
3718.08757,0.14216
3720.01604,0.14268
3721.94451,0.13917
3723.87298,0.13416
3725.80145,0.12858
3727.72992,0.12552
3729.65839,0.12763
3731.58686,0.13578
3733.51532,0.15191
3735.44379,0.16456
3737.37226,0.15940
3739.30073,0.15014
3741.22920,0.14708
3743.15767,0.14823
3745.08614,0.14774
3747.01460,0.14560
3748.94307,0.14875
3750.87154,0.15445
3752.80001,0.15046
3754.72848,0.14451
3756.65695,0.14282
3758.58542,0.14211
3760.51389,0.13707
3762.44235,0.12988
3764.37082,0.12749
3766.29929,0.13122
3768.22776,0.13548
3770.15623,0.13269
3772.08470,0.12332
3774.01317,0.11757
3775.94163,0.11951
3777.87010,0.12578
3779.79857,0.12781
3781.72704,0.12455
3783.65551,0.12442
3785.58398,0.12787
3787.51245,0.13030
3789.44092,0.12973
3791.36938,0.12660
3793.29785,0.12518
3795.22632,0.12939
3797.15479,0.13772
3799.08326,0.14740
3801.01173,0.15264
3802.94020,0.14321
3804.86866,0.13527
3806.79713,0.13561
3808.72560,0.13076
3810.65407,0.12398
3812.58254,0.12719
3814.51101,0.13918
3816.43948,0.14730
3818.36795,0.14863
3820.29641,0.15099
3822.22488,0.14478
3824.15335,0.13495
3826.08182,0.13214
3828.01029,0.13349
3829.93876,0.13545
3831.86723,0.13823
3833.79569,0.14057
3835.72416,0.13752
3837.65263,0.13124
3839.58110,0.12907
3841.50957,0.12819
3843.43804,0.12706
3845.36651,0.12639
3847.29498,0.12617
3849.22344,0.12726
3851.15191,0.12755
3853.08038,0.12623
3855.00885,0.12863
3856.93732,0.13180
3858.86579,0.13123
3860.79426,0.12626
3862.72272,0.12321
3864.65119,0.12577
3866.57966,0.12737
3868.50813,0.12973
3870.43660,0.13460
3872.36507,0.13618
3874.29354,0.13214
3876.22200,0.12552
3878.15047,0.12281
3880.07894,0.12653
3882.00741,0.13124
3883.93588,0.12999
3885.86435,0.12352
3887.79282,0.12025
3889.72129,0.12451
3891.64975,0.12675
3893.57822,0.11883
3895.50669,0.11178
3897.43516,0.11163
3899.36363,0.11788
3901.29210,0.12539
3903.22057,0.12612
3905.14903,0.12059
3907.07750,0.11441
3909.00597,0.10941
3910.93444,0.10590
3912.86291,0.10602
3914.79138,0.10968
3916.71985,0.11221
3918.64832,0.11213
3920.57678,0.11329
3922.50525,0.11663
3924.43372,0.11923
3926.36219,0.11688
3928.29066,0.11380
3930.21913,0.11508
3932.14760,0.11337
3934.07606,0.10563
3936.00453,0.10142
3937.93300,0.10382
3939.86147,0.11042
3941.78994,0.11821
3943.71841,0.12044
3945.64688,0.11651
3947.57535,0.11457
3949.50381,0.11532
3951.43228,0.11378
3953.36075,0.11211
3955.28922,0.11238
3957.21769,0.11064
3959.14616,0.10744
3961.07463,0.10625
3963.00309,0.10634
3964.93156,0.10671
3966.86003,0.10552
3968.78850,0.10259
3970.71697,0.10027
3972.64544,0.09994
3974.57391,0.10277
3976.50238,0.10538
3978.43084,0.10578
3980.35931,0.10692
3982.28778,0.10367
3984.21625,0.09431
3986.14472,0.09158
3988.07319,0.09816
3990.00166,0.10276
3991.93012,0.09953
3993.85859,0.09465
3995.78706,0.09547
3997.71553,0.09800
3999.64400,0.09913
4001.57247,0.10183
4003.50094,0.10179
4005.42941,0.09758
4007.35787,0.09494
4009.28634,0.09471
4011.21481,0.09733
4013.14328,0.09907
4015.07175,0.09359
4017.00022,0.08962
4018.92869,0.09392
4020.85715,0.09781
4022.78562,0.09703
4024.71409,0.09530
4026.64256,0.09513
4028.57103,0.09525
4030.49950,0.09277
4032.42797,0.09063
4034.35644,0.09395
4036.28490,0.09810
4038.21337,0.09766
4040.14184,0.09629
4042.07031,0.09570
4043.99878,0.09329
4045.92725,0.08876
4047.85572,0.08514
4049.78418,0.08560
4051.71265,0.08863
4053.64112,0.09123
4055.56959,0.09327
4057.49806,0.09538
4059.42653,0.09788
4061.35500,0.09828
4063.28346,0.09417
4065.21193,0.09025
4067.14040,0.08950
4069.06887,0.08782
4070.99734,0.08466
4072.92581,0.08285
4074.85428,0.08203
4076.78275,0.08179
4078.71121,0.08265
4080.63968,0.08339
4082.56815,0.08365
4084.49662,0.08359
4086.42509,0.08278
4088.35356,0.08368
4090.28203,0.08676
4092.21049,0.08865
4094.13896,0.08795
4096.06743,0.08514
4097.99590,0.08363
4099.92437,0.08402
4101.85284,0.08219
4103.78131,0.08030
4105.70978,0.08171
4107.63824,0.08450
4109.56671,0.08909
4111.49518,0.09121
4113.42365,0.08336
4115.35212,0.07424
4117.28059,0.07265
4119.20906,0.07305
4121.13752,0.07331
4123.06599,0.07405
4124.99446,0.07405
4126.92293,0.07387
4128.85140,0.07419
4130.77987,0.07244
4132.70834,0.06754
4134.63681,0.06559
4136.56527,0.06864
4138.49374,0.07164
4140.42221,0.07100
4142.35068,0.06915
4144.27915,0.06977
4146.20762,0.07145
4148.13609,0.07245
4150.06455,0.07462
4151.99302,0.08021
4153.92149,0.08589
4155.84996,0.08646
4157.77843,0.08143
4159.70690,0.07624
4161.63537,0.07454
4163.56384,0.07130
4165.49230,0.06610
4167.42077,0.06430
4169.34924,0.06683
4171.27771,0.06861
4173.20618,0.06560
4175.13465,0.06292
4177.06312,0.06415
4178.99158,0.06589
4180.92005,0.06780
4182.84852,0.07086
4184.77699,0.06947
4186.70546,0.06243
4188.63393,0.05803
4190.56240,0.05843
4192.49087,0.05898
4194.41933,0.05660
4196.34780,0.05415
4198.27627,0.05674
4200.20474,0.06008
4202.13321,0.05954
4204.06168,0.05990
4205.99015,0.06124
4207.91861,0.05766
4209.84708,0.05204
4211.77555,0.04927
4213.70402,0.04732
4215.63249,0.04531
4217.56096,0.04560
4219.48943,0.05004
4221.41789,0.05550
4223.34636,0.05800
4225.27483,0.05850
4227.20330,0.05770
4229.13177,0.05635
4231.06024,0.05522
4232.98871,0.05095
4234.91718,0.04347
4236.84564,0.04205
4238.77411,0.04979
4240.70258,0.05760
4242.63105,0.06125
4244.55952,0.06083
4246.48799,0.05572
4248.41646,0.05170
4250.34492,0.05046
4252.27339,0.04780
4254.20186,0.04644
4256.13033,0.04683
4258.05880,0.04544
4259.98727,0.04690
4261.91574,0.05166
4263.84421,0.05039
4265.77267,0.04597
4267.70114,0.04832
4269.62961,0.05327
4271.55808,0.05330
4273.48655,0.04948
4275.41502,0.04587
4277.34349,0.04390
4279.27195,0.04287
4281.20042,0.04508
4283.12889,0.04951
4285.05736,0.04655
4286.98583,0.03758
4288.91430,0.03639
4290.84277,0.04236
4292.77124,0.04506
4294.69970,0.04430
4296.62817,0.04472
4298.55664,0.04653
4300.48511,0.04654
4302.41358,0.04347
4304.34205,0.03929
4306.27052,0.03615
4308.19898,0.03695
4310.12745,0.04028
4312.05592,0.03642
4313.98439,0.02546
4315.91286,0.02235
4317.84133,0.03221
4319.76980,0.04353
4321.69827,0.04666
4323.62673,0.04401
4325.55520,0.04223
4327.48367,0.04138
4329.41214,0.03649
4331.34061,0.03282
4333.26908,0.03781
4335.19755,0.03954
4337.12601,0.02914
4339.05448,0.02080
4340.98295,0.02334
4342.91142,0.02745
4344.83989,0.02866
4346.76836,0.03090
4348.69683,0.03167
4350.62530,0.02765
4352.55376,0.02219
4354.48223,0.01989
4356.41070,0.01847
4358.33917,0.01492
4360.26764,0.01585
4362.19611,0.02151
4364.12458,0.02395
4366.05304,0.02470
4367.98151,0.02641
4369.90998,0.02593
4371.83845,0.02152
4373.76692,0.01542
4375.69539,0.01448
4377.62386,0.02156
4379.55232,0.02917
4381.48079,0.02760
4383.40926,0.01835
4385.33773,0.01418
4387.26620,0.02016
4389.19467,0.02711
4391.12314,0.02729
4393.05161,0.02890
4394.98007,0.03956
4396.90854,0.04661
4398.83701,0.03975
4400.76548,0.02846
4402.69395,0.02140
4404.62242,0.01931
4406.55089,0.01907
4408.47935,0.01218
4410.40782,0.00167
4412.33629,0.00156
4414.26476,0.01047
4416.19323,0.01601
4418.12170,0.01716
4420.05017,0.01979
4421.97864,0.02132
4423.90710,0.02005
4425.83557,0.01961
4427.76404,0.01704
4429.69251,0.01118
4431.62098,0.00935
4433.54945,0.01299
4435.47792,0.01849
4437.40638,0.02327
4439.33485,0.02256
4441.26332,0.01715
4443.19179,0.01248
4445.12026,0.00760
4447.04873,0.00323
4448.97720,0.00688
4450.90567,0.01517
4452.83413,0.01524
4454.76260,0.00816
4456.69107,0.00418
4458.61954,0.00503
4460.54801,0.00544
4462.47648,0.00555
4464.40495,0.01009
4466.33341,0.01514
4468.26188,0.01172
4470.19035,0.00238
4472.11882,-0.00136
4474.04729,0.00259
4475.97576,0.00346
4477.90423,-0.00293
4479.83270,-0.00556
4481.76116,-0.00047
4483.68963,0.00385
4485.61810,0.00180
4487.54657,-0.00429
4489.47504,-0.00655
4491.40351,-0.00372
4493.33198,-0.00362
4495.26044,-0.00694
4497.18891,-0.00536
4499.11738,0.00181
4501.04585,0.00738
4502.97432,0.00930
4504.90279,0.00849
4506.83126,0.00683
4508.75973,0.00784
4510.68819,0.01111
4512.61666,0.01237
4514.54513,0.01180
4516.47360,0.01127
4518.40207,0.01086
4520.33054,0.01350
4522.25901,0.01633
4524.18747,0.01387
4526.11594,0.00837
4528.04441,0.00361
4529.97288,0.00060
4531.90135,-0.00075
4533.82982,0.00268
4535.75829,0.00633
4537.68676,0.00052
4539.61522,-0.00578
4541.54369,0.00083
4543.47216,0.01350
4545.40063,0.02008
4547.32910,0.01930
4549.25757,0.01152
4551.18604,0.00381
4553.11450,0.00552
4555.04297,0.01200
4556.97144,0.01709
4558.89991,0.01750
4560.82838,0.01343
4562.75685,0.00907
4564.68532,0.01029
4566.61378,0.01464
4568.54225,0.01029
4570.47072,0.00246
4572.39919,-0.00139
4574.32766,-0.00360
4576.25613,-0.00081
4578.18460,0.00697
4580.11307,0.01292
4582.04153,0.01657
4583.97000,0.02117
4585.89847,0.01855
4587.82694,0.00620
4589.75541,0.00186
4591.68388,0.00886
4593.61235,0.00888
4595.54081,0.00012
4597.46928,-0.00575
4599.39775,-0.00799
4601.32622,-0.00715
4603.25469,-0.00355
4605.18316,-0.00383
4607.11163,-0.00517
4609.04010,-0.00101
4610.96856,0.00057
4612.89703,-0.00450
4614.82550,-0.00823
4616.75397,-0.00696
4618.68244,0.00114
4620.61091,0.01143
4622.53938,0.01071
4624.46784,0.00050
4626.39631,-0.00615
4628.32478,-0.00650
4630.25325,-0.00726
4632.18172,-0.00675
4634.11019,0.00193
4636.03866,0.00975
4637.96713,0.00980
4639.89559,0.01040
4641.82406,0.01467
4643.75253,0.01660
4645.68100,0.01222
4647.60947,0.00605
4649.53794,0.00324
4651.46641,0.00086
4653.39487,-0.00134
4655.32334,0.00173
4657.25181,0.00569
4659.18028,0.00624
4661.10875,0.00826
4663.03722,0.01042
4664.96569,0.00872
4666.89416,0.00887
4668.82262,0.01640
4670.75109,0.02012
4672.67956,0.00851
4674.60803,-0.00295
4676.53650,0.00038
4678.46497,0.00457
4680.39344,-0.00205
4682.32190,-0.00907
4684.25037,-0.00783
4686.17884,-0.00188
4688.10731,0.00513
4690.03578,0.01068
4691.96425,0.00883
4693.89272,0.00116
4695.82119,0.00120
4697.74965,0.01021
4699.67812,0.01266
4701.60659,0.00660
4703.53506,0.00742
4705.46353,0.01785
4707.39200,0.02448
4709.32047,0.01707
4711.24893,0.00463
4713.17740,0.00334
4715.10587,0.00814
4717.03434,0.00884
4718.96281,0.00762
4720.89128,0.00714
4722.81975,0.00727
4724.74821,0.00990
4726.67668,0.01438
4728.60515,0.01587
4730.53362,0.01263
4732.46209,0.00758
4734.39056,0.00260
4736.31903,-0.00124
4738.24750,-0.00064
4740.17596,0.00752
4742.10443,0.01793
4744.03290,0.02062
4745.96137,0.01528
4747.88984,0.00794
4749.81831,0.00164
4751.74678,-0.00049
4753.67524,-0.00037
4755.60371,-0.00262
4757.53218,-0.00715
4759.46065,-0.00720
4761.38912,0.00265
4763.31759,0.01481
4765.24606,0.02221
4767.17453,0.02197
4769.10299,0.00913
4771.03146,-0.00509
4772.95993,-0.00461
4774.88840,0.00633
4776.81687,0.01467
4778.74534,0.01314
4780.67381,0.00706
4782.60227,0.00889
4784.53074,0.01108
4786.45921,0.00186
4788.38768,-0.00944
4790.31615,-0.01641
4792.24462,-0.01680
4794.17309,-0.00616
4796.10156,0.00564
4798.03002,0.00581
4799.95849,0.00376
4801.88696,0.01145
4803.81543,0.01428
4805.74390,0.00124
4807.67237,-0.01121
4809.60084,-0.01364
4811.52930,-0.01122
4813.45777,-0.00473
4815.38624,0.00282
4817.31471,0.00539
4819.24318,0.00324
4821.17165,0.00187
4823.10012,0.00459
4825.02859,0.00712
4826.95705,0.00410
4828.88552,0.00184
4830.81399,0.00413
4832.74246,0.00659
4834.67093,0.00924
4836.59940,0.01153
4838.52787,0.01089
4840.45633,0.01033
4842.38480,0.01541
4844.31327,0.02275
4846.24174,0.02275
4848.17021,0.01794
4850.09868,0.01604
4852.02715,0.01491
4853.95562,0.01025
4855.88408,0.00406
4857.81255,0.00029
4859.74102,-0.00280
4861.66949,-0.00569
4863.59796,-0.00167
4865.52643,0.00861
4867.45490,0.01285
4869.38336,0.00644
4871.31183,0.00121
4873.24030,0.00306
4875.16877,0.00656
4877.09724,0.00924
4879.02571,0.00496
4880.95418,-0.00687
4882.88265,-0.01584
4884.81111,-0.02118
4886.73958,-0.02053
4888.66805,-0.00589
4890.59652,0.01561
4892.52499,0.02614
4894.45346,0.02338
4896.38193,0.01847
4898.31039,0.00916
4900.23886,0.00002
4902.16733,0.00632
4904.09580,0.01518
4906.02427,0.01185
4907.95274,0.00680
4909.88121,0.00540
4911.80967,0.00036
4913.73814,-0.00401
4915.66661,0.00051
4917.59508,0.00387
4919.52355,0.00066
4921.45202,0.00113
4923.38049,0.00813
4925.30896,0.01233
4927.23742,0.00924
4929.16589,0.00953
4931.09436,0.01757
4933.02283,0.02137
4934.95130,0.01454
4936.87977,0.00513
4938.80824,0.00252
4940.73670,0.00548
4942.66517,0.00774
4944.59364,0.01010
4946.52211,0.01415
4948.45058,0.01604
4950.37905,0.01375
4952.30752,0.00533
4954.23599,-0.00452
4956.16445,-0.00445
4958.09292,0.00509
4960.02139,0.01274
4961.94986,0.01191
4963.87833,0.00747
4965.80680,0.00424
4967.73527,0.00266
4969.66373,0.00350
4971.59220,0.00704
4973.52067,0.01503
4975.44914,0.02459
4977.37761,0.02525
4979.30608,0.01489
4981.23455,0.00223
4983.16302,-0.00439
4985.09148,-0.00837
4987.01995,-0.00641
4988.94842,0.01136
4990.87689,0.02453
4992.80536,0.01224
4994.73383,-0.00374
4996.66230,-0.00432
4998.59076,-0.00407
5000.51923,-0.00333
5002.44770,0.00422
5004.37617,0.00611
5006.30464,0.00333
5008.23311,0.00194
5010.16158,-0.00377
5012.09005,-0.01697
5014.01851,-0.02678
5015.94698,-0.01992
5017.87545,-0.00274
5019.80392,0.00972
5021.73239,0.01050
5023.66086,0.00840
5025.58933,0.01175
5027.51779,0.01460
5029.44626,0.01112
5031.37473,0.00215
5033.30320,-0.00232
5035.23167,0.00222
5037.16014,0.00549
5039.08861,0.00473
5041.01708,0.00009
5042.94554,-0.00755
5044.87401,0.00016
5046.80248,0.01678
5048.73095,0.01708
5050.65942,0.01620
5052.58789,0.02546
5054.51636,0.02836
5056.44482,0.02111
5058.37329,0.01457
5060.30176,0.01641
5062.23023,0.01817
5064.15870,0.01303
5066.08717,0.00983
5068.01564,0.00601
5069.94410,0.00071
5071.87257,0.01023
5073.80104,0.02396
5075.72951,0.01589
5077.65798,-0.00329
5079.58645,-0.00839
5081.51492,-0.00214
5083.44339,0.00134
5085.37185,0.00174
5087.30032,0.00491
5089.22879,0.01349
5091.15726,0.02106
5093.08573,0.02502
5095.01420,0.03176
5096.94267,0.03735
5098.87113,0.03672
5100.79960,0.03010
5102.72807,0.01422
5104.65654,0.00574
5106.58501,0.01919
5108.51348,0.02747
5110.44195,0.02375
5112.37042,0.02819
5114.29888,0.02553
5116.22735,0.00603
5118.15582,-0.01003
5120.08429,-0.00904
5122.01276,0.00517
5123.94123,0.01760
5125.86970,0.02186
5127.79816,0.01872
5129.72663,0.01196
5131.65510,0.01128
5133.58357,0.01355
5135.51204,0.01507
5137.44051,0.02201
5139.36898,0.02975
5141.29745,0.02679
5143.22591,0.01384
5145.15438,0.00556
5147.08285,0.00830
5149.01132,0.02084
5150.93979,0.03345
5152.86826,0.02522
5154.79673,0.00651
5156.72519,0.00841
5158.65366,0.02600
5160.58213,0.03168
5162.51060,0.02848
5164.43907,0.03640
5166.36754,0.04888
5168.29601,0.04633
5170.22448,0.02206
5172.15294,-0.01218
5174.08141,-0.03240
5176.00988,-0.02913
5177.93835,-0.01563
5179.86682,0.00295
5181.79529,0.03137
5183.72376,0.05553
5185.65222,0.05857
5187.58069,0.05311
5189.50916,0.05540
5191.43763,0.05507
5193.36610,0.04918
5195.29457,0.04088
5197.22304,0.02131
5199.15151,0.00230
5201.07997,0.00213
5203.00844,0.01052
5204.93691,0.01657
5206.86538,0.02965
5208.79385,0.03832
5210.72232,0.02051
5212.65079,-0.00375
5214.57925,-0.01080
5216.50772,-0.00054
5218.43619,0.01812
5220.36466,0.03199
5222.29313,0.03370
5224.22160,0.02337
5226.15007,0.01107
5228.07854,0.01899
5230.00700,0.04363
5231.93547,0.05737
5233.86394,0.05183
5235.79241,0.04745
5237.72088,0.05464
5239.64935,0.05690
5241.57782,0.04577
5243.50628,0.03121
5245.43475,0.02115
5247.36322,0.02016
5249.29169,0.02364
5251.22016,0.02251
5253.14863,0.02423
5255.07710,0.03165
5257.00556,0.03122
5258.93403,0.02840
5260.86250,0.03182
5262.79097,0.03398
5264.71944,0.04288
5266.64791,0.05670
5268.57638,0.05561
5270.50485,0.04033
5272.43331,0.02876
5274.36178,0.03418
5276.29025,0.04515
5278.21872,0.04969
5280.14719,0.04352
5282.07566,0.01671
5284.00413,-0.00894
5285.93259,-0.00278
5287.86106,0.02671
5289.78953,0.05794
5291.71800,0.06792
5293.64647,0.05864
5295.57494,0.05444
5297.50341,0.05569
5299.43188,0.05610
5301.36034,0.06165
5303.28881,0.06859
5305.21728,0.06661
5307.14575,0.05085
5309.07422,0.02447
5311.00269,0.00953
5312.93116,0.01474
5314.85962,0.02426
5316.78809,0.02949
5318.71656,0.02699
5320.64503,0.01809
5322.57350,0.01410
5324.50197,0.01706
5326.43044,0.03087
5328.35891,0.05713
5330.28737,0.07693
5332.21584,0.07664
5334.14431,0.05683
5336.07278,0.03724
5338.00125,0.03554
5339.92972,0.04067
5341.85819,0.03178
5343.78665,0.01382
5345.71512,0.01321
5347.64359,0.02537
5349.57206,0.02940
5351.50053,0.02049
5353.42900,0.00679
5355.35747,0.00948
5357.28594,0.02373
5359.21440,0.03651
5361.14287,0.04068
5363.07134,0.03698
5364.99981,0.04101
5366.92828,0.05418
5368.85675,0.07318
5370.78522,0.09338
5372.71368,0.09999
5374.64215,0.08708
5376.57062,0.06192
5378.49909,0.03911
5380.42756,0.02796
5382.35603,0.03268
5384.28450,0.04964
5386.21297,0.06459
5388.14143,0.06512
5390.06990,0.05425
5391.99837,0.04959
5393.92684,0.05546
5395.85531,0.05524
5397.78378,0.04818
5399.71225,0.03986
5401.64071,0.03662
5403.56918,0.05037
5405.49765,0.07046
5407.42612,0.07588
5409.35459,0.06453
5411.28306,0.05044
5413.21153,0.05033
5415.13999,0.05146
5417.06846,0.03756
5418.99693,0.03472
5420.92540,0.05982
5422.85387,0.07702
5424.78234,0.06022
5426.71081,0.02929
5428.63928,0.01017
5430.56774,0.01645
5432.49621,0.03028
5434.42468,0.03005
5436.35315,0.03890
5438.28162,0.06931
5440.21009,0.08862
5442.13856,0.09020
5444.06702,0.09018
5445.99549,0.07896
5447.92396,0.06246
5449.85243,0.05141
5451.78090,0.03461
5453.70937,0.02235
5455.63784,0.03316
5457.56631,0.05612
5459.49477,0.06981
5461.42324,0.08011
5463.35171,0.08822
5465.28018,0.08265
5467.20865,0.06496
5469.13712,0.04978
5471.06559,0.05260
5472.99405,0.06893
5474.92252,0.08701
5476.85099,0.09221
5478.77946,0.08673
5480.70793,0.08504
5482.63640,0.07431
5484.56487,0.05064
5486.49334,0.04172
5488.42180,0.05882
5490.35027,0.06497
5492.27874,0.03233
5494.20721,0.01613
5496.13568,0.03960
5498.06415,0.04680
5499.99262,0.03323
5501.92108,0.03787
5503.84955,0.05260
5505.77802,0.06450
5507.70649,0.08050
5509.63496,0.08304
5511.56343,0.06814
5513.49190,0.06084
5515.42037,0.06416
5517.34883,0.06713
5519.27730,0.07120
5521.20577,0.06644
5523.13424,0.04409
5525.06271,0.02714
5526.99118,0.03017
5528.91965,0.05220
5530.84811,0.08903
5532.77658,0.10530
5534.70505,0.08688
5536.63352,0.06403
5538.56199,0.05005
5540.49046,0.03975
5542.41893,0.03582
5544.34740,0.03855
5546.27586,0.05088
5548.20433,0.07783
5550.13280,0.10515
5552.06127,0.10278
5553.98974,0.06645
5555.91821,0.03259
5557.84668,0.02411
5559.77514,0.02960
5561.70361,0.04388
5563.63208,0.07067
5565.56055,0.09102
5567.48902,0.09671
5569.41749,0.09907
5571.34596,0.08928
5573.27443,0.07544
5575.20289,0.07294
5577.13136,0.07046
5579.05983,0.06133
5580.98830,0.04440
5582.91677,0.03025
5584.84524,0.03234
5586.77371,0.05106
5588.70217,0.07630
5590.63064,0.09030
5592.55911,0.08702
5594.48758,0.07383
5596.41605,0.06230
5598.34452,0.06174
5600.27299,0.08063
5602.20145,0.10572
5604.12992,0.10336
5606.05839,0.08051
5607.98686,0.07332
5609.91533,0.06926
5611.84380,0.03729
5613.77227,0.01591
5615.70074,0.03905
5617.62920,0.06149
5619.55767,0.06027
5621.48614,0.07055
5623.41461,0.09007
5625.34308,0.07876
5627.27155,0.04118
5629.20002,0.02460
5631.12848,0.04727
5633.05695,0.07084
5634.98542,0.06027
5636.91389,0.04286
5638.84236,0.04784
5640.77083,0.05024
5642.69930,0.03972
5644.62777,0.04834
5646.55623,0.07585
5648.48470,0.09150
5650.41317,0.09816
5652.34164,0.08963
5654.27011,0.05594
5656.19858,0.02968
5658.12705,0.03444
5660.05551,0.06492
5661.98398,0.10209
5663.91245,0.11142
5665.84092,0.09399
5667.76939,0.08957
5669.69786,0.09248
5671.62633,0.06853
5673.55480,0.02819
5675.48326,0.01012
5677.41173,0.02747
5679.34020,0.05823
5681.26867,0.08317
5683.19714,0.08416
5685.12561,0.06264
5687.05408,0.04502
5688.98254,0.03653
5690.91101,0.03342
5692.83948,0.03698
5694.76795,0.04336
5696.69642,0.05145
5698.62489,0.06481
5700.55336,0.07296
5702.48183,0.06635
5704.41029,0.06790
5706.33876,0.08587
5708.26723,0.10032
5710.19570,0.10198
5712.12417,0.08567
5714.05264,0.05627
5715.98111,0.04216
5717.90957,0.04489
5719.83804,0.04572
5721.76651,0.05698
5723.69498,0.06906
5725.62345,0.06612
5727.55192,0.07527
5729.48039,0.09896
5731.40886,0.12213
5733.33732,0.14446
5735.26579,0.14492
5737.19426,0.11079
5739.12273,0.06196
5741.05120,0.02927
5742.97967,0.03057
5744.90814,0.04199
5746.83660,0.04093
5748.76507,0.04735
5750.69354,0.07077
5752.62201,0.07740
5754.55048,0.07104
5756.47895,0.07435
5758.40742,0.06923
5760.33588,0.05780
5762.26435,0.05545
5764.19282,0.06294
5766.12129,0.08078
5768.04976,0.09831
5769.97823,0.10535
5771.90670,0.09078
5773.83517,0.05555
5775.76363,0.01801
5777.69210,0.00858
5779.62057,0.04288
5781.54904,0.06750
5783.47751,0.05160
5785.40598,0.03772
5787.33445,0.04150
5789.26291,0.03984
5791.19138,0.03631
5793.11985,0.04813
5795.04832,0.05926
5796.97679,0.05577
5798.90526,0.06178
5800.83373,0.07546
5802.76220,0.06984
5804.69066,0.05875
5806.61913,0.05437
5808.54760,0.04748
5810.47607,0.06288
5812.40454,0.08909
5814.33301,0.08246
5816.26148,0.07404
5818.18994,0.07987
5820.11841,0.06714
5822.04688,0.05550
5823.97535,0.07352
5825.90382,0.09550
5827.83229,0.08917
5829.76076,0.06994
5831.68923,0.07016
5833.61769,0.08388
5835.54616,0.09490
5837.47463,0.09609
5839.40310,0.08183
5841.33157,0.06467
5843.26004,0.06303
5845.18851,0.06362
5847.11697,0.04364
5849.04544,0.01264
5850.97391,0.01072
5852.90238,0.03990
5854.83085,0.06598
5856.75932,0.08021
5858.68779,0.09118
5860.61626,0.08960
5862.54472,0.07091
5864.47319,0.07059
5866.40166,0.08606
5868.33013,0.07929
5870.25860,0.07029
5872.18707,0.06990
5874.11554,0.06517
5876.04400,0.06482
5877.97247,0.07829
5879.90094,0.10264
5881.82941,0.11539
5883.75788,0.10150
5885.68635,0.09273
5887.61482,0.11412
5889.54329,0.12655
5891.47175,0.11416
5893.40022,0.09919
5895.32869,0.07369
5897.25716,0.05422
5899.18563,0.06366
5901.11410,0.08655
5903.04257,0.12470
5904.97103,0.15390
5906.89950,0.12376
5908.82797,0.05945
5910.75644,0.02336
5912.68491,0.02378
5914.61338,0.03643
5916.54185,0.04529
5918.47032,0.06452
5920.39878,0.09805
5922.32725,0.10233
5924.25572,0.06975
5926.18419,0.05315
5928.11266,0.05150
5930.04113,0.03195
5931.96960,0.02011
5933.89806,0.03801
5935.82653,0.06166
5937.75500,0.05412
5939.68347,0.02781
5941.61194,0.03904
5943.54041,0.08140
5945.46888,0.09781
5947.39734,0.07733
5949.32581,0.05293
5951.25428,0.05474
5953.18275,0.07201
5955.11122,0.08521
5957.03969,0.07434
5958.96816,0.03947
5960.89663,0.01356
5962.82509,0.00597
5964.75356,0.01763
5966.68203,0.03695
5968.61050,0.03522
5970.53897,0.03398
5972.46744,0.06991
5974.39591,0.11781
5976.32437,0.13240
5978.25284,0.11236
5980.18131,0.08427
5982.10978,0.06594
5984.03825,0.04585
5985.96672,0.00730
5987.89519,-0.02634
5989.82366,-0.00884
5991.75212,0.06291
5993.68059,0.13440
5995.60906,0.14707
5997.53753,0.10569
5999.46600,0.07098
6001.39447,0.08173
6003.32294,0.11004
6005.25140,0.10498
6007.17987,0.07883
6009.10834,0.05185
6011.03681,0.01912
6012.96528,-0.00290
6014.89375,0.00686
6016.82222,0.04327
6018.75069,0.06482
6020.67915,0.07246
6022.60762,0.10611
6024.53609,0.13420
6026.46456,0.11297
6028.39303,0.04914
6030.32150,-0.00852
6032.24997,0.00205
6034.17843,0.05912
6036.10690,0.07087
6038.03537,0.04633
6039.96384,0.03751
6041.89231,0.02503
6043.82078,0.00893
6045.74925,0.01143
6047.67772,0.01479
6049.60618,0.00733
6051.53465,0.01834
6053.46312,0.03295
6055.39159,0.03261
6057.32006,0.06919
6059.24853,0.13232
6061.17700,0.14715
6063.10546,0.10239
6065.03393,0.03352
6066.96240,-0.01404
6068.89087,0.00548
6070.81934,0.06403
6072.74781,0.09632
6074.67628,0.09176
6076.60475,0.07094
6078.53321,0.06096
6080.46168,0.06776
6082.39015,0.08211
6084.31862,0.09114
6086.24709,0.08840
6088.17556,0.08531
6090.10403,0.07882
6092.03249,0.06118
6093.96096,0.03497
6095.88943,0.02224
6097.81790,0.04743
6099.74637,0.09063
6101.67484,0.11140
6103.60331,0.09707
6105.53177,0.07021
6107.46024,0.07432
6109.38871,0.11217
6111.31718,0.11816
6113.24565,0.08132
6115.17412,0.05577
6117.10259,0.04866
6119.03106,0.04697
6120.95952,0.07627
6122.88799,0.12773
6124.81646,0.14966
6126.74493,0.13875
6128.67340,0.12509
6130.60187,0.10637
6132.53034,0.08604
6134.45880,0.08016
6136.38727,0.07842
6138.31574,0.07911
6140.24421,0.07284
6142.17268,0.04963
6144.10115,0.05053
6146.02962,0.07050
6147.95809,0.06651
6149.88655,0.03925
6151.81502,0.02690
6153.74349,0.05527
6155.67196,0.08643
6157.60043,0.10161
6159.52890,0.12216
6161.45737,0.12872
6163.38583,0.08662
6165.31430,0.04238
6167.24277,0.04610
6169.17124,0.05980
6171.09971,0.06165
6173.02818,0.07023
6174.95665,0.06985
6176.88512,0.05206
6178.81358,0.06029
6180.74205,0.07343
6182.67052,0.05111
6184.59899,0.05170
6186.52746,0.10643
6188.45593,0.15740
6190.38440,0.12445
6192.31286,0.03439
6194.24133,0.00394
6196.16980,0.04647
6198.09827,0.08334
6200.02674,0.09637
6201.95521,0.09211
6203.88368,0.05950
6205.81215,0.04457
6207.74061,0.09986
6209.66908,0.17886
6211.59755,0.18765
6213.52602,0.11412
6215.45449,0.04168
6217.38296,0.03870
6219.31143,0.04983
6221.23989,0.03238
6223.16836,0.04811
6225.09683,0.08446
6227.02530,0.06223
6228.95377,0.02560
6230.88224,0.05368
6232.81071,0.09828
6234.73918,0.08339
6236.66764,0.05720
6238.59611,0.07153
6240.52458,0.09120
6242.45305,0.06617
6244.38152,0.02154
6246.30999,0.02172
6248.23846,0.06983
6250.16692,0.09889
6252.09539,0.06863
6254.02386,0.02963
6255.95233,0.01399
6257.88080,0.02241
6259.80927,0.06464
6261.73774,0.11182
6263.66621,0.12233
6265.59467,0.09113
6267.52314,0.05183
6269.45161,0.04245
6271.38008,0.04586
6273.30855,0.03093
6275.23702,0.02768
6277.16549,0.05244
6279.09395,0.06862
6281.02242,0.09224
6282.95089,0.13460
6284.87936,0.14528
6286.80783,0.10800
6288.73630,0.07563
6290.66477,0.07347
6292.59323,0.05391
6294.52170,0.00594
6296.45017,-0.00953
6298.37864,0.03901
6300.30711,0.07999
6302.23558,0.04981
6304.16405,0.02751
6306.09252,0.05728
6308.02098,0.08598
6309.94945,0.07680
6311.87792,0.01796
6313.80639,-0.02060
6315.73486,0.01576
6317.66333,0.04735
6319.59180,0.04061
6321.52026,0.04534
6323.44873,0.05862
6325.37720,0.07921
6327.30567,0.11057
6329.23414,0.10555
6331.16261,0.06935
6333.09108,0.04934
6335.01955,0.03186
6336.94801,0.03955
6338.87648,0.08682
6340.80495,0.11154
6342.73342,0.11081
6344.66189,0.11090
6346.59036,0.10813
6348.51883,0.10519
6350.44729,0.09084
6352.37576,0.07093
6354.30423,0.06109
6356.23270,0.03953
6358.16117,0.00807
6360.08964,0.02143
6362.01811,0.08945
6363.94658,0.13285
6365.87504,0.10400
6367.80351,0.06381
6369.73198,0.04878
6371.66045,0.02509
6373.58892,0.01682
6375.51739,0.03304
6377.44586,0.02823
6379.37432,0.00352
6381.30279,-0.02966
6383.23126,-0.05279
6385.15973,-0.02599
6387.08820,0.02794
6389.01667,0.07558
6390.94514,0.09630
6392.87361,0.05051
6394.80207,-0.01797
6396.73054,-0.02244
6398.65901,0.01282
6400.58748,0.03794
6402.51595,0.04495
6404.44442,0.05247
6406.37289,0.05697
6408.30135,0.04668
6410.22982,0.03570
6412.15829,0.01967
6414.08676,0.00858
6416.01523,0.02495
6417.94370,0.05213
6419.87217,0.08316
6421.80064,0.11710
6423.72910,0.12177
6425.65757,0.09060
6427.58604,0.07402
6429.51451,0.06130
6431.44298,-0.02057
6433.37145,-0.10503
6435.29992,-0.08774
6437.22838,-0.00403
6439.15685,0.09244
6441.08532,0.18596
6443.01379,0.23025
6444.94226,0.20314
6446.87073,0.14150
6448.79920,0.06006
6450.72766,0.00329
6452.65613,-0.00575
6454.58460,-0.01114
6456.51307,-0.01417
6458.44154,-0.02077
6460.37001,-0.03787
6462.29848,-0.03170
6464.22695,-0.01626
6466.15541,-0.00455
6468.08388,0.02360
6470.01235,0.05494
6471.94082,0.07946
6473.86929,0.08760
6475.79776,0.06968
6477.72623,0.04922
6479.65469,0.00573
6481.58316,-0.07063
6483.51163,-0.08565
6485.44010,-0.00068
6487.36857,0.11527
6489.29704,0.16598
6491.22551,0.13274
6493.15398,0.09561
6495.08244,0.09450
6497.01091,0.11380
6498.93938,0.12344
6500.86785,0.08277
6502.79632,0.00766
6504.72479,-0.02756
6506.65326,-0.00019
6508.58172,0.02848
6510.51019,0.02796
6512.43866,0.04952
6514.36713,0.09122
6516.29560,0.09634
6518.22407,0.09938
6520.15254,0.12713
6522.08101,0.11109
6524.00947,0.07285
6525.93794,0.08940
6527.86641,0.10566
6529.79488,0.06913
6531.72335,0.02825
6533.65182,0.03465
6535.58029,0.06166
6537.50875,0.08267
6539.43722,0.12492
6541.36569,0.16393
6543.29416,0.15830
6545.22263,0.13303
6547.15110,0.09588
6549.07957,0.04327
6551.00804,0.00293
6552.93650,-0.02202
6554.86497,-0.03795
6556.79344,-0.04901
6558.72191,-0.04990
6560.65038,-0.03065
6562.57885,0.01300
6564.50732,0.09156
6566.43578,0.12056
6568.36425,0.06666
6570.29272,0.05208
6572.22119,0.07359
6574.14966,0.03368
6576.07813,-0.02339
6578.00660,0.00453
6579.93507,0.09615
6581.86353,0.12026
6583.79200,0.05197
6585.72047,0.03825
6587.64894,0.09196
6589.57741,0.09383
6591.50588,0.07250
6593.43435,0.09758
6595.36281,0.11313
6597.29128,0.11079
6599.21975,0.14242
6601.14822,0.15093
6603.07669,0.07760
6605.00516,0.00663
6606.93363,0.01294
6608.86210,0.07970
6610.79056,0.13653
6612.71903,0.11706
6614.64750,0.03844
6616.57597,-0.00623
6618.50444,0.00004
6620.43291,0.01240
6622.36138,0.05229
6624.28984,0.12607
6626.21831,0.17963
6628.14678,0.15517
6630.07525,0.08050
6632.00372,0.07519
6633.93219,0.10745
6635.86066,0.08517
6637.78912,0.02645
6639.71759,-0.02623
6641.64606,-0.03988
6643.57453,-0.00876
6645.50300,0.02797
6647.43147,0.04457
6649.35994,0.03349
6651.28841,0.02554
6653.21687,0.04213
6655.14534,0.06903
6657.07381,0.10770
6659.00228,0.13402
6660.93075,0.11444
6662.85922,0.07186
6664.78769,0.02205
6666.71615,-0.03641
6668.64462,-0.08553
6670.57309,-0.07922
6672.50156,-0.00615
6674.43003,0.02341
6676.35850,-0.03203
6678.28697,-0.08085
6680.21544,-0.07314
6682.14390,-0.03119
6684.07237,0.00598
6686.00084,-0.00895
6687.92931,-0.09184
6689.85778,-0.16726
6691.78625,-0.18651
6693.71472,-0.15897
6695.64318,-0.08910
6697.57165,-0.05637
6699.50012,-0.09345
6701.42859,-0.10248
6703.35706,-0.04646
6705.28553,-0.01076
6707.21400,-0.03657
6709.14247,-0.03087
6711.07093,0.05597
6712.99940,0.15810
6714.92787,0.20899
6716.85634,0.19890
6718.78481,0.13487
6720.71328,0.03184
6722.64175,-0.02035
6724.57021,-0.01291
6726.49868,-0.04126
6728.42715,-0.05688
6730.35562,0.03049
6732.28409,0.11482
6734.21256,0.09200
6736.14103,0.02299
6738.06950,-0.00119
6739.99796,0.02887
6741.92643,0.07055
6743.85490,0.08908
6745.78337,0.08280
6747.71184,0.06036
6749.64031,0.04978
6751.56878,0.07093
6753.49724,0.08596
6755.42571,0.08777
6757.35418,0.10454
6759.28265,0.10062
6761.21112,0.07079
6763.13959,0.04547
6765.06806,-0.00615
6766.99653,-0.02205
6768.92499,0.06843
6770.85346,0.13651
6772.78193,0.10064
6774.71040,0.06149
6776.63887,0.05442
6778.56734,0.07072
6780.49581,0.11148
6782.42427,0.09123
6784.35274,0.00208
6786.28121,-0.04754
6788.20968,-0.04047
6790.13815,-0.01719
6792.06662,0.02468
6793.99509,0.07728
6795.92355,0.12942
6797.85202,0.15128
6799.78049,0.10697
6801.70896,0.06233
6803.63743,0.10542
6805.56590,0.16342
6807.49437,0.16712
6809.42284,0.17251
6811.35130,0.20132
6813.27977,0.20669
6815.20824,0.19154
6817.13671,0.17316
6819.06518,0.13469
6820.99365,0.03117
6822.92212,-0.10770
6824.85058,-0.10590
6826.77905,0.00384
6828.70752,0.06375
6830.63599,0.04392
6832.56446,0.01923
6834.49293,0.01854
6836.42140,0.01626
6838.34987,0.01146
6840.27833,-0.00883
6842.20680,-0.05150
6844.13527,-0.02792
6846.06374,0.08810
6847.99221,0.18003
6849.92068,0.18502
6851.84915,0.15924
6853.77761,0.08488
6855.70608,-0.05102
6857.63455,-0.11670
6859.56302,-0.06698
6861.49149,0.01728
6863.41996,0.08788
6865.34843,0.17485
6867.27690,0.26706
6869.20536,0.24516
6871.13383,0.09546
6873.06230,-0.01953
6874.99077,0.00732
6876.91924,0.07520
6878.84771,0.11923
6880.77618,0.13585
6882.70464,0.14102
6884.63311,0.17408
6886.56158,0.21146
6888.49005,0.18233
6890.41852,0.10860
6892.34699,0.07336
6894.27546,0.07192
6896.20393,0.06193
6898.13239,0.03651
6900.06086,-0.01407
6901.98933,-0.05836
6903.91780,-0.03818
6905.84627,0.05012
6907.77474,0.15711
6909.70321,0.23694
6911.63167,0.23790
6913.56014,0.12312
6915.48861,-0.04557
6917.41708,-0.16603
6919.34555,-0.15548
6921.27402,0.00557
6923.20249,0.15997
6925.13096,0.15263
6927.05942,0.02402
6928.98789,-0.10146
6930.91636,-0.15433
6932.84483,-0.10788
6934.77330,0.00650
6936.70177,0.12334
6938.63024,0.21173
6940.55870,0.21874
6942.48717,0.12214
6944.41564,0.06035
6946.34411,0.09765
6948.27258,0.12022
6950.20105,0.09080
6952.12952,0.05308
6954.05799,0.01662
6955.98645,0.00684
6957.91492,0.02674
6959.84339,0.06884
6961.77186,0.10312
6963.70033,0.11646
6965.62880,0.13808
6967.55727,0.12466
6969.48573,0.07301
6971.41420,0.09919
6973.34267,0.13769
6975.27114,0.01034
6977.19961,-0.11540
6979.12808,-0.05387
6981.05655,0.05409
6982.98501,0.07550
6984.91348,0.03772
6986.84195,-0.05404
6988.77042,-0.11424
6990.69889,-0.02970
6992.62736,0.08466
6994.55583,0.13362
6996.48430,0.13589
6998.41276,0.10178
7000.34123,0.09360
7002.26970,0.15672
7004.19817,0.20446
7006.12664,0.17467
7008.05511,0.09713
7009.98358,0.04237
7011.91204,0.07218
7013.84051,0.16132
7015.76898,0.16689
7017.69745,0.09881
7019.62592,0.05015
7021.55439,0.00163
7023.48286,-0.09663
7025.41133,-0.19758
7027.33979,-0.14012
7029.26826,0.06552
7031.19673,0.11264
7033.12520,0.01083
7035.05367,-0.03946
7036.98214,-0.01587
7038.91061,-0.00351
7040.83907,0.00659
7042.76754,0.06656
7044.69601,0.09614
7046.62448,0.03895
7048.55295,-0.00654
7050.48142,0.01488
7052.40989,0.09097
7054.33836,0.16491
7056.26682,0.14599
7058.19529,0.06290
7060.12376,0.04166
7062.05223,0.06449
7063.98070,0.05292
7065.90917,0.01489
7067.83764,-0.01678
7069.76610,-0.01103
7071.69457,0.05899
7073.62304,0.05802
7075.55151,-0.02373
7077.47998,-0.00881
7079.40845,0.09472
7081.33692,0.06437
7083.26539,-0.09535
7085.19385,-0.10961
7087.12232,0.02309
7089.05079,0.05233
7090.97926,-0.07356
7092.90773,-0.18479
7094.83620,-0.17973
7096.76467,-0.07895
7098.69313,0.00159
7100.62160,-0.02198
7102.55007,-0.02659
7104.47854,0.03757
7106.40701,0.05238
7108.33548,0.06529
7110.26395,0.15255
7112.19242,0.17612
7114.12088,0.06677
7116.04935,-0.05716
7117.97782,-0.06932
7119.90629,-0.04534
7121.83476,-0.10043
7123.76323,-0.17416
7125.69170,-0.17759
7127.62016,-0.09694
7129.54863,-0.03226
7131.47710,-0.02143
7133.40557,0.00983
7135.33404,0.08630
7137.26251,0.19117
7139.19098,0.26977
7141.11944,0.21508
7143.04791,0.08870
7144.97638,0.05307
7146.90485,0.06700
7148.83332,0.03219
7150.76179,0.03421
7152.69026,0.11716
7154.61873,0.12966
7156.54719,0.02991
7158.47566,-0.01392
7160.40413,0.02182
7162.33260,0.06184
7164.26107,0.06876
7166.18954,-0.00841
7168.11801,-0.10518
7170.04647,-0.08568
7171.97494,-0.07842
7173.90341,-0.17126
7175.83188,-0.15892
7177.76035,-0.01799
7179.68882,0.08816
7181.61729,0.17449
7183.54576,0.21135
7185.47422,0.16158
7187.40269,0.12757
7189.33116,0.09726
7191.25963,0.00463
7193.18810,-0.07174
7195.11657,-0.01679
7197.04504,0.10007
7198.97350,0.16143
7200.90197,0.15739
7202.83044,0.10998
7204.75891,0.07458
7206.68738,0.07030
7208.61585,0.03422
7210.54432,0.00347
7212.47279,0.02153
7214.40125,0.08737
7216.32972,0.14300
7218.25819,0.07695
7220.18666,-0.00904
7222.11513,0.02748
7224.04360,0.12669
7225.97207,0.19507
7227.90053,0.16811
7229.82900,0.07006
7231.75747,0.02816
7233.68594,0.07007
7235.61441,0.16274
7237.54288,0.31711
7239.47135,0.40647
7241.39982,0.41447
7243.32828,0.36025
7245.25675,0.19598
7247.18522,0.05188
7249.11369,0.02183
7251.04216,0.05629
7252.97063,0.03661
7254.89910,-0.05593
7256.82756,-0.13816
7258.75603,-0.19261
7260.68450,-0.17993
7262.61297,-0.04927
7264.54144,0.06925
7266.46991,0.08888
7268.39838,0.14029
7270.32685,0.21019
7272.25531,0.18496
7274.18378,0.09500
7276.11225,0.02629
7278.04072,-0.03415
7279.96919,-0.18949
7281.89766,-0.36035
7283.82613,-0.34352
7285.75459,-0.20076
7287.68306,-0.08354
7289.61153,-0.05515
7291.54000,-0.05511
7293.46847,-0.00201
7295.39694,0.01706
7297.32541,-0.02551
7299.25387,-0.03434
7301.18234,-0.03679
7303.11081,0.00718
7305.03928,0.17762
7306.96775,0.26910
7308.89622,0.14930
7310.82469,0.06734
7312.75316,0.10426
7314.68162,0.15806
7316.61009,0.17168
7318.53856,0.14414
7320.46703,0.08858
7322.39550,0.07289
7324.32397,0.16382
7326.25244,0.24637
7328.18090,0.28717
7330.10937,0.32822
7332.03784,0.33180
7333.96631,0.28653
7335.89478,0.25642
7337.82325,0.31400
7339.75172,0.38800
7341.68019,0.32657
7343.60865,0.32454
7345.53712,0.44660
7347.46559,0.42595
7349.39406,0.13110
7351.32253,-0.08679
7353.25100,0.00445
7355.17947,0.20562
7357.10793,0.31760
7359.03640,0.28859
7360.96487,0.13709
7362.89334,-0.01547
7364.82181,-0.02278
7366.75028,0.11186
7368.67875,0.22250
7370.60722,0.17699
7372.53568,0.09511
7374.46415,0.04642
7376.39262,-0.00456
7378.32109,-0.04351
7380.24956,-0.08682
7382.17803,-0.14691
7384.10650,-0.18779
7386.03496,-0.15113
7387.96343,-0.02876
7389.89190,0.06847
7391.82037,0.07509
7393.74884,0.00497
7395.67731,-0.08223
7397.60578,-0.12260
7399.53425,-0.09570
7401.46271,-0.03767
7403.39118,0.00993
7405.31965,0.00275
7407.24812,-0.02826
7409.17659,-0.02721
7411.10506,-0.03696
7413.03353,-0.06304
7414.96199,-0.05281
7416.89046,0.02114
7418.81893,0.06102
7420.74740,-0.02825
7422.67587,-0.08136
7424.60434,-0.09115
7426.53281,-0.09761
7428.46128,-0.10725
7430.38974,-0.14431
7432.31821,-0.10896
7434.24668,0.01345
7436.17515,0.03093
7438.10362,-0.07955
7440.03209,-0.07914
7441.96056,0.05462
7443.88902,0.19152
7445.81749,0.24595
7447.74596,0.17033
7449.67443,0.05747
7451.60290,-0.00534
7453.53137,-0.00472
7455.45984,0.08122
7457.38831,0.22296
7459.31677,0.39603
7461.24524,0.40150
7463.17371,0.20003
7465.10218,0.06331
7467.03065,0.02094
7468.95912,-0.00262
7470.88759,0.05567
7472.81605,0.14563
7474.74452,0.19059
7476.67299,0.18953
7478.60146,0.08490
7480.52993,0.01791
7482.45840,0.15947
7484.38687,0.37220
7486.31533,0.44955
7488.24380,0.26900
7490.17227,0.01608
7492.10074,-0.06685
7494.02921,0.00049
7495.95768,0.17979
7497.88615,0.44730
