399.19301,5.70214
401.12148,0.35878
403.04995,0.16924
404.97842,0.18920
406.90689,0.27058
408.83536,0.27612
410.76382,0.15658
412.69229,0.05013
414.62076,-0.01028
416.54923,-0.00635
418.47770,0.09042
420.40617,0.09682
422.33464,0.11816
424.26311,0.24943
426.19157,0.30523
428.12004,0.23833
430.04851,0.22210
431.97698,0.26040
433.90545,0.14118
435.83392,0.00203
437.76239,0.06021
439.69085,0.19833
441.61932,0.16162
443.54779,0.03544
445.47626,0.06066
447.40473,0.13045
449.33320,0.05137
451.26167,-0.08158
453.19013,-0.09856
455.11860,-0.02054
457.04707,0.07178
458.97554,0.07977
460.90401,0.03855
462.83248,0.03016
464.76095,0.05005
466.68942,0.05054
468.61788,0.00902
470.54635,-0.03987
472.47482,-0.08100
474.40329,-0.04607
476.33176,0.05433
478.26023,0.09335
480.18870,0.06991
482.11716,0.06475
484.04563,0.10261
485.97410,0.08195
487.90257,0.00624
489.83104,-0.01805
491.75951,0.03660
493.68798,0.06349
495.61645,0.04443
497.54491,0.07968
499.47338,0.13438
501.40185,0.12089
503.33032,0.05943
505.25879,0.00541
507.18726,-0.01690
509.11573,-0.01684
511.04419,-0.00812
512.97266,0.02155
514.90113,0.03964
516.82960,0.02460
518.75807,0.01121
520.68654,0.05824
522.61501,0.16616
524.54348,0.20496
526.47194,0.11478
528.40041,0.04743
530.32888,0.06440
532.25735,0.07197
534.18582,0.05807
536.11429,0.07617
538.04276,0.10389
539.97122,0.11289
541.89969,0.11324
543.82816,0.10158
545.75663,0.06746
547.68510,0.04944
549.61357,0.17592
551.54204,0.72524
553.47051,1.35202
555.39897,1.17091
557.32744,0.47550
559.25591,0.17595
561.18438,0.16774
563.11285,0.12801
565.04132,0.07198
566.96979,0.03491
568.89825,0.01364
570.82672,-0.00005
572.75519,0.01736
574.68366,0.05706
576.61213,0.07249
578.54060,0.05093
580.46907,0.03016
582.39754,0.03965
584.32600,0.07455
586.25447,0.11412
588.18294,0.11044
590.11141,0.05770
592.03988,0.02287
593.96835,0.03558
595.89682,0.06863
597.82528,0.11185
599.75375,0.14202
601.68222,0.14740
603.61069,0.15331
605.53916,0.15236
607.46763,0.11723
609.39610,0.07345
611.32456,0.05485
613.25303,0.04255
615.18150,0.02961
617.10997,0.04274
619.03844,0.07870
620.96691,0.11205
622.89538,0.13031
624.82385,0.12612
626.75231,0.10164
628.68078,0.08808
630.60925,0.10460
632.53772,0.11484
634.46619,0.08552
636.39466,0.05727
638.32313,0.06446
640.25159,0.08283
642.18006,0.09386
644.10853,0.09380
646.03700,0.08556
647.96547,0.09795
649.89394,0.12713
651.82241,0.13110
653.75088,0.11704
655.67934,0.10720
657.60781,0.09934
659.53628,0.08948
661.46475,0.07962
663.39322,0.07897
665.32169,0.07800
667.25016,0.06455
669.17862,0.06761
671.10709,0.09703
673.03556,0.11944
674.96403,0.11757
676.89250,0.10066
678.82097,0.10504
680.74944,0.11825
682.67791,0.10240
684.60637,0.07917
686.53484,0.08420
688.46331,0.09635
690.39178,0.08341
692.32025,0.06554
694.24872,0.06842
696.17719,0.08105
698.10565,0.09202
700.03412,0.09925
701.96259,0.09828
703.89106,0.09033
705.81953,0.08412
707.74800,0.08979
709.67647,0.11328
711.60494,0.13604
713.53340,0.12659
715.46187,0.10002
717.39034,0.09115
719.31881,0.09327
721.24728,0.08706
723.17575,0.06907
725.10422,0.05605
727.03268,0.06663
728.96115,0.08931
730.88962,0.10952
732.81809,0.12094
734.74656,0.11191
736.67503,0.09593
738.60350,0.09043
740.53197,0.08680
742.46043,0.08595
744.38890,0.09321
746.31737,0.09557
748.24584,0.09237
750.17431,0.08975
752.10278,0.09008
754.03125,0.10436
755.95971,0.12088
757.88818,0.11694
759.81665,0.10309
761.74512,0.09885
763.67359,0.10171
765.60206,0.10273
767.53053,0.10446
769.45900,0.10681
771.38746,0.10615
773.31593,0.10633
775.24440,0.10131
777.17287,0.07949
779.10134,0.05988
781.02981,0.06705
782.95828,0.08501
784.88674,0.09697
786.81521,0.11171
788.74368,0.11964
790.67215,0.10842
792.60062,0.08970
794.52909,0.07312
796.45756,0.06363
798.38602,0.07163
800.31449,0.09842
802.24296,0.11456
804.17143,0.10297
806.09990,0.09336
808.02837,0.09758
809.95684,0.10289
811.88531,0.11333
813.81377,0.12306
815.74224,0.11974
817.67071,0.11219
819.59918,0.10322
821.52765,0.08994
823.45612,0.08722
825.38459,0.10452
827.31305,0.13060
829.24152,0.14845
831.16999,0.14173
833.09846,0.11452
835.02693,0.09197
836.95540,0.07949
838.88387,0.07043
840.81234,0.07048
842.74080,0.08558
844.66927,0.10191
846.59774,0.09722
848.52621,0.07841
850.45468,0.07249
852.38315,0.08948
854.31162,0.11237
856.24008,0.12243
858.16855,0.12022
860.09702,0.11598
862.02549,0.11307
863.95396,0.10864
865.88243,0.11019
867.81090,0.12768
869.73937,0.15302
871.66783,0.15750
873.59630,0.12599
875.52477,0.08852
877.45324,0.07404
879.38171,0.07400
881.31018,0.08226
883.23865,0.10198
885.16711,0.11933
887.09558,0.12327
889.02405,0.12242
890.95252,0.12634
892.88099,0.13465
894.80946,0.13529
896.73793,0.12086
898.66640,0.10253
900.59486,0.09692
902.52333,0.10590
904.45180,0.10743
906.38027,0.09412
908.30874,0.09224
910.23721,0.11291
912.16568,0.13654
914.09414,0.14448
916.02261,0.13717
917.95108,0.13056
919.87955,0.13112
921.80802,0.13152
923.73649,0.13698
925.66496,0.14860
927.59343,0.14601
929.52189,0.12467
931.45036,0.10538
933.37883,0.09773
935.30730,0.09501
937.23577,0.09636
939.16424,0.10344
941.09271,0.11149
943.02117,0.11397
944.94964,0.11104
946.87811,0.11251
948.80658,0.12079
950.73505,0.12998
952.66352,0.13650
954.59199,0.13755
956.52045,0.13503
958.44892,0.12772
960.37739,0.11379
962.30586,0.10528
964.23433,0.11057
966.16280,0.11868
968.09127,0.11915
970.01974,0.11778
971.94820,0.11956
973.87667,0.11995
975.80514,0.12148
977.73361,0.12723
979.66208,0.13379
981.59055,0.14231
983.51902,0.14561
985.44748,0.13711
987.37595,0.13202
989.30442,0.13434
991.23289,0.13318
993.16136,0.13221
995.08983,0.12923
997.01830,0.12172
998.94677,0.12424
1000.87523,0.13529
1002.80370,0.14233
1004.73217,0.14451
1006.66064,0.14435
1008.58911,0.14509
1010.51758,0.14629
1012.44605,0.14305
1014.37451,0.13432
1016.30298,0.12281
1018.23145,0.11613
1020.15992,0.11463
1022.08839,0.11114
1024.01686,0.10972
1025.94533,0.10033
1027.87380,0.07262
1029.80226,0.06315
1031.73073,0.09103
1033.65920,0.11986
1035.58767,0.12936
1037.51614,0.12613
1039.44461,0.11614
1041.37308,0.11247
1043.30154,0.12051
1045.23001,0.12553
1047.15848,0.12577
1049.08695,0.12844
1051.01542,0.12576
1052.94389,0.12172
1054.87236,0.12786
1056.80083,0.13430
1058.72929,0.13397
1060.65776,0.13195
1062.58623,0.12983
1064.51470,0.13410
1066.44317,0.14334
1068.37164,0.14126
1070.30011,0.13304
1072.22857,0.13708
1074.15704,0.14731
1076.08551,0.14939
1078.01398,0.14322
1079.94245,0.13001
1081.87092,0.11609
1083.79939,0.11803
1085.72786,0.12644
1087.65632,0.11883
1089.58479,0.10758
1091.51326,0.10592
1093.44173,0.10505
1095.37020,0.10632
1097.29867,0.11505
1099.22714,0.12444
1101.15560,0.12975
1103.08407,0.13374
1105.01254,0.13740
1106.94101,0.13742
1108.86948,0.13744
1110.79795,0.14478
1112.72642,0.15285
1114.65489,0.15363
1116.58335,0.14966
1118.51182,0.14352
1120.44029,0.13507
1122.36876,0.12726
1124.29723,0.12801
1126.22570,0.13767
1128.15417,0.14139
1130.08263,0.13241
1132.01110,0.12615
1133.93957,0.12754
1135.86804,0.12475
1137.79651,0.12009
1139.72498,0.12003
1141.65345,0.12329
1143.58191,0.12994
1145.51038,0.13827
1147.43885,0.14334
1149.36732,0.14246
1151.29579,0.14155
1153.22426,0.14431
1155.15273,0.14435
1157.08120,0.14159
1159.00966,0.14153
1160.93813,0.14215
1162.86660,0.14316
1164.79507,0.14465
1166.72354,0.14259
1168.65201,0.14383
1170.58048,0.15327
1172.50894,0.15984
1174.43741,0.15513
1176.36588,0.14379
1178.29435,0.13719
1180.22282,0.14049
1182.15129,0.14398
1184.07976,0.14307
1186.00823,0.14696
1187.93669,0.15182
1189.86516,0.14812
1191.79363,0.14300
1193.72210,0.14198
1195.65057,0.13945
1197.57904,0.13548
1199.50751,0.13609
1201.43597,0.14044
1203.36444,0.14320
1205.29291,0.14042
1207.22138,0.13455
1209.14985,0.13332
1211.07832,0.13791
1213.00679,0.14223
1214.93526,0.14187
1216.86372,0.14000
1218.79219,0.14203
1220.72066,0.14636
1222.64913,0.14732
1224.57760,0.14481
1226.50607,0.14253
1228.43454,0.14240
1230.36300,0.14463
1232.29147,0.14557
1234.21994,0.14391
1236.14841,0.14273
1238.07688,0.14236
1240.00535,0.14133
1241.93382,0.14006
1243.86229,0.14096
1245.79075,0.14062
1247.71922,0.13640
1249.64769,0.13761
1251.57616,0.14621
1253.50463,0.15206
1255.43310,0.15039
1257.36157,0.14286
1259.29003,0.13521
1261.21850,0.13369
1263.14697,0.13683
1265.07544,0.14069
1267.00391,0.14336
1268.93238,0.14087
1270.86085,0.13598
1272.78932,0.13706
1274.71778,0.14175
1276.64625,0.14560
1278.57472,0.14974
1280.50319,0.14890
1282.43166,0.14226
1284.36013,0.13932
1286.28860,0.14090
1288.21706,0.14267
1290.14553,0.14571
1292.07400,0.14930
1294.00247,0.14938
1295.93094,0.14612
1297.85941,0.14341
1299.78788,0.13865
1301.71634,0.12462
1303.64481,0.10556
1305.57328,0.10404
1307.50175,0.12850
1309.43022,0.15159
1311.35869,0.15726
1313.28716,0.15932
1315.21563,0.16368
1317.14409,0.16575
1319.07256,0.16489
1321.00103,0.15936
1322.92950,0.15195
1324.85797,0.14721
1326.78644,0.14518
1328.71491,0.14707
1330.64337,0.14989
1332.57184,0.15194
1334.50031,0.15183
1336.42878,0.14783
1338.35725,0.14789
1340.28572,0.14668
1342.21419,0.13417
1344.14266,0.11887
1346.07112,0.11291
1347.99959,0.12302
1349.92806,0.13459
1351.85653,0.13402
1353.78500,0.13188
1355.71347,0.13802
1357.64194,0.15008
1359.57040,0.16043
1361.49887,0.16189
1363.42734,0.15546
1365.35581,0.15131
1367.28428,0.15326
1369.21275,0.15959
1371.14122,0.16808
1373.06969,0.17466
1374.99815,0.17362
1376.92662,0.16802
1378.85509,0.16580
1380.78356,0.16564
1382.71203,0.16308
1384.64050,0.16239
1386.56897,0.16795
1388.49743,0.16851
1390.42590,0.16188
1392.35437,0.16249
1394.28284,0.17285
1396.21131,0.17950
1398.13978,0.17471
1400.06825,0.16874
1401.99672,0.16985
1403.92518,0.17400
1405.85365,0.17265
1407.78212,0.16696
1409.71059,0.16638
1411.63906,0.16888
1413.56753,0.16809
1415.49600,0.16867
1417.42446,0.17645
1419.35293,0.18554
1421.28140,0.18797
1423.20987,0.18487
1425.13834,0.17748
1427.06681,0.17379
1428.99528,0.17505
1430.92375,0.17573
1432.85221,0.17976
1434.78068,0.19073
1436.70915,0.19757
1438.63762,0.18767
1440.56609,0.17388
1442.49456,0.16419
1444.42303,0.16151
1446.35149,0.16867
1448.27996,0.17830
1450.20843,0.17954
1452.13690,0.17993
1454.06537,0.19058
1455.99384,0.21241
1457.92231,0.21660
1459.85077,0.19466
1461.77924,0.18395
1463.70771,0.18232
1465.63618,0.17691
1467.56465,0.17228
1469.49312,0.18172
1471.42159,0.20578
1473.35006,0.21930
1475.27852,0.20626
1477.20699,0.18816
1479.13546,0.17617
1481.06393,0.17399
1482.99240,0.17545
1484.92087,0.17910
1486.84934,0.19122
1488.77780,0.20407
1490.70627,0.19811
1492.63474,0.18592
1494.56321,0.18641
1496.49168,0.19615
1498.42015,0.19475
1500.34862,0.18450
1502.27709,0.18525
1504.20555,0.20300
1506.13402,0.23624
1508.06249,0.23730
1509.99096,0.20640
1511.91943,0.19078
1513.84790,0.19788
1515.77637,0.21780
1517.70483,0.22723
1519.63330,0.22737
1521.56177,0.22919
1523.49024,0.22301
1525.41871,0.21421
1527.34718,0.20331
1529.27565,0.19285
1531.20412,0.18987
1533.13258,0.18986
1535.06105,0.19076
1536.98952,0.20286
1538.91799,0.23653
1540.84646,0.27308
1542.77493,0.26093
1544.70340,0.23027
1546.63186,0.20983
1548.56033,0.20734
1550.48880,0.20997
1552.41727,0.21074
1554.34574,0.21905
1556.27421,0.23842
1558.20268,0.26681
1560.13115,0.25125
1562.05961,0.21626
1563.98808,0.20002
1565.91655,0.19532
1567.84502,0.19780
1569.77349,0.19578
1571.70196,0.18417
1573.63043,0.18076
1575.55889,0.18720
1577.48736,0.18626
1579.41583,0.17866
1581.34430,0.17553
1583.27277,0.17664
1585.20124,0.17970
1587.12971,0.18315
1589.05818,0.18406
1590.98664,0.18149
1592.91511,0.17972
1594.84358,0.18014
1596.77205,0.18097
1598.70052,0.18364
1600.62899,0.18687
1602.55746,0.18655
1604.48592,0.18466
1606.41439,0.18515
1608.34286,0.18481
1610.27133,0.18329
1612.19980,0.18625
1614.12827,0.19354
1616.05674,0.20054
1617.98521,0.19862
1619.91367,0.19299
1621.84214,0.19203
1623.77061,0.19456
1625.69908,0.19785
1627.62755,0.19794
1629.55602,0.19348
1631.48449,0.19385
1633.41295,0.20610
1635.34142,0.22573
1637.26989,0.22489
1639.19836,0.20767
1641.12683,0.19441
1643.05530,0.19188
1644.98377,0.20391
1646.91223,0.22149
1648.84070,0.22422
1650.76917,0.22806
1652.69764,0.24203
1654.62611,0.23261
1656.55458,0.21192
1658.48305,0.20165
1660.41152,0.20277
1662.33998,0.20746
1664.26845,0.20240
1666.19692,0.20331
1668.12539,0.22112
1670.05386,0.23055
1671.98233,0.22039
1673.91080,0.21588
1675.83926,0.21117
1677.76773,0.20465
1679.69620,0.20734
1681.62467,0.22073
1683.55314,0.24149
1685.48161,0.23766
1687.41008,0.21703
1689.33855,0.20572
1691.26701,0.19785
1693.19548,0.19529
1695.12395,0.20630
1697.05242,0.22355
1698.98089,0.23522
1700.90936,0.23143
1702.83783,0.21632
1704.76629,0.20868
1706.69476,0.20144
1708.62323,0.19057
1710.55170,0.18648
1712.48017,0.19187
1714.40864,0.20654
1716.33711,0.22658
1718.26558,0.22547
1720.19404,0.20702
1722.12251,0.19620
1724.05098,0.19113
1725.97945,0.18636
1727.90792,0.18822
1729.83639,0.19979
1731.76486,0.21208
1733.69332,0.21561
1735.62179,0.20681
1737.55026,0.20047
1739.47873,0.19682
1741.40720,0.19241
1743.33567,0.19288
1745.26414,0.19900
1747.19261,0.20873
1749.12107,0.21437
1751.04954,0.20356
1752.97801,0.18939
1754.90648,0.18702
1756.83495,0.19220
1758.76342,0.19796
1760.69189,0.20132
1762.62035,0.19737
1764.54882,0.19060
1766.47729,0.19115
1768.40576,0.19869
1770.33423,0.20868
1772.26270,0.21437
1774.19117,0.20700
1776.11964,0.19648
1778.04810,0.19174
1779.97657,0.19067
1781.90504,0.18876
1783.83351,0.18563
1785.76198,0.18321
1787.69045,0.18698
1789.61892,0.19995
1791.54738,0.21052
1793.47585,0.20514
1795.40432,0.19751
1797.33279,0.19568
1799.26126,0.19613
1801.18973,0.19621
1803.11820,0.19369
1805.04666,0.19005
1806.97513,0.18908
1808.90360,0.19303
1810.83207,0.19549
1812.76054,0.18987
1814.68901,0.18581
1816.61748,0.18198
1818.54595,0.16394
1820.47441,0.14512
1822.40288,0.15200
1824.33135,0.17758
1826.25982,0.19206
1828.18829,0.19410
1830.11676,0.19449
1832.04523,0.19187
1833.97369,0.19146
1835.90216,0.19103
1837.83063,0.18512
1839.75910,0.18226
1841.68757,0.19057
1843.61604,0.20399
1845.54451,0.20642
1847.47298,0.19759
1849.40144,0.18862
1851.32991,0.18501
1853.25838,0.18481
1855.18685,0.18259
1857.11532,0.18076
1859.04379,0.18351
1860.97226,0.18601
1862.90072,0.18583
1864.82919,0.18827
1866.75766,0.19515
1868.68613,0.19936
1870.61460,0.19345
1872.54307,0.18557
1874.47154,0.18313
1876.40001,0.18390
1878.32847,0.18426
1880.25694,0.18525
1882.18541,0.18640
1884.11388,0.18408
1886.04235,0.18253
1887.97082,0.18800
1889.89929,0.19294
1891.82775,0.19050
1893.75622,0.18711
1895.68469,0.18450
1897.61316,0.18214
1899.54163,0.18178
1901.47010,0.18112
1903.39857,0.18117
1905.32704,0.18501
1907.25550,0.18998
1909.18397,0.19144
1911.11244,0.18773
1913.04091,0.18354
1914.96938,0.18493
1916.89785,0.18977
1918.82632,0.19059
1920.75478,0.18943
1922.68325,0.18962
1924.61172,0.18614
1926.54019,0.18139
1928.46866,0.18181
1930.39713,0.18396
1932.32560,0.18259
1934.25407,0.18164
1936.18253,0.18574
1938.11100,0.18983
1940.03947,0.19102
1941.96794,0.19307
1943.89641,0.19330
1945.82488,0.18929
1947.75335,0.18539
1949.68181,0.18480
1951.61028,0.18825
1953.53875,0.19301
1955.46722,0.19442
1957.39569,0.19233
1959.32416,0.19004
1961.25263,0.18754
1963.18110,0.18474
1965.10956,0.18490
1967.03803,0.18875
1968.96650,0.19138
1970.89497,0.19067
1972.82344,0.19058
1974.75191,0.19147
1976.68038,0.19116
1978.60884,0.19096
1980.53731,0.18956
1982.46578,0.18453
1984.39425,0.18151
1986.32272,0.18523
1988.25119,0.19069
1990.17966,0.19252
1992.10812,0.19090
1994.03659,0.18885
1995.96506,0.18807
1997.89353,0.18792
1999.82200,0.18724
2001.75047,0.18485
2003.67894,0.18331
2005.60741,0.18453
2007.53587,0.18592
2009.46434,0.18758
2011.39281,0.18935
2013.32128,0.18962
2015.24975,0.18969
2017.17822,0.18881
2019.10669,0.18586
2021.03515,0.18411
2022.96362,0.18550
2024.89209,0.18707
2026.82056,0.18773
2028.74903,0.18825
2030.67750,0.18690
2032.60597,0.18425
2034.53444,0.18265
2036.46290,0.18271
2038.39137,0.18345
2040.31984,0.18447
2042.24831,0.18600
2044.17678,0.18524
2046.10525,0.18188
2048.03372,0.18101
2049.96218,0.18369
2051.89065,0.18484
2053.81912,0.18294
2055.74759,0.18185
2057.67606,0.18335
2059.60453,0.18608
2061.53300,0.18990
2063.46147,0.19377
2065.38993,0.19455
2067.31840,0.19211
2069.24687,0.18935
2071.17534,0.18913
2073.10381,0.19047
2075.03228,0.18966
2076.96075,0.18763
2078.88921,0.18736
2080.81768,0.18857
2082.74615,0.18939
2084.67462,0.18974
2086.60309,0.19087
2088.53156,0.19158
2090.46003,0.18913
2092.38850,0.18488
2094.31696,0.18294
2096.24543,0.18361
2098.17390,0.18591
2100.10237,0.18976
2102.03084,0.19097
2103.95931,0.18736
2105.88778,0.18469
2107.81624,0.18658
2109.74471,0.18934
2111.67318,0.18823
2113.60165,0.18408
2115.53012,0.18206
2117.45859,0.18452
2119.38706,0.18830
2121.31553,0.19007
2123.24399,0.19092
2125.17246,0.19070
2127.10093,0.18886
2129.02940,0.18831
2130.95787,0.18951
2132.88634,0.19116
2134.81481,0.19417
2136.74327,0.19739
2138.67174,0.19734
2140.60021,0.19504
2142.52868,0.19312
2144.45715,0.19218
2146.38562,0.19290
2148.31409,0.19265
2150.24255,0.18707
2152.17102,0.18022
2154.09949,0.18015
2156.02796,0.18276
2157.95643,0.18186
2159.88490,0.18250
2161.81337,0.18591
2163.74184,0.18798
2165.67030,0.18888
2167.59877,0.18801
2169.52724,0.18644
2171.45571,0.18675
2173.38418,0.18748
2175.31265,0.18941
2177.24112,0.19319
2179.16958,0.19495
2181.09805,0.19289
2183.02652,0.19054
2184.95499,0.19130
2186.88346,0.19209
2188.81193,0.18982
2190.74040,0.18792
2192.66887,0.18800
2194.59733,0.18713
2196.52580,0.18704
2198.45427,0.19087
2200.38274,0.19422
2202.31121,0.19342
2204.23968,0.19156
2206.16815,0.18945
2208.09661,0.18725
2210.02508,0.18873
2211.95355,0.19107
2213.88202,0.19036
2215.81049,0.19036
2217.73896,0.19224
2219.66743,0.19402
2221.59590,0.19384
2223.52436,0.19020
2225.45283,0.18751
2227.38130,0.18952
2229.30977,0.19138
2231.23824,0.18983
2233.16671,0.18947
2235.09518,0.19129
2237.02364,0.18966
2238.95211,0.18725
2240.88058,0.19029
2242.80905,0.19435
2244.73752,0.19647
2246.66599,0.19723
2248.59446,0.19419
2250.52293,0.18992
2252.45139,0.18868
2254.37986,0.18942
2256.30833,0.19019
2258.23680,0.19093
2260.16527,0.19173
2262.09374,0.19238
2264.02221,0.19255
2265.95067,0.19250
2267.87914,0.19265
2269.80761,0.19198
2271.73608,0.18992
2273.66455,0.18894
2275.59302,0.19266
2277.52149,0.19858
2279.44996,0.19975
2281.37842,0.19709
2283.30689,0.19598
2285.23536,0.19660
2287.16383,0.19766
2289.09230,0.19769
2291.02077,0.19814
2292.94924,0.20116
2294.87770,0.20129
2296.80617,0.20061
2298.73464,0.20373
2300.66311,0.20360
2302.59158,0.20122
2304.52005,0.20141
2306.44852,0.20341
2308.37699,0.20813
2310.30545,0.21274
2312.23392,0.21556
2314.16239,0.21561
2316.09086,0.21265
2318.01933,0.21471
2319.94780,0.22097
2321.87627,0.22036
2323.80473,0.21616
2325.73320,0.22277
2327.66167,0.23605
2329.59014,0.23911
2331.51861,0.22630
2333.44708,0.20167
2335.37555,0.18678
2337.30401,0.19989
2339.23248,0.21934
2341.16095,0.21806
2343.08942,0.20660
2345.01789,0.20906
2346.94636,0.21820
2348.87483,0.22413
2350.80330,0.23157
2352.73176,0.23766
2354.66023,0.23357
2356.58870,0.22416
2358.51717,0.21489
2360.44564,0.21985
2362.37411,0.25554
2364.30258,0.28505
2366.23104,0.27597
2368.15951,0.24969
2370.08798,0.22587
2372.01645,0.21213
2373.94492,0.21075
2375.87339,0.21234
2377.80186,0.20953
2379.73033,0.20557
2381.65879,0.20347
2383.58726,0.20177
2385.51573,0.19935
2387.44420,0.19754
2389.37267,0.19791
2391.30114,0.19733
2393.22961,0.19336
2395.15807,0.19026
2397.08654,0.19108
2399.01501,0.19273
2400.94348,0.19277
2402.87195,0.19362
2404.80042,0.19625
2406.72889,0.19886
2408.65736,0.19911
2410.58582,0.19603
2412.51429,0.19466
2414.44276,0.19738
2416.37123,0.19927
2418.29970,0.19826
2420.22817,0.19573
2422.15664,0.19481
2424.08510,0.19749
2426.01357,0.20001
2427.94204,0.19990
2429.87051,0.19846
2431.79898,0.19659
2433.72745,0.19503
2435.65592,0.19316
2437.58439,0.19030
2439.51285,0.18888
2441.44132,0.18982
2443.36979,0.19114
2445.29826,0.19275
2447.22673,0.19311
2449.15520,0.19425
2451.08367,0.20130
2453.01213,0.20669
2454.94060,0.20275
2456.86907,0.19599
2458.79754,0.19312
2460.72601,0.19307
2462.65448,0.19196
2464.58295,0.19067
2466.51142,0.19144
2468.43988,0.19150
2470.36835,0.19016
2472.29682,0.19041
2474.22529,0.19301
2476.15376,0.19644
2478.08223,0.19861
2480.01070,0.19821
2481.93916,0.19558
2483.86763,0.19144
2485.79610,0.18730
2487.72457,0.18675
2489.65304,0.19100
2491.58151,0.19623
2493.50998,0.19766
2495.43844,0.19520
2497.36691,0.19456
2499.29538,0.19861
2501.22385,0.20219
2503.15232,0.20183
2505.08079,0.20108
2507.00926,0.20061
2508.93773,0.19828
2510.86619,0.19657
2512.79466,0.19690
2514.72313,0.19640
2516.65160,0.19393
2518.58007,0.19233
2520.50854,0.19415
2522.43701,0.19723
2524.36547,0.19849
2526.29394,0.19935
2528.22241,0.20028
2530.15088,0.19931
2532.07935,0.19808
2534.00782,0.19870
2535.93629,0.19956
2537.86476,0.19715
2539.79322,0.19131
2541.72169,0.18806
2543.65016,0.19011
2545.57863,0.19344
2547.50710,0.19492
2549.43557,0.19445
2551.36404,0.19597
2553.29250,0.20051
2555.22097,0.20190
2557.14944,0.20017
2559.07791,0.19984
2561.00638,0.20117
2562.93485,0.20377
2564.86332,0.20356
2566.79179,0.19767
2568.72025,0.19247
2570.64872,0.19302
2572.57719,0.19608
2574.50566,0.19671
2576.43413,0.19527
2578.36260,0.19373
2580.29107,0.19137
2582.21953,0.19071
2584.14800,0.19309
2586.07647,0.19412
2588.00494,0.19283
2589.93341,0.19371
2591.86188,0.19922
2593.79035,0.20430
2595.71882,0.20449
2597.64728,0.20109
2599.57575,0.19662
2601.50422,0.19374
2603.43269,0.19257
2605.36116,0.19175
2607.28963,0.19097
2609.21810,0.19015
2611.14656,0.18939
2613.07503,0.19216
2615.00350,0.20115
2616.93197,0.20833
2618.86044,0.20697
2620.78891,0.20280
2622.71738,0.20125
2624.64585,0.19922
2626.57431,0.19472
2628.50278,0.19168
2630.43125,0.19200
2632.35972,0.19421
2634.28819,0.19725
2636.21666,0.19873
2638.14513,0.19759
2640.07359,0.19771
2642.00206,0.20020
2643.93053,0.20159
2645.85900,0.20093
2647.78747,0.20057
2649.71594,0.20260
2651.64441,0.20392
2653.57288,0.20230
2655.50134,0.20256
2657.42981,0.20634
2659.35828,0.20808
2661.28675,0.20519
2663.21522,0.20125
2665.14369,0.20051
2667.07216,0.20530
2669.00062,0.21173
2670.92909,0.21371
2672.85756,0.21150
2674.78603,0.20709
2676.71450,0.20192
2678.64297,0.19738
2680.57144,0.19468
2682.49990,0.19650
2684.42837,0.20177
2686.35684,0.20560
2688.28531,0.20551
2690.21378,0.20218
2692.14225,0.19877
2694.07072,0.19775
2695.99919,0.19888
2697.92765,0.20131
2699.85612,0.20239
2701.78459,0.19991
2703.71306,0.19596
2705.64153,0.19393
2707.57000,0.19499
2709.49847,0.19639
2711.42693,0.19689
2713.35540,0.20026
2715.28387,0.20497
2717.21234,0.20504
2719.14081,0.20379
2721.06928,0.20629
2722.99775,0.20771
2724.92622,0.20479
2726.85468,0.20203
2728.78315,0.20326
2730.71162,0.20888
2732.64009,0.21379
2734.56856,0.21263
2736.49703,0.20932
2738.42550,0.20721
2740.35396,0.20527
2742.28243,0.20761
2744.21090,0.21370
2746.13937,0.21497
2748.06784,0.21183
2749.99631,0.21004
2751.92478,0.20817
2753.85325,0.20589
2755.78171,0.20734
2757.71018,0.21028
2759.63865,0.20789
2761.56712,0.20332
2763.49559,0.20451
2765.42406,0.20942
2767.35253,0.21294
2769.28099,0.21421
2771.20946,0.21394
2773.13793,0.21357
2775.06640,0.21293
2776.99487,0.21128
2778.92334,0.20905
2780.85181,0.20718
2782.78028,0.20636
2784.70874,0.20579
2786.63721,0.20643
2788.56568,0.21001
2790.49415,0.21123
2792.42262,0.20687
2794.35109,0.20533
2796.27956,0.20931
2798.20802,0.21166
2800.13649,0.21134
2802.06496,0.20972
2803.99343,0.20759
2805.92190,0.21123
2807.85037,0.22005
2809.77884,0.22471
2811.70731,0.22274
2813.63577,0.21696
2815.56424,0.20945
2817.49271,0.20461
2819.42118,0.20466
2821.34965,0.20549
2823.27812,0.20555
2825.20659,0.20636
2827.13505,0.20612
2829.06352,0.20640
2830.99199,0.21008
2832.92046,0.21150
2834.84893,0.20772
2836.77740,0.20394
2838.70587,0.20377
2840.63433,0.20752
2842.56280,0.21105
2844.49127,0.21107
2846.41974,0.21049
2848.34821,0.21197
2850.27668,0.21383
2852.20515,0.21478
2854.13362,0.21489
2856.06208,0.21170
2857.99055,0.20765
2859.91902,0.20859
2861.84749,0.21211
2863.77596,0.21453
2865.70443,0.21636
2867.63290,0.21516
2869.56136,0.20794
2871.48983,0.20113
2873.41830,0.20311
2875.34677,0.20940
2877.27524,0.21188
2879.20371,0.21210
2881.13218,0.21205
2883.06065,0.20922
2884.98911,0.20563
2886.91758,0.20462
2888.84605,0.20655
2890.77452,0.21035
2892.70299,0.21001
2894.63146,0.20330
2896.55993,0.19988
2898.48839,0.20310
2900.41686,0.20486
2902.34533,0.20291
2904.27380,0.20220
2906.20227,0.20500
2908.13074,0.20843
2910.05921,0.20828
2911.98768,0.20387
2913.91614,0.19802
2915.84461,0.19670
2917.77308,0.20356
2919.70155,0.21088
2921.63002,0.21372
2923.55849,0.21233
2925.48696,0.20229
2927.41542,0.19559
2929.34389,0.20355
2931.27236,0.20899
2933.20083,0.20110
2935.12930,0.18872
2937.05777,0.18328
2938.98624,0.19150
2940.91471,0.20339
2942.84317,0.20669
2944.77164,0.20011
2946.70011,0.18894
2948.62858,0.18991
2950.55705,0.20159
2952.48552,0.20432
2954.41399,0.19961
2956.34245,0.19275
2958.27092,0.19023
2960.19939,0.20401
2962.12786,0.22156
2964.05633,0.22549
2965.98480,0.21803
2967.91327,0.20788
2969.84174,0.20559
2971.77020,0.21420
2973.69867,0.22514
2975.62714,0.22416
2977.55561,0.20589
2979.48408,0.19160
2981.41255,0.19865
2983.34102,0.21546
2985.26948,0.22168
2987.19795,0.21115
2989.12642,0.20288
2991.05489,0.20939
2992.98336,0.21720
2994.91183,0.21891
2996.84030,0.21678
2998.76877,0.21094
3000.69723,0.20889
3002.62570,0.21521
3004.55417,0.22040
3006.48264,0.21854
3008.41111,0.21369
3010.33958,0.20314
3012.26805,0.17406
3014.19651,0.12756
3016.12498,0.09595
3018.05345,0.11582
3019.98192,0.17392
3021.91039,0.21536
3023.83886,0.21830
3025.76733,0.20697
3027.69579,0.20339
3029.62426,0.20810
3031.55273,0.21237
3033.48120,0.21245
3035.40967,0.21198
3037.33814,0.21306
3039.26661,0.21847
3041.19508,0.22708
3043.12354,0.22829
3045.05201,0.21969
3046.98048,0.21089
3048.90895,0.21026
3050.83742,0.21438
3052.76589,0.21435
3054.69436,0.20624
3056.62282,0.19485
3058.55129,0.19715
3060.47976,0.21370
3062.40823,0.22368
3064.33670,0.21465
3066.26517,0.19558
3068.19364,0.19053
3070.12211,0.20086
3072.05057,0.20954
3073.97904,0.21022
3075.90751,0.20761
3077.83598,0.21262
3079.76445,0.22251
3081.69292,0.22748
3083.62139,0.21792
3085.54985,0.19681
3087.47832,0.19244
3089.40679,0.20446
3091.33526,0.20454
3093.26373,0.19276
3095.19220,0.18997
3097.12067,0.20176
3099.04914,0.21363
3100.97760,0.21286
3102.90607,0.19999
3104.83454,0.19127
3106.76301,0.19828
3108.69148,0.20906
3110.61995,0.20645
3112.54842,0.19701
3114.47688,0.20419
3116.40535,0.22356
3118.33382,0.22881
3120.26229,0.21554
3122.19076,0.20630
3124.11923,0.21424
3126.04770,0.22263
3127.97617,0.22098
3129.90463,0.21564
3131.83310,0.21198
3133.76157,0.21221
3135.69004,0.21407
3137.61851,0.21218
3139.54698,0.20635
3141.47545,0.20470
3143.40391,0.20849
3145.33238,0.21269
3147.26085,0.21596
3149.18932,0.21617
3151.11779,0.21468
3153.04626,0.21705
3154.97473,0.22037
3156.90320,0.21997
3158.83166,0.21923
3160.76013,0.21983
3162.68860,0.22366
3164.61707,0.22923
3166.54554,0.23091
3168.47401,0.22914
3170.40248,0.22359
3172.33094,0.21704
3174.25941,0.21747
3176.18788,0.22434
3178.11635,0.22931
3180.04482,0.22746
3181.97329,0.22297
3183.90176,0.22166
3185.83022,0.22174
3187.75869,0.22080
3189.68716,0.22091
3191.61563,0.22113
3193.54410,0.22163
3195.47257,0.22518
3197.40104,0.22840
3199.32951,0.22732
3201.25797,0.22464
3203.18644,0.22290
3205.11491,0.22163
3207.04338,0.22139
3208.97185,0.22271
3210.90032,0.22431
3212.82879,0.22612
3214.75725,0.22480
3216.68572,0.21742
3218.61419,0.21721
3220.54266,0.22890
3222.47113,0.23575
3224.39960,0.23237
3226.32807,0.22744
3228.25654,0.22685
3230.18500,0.22744
3232.11347,0.22447
3234.04194,0.22107
3235.97041,0.22162
3237.89888,0.22533
3239.82735,0.22741
3241.75582,0.22575
3243.68428,0.22193
3245.61275,0.21686
3247.54122,0.21502
3249.46969,0.21934
3251.39816,0.22113
3253.32663,0.21595
3255.25510,0.21252
3257.18357,0.21467
3259.11203,0.21628
3261.04050,0.21424
3262.96897,0.21352
3264.89744,0.21593
3266.82591,0.21817
3268.75438,0.21958
3270.68285,0.21906
3272.61131,0.21753
3274.53978,0.21827
3276.46825,0.21625
3278.39672,0.20921
3280.32519,0.20827
3282.25366,0.21651
3284.18213,0.22341
3286.11060,0.22352
3288.03906,0.22136
3289.96753,0.22005
3291.89600,0.21894
3293.82447,0.22035
3295.75294,0.22470
3297.68141,0.22849
3299.60988,0.22765
3301.53834,0.22031
3303.46681,0.21266
3305.39528,0.21101
3307.32375,0.21190
3309.25222,0.21319
3311.18069,0.21772
3313.10916,0.22237
3315.03763,0.22612
3316.96609,0.23016
3318.89456,0.22976
3320.82303,0.22624
3322.75150,0.22400
3324.67997,0.22085
3326.60844,0.21578
3328.53691,0.21305
3330.46537,0.21710
3332.39384,0.22311
3334.32231,0.22508
3336.25078,0.22572
3338.17925,0.22472
3340.10772,0.21946
3342.03619,0.21350
3343.96466,0.21474
3345.89312,0.22376
3347.82159,0.22739
3349.75006,0.22067
3351.67853,0.21486
3353.60700,0.21716
3355.53547,0.22094
3357.46394,0.21855
3359.39240,0.21422
3361.32087,0.21370
3363.24934,0.21840
3365.17781,0.22622
3367.10628,0.22990
3369.03475,0.22704
3370.96322,0.22275
3372.89168,0.22108
3374.82015,0.22027
3376.74862,0.22157
3378.67709,0.22894
3380.60556,0.23416
3382.53403,0.22915
3384.46250,0.21990
3386.39097,0.21586
3388.31943,0.21929
3390.24790,0.22486
3392.17637,0.22793
3394.10484,0.22925
3396.03331,0.23164
3397.96178,0.23683
3399.89025,0.24038
3401.81871,0.23315
3403.74718,0.22032
3405.67565,0.21476
3407.60412,0.21276
3409.53259,0.20814
3411.46106,0.20693
3413.38953,0.21516
3415.31800,0.22626
3417.24646,0.22936
3419.17493,0.22646
3421.10340,0.22376
3423.03187,0.21919
3424.96034,0.21238
3426.88881,0.20804
3428.81728,0.20755
3430.74574,0.20979
3432.67421,0.21151
3434.60268,0.20910
3436.53115,0.20684
3438.45962,0.21055
3440.38809,0.21816
3442.31656,0.22242
3444.24503,0.22042
3446.17349,0.21796
3448.10196,0.21940
3450.03043,0.21945
3451.95890,0.21375
3453.88737,0.20848
3455.81584,0.21089
3457.74431,0.21687
3459.67277,0.22052
3461.60124,0.22261
3463.52971,0.22067
3465.45818,0.21271
3467.38665,0.20401
3469.31512,0.20077
3471.24359,0.20281
3473.17206,0.20286
3475.10052,0.20076
3477.02899,0.20081
3478.95746,0.20027
3480.88593,0.19750
3482.81440,0.19573
3484.74287,0.19857
3486.67134,0.20358
3488.59980,0.20463
3490.52827,0.19991
3492.45674,0.19230
3494.38521,0.18795
3496.31368,0.18699
3498.24215,0.18523
3500.17062,0.18787
3502.09909,0.19432
3504.02755,0.19420
3505.95602,0.18983
3507.88449,0.18937
3509.81296,0.19149
3511.74143,0.18892
3513.66990,0.18048
3515.59837,0.17361
3517.52683,0.17272
3519.45530,0.17522
3521.38377,0.18007
3523.31224,0.18684
3525.24071,0.18838
3527.16918,0.18402
3529.09765,0.18244
3531.02611,0.18327
3532.95458,0.18356
3534.88305,0.18425
3536.81152,0.17813
3538.73999,0.16556
3540.66846,0.16340
3542.59693,0.17372
3544.52540,0.18220
3546.45386,0.17868
3548.38233,0.16892
3550.31080,0.16624
3552.23927,0.16974
3554.16774,0.17184
3556.09621,0.17277
3558.02468,0.17417
3559.95314,0.17580
3561.88161,0.17582
3563.81008,0.17917
3565.73855,0.18955
3567.66702,0.18803
3569.59549,0.17386
3571.52396,0.17048
3573.45243,0.17586
3575.38089,0.17623
3577.30936,0.16996
3579.23783,0.16741
3581.16630,0.16994
3583.09477,0.17209
3585.02324,0.17666
3586.95171,0.18550
3588.88017,0.18234
3590.80864,0.17115
3592.73711,0.16808
3594.66558,0.16654
3596.59405,0.16214
3598.52252,0.16339
3600.45099,0.16584
3602.37946,0.16133
3604.30792,0.15818
3606.23639,0.16474
3608.16486,0.17623
3610.09333,0.18413
3612.02180,0.18518
3613.95027,0.17787
3615.87874,0.17064
3617.80720,0.17028
3619.73567,0.16832
3621.66414,0.16355
3623.59261,0.16359
3625.52108,0.16687
3627.44955,0.17055
3629.37802,0.16632
3631.30649,0.15536
3633.23495,0.15033
3635.16342,0.14820
3637.09189,0.14331
3639.02036,0.13800
3640.94883,0.13767
3642.87730,0.14357
3644.80577,0.15561
3646.73423,0.17067
3648.66270,0.18117
3650.59117,0.17685
3652.51964,0.16197
3654.44811,0.15147
3656.37658,0.14925
3658.30505,0.15047
3660.23352,0.15004
3662.16198,0.14301
3664.09045,0.13188
3666.01892,0.13025
3667.94739,0.14483
3669.87586,0.16377
3671.80433,0.17027
3673.73280,0.17643
3675.66126,0.17897
3677.58973,0.16726
3679.51820,0.15484
3681.44667,0.14295
3683.37514,0.13622
3685.30361,0.13733
3687.23208,0.14367
3689.16055,0.15423
3691.08901,0.15640
3693.01748,0.14839
3694.94595,0.14390
3696.87442,0.14472
3698.80289,0.14492
3700.73136,0.14314
3702.65983,0.13952
3704.58829,0.13583
3706.51676,0.13861
3708.44523,0.15101
3710.37370,0.16725
3712.30217,0.16396
3714.23064,0.14368
3716.15911,0.13120
3718.08757,0.13018
3720.01604,0.13750
3721.94451,0.14633
3723.87298,0.14967
3725.80145,0.14853
3727.72992,0.14788
3729.65839,0.15186
3731.58686,0.16042
3733.51532,0.17046
3735.44379,0.17365
3737.37226,0.16111
3739.30073,0.14803
3741.22920,0.14557
3743.15767,0.15045
3745.08614,0.15555
3747.01460,0.15940
3748.94307,0.16723
3750.87154,0.17241
3752.80001,0.16229
3754.72848,0.14822
3756.65695,0.14127
3758.58542,0.14149
3760.51389,0.13772
3762.44235,0.13107
3764.37082,0.13031
3766.29929,0.13302
3768.22776,0.13616
3770.15623,0.13880
3772.08470,0.13664
3774.01317,0.13277
3775.94163,0.12976
3777.87010,0.12730
3779.79857,0.12891
3781.72704,0.13217
3783.65551,0.13105
3785.58398,0.12543
3787.51245,0.11991
3789.44092,0.11950
3791.36938,0.12268
3793.29785,0.12414
3795.22632,0.12334
3797.15479,0.12907
3799.08326,0.14646
3801.01173,0.16200
3802.94020,0.15522
3804.86866,0.14540
3806.79713,0.14653
3808.72560,0.14514
3810.65407,0.13924
3812.58254,0.13610
3814.51101,0.13658
3816.43948,0.13967
3818.36795,0.14366
3820.29641,0.14483
3822.22488,0.13485
3824.15335,0.12584
3826.08182,0.12731
3828.01029,0.13326
3829.93876,0.13802
3831.86723,0.14210
3833.79569,0.14617
3835.72416,0.14949
3837.65263,0.14837
3839.58110,0.13473
3841.50957,0.12015
3843.43804,0.11948
3845.36651,0.12422
3847.29498,0.12476
3849.22344,0.12697
3851.15191,0.13448
3853.08038,0.13650
3855.00885,0.12871
3856.93732,0.12528
3858.86579,0.12505
3860.79426,0.13076
3862.72272,0.14235
3864.65119,0.14741
3866.57966,0.14516
3868.50813,0.14329
3870.43660,0.13298
3872.36507,0.11971
3874.29354,0.11596
3876.22200,0.11679
3878.15047,0.12079
3880.07894,0.13067
3882.00741,0.14296
3883.93588,0.15036
3885.86435,0.14270
3887.79282,0.12684
3889.72129,0.12292
3891.64975,0.12716
3893.57822,0.12913
3895.50669,0.13057
3897.43516,0.13164
3899.36363,0.12970
3901.29210,0.12957
3903.22057,0.13461
3905.14903,0.13102
3907.07750,0.11742
3909.00597,0.10793
3910.93444,0.10910
3912.86291,0.11651
3914.79138,0.11958
3916.71985,0.11703
3918.64832,0.11405
3920.57678,0.11296
3922.50525,0.11653
3924.43372,0.12033
3926.36219,0.11563
3928.29066,0.10908
3930.21913,0.10890
3932.14760,0.11123
3934.07606,0.11170
3936.00453,0.10852
3937.93300,0.10270
3939.86147,0.09912
3941.78994,0.10158
3943.71841,0.10926
3945.64688,0.11300
3947.57535,0.10793
3949.50381,0.10278
3951.43228,0.10563
3953.36075,0.10959
3955.28922,0.10903
3957.21769,0.10646
3959.14616,0.10591
3961.07463,0.10736
3963.00309,0.10474
3964.93156,0.09879
3966.86003,0.09598
3968.78850,0.09796
3970.71697,0.10156
3972.64544,0.10332
3974.57391,0.10633
3976.50238,0.11119
3978.43084,0.11028
3980.35931,0.10370
3982.28778,0.10087
3984.21625,0.10383
3986.14472,0.10838
3988.07319,0.10980
3990.00166,0.10478
3991.93012,0.09799
3993.85859,0.09492
3995.78706,0.09652
3997.71553,0.09843
3999.64400,0.09675
4001.57247,0.09334
4003.50094,0.08879
4005.42941,0.08703
4007.35787,0.09246
4009.28634,0.09552
4011.21481,0.08908
4013.14328,0.08745
4015.07175,0.09903
4017.00022,0.11002
4018.92869,0.11082
4020.85715,0.10564
4022.78562,0.10156
4024.71409,0.10134
4026.64256,0.10027
4028.57103,0.09237
4030.49950,0.08152
4032.42797,0.07641
4034.35644,0.07584
4036.28490,0.07564
4038.21337,0.08030
4040.14184,0.08835
4042.07031,0.09154
4043.99878,0.09257
4045.92725,0.09495
4047.85572,0.09375
4049.78418,0.08710
4051.71265,0.08047
4053.64112,0.08008
4055.56959,0.08208
4057.49806,0.08280
4059.42653,0.08519
4061.35500,0.08775
4063.28346,0.09028
4065.21193,0.09273
4067.14040,0.09377
4069.06887,0.09470
4070.99734,0.09380
4072.92581,0.09017
4074.85428,0.08699
4076.78275,0.08802
4078.71121,0.09070
4080.63968,0.08816
4082.56815,0.08299
4084.49662,0.08124
4086.42509,0.08257
4088.35356,0.08424
4090.28203,0.08502
4092.21049,0.08688
4094.13896,0.08884
4096.06743,0.08825
4097.99590,0.08731
4099.92437,0.08515
4101.85284,0.08271
4103.78131,0.08383
4105.70978,0.08684
4107.63824,0.08945
4109.56671,0.08555
4111.49518,0.07724
4113.42365,0.07604
4115.35212,0.07598
4117.28059,0.07054
4119.20906,0.06792
4121.13752,0.06957
4123.06599,0.07274
4124.99446,0.07787
4126.92293,0.08191
4128.85140,0.07926
4130.77987,0.06752
4132.70834,0.05703
4134.63681,0.05904
4136.56527,0.06694
4138.49374,0.07185
4140.42221,0.07464
4142.35068,0.07689
4144.27915,0.07889
4146.20762,0.08312
4148.13609,0.08758
4150.06455,0.08509
4151.99302,0.07602
4153.92149,0.06907
4155.84996,0.07079
4157.77843,0.07795
4159.70690,0.08218
4161.63537,0.08062
4163.56384,0.07787
4165.49230,0.07861
4167.42077,0.07860
4169.34924,0.07323
4171.27771,0.06982
4173.20618,0.07096
4175.13465,0.06773
4177.06312,0.06181
4178.99158,0.06168
4180.92005,0.06295
4182.84852,0.05772
4184.77699,0.05334
4186.70546,0.06137
4188.63393,0.07393
4190.56240,0.07477
4192.49087,0.06447
4194.41933,0.05644
4196.34780,0.05820
4198.27627,0.06277
4200.20474,0.06213
4202.13321,0.06378
4204.06168,0.07007
4205.99015,0.06797
4207.91861,0.05966
4209.84708,0.05608
4211.77555,0.05263
4213.70402,0.04715
4215.63249,0.04707
4217.56096,0.05296
4219.48943,0.06035
4221.41789,0.06294
4223.34636,0.05672
4225.27483,0.05039
4227.20330,0.04872
4229.13177,0.04716
4231.06024,0.04971
4232.98871,0.06035
4234.91718,0.07144
4236.84564,0.07187
4238.77411,0.06157
4240.70258,0.05337
4242.63105,0.05070
4244.55952,0.04648
4246.48799,0.04366
4248.41646,0.04461
4250.34492,0.04721
4252.27339,0.05435
4254.20186,0.06236
4256.13033,0.06323
4258.05880,0.05802
4259.98727,0.05293
4261.91574,0.04728
4263.84421,0.04058
4265.77267,0.03850
4267.70114,0.04016
4269.62961,0.04119
4271.55808,0.04272
4273.48655,0.04695
4275.41502,0.05058
4277.34349,0.04939
4279.27195,0.04543
4281.20042,0.04496
4283.12889,0.04793
4285.05736,0.04489
4286.98583,0.03517
4288.91430,0.02794
4290.84277,0.02754
4292.77124,0.02819
4294.69970,0.02693
4296.62817,0.03307
4298.55664,0.04547
4300.48511,0.05138
4302.41358,0.04776
4304.34205,0.03820
4306.27052,0.02888
4308.19898,0.02638
4310.12745,0.02635
4312.05592,0.02625
4313.98439,0.02942
4315.91286,0.02974
4317.84133,0.02775
4319.76980,0.03035
4321.69827,0.03286
4323.62673,0.03266
4325.55520,0.03272
4327.48367,0.02998
4329.41214,0.02833
4331.34061,0.03260
4333.26908,0.03234
4335.19755,0.02882
4337.12601,0.02986
4339.05448,0.02683
4340.98295,0.01920
4342.91142,0.01777
4344.83989,0.02265
4346.76836,0.02812
4348.69683,0.03074
4350.62530,0.02909
4352.55376,0.02578
4354.48223,0.01831
4356.41070,0.00979
4358.33917,0.01341
4360.26764,0.02480
4362.19611,0.03071
4364.12458,0.02662
4366.05304,0.01546
4367.98151,0.01049
4369.90998,0.01739
4371.83845,0.02704
4373.76692,0.03439
4375.69539,0.03543
4377.62386,0.02588
4379.55232,0.01433
4381.48079,0.01117
4383.40926,0.01065
4385.33773,0.00552
4387.26620,0.00616
4389.19467,0.01905
4391.12314,0.02829
4393.05161,0.02339
4394.98007,0.01560
4396.90854,0.01015
4398.83701,0.00244
4400.76548,-0.00055
4402.69395,0.00909
4404.62242,0.02586
4406.55089,0.03788
4408.47935,0.03623
4410.40782,0.02438
4412.33629,0.01572
4414.26476,0.01148
4416.19323,0.00822
4418.12170,0.01058
4420.05017,0.01623
4421.97864,0.02186
4423.90710,0.02520
4425.83557,0.02062
4427.76404,0.01331
4429.69251,0.01208
4431.62098,0.01196
4433.54945,0.01017
4435.47792,0.01592
4437.40638,0.02620
4439.33485,0.02634
4441.26332,0.01725
4443.19179,0.01301
4445.12026,0.01223
4447.04873,0.00876
4448.97720,0.00985
4450.90567,0.01308
4452.83413,0.01039
4454.76260,0.00695
4456.69107,0.00743
4458.61954,0.00750
4460.54801,0.00655
4462.47648,0.00966
4464.40495,0.01563
4466.33341,0.01688
4468.26188,0.01138
4470.19035,0.00701
4472.11882,0.00636
4474.04729,0.00500
4475.97576,0.00428
4477.90423,0.00712
4479.83270,0.00782
4481.76116,0.00469
4483.68963,0.00929
4485.61810,0.02092
4487.54657,0.02206
4489.47504,0.01112
4491.40351,0.00325
4493.33198,0.00661
4495.26044,0.01251
4497.18891,0.01315
4499.11738,0.01374
4501.04585,0.01270
4502.97432,0.00730
4504.90279,0.00753
4506.83126,0.01021
4508.75973,0.00839
4510.68819,0.00460
4512.61666,-0.00362
4514.54513,-0.01215
4516.47360,-0.00764
4518.40207,0.00853
4520.33054,0.01565
4522.25901,0.00515
4524.18747,-0.00598
4526.11594,-0.00726
4528.04441,-0.00376
4529.97288,0.00170
4531.90135,0.01125
4533.82982,0.01857
4535.75829,0.01115
4537.68676,-0.00544
4539.61522,-0.00951
4541.54369,0.00114
4543.47216,0.01069
4545.40063,0.01460
4547.32910,0.01719
4549.25757,0.01642
4551.18604,0.01208
4553.11450,0.00672
4555.04297,0.00308
4556.97144,0.00320
4558.89991,0.00294
4560.82838,0.00174
4562.75685,-0.00131
4564.68532,-0.01014
4566.61378,-0.01202
4568.54225,0.00241
4570.47072,0.01246
4572.39919,0.00256
4574.32766,-0.01023
4576.25613,-0.00838
4578.18460,-0.00103
4580.11307,-0.00264
4582.04153,-0.00925
4583.97000,-0.00954
4585.89847,0.00106
4587.82694,0.01357
4589.75541,0.01697
4591.68388,0.01620
4593.61235,0.00967
4595.54081,-0.00643
4597.46928,-0.01436
4599.39775,-0.00587
4601.32622,-0.00088
4603.25469,0.00004
4605.18316,0.01013
4607.11163,0.01408
4609.04010,0.01108
4610.96856,0.01872
4612.89703,0.02601
4614.82550,0.02066
4616.75397,0.00592
4618.68244,-0.00754
4620.61091,-0.00697
4622.53938,-0.00001
4624.46784,0.00125
4626.39631,-0.00530
4628.32478,-0.01631
4630.25325,-0.01252
4632.18172,0.00712
4634.11019,0.01597
4636.03866,0.00862
4637.96713,0.00129
4639.89559,0.00594
4641.82406,0.01654
4643.75253,0.01243
4645.68100,-0.00455
4647.60947,-0.00874
4649.53794,0.00715
4651.46641,0.02478
4653.39487,0.02919
4655.32334,0.01960
4657.25181,0.00474
4659.18028,-0.00269
4661.10875,0.00012
4663.03722,0.00519
4664.96569,0.00199
4666.89416,-0.01426
4668.82262,-0.02182
4670.75109,-0.00101
4672.67956,0.02087
4674.60803,0.01751
4676.53650,0.00755
4678.46497,0.00640
4680.39344,0.00610
4682.32190,0.00406
4684.25037,0.00208
4686.17884,0.00588
4688.10731,0.01307
4690.03578,0.01366
4691.96425,0.01810
4693.89272,0.02951
4695.82119,0.03110
4697.74965,0.02033
4699.67812,0.00866
4701.60659,0.00956
4703.53506,0.02220
4705.46353,0.02641
4707.39200,0.01810
4709.32047,0.01295
4711.24893,0.01138
4713.17740,0.00459
4715.10587,-0.00369
4717.03434,-0.00568
4718.96281,0.00292
4720.89128,0.01566
4722.81975,0.01910
4724.74821,0.01536
4726.67668,0.01082
4728.60515,0.00644
4730.53362,0.00751
4732.46209,0.00773
4734.39056,0.00253
4736.31903,0.01081
4738.24750,0.02621
4740.17596,0.01739
4742.10443,-0.00534
4744.03290,-0.01422
4745.96137,-0.01147
4747.88984,-0.00240
4749.81831,0.01017
4751.74678,0.01322
4753.67524,0.00804
4755.60371,0.00915
4757.53218,0.01329
4759.46065,0.00712
4761.38912,-0.00820
4763.31759,-0.01508
4765.24606,-0.00645
4767.17453,0.00124
4769.10299,0.00038
4771.03146,0.00662
4772.95993,0.01633
4774.88840,0.01280
4776.81687,0.00499
4778.74534,0.00508
4780.67381,0.01618
4782.60227,0.02642
4784.53074,0.01764
4786.45921,-0.00756
4788.38768,-0.02311
4790.31615,-0.01722
4792.24462,-0.00434
4794.17309,0.00224
4796.10156,0.00721
4798.03002,0.01695
4799.95849,0.02500
4801.88696,0.02272
4803.81543,0.01806
4805.74390,0.02137
4807.67237,0.02356
4809.60084,0.02421
4811.52930,0.03171
4813.45777,0.03920
4815.38624,0.03755
4817.31471,0.02961
4819.24318,0.02453
4821.17165,0.02096
4823.10012,0.01699
4825.02859,0.02064
4826.95705,0.02527
4828.88552,0.01337
4830.81399,-0.00935
4832.74246,-0.01517
4834.67093,0.00219
4836.59940,0.01524
4838.52787,0.01204
4840.45633,0.00203
4842.38480,-0.00262
4844.31327,0.00563
4846.24174,0.01199
4848.17021,0.00200
4850.09868,-0.01232
4852.02715,-0.00662
4853.95562,0.01727
4855.88408,0.03241
4857.81255,0.03302
4859.74102,0.02358
4861.66949,0.00147
4863.59796,-0.01776
4865.52643,-0.01785
4867.45490,-0.00755
4869.38336,0.00856
4871.31183,0.02956
4873.24030,0.03471
4875.16877,0.01517
4877.09724,-0.00541
4879.02571,-0.01195
4880.95418,-0.00567
4882.88265,0.00952
4884.81111,0.01224
4886.73958,-0.00448
4888.66805,-0.00961
4890.59652,0.00129
4892.52499,0.00816
4894.45346,0.00723
4896.38193,0.00210
4898.31039,-0.00231
4900.23886,0.00133
4902.16733,0.01331
4904.09580,0.02036
4906.02427,0.01894
4907.95274,0.02466
4909.88121,0.03538
4911.80967,0.03601
4913.73814,0.02020
4915.66661,-0.00291
4917.59508,-0.02158
4919.52355,-0.02993
4921.45202,-0.01887
4923.38049,0.00440
4925.30896,0.02520
4927.23742,0.03427
4929.16589,0.02764
4931.09436,0.01727
4933.02283,0.00514
4934.95130,-0.01847
4936.87977,-0.03035
4938.80824,-0.00578
4940.73670,0.02471
4942.66517,0.03599
4944.59364,0.03503
4946.52211,0.03145
4948.45058,0.02446
4950.37905,0.01208
4952.30752,0.00150
4954.23599,0.00180
4956.16445,0.00639
4958.09292,0.00456
4960.02139,0.00069
4961.94986,-0.00285
4963.87833,-0.00197
4965.80680,0.00881
4967.73527,0.01475
4969.66373,0.01735
4971.59220,0.03237
4973.52067,0.04511
4975.44914,0.04210
4977.37761,0.02998
4979.30608,0.01628
4981.23455,0.01132
4983.16302,0.01956
4985.09148,0.02514
4987.01995,0.01504
4988.94842,0.00518
4990.87689,0.00758
4992.80536,0.00693
4994.73383,0.00327
4996.66230,0.00930
4998.59076,0.01061
5000.51923,-0.00680
5002.44770,-0.02153
5004.37617,-0.01104
5006.30464,0.01224
5008.23311,0.02847
5010.16158,0.03261
5012.09005,0.01979
5014.01851,0.00098
5015.94698,-0.00399
5017.87545,-0.00169
5019.80392,-0.00733
5021.73239,-0.01234
5023.66086,-0.00058
5025.58933,0.01626
5027.51779,0.02358
5029.44626,0.03116
5031.37473,0.04265
5033.30320,0.03812
5035.23167,0.01232
5037.16014,-0.01152
5039.08861,-0.01398
5041.01708,0.00472
5042.94554,0.02117
5044.87401,0.01049
5046.80248,-0.01118
5048.73095,-0.02358
5050.65942,-0.02494
5052.58789,-0.00722
5054.51636,0.02175
5056.44482,0.03204
5058.37329,0.01311
5060.30176,-0.00655
5062.23023,-0.01003
5064.15870,-0.01202
5066.08717,-0.00770
5068.01564,0.00562
5069.94410,0.00570
5071.87257,-0.01042
5073.80104,-0.02102
5075.72951,-0.01347
5077.65798,0.00045
5079.58645,0.00092
5081.51492,-0.00436
5083.44339,-0.00061
5085.37185,0.00836
5087.30032,0.01888
5089.22879,0.02265
5091.15726,0.01596
5093.08573,0.01306
5095.01420,0.02416
5096.94267,0.04459
5098.87113,0.05308
5100.79960,0.03836
5102.72807,0.02493
5104.65654,0.02417
5106.58501,0.01658
5108.51348,0.00650
5110.44195,0.01828
5112.37042,0.03885
5114.29888,0.03439
5116.22735,0.01362
5118.15582,0.00915
5120.08429,0.02168
5122.01276,0.03118
5123.94123,0.03550
5125.86970,0.03828
5127.79816,0.03733
5129.72663,0.03839
5131.65510,0.04062
5133.58357,0.02975
5135.51204,0.00984
5137.44051,0.00520
5139.36898,0.00963
5141.29745,-0.00244
5143.22591,-0.01904
5145.15438,-0.01746
5147.08285,-0.00539
5149.01132,-0.00252
5150.93979,-0.00745
5152.86826,-0.00403
5154.79673,0.00865
5156.72519,0.01746
5158.65366,0.01482
5160.58213,0.00941
5162.51060,0.00571
5164.43907,-0.00262
5166.36754,-0.00677
5168.29601,0.00437
5170.22448,0.01918
5172.15294,0.02172
5174.08141,0.01880
5176.00988,0.01806
5177.93835,0.01583
5179.86682,0.01930
5181.79529,0.02618
5183.72376,0.02508
5185.65222,0.01828
5187.58069,0.01031
5189.50916,0.01277
5191.43763,0.02806
5193.36610,0.03832
5195.29457,0.03241
5197.22304,0.01573
5199.15151,0.00653
5201.07997,0.01637
5203.00844,0.03541
5204.93691,0.03970
5206.86538,0.02202
5208.79385,0.00182
5210.72232,-0.00995
5212.65079,-0.00250
5214.57925,0.02745
5216.50772,0.05502
5218.43619,0.05423
5220.36466,0.03833
5222.29313,0.03409
5224.22160,0.02845
5226.15007,0.00833
5228.07854,0.00436
5230.00700,0.02174
5231.93547,0.02922
5233.86394,0.02363
5235.79241,0.01467
5237.72088,0.00618
5239.64935,-0.00073
5241.57782,-0.00980
5243.50628,-0.00941
5245.43475,-0.00101
5247.36322,0.00168
5249.29169,0.00501
5251.22016,0.00326
5253.14863,-0.00565
5255.07710,-0.00879
5257.00556,-0.00065
5258.93403,0.01903
5260.86250,0.03125
5262.79097,0.02638
5264.71944,0.03080
5266.64791,0.03960
5268.57638,0.03273
5270.50485,0.03269
5272.43331,0.04955
5274.36178,0.04164
5276.29025,0.00502
5278.21872,-0.00117
5280.14719,0.03436
5282.07566,0.06035
5284.00413,0.05619
5285.93259,0.04792
5287.86106,0.04802
5289.78953,0.03673
5291.71800,0.00742
5293.64647,-0.01709
5295.57494,-0.01649
5297.50341,0.00885
5299.43188,0.03414
5301.36034,0.02811
5303.28881,-0.00772
5305.21728,-0.02674
5307.14575,-0.00207
5309.07422,0.02873
5311.00269,0.03010
5312.93116,0.02568
5314.85962,0.04112
5316.78809,0.06324
5318.71656,0.06800
5320.64503,0.05073
5322.57350,0.03255
5324.50197,0.04283
5326.43044,0.07256
5328.35891,0.08680
5330.28737,0.08020
5332.21584,0.07038
5334.14431,0.05368
5336.07278,0.01700
5338.00125,-0.01590
5339.92972,-0.01054
5341.85819,0.02538
5343.78665,0.06447
5345.71512,0.06723
5347.64359,0.03955
5349.57206,0.02610
5351.50053,0.03220
5353.42900,0.04371
5355.35747,0.05435
5357.28594,0.05294
5359.21440,0.04458
5361.14287,0.05256
5363.07134,0.07714
5364.99981,0.08981
5366.92828,0.07567
5368.85675,0.04971
5370.78522,0.04173
5372.71368,0.06112
5374.64215,0.07055
5376.57062,0.05029
5378.49909,0.03431
5380.42756,0.03358
5382.35603,0.04462
5384.28450,0.05485
5386.21297,0.02744
5388.14143,-0.01397
5390.06990,-0.01385
5391.99837,0.01832
5393.92684,0.05167
5395.85531,0.06766
5397.78378,0.05826
5399.71225,0.03867
5401.64071,0.03348
5403.56918,0.04861
5405.49765,0.05564
5407.42612,0.03065
5409.35459,0.01060
5411.28306,0.02914
5413.21153,0.05452
5415.13999,0.05810
5417.06846,0.04219
5418.99693,0.01846
5420.92540,0.01070
5422.85387,0.01493
5424.78234,0.01690
5426.71081,0.03286
5428.63928,0.06225
5430.56774,0.07956
5432.49621,0.07760
5434.42468,0.07000
5436.35315,0.07910
5438.28162,0.08752
5440.21009,0.07989
5442.13856,0.07256
5444.06702,0.06798
5445.99549,0.08292
5447.92396,0.10816
5449.85243,0.09922
5451.78090,0.07727
5453.70937,0.05873
5455.63784,0.03688
5457.56631,0.03573
5459.49477,0.05860
5461.42324,0.08700
5463.35171,0.10135
5465.28018,0.07338
5467.20865,0.01185
5469.13712,-0.02847
5471.06559,-0.01216
5472.99405,0.02349
5474.92252,0.02496
5476.85099,0.01237
5478.77946,0.03854
5480.70793,0.06924
5482.63640,0.07768
5484.56487,0.08927
5486.49334,0.09440
5488.42180,0.08318
5490.35027,0.08107
5492.27874,0.09084
5494.20721,0.08403
5496.13568,0.05623
5498.06415,0.03566
5499.99262,0.04495
5501.92108,0.07525
5503.84955,0.10118
5505.77802,0.11822
5507.70649,0.11028
5509.63496,0.07479
5511.56343,0.05806
5513.49190,0.05521
5515.42037,0.03108
5517.34883,0.01014
5519.27730,0.03120
5521.20577,0.07602
5523.13424,0.09197
5525.06271,0.08325
5526.99118,0.09367
5528.91965,0.11652
5530.84811,0.11695
5532.77658,0.09477
5534.70505,0.07658
5536.63352,0.06925
5538.56199,0.07343
5540.49046,0.08961
5542.41893,0.07922
5544.34740,0.02823
5546.27586,-0.00926
5548.20433,-0.00436
5550.13280,0.03227
5552.06127,0.08285
5553.98974,0.11230
5555.91821,0.11503
5557.84668,0.10756
5559.77514,0.08355
5561.70361,0.05671
5563.63208,0.04961
5565.56055,0.04854
5567.48902,0.05209
5569.41749,0.07566
5571.34596,0.09952
5573.27443,0.10556
5575.20289,0.09589
5577.13136,0.06817
5579.05983,0.04473
5580.98830,0.05426
5582.91677,0.08587
5584.84524,0.11634
5586.77371,0.11839
5588.70217,0.08114
5590.63064,0.04980
5592.55911,0.05605
5594.48758,0.08287
5596.41605,0.10859
5598.34452,0.11437
5600.27299,0.09626
5602.20145,0.07712
5604.12992,0.07385
5606.05839,0.07111
5607.98686,0.04194
5609.91533,0.01049
5611.84380,0.02412
5613.77227,0.03633
5615.70074,0.00159
5617.62920,-0.01478
5619.55767,0.01848
5621.48614,0.06134
5623.41461,0.09274
5625.34308,0.09697
5627.27155,0.07117
5629.20002,0.05189
5631.12848,0.05551
5633.05695,0.06916
5634.98542,0.08247
5636.91389,0.07477
5638.84236,0.04015
5640.77083,0.02043
5642.69930,0.03865
5644.62777,0.05607
5646.55623,0.04533
5648.48470,0.03394
5650.41317,0.05795
5652.34164,0.11123
5654.27011,0.13855
5656.19858,0.11879
5658.12705,0.09130
5660.05551,0.08462
5661.98398,0.09408
5663.91245,0.08552
5665.84092,0.05614
5667.76939,0.05171
5669.69786,0.07096
5671.62633,0.08365
5673.55480,0.08484
5675.48326,0.07639
5677.41173,0.06196
5679.34020,0.05281
5681.26867,0.06698
5683.19714,0.08935
5685.12561,0.08478
5687.05408,0.05153
5688.98254,0.03605
5690.91101,0.07909
5692.83948,0.11766
5694.76795,0.09420
5696.69642,0.05064
5698.62489,0.03704
5700.55336,0.05340
5702.48183,0.05622
5704.41029,0.03071
5706.33876,0.02637
5708.26723,0.06680
5710.19570,0.10584
5712.12417,0.11774
5714.05264,0.12846
5715.98111,0.14804
5717.90957,0.15867
5719.83804,0.14028
5721.76651,0.12541
5723.69498,0.14179
5725.62345,0.13296
5727.55192,0.09226
5729.48039,0.08279
5731.40886,0.08413
5733.33732,0.06506
5735.26579,0.07244
5737.19426,0.11264
5739.12273,0.11493
5741.05120,0.05739
5742.97967,0.00800
5744.90814,0.02528
5746.83660,0.06558
5748.76507,0.05648
5750.69354,0.02685
5752.62201,0.05202
5754.55048,0.08476
5756.47895,0.05900
5758.40742,0.03091
5760.33588,0.04205
5762.26435,0.08285
5764.19282,0.13811
5766.12129,0.15073
5768.04976,0.11524
5769.97823,0.09783
5771.90670,0.11227
5773.83517,0.14206
5775.76363,0.18760
5777.69210,0.20624
5779.62057,0.17309
5781.54904,0.12585
5783.47751,0.06179
5785.40598,-0.00687
5787.33445,0.00007
5789.26291,0.08407
5791.19138,0.14078
5793.11985,0.12159
5795.04832,0.07417
5796.97679,0.03877
5798.90526,0.03154
5800.83373,0.04793
5802.76220,0.05720
5804.69066,0.05250
5806.61913,0.05136
5808.54760,0.06841
5810.47607,0.09524
5812.40454,0.11171
5814.33301,0.12636
5816.26148,0.13352
5818.18994,0.11016
5820.11841,0.08149
5822.04688,0.08804
5823.97535,0.09136
5825.90382,0.03123
5827.83229,-0.03502
5829.76076,-0.02597
5831.68923,0.01399
5833.61769,0.02949
5835.54616,0.02406
5837.47463,0.00252
5839.40310,-0.00720
5841.33157,0.01566
5843.26004,0.02355
5845.18851,-0.01019
5847.11697,-0.03286
5849.04544,0.00471
5850.97391,0.07793
5852.90238,0.12895
5854.83085,0.14601
5856.75932,0.12992
5858.68779,0.07547
5860.61626,0.02375
5862.54472,0.01516
5864.47319,0.02185
5866.40166,0.03006
5868.33013,0.05824
5870.25860,0.09968
5872.18707,0.12570
5874.11554,0.08556
5876.04400,0.00684
5877.97247,0.01440
5879.90094,0.09105
5881.82941,0.11269
5883.75788,0.07832
5885.68635,0.07208
5887.61482,0.11035
5889.54329,0.12348
5891.47175,0.08129
5893.40022,0.04634
5895.32869,0.04919
5897.25716,0.03961
5899.18563,0.03370
5901.11410,0.08104
5903.04257,0.11361
5904.97103,0.07210
5906.89950,0.01694
5908.82797,0.00956
5910.75644,0.01722
5912.68491,0.02099
5914.61338,0.06230
5916.54185,0.09612
5918.47032,0.07939
5920.39878,0.07240
5922.32725,0.08594
5924.25572,0.07729
5926.18419,0.05658
5928.11266,0.03929
5930.04113,0.05001
5931.96960,0.11394
5933.89806,0.16917
5935.82653,0.14712
5937.75500,0.07914
5939.68347,0.03942
5941.61194,0.04608
5943.54041,0.04986
5945.46888,0.02870
5947.39734,0.02082
5949.32581,0.04921
5951.25428,0.08301
5953.18275,0.09253
5955.11122,0.05451
5957.03969,-0.01253
5958.96816,-0.02046
5960.89663,0.04053
5962.82509,0.06798
5964.75356,0.03801
5966.68203,0.04212
5968.61050,0.09798
5970.53897,0.11321
5972.46744,0.08292
5974.39591,0.07336
5976.32437,0.08993
5978.25284,0.11309
5980.18131,0.13017
5982.10978,0.10132
5984.03825,0.05953
5985.96672,0.09381
5987.89519,0.15634
5989.82366,0.16091
5991.75212,0.12740
5993.68059,0.10834
5995.60906,0.11311
5997.53753,0.08947
5999.46600,0.02570
6001.39447,-0.02499
6003.32294,-0.04598
6005.25140,-0.03849
6007.17987,0.01146
6009.10834,0.05558
6011.03681,0.05220
6012.96528,0.05529
6014.89375,0.09070
6016.82222,0.09516
6018.75069,0.05487
6020.67915,0.05072
6022.60762,0.09425
6024.53609,0.12140
6026.46456,0.09936
6028.39303,0.04489
6030.32150,0.02349
6032.24997,0.06965
6034.17843,0.10611
6036.10690,0.06660
6038.03537,0.02783
6039.96384,0.04904
6041.89231,0.06971
6043.82078,0.03630
6045.74925,-0.02255
6047.67772,-0.03487
6049.60618,0.03139
6051.53465,0.10707
6053.46312,0.13406
6055.39159,0.12043
6057.32006,0.07039
6059.24853,-0.00212
6061.17700,-0.03241
6063.10546,0.02634
6065.03393,0.11902
6066.96240,0.18426
6068.89087,0.20534
6070.81934,0.17008
6072.74781,0.11178
6074.67628,0.08493
6076.60475,0.08140
6078.53321,0.06503
6080.46168,0.05975
6082.39015,0.07324
6084.31862,0.06546
6086.24709,0.06111
6088.17556,0.09550
6090.10403,0.10673
6092.03249,0.07334
6093.96096,0.06535
6095.88943,0.07667
6097.81790,0.05318
6099.74637,0.00164
6101.67484,-0.04906
6103.60331,-0.05643
6105.53177,0.00589
6107.46024,0.08845
6109.38871,0.11406
6111.31718,0.10206
6113.24565,0.11439
6115.17412,0.13543
6117.10259,0.12343
6119.03106,0.09708
6120.95952,0.09354
6122.88799,0.07647
6124.81646,0.03504
6126.74493,-0.00728
6128.67340,-0.05105
6130.60187,-0.07066
6132.53034,-0.05884
6134.45880,-0.03472
6136.38727,0.00629
6138.31574,0.03703
6140.24421,0.02182
6142.17268,0.00609
6144.10115,0.03394
6146.02962,0.06577
6147.95809,0.07200
6149.88655,0.05281
6151.81502,0.02770
6153.74349,0.04327
6155.67196,0.07058
6157.60043,0.03265
6159.52890,-0.03808
6161.45737,-0.04948
6163.38583,-0.00550
6165.31430,0.03243
6167.24277,0.05866
6169.17124,0.08779
6171.09971,0.08816
6173.02818,0.06933
6174.95665,0.08234
6176.88512,0.11441
6178.81358,0.12701
6180.74205,0.10777
6182.67052,0.09897
6184.59899,0.11565
6186.52746,0.11404
6188.45593,0.10752
6190.38440,0.10528
6192.31286,0.07887
6194.24133,0.06468
6196.16980,0.09291
6198.09827,0.12896
6200.02674,0.13480
6201.95521,0.10277
6203.88368,0.05357
6205.81215,0.02380
6207.74061,0.02047
6209.66908,0.02774
6211.59755,0.04591
6213.52602,0.08339
6215.45449,0.10764
6217.38296,0.09795
6219.31143,0.08272
6221.23989,0.06073
6223.16836,0.04701
6225.09683,0.06355
6227.02530,0.06954
6228.95377,0.04365
6230.88224,0.00499
6232.81071,0.02317
6234.73918,0.11747
6236.66764,0.17893
6238.59611,0.17864
6240.52458,0.17472
6242.45305,0.15057
6244.38152,0.09501
6246.30999,0.07602
6248.23846,0.08343
6250.16692,0.09544
6252.09539,0.17672
6254.02386,0.26331
6255.95233,0.21077
6257.88080,0.04094
6259.80927,-0.10313
6261.73774,-0.16577
6263.66621,-0.15410
6265.59467,-0.06539
6267.52314,0.04829
6269.45161,0.10250
6271.38008,0.05887
6273.30855,-0.00436
6275.23702,0.04375
6277.16549,0.08582
6279.09395,-0.00886
6281.02242,-0.10226
6282.95089,-0.07063
6284.87936,0.01863
6286.80783,0.05373
6288.73630,0.05101
6290.66477,0.06151
6292.59323,0.08873
6294.52170,0.12211
6296.45017,0.12797
6298.37864,0.10913
6300.30711,0.10562
6302.23558,0.10136
6304.16405,0.09928
6306.09252,0.10532
6308.02098,0.09024
6309.94945,0.07005
6311.87792,0.01894
6313.80639,-0.04228
6315.73486,-0.01851
6317.66333,0.05224
6319.59180,0.07682
6321.52026,0.06329
6323.44873,0.05533
6325.37720,0.05999
6327.30567,0.08430
6329.23414,0.09121
6331.16261,0.05950
6333.09108,0.05969
6335.01955,0.11549
6336.94801,0.19782
6338.87648,0.21203
6340.80495,0.09298
6342.73342,-0.02486
6344.66189,-0.02243
6346.59036,0.07599
6348.51883,0.17796
6350.44729,0.19300
6352.37576,0.13641
6354.30423,0.11332
6356.23270,0.13490
6358.16117,0.13940
6360.08964,0.08108
6362.01811,-0.02714
6363.94658,-0.10732
6365.87504,-0.10368
6367.80351,-0.03020
6369.73198,0.05603
6371.66045,0.08410
6373.58892,0.06091
6375.51739,0.07357
6377.44586,0.14591
6379.37432,0.21947
6381.30279,0.22015
6383.23126,0.13635
6385.15973,0.08119
6387.08820,0.11812
6389.01667,0.15745
6390.94514,0.14219
6392.87361,0.09066
6394.80207,0.04368
6396.73054,0.04745
6398.65901,0.06974
6400.58748,0.07366
6402.51595,0.07263
6404.44442,0.06995
6406.37289,0.04443
6408.30135,-0.01332
6410.22982,-0.01893
6412.15829,0.04744
6414.08676,0.09470
6416.01523,0.11711
6417.94370,0.11815
6419.87217,0.09919
6421.80064,0.06232
6423.72910,-0.00073
6425.65757,-0.02731
6427.58604,-0.00802
6429.51451,0.00750
6431.44298,0.02599
6433.37145,0.03766
6435.29992,0.03321
6437.22838,0.03223
6439.15685,0.04780
6441.08532,0.08056
6443.01379,0.09314
6444.94226,0.06330
6446.87073,0.04328
6448.79920,0.01987
6450.72766,-0.06174
6452.65613,-0.07903
6454.58460,0.04559
6456.51307,0.13012
6458.44154,0.05637
6460.37001,-0.04224
6462.29848,-0.02422
6464.22695,0.08492
6466.15541,0.16173
6468.08388,0.16549
6470.01235,0.09530
6471.94082,-0.03221
6473.86929,-0.08931
6475.79776,0.00294
6477.72623,0.09211
6479.65469,0.04033
6481.58316,-0.01584
6483.51163,0.02318
6485.44010,0.05173
6487.36857,0.01819
6489.29704,-0.03105
6491.22551,-0.05501
6493.15398,-0.02322
6495.08244,0.05044
6497.01091,0.10863
6498.93938,0.12499
6500.86785,0.09918
6502.79632,0.06493
6504.72479,0.07074
6506.65326,0.08797
6508.58172,0.04380
6510.51019,0.00038
6512.43866,0.07575
6514.36713,0.14008
6516.29560,0.03671
6518.22407,-0.08519
6520.15254,-0.06197
6522.08101,0.01775
6524.00947,0.08653
6525.93794,0.14432
6527.86641,0.13047
6529.79488,0.07914
6531.72335,0.03510
6533.65182,-0.03652
6535.58029,-0.08350
6537.50875,-0.06348
6539.43722,-0.05444
6541.36569,-0.04994
6543.29416,0.02392
6545.22263,0.07597
6547.15110,0.04568
6549.07957,0.03617
6551.00804,0.11782
6552.93650,0.21759
6554.86497,0.21798
6556.79344,0.12592
6558.72191,0.04682
6560.65038,-0.01331
6562.57885,-0.10417
6564.50732,-0.11056
6566.43578,0.06912
6568.36425,0.26789
6570.29272,0.33895
6572.22119,0.28224
6574.14966,0.19009
6576.07813,0.16035
6578.00660,0.15618
6579.93507,0.13801
6581.86353,0.15337
6583.79200,0.18458
6585.72047,0.18316
6587.64894,0.18298
6589.57741,0.17181
6591.50588,0.07975
6593.43435,-0.04053
6595.36281,-0.05381
6597.29128,0.02593
6599.21975,0.14143
6601.14822,0.21751
6603.07669,0.16226
6605.00516,0.05557
6606.93363,0.00371
6608.86210,0.05978
6610.79056,0.15351
6612.71903,0.14063
6614.64750,0.07687
6616.57597,0.09917
6618.50444,0.22633
6620.43291,0.35557
6622.36138,0.34445
6624.28984,0.21478
6626.21831,0.11270
6628.14678,0.07517
6630.07525,0.04886
6632.00372,0.01380
6633.93219,0.02624
6635.86066,0.06822
6637.78912,0.06583
6639.71759,0.05026
6641.64606,0.04430
6643.57453,0.00591
6645.50300,-0.09300
6647.43147,-0.16025
6649.35994,-0.13805
6651.28841,-0.09095
6653.21687,-0.01069
6655.14534,0.07446
6657.07381,0.07878
6659.00228,0.05708
6660.93075,0.07220
6662.85922,0.05234
6664.78769,-0.03193
6666.71615,-0.09253
6668.64462,-0.05211
6670.57309,0.03274
6672.50156,0.03728
6674.43003,-0.00829
6676.35850,0.02027
6678.28697,0.06659
6680.21544,0.02862
6682.14390,-0.04311
6684.07237,-0.06483
6686.00084,-0.07068
6687.92931,-0.06566
6689.85778,-0.02960
6691.78625,0.00899
6693.71472,0.03850
6695.64318,0.06517
6697.57165,0.10215
6699.50012,0.07613
6701.42859,-0.01037
6703.35706,-0.00686
6705.28553,0.09292
6707.21400,0.11492
6709.14247,0.07001
6711.07093,0.16641
6712.99940,0.31610
6714.92787,0.28797
6716.85634,0.10489
6718.78481,-0.05814
6720.71328,-0.05099
6722.64175,0.06734
6724.57021,0.09856
6726.49868,0.10812
6728.42715,0.16920
6730.35562,0.18878
6732.28409,0.12896
6734.21256,0.02103
6736.14103,-0.03863
6738.06950,0.00816
6739.99796,0.06065
6741.92643,0.06496
6743.85490,0.03705
6745.78337,-0.02436
6747.71184,-0.08922
6749.64031,-0.06549
6751.56878,0.03227
6753.49724,0.04416
6755.42571,-0.00651
6757.35418,0.03512
6759.28265,0.15941
6761.21112,0.21379
6763.13959,0.16146
6765.06806,0.11128
6766.99653,0.07997
6768.92499,0.03918
6770.85346,0.01161
6772.78193,0.05803
6774.71040,0.09165
6776.63887,-0.03064
6778.56734,-0.12206
6780.49581,-0.00845
6782.42427,0.11384
6784.35274,0.06069
6786.28121,0.00065
6788.20968,0.09179
6790.13815,0.24367
6792.06662,0.29337
6793.99509,0.21964
6795.92355,0.14257
6797.85202,0.12799
6799.78049,0.16276
6801.70896,0.20172
6803.63743,0.15893
6805.56590,0.03303
6807.49437,-0.04374
6809.42284,-0.00174
6811.35130,0.05278
6813.27977,-0.01632
6815.20824,-0.11527
6817.13671,-0.11637
6819.06518,-0.03498
6820.99365,0.10305
6822.92212,0.17431
6824.85058,0.07526
6826.77905,0.03913
6828.70752,0.10133
6830.63599,0.08209
6832.56446,0.08455
6834.49293,0.19414
6836.42140,0.26295
6838.34987,0.22022
6840.27833,0.13274
6842.20680,0.08858
6844.13527,0.10642
6846.06374,0.12690
6847.99221,0.15047
6849.92068,0.14601
6851.84915,0.05337
6853.77761,-0.07383
6855.70608,-0.13079
6857.63455,-0.10408
6859.56302,-0.06826
6861.49149,0.01156
6863.41996,0.10141
6865.34843,0.10852
6867.27690,0.08660
6869.20536,0.09025
6871.13383,0.05748
6873.06230,-0.01421
6874.99077,0.03385
6876.91924,0.21248
6878.84771,0.35685
6880.77618,0.31068
6882.70464,0.16351
6884.63311,0.06230
6886.56158,-0.02365
6888.49005,-0.04962
6890.41852,0.03478
6892.34699,0.09816
6894.27546,0.06716
6896.20393,0.03809
6898.13239,0.07273
6900.06086,0.07835
6901.98933,0.05513
6903.91780,0.05774
6905.84627,0.00696
6907.77474,-0.08053
6909.70321,-0.06881
6911.63167,0.03526
6913.56014,0.11067
6915.48861,0.02196
6917.41708,-0.15411
6919.34555,-0.13418
6921.27402,0.04565
6923.20249,0.10599
6925.13096,0.04245
6927.05942,-0.04023
6928.98789,-0.03554
6930.91636,0.06384
6932.84483,0.09850
6934.77330,0.01974
6936.70177,-0.03315
6938.63024,0.02722
6940.55870,0.10644
6942.48717,0.09317
6944.41564,0.06729
6946.34411,0.01950
6948.27258,-0.10222
6950.20105,-0.13971
6952.12952,-0.09272
6954.05799,-0.06001
6955.98645,0.06901
6957.91492,0.26219
6959.84339,0.29812
6961.77186,0.20034
6963.70033,0.11846
6965.62880,0.05140
6967.55727,-0.01674
6969.48573,-0.01751
6971.41420,0.05880
6973.34267,0.06362
6975.27114,-0.03807
6977.19961,0.02873
6979.12808,0.24206
6981.05655,0.27833
6982.98501,0.06392
6984.91348,-0.10665
6986.84195,-0.06062
6988.77042,-0.00002
6990.69889,-0.04005
6992.62736,-0.06642
6994.55583,-0.08371
6996.48430,-0.15913
6998.41276,-0.18017
7000.34123,-0.06998
7002.26970,0.03827
7004.19817,0.11316
7006.12664,0.19593
7008.05511,0.23550
7009.98358,0.17673
7011.91204,0.05328
7013.84051,-0.00484
7015.76898,0.02915
7017.69745,-0.00141
7019.62592,-0.08643
7021.55439,-0.05046
7023.48286,0.09757
7025.41133,0.14097
7027.33979,0.07383
7029.26826,0.13207
7031.19673,0.34546
7033.12520,0.45206
7035.05367,0.20834
7036.98214,-0.14533
7038.91061,-0.21737
7040.83907,-0.08883
7042.76754,0.02773
7044.69601,0.08008
7046.62448,0.04207
7048.55295,-0.06163
7050.48142,-0.07180
7052.40989,0.01332
7054.33836,0.08932
7056.26682,0.18050
7058.19529,0.30688
7060.12376,0.30802
7062.05223,0.17251
7063.98070,0.08388
7065.90917,0.11151
7067.83764,0.18722
7069.76610,0.30217
7071.69457,0.31565
7073.62304,0.14228
7075.55151,-0.01425
7077.47998,-0.07122
7079.40845,-0.11836
7081.33692,-0.22213
7083.26539,-0.27972
7085.19385,-0.19384
7087.12232,-0.03684
7089.05079,-0.01725
7090.97926,-0.10738
7092.90773,-0.07651
7094.83620,0.02138
7096.76467,0.00599
7098.69313,-0.06963
7100.62160,-0.07858
7102.55007,-0.00249
7104.47854,0.14333
7106.40701,0.19477
7108.33548,0.06976
7110.26395,0.01575
7112.19242,0.12477
7114.12088,0.30061
7116.04935,0.47429
7117.97782,0.44194
7119.90629,0.21248
7121.83476,0.11022
7123.76323,0.09100
7125.69170,0.03119
7127.62016,-0.09142
7129.54863,-0.22696
7131.47710,-0.21103
7133.40557,-0.05292
7135.33404,0.08411
7137.26251,0.16049
7139.19098,0.16295
7141.11944,0.09134
7143.04791,-0.03133
7144.97638,-0.08396
7146.90485,0.00628
7148.83332,0.01625
7150.76179,-0.11167
7152.69026,-0.21130
7154.61873,-0.12902
7156.54719,0.04038
7158.47566,0.13431
7160.40413,0.14624
7162.33260,0.11244
7164.26107,0.06120
7166.18954,0.01401
7168.11801,0.00749
7170.04647,0.05649
7171.97494,0.17652
7173.90341,0.25883
7175.83188,0.18420
7177.76035,0.11530
7179.68882,0.20389
7181.61729,0.20867
7183.54576,-0.05186
7185.47422,-0.19313
7187.40269,-0.06707
7189.33116,0.10204
7191.25963,0.21992
7193.18810,0.19744
7195.11657,0.15284
7197.04504,0.16694
7198.97350,0.21347
7200.90197,0.20098
7202.83044,0.09400
7204.75891,0.10359
7206.68738,0.20159
7208.61585,0.10441
7210.54432,-0.05622
7212.47279,-0.15019
7214.40125,-0.25749
7216.32972,-0.37934
7218.25819,-0.36787
7220.18666,-0.26697
7222.11513,-0.14332
7224.04360,0.01391
7225.97207,0.04840
7227.90053,-0.11160
7229.82900,-0.27214
7231.75747,-0.15284
7233.68594,0.08216
7235.61441,0.17923
7237.54288,0.28716
7239.47135,0.43835
7241.39982,0.50049
7243.32828,0.43026
7245.25675,0.28870
7247.18522,0.20888
7249.11369,0.25008
7251.04216,0.33532
7252.97063,0.36181
7254.89910,0.35786
7256.82756,0.41384
7258.75603,0.53116
7260.68450,0.46594
7262.61297,0.06593
7264.54144,-0.13076
7266.46991,0.10249
7268.39838,0.34877
7270.32685,0.41039
7272.25531,0.38966
7274.18378,0.31255
7276.11225,0.08586
7278.04072,-0.14689
7279.96919,-0.13617
7281.89766,-0.01499
7283.82613,-0.10844
7285.75459,-0.23853
7287.68306,-0.11209
7289.61153,0.16344
7291.54000,0.23863
7293.46847,0.11724
7295.39694,0.03580
7297.32541,0.03646
7299.25387,0.02455
7301.18234,0.07178
7303.11081,0.25465
7305.03928,0.36582
7306.96775,0.27024
7308.89622,-0.01003
7310.82469,-0.16896
7312.75316,0.01275
7314.68162,0.16737
7316.61009,0.07716
7318.53856,-0.06264
7320.46703,-0.18525
7322.39550,-0.18133
7324.32397,0.00341
7326.25244,0.03802
7328.18090,-0.07990
7330.10937,-0.04876
7332.03784,-0.00505
7333.96631,-0.02541
7335.89478,0.04209
7337.82325,0.14082
7339.75172,0.19347
7341.68019,0.33768
7343.60865,0.61746
7345.53712,0.79482
7347.46559,0.68335
7349.39406,0.38278
7351.32253,0.04532
7353.25100,-0.14231
7355.17947,-0.11095
7357.10793,0.02366
7359.03640,0.05592
7360.96487,-0.14486
7362.89334,-0.34720
7364.82181,-0.29106
7366.75028,0.08401
7368.67875,0.53629
7370.60722,0.62931
7372.53568,0.41994
7374.46415,0.17991
7376.39262,0.07918
7378.32109,0.06791
7380.24956,0.10058
7382.17803,0.16283
7384.10650,0.08688
7386.03496,-0.03500
7387.96343,0.01915
7389.89190,0.11676
7391.82037,0.10930
7393.74884,0.06486
7395.67731,0.19620
7397.60578,0.47920
7399.53425,0.61075
7401.46271,0.60944
7403.39118,0.67330
7405.31965,0.66365
7407.24812,0.47232
7409.17659,0.25682
7411.10506,0.04601
7413.03353,-0.12504
7414.96199,-0.18449
7416.89046,-0.10450
7418.81893,0.09256
7420.74740,0.25888
7422.67587,0.22415
7424.60434,0.08564
7426.53281,0.08786
7428.46128,0.30437
7430.38974,0.45574
7432.31821,0.25904
7434.24668,0.06911
7436.17515,0.12765
7438.10362,0.10889
7440.03209,-0.07740
7441.96056,-0.18072
7443.88902,-0.18856
7445.81749,-0.14462
7447.74596,-0.03144
7449.67443,0.10395
7451.60290,0.14933
7453.53137,0.15235
7455.45984,0.18203
7457.38831,0.13731
7459.31677,-0.04141
7461.24524,-0.13593
7463.17371,0.02033
7465.10218,0.21665
7467.03065,0.30772
7468.95912,0.27625
7470.88759,0.11709
7472.81605,0.10965
7474.74452,0.26985
7476.67299,0.25955
7478.60146,-0.02257
7480.52993,-0.24251
7482.45840,-0.13076
7484.38687,-0.01541
7486.31533,0.03918
7488.24380,0.13819
7490.17227,0.12183
7492.10074,0.03378
7494.02921,0.02577
7495.95768,0.14928
7497.88615,0.43706
