399.19301,1.57992
401.12148,-0.03532
403.04995,-0.14930
404.97842,0.00405
406.90689,0.17262
408.83536,0.25020
410.76382,0.17308
412.69229,0.09311
414.62076,0.19038
416.54923,0.40638
418.47770,0.55580
420.40617,0.41204
422.33464,0.23429
424.26311,0.10230
426.19157,0.02919
428.12004,0.12458
430.04851,0.28238
431.97698,0.29231
433.90545,0.22181
435.83392,0.14422
437.76239,0.05265
439.69085,0.00425
441.61932,-0.01540
443.54779,-0.07582
445.47626,-0.14580
447.40473,-0.12475
449.33320,-0.02352
451.26167,0.05914
453.19013,0.05518
455.11860,-0.05422
457.04707,-0.16499
458.97554,-0.10766
460.90401,0.07122
462.83248,0.18034
464.76095,0.13822
466.68942,0.06821
468.61788,0.10866
470.54635,0.20012
472.47482,0.25421
474.40329,0.27405
476.33176,0.24159
478.26023,0.14375
480.18870,0.03252
482.11716,0.00761
484.04563,0.06683
485.97410,0.08004
487.90257,0.05113
489.83104,0.03319
491.75951,0.01926
493.68798,-0.02496
495.61645,-0.06392
497.54491,-0.00696
499.47338,0.10001
501.40185,0.11140
503.33032,0.03280
505.25879,0.01353
507.18726,0.05273
509.11573,0.04803
511.04419,0.00174
512.97266,-0.01685
514.90113,0.00193
516.82960,-0.00384
518.75807,-0.04627
520.68654,-0.06657
522.61501,-0.04756
524.54348,-0.01234
526.47194,0.02561
528.40041,0.05331
530.32888,0.08016
532.25735,0.11315
534.18582,0.12796
536.11429,0.09726
538.04276,0.06470
539.97122,0.07040
541.89969,0.07560
543.82816,0.06817
545.75663,0.05258
547.68510,0.02610
549.61357,0.19289
551.54204,1.16489
553.47051,2.29954
555.39897,1.93277
557.32744,0.66552
559.25591,0.12020
561.18438,0.10610
563.11285,0.11940
565.04132,0.11201
566.96979,0.07506
568.89825,0.05706
570.82672,0.08757
572.75519,0.12831
574.68366,0.13202
576.61213,0.12578
578.54060,0.11992
580.46907,0.10730
582.39754,0.10440
584.32600,0.11448
586.25447,0.10676
588.18294,0.09075
590.11141,0.10496
592.03988,0.12833
593.96835,0.12464
595.89682,0.10253
597.82528,0.10055
599.75375,0.10547
601.68222,0.07471
603.61069,0.03224
605.53916,0.02554
607.46763,0.04338
609.39610,0.06256
611.32456,0.07277
613.25303,0.06513
615.18150,0.06874
617.10997,0.09505
619.03844,0.11264
620.96691,0.10720
622.89538,0.08560
624.82385,0.06437
626.75231,0.05870
628.68078,0.05506
630.60925,0.03986
632.53772,0.03890
634.46619,0.05939
636.39466,0.07792
638.32313,0.08777
640.25159,0.09919
642.18006,0.11227
644.10853,0.10979
646.03700,0.10698
647.96547,0.12736
649.89394,0.13194
651.82241,0.08964
653.75088,0.06069
655.67934,0.08402
657.60781,0.10165
659.53628,0.07071
661.46475,0.03495
663.39322,0.04105
665.32169,0.06792
667.25016,0.08089
669.17862,0.08223
671.10709,0.09107
673.03556,0.09538
674.96403,0.08780
676.89250,0.08380
678.82097,0.10490
680.74944,0.14033
682.67791,0.15035
684.60637,0.12096
686.53484,0.08950
688.46331,0.07466
690.39178,0.07104
692.32025,0.09163
694.24872,0.10914
696.17719,0.10073
698.10565,0.09680
700.03412,0.09391
701.96259,0.07302
703.89106,0.06247
705.81953,0.08166
707.74800,0.11694
709.67647,0.17333
711.60494,0.22876
713.53340,0.21697
715.46187,0.15173
717.39034,0.10741
719.31881,0.09314
721.24728,0.08550
723.17575,0.08288
725.10422,0.08787
727.03268,0.09789
728.96115,0.10593
730.88962,0.10763
732.81809,0.10201
734.74656,0.09625
736.67503,0.10409
738.60350,0.11172
740.53197,0.10206
742.46043,0.09137
744.38890,0.09121
746.31737,0.09425
748.24584,0.09534
750.17431,0.09279
752.10278,0.09486
754.03125,0.10964
755.95971,0.11890
757.88818,0.11261
759.81665,0.10766
761.74512,0.10587
763.67359,0.09894
765.60206,0.09164
767.53053,0.09381
769.45900,0.10023
771.38746,0.10026
773.31593,0.10025
775.24440,0.10104
777.17287,0.10072
779.10134,0.10918
781.02981,0.12173
782.95828,0.12196
784.88674,0.10930
786.81521,0.10207
788.74368,0.10355
790.67215,0.10041
792.60062,0.09111
794.52909,0.07797
796.45756,0.07726
798.38602,0.10151
800.31449,0.12163
802.24296,0.11916
804.17143,0.11901
806.09990,0.12943
808.02837,0.13223
809.95684,0.11848
811.88531,0.09500
813.81377,0.08516
815.74224,0.09770
817.67071,0.10524
819.59918,0.09918
821.52765,0.09583
823.45612,0.09196
825.38459,0.08021
827.31305,0.07089
829.24152,0.07794
831.16999,0.09973
833.09846,0.11552
835.02693,0.11697
836.95540,0.12116
838.88387,0.12992
840.81234,0.12664
842.74080,0.11134
844.66927,0.10110
846.59774,0.10696
848.52621,0.12312
850.45468,0.13244
852.38315,0.12913
854.31162,0.12430
856.24008,0.12117
858.16855,0.11528
860.09702,0.11105
862.02549,0.10764
863.95396,0.09620
865.88243,0.07891
867.81090,0.05555
869.73937,0.04290
871.66783,0.06885
873.59630,0.10690
875.52477,0.12371
877.45324,0.12763
879.38171,0.12819
881.31018,0.12906
883.23865,0.12933
885.16711,0.12429
887.09558,0.11978
889.02405,0.11859
890.95252,0.11207
892.88099,0.10044
894.80946,0.09356
896.73793,0.09462
898.66640,0.10105
900.59486,0.11229
902.52333,0.12242
904.45180,0.12314
906.38027,0.11856
908.30874,0.11085
910.23721,0.09919
912.16568,0.09304
914.09414,0.09786
916.02261,0.10838
917.95108,0.11920
919.87955,0.12378
921.80802,0.11583
923.73649,0.10760
925.66496,0.11338
927.59343,0.12519
929.52189,0.12960
931.45036,0.12249
933.37883,0.11265
935.30730,0.11136
937.23577,0.11046
939.16424,0.10004
941.09271,0.09699
943.02117,0.11371
944.94964,0.13066
946.87811,0.12985
948.80658,0.11677
950.73505,0.10664
952.66352,0.10877
954.59199,0.11758
956.52045,0.12036
958.44892,0.11573
960.37739,0.11132
962.30586,0.11528
964.23433,0.12602
966.16280,0.12972
968.09127,0.12383
970.01974,0.11903
971.94820,0.12089
973.87667,0.12858
975.80514,0.13706
977.73361,0.14024
979.66208,0.13706
981.59055,0.13024
983.51902,0.12503
985.44748,0.12426
987.37595,0.12028
989.30442,0.11190
991.23289,0.11273
993.16136,0.12404
995.08983,0.13255
997.01830,0.13327
998.94677,0.13066
1000.87523,0.12848
1002.80370,0.12918
1004.73217,0.12873
1006.66064,0.11827
1008.58911,0.10379
1010.51758,0.09848
1012.44605,0.10110
1014.37451,0.10820
1016.30298,0.11978
1018.23145,0.12573
1020.15992,0.12094
1022.08839,0.11721
1024.01686,0.11887
1025.94533,0.12619
1027.87380,0.14066
1029.80226,0.14365
1031.73073,0.12857
1033.65920,0.11373
1035.58767,0.10699
1037.51614,0.10924
1039.44461,0.11552
1041.37308,0.11623
1043.30154,0.11708
1045.23001,0.12873
1047.15848,0.14014
1049.08695,0.13581
1051.01542,0.12405
1052.94389,0.11811
1054.87236,0.11941
1056.80083,0.12180
1058.72929,0.12056
1060.65776,0.11756
1062.58623,0.11773
1064.51470,0.12592
1066.44317,0.13901
1068.37164,0.14893
1070.30011,0.15278
1072.22857,0.15320
1074.15704,0.15244
1076.08551,0.15003
1078.01398,0.14649
1079.94245,0.13891
1081.87092,0.13011
1083.79939,0.12766
1085.72786,0.12270
1087.65632,0.11331
1089.58479,0.11251
1091.51326,0.11112
1093.44173,0.10202
1095.37020,0.10430
1097.29867,0.12232
1099.22714,0.14136
1101.15560,0.15273
1103.08407,0.15275
1105.01254,0.14848
1106.94101,0.14444
1108.86948,0.13745
1110.79795,0.13835
1112.72642,0.14628
1114.65489,0.14557
1116.58335,0.13951
1118.51182,0.13532
1120.44029,0.13259
1122.36876,0.13387
1124.29723,0.13699
1126.22570,0.13414
1128.15417,0.12634
1130.08263,0.12289
1132.01110,0.12695
1133.93957,0.12863
1135.86804,0.12539
1137.79651,0.12861
1139.72498,0.13644
1141.65345,0.14462
1143.58191,0.15076
1145.51038,0.14797
1147.43885,0.14442
1149.36732,0.14656
1151.29579,0.14697
1153.22426,0.14416
1155.15273,0.14057
1157.08120,0.13577
1159.00966,0.13592
1160.93813,0.14228
1162.86660,0.14296
1164.79507,0.13767
1166.72354,0.13924
1168.65201,0.14846
1170.58048,0.15206
1172.50894,0.14636
1174.43741,0.14289
1176.36588,0.14633
1178.29435,0.14848
1180.22282,0.14766
1182.15129,0.14292
1184.07976,0.12757
1186.00823,0.10855
1187.93669,0.10066
1189.86516,0.11443
1191.79363,0.13963
1193.72210,0.15131
1195.65057,0.14889
1197.57904,0.14548
1199.50751,0.14558
1201.43597,0.14678
1203.36444,0.14553
1205.29291,0.14445
1207.22138,0.14495
1209.14985,0.14293
1211.07832,0.13840
1213.00679,0.13804
1214.93526,0.14443
1216.86372,0.15119
1218.79219,0.15243
1220.72066,0.15010
1222.64913,0.14765
1224.57760,0.14636
1226.50607,0.14837
1228.43454,0.15387
1230.36300,0.15691
1232.29147,0.15399
1234.21994,0.15047
1236.14841,0.14847
1238.07688,0.14698
1240.00535,0.14652
1241.93382,0.14494
1243.86229,0.14046
1245.79075,0.13530
1247.71922,0.13458
1249.64769,0.13882
1251.57616,0.14430
1253.50463,0.14787
1255.43310,0.14692
1257.36157,0.14393
1259.29003,0.14299
1261.21850,0.14220
1263.14697,0.14326
1265.07544,0.15023
1267.00391,0.15517
1268.93238,0.15261
1270.86085,0.14819
1272.78932,0.14512
1274.71778,0.14503
1276.64625,0.14832
1278.57472,0.14992
1280.50319,0.14722
1282.43166,0.14596
1284.36013,0.14946
1286.28860,0.15183
1288.21706,0.15085
1290.14553,0.15183
1292.07400,0.15543
1294.00247,0.15851
1295.93094,0.15789
1297.85941,0.15191
1299.78788,0.14456
1301.71634,0.13851
1303.64481,0.13291
1305.57328,0.13339
1307.50175,0.14389
1309.43022,0.15486
1311.35869,0.16147
1313.28716,0.16527
1315.21563,0.16222
1317.14409,0.15572
1319.07256,0.15151
1321.00103,0.14975
1322.92950,0.15191
1324.85797,0.15440
1326.78644,0.15369
1328.71491,0.15376
1330.64337,0.15484
1332.57184,0.15511
1334.50031,0.15717
1336.42878,0.16120
1338.35725,0.16484
1340.28572,0.15451
1342.21419,0.09837
1344.14266,0.02379
1346.07112,0.02171
1347.99959,0.09548
1349.92806,0.15049
1351.85653,0.16126
1353.78500,0.15930
1355.71347,0.15664
1357.64194,0.15719
1359.57040,0.16185
1361.49887,0.16666
1363.42734,0.16571
1365.35581,0.16112
1367.28428,0.15727
1369.21275,0.15660
1371.14122,0.16124
1373.06969,0.16662
1374.99815,0.16718
1376.92662,0.16348
1378.85509,0.16079
1380.78356,0.16327
1382.71203,0.16896
1384.64050,0.17348
1386.56897,0.17454
1388.49743,0.16996
1390.42590,0.16475
1392.35437,0.16520
1394.28284,0.17069
1396.21131,0.17554
1398.13978,0.17453
1400.06825,0.16797
1401.99672,0.16500
1403.92518,0.16921
1405.85365,0.17088
1407.78212,0.16805
1409.71059,0.16615
1411.63906,0.16412
1413.56753,0.16541
1415.49600,0.17404
1417.42446,0.18683
1419.35293,0.19106
1421.28140,0.18497
1423.20987,0.18311
1425.13834,0.18265
1427.06681,0.17886
1428.99528,0.17683
1430.92375,0.17554
1432.85221,0.17171
1434.78068,0.17103
1436.70915,0.17523
1438.63762,0.17766
1440.56609,0.17761
1442.49456,0.17624
1444.42303,0.17546
1446.35149,0.17932
1448.27996,0.18433
1450.20843,0.18322
1452.13690,0.18236
1454.06537,0.19311
1455.99384,0.21813
1457.92231,0.22435
1459.85077,0.19915
1461.77924,0.18663
1463.70771,0.19149
1465.63618,0.19567
1467.56465,0.18757
1469.49312,0.18514
1471.42159,0.19616
1473.35006,0.20565
1475.27852,0.20133
1477.20699,0.19204
1479.13546,0.18584
1481.06393,0.18418
1482.99240,0.18311
1484.92087,0.18643
1486.84934,0.19851
1488.77780,0.20967
1490.70627,0.19984
1492.63474,0.18361
1494.56321,0.18185
1496.49168,0.19172
1498.42015,0.19764
1500.34862,0.20171
1502.27709,0.21946
1504.20555,0.25224
1506.13402,0.28102
1508.06249,0.24552
1509.99096,0.20178
1511.91943,0.18814
1513.84790,0.19208
1515.77637,0.20656
1517.70483,0.22109
1519.63330,0.22901
1521.56177,0.23075
1523.49024,0.22412
1525.41871,0.21659
1527.34718,0.20588
1529.27565,0.19817
1531.20412,0.20418
1533.13258,0.21588
1535.06105,0.21594
1536.98952,0.21711
1538.91799,0.23873
1540.84646,0.26033
1542.77493,0.24178
1544.70340,0.21773
1546.63186,0.20508
1548.56033,0.20355
1550.48880,0.20295
1552.41727,0.20262
1554.34574,0.21327
1556.27421,0.23882
1558.20268,0.26939
1560.13115,0.23900
1562.05961,0.20214
1563.98808,0.19592
1565.91655,0.20286
1567.84502,0.20950
1569.77349,0.20444
1571.70196,0.19175
1573.63043,0.19287
1575.55889,0.20625
1577.48736,0.20199
1579.41583,0.18407
1581.34430,0.17636
1583.27277,0.17770
1585.20124,0.17916
1587.12971,0.17701
1589.05818,0.17493
1590.98664,0.17713
1592.91511,0.18105
1594.84358,0.18314
1596.77205,0.18312
1598.70052,0.18091
1600.62899,0.17951
1602.55746,0.18266
1604.48592,0.18732
1606.41439,0.18705
1608.34286,0.18146
1610.27133,0.17717
1612.19980,0.17781
1614.12827,0.18485
1616.05674,0.20032
1617.98521,0.20689
1619.91367,0.20035
1621.84214,0.19777
1623.77061,0.19806
1625.69908,0.19655
1627.62755,0.19470
1629.55602,0.19120
1631.48449,0.19118
1633.41295,0.20338
1635.34142,0.22597
1637.26989,0.22452
1639.19836,0.20663
1641.12683,0.19763
1643.05530,0.19927
1644.98377,0.21379
1646.91223,0.23327
1648.84070,0.23190
1650.76917,0.22840
1652.69764,0.23823
1654.62611,0.22807
1656.55458,0.20603
1658.48305,0.20302
1660.41152,0.22127
1662.33998,0.23617
1664.26845,0.22054
1666.19692,0.20526
1668.12539,0.20976
1670.05386,0.21087
1671.98233,0.19805
1673.91080,0.19402
1675.83926,0.19637
1677.76773,0.19571
1679.69620,0.19977
1681.62467,0.21883
1683.55314,0.24685
1685.48161,0.23918
1687.41008,0.21559
1689.33855,0.20330
1691.26701,0.19500
1693.19548,0.19486
1695.12395,0.21051
1697.05242,0.23258
1698.98089,0.24075
1700.90936,0.22885
1702.83783,0.21601
1704.76629,0.21144
1706.69476,0.20109
1708.62323,0.18769
1710.55170,0.18449
1712.48017,0.19371
1714.40864,0.21309
1716.33711,0.23288
1718.26558,0.22864
1720.19404,0.21043
1722.12251,0.19932
1724.05098,0.19228
1725.97945,0.18741
1727.90792,0.18998
1729.83639,0.19957
1731.76486,0.21036
1733.69332,0.21351
1735.62179,0.20273
1737.55026,0.19955
1739.47873,0.20657
1741.40720,0.20879
1743.33567,0.20542
1745.26414,0.20872
1747.19261,0.22176
1749.12107,0.23190
1751.04954,0.22088
1752.97801,0.20224
1754.90648,0.19563
1756.83495,0.19649
1758.76342,0.19567
1760.69189,0.19516
1762.62035,0.19286
1764.54882,0.18697
1766.47729,0.18585
1768.40576,0.19458
1770.33423,0.20949
1772.26270,0.21302
1774.19117,0.20049
1776.11964,0.19292
1778.04810,0.19386
1779.97657,0.19560
1781.90504,0.19155
1783.83351,0.18710
1785.76198,0.18651
1787.69045,0.18675
1789.61892,0.19049
1791.54738,0.19982
1793.47585,0.20431
1795.40432,0.20064
1797.33279,0.19819
1799.26126,0.19831
1801.18973,0.19667
1803.11820,0.19162
1805.04666,0.18528
1806.97513,0.18214
1808.90360,0.18534
1810.83207,0.19057
1812.76054,0.19059
1814.68901,0.19058
1816.61748,0.20063
1818.54595,0.20970
1820.47441,0.20646
1822.40288,0.20439
1824.33135,0.20487
1826.25982,0.20214
1828.18829,0.20347
1830.11676,0.20139
1832.04523,0.19176
1833.97369,0.18830
1835.90216,0.19185
1837.83063,0.19178
1839.75910,0.18793
1841.68757,0.19024
1843.61604,0.19596
1845.54451,0.19448
1847.47298,0.18995
1849.40144,0.18729
1851.32991,0.18480
1853.25838,0.18366
1855.18685,0.18368
1857.11532,0.18199
1859.04379,0.17917
1860.97226,0.17773
1862.90072,0.17949
1864.82919,0.18442
1866.75766,0.19217
1868.68613,0.19976
1870.61460,0.19984
1872.54307,0.19276
1874.47154,0.18447
1876.40001,0.18122
1878.32847,0.18398
1880.25694,0.18767
1882.18541,0.18945
1884.11388,0.18932
1886.04235,0.18857
1887.97082,0.19012
1889.89929,0.19232
1891.82775,0.19119
1893.75622,0.19055
1895.68469,0.19089
1897.61316,0.18726
1899.54163,0.18232
1901.47010,0.18060
1903.39857,0.18088
1905.32704,0.18245
1907.25550,0.18699
1909.18397,0.19072
1911.11244,0.18985
1913.04091,0.18875
1914.96938,0.18976
1916.89785,0.19100
1918.82632,0.18982
1920.75478,0.18631
1922.68325,0.18390
1924.61172,0.18420
1926.54019,0.18635
1928.46866,0.18775
1930.39713,0.18683
1932.32560,0.18486
1934.25407,0.18413
1936.18253,0.18553
1938.11100,0.18844
1940.03947,0.19179
1941.96794,0.19310
1943.89641,0.19068
1945.82488,0.18809
1947.75335,0.18915
1949.68181,0.19062
1951.61028,0.18874
1953.53875,0.18768
1955.46722,0.18887
1957.39569,0.18719
1959.32416,0.18301
1961.25263,0.18065
1963.18110,0.18134
1965.10956,0.18497
1967.03803,0.18946
1968.96650,0.19177
1970.89497,0.19153
1972.82344,0.18966
1974.75191,0.18820
1976.68038,0.18848
1978.60884,0.19022
1980.53731,0.19131
1982.46578,0.19037
1984.39425,0.19021
1986.32272,0.19098
1988.25119,0.19089
1990.17966,0.19103
1992.10812,0.18950
1994.03659,0.18559
1995.96506,0.18401
1997.89353,0.18558
1999.82200,0.18695
2001.75047,0.18587
2003.67894,0.18393
2005.60741,0.18532
2007.53587,0.18928
2009.46434,0.19050
2011.39281,0.18910
2013.32128,0.19021
2015.24975,0.19362
2017.17822,0.19412
2019.10669,0.19144
2021.03515,0.18798
2022.96362,0.18546
2024.89209,0.18669
2026.82056,0.18858
2028.74903,0.18746
2030.67750,0.18576
2032.60597,0.18522
2034.53444,0.18625
2036.46290,0.18771
2038.39137,0.18899
2040.31984,0.19130
2042.24831,0.19362
2044.17678,0.19400
2046.10525,0.19076
2048.03372,0.18552
2049.96218,0.18349
2051.89065,0.18495
2053.81912,0.18634
2055.74759,0.18871
2057.67606,0.19209
2059.60453,0.19180
2061.53300,0.18819
2063.46147,0.18613
2065.38993,0.18647
2067.31840,0.18789
2069.24687,0.19068
2071.17534,0.19361
2073.10381,0.19471
2075.03228,0.19315
2076.96075,0.18958
2078.88921,0.18628
2080.81768,0.18512
2082.74615,0.18808
2084.67462,0.19344
2086.60309,0.19754
2088.53156,0.19796
2090.46003,0.19409
2092.38850,0.19163
2094.31696,0.19208
2096.24543,0.19016
2098.17390,0.18669
2100.10237,0.18586
2102.03084,0.18715
2103.95931,0.18753
2105.88778,0.18671
2107.81624,0.18585
2109.74471,0.18509
2111.67318,0.18622
2113.60165,0.19084
2115.53012,0.19526
2117.45859,0.19497
2119.38706,0.19199
2121.31553,0.19122
2123.24399,0.19254
2125.17246,0.19182
2127.10093,0.18992
2129.02940,0.19130
2130.95787,0.19289
2132.88634,0.18322
2134.81481,0.16168
2136.74327,0.15264
2138.67174,0.16973
2140.60021,0.18890
2142.52868,0.19299
2144.45715,0.19138
2146.38562,0.19100
2148.31409,0.19063
2150.24255,0.18796
2152.17102,0.18539
2154.09949,0.18679
2156.02796,0.18935
2157.95643,0.19029
2159.88490,0.19059
2161.81337,0.19097
2163.74184,0.19064
2165.67030,0.18855
2167.59877,0.18587
2169.52724,0.18626
2171.45571,0.18991
2173.38418,0.19215
2175.31265,0.19152
2177.24112,0.19114
2179.16958,0.19126
2181.09805,0.18967
2183.02652,0.18833
2184.95499,0.18881
2186.88346,0.18908
2188.81193,0.19012
2190.74040,0.19204
2192.66887,0.19229
2194.59733,0.19273
2196.52580,0.19450
2198.45427,0.19483
2200.38274,0.19328
2202.31121,0.19019
2204.23968,0.18658
2206.16815,0.18620
2208.09661,0.19021
2210.02508,0.19421
2211.95355,0.19390
2213.88202,0.18956
2215.81049,0.18545
2217.73896,0.18653
2219.66743,0.19087
2221.59590,0.19325
2223.52436,0.19382
2225.45283,0.19397
2227.38130,0.19473
2229.30977,0.19565
2231.23824,0.19359
2233.16671,0.19028
2235.09518,0.18920
2237.02364,0.19072
2238.95211,0.19497
2240.88058,0.19680
2242.80905,0.19309
2244.73752,0.18963
2246.66599,0.18997
2248.59446,0.19333
2250.52293,0.19577
2252.45139,0.19321
2254.37986,0.18887
2256.30833,0.18715
2258.23680,0.18792
2260.16527,0.19123
2262.09374,0.19495
2264.02221,0.19572
2265.95067,0.19473
2267.87914,0.19244
2269.80761,0.19171
2271.73608,0.19771
2273.66455,0.20565
2275.59302,0.20682
2277.52149,0.19990
2279.44996,0.19213
2281.37842,0.19169
2283.30689,0.19535
2285.23536,0.19589
2287.16383,0.19412
2289.09230,0.19419
2291.02077,0.19767
2292.94924,0.19980
2294.87770,0.19949
2296.80617,0.20197
2298.73464,0.20348
2300.66311,0.20179
2302.59158,0.20233
2304.52005,0.20554
2306.44852,0.20682
2308.37699,0.20330
2310.30545,0.20053
2312.23392,0.20469
2314.16239,0.21160
2316.09086,0.21256
2318.01933,0.20805
2319.94780,0.20765
2321.87627,0.21303
2323.80473,0.21646
2325.73320,0.21396
2327.66167,0.20913
2329.59014,0.21235
2331.51861,0.22209
2333.44708,0.22208
2335.37555,0.21982
2337.30401,0.22707
2339.23248,0.23511
2341.16095,0.23784
2343.08942,0.23102
2345.01789,0.22185
2346.94636,0.21990
2348.87483,0.22066
2350.80330,0.22495
2352.73176,0.23522
2354.66023,0.24210
2356.58870,0.23498
2358.51717,0.22818
2360.44564,0.23973
2362.37411,0.25836
2364.30258,0.26920
2366.23104,0.27078
2368.15951,0.25686
2370.08798,0.23031
2372.01645,0.21171
2373.94492,0.20869
2375.87339,0.21326
2377.80186,0.21577
2379.73033,0.21115
2381.65879,0.20373
2383.58726,0.19872
2385.51573,0.19533
2387.44420,0.19247
2389.37267,0.19154
2391.30114,0.19200
2393.22961,0.19172
2395.15807,0.19068
2397.08654,0.18945
2399.01501,0.18884
2400.94348,0.18994
2402.87195,0.19291
2404.80042,0.19553
2406.72889,0.19579
2408.65736,0.19513
2410.58582,0.19321
2412.51429,0.18963
2414.44276,0.18663
2416.37123,0.18552
2418.29970,0.18683
2420.22817,0.18931
2422.15664,0.19125
2424.08510,0.19176
2426.01357,0.19085
2427.94204,0.19022
2429.87051,0.19202
2431.79898,0.19623
2433.72745,0.19788
2435.65592,0.19630
2437.58439,0.19590
2439.51285,0.19443
2441.44132,0.19061
2443.36979,0.18965
2445.29826,0.19251
2447.22673,0.19497
2449.15520,0.19432
2451.08367,0.18981
2453.01213,0.18565
2454.94060,0.18988
2456.86907,0.19815
2458.79754,0.20029
2460.72601,0.19845
2462.65448,0.19569
2464.58295,0.19274
2466.51142,0.19285
2468.43988,0.19359
2470.36835,0.19334
2472.29682,0.19454
2474.22529,0.19513
2476.15376,0.19460
2478.08223,0.19560
2480.01070,0.19722
2481.93916,0.19797
2483.86763,0.19767
2485.79610,0.19691
2487.72457,0.19778
2489.65304,0.19869
2491.58151,0.19487
2493.50998,0.18879
2495.43844,0.18768
2497.36691,0.19167
2499.29538,0.19397
2501.22385,0.19260
2503.15232,0.19196
2505.08079,0.19226
2507.00926,0.19181
2508.93773,0.19207
2510.86619,0.19403
2512.79466,0.19666
2514.72313,0.19730
2516.65160,0.19568
2518.58007,0.19560
2520.50854,0.19909
2522.43701,0.20172
2524.36547,0.19967
2526.29394,0.19591
2528.22241,0.19459
2530.15088,0.19538
2532.07935,0.19475
2534.00782,0.19340
2535.93629,0.19497
2537.86476,0.19820
2539.79322,0.19810
2541.72169,0.19282
2543.65016,0.18746
2545.57863,0.18712
2547.50710,0.19083
2549.43557,0.19493
2551.36404,0.19613
2553.29250,0.19591
2555.22097,0.19892
2557.14944,0.20177
2559.07791,0.19890
2561.00638,0.19450
2562.93485,0.19252
2564.86332,0.19129
2566.79179,0.19062
2568.72025,0.19091
2570.64872,0.19272
2572.57719,0.19623
2574.50566,0.19834
2576.43413,0.19794
2578.36260,0.19765
2580.29107,0.19889
2582.21953,0.20039
2584.14800,0.19978
2586.07647,0.19820
2588.00494,0.19813
2589.93341,0.19751
2591.86188,0.19622
2593.79035,0.19798
2595.71882,0.20022
2597.64728,0.19810
2599.57575,0.19271
2601.50422,0.18891
2603.43269,0.19086
2605.36116,0.19626
2607.28963,0.19721
2609.21810,0.18903
2611.14656,0.18242
2613.07503,0.19013
2615.00350,0.19961
2616.93197,0.19841
2618.86044,0.19738
2620.78891,0.20110
2622.71738,0.20115
2624.64585,0.19761
2626.57431,0.19541
2628.50278,0.19580
2630.43125,0.19746
2632.35972,0.19802
2634.28819,0.19939
2636.21666,0.20324
2638.14513,0.20500
2640.07359,0.20229
2642.00206,0.20060
2643.93053,0.20349
2645.85900,0.20523
2647.78747,0.20360
2649.71594,0.20371
2651.64441,0.20502
2653.57288,0.20239
2655.50134,0.19787
2657.42981,0.19751
2659.35828,0.19943
2661.28675,0.19849
2663.21522,0.19664
2665.14369,0.19675
2667.07216,0.19808
2669.00062,0.20093
2670.92909,0.20353
2672.85756,0.20407
2674.78603,0.20456
2676.71450,0.20370
2678.64297,0.20070
2680.57144,0.20140
2682.49990,0.20535
2684.42837,0.20398
2686.35684,0.19828
2688.28531,0.19486
2690.21378,0.19439
2692.14225,0.19668
2694.07072,0.19937
2695.99919,0.19937
2697.92765,0.19810
2699.85612,0.19827
2701.78459,0.20202
2703.71306,0.20685
2705.64153,0.20661
2707.57000,0.20174
2709.49847,0.19804
2711.42693,0.19922
2713.35540,0.20357
2715.28387,0.20639
2717.21234,0.20808
2719.14081,0.21007
2721.06928,0.20913
2722.99775,0.20535
2724.92622,0.20266
2726.85468,0.20304
2728.78315,0.20617
2730.71162,0.20762
2732.64009,0.20427
2734.56856,0.20213
2736.49703,0.20521
2738.42550,0.20841
2740.35396,0.20967
2742.28243,0.21104
2744.21090,0.21118
2746.13937,0.20938
2748.06784,0.20823
2749.99631,0.20882
2751.92478,0.20936
2753.85325,0.20823
2755.78171,0.20585
2757.71018,0.20520
2759.63865,0.20818
2761.56712,0.21064
2763.49559,0.20969
2765.42406,0.20806
2767.35253,0.20564
2769.28099,0.20339
2771.20946,0.20572
2773.13793,0.20928
2775.06640,0.20843
2776.99487,0.20822
2778.92334,0.21376
2780.85181,0.21705
2782.78028,0.21422
2784.70874,0.21351
2786.63721,0.21432
2788.56568,0.21241
2790.49415,0.21384
2792.42262,0.21945
2794.35109,0.22223
2796.27956,0.22113
2798.20802,0.21817
2800.13649,0.21549
2802.06496,0.21583
2803.99343,0.21474
2805.92190,0.20882
2807.85037,0.20651
2809.77884,0.21024
2811.70731,0.21218
2813.63577,0.21177
2815.56424,0.21192
2817.49271,0.21370
2819.42118,0.21696
2821.34965,0.21587
2823.27812,0.20883
2825.20659,0.20440
2827.13505,0.20710
2829.06352,0.21060
2830.99199,0.21149
2832.92046,0.21402
2834.84893,0.21833
2836.77740,0.22067
2838.70587,0.22208
2840.63433,0.22296
2842.56280,0.21858
2844.49127,0.21165
2846.41974,0.20893
2848.34821,0.20987
2850.27668,0.21292
2852.20515,0.21592
2854.13362,0.21544
2856.06208,0.21290
2857.99055,0.21421
2859.91902,0.21806
2861.84749,0.21694
2863.77596,0.21249
2865.70443,0.21137
2867.63290,0.21405
2869.56136,0.21701
2871.48983,0.21884
2873.41830,0.22005
2875.34677,0.21980
2877.27524,0.21769
2879.20371,0.21604
2881.13218,0.21579
2883.06065,0.21656
2884.98911,0.21657
2886.91758,0.21129
2888.84605,0.20312
2890.77452,0.19916
2892.70299,0.20314
2894.63146,0.20912
2896.55993,0.20785
2898.48839,0.20617
2900.41686,0.21278
2902.34533,0.21953
2904.27380,0.21613
2906.20227,0.20819
2908.13074,0.20504
2910.05921,0.20473
2911.98768,0.20443
2913.91614,0.20450
2915.84461,0.20420
2917.77308,0.20352
2919.70155,0.20440
2921.63002,0.20992
2923.55849,0.21561
2925.48696,0.20930
2927.41542,0.20115
2929.34389,0.20924
2931.27236,0.21809
2933.20083,0.21411
2935.12930,0.20862
2937.05777,0.20860
2938.98624,0.21107
2940.91471,0.21139
2942.84317,0.21039
2944.77164,0.21039
2946.70011,0.20896
2948.62858,0.20711
2950.55705,0.20834
2952.48552,0.21277
2954.41399,0.21696
2956.34245,0.21454
2958.27092,0.20980
2960.19939,0.21387
2962.12786,0.22287
2964.05633,0.22564
2965.98480,0.21945
2967.91327,0.21149
2969.84174,0.21097
2971.77020,0.21589
2973.69867,0.21874
2975.62714,0.21940
2977.55561,0.21870
2979.48408,0.21682
2981.41255,0.21560
2983.34102,0.21503
2985.26948,0.21826
2987.19795,0.22522
2989.12642,0.22854
2991.05489,0.22598
2992.98336,0.22195
2994.91183,0.22060
2996.84030,0.22102
2998.76877,0.22291
3000.69723,0.22458
3002.62570,0.21983
3004.55417,0.21320
3006.48264,0.21095
3008.41111,0.21004
3010.33958,0.20998
3012.26805,0.20610
3014.19651,0.19064
3016.12498,0.17404
3018.05345,0.17770
3019.98192,0.19744
3021.91039,0.21127
3023.83886,0.21772
3025.76733,0.22045
3027.69579,0.21669
3029.62426,0.21366
3031.55273,0.21861
3033.48120,0.22629
3035.40967,0.22784
3037.33814,0.22467
3039.26661,0.22392
3041.19508,0.22554
3043.12354,0.22542
3045.05201,0.22122
3046.98048,0.21319
3048.90895,0.20991
3050.83742,0.21502
3052.76589,0.21766
3054.69436,0.21342
3056.62282,0.21166
3058.55129,0.21828
3060.47976,0.22400
3062.40823,0.22357
3064.33670,0.22074
3066.26517,0.21502
3068.19364,0.21281
3070.12211,0.21795
3072.05057,0.21998
3073.97904,0.21723
3075.90751,0.21774
3077.83598,0.21974
3079.76445,0.21886
3081.69292,0.21723
3083.62139,0.21491
3085.54985,0.21210
3087.47832,0.20870
3089.40679,0.20218
3091.33526,0.19715
3093.26373,0.19669
3095.19220,0.19759
3097.12067,0.20292
3099.04914,0.21374
3100.97760,0.22208
3102.90607,0.22277
3104.83454,0.22252
3106.76301,0.22687
3108.69148,0.22880
3110.61995,0.22411
3112.54842,0.21729
3114.47688,0.21470
3116.40535,0.21704
3118.33382,0.21700
3120.26229,0.21397
3122.19076,0.21584
3124.11923,0.22251
3126.04770,0.22437
3127.97617,0.21796
3129.90463,0.21028
3131.83310,0.20963
3133.76157,0.21557
3135.69004,0.22011
3137.61851,0.21852
3139.54698,0.21506
3141.47545,0.21683
3143.40391,0.21843
3145.33238,0.21392
3147.26085,0.21100
3149.18932,0.21360
3151.11779,0.21683
3153.04626,0.21886
3154.97473,0.22271
3156.90320,0.23061
3158.83166,0.23849
3160.76013,0.24031
3162.68860,0.23779
3164.61707,0.23449
3166.54554,0.22843
3168.47401,0.22129
3170.40248,0.22049
3172.33094,0.22423
3174.25941,0.22435
3176.18788,0.22208
3178.11635,0.22445
3180.04482,0.23138
3181.97329,0.23350
3183.90176,0.23172
3185.83022,0.23352
3187.75869,0.23304
3189.68716,0.22879
3191.61563,0.22873
3193.54410,0.23231
3195.47257,0.22966
3197.40104,0.22082
3199.32951,0.21931
3201.25797,0.22537
3203.18644,0.23048
3205.11491,0.23523
3207.04338,0.23748
3208.97185,0.23032
3210.90032,0.21894
3212.82879,0.21429
3214.75725,0.21512
3216.68572,0.21599
3218.61419,0.21602
3220.54266,0.21533
3222.47113,0.21662
3224.39960,0.22028
3226.32807,0.22152
3228.25654,0.22165
3230.18500,0.22560
3232.11347,0.22952
3234.04194,0.22789
3235.97041,0.22339
3237.89888,0.22214
3239.82735,0.22306
3241.75582,0.21782
3243.68428,0.20827
3245.61275,0.20698
3247.54122,0.21379
3249.46969,0.21521
3251.39816,0.21034
3253.32663,0.20918
3255.25510,0.21127
3257.18357,0.21314
3259.11203,0.21605
3261.04050,0.22064
3262.96897,0.22506
3264.89744,0.22481
3266.82591,0.21973
3268.75438,0.21387
3270.68285,0.21236
3272.61131,0.21635
3274.53978,0.21956
3276.46825,0.21881
3278.39672,0.21649
3280.32519,0.21786
3282.25366,0.22458
3284.18213,0.22932
3286.11060,0.22862
3288.03906,0.22714
3289.96753,0.22647
3291.89600,0.22615
3293.82447,0.22899
3295.75294,0.22975
3297.68141,0.22050
3299.60988,0.21084
3301.53834,0.20966
3303.46681,0.21152
3305.39528,0.21308
3307.32375,0.21504
3309.25222,0.21686
3311.18069,0.21568
3313.10916,0.21216
3315.03763,0.21184
3316.96609,0.21600
3318.89456,0.21933
3320.82303,0.21708
3322.75150,0.21179
3324.67997,0.20573
3326.60844,0.19826
3328.53691,0.19598
3330.46537,0.20620
3332.39384,0.22216
3334.32231,0.23251
3336.25078,0.23673
3338.17925,0.23574
3340.10772,0.22832
3342.03619,0.21826
3343.96466,0.21088
3345.89312,0.20768
3347.82159,0.20640
3349.75006,0.20729
3351.67853,0.21135
3353.60700,0.21686
3355.53547,0.22269
3357.46394,0.22500
3359.39240,0.22146
3361.32087,0.21782
3363.24934,0.21799
3365.17781,0.21987
3367.10628,0.22290
3369.03475,0.22662
3370.96322,0.22765
3372.89168,0.22550
3374.82015,0.22354
3376.74862,0.21973
3378.67709,0.21283
3380.60556,0.21044
3382.53403,0.21469
3384.46250,0.22049
3386.39097,0.22275
3388.31943,0.21728
3390.24790,0.21068
3392.17637,0.21517
3394.10484,0.22503
3396.03331,0.22545
3397.96178,0.22033
3399.89025,0.21682
3401.81871,0.21335
3403.74718,0.21330
3405.67565,0.21700
3407.60412,0.21710
3409.53259,0.21184
3411.46106,0.20934
3413.38953,0.21158
3415.31800,0.21114
3417.24646,0.21138
3419.17493,0.21943
3421.10340,0.22749
3423.03187,0.22596
3424.96034,0.21902
3426.88881,0.21710
3428.81728,0.22231
3430.74574,0.22236
3432.67421,0.21051
3434.60268,0.20169
3436.53115,0.20699
3438.45962,0.21361
3440.38809,0.21036
3442.31656,0.20781
3444.24503,0.21368
3446.17349,0.21857
3448.10196,0.21585
3450.03043,0.21156
3451.95890,0.21267
3453.88737,0.21648
3455.81584,0.21672
3457.74431,0.21406
3459.67277,0.21358
3461.60124,0.21714
3463.52971,0.21861
3465.45818,0.21200
3467.38665,0.20400
3469.31512,0.20224
3471.24359,0.20329
3473.17206,0.20257
3475.10052,0.20082
3477.02899,0.19996
3478.95746,0.19999
3480.88593,0.19946
3482.81440,0.19731
3484.74287,0.19744
3486.67134,0.20010
3488.59980,0.19700
3490.52827,0.19075
3492.45674,0.18956
3494.38521,0.19022
3496.31368,0.19045
3498.24215,0.19172
3500.17062,0.19107
3502.09909,0.18923
3504.02755,0.19029
3505.95602,0.19151
3507.88449,0.19080
3509.81296,0.18860
3511.74143,0.18462
3513.66990,0.18074
3515.59837,0.17876
3517.52683,0.18204
3519.45530,0.18962
3521.38377,0.19404
3523.31224,0.19465
3525.24071,0.19469
3527.16918,0.19234
3529.09765,0.18596
3531.02611,0.17806
3532.95458,0.17153
3534.88305,0.16862
3536.81152,0.16987
3538.73999,0.17076
3540.66846,0.17153
3542.59693,0.17615
3544.52540,0.18029
3546.45386,0.18074
3548.38233,0.18217
3550.31080,0.18625
3552.23927,0.18954
3554.16774,0.18892
3556.09621,0.18515
3558.02468,0.17857
3559.95314,0.17110
3561.88161,0.17032
3563.81008,0.18050
3565.73855,0.19541
3567.66702,0.19890
3569.59549,0.18566
3571.52396,0.16998
3573.45243,0.16074
3575.38089,0.15967
3577.30936,0.16228
3579.23783,0.16490
3581.16630,0.16444
3583.09477,0.16219
3585.02324,0.16974
3586.95171,0.18440
3588.88017,0.17902
3590.80864,0.16312
3592.73711,0.16098
3594.66558,0.17078
3596.59405,0.17805
3598.52252,0.17661
3600.45099,0.16797
3602.37946,0.16092
3604.30792,0.16191
3606.23639,0.16519
3608.16486,0.16489
3610.09333,0.16453
3612.02180,0.17041
3613.95027,0.17183
3615.87874,0.16393
3617.80720,0.16088
3619.73567,0.16081
3621.66414,0.15750
3623.59261,0.15879
3625.52108,0.16991
3627.44955,0.19043
3629.37802,0.19714
3631.30649,0.18154
3633.23495,0.16793
3635.16342,0.15742
3637.09189,0.15247
3639.02036,0.15139
3640.94883,0.14942
3642.87730,0.14858
3644.80577,0.15404
3646.73423,0.17162
3648.66270,0.19149
3650.59117,0.18117
3652.51964,0.15902
3654.44811,0.14805
3656.37658,0.14588
3658.30505,0.14333
3660.23352,0.14145
3662.16198,0.14306
3664.09045,0.14270
3666.01892,0.14087
3667.94739,0.14626
3669.87586,0.15788
3671.80433,0.15858
3673.73280,0.16082
3675.66126,0.17367
3677.58973,0.17020
3679.51820,0.15661
3681.44667,0.14673
3683.37514,0.14205
3685.30361,0.14309
3687.23208,0.14482
3689.16055,0.14366
3691.08901,0.14359
3693.01748,0.13976
3694.94595,0.13370
3696.87442,0.13280
3698.80289,0.13458
3700.73136,0.13497
3702.65983,0.13506
3704.58829,0.13646
3706.51676,0.14184
3708.44523,0.15134
3710.37370,0.16120
3712.30217,0.16132
3714.23064,0.15541
3716.15911,0.15661
3718.08757,0.15783
3720.01604,0.15124
3721.94451,0.14734
3723.87298,0.14980
3725.80145,0.14901
3727.72992,0.14823
3729.65839,0.15417
3731.58686,0.16533
3733.51532,0.17875
3735.44379,0.18304
3737.37226,0.16774
3739.30073,0.15093
3741.22920,0.14488
3743.15767,0.15438
3745.08614,0.17565
3747.01460,0.18108
3748.94307,0.17035
3750.87154,0.15124
3752.80001,0.13953
3754.72848,0.14113
3756.65695,0.14850
3758.58542,0.15556
3760.51389,0.15244
3762.44235,0.14380
3764.37082,0.13990
3766.29929,0.14108
3768.22776,0.14587
3770.15623,0.14545
3772.08470,0.13264
3774.01317,0.12391
3775.94163,0.12892
3777.87010,0.13882
3779.79857,0.13872
3781.72704,0.13037
3783.65551,0.12676
3785.58398,0.12764
3787.51245,0.12624
3789.44092,0.12345
3791.36938,0.12355
3793.29785,0.12681
3795.22632,0.13158
3797.15479,0.13592
3799.08326,0.14666
3801.01173,0.16193
3802.94020,0.15229
3804.86866,0.13189
3806.79713,0.12401
3808.72560,0.12514
3810.65407,0.12768
3812.58254,0.12990
3814.51101,0.13185
3816.43948,0.13637
3818.36795,0.14728
3820.29641,0.15670
3822.22488,0.14687
3824.15335,0.13112
3826.08182,0.12477
3828.01029,0.12448
3829.93876,0.12539
3831.86723,0.12775
3833.79569,0.13390
3835.72416,0.14010
3837.65263,0.14557
3839.58110,0.14892
3841.50957,0.14361
3843.43804,0.13507
3845.36651,0.12573
3847.29498,0.11914
3849.22344,0.12154
3851.15191,0.12948
3853.08038,0.13353
3855.00885,0.13189
3856.93732,0.13240
3858.86579,0.13384
3860.79426,0.13568
3862.72272,0.13750
3864.65119,0.13944
3866.57966,0.14279
3868.50813,0.14506
3870.43660,0.14249
3872.36507,0.13181
3874.29354,0.11821
3876.22200,0.11066
3878.15047,0.11174
3880.07894,0.12027
3882.00741,0.13263
3883.93588,0.14368
3885.86435,0.14051
3887.79282,0.12531
3889.72129,0.12635
3891.64975,0.14045
3893.57822,0.13955
3895.50669,0.12837
3897.43516,0.12130
3899.36363,0.12195
3901.29210,0.12673
3903.22057,0.12573
3905.14903,0.12311
3907.07750,0.12303
3909.00597,0.11945
3910.93444,0.11037
3912.86291,0.10449
3914.79138,0.11165
3916.71985,0.12148
3918.64832,0.12039
3920.57678,0.11622
3922.50525,0.11509
3924.43372,0.11997
3926.36219,0.12891
3928.29066,0.12902
3930.21913,0.12066
3932.14760,0.11345
3934.07606,0.10741
3936.00453,0.10276
3937.93300,0.10359
3939.86147,0.11040
3941.78994,0.11999
3943.71841,0.12264
3945.64688,0.11565
3947.57535,0.10816
3949.50381,0.10278
3951.43228,0.09688
3953.36075,0.09448
3955.28922,0.10111
3957.21769,0.11238
3959.14616,0.11922
3961.07463,0.12050
3963.00309,0.11823
3964.93156,0.11359
3966.86003,0.10960
3968.78850,0.10741
3970.71697,0.10840
3972.64544,0.11143
3974.57391,0.11276
3976.50238,0.11103
3978.43084,0.10428
3980.35931,0.09874
3982.28778,0.10191
3984.21625,0.10520
3986.14472,0.10073
3988.07319,0.09515
3990.00166,0.09680
3991.93012,0.10224
3993.85859,0.10256
3995.78706,0.09697
3997.71553,0.09395
3999.64400,0.09958
4001.57247,0.10454
4003.50094,0.10220
4005.42941,0.10054
4007.35787,0.09944
4009.28634,0.09506
4011.21481,0.09072
4013.14328,0.09124
4015.07175,0.09829
4017.00022,0.10198
4018.92869,0.09839
4020.85715,0.09526
4022.78562,0.09227
4024.71409,0.09057
4026.64256,0.09308
4028.57103,0.09583
4030.49950,0.10029
4032.42797,0.10711
4034.35644,0.10401
4036.28490,0.08629
4038.21337,0.07292
4040.14184,0.07759
4042.07031,0.08793
4043.99878,0.08983
4045.92725,0.08596
4047.85572,0.08575
4049.78418,0.08743
4051.71265,0.08400
4053.64112,0.07979
4055.56959,0.08150
4057.49806,0.08673
4059.42653,0.08804
4061.35500,0.08317
4063.28346,0.08035
4065.21193,0.08146
4067.14040,0.07940
4069.06887,0.07770
4070.99734,0.08066
4072.92581,0.08218
4074.85428,0.08085
4076.78275,0.08148
4078.71121,0.08329
4080.63968,0.08087
4082.56815,0.07884
4084.49662,0.08205
4086.42509,0.07923
4088.35356,0.07072
4090.28203,0.07083
4092.21049,0.07732
4094.13896,0.08176
4096.06743,0.08325
4097.99590,0.08273
4099.92437,0.08162
4101.85284,0.07892
4103.78131,0.07238
4105.70978,0.06730
4107.63824,0.07069
4109.56671,0.07754
4111.49518,0.08025
4113.42365,0.08081
4115.35212,0.08285
4117.28059,0.08256
4119.20906,0.07648
4121.13752,0.07129
4123.06599,0.07198
4124.99446,0.07433
4126.92293,0.07579
4128.85140,0.07590
4130.77987,0.07430
4132.70834,0.07278
4134.63681,0.07011
4136.56527,0.06265
4138.49374,0.05452
4140.42221,0.05791
4142.35068,0.06880
4144.27915,0.06801
4146.20762,0.06176
4148.13609,0.06503
4150.06455,0.06783
4151.99302,0.06679
4153.92149,0.07250
4155.84996,0.07831
4157.77843,0.07150
4159.70690,0.06144
4161.63537,0.06204
4163.56384,0.06839
4165.49230,0.07206
4167.42077,0.07169
4169.34924,0.07034
4171.27771,0.07129
4173.20618,0.07014
4175.13465,0.06603
4177.06312,0.06426
4178.99158,0.06309
4180.92005,0.06379
4182.84852,0.06779
4184.77699,0.06766
4186.70546,0.06454
4188.63393,0.06638
4190.56240,0.06897
4192.49087,0.06401
4194.41933,0.05997
4196.34780,0.06499
4198.27627,0.06981
4200.20474,0.07030
4202.13321,0.07095
4204.06168,0.07194
4205.99015,0.07258
4207.91861,0.07001
4209.84708,0.06460
4211.77555,0.06364
4213.70402,0.06573
4215.63249,0.06586
4217.56096,0.06752
4219.48943,0.06768
4221.41789,0.06202
4223.34636,0.05626
4225.27483,0.04993
4227.20330,0.04264
4229.13177,0.04186
4231.06024,0.04711
4232.98871,0.05365
4234.91718,0.05792
4236.84564,0.05651
4238.77411,0.05436
4240.70258,0.05701
4242.63105,0.05963
4244.55952,0.05974
4246.48799,0.06252
4248.41646,0.06610
4250.34492,0.06591
4252.27339,0.06376
4254.20186,0.06166
4256.13033,0.06068
4258.05880,0.05805
4259.98727,0.05537
4261.91574,0.05840
4263.84421,0.06094
4265.77267,0.05555
4267.70114,0.04790
4269.62961,0.04735
4271.55808,0.04857
4273.48655,0.04098
4275.41502,0.03008
4277.34349,0.02918
4279.27195,0.03927
4281.20042,0.04816
4283.12889,0.05059
4285.05736,0.04972
4286.98583,0.04354
4288.91430,0.03563
4290.84277,0.03790
4292.77124,0.05043
4294.69970,0.06178
4296.62817,0.06201
4298.55664,0.05110
4300.48511,0.04294
4302.41358,0.04428
4304.34205,0.04947
4306.27052,0.05618
4308.19898,0.05725
4310.12745,0.04804
4312.05592,0.04413
4313.98439,0.05528
4315.91286,0.06525
4317.84133,0.06048
4319.76980,0.05001
4321.69827,0.04488
4323.62673,0.04078
4325.55520,0.03388
4327.48367,0.03046
4329.41214,0.03296
4331.34061,0.04004
4333.26908,0.04886
4335.19755,0.04807
4337.12601,0.03433
4339.05448,0.02426
4340.98295,0.02577
4342.91142,0.02730
4344.83989,0.02265
4346.76836,0.01932
4348.69683,0.02063
4350.62530,0.02020
4352.55376,0.01966
4354.48223,0.02299
4356.41070,0.02585
4358.33917,0.02753
4360.26764,0.02710
4362.19611,0.02310
4364.12458,0.02104
4366.05304,0.02128
4367.98151,0.01940
4369.90998,0.01888
4371.83845,0.02277
4373.76692,0.02542
4375.69539,0.02006
4377.62386,0.00959
4379.55232,0.00420
4381.48079,0.00620
4383.40926,0.01036
4385.33773,0.01279
4387.26620,0.01467
4389.19467,0.02140
4391.12314,0.02830
4393.05161,0.02623
4394.98007,0.02220
4396.90854,0.02323
4398.83701,0.02247
4400.76548,0.01658
4402.69395,0.01043
4404.62242,0.00603
4406.55089,0.00309
4408.47935,0.00791
4410.40782,0.01749
4412.33629,0.01630
4414.26476,0.01006
4416.19323,0.01368
4418.12170,0.01749
4420.05017,0.01003
4421.97864,0.00100
4423.90710,0.00233
4425.83557,0.01294
4427.76404,0.02474
4429.69251,0.02982
4431.62098,0.02507
4433.54945,0.01729
4435.47792,0.01556
4437.40638,0.02007
4439.33485,0.02356
4441.26332,0.01812
4443.19179,0.00861
4445.12026,0.00498
4447.04873,-0.00111
4448.97720,-0.01478
4450.90567,-0.01427
4452.83413,0.00652
4454.76260,0.01815
4456.69107,0.00882
4458.61954,-0.00289
4460.54801,-0.00412
4462.47648,0.00050
4464.40495,0.00607
4466.33341,0.01237
4468.26188,0.01801
4470.19035,0.02140
4472.11882,0.01852
4474.04729,0.00926
4475.97576,-0.00108
4477.90423,-0.00836
4479.83270,-0.00742
4481.76116,0.00161
4483.68963,0.01074
4485.61810,0.01828
4487.54657,0.02621
4489.47504,0.02580
4491.40351,0.01366
4493.33198,0.00504
4495.26044,0.00623
4497.18891,0.00524
4499.11738,0.00010
4501.04585,0.00010
4502.97432,0.00441
4504.90279,0.00894
4506.83126,0.01355
4508.75973,0.01524
4510.68819,0.01124
4512.61666,0.00789
4514.54513,0.01303
4516.47360,0.02167
4518.40207,0.02589
4520.33054,0.02494
4522.25901,0.01651
4524.18747,0.00536
4526.11594,0.00323
4528.04441,0.00683
4529.97288,0.00887
4531.90135,0.01371
4533.82982,0.02325
4535.75829,0.03163
4537.68676,0.02875
4539.61522,0.01578
4541.54369,0.00221
4543.47216,-0.00740
4545.40063,-0.00443
4547.32910,0.00550
4549.25757,0.00939
4551.18604,0.01104
4553.11450,0.00536
4555.04297,-0.00920
4556.97144,-0.01670
4558.89991,-0.00695
4560.82838,0.00907
4562.75685,0.01659
4564.68532,0.02036
4566.61378,0.02192
4568.54225,0.01649
4570.47072,0.01057
4572.39919,0.01239
4574.32766,0.01710
4576.25613,0.01502
4578.18460,0.01091
4580.11307,0.00547
4582.04153,-0.00479
4583.97000,-0.00958
4585.89847,-0.01259
4587.82694,-0.01865
4589.75541,-0.01233
4591.68388,0.00256
4593.61235,0.01036
4595.54081,0.01200
4597.46928,0.00841
4599.39775,0.00275
4601.32622,0.00303
4603.25469,0.00904
4605.18316,0.01219
4607.11163,0.00992
4609.04010,0.00658
4610.96856,-0.00308
4612.89703,-0.01740
4614.82550,-0.01676
4616.75397,-0.00197
4618.68244,0.00993
4620.61091,0.01498
4622.53938,0.01269
4624.46784,0.01238
4626.39631,0.01960
4628.32478,0.01784
4630.25325,0.00552
4632.18172,-0.00445
4634.11019,-0.00523
4636.03866,0.00296
4637.96713,0.00373
4639.89559,-0.01065
4641.82406,-0.02109
4643.75253,-0.01176
4645.68100,0.00951
4647.60947,0.01796
4649.53794,0.00591
4651.46641,-0.00244
4653.39487,0.00544
4655.32334,0.01651
4657.25181,0.02139
4659.18028,0.01654
4661.10875,0.00432
4663.03722,-0.00353
4664.96569,-0.00644
4666.89416,-0.01155
4668.82262,-0.01725
4670.75109,-0.01743
4672.67956,-0.00726
4674.60803,0.00980
4676.53650,0.02043
4678.46497,0.01752
4680.39344,0.01177
4682.32190,0.01469
4684.25037,0.02069
4686.17884,0.02031
4688.10731,0.01493
4690.03578,0.00861
4691.96425,0.00429
4693.89272,0.00550
4695.82119,0.01079
4697.74965,0.01436
4699.67812,0.01210
4701.60659,0.00323
4703.53506,-0.00581
4705.46353,-0.00475
4707.39200,0.00273
4709.32047,0.00882
4711.24893,0.01239
4713.17740,0.00781
4715.10587,-0.00161
4717.03434,-0.00709
4718.96281,-0.00744
4720.89128,-0.00266
4722.81975,-0.00153
4724.74821,-0.00979
4726.67668,-0.01428
4728.60515,-0.00487
4730.53362,0.01245
4732.46209,0.02816
4734.39056,0.02898
4736.31903,0.01049
4738.24750,-0.00277
4740.17596,0.00544
4742.10443,0.01569
4744.03290,0.01459
4745.96137,0.01691
4747.88984,0.02499
4749.81831,0.01555
4751.74678,-0.00330
4753.67524,-0.00320
4755.60371,0.00483
4757.53218,0.00127
4759.46065,-0.00578
4761.38912,-0.00633
4763.31759,-0.00517
4765.24606,-0.00301
4767.17453,0.00585
4769.10299,0.01402
4771.03146,0.01572
4772.95993,0.00887
4774.88840,-0.01308
4776.81687,-0.02898
4778.74534,-0.01510
4780.67381,0.00674
4782.60227,0.01187
4784.53074,0.00380
4786.45921,-0.00819
4788.38768,-0.01087
4790.31615,0.00348
4792.24462,0.01653
4794.17309,0.00803
4796.10156,-0.00696
4798.03002,-0.00699
4799.95849,0.00519
4801.88696,0.01526
4803.81543,0.01206
4805.74390,0.00520
4807.67237,0.00306
4809.60084,-0.00236
4811.52930,-0.00787
4813.45777,-0.00340
4815.38624,0.00477
4817.31471,0.00793
4819.24318,0.00905
4821.17165,0.00772
4823.10012,0.00607
4825.02859,0.01105
4826.95705,0.02108
4828.88552,0.02689
4830.81399,0.02061
4832.74246,0.00521
4834.67093,-0.00884
4836.59940,-0.00800
4838.52787,0.00739
4840.45633,0.02324
4842.38480,0.02614
4844.31327,0.01298
4846.24174,0.00361
4848.17021,0.00197
4850.09868,-0.00304
4852.02715,-0.00965
4853.95562,-0.01154
4855.88408,-0.00233
4857.81255,0.01004
4859.74102,0.01170
4861.66949,0.00284
4863.59796,-0.00767
4865.52643,-0.01478
4867.45490,-0.01259
4869.38336,0.00093
4871.31183,0.00901
4873.24030,-0.00224
4875.16877,-0.01182
4877.09724,-0.00093
4879.02571,0.00185
4880.95418,-0.00892
4882.88265,-0.00668
4884.81111,0.00052
4886.73958,0.00849
4888.66805,0.02939
4890.59652,0.04139
4892.52499,0.02568
4894.45346,0.00748
4896.38193,0.00227
4898.31039,-0.00832
4900.23886,-0.01735
4902.16733,-0.00108
4904.09580,0.01989
4906.02427,0.02150
4907.95274,0.01680
4909.88121,0.01674
4911.80967,0.02460
4913.73814,0.03953
4915.66661,0.04196
4917.59508,0.02311
4919.52355,0.00403
4921.45202,-0.00215
4923.38049,0.00135
4925.30896,0.01300
4927.23742,0.01989
4929.16589,0.01297
4931.09436,0.00142
4933.02283,-0.00506
4934.95130,0.00225
4936.87977,0.02646
4938.80824,0.04619
4940.73670,0.04005
4942.66517,0.02044
4944.59364,0.00152
4946.52211,-0.01481
4948.45058,-0.02071
4950.37905,-0.01585
4952.30752,-0.00863
4954.23599,-0.00371
4956.16445,-0.00020
4958.09292,0.00931
4960.02139,0.02189
4961.94986,0.01883
4963.87833,0.00203
4965.80680,-0.00195
4967.73527,0.00832
4969.66373,0.01426
4971.59220,0.02353
4973.52067,0.03766
4975.44914,0.03477
4977.37761,0.01958
4979.30608,0.00743
4981.23455,-0.00521
4983.16302,-0.01494
4985.09148,-0.01642
4987.01995,-0.01374
4988.94842,-0.00382
4990.87689,0.01412
4992.80536,0.03132
4994.73383,0.03804
4996.66230,0.03462
4998.59076,0.03259
5000.51923,0.02249
5002.44770,-0.00104
5004.37617,-0.01442
5006.30464,-0.01025
5008.23311,-0.00349
5010.16158,0.00101
5012.09005,0.00483
5014.01851,0.00967
5015.94698,0.01198
5017.87545,0.00731
5019.80392,0.00139
5021.73239,-0.00381
5023.66086,-0.00837
5025.58933,-0.00598
5027.51779,-0.00258
5029.44626,-0.00834
5031.37473,-0.01402
5033.30320,-0.01030
5035.23167,-0.00116
5037.16014,0.01106
5039.08861,0.02711
5041.01708,0.03903
5042.94554,0.03048
5044.87401,0.01475
5046.80248,0.01716
5048.73095,0.02203
5050.65942,0.00657
5052.58789,-0.01016
5054.51636,-0.00612
5056.44482,-0.00154
5058.37329,-0.00805
5060.30176,-0.00542
5062.23023,0.00507
5064.15870,0.00402
5066.08717,-0.00131
5068.01564,0.00047
5069.94410,-0.00010
5071.87257,-0.00084
5073.80104,0.00686
5075.72951,0.01815
5077.65798,0.02356
5079.58645,0.01504
5081.51492,0.00214
5083.44339,-0.00101
5085.37185,0.00164
5087.30032,0.00649
5089.22879,0.01507
5091.15726,0.02226
5093.08573,0.02841
5095.01420,0.03689
5096.94267,0.04086
5098.87113,0.03338
5100.79960,0.01455
5102.72807,-0.00371
5104.65654,-0.00284
5106.58501,0.01198
5108.51348,0.01771
5110.44195,0.01104
5112.37042,0.00756
5114.29888,0.01270
5116.22735,0.01429
5118.15582,0.01349
5120.08429,0.01549
5122.01276,0.01248
5123.94123,0.00728
5125.86970,0.00265
5127.79816,-0.00078
5129.72663,0.00179
5131.65510,0.00741
5133.58357,0.01621
5135.51204,0.03228
5137.44051,0.03999
5139.36898,0.01510
5141.29745,-0.02060
5143.22591,-0.02927
5145.15438,-0.01277
5147.08285,0.01455
5149.01132,0.03308
5150.93979,0.03070
5152.86826,0.02725
5154.79673,0.02666
5156.72519,0.00995
5158.65366,-0.00206
5160.58213,0.00463
5162.51060,-0.00331
5164.43907,-0.02021
5166.36754,-0.00888
5168.29601,0.02368
5170.22448,0.04176
5172.15294,0.03178
5174.08141,0.02597
5176.00988,0.03219
5177.93835,0.02096
5179.86682,0.00168
5181.79529,-0.00130
5183.72376,0.00735
5185.65222,0.02023
5187.58069,0.03263
5189.50916,0.02950
5191.43763,0.00043
5193.36610,-0.02937
5195.29457,-0.02637
5197.22304,0.00460
5199.15151,0.02788
5201.07997,0.02447
5203.00844,0.02038
5204.93691,0.03562
5206.86538,0.04807
5208.79385,0.03965
5210.72232,0.03807
5212.65079,0.05929
5214.57925,0.07434
5216.50772,0.06175
5218.43619,0.03826
5220.36466,0.01449
5222.29313,-0.00441
5224.22160,0.00856
5226.15007,0.04587
5228.07854,0.05261
5230.00700,0.03542
5231.93547,0.03383
5233.86394,0.03622
5235.79241,0.02870
5237.72088,0.02060
5239.64935,0.01157
5241.57782,0.00633
5243.50628,0.01154
5245.43475,0.02896
5247.36322,0.04602
5249.29169,0.03317
5251.22016,-0.00696
5253.14863,-0.03479
5255.07710,-0.02818
5257.00556,-0.00927
5258.93403,0.00365
5260.86250,0.01897
5262.79097,0.03863
5264.71944,0.05301
5266.64791,0.05026
5268.57638,0.04014
5270.50485,0.03611
5272.43331,0.03621
5274.36178,0.04550
5276.29025,0.06686
5278.21872,0.06971
5280.14719,0.03481
5282.07566,-0.00470
5284.00413,-0.00852
5285.93259,0.02832
5287.86106,0.05854
5289.78953,0.04807
5291.71800,0.02492
5293.64647,0.02282
5295.57494,0.04116
5297.50341,0.06299
5299.43188,0.06725
5301.36034,0.05033
5303.28881,0.03817
5305.21728,0.04779
5307.14575,0.05576
5309.07422,0.04100
5311.00269,0.02659
5312.93116,0.03521
5314.85962,0.04795
5316.78809,0.03995
5318.71656,0.02736
5320.64503,0.03145
5322.57350,0.03499
5324.50197,0.02707
5326.43044,0.02259
5328.35891,0.02450
5330.28737,0.02558
5332.21584,0.01946
5334.14431,0.01349
5336.07278,0.02922
5338.00125,0.06221
5339.92972,0.07886
5341.85819,0.07131
5343.78665,0.05306
5345.71512,0.03315
5347.64359,0.03206
5349.57206,0.05256
5351.50053,0.06747
5353.42900,0.05887
5355.35747,0.03880
5357.28594,0.03555
5359.21440,0.06021
5361.14287,0.07670
5363.07134,0.04850
5364.99981,0.00713
5366.92828,-0.00602
5368.85675,0.00374
5370.78522,0.01397
5372.71368,0.00257
5374.64215,-0.01206
5376.57062,0.01219
5378.49909,0.04163
5380.42756,0.03913
5382.35603,0.02644
5384.28450,0.03660
5386.21297,0.07622
5388.14143,0.08674
5390.06990,0.05127
5391.99837,0.02031
5393.92684,0.02119
5395.85531,0.03849
5397.78378,0.04798
5399.71225,0.04499
5401.64071,0.04029
5403.56918,0.03569
5405.49765,0.03262
5407.42612,0.04015
5409.35459,0.05321
5411.28306,0.05412
5413.21153,0.04181
5415.13999,0.03385
5417.06846,0.04202
5418.99693,0.06226
5420.92540,0.06682
5422.85387,0.05953
5424.78234,0.07248
5426.71081,0.08939
5428.63928,0.07767
5430.56774,0.03341
5432.49621,0.00281
5434.42468,0.02743
5436.35315,0.05571
5438.28162,0.04209
5440.21009,0.02714
5442.13856,0.03343
5444.06702,0.04342
5445.99549,0.04510
5447.92396,0.01959
5449.85243,-0.01199
5451.78090,-0.00269
5453.70937,0.02832
5455.63784,0.04392
5457.56631,0.04150
5459.49477,0.04583
5461.42324,0.05241
5463.35171,0.02665
5465.28018,-0.01513
5467.20865,-0.01518
5469.13712,0.03928
5471.06559,0.08550
5472.99405,0.08257
5474.92252,0.07314
5476.85099,0.08625
5478.77946,0.07051
5480.70793,0.02029
5482.63640,-0.00400
5484.56487,0.02819
5486.49334,0.08208
5488.42180,0.10574
5490.35027,0.09513
5492.27874,0.08401
5494.20721,0.08507
5496.13568,0.07302
5498.06415,0.04720
5499.99262,0.03926
5501.92108,0.04745
5503.84955,0.04681
5505.77802,0.03428
5507.70649,0.03684
5509.63496,0.06596
5511.56343,0.09251
5513.49190,0.09952
5515.42037,0.07790
5517.34883,0.02780
5519.27730,0.00115
5521.20577,0.03695
5523.13424,0.08334
5525.06271,0.08720
5526.99118,0.06822
5528.91965,0.05429
5530.84811,0.04999
5532.77658,0.04763
5534.70505,0.03605
5536.63352,0.01060
5538.56199,0.00594
5540.49046,0.03981
5542.41893,0.05675
5544.34740,0.03832
5546.27586,0.03620
5548.20433,0.06240
5550.13280,0.07958
5552.06127,0.07848
5553.98974,0.06915
5555.91821,0.05392
5557.84668,0.04411
5559.77514,0.05265
5561.70361,0.07274
5563.63208,0.07038
5565.56055,0.03827
5567.48902,0.01949
5569.41749,0.02929
5571.34596,0.04170
5573.27443,0.03753
5575.20289,0.02213
5577.13136,0.01898
5579.05983,0.03584
5580.98830,0.05375
5582.91677,0.06254
5584.84524,0.07500
5586.77371,0.07578
5588.70217,0.06017
5590.63064,0.08256
5592.55911,0.13535
5594.48758,0.15151
5596.41605,0.12146
5598.34452,0.07032
5600.27299,0.02963
5602.20145,0.01987
5604.12992,0.03213
5606.05839,0.05790
5607.98686,0.07090
5609.91533,0.04755
5611.84380,0.04125
5613.77227,0.07948
5615.70074,0.09546
5617.62920,0.09246
5619.55767,0.10817
5621.48614,0.10824
5623.41461,0.08271
5625.34308,0.07826
5627.27155,0.09712
5629.20002,0.07975
5631.12848,0.02704
5633.05695,-0.00266
5634.98542,0.00800
5636.91389,0.03356
5638.84236,0.06131
5640.77083,0.07965
5642.69930,0.07783
5644.62777,0.08697
5646.55623,0.11009
5648.48470,0.10133
5650.41317,0.07189
5652.34164,0.06249
5654.27011,0.06747
5656.19858,0.07276
5658.12705,0.06618
5660.05551,0.03098
5661.98398,0.00017
5663.91245,0.01729
5665.84092,0.04709
5667.76939,0.04738
5669.69786,0.04842
5671.62633,0.06905
5673.55480,0.08474
5675.48326,0.09439
5677.41173,0.09285
5679.34020,0.06807
5681.26867,0.04689
5683.19714,0.04919
5685.12561,0.06436
5687.05408,0.07911
5688.98254,0.08147
5690.91101,0.08577
5692.83948,0.09929
5694.76795,0.08071
5696.69642,0.02484
5698.62489,-0.00035
5700.55336,0.02961
5702.48183,0.04121
5704.41029,0.00902
5706.33876,-0.00064
5708.26723,0.04602
5710.19570,0.11168
5712.12417,0.14007
5714.05264,0.12613
5715.98111,0.11507
5717.90957,0.10677
5719.83804,0.07225
5721.76651,0.05522
5723.69498,0.08584
5725.62345,0.11031
5727.55192,0.10798
5729.48039,0.09330
5731.40886,0.07598
5733.33732,0.08674
5735.26579,0.13437
5737.19426,0.16429
5739.12273,0.12619
5741.05120,0.06555
5742.97967,0.05235
5744.90814,0.06255
5746.83660,0.05389
5748.76507,0.04057
5750.69354,0.03880
5752.62201,0.04565
5754.55048,0.06200
5756.47895,0.08793
5758.40742,0.10324
5760.33588,0.08987
5762.26435,0.07044
5764.19282,0.08065
5766.12129,0.11653
5768.04976,0.13959
5769.97823,0.11550
5771.90670,0.05979
5773.83517,0.05462
5775.76363,0.10290
5777.69210,0.11664
5779.62057,0.08588
5781.54904,0.04395
5783.47751,0.01697
5785.40598,0.02427
5787.33445,0.04820
5789.26291,0.07477
5791.19138,0.07296
5793.11985,0.04587
5795.04832,0.05786
5796.97679,0.10192
5798.90526,0.12130
5800.83373,0.10409
5802.76220,0.06371
5804.69066,0.03352
5806.61913,0.04655
5808.54760,0.09389
5810.47607,0.13404
5812.40454,0.12641
5814.33301,0.08617
5816.26148,0.07311
5818.18994,0.09930
5820.11841,0.10626
5822.04688,0.07837
5823.97535,0.07094
5825.90382,0.09825
5827.83229,0.13506
5829.76076,0.15925
5831.68923,0.16666
5833.61769,0.16514
5835.54616,0.16060
5837.47463,0.14259
5839.40310,0.08647
5841.33157,0.03457
5843.26004,0.04504
5845.18851,0.05853
5847.11697,0.02377
5849.04544,-0.01074
5850.97391,-0.01523
5852.90238,-0.00681
5854.83085,0.01401
5856.75932,0.05290
5858.68779,0.07664
5860.61626,0.04501
5862.54472,0.02303
5864.47319,0.06809
5866.40166,0.08071
5868.33013,0.02265
5870.25860,-0.00648
5872.18707,0.01275
5874.11554,0.02972
5876.04400,0.02020
5877.97247,0.00596
5879.90094,0.02935
5881.82941,0.07059
5883.75788,0.07433
5885.68635,0.05529
5887.61482,0.07776
5889.54329,0.13032
5891.47175,0.13181
5893.40022,0.07543
5895.32869,0.03760
5897.25716,0.04246
5899.18563,0.05183
5901.11410,0.05161
5903.04257,0.03775
5904.97103,0.04799
5906.89950,0.10873
5908.82797,0.14854
5910.75644,0.13098
5912.68491,0.10913
5914.61338,0.10089
5916.54185,0.09416
5918.47032,0.09691
5920.39878,0.08793
5922.32725,0.06719
5924.25572,0.06755
5926.18419,0.06632
5928.11266,0.05761
5930.04113,0.05830
5931.96960,0.04266
5933.89806,0.01734
5935.82653,0.02646
5937.75500,0.06920
5939.68347,0.10585
5941.61194,0.09174
5943.54041,0.06105
5945.46888,0.08733
5947.39734,0.13603
5949.32581,0.15591
5951.25428,0.13795
5953.18275,0.09828
5955.11122,0.07438
5957.03969,0.04824
5958.96816,0.02372
5960.89663,0.04574
5962.82509,0.05853
5964.75356,0.02972
5966.68203,0.02856
5968.61050,0.06724
5970.53897,0.08479
5972.46744,0.04282
5974.39591,-0.01968
5976.32437,-0.00932
5978.25284,0.05621
5980.18131,0.10693
5982.10978,0.15328
5984.03825,0.19076
5985.96672,0.17090
5987.89519,0.11385
5989.82366,0.09719
5991.75212,0.13867
5993.68059,0.16761
5995.60906,0.11944
5997.53753,0.05604
5999.46600,0.06061
6001.39447,0.11541
6003.32294,0.16570
6005.25140,0.16318
6007.17987,0.12379
6009.10834,0.09526
6011.03681,0.08036
6012.96528,0.08305
6014.89375,0.07397
6016.82222,0.01768
6018.75069,-0.03915
6020.67915,-0.06147
6022.60762,-0.03757
6024.53609,0.03523
6026.46456,0.08463
6028.39303,0.08842
6030.32150,0.09362
6032.24997,0.09066
6034.17843,0.06585
6036.10690,0.03546
6038.03537,0.02306
6039.96384,0.05880
6041.89231,0.09739
6043.82078,0.08798
6045.74925,0.08955
6047.67772,0.14612
6049.60618,0.19547
6051.53465,0.17138
6053.46312,0.09716
6055.39159,0.01874
6057.32006,-0.02886
6059.24853,-0.03007
6061.17700,-0.00391
6063.10546,0.02209
6065.03393,0.03169
6066.96240,0.04086
6068.89087,0.04819
6070.81934,0.02173
6072.74781,-0.02015
6074.67628,-0.02141
6076.60475,0.04122
6078.53321,0.11790
6080.46168,0.14680
6082.39015,0.14480
6084.31862,0.13815
6086.24709,0.12698
6088.17556,0.11967
6090.10403,0.09421
6092.03249,0.06890
6093.96096,0.08597
6095.88943,0.10556
6097.81790,0.11224
6099.74637,0.11509
6101.67484,0.07482
6103.60331,0.01496
6105.53177,0.02161
6107.46024,0.08657
6109.38871,0.10602
6111.31718,0.06135
6113.24565,0.02359
6115.17412,0.02347
6117.10259,0.03173
6119.03106,0.03052
6120.95952,0.05961
6122.88799,0.08944
6124.81646,0.06388
6126.74493,0.02313
6128.67340,0.04755
6130.60187,0.11342
6132.53034,0.10731
6134.45880,0.04534
6136.38727,0.02164
6138.31574,0.04137
6140.24421,0.06324
6142.17268,0.08112
6144.10115,0.12806
6146.02962,0.16832
6147.95809,0.13228
6149.88655,0.05860
6151.81502,0.02479
6153.74349,0.01460
6155.67196,-0.01146
6157.60043,-0.03104
6159.52890,-0.04951
6161.45737,-0.06675
6163.38583,-0.00918
6165.31430,0.10535
6167.24277,0.15608
6169.17124,0.13146
6171.09971,0.08612
6173.02818,0.03132
6174.95665,-0.00212
6176.88512,0.04451
6178.81358,0.13831
6180.74205,0.17963
6182.67052,0.14665
6184.59899,0.10653
6186.52746,0.08737
6188.45593,0.07423
6190.38440,0.06791
6192.31286,0.04611
6194.24133,-0.00272
6196.16980,-0.03560
6198.09827,-0.00303
6200.02674,0.08095
6201.95521,0.13709
6203.88368,0.11938
6205.81215,0.04257
6207.74061,-0.03983
6209.66908,-0.04590
6211.59755,0.00752
6213.52602,0.01368
6215.45449,-0.00548
6217.38296,0.00920
6219.31143,0.02103
6221.23989,0.00799
6223.16836,0.04536
6225.09683,0.13264
6227.02530,0.16284
6228.95377,0.14917
6230.88224,0.13609
6232.81071,0.10991
6234.73918,0.08702
6236.66764,0.07984
6238.59611,0.08299
6240.52458,0.07693
6242.45305,0.05365
6244.38152,0.02449
6246.30999,-0.01844
6248.23846,-0.05891
6250.16692,-0.06167
6252.09539,-0.01055
6254.02386,0.05651
6255.95233,0.09770
6257.88080,0.09925
6259.80927,0.06906
6261.73774,0.06592
6263.66621,0.08399
6265.59467,0.07050
6267.52314,0.07140
6269.45161,0.12183
6271.38008,0.16814
6273.30855,0.15755
6275.23702,0.14270
6277.16549,0.15796
6279.09395,0.12945
6281.02242,0.06888
6282.95089,0.01620
6284.87936,-0.01057
6286.80783,-0.00636
6288.73630,-0.01644
6290.66477,-0.02605
6292.59323,0.01846
6294.52170,0.04845
6296.45017,0.02676
6298.37864,0.02447
6300.30711,0.06149
6302.23558,0.11281
6304.16405,0.14207
6306.09252,0.11195
6308.02098,0.02693
6309.94945,-0.06489
6311.87792,-0.12411
6313.80639,-0.13202
6315.73486,-0.06771
6317.66333,0.03021
6319.59180,0.07430
6321.52026,0.04113
6323.44873,0.03584
6325.37720,0.08450
6327.30567,0.03407
6329.23414,-0.06617
6331.16261,-0.01646
6333.09108,0.07874
6335.01955,0.07244
6336.94801,0.02548
6338.87648,-0.02147
6340.80495,-0.02914
6342.73342,0.03288
6344.66189,0.07196
6346.59036,0.05826
6348.51883,0.04491
6350.44729,0.02138
6352.37576,-0.00063
6354.30423,0.00851
6356.23270,0.03764
6358.16117,0.06159
6360.08964,0.08464
6362.01811,0.09306
6363.94658,0.06630
6365.87504,0.05028
6367.80351,0.05016
6369.73198,0.02481
6371.66045,0.01161
6373.58892,0.03648
6375.51739,0.05508
6377.44586,0.05774
6379.37432,0.04790
6381.30279,0.01771
6383.23126,0.00429
6385.15973,0.03226
6387.08820,0.08219
6389.01667,0.13175
6390.94514,0.13878
6392.87361,0.11034
6394.80207,0.08880
6396.73054,0.07957
6398.65901,0.07797
6400.58748,0.07046
6402.51595,0.07084
6404.44442,0.07755
6406.37289,0.03945
6408.30135,0.00300
6410.22982,0.04534
6412.15829,0.13259
6414.08676,0.18052
6416.01523,0.15879
6417.94370,0.13532
6419.87217,0.16622
6421.80064,0.20381
6423.72910,0.20933
6425.65757,0.19447
6427.58604,0.16372
6429.51451,0.08640
6431.44298,-0.00201
6433.37145,-0.01175
6435.29992,0.02626
6437.22838,0.01704
6439.15685,-0.03099
6441.08532,-0.01129
6443.01379,0.07578
6444.94226,0.09019
6446.87073,0.02330
6448.79920,-0.00390
6450.72766,0.04219
6452.65613,0.13620
6454.58460,0.19784
6456.51307,0.12535
6458.44154,0.00309
6460.37001,-0.02655
6462.29848,0.00412
6464.22695,0.04626
6466.15541,0.10358
6468.08388,0.15016
6470.01235,0.11690
6471.94082,-0.02364
6473.86929,-0.15847
6475.79776,-0.15924
6477.72623,-0.03439
6479.65469,0.03165
6481.58316,-0.04643
6483.51163,-0.09093
6485.44010,-0.03106
6487.36857,0.01381
6489.29704,0.01711
6491.22551,0.04678
6493.15398,0.09743
6495.08244,0.10468
6497.01091,0.06642
6498.93938,0.02608
6500.86785,0.03125
6502.79632,0.09190
6504.72479,0.16505
6506.65326,0.18910
6508.58172,0.14961
6510.51019,0.12674
6512.43866,0.13898
6514.36713,0.10953
6516.29560,0.07231
6518.22407,0.09568
6520.15254,0.09829
6522.08101,0.03610
6524.00947,-0.00333
6525.93794,0.04395
6527.86641,0.13881
6529.79488,0.15291
6531.72335,0.04045
6533.65182,-0.05076
6535.58029,-0.04739
6537.50875,-0.06695
6539.43722,-0.15031
6541.36569,-0.14830
6543.29416,-0.04146
6545.22263,-0.00157
6547.15110,-0.02870
6549.07957,0.00717
6551.00804,0.10396
6552.93650,0.14296
6554.86497,0.12702
6556.79344,0.13392
6558.72191,0.15595
6560.65038,0.13231
6562.57885,0.07226
6564.50732,0.06071
6566.43578,0.10482
6568.36425,0.14646
6570.29272,0.14997
6572.22119,0.09502
6574.14966,0.03146
6576.07813,0.00359
6578.00660,-0.01627
6579.93507,-0.08168
6581.86353,-0.12418
6583.79200,-0.03150
6585.72047,0.08476
6587.64894,0.11156
6589.57741,0.07051
6591.50588,0.01280
6593.43435,-0.00147
6595.36281,0.00982
6597.29128,-0.00146
6599.21975,-0.00240
6601.14822,-0.00186
6603.07669,-0.01771
6605.00516,0.04052
6606.93363,0.16468
6608.86210,0.22051
6610.79056,0.21007
6612.71903,0.18400
6614.64750,0.11654
6616.57597,0.03727
6618.50444,0.00302
6620.43291,0.02074
6622.36138,0.04180
6624.28984,0.03674
6626.21831,0.03170
6628.14678,0.02721
6630.07525,0.07782
6632.00372,0.18459
6633.93219,0.17363
6635.86066,-0.00668
6637.78912,-0.11249
6639.71759,-0.04132
6641.64606,0.02491
6643.57453,0.03217
6645.50300,0.06377
6647.43147,0.11170
6649.35994,0.11860
6651.28841,0.09446
6653.21687,0.06796
6655.14534,0.03084
6657.07381,-0.01163
6659.00228,-0.03472
6660.93075,-0.03439
6662.85922,-0.00035
6664.78769,0.05073
6666.71615,0.07294
6668.64462,0.05722
6670.57309,-0.02179
6672.50156,-0.19155
6674.43003,-0.25390
6676.35850,-0.13463
6678.28697,-0.01926
6680.21544,0.01800
6682.14390,0.05284
6684.07237,0.11348
6686.00084,0.06436
6687.92931,-0.06219
6689.85778,-0.01489
6691.78625,0.10702
6693.71472,0.08554
6695.64318,-0.00685
6697.57165,-0.02854
6699.50012,-0.03804
6701.42859,-0.08081
6703.35706,-0.07812
6705.28553,-0.05407
6707.21400,-0.04918
6709.14247,-0.00987
6711.07093,0.02702
6712.99940,0.00706
6714.92787,0.02652
6716.85634,0.12272
6718.78481,0.17747
6720.71328,0.14700
6722.64175,0.11485
6724.57021,0.09074
6726.49868,0.05576
6728.42715,0.07754
6730.35562,0.15131
6732.28409,0.20524
6734.21256,0.19692
6736.14103,0.15056
6738.06950,0.14903
6739.99796,0.16904
6741.92643,0.14171
6743.85490,0.08608
6745.78337,0.07746
6747.71184,0.15752
6749.64031,0.22926
6751.56878,0.17214
6753.49724,0.05621
6755.42571,-0.00073
6757.35418,0.00557
6759.28265,0.04960
6761.21112,0.12349
6763.13959,0.16416
6765.06806,0.11656
6766.99653,0.05471
6768.92499,0.04744
6770.85346,0.05948
6772.78193,0.05537
6774.71040,0.05262
6776.63887,0.08473
6778.56734,0.09838
6780.49581,0.08845
6782.42427,0.09671
6784.35274,0.12350
6786.28121,0.11350
6788.20968,0.01944
6790.13815,-0.04886
6792.06662,-0.01505
6793.99509,0.06447
6795.92355,0.14898
6797.85202,0.15714
6799.78049,0.09094
6801.70896,0.04771
6803.63743,0.03929
6805.56590,-0.00534
6807.49437,-0.05239
6809.42284,-0.04190
6811.35130,0.00804
6813.27977,0.01036
6815.20824,-0.04549
6817.13671,-0.04542
6819.06518,0.00797
6820.99365,0.02976
6822.92212,0.01271
6824.85058,0.02018
6826.77905,0.06777
6828.70752,0.07128
6830.63599,0.03880
6832.56446,0.04160
6834.49293,0.03568
6836.42140,0.07901
6838.34987,0.19066
6840.27833,0.17717
6842.20680,0.05089
6844.13527,-0.06204
6846.06374,-0.15149
6847.99221,-0.17011
6849.92068,-0.09578
6851.84915,-0.05653
6853.77761,-0.00000
6855.70608,0.14511
6857.63455,0.20701
6859.56302,0.12991
6861.49149,0.06336
6863.41996,0.08790
6865.34843,0.18104
6867.27690,0.25912
6869.20536,0.24564
6871.13383,0.12934
6873.06230,0.01073
6874.99077,0.05277
6876.91924,0.11513
6878.84771,0.05847
6880.77618,0.03552
6882.70464,0.07861
6884.63311,0.07251
6886.56158,0.07566
6888.49005,0.13645
6890.41852,0.16317
6892.34699,0.08659
6894.27546,-0.02051
6896.20393,-0.08995
6898.13239,-0.10534
6900.06086,-0.03134
6901.98933,0.06127
6903.91780,0.06035
6905.84627,-0.00286
6907.77474,-0.10408
6909.70321,-0.21712
6911.63167,-0.21904
6913.56014,-0.19310
6915.48861,-0.22880
6917.41708,-0.11247
6919.34555,0.19292
6921.27402,0.37487
6923.20249,0.33575
6925.13096,0.13894
6927.05942,-0.08678
6928.98789,-0.13299
6930.91636,-0.06952
6932.84483,-0.12774
6934.77330,-0.19435
6936.70177,-0.16783
6938.63024,-0.07445
6940.55870,0.06940
6942.48717,0.14094
6944.41564,0.17569
6946.34411,0.24377
6948.27258,0.19098
6950.20105,0.05188
6952.12952,0.05930
6954.05799,0.17886
6955.98645,0.18907
6957.91492,0.10642
6959.84339,0.06877
6961.77186,0.06489
6963.70033,0.03061
6965.62880,-0.05756
6967.55727,-0.19593
6969.48573,-0.28636
6971.41420,-0.20670
6973.34267,-0.05116
6975.27114,0.11075
6977.19961,0.34165
6979.12808,0.49259
6981.05655,0.41167
6982.98501,0.18538
6984.91348,0.00811
6986.84195,-0.08458
6988.77042,-0.10126
6990.69889,-0.00184
6992.62736,0.08810
6994.55583,0.04881
6996.48430,-0.03769
6998.41276,-0.03141
7000.34123,0.09231
7002.26970,0.26637
7004.19817,0.33077
7006.12664,0.23059
7008.05511,0.12897
7009.98358,0.17529
7011.91204,0.16542
7013.84051,0.00089
7015.76898,-0.07613
7017.69745,-0.00204
7019.62592,0.04176
7021.55439,-0.01261
7023.48286,-0.09110
7025.41133,-0.08280
7027.33979,0.00592
7029.26826,-0.00853
7031.19673,-0.15350
7033.12520,-0.23845
7035.05367,-0.15360
7036.98214,0.03260
7038.91061,0.19781
7040.83907,0.31898
7042.76754,0.30694
7044.69601,0.15337
7046.62448,0.09395
7048.55295,0.15841
7050.48142,0.20650
7052.40989,0.22178
7054.33836,0.15949
7056.26682,0.01110
7058.19529,0.01357
7060.12376,0.22139
7062.05223,0.32666
7063.98070,0.25465
7065.90917,0.16091
7067.83764,0.07276
7069.76610,0.04562
7071.69457,0.08344
7073.62304,0.15586
7075.55151,0.27692
7077.47998,0.29361
7079.40845,0.17385
7081.33692,0.14129
7083.26539,0.18015
7085.19385,0.10999
7087.12232,0.04141
7089.05079,0.10465
7090.97926,0.15354
7092.90773,0.09312
7094.83620,0.08927
7096.76467,0.27290
7098.69313,0.44526
7100.62160,0.37218
7102.55007,0.25469
7104.47854,0.24868
7106.40701,0.24860
7108.33548,0.20394
7110.26395,0.17728
7112.19242,0.12350
7114.12088,0.02423
7116.04935,-0.03997
7117.97782,-0.03249
7119.90629,0.07808
7121.83476,0.23829
7123.76323,0.27765
7125.69170,0.18840
7127.62016,0.11081
7129.54863,0.06109
7131.47710,-0.00692
7133.40557,-0.10655
7135.33404,-0.17487
7137.26251,-0.08056
7139.19098,0.12399
7141.11944,0.22091
7143.04791,0.26333
7144.97638,0.22719
7146.90485,0.02089
7148.83332,-0.14582
7150.76179,-0.20923
7152.69026,-0.14104
7154.61873,-0.00173
7156.54719,0.02722
7158.47566,0.05383
7160.40413,0.17951
7162.33260,0.27450
7164.26107,0.19737
7166.18954,0.02136
7168.11801,-0.00166
7170.04647,0.06429
7171.97494,-0.03270
7173.90341,-0.07087
7175.83188,0.06724
7177.76035,0.16125
7179.68882,0.16951
7181.61729,0.14624
7183.54576,0.09018
7185.47422,-0.02506
7187.40269,-0.13741
7189.33116,-0.18229
7191.25963,-0.20876
7193.18810,-0.18912
7195.11657,-0.07195
7197.04504,0.09384
7198.97350,0.21522
7200.90197,0.30689
7202.83044,0.45662
7204.75891,0.51587
7206.68738,0.32198
7208.61585,0.17975
7210.54432,0.22038
7212.47279,0.35072
7214.40125,0.43961
7216.32972,0.37930
7218.25819,0.12782
7220.18666,-0.02914
7222.11513,0.00635
7224.04360,0.03688
7225.97207,0.07650
7227.90053,0.17129
7229.82900,0.17249
7231.75747,0.07594
7233.68594,-0.06253
7235.61441,-0.12022
7237.54288,-0.01163
7239.47135,-0.02639
7241.39982,-0.20492
7243.32828,-0.09076
7245.25675,0.17945
7247.18522,0.18392
7249.11369,0.06404
7251.04216,-0.02394
7252.97063,-0.14842
7254.89910,-0.20538
7256.82756,-0.04029
7258.75603,0.20250
7260.68450,0.30403
7262.61297,0.23001
7264.54144,0.06136
7266.46991,-0.02085
7268.39838,0.06171
7270.32685,0.16953
7272.25531,0.10102
7274.18378,-0.07518
7276.11225,-0.00850
7278.04072,0.20989
7279.96919,0.26927
7281.89766,0.07983
7283.82613,-0.17028
7285.75459,-0.23292
7287.68306,-0.06914
7289.61153,-0.04508
7291.54000,-0.25623
7293.46847,-0.28362
7295.39694,-0.06168
7297.32541,0.17066
7299.25387,0.32113
7301.18234,0.33566
7303.11081,0.17210
7305.03928,0.01955
7306.96775,0.07350
7308.89622,0.17663
7310.82469,0.17323
7312.75316,0.16893
7314.68162,0.27784
7316.61009,0.54022
7318.53856,0.62755
7320.46703,0.41609
7322.39550,0.20705
7324.32397,0.23978
7326.25244,0.34862
7328.18090,0.20953
7330.10937,-0.13680
7332.03784,-0.28548
7333.96631,-0.22611
7335.89478,-0.13650
7337.82325,-0.01836
7339.75172,0.13073
7341.68019,0.11805
7343.60865,0.10064
7345.53712,0.13133
7347.46559,0.03019
7349.39406,-0.09022
7351.32253,-0.03089
7353.25100,0.08210
7355.17947,0.03846
7357.10793,-0.10505
7359.03640,-0.10620
7360.96487,-0.01763
7362.89334,0.02273
7364.82181,0.19432
7366.75028,0.48592
7368.67875,0.56896
7370.60722,0.37625
7372.53568,0.23288
7374.46415,0.32705
7376.39262,0.41358
7378.32109,0.19558
7380.24956,-0.16398
7382.17803,-0.40102
7384.10650,-0.37801
7386.03496,-0.24615
7387.96343,-0.08238
7389.89190,0.07950
7391.82037,0.15696
7393.74884,0.22759
7395.67731,0.39034
7397.60578,0.49792
7399.53425,0.45747
7401.46271,0.35306
7403.39118,0.22032
7405.31965,0.06835
7407.24812,-0.04469
7409.17659,-0.12595
7411.10506,-0.21529
7413.03353,-0.20430
7414.96199,-0.06446
7416.89046,0.03377
7418.81893,0.08312
7420.74740,0.09540
7422.67587,-0.01316
7424.60434,-0.00166
7426.53281,0.22357
7428.46128,0.38984
7430.38974,0.31827
7432.31821,0.24808
7434.24668,0.10558
7436.17515,-0.19061
7438.10362,-0.39357
7440.03209,-0.43462
7441.96056,-0.27955
7443.88902,0.10094
7445.81749,0.38918
7447.74596,0.38616
7449.67443,0.24960
7451.60290,0.17198
7453.53137,0.21888
7455.45984,0.30431
7457.38831,0.29513
7459.31677,0.11319
7461.24524,-0.01570
7463.17371,0.10306
7465.10218,0.09681
7467.03065,-0.06849
7468.95912,-0.06365
7470.88759,0.02098
7472.81605,0.04700
7474.74452,0.13783
7476.67299,0.26416
7478.60146,0.26299
7480.52993,0.01097
7482.45840,-0.23270
7484.38687,-0.06895
7486.31533,0.16550
7488.24380,0.17924
7490.17227,0.19885
7492.10074,0.24585
7494.02921,0.20854
7495.95768,0.17264
7497.88615,0.17086
