399.19301,0.68840
401.12148,0.39307
403.04995,0.27357
404.97842,0.17210
406.90689,0.18431
408.83536,0.31850
410.76382,0.43218
412.69229,0.34393
414.62076,0.21844
416.54923,0.23042
418.47770,0.20448
420.40617,-0.07320
422.33464,-0.28600
424.26311,-0.25757
426.19157,-0.06490
428.12004,0.07311
430.04851,0.05912
431.97698,-0.02030
433.90545,-0.03410
435.83392,0.00912
437.76239,0.05427
439.69085,0.07015
441.61932,0.06163
443.54779,0.03900
445.47626,-0.02645
447.40473,-0.07844
449.33320,-0.00494
451.26167,0.10876
453.19013,0.13505
455.11860,0.08163
457.04707,0.02568
458.97554,0.04409
460.90401,0.06726
462.83248,0.02459
464.76095,0.00206
466.68942,0.03739
468.61788,0.07416
470.54635,0.11593
472.47482,0.13429
474.40329,0.07218
476.33176,0.03354
478.26023,0.03718
480.18870,0.04529
482.11716,0.06112
484.04563,0.08022
485.97410,0.06588
487.90257,0.03790
489.83104,0.04789
491.75951,0.05798
493.68798,0.02473
495.61645,0.00057
497.54491,0.01589
499.47338,0.03528
501.40185,0.05463
503.33032,0.08160
505.25879,0.11277
507.18726,0.13545
509.11573,0.13725
511.04419,0.12812
512.97266,0.10351
514.90113,0.07269
516.82960,0.05811
518.75807,0.03621
520.68654,0.00868
522.61501,0.03057
524.54348,0.08550
526.47194,0.09393
528.40041,0.06971
530.32888,0.06188
532.25735,0.05517
534.18582,0.04461
536.11429,0.04831
538.04276,0.04811
539.97122,0.03967
541.89969,0.06040
543.82816,0.09667
545.75663,0.09614
547.68510,0.06976
549.61357,0.05968
551.54204,0.07612
553.47051,0.09505
555.39897,0.10576
557.32744,0.10454
559.25591,0.07828
561.18438,0.04837
563.11285,0.04114
565.04132,0.05401
566.96979,0.07473
568.89825,0.08317
570.82672,0.07178
572.75519,0.05713
574.68366,0.05405
576.61213,0.06501
578.54060,0.07534
580.46907,0.06649
582.39754,0.05318
584.32600,0.05408
586.25447,0.05802
588.18294,0.06008
590.11141,0.07361
592.03988,0.09325
593.96835,0.09202
595.89682,0.07757
597.82528,0.06670
599.75375,0.05273
601.68222,0.04594
603.61069,0.05433
605.53916,0.06370
607.46763,0.07665
609.39610,0.09018
611.32456,0.09051
613.25303,0.07426
615.18150,0.05336
617.10997,0.05643
619.03844,0.07550
620.96691,0.07405
622.89538,0.05433
624.82385,0.04285
626.75231,0.05621
628.68078,0.09187
630.60925,0.12203
632.53772,0.11930
634.46619,0.09817
636.39466,0.08778
638.32313,0.09126
640.25159,0.09892
642.18006,0.09552
644.10853,0.08309
646.03700,0.08229
647.96547,0.09687
649.89394,0.10628
651.82241,0.10027
653.75088,0.09033
655.67934,0.08538
657.60781,0.08909
659.53628,0.09122
661.46475,0.07908
663.39322,0.07028
665.32169,0.08278
667.25016,0.10879
669.17862,0.11769
671.10709,0.10678
673.03556,0.10001
674.96403,0.10556
676.89250,0.11436
678.82097,0.10245
680.74944,0.08154
682.67791,0.07249
684.60637,0.07144
686.53484,0.07971
688.46331,0.09205
690.39178,0.08962
692.32025,0.07706
694.24872,0.07690
696.17719,0.09105
698.10565,0.09811
700.03412,0.09307
701.96259,0.09495
703.89106,0.10430
705.81953,0.10902
707.74800,0.10758
709.67647,0.10521
711.60494,0.10872
713.53340,0.11134
715.46187,0.11100
717.39034,0.11226
719.31881,0.10759
721.24728,0.09945
723.17575,0.09427
725.10422,0.08766
727.03268,0.08472
728.96115,0.09261
730.88962,0.09816
732.81809,0.09103
734.74656,0.08226
736.67503,0.08301
738.60350,0.09266
740.53197,0.09601
742.46043,0.08493
744.38890,0.07776
746.31737,0.08325
748.24584,0.09027
750.17431,0.09309
752.10278,0.09316
754.03125,0.09021
755.95971,0.08199
757.88818,0.07497
759.81665,0.07563
761.74512,0.08242
763.67359,0.09193
765.60206,0.10100
767.53053,0.10867
769.45900,0.11142
771.38746,0.10806
773.31593,0.10263
775.24440,0.09775
777.17287,0.09598
779.10134,0.10255
781.02981,0.11449
782.95828,0.11975
784.88674,0.11938
786.81521,0.12090
788.74368,0.12424
790.67215,0.12232
792.60062,0.10663
794.52909,0.08738
796.45756,0.07927
798.38602,0.07821
800.31449,0.08224
802.24296,0.09184
804.17143,0.09306
806.09990,0.08171
808.02837,0.07899
809.95684,0.09181
811.88531,0.10160
813.81377,0.09808
815.74224,0.08932
817.67071,0.09028
819.59918,0.09872
821.52765,0.10161
823.45612,0.10009
825.38459,0.09870
827.31305,0.09896
829.24152,0.10227
831.16999,0.10304
833.09846,0.09712
835.02693,0.09499
836.95540,0.10183
838.88387,0.10888
840.81234,0.11539
842.74080,0.12239
844.66927,0.12701
846.59774,0.12740
848.52621,0.12029
850.45468,0.11036
852.38315,0.10780
854.31162,0.11417
856.24008,0.12450
858.16855,0.12971
860.09702,0.12706
862.02549,0.12703
863.95396,0.12909
865.88243,0.12325
867.81090,0.11026
869.73937,0.10314
871.66783,0.11070
873.59630,0.11810
875.52477,0.11521
877.45324,0.11241
879.38171,0.11283
881.31018,0.11047
883.23865,0.10419
885.16711,0.10058
887.09558,0.10508
889.02405,0.11012
890.95252,0.10939
892.88099,0.10848
894.80946,0.10780
896.73793,0.10538
898.66640,0.10376
900.59486,0.10102
902.52333,0.09490
904.45180,0.09056
906.38027,0.09353
908.30874,0.09892
910.23721,0.10104
912.16568,0.10421
914.09414,0.11190
916.02261,0.11648
917.95108,0.11442
919.87955,0.11524
921.80802,0.11927
923.73649,0.11847
925.66496,0.11630
927.59343,0.11654
929.52189,0.11549
931.45036,0.11521
933.37883,0.11452
935.30730,0.10828
937.23577,0.10583
939.16424,0.11300
941.09271,0.12064
943.02117,0.12183
944.94964,0.11901
946.87811,0.11826
948.80658,0.11913
950.73505,0.11722
952.66352,0.11437
954.59199,0.11408
956.52045,0.11552
958.44892,0.11805
960.37739,0.11860
962.30586,0.11552
964.23433,0.11597
966.16280,0.12149
968.09127,0.12158
970.01974,0.11115
971.94820,0.10185
973.87667,0.10498
975.80514,0.11416
977.73361,0.12010
979.66208,0.12362
981.59055,0.12634
983.51902,0.12659
985.44748,0.12473
987.37595,0.12491
989.30442,0.13069
991.23289,0.13770
993.16136,0.13665
995.08983,0.12772
997.01830,0.12386
998.94677,0.12777
1000.87523,0.13007
1002.80370,0.12976
1004.73217,0.12933
1006.66064,0.13052
1008.58911,0.13351
1010.51758,0.13560
1012.44605,0.13546
1014.37451,0.13174
1016.30298,0.12977
1018.23145,0.13338
1020.15992,0.13408
1022.08839,0.12927
1024.01686,0.12817
1025.94533,0.13979
1027.87380,0.15676
1029.80226,0.15594
1031.73073,0.13815
1033.65920,0.12434
1035.58767,0.11987
1037.51614,0.12122
1039.44461,0.12029
1041.37308,0.11381
1043.30154,0.11509
1045.23001,0.12785
1047.15848,0.13655
1049.08695,0.13778
1051.01542,0.13945
1052.94389,0.13836
1054.87236,0.13184
1056.80083,0.12691
1058.72929,0.12749
1060.65776,0.12904
1062.58623,0.13071
1064.51470,0.13357
1066.44317,0.13351
1068.37164,0.13347
1070.30011,0.13645
1072.22857,0.13772
1074.15704,0.13695
1076.08551,0.13608
1078.01398,0.13483
1079.94245,0.13722
1081.87092,0.14393
1083.79939,0.14444
1085.72786,0.13631
1087.65632,0.13156
1089.58479,0.13136
1091.51326,0.12774
1093.44173,0.12549
1095.37020,0.13366
1097.29867,0.14521
1099.22714,0.14504
1101.15560,0.13638
1103.08407,0.13379
1105.01254,0.13740
1106.94101,0.14169
1108.86948,0.14578
1110.79795,0.14416
1112.72642,0.13724
1114.65489,0.13497
1116.58335,0.13788
1118.51182,0.14182
1120.44029,0.14501
1122.36876,0.14382
1124.29723,0.13785
1126.22570,0.12968
1128.15417,0.12500
1130.08263,0.12628
1132.01110,0.12754
1133.93957,0.12797
1135.86804,0.12957
1137.79651,0.13197
1139.72498,0.13830
1141.65345,0.14450
1143.58191,0.14303
1145.51038,0.13713
1147.43885,0.13343
1149.36732,0.13520
1151.29579,0.14047
1153.22426,0.14303
1155.15273,0.14126
1157.08120,0.13840
1159.00966,0.13717
1160.93813,0.14011
1162.86660,0.14468
1164.79507,0.14499
1166.72354,0.14379
1168.65201,0.14633
1170.58048,0.15006
1172.50894,0.15034
1174.43741,0.14745
1176.36588,0.14247
1178.29435,0.13534
1180.22282,0.13027
1182.15129,0.13134
1184.07976,0.13767
1186.00823,0.14382
1187.93669,0.14400
1189.86516,0.14080
1191.79363,0.13893
1193.72210,0.13734
1195.65057,0.13759
1197.57904,0.14271
1199.50751,0.14877
1201.43597,0.15175
1203.36444,0.15232
1205.29291,0.15028
1207.22138,0.14493
1209.14985,0.14015
1211.07832,0.14127
1213.00679,0.14602
1214.93526,0.14900
1216.86372,0.14925
1218.79219,0.14861
1220.72066,0.15000
1222.64913,0.15182
1224.57760,0.15107
1226.50607,0.14933
1228.43454,0.14807
1230.36300,0.14703
1232.29147,0.14558
1234.21994,0.14402
1236.14841,0.14294
1238.07688,0.14336
1240.00535,0.14646
1241.93382,0.15109
1243.86229,0.15459
1245.79075,0.15609
1247.71922,0.15581
1249.64769,0.15359
1251.57616,0.15222
1253.50463,0.15133
1255.43310,0.14818
1257.36157,0.14547
1259.29003,0.14493
1261.21850,0.14737
1263.14697,0.15193
1265.07544,0.15462
1267.00391,0.15494
1268.93238,0.15551
1270.86085,0.15696
1272.78932,0.15726
1274.71778,0.15611
1276.64625,0.15455
1278.57472,0.15404
1280.50319,0.15515
1282.43166,0.15627
1284.36013,0.15737
1286.28860,0.15811
1288.21706,0.15759
1290.14553,0.15702
1292.07400,0.15737
1294.00247,0.15888
1295.93094,0.16040
1297.85941,0.15937
1299.78788,0.15701
1301.71634,0.15666
1303.64481,0.15780
1305.57328,0.15826
1307.50175,0.15723
1309.43022,0.15650
1311.35869,0.15859
1313.28716,0.16143
1315.21563,0.16181
1317.14409,0.16116
1319.07256,0.16102
1321.00103,0.16019
1322.92950,0.15823
1324.85797,0.15652
1326.78644,0.15715
1328.71491,0.15866
1330.64337,0.15739
1332.57184,0.15449
1334.50031,0.15292
1336.42878,0.15400
1338.35725,0.15767
1340.28572,0.16169
1342.21419,0.16982
1344.14266,0.18304
1346.07112,0.18647
1347.99959,0.17338
1349.92806,0.16041
1351.85653,0.15855
1353.78500,0.16198
1355.71347,0.16322
1357.64194,0.16012
1359.57040,0.15829
1361.49887,0.16391
1363.42734,0.17119
1365.35581,0.16975
1367.28428,0.16331
1369.21275,0.15951
1371.14122,0.16028
1373.06969,0.16398
1374.99815,0.16770
1376.92662,0.16761
1378.85509,0.16491
1380.78356,0.16270
1382.71203,0.16258
1384.64050,0.16591
1386.56897,0.17155
1388.49743,0.17375
1390.42590,0.17305
1392.35437,0.17471
1394.28284,0.17711
1396.21131,0.17481
1398.13978,0.16870
1400.06825,0.16428
1401.99672,0.16470
1403.92518,0.16748
1405.85365,0.16879
1407.78212,0.16877
1409.71059,0.16700
1411.63906,0.16258
1413.56753,0.16187
1415.49600,0.16884
1417.42446,0.17667
1419.35293,0.17558
1421.28140,0.17207
1423.20987,0.17358
1425.13834,0.17480
1427.06681,0.17442
1428.99528,0.17433
1430.92375,0.17268
1432.85221,0.17162
1434.78068,0.17449
1436.70915,0.17601
1438.63762,0.17075
1440.56609,0.16597
1442.49456,0.16532
1444.42303,0.16748
1446.35149,0.16977
1448.27996,0.17180
1450.20843,0.17488
1452.13690,0.17755
1454.06537,0.17917
1455.99384,0.18407
1457.92231,0.18997
1459.85077,0.18604
1461.77924,0.18202
1463.70771,0.18076
1465.63618,0.17721
1467.56465,0.17377
1469.49312,0.17573
1471.42159,0.18187
1473.35006,0.18771
1475.27852,0.18905
1477.20699,0.18609
1479.13546,0.18162
1481.06393,0.17908
1482.99240,0.17909
1484.92087,0.18107
1486.84934,0.18538
1488.77780,0.19017
1490.70627,0.18900
1492.63474,0.18457
1494.56321,0.18433
1496.49168,0.18939
1498.42015,0.19123
1500.34862,0.18696
1502.27709,0.18601
1504.20555,0.19344
1506.13402,0.21164
1508.06249,0.21396
1509.99096,0.19574
1511.91943,0.18710
1513.84790,0.19036
1515.77637,0.19915
1517.70483,0.20415
1519.63330,0.20347
1521.56177,0.20005
1523.49024,0.19495
1525.41871,0.19294
1527.34718,0.19017
1529.27565,0.18544
1531.20412,0.18608
1533.13258,0.19095
1535.06105,0.19081
1536.98952,0.19240
1538.91799,0.20213
1540.84646,0.20746
1542.77493,0.20568
1544.70340,0.20200
1546.63186,0.19202
1548.56033,0.18357
1550.48880,0.18066
1552.41727,0.18324
1554.34574,0.19190
1556.27421,0.20497
1558.20268,0.21830
1560.13115,0.20835
1562.05961,0.19336
1563.98808,0.18894
1565.91655,0.18944
1567.84502,0.19223
1569.77349,0.19417
1571.70196,0.19225
1573.63043,0.19262
1575.55889,0.19502
1577.48736,0.19012
1579.41583,0.18126
1581.34430,0.17612
1583.27277,0.17559
1585.20124,0.17692
1587.12971,0.17812
1589.05818,0.17940
1590.98664,0.17909
1592.91511,0.17712
1594.84358,0.17636
1596.77205,0.17561
1598.70052,0.17416
1600.62899,0.17559
1602.55746,0.17908
1604.48592,0.17984
1606.41439,0.17873
1608.34286,0.17854
1610.27133,0.17743
1612.19980,0.17593
1614.12827,0.17871
1616.05674,0.18752
1617.98521,0.19439
1619.91367,0.19609
1621.84214,0.19739
1623.77061,0.19558
1625.69908,0.19296
1627.62755,0.19159
1629.55602,0.18769
1631.48449,0.18613
1633.41295,0.19249
1635.34142,0.20424
1637.26989,0.20388
1639.19836,0.19456
1641.12683,0.18967
1643.05530,0.19107
1644.98377,0.19901
1646.91223,0.21075
1648.84070,0.21304
1650.76917,0.21149
1652.69764,0.21453
1654.62611,0.21014
1656.55458,0.19899
1658.48305,0.18684
1660.41152,0.17536
1662.33998,0.17650
1664.26845,0.18782
1666.19692,0.19323
1668.12539,0.19798
1670.05386,0.20335
1671.98233,0.20243
1673.91080,0.19971
1675.83926,0.19448
1677.76773,0.19143
1679.69620,0.19565
1681.62467,0.20309
1683.55314,0.20725
1685.48161,0.20138
1687.41008,0.19476
1689.33855,0.19191
1691.26701,0.19114
1693.19548,0.19244
1695.12395,0.19689
1697.05242,0.20414
1698.98089,0.20774
1700.90936,0.20223
1702.83783,0.19871
1704.76629,0.20117
1706.69476,0.19976
1708.62323,0.19303
1710.55170,0.18886
1712.48017,0.18937
1714.40864,0.19500
1716.33711,0.20461
1718.26558,0.20407
1720.19404,0.19432
1722.12251,0.18839
1724.05098,0.18520
1725.97945,0.18269
1727.90792,0.18205
1729.83639,0.18404
1731.76486,0.19018
1733.69332,0.19802
1735.62179,0.19556
1737.55026,0.18935
1739.47873,0.18817
1741.40720,0.19066
1743.33567,0.19320
1745.26414,0.19575
1747.19261,0.19792
1749.12107,0.19920
1751.04954,0.19710
1752.97801,0.19129
1754.90648,0.18756
1756.83495,0.18737
1758.76342,0.18830
1760.69189,0.18957
1762.62035,0.18942
1764.54882,0.18777
1766.47729,0.18874
1768.40576,0.19270
1770.33423,0.19722
1772.26270,0.19839
1774.19117,0.19399
1776.11964,0.19045
1778.04810,0.18982
1779.97657,0.18985
1781.90504,0.18826
1783.83351,0.18503
1785.76198,0.18278
1787.69045,0.18439
1789.61892,0.18929
1791.54738,0.19491
1793.47585,0.19819
1795.40432,0.19669
1797.33279,0.19358
1799.26126,0.19247
1801.18973,0.19152
1803.11820,0.18921
1805.04666,0.18803
1806.97513,0.18848
1808.90360,0.18939
1810.83207,0.18943
1812.76054,0.18722
1814.68901,0.18910
1816.61748,0.20178
1818.54595,0.21471
1820.47441,0.21352
1822.40288,0.20237
1824.33135,0.19281
1826.25982,0.18935
1828.18829,0.18978
1830.11676,0.19077
1832.04523,0.18879
1833.97369,0.18715
1835.90216,0.18751
1837.83063,0.18613
1839.75910,0.18587
1841.68757,0.19040
1843.61604,0.19307
1845.54451,0.18727
1847.47298,0.18104
1849.40144,0.17883
1851.32991,0.17905
1853.25838,0.18050
1855.18685,0.18071
1857.11532,0.18024
1859.04379,0.18286
1860.97226,0.18728
1862.90072,0.18925
1864.82919,0.19051
1866.75766,0.19460
1868.68613,0.19740
1870.61460,0.19372
1872.54307,0.18814
1874.47154,0.18468
1876.40001,0.18380
1878.32847,0.18422
1880.25694,0.18432
1882.18541,0.18517
1884.11388,0.18845
1886.04235,0.19143
1887.97082,0.19141
1889.89929,0.18953
1891.82775,0.18747
1893.75622,0.18728
1895.68469,0.18865
1897.61316,0.18771
1899.54163,0.18505
1901.47010,0.18369
1903.39857,0.18379
1905.32704,0.18509
1907.25550,0.18739
1909.18397,0.18930
1911.11244,0.18861
1913.04091,0.18665
1914.96938,0.18683
1916.89785,0.18819
1918.82632,0.18833
1920.75478,0.18892
1922.68325,0.18989
1924.61172,0.18842
1926.54019,0.18637
1928.46866,0.18669
1930.39713,0.18886
1932.32560,0.19160
1934.25407,0.19301
1936.18253,0.19037
1938.11100,0.18578
1940.03947,0.18486
1941.96794,0.18791
1943.89641,0.18980
1945.82488,0.18797
1947.75335,0.18380
1949.68181,0.18014
1951.61028,0.18029
1953.53875,0.18336
1955.46722,0.18568
1957.39569,0.18639
1959.32416,0.18597
1961.25263,0.18501
1963.18110,0.18566
1965.10956,0.18890
1967.03803,0.18993
1968.96650,0.18593
1970.89497,0.18343
1972.82344,0.18412
1974.75191,0.18273
1976.68038,0.18099
1978.60884,0.18375
1980.53731,0.18748
1982.46578,0.18769
1984.39425,0.18690
1986.32272,0.18802
1988.25119,0.18999
1990.17966,0.19181
1992.10812,0.19238
1994.03659,0.19044
1995.96506,0.18872
1997.89353,0.18884
1999.82200,0.18841
2001.75047,0.18722
2003.67894,0.18733
2005.60741,0.18823
2007.53587,0.18797
2009.46434,0.18656
2011.39281,0.18585
2013.32128,0.18718
2015.24975,0.18832
2017.17822,0.18733
2019.10669,0.18704
2021.03515,0.18799
2022.96362,0.18776
2024.89209,0.18655
2026.82056,0.18448
2028.74903,0.18267
2030.67750,0.18480
2032.60597,0.19004
2034.53444,0.19375
2036.46290,0.19409
2038.39137,0.19238
2040.31984,0.19125
2042.24831,0.19178
2044.17678,0.19221
2046.10525,0.19175
2048.03372,0.19153
2049.96218,0.19131
2051.89065,0.19031
2053.81912,0.18914
2055.74759,0.18812
2057.67606,0.18766
2059.60453,0.18789
2061.53300,0.18893
2063.46147,0.19065
2065.38993,0.19038
2067.31840,0.18875
2069.24687,0.18910
2071.17534,0.18966
2073.10381,0.18792
2075.03228,0.18651
2076.96075,0.18751
2078.88921,0.18874
2080.81768,0.18878
2082.74615,0.18758
2084.67462,0.18633
2086.60309,0.18754
2088.53156,0.19026
2090.46003,0.19151
2092.38850,0.19082
2094.31696,0.18972
2096.24543,0.18958
2098.17390,0.19026
2100.10237,0.19099
2102.03084,0.19219
2103.95931,0.19328
2105.88778,0.19183
2107.81624,0.18843
2109.74471,0.18659
2111.67318,0.18755
2113.60165,0.19031
2115.53012,0.19338
2117.45859,0.19457
2119.38706,0.19308
2121.31553,0.19132
2123.24399,0.19157
2125.17246,0.19180
2127.10093,0.19022
2129.02940,0.18872
2130.95787,0.18797
2132.88634,0.18787
2134.81481,0.18970
2136.74327,0.19149
2138.67174,0.19143
2140.60021,0.19166
2142.52868,0.19131
2144.45715,0.19031
2146.38562,0.19159
2148.31409,0.19266
2150.24255,0.18997
2152.17102,0.18671
2154.09949,0.18822
2156.02796,0.19278
2157.95643,0.19455
2159.88490,0.19295
2161.81337,0.19126
2163.74184,0.19062
2165.67030,0.19039
2167.59877,0.19132
2169.52724,0.19319
2171.45571,0.19441
2173.38418,0.19504
2175.31265,0.19553
2177.24112,0.19546
2179.16958,0.19446
2181.09805,0.19256
2183.02652,0.19052
2184.95499,0.18982
2186.88346,0.19006
2188.81193,0.18905
2190.74040,0.18729
2192.66887,0.18749
2194.59733,0.18961
2196.52580,0.19191
2198.45427,0.19352
2200.38274,0.19273
2202.31121,0.19027
2204.23968,0.18975
2206.16815,0.19101
2208.09661,0.19108
2210.02508,0.19012
2211.95355,0.19035
2213.88202,0.19139
2215.81049,0.19228
2217.73896,0.19410
2219.66743,0.19633
2221.59590,0.19666
2223.52436,0.19496
2225.45283,0.19315
2227.38130,0.19310
2229.30977,0.19440
2231.23824,0.19482
2233.16671,0.19432
2235.09518,0.19456
2237.02364,0.19502
2238.95211,0.19432
2240.88058,0.19308
2242.80905,0.19188
2244.73752,0.19018
2246.66599,0.18807
2248.59446,0.18633
2250.52293,0.18700
2252.45139,0.18986
2254.37986,0.19143
2256.30833,0.19128
2258.23680,0.19073
2260.16527,0.18986
2262.09374,0.18982
2264.02221,0.19119
2265.95067,0.19207
2267.87914,0.19164
2269.80761,0.19136
2271.73608,0.19118
2273.66455,0.19125
2275.59302,0.19305
2277.52149,0.19428
2279.44996,0.19221
2281.37842,0.18944
2283.30689,0.19049
2285.23536,0.19476
2287.16383,0.19681
2289.09230,0.19460
2291.02077,0.18973
2292.94924,0.18416
2294.87770,0.18267
2296.80617,0.18872
2298.73464,0.19714
2300.66311,0.20069
2302.59158,0.20130
2304.52005,0.20309
2306.44852,0.20610
2308.37699,0.21144
2310.30545,0.21588
2312.23392,0.21337
2314.16239,0.20961
2316.09086,0.21424
2318.01933,0.22349
2319.94780,0.22602
2321.87627,0.21927
2323.80473,0.21431
2325.73320,0.22164
2327.66167,0.23446
2329.59014,0.23977
2331.51861,0.23847
2333.44708,0.23891
2335.37555,0.24028
2337.30401,0.23845
2339.23248,0.23765
2341.16095,0.24269
2343.08942,0.24464
2345.01789,0.23683
2346.94636,0.23064
2348.87483,0.23071
2350.80330,0.23177
2352.73176,0.23221
2354.66023,0.23998
2356.58870,0.25755
2358.51717,0.27135
2360.44564,0.27664
2362.37411,0.27317
2364.30258,0.25988
2366.23104,0.24520
2368.15951,0.23697
2370.08798,0.23242
2372.01645,0.22726
2373.94492,0.22274
2375.87339,0.21812
2377.80186,0.21172
2379.73033,0.20412
2381.65879,0.19744
2383.58726,0.19399
2385.51573,0.19329
2387.44420,0.19358
2389.37267,0.19437
2391.30114,0.19504
2393.22961,0.19461
2395.15807,0.19307
2397.08654,0.19180
2399.01501,0.19224
2400.94348,0.19409
2402.87195,0.19528
2404.80042,0.19425
2406.72889,0.19290
2408.65736,0.19302
2410.58582,0.19355
2412.51429,0.19435
2414.44276,0.19542
2416.37123,0.19471
2418.29970,0.19295
2420.22817,0.19307
2422.15664,0.19434
2424.08510,0.19546
2426.01357,0.19655
2427.94204,0.19667
2429.87051,0.19597
2431.79898,0.19560
2433.72745,0.19457
2435.65592,0.19241
2437.58439,0.19115
2439.51285,0.19148
2441.44132,0.19226
2443.36979,0.19319
2445.29826,0.19415
2447.22673,0.19463
2449.15520,0.19581
2451.08367,0.19832
2453.01213,0.20013
2454.94060,0.19952
2456.86907,0.19703
2458.79754,0.19509
2460.72601,0.19407
2462.65448,0.19304
2464.58295,0.19318
2466.51142,0.19467
2468.43988,0.19606
2470.36835,0.19570
2472.29682,0.19343
2474.22529,0.19243
2476.15376,0.19500
2478.08223,0.19824
2480.01070,0.19853
2481.93916,0.19574
2483.86763,0.19230
2485.79610,0.19200
2487.72457,0.19589
2489.65304,0.19957
2491.58151,0.19918
2493.50998,0.19588
2495.43844,0.19249
2497.36691,0.19163
2499.29538,0.19485
2501.22385,0.19990
2503.15232,0.20232
2505.08079,0.20015
2507.00926,0.19562
2508.93773,0.19249
2510.86619,0.19293
2512.79466,0.19468
2514.72313,0.19480
2516.65160,0.19465
2518.58007,0.19537
2520.50854,0.19532
2522.43701,0.19348
2524.36547,0.19282
2526.29394,0.19562
2528.22241,0.19762
2530.15088,0.19676
2532.07935,0.19710
2534.00782,0.19907
2535.93629,0.19930
2537.86476,0.19819
2539.79322,0.19873
2541.72169,0.20055
2543.65016,0.20040
2545.57863,0.19850
2547.50710,0.19735
2549.43557,0.19671
2551.36404,0.19587
2553.29250,0.19524
2555.22097,0.19498
2557.14944,0.19497
2559.07791,0.19493
2561.00638,0.19503
2562.93485,0.19655
2564.86332,0.20048
2566.79179,0.20372
2568.72025,0.20245
2570.64872,0.19973
2572.57719,0.19921
2574.50566,0.19891
2576.43413,0.19793
2578.36260,0.19743
2580.29107,0.19659
2582.21953,0.19517
2584.14800,0.19444
2586.07647,0.19454
2588.00494,0.19487
2589.93341,0.19557
2591.86188,0.19668
2593.79035,0.19766
2595.71882,0.19803
2597.64728,0.19766
2599.57575,0.19694
2601.50422,0.19749
2603.43269,0.19980
2605.36116,0.20213
2607.28963,0.20364
2609.21810,0.20382
2611.14656,0.20249
2613.07503,0.20109
2615.00350,0.20031
2616.93197,0.19881
2618.86044,0.19683
2620.78891,0.19715
2622.71738,0.19938
2624.64585,0.20069
2626.57431,0.20053
2628.50278,0.20009
2630.43125,0.20002
2632.35972,0.19971
2634.28819,0.19924
2636.21666,0.19870
2638.14513,0.19806
2640.07359,0.19886
2642.00206,0.20047
2643.93053,0.20098
2645.85900,0.20078
2647.78747,0.19914
2649.71594,0.19582
2651.64441,0.19437
2653.57288,0.19606
2655.50134,0.19840
2657.42981,0.20030
2659.35828,0.20077
2661.28675,0.19920
2663.21522,0.19790
2665.14369,0.19838
2667.07216,0.19949
2669.00062,0.19974
2670.92909,0.19941
2672.85756,0.20051
2674.78603,0.20336
2676.71450,0.20602
2678.64297,0.20640
2680.57144,0.20367
2682.49990,0.20061
2684.42837,0.20129
2686.35684,0.20382
2688.28531,0.20413
2690.21378,0.20354
2692.14225,0.20317
2694.07072,0.20227
2695.99919,0.20172
2697.92765,0.20218
2699.85612,0.20361
2701.78459,0.20492
2703.71306,0.20470
2705.64153,0.20322
2707.57000,0.20279
2709.49847,0.20406
2711.42693,0.20316
2713.35540,0.20010
2715.28387,0.20084
2717.21234,0.20496
2719.14081,0.20732
2721.06928,0.20820
2722.99775,0.20850
2724.92622,0.20649
2726.85468,0.20418
2728.78315,0.20363
2730.71162,0.20347
2732.64009,0.20389
2734.56856,0.20544
2736.49703,0.20725
2738.42550,0.20907
2740.35396,0.20937
2742.28243,0.20696
2744.21090,0.20598
2746.13937,0.20768
2748.06784,0.20715
2749.99631,0.20574
2751.92478,0.20670
2753.85325,0.20655
2755.78171,0.20457
2757.71018,0.20459
2759.63865,0.20578
2761.56712,0.20589
2763.49559,0.20661
2765.42406,0.20948
2767.35253,0.21379
2769.28099,0.21552
2771.20946,0.21334
2773.13793,0.21171
2775.06640,0.21102
2776.99487,0.21034
2778.92334,0.21075
2780.85181,0.20994
2782.78028,0.20867
2784.70874,0.21065
2786.63721,0.21360
2788.56568,0.21471
2790.49415,0.21530
2792.42262,0.21479
2794.35109,0.21236
2796.27956,0.21044
2798.20802,0.21030
2800.13649,0.21055
2802.06496,0.21078
2803.99343,0.21109
2805.92190,0.21071
2807.85037,0.21107
2809.77884,0.21321
2811.70731,0.21424
2813.63577,0.21286
2815.56424,0.21198
2817.49271,0.21259
2819.42118,0.21098
2821.34965,0.20587
2823.27812,0.20348
2825.20659,0.20725
2827.13505,0.21214
2829.06352,0.21438
2830.99199,0.21555
2832.92046,0.21668
2834.84893,0.21641
2836.77740,0.21559
2838.70587,0.21703
2840.63433,0.21857
2842.56280,0.21626
2844.49127,0.21214
2846.41974,0.21000
2848.34821,0.20952
2850.27668,0.20978
2852.20515,0.21074
2854.13362,0.21188
2856.06208,0.21405
2857.99055,0.21751
2859.91902,0.22040
2861.84749,0.22116
2863.77596,0.21876
2865.70443,0.21425
2867.63290,0.21276
2869.56136,0.21595
2871.48983,0.21784
2873.41830,0.21667
2875.34677,0.21673
2877.27524,0.21758
2879.20371,0.21666
2881.13218,0.21463
2883.06065,0.21189
2884.98911,0.20944
2886.91758,0.20840
2888.84605,0.20760
2890.77452,0.20825
2892.70299,0.21091
2894.63146,0.21286
2896.55993,0.21325
2898.48839,0.21243
2900.41686,0.21155
2902.34533,0.21126
2904.27380,0.21042
2906.20227,0.20969
2908.13074,0.21015
2910.05921,0.21083
2911.98768,0.21131
2913.91614,0.21116
2915.84461,0.20990
2917.77308,0.21010
2919.70155,0.21285
2921.63002,0.21481
2923.55849,0.21301
2925.48696,0.20775
2927.41542,0.20423
2929.34389,0.20750
2931.27236,0.21257
2933.20083,0.21193
2935.12930,0.20912
2937.05777,0.21015
2938.98624,0.21289
2940.91471,0.21194
2942.84317,0.20799
2944.77164,0.20658
2946.70011,0.20842
2948.62858,0.21106
2950.55705,0.21399
2952.48552,0.21521
2954.41399,0.21327
2956.34245,0.21117
2958.27092,0.21070
2960.19939,0.21073
2962.12786,0.21031
2964.05633,0.21115
2965.98480,0.21644
2967.91327,0.22098
2969.84174,0.21841
2971.77020,0.21569
2973.69867,0.21856
2975.62714,0.22090
2977.55561,0.22023
2979.48408,0.21895
2981.41255,0.21477
2983.34102,0.20945
2985.26948,0.20959
2987.19795,0.21330
2989.12642,0.21637
2991.05489,0.21983
2992.98336,0.22197
2994.91183,0.22257
2996.84030,0.22310
2998.76877,0.22073
3000.69723,0.21817
3002.62570,0.22065
3004.55417,0.22475
3006.48264,0.22546
3008.41111,0.22439
3010.33958,0.22281
3012.26805,0.22056
3014.19651,0.22088
3016.12498,0.22132
3018.05345,0.21809
3019.98192,0.21757
3021.91039,0.22349
3023.83886,0.22685
3025.76733,0.22222
3027.69579,0.21880
3029.62426,0.22417
3031.55273,0.23220
3033.48120,0.23269
3035.40967,0.22662
3037.33814,0.22144
3039.26661,0.21901
3041.19508,0.21899
3043.12354,0.21993
3045.05201,0.22062
3046.98048,0.22240
3048.90895,0.22156
3050.83742,0.21672
3052.76589,0.21515
3054.69436,0.21749
3056.62282,0.21880
3058.55129,0.21940
3060.47976,0.22089
3062.40823,0.22234
3064.33670,0.22258
3066.26517,0.22101
3068.19364,0.21761
3070.12211,0.21503
3072.05057,0.21674
3073.97904,0.22178
3075.90751,0.22545
3077.83598,0.22532
3079.76445,0.22283
3081.69292,0.22063
3083.62139,0.22069
3085.54985,0.22093
3087.47832,0.21945
3089.40679,0.21917
3091.33526,0.22033
3093.26373,0.21979
3095.19220,0.21728
3097.12067,0.21404
3099.04914,0.21304
3100.97760,0.21632
3102.90607,0.21948
3104.83454,0.22102
3106.76301,0.22494
3108.69148,0.22922
3110.61995,0.22806
3112.54842,0.22382
3114.47688,0.22290
3116.40535,0.22237
3118.33382,0.21976
3120.26229,0.21924
3122.19076,0.22069
3124.11923,0.22283
3126.04770,0.22440
3127.97617,0.22260
3129.90463,0.22052
3131.83310,0.22161
3133.76157,0.22221
3135.69004,0.22002
3137.61851,0.21777
3139.54698,0.21715
3141.47545,0.21729
3143.40391,0.21735
3145.33238,0.21796
3147.26085,0.21906
3149.18932,0.21850
3151.11779,0.21574
3153.04626,0.21449
3154.97473,0.21735
3156.90320,0.22138
3158.83166,0.22296
3160.76013,0.22272
3162.68860,0.22236
3164.61707,0.22129
3166.54554,0.21890
3168.47401,0.21639
3170.40248,0.21527
3172.33094,0.21618
3174.25941,0.21971
3176.18788,0.22369
3178.11635,0.22425
3180.04482,0.22262
3181.97329,0.22319
3183.90176,0.22717
3185.83022,0.22972
3187.75869,0.22664
3189.68716,0.22085
3191.61563,0.21712
3193.54410,0.21781
3195.47257,0.22099
3197.40104,0.22219
3199.32951,0.21975
3201.25797,0.21829
3203.18644,0.22163
3205.11491,0.22378
3207.04338,0.22059
3208.97185,0.21790
3210.90032,0.22072
3212.82879,0.22673
3214.75725,0.22961
3216.68572,0.22710
3218.61419,0.22342
3220.54266,0.22217
3222.47113,0.22244
3224.39960,0.22365
3226.32807,0.22788
3228.25654,0.23229
3230.18500,0.23299
3232.11347,0.23108
3234.04194,0.22646
3235.97041,0.22199
3237.89888,0.22255
3239.82735,0.22341
3241.75582,0.21998
3243.68428,0.21671
3245.61275,0.21731
3247.54122,0.22031
3249.46969,0.22173
3251.39816,0.21944
3253.32663,0.21500
3255.25510,0.21301
3257.18357,0.21615
3259.11203,0.21809
3261.04050,0.21704
3262.96897,0.21792
3264.89744,0.21612
3266.82591,0.21165
3268.75438,0.21225
3270.68285,0.21412
3272.61131,0.21356
3274.53978,0.21509
3276.46825,0.21838
3278.39672,0.21988
3280.32519,0.21650
3282.25366,0.20810
3284.18213,0.20398
3286.11060,0.21091
3288.03906,0.21957
3289.96753,0.21901
3291.89600,0.21309
3293.82447,0.21176
3295.75294,0.21594
3297.68141,0.21883
3299.60988,0.21707
3301.53834,0.21484
3303.46681,0.21408
3305.39528,0.21403
3307.32375,0.21750
3309.25222,0.22150
3311.18069,0.22156
3313.10916,0.22169
3315.03763,0.22132
3316.96609,0.21657
3318.89456,0.21217
3320.82303,0.21339
3322.75150,0.21705
3324.67997,0.21755
3326.60844,0.21687
3328.53691,0.22039
3330.46537,0.22537
3332.39384,0.22542
3334.32231,0.22260
3336.25078,0.22305
3338.17925,0.22464
3340.10772,0.22266
3342.03619,0.22020
3343.96466,0.21942
3345.89312,0.21877
3347.82159,0.22007
3349.75006,0.22426
3351.67853,0.22853
3353.60700,0.23005
3355.53547,0.22616
3357.46394,0.21711
3359.39240,0.21080
3361.32087,0.21308
3363.24934,0.21857
3365.17781,0.22126
3367.10628,0.22042
3369.03475,0.21852
3370.96322,0.21915
3372.89168,0.21989
3374.82015,0.21656
3376.74862,0.21389
3378.67709,0.21546
3380.60556,0.21496
3382.53403,0.21181
3384.46250,0.21148
3386.39097,0.21379
3388.31943,0.21720
3390.24790,0.22045
3392.17637,0.22110
3394.10484,0.21791
3396.03331,0.21524
3397.96178,0.21764
3399.89025,0.22114
3401.81871,0.22109
3403.74718,0.21872
3405.67565,0.21913
3407.60412,0.22350
3409.53259,0.22473
3411.46106,0.22033
3413.38953,0.21653
3415.31800,0.21579
3417.24646,0.21731
3419.17493,0.22160
3421.10340,0.22550
3423.03187,0.22411
3424.96034,0.21743
3426.88881,0.21078
3428.81728,0.20907
3430.74574,0.21061
3432.67421,0.21196
3434.60268,0.21199
3436.53115,0.20951
3438.45962,0.20586
3440.38809,0.20427
3442.31656,0.20546
3444.24503,0.20866
3446.17349,0.21215
3448.10196,0.21157
3450.03043,0.20519
3451.95890,0.19850
3453.88737,0.19581
3455.81584,0.19527
3457.74431,0.19498
3459.67277,0.19413
3461.60124,0.19333
3463.52971,0.19370
3465.45818,0.19423
3467.38665,0.19631
3469.31512,0.19968
3471.24359,0.20150
3473.17206,0.20294
3475.10052,0.20209
3477.02899,0.19726
3478.95746,0.19590
3480.88593,0.20110
3482.81440,0.20607
3484.74287,0.20590
3486.67134,0.20052
3488.59980,0.19356
3490.52827,0.19060
3492.45674,0.19094
3494.38521,0.19195
3496.31368,0.19369
3498.24215,0.19266
3500.17062,0.18836
3502.09909,0.18695
3504.02755,0.18769
3505.95602,0.18522
3507.88449,0.18261
3509.81296,0.18480
3511.74143,0.18783
3513.66990,0.18604
3515.59837,0.18310
3517.52683,0.18219
3519.45530,0.18023
3521.38377,0.17724
3523.31224,0.17576
3525.24071,0.17624
3527.16918,0.17965
3529.09765,0.18346
3531.02611,0.18148
3532.95458,0.17593
3534.88305,0.17555
3536.81152,0.18128
3538.73999,0.18292
3540.66846,0.17707
3542.59693,0.17266
3544.52540,0.17448
3546.45386,0.17851
3548.38233,0.18058
3550.31080,0.17869
3552.23927,0.17457
3554.16774,0.17136
3556.09621,0.16800
3558.02468,0.16670
3559.95314,0.16956
3561.88161,0.17319
3563.81008,0.17901
3565.73855,0.18643
3567.66702,0.18344
3569.59549,0.17204
3571.52396,0.16505
3573.45243,0.16240
3575.38089,0.16200
3577.30936,0.16353
3579.23783,0.16336
3581.16630,0.16129
3583.09477,0.16319
3585.02324,0.16892
3586.95171,0.17242
3588.88017,0.17110
3590.80864,0.17103
3592.73711,0.17150
3594.66558,0.16561
3596.59405,0.15796
3598.52252,0.15847
3600.45099,0.16368
3602.37946,0.16561
3604.30792,0.16481
3606.23639,0.16475
3608.16486,0.16340
3610.09333,0.16038
3612.02180,0.16229
3613.95027,0.16809
3615.87874,0.16931
3617.80720,0.16674
3619.73567,0.16287
3621.66414,0.15707
3623.59261,0.15413
3625.52108,0.15730
3627.44955,0.16456
3629.37802,0.16573
3631.30649,0.16006
3633.23495,0.15684
3635.16342,0.15176
3637.09189,0.14453
3639.02036,0.14136
3640.94883,0.14314
3642.87730,0.14555
3644.80577,0.14801
3646.73423,0.15348
3648.66270,0.15995
3650.59117,0.15694
3652.51964,0.14882
3654.44811,0.14451
3656.37658,0.14402
3658.30505,0.14242
3660.23352,0.13793
3662.16198,0.13443
3664.09045,0.13384
3666.01892,0.13545
3667.94739,0.14078
3669.87586,0.14872
3671.80433,0.15195
3673.73280,0.15292
3675.66126,0.15399
3677.58973,0.14869
3679.51820,0.14034
3681.44667,0.13628
3683.37514,0.13619
3685.30361,0.13571
3687.23208,0.13511
3689.16055,0.13912
3691.08901,0.14502
3693.01748,0.14531
3694.94595,0.14251
3696.87442,0.13808
3698.80289,0.13336
3700.73136,0.13121
3702.65983,0.12984
3704.58829,0.12790
3706.51676,0.12944
3708.44523,0.13557
3710.37370,0.14426
3712.30217,0.14879
3714.23064,0.14353
3716.15911,0.13656
3718.08757,0.13391
3720.01604,0.13561
3721.94451,0.13956
3723.87298,0.14300
3725.80145,0.14266
3727.72992,0.13991
3729.65839,0.13968
3731.58686,0.14701
3733.51532,0.16190
3735.44379,0.16615
3737.37226,0.15204
3739.30073,0.13954
3741.22920,0.13498
3743.15767,0.13571
3745.08614,0.13861
3747.01460,0.13945
3748.94307,0.13893
3750.87154,0.13914
3752.80001,0.13909
3754.72848,0.13933
3756.65695,0.14012
3758.58542,0.13704
3760.51389,0.12899
3762.44235,0.12477
3764.37082,0.12745
3766.29929,0.13204
3768.22776,0.13403
3770.15623,0.13422
3772.08470,0.13453
3774.01317,0.13444
3775.94163,0.13198
3777.87010,0.12849
3779.79857,0.12817
3781.72704,0.13037
3783.65551,0.13090
3785.58398,0.12986
3787.51245,0.12931
3789.44092,0.12746
3791.36938,0.12316
3793.29785,0.12058
3795.22632,0.12263
3797.15479,0.12903
3799.08326,0.13908
3801.01173,0.14653
3802.94020,0.14001
3804.86866,0.13011
3806.79713,0.12584
3808.72560,0.12428
3810.65407,0.12247
3812.58254,0.12159
3814.51101,0.12277
3816.43948,0.12569
3818.36795,0.12966
3820.29641,0.13250
3822.22488,0.13053
3824.15335,0.12767
3826.08182,0.12778
3828.01029,0.13120
3829.93876,0.13441
3831.86723,0.13171
3833.79569,0.12518
3835.72416,0.12383
3837.65263,0.12904
3839.58110,0.12984
3841.50957,0.12562
3843.43804,0.12648
3845.36651,0.12981
3847.29498,0.12790
3849.22344,0.12303
3851.15191,0.12527
3853.08038,0.13844
3855.00885,0.13696
3856.93732,0.12620
3858.86579,0.12366
3860.79426,0.12676
3862.72272,0.12765
3864.65119,0.12291
3866.57966,0.12025
3868.50813,0.12538
3870.43660,0.13043
3872.36507,0.12297
3874.29354,0.11328
3876.22200,0.11284
3878.15047,0.11905
3880.07894,0.12632
3882.00741,0.12753
3883.93588,0.12537
3885.86435,0.12385
3887.79282,0.12032
3889.72129,0.11961
3891.64975,0.12031
3893.57822,0.11673
3895.50669,0.11772
3897.43516,0.12457
3899.36363,0.12828
3901.29210,0.12446
3903.22057,0.11827
3905.14903,0.11529
3907.07750,0.11502
3909.00597,0.11446
3910.93444,0.11153
3912.86291,0.10744
3914.79138,0.10695
3916.71985,0.11141
3918.64832,0.11762
3920.57678,0.12031
3922.50525,0.11588
3924.43372,0.10821
3926.36219,0.10484
3928.29066,0.10698
3930.21913,0.11131
3932.14760,0.11316
3934.07606,0.11165
3936.00453,0.10825
3937.93300,0.10235
3939.86147,0.09770
3941.78994,0.09893
3943.71841,0.10552
3945.64688,0.11097
3947.57535,0.11051
3949.50381,0.10972
3951.43228,0.11297
3953.36075,0.11440
3955.28922,0.11202
3957.21769,0.10833
3959.14616,0.10474
3961.07463,0.10352
3963.00309,0.10414
3964.93156,0.10279
3966.86003,0.10112
3968.78850,0.10229
3970.71697,0.10337
3972.64544,0.10317
3974.57391,0.10346
3976.50238,0.10183
3978.43084,0.09763
3980.35931,0.09600
3982.28778,0.09979
3984.21625,0.10483
3986.14472,0.10654
3988.07319,0.10622
3990.00166,0.10478
3991.93012,0.10076
3993.85859,0.09652
3995.78706,0.09642
3997.71553,0.10044
3999.64400,0.10246
4001.57247,0.10056
4003.50094,0.10033
4005.42941,0.10173
4007.35787,0.10107
4009.28634,0.09966
4011.21481,0.09922
4013.14328,0.09817
4015.07175,0.09463
4017.00022,0.09072
4018.92869,0.09087
4020.85715,0.09386
4022.78562,0.09490
4024.71409,0.09452
4026.64256,0.09274
4028.57103,0.08840
4030.49950,0.08723
4032.42797,0.09103
4034.35644,0.09388
4036.28490,0.09530
4038.21337,0.09565
4040.14184,0.09119
4042.07031,0.08477
4043.99878,0.08161
4045.92725,0.08307
4047.85572,0.08809
4049.78418,0.09124
4051.71265,0.09081
4053.64112,0.09037
4055.56959,0.09067
4057.49806,0.09054
4059.42653,0.08965
4061.35500,0.08956
4063.28346,0.09136
4065.21193,0.09283
4067.14040,0.09094
4069.06887,0.08797
4070.99734,0.08850
4072.92581,0.09080
4074.85428,0.09161
4076.78275,0.09038
4078.71121,0.08807
4080.63968,0.08524
4082.56815,0.08160
4084.49662,0.08026
4086.42509,0.08206
4088.35356,0.08378
4090.28203,0.08683
4092.21049,0.09174
4094.13896,0.09255
4096.06743,0.08839
4097.99590,0.08560
4099.92437,0.08642
4101.85284,0.08666
4103.78131,0.08434
4105.70978,0.08374
4107.63824,0.08337
4109.56671,0.08067
4111.49518,0.08174
4113.42365,0.08350
4115.35212,0.08074
4117.28059,0.08047
4119.20906,0.08447
4121.13752,0.08697
4123.06599,0.08499
4124.99446,0.07931
4126.92293,0.07465
4128.85140,0.07474
4130.77987,0.07719
4132.70834,0.07914
4134.63681,0.07890
4136.56527,0.07536
4138.49374,0.07351
4140.42221,0.07616
4142.35068,0.07773
4144.27915,0.07631
4146.20762,0.07522
4148.13609,0.07472
4150.06455,0.07330
4151.99302,0.07263
4153.92149,0.07345
4155.84996,0.07454
4157.77843,0.07614
4159.70690,0.07561
4161.63537,0.07199
4163.56384,0.07027
4165.49230,0.07143
4167.42077,0.07169
4169.34924,0.07031
4171.27771,0.06936
4173.20618,0.06838
4175.13465,0.06622
4177.06312,0.06448
4178.99158,0.06396
4180.92005,0.06575
4182.84852,0.06965
4184.77699,0.07110
4186.70546,0.06960
4188.63393,0.06778
4190.56240,0.06640
4192.49087,0.06747
4194.41933,0.06939
4196.34780,0.06961
4198.27627,0.07046
4200.20474,0.06870
4202.13321,0.06048
4204.06168,0.05277
4205.99015,0.05167
4207.91861,0.05281
4209.84708,0.04917
4211.77555,0.04372
4213.70402,0.04322
4215.63249,0.04523
4217.56096,0.04777
4219.48943,0.05339
4221.41789,0.05816
4223.34636,0.05803
4225.27483,0.05631
4227.20330,0.05477
4229.13177,0.05420
4231.06024,0.05671
4232.98871,0.06058
4234.91718,0.06284
4236.84564,0.06125
4238.77411,0.05826
4240.70258,0.05808
4242.63105,0.05624
4244.55952,0.05088
4246.48799,0.04867
4248.41646,0.05010
4250.34492,0.04963
4252.27339,0.04652
4254.20186,0.04309
4256.13033,0.04007
4258.05880,0.04120
4259.98727,0.04641
4261.91574,0.04702
4263.84421,0.04555
4265.77267,0.04813
4267.70114,0.04871
4269.62961,0.04694
4271.55808,0.04621
4273.48655,0.04278
4275.41502,0.03894
4277.34349,0.04078
4279.27195,0.04402
4281.20042,0.04341
4283.12889,0.04396
4285.05736,0.04660
4286.98583,0.04572
4288.91430,0.04337
4290.84277,0.04226
4292.77124,0.04062
4294.69970,0.04004
4296.62817,0.04185
4298.55664,0.04303
4300.48511,0.04354
4302.41358,0.04553
4304.34205,0.04430
4306.27052,0.03729
4308.19898,0.03278
4310.12745,0.03509
4312.05592,0.03640
4313.98439,0.03376
4315.91286,0.03367
4317.84133,0.03303
4319.76980,0.02687
4321.69827,0.02336
4323.62673,0.02712
4325.55520,0.03225
4327.48367,0.03458
4329.41214,0.03519
4331.34061,0.03368
4333.26908,0.02937
4335.19755,0.02396
4337.12601,0.02166
4339.05448,0.02498
4340.98295,0.02872
4342.91142,0.03057
4344.83989,0.03026
4346.76836,0.02817
4348.69683,0.02683
4350.62530,0.02387
4352.55376,0.02244
4354.48223,0.02447
4356.41070,0.02415
4358.33917,0.02132
4360.26764,0.01908
4362.19611,0.01851
4364.12458,0.01853
4366.05304,0.01836
4367.98151,0.01879
4369.90998,0.02099
4371.83845,0.02261
4373.76692,0.02004
4375.69539,0.01990
4377.62386,0.02641
4379.55232,0.02899
4381.48079,0.02490
4383.40926,0.02381
4385.33773,0.02336
4387.26620,0.01921
4389.19467,0.01900
4391.12314,0.02262
4393.05161,0.02373
4394.98007,0.02097
4396.90854,0.01483
4398.83701,0.01107
4400.76548,0.01286
4402.69395,0.01409
4404.62242,0.01342
4406.55089,0.01575
4408.47935,0.02058
4410.40782,0.01994
4412.33629,0.01304
4414.26476,0.01176
4416.19323,0.01387
4418.12170,0.00907
4420.05017,0.00372
4421.97864,0.00444
4423.90710,0.00961
4425.83557,0.01808
4427.76404,0.02545
4429.69251,0.02676
4431.62098,0.02932
4433.54945,0.03637
4435.47792,0.03345
4437.40638,0.01955
4439.33485,0.00742
4441.26332,-0.00167
4443.19179,-0.00609
4445.12026,-0.00046
4447.04873,0.01053
4448.97720,0.01755
4450.90567,0.01583
4452.83413,0.01050
4454.76260,0.01081
4456.69107,0.01408
4458.61954,0.01228
4460.54801,0.00841
4462.47648,0.01122
4464.40495,0.02115
4466.33341,0.02684
4468.26188,0.01990
4470.19035,0.01026
4472.11882,0.00811
4474.04729,0.00931
4475.97576,0.01010
4477.90423,0.00905
4479.83270,0.00359
4481.76116,0.00104
4483.68963,0.00839
4485.61810,0.01536
4487.54657,0.01481
4489.47504,0.01084
4491.40351,0.00979
4493.33198,0.01447
4495.26044,0.01282
4497.18891,0.00362
4499.11738,0.00113
4501.04585,0.00565
4502.97432,0.01090
4504.90279,0.01242
4506.83126,0.00978
4508.75973,0.00815
4510.68819,0.00449
4512.61666,-0.00307
4514.54513,-0.00797
4516.47360,-0.00851
4518.40207,-0.00411
4520.33054,0.00388
4522.25901,0.00981
4524.18747,0.00820
4526.11594,-0.00194
4528.04441,-0.00994
4529.97288,-0.00853
4531.90135,-0.00188
4533.82982,0.00486
4535.75829,0.00853
4537.68676,0.00997
4539.61522,0.00927
4541.54369,0.00489
4543.47216,-0.00101
4545.40063,-0.00189
4547.32910,0.00589
4549.25757,0.01390
4551.18604,0.01389
4553.11450,0.00946
4555.04297,0.00551
4556.97144,0.00024
4558.89991,-0.00636
4560.82838,-0.00493
4562.75685,0.00439
4564.68532,0.00957
4566.61378,0.00998
4568.54225,0.00923
4570.47072,0.00854
4572.39919,0.00875
4574.32766,0.00541
4576.25613,0.00207
4578.18460,0.00691
4580.11307,0.00922
4582.04153,-0.00085
4583.97000,-0.00587
4585.89847,0.00310
4587.82694,0.00964
4589.75541,0.00391
4591.68388,-0.00475
4593.61235,-0.00588
4595.54081,-0.00241
4597.46928,0.00068
4599.39775,0.00069
4601.32622,-0.00429
4603.25469,-0.00833
4605.18316,-0.00300
4607.11163,0.00726
4609.04010,0.00866
4610.96856,0.00335
4612.89703,0.00446
4614.82550,0.00915
4616.75397,0.00642
4618.68244,0.00211
4620.61091,0.00712
4622.53938,0.01180
4624.46784,0.00640
4626.39631,0.00114
4628.32478,0.00551
4630.25325,0.01426
4632.18172,0.01700
4634.11019,0.00915
4636.03866,-0.00124
4637.96713,-0.00471
4639.89559,-0.00106
4641.82406,0.00715
4643.75253,0.01269
4645.68100,0.00869
4647.60947,0.00310
4649.53794,0.00716
4651.46641,0.01601
4653.39487,0.01659
4655.32334,0.00767
4657.25181,-0.00128
4659.18028,-0.00380
4661.10875,-0.00030
4663.03722,0.00643
4664.96569,0.01205
4666.89416,0.01627
4668.82262,0.01769
4670.75109,0.01311
4672.67956,0.00886
4674.60803,0.00940
4676.53650,0.00916
4678.46497,0.00473
4680.39344,-0.00212
4682.32190,-0.00307
4684.25037,0.00247
4686.17884,0.00174
4688.10731,-0.00559
4690.03578,-0.00434
4691.96425,0.00662
4693.89272,0.01268
4695.82119,0.01473
4697.74965,0.02176
4699.67812,0.02804
4701.60659,0.02481
4703.53506,0.01290
4705.46353,0.00097
4707.39200,-0.00385
4709.32047,-0.00377
4711.24893,-0.00079
4713.17740,0.00552
4715.10587,0.00858
4717.03434,0.00443
4718.96281,-0.00208
4720.89128,-0.00604
4722.81975,-0.00615
4724.74821,-0.00370
4726.67668,0.00027
4728.60515,0.00417
4730.53362,0.00603
4732.46209,0.00371
4734.39056,-0.00119
4736.31903,-0.00097
4738.24750,0.00623
4740.17596,0.01136
4742.10443,0.00935
4744.03290,0.00574
4745.96137,0.00273
4747.88984,0.00118
4749.81831,0.00519
4751.74678,0.01196
4753.67524,0.01850
4755.60371,0.02366
4757.53218,0.02204
4759.46065,0.01335
4761.38912,0.00488
4763.31759,0.00646
4765.24606,0.01496
4767.17453,0.01225
4769.10299,0.00028
4771.03146,-0.00279
4772.95993,0.00037
4774.88840,-0.00127
4776.81687,-0.00170
4778.74534,0.00761
4780.67381,0.01950
4782.60227,0.02539
4784.53074,0.02425
4786.45921,0.01153
4788.38768,-0.01119
4790.31615,-0.02623
4792.24462,-0.02679
4794.17309,-0.02164
4796.10156,-0.00814
4798.03002,0.00815
4799.95849,0.00619
4801.88696,-0.00457
4803.81543,-0.00254
4805.74390,0.00692
4807.67237,0.00990
4809.60084,0.00453
4811.52930,0.00186
4813.45777,0.00522
4815.38624,0.00670
4817.31471,0.00517
4819.24318,0.01015
4821.17165,0.01313
4823.10012,0.00568
4825.02859,0.00279
4826.95705,0.00560
4828.88552,0.00476
4830.81399,0.00580
4832.74246,0.00432
4834.67093,-0.00175
4836.59940,0.00041
4838.52787,0.01298
4840.45633,0.02773
4842.38480,0.03063
4844.31327,0.01713
4846.24174,0.00590
4848.17021,0.00758
4850.09868,0.01563
4852.02715,0.02363
4853.95562,0.02665
4855.88408,0.02472
4857.81255,0.02010
4859.74102,0.01712
4861.66949,0.01918
4863.59796,0.02530
4865.52643,0.03211
4867.45490,0.02873
4869.38336,0.01534
4871.31183,0.00681
4873.24030,0.00506
4875.16877,-0.00021
4877.09724,-0.00907
4879.02571,-0.00808
4880.95418,0.00744
4882.88265,0.02264
4884.81111,0.02427
4886.73958,0.01581
4888.66805,0.00904
4890.59652,0.00998
4892.52499,0.01244
4894.45346,0.01226
4896.38193,0.01524
4898.31039,0.01940
4900.23886,0.01470
4902.16733,0.00173
4904.09580,-0.00974
4906.02427,-0.01366
4907.95274,-0.00834
4909.88121,0.00495
4911.80967,0.01282
4913.73814,0.00413
4915.66661,-0.00879
4917.59508,-0.01111
4919.52355,-0.00415
4921.45202,0.00655
4923.38049,0.01517
4925.30896,0.01677
4927.23742,0.01242
4929.16589,0.00764
4931.09436,0.00844
4933.02283,0.01211
4934.95130,0.01396
4936.87977,0.01812
4938.80824,0.02512
4940.73670,0.03142
4942.66517,0.02913
4944.59364,0.01190
4946.52211,-0.00441
4948.45058,-0.00115
4950.37905,0.01117
4952.30752,0.00815
4954.23599,-0.00790
4956.16445,-0.01600
4958.09292,-0.01376
4960.02139,-0.00814
4961.94986,-0.00537
4963.87833,-0.00812
4965.80680,-0.01322
4967.73527,-0.01813
4969.66373,-0.01581
4971.59220,0.00022
4973.52067,0.02341
4975.44914,0.03212
4977.37761,0.01435
4979.30608,-0.00556
4981.23455,-0.00268
4983.16302,0.01192
4985.09148,0.02107
4987.01995,0.01952
4988.94842,0.00959
4990.87689,0.00396
4992.80536,0.00482
4994.73383,0.00417
4996.66230,0.00453
4998.59076,0.00940
5000.51923,0.01157
5002.44770,0.00680
5004.37617,0.00451
5006.30464,0.00906
5008.23311,0.01217
5010.16158,0.01076
5012.09005,0.01132
5014.01851,0.01089
5015.94698,0.00031
5017.87545,-0.00911
5019.80392,-0.00691
5021.73239,-0.00088
5023.66086,0.00453
5025.58933,0.00824
5027.51779,0.01048
5029.44626,0.01484
5031.37473,0.01837
5033.30320,0.01554
5035.23167,0.00839
5037.16014,0.00296
5039.08861,0.00537
5041.01708,0.01724
5042.94554,0.02789
5044.87401,0.02802
5046.80248,0.02659
5048.73095,0.02584
5050.65942,0.01636
5052.58789,0.00949
5054.51636,0.01528
5056.44482,0.02354
5058.37329,0.02399
5060.30176,0.01676
5062.23023,0.01046
5064.15870,0.00635
5066.08717,0.00267
5068.01564,0.00444
5069.94410,0.00775
5071.87257,0.00491
5073.80104,0.00534
5075.72951,0.02061
5077.65798,0.04012
5079.58645,0.04292
5081.51492,0.02651
5083.44339,0.00943
5085.37185,0.00133
5087.30032,0.00077
5089.22879,0.00644
5091.15726,0.01202
5093.08573,0.01298
5095.01420,0.01273
5096.94267,0.01288
5098.87113,0.00825
5100.79960,0.00165
5102.72807,0.00420
5104.65654,0.00980
5106.58501,0.00793
5108.51348,0.00879
5110.44195,0.01080
5112.37042,-0.00253
5114.29888,-0.01090
5116.22735,0.00606
5118.15582,0.02206
5120.08429,0.02074
5122.01276,0.01433
5123.94123,0.01165
5125.86970,0.01888
5127.79816,0.02546
5129.72663,0.02032
5131.65510,0.02193
5133.58357,0.02814
5135.51204,0.01661
5137.44051,0.00573
5139.36898,0.02076
5141.29745,0.03944
5143.22591,0.03447
5145.15438,0.01745
5147.08285,0.00800
5149.01132,0.01130
5150.93979,0.02023
5152.86826,0.01423
5154.79673,-0.00431
5156.72519,-0.00522
5158.65366,0.00677
5160.58213,0.00377
5162.51060,-0.00064
5164.43907,0.01670
5166.36754,0.03466
5168.29601,0.03224
5170.22448,0.02412
5172.15294,0.02231
5174.08141,0.02104
5176.00988,0.01831
5177.93835,0.02273
5179.86682,0.03079
5181.79529,0.02871
5183.72376,0.03000
5185.65222,0.04786
5187.58069,0.05604
5189.50916,0.04023
5191.43763,0.02586
5193.36610,0.02891
5195.29457,0.03479
5197.22304,0.03443
5199.15151,0.03782
5201.07997,0.04135
5203.00844,0.03010
5204.93691,0.01102
5206.86538,0.00479
5208.79385,0.01334
5210.72232,0.02113
5212.65079,0.02975
5214.57925,0.04310
5216.50772,0.04964
5218.43619,0.04896
5220.36466,0.04614
5222.29313,0.03522
5224.22160,0.02302
5226.15007,0.02196
5228.07854,0.02253
5230.00700,0.01746
5231.93547,0.01667
5233.86394,0.01641
5235.79241,0.00775
5237.72088,0.00223
5239.64935,0.01475
5241.57782,0.03510
5243.50628,0.03479
5245.43475,0.01269
5247.36322,0.00151
5249.29169,0.01535
5251.22016,0.03673
5253.14863,0.04555
5255.07710,0.04682
5257.00556,0.05701
5258.93403,0.06097
5260.86250,0.03844
5262.79097,0.01104
5264.71944,0.01419
5266.64791,0.03808
5268.57638,0.04577
5270.50485,0.03063
5272.43331,0.01894
5274.36178,0.02345
5276.29025,0.02707
5278.21872,0.02474
5280.14719,0.03468
5282.07566,0.04739
5284.00413,0.04187
5285.93259,0.02931
5287.86106,0.02176
5289.78953,0.01930
5291.71800,0.01655
5293.64647,0.01699
5295.57494,0.02837
5297.50341,0.03010
5299.43188,0.01359
5301.36034,-0.00113
5303.28881,-0.00389
5305.21728,0.00428
5307.14575,0.01917
5309.07422,0.03263
5311.00269,0.03982
5312.93116,0.04778
5314.85962,0.06108
5316.78809,0.06470
5318.71656,0.04383
5320.64503,0.01433
5322.57350,0.00180
5324.50197,0.00836
5326.43044,0.01575
5328.35891,0.01543
5330.28737,0.02027
5332.21584,0.03182
5334.14431,0.04449
5336.07278,0.06142
5338.00125,0.07335
5339.92972,0.07096
5341.85819,0.06295
5343.78665,0.04667
5345.71512,0.02552
5347.64359,0.02066
5349.57206,0.02484
5351.50053,0.01908
5353.42900,0.00768
5355.35747,0.01257
5357.28594,0.02995
5359.21440,0.04447
5361.14287,0.06223
5363.07134,0.08016
5364.99981,0.07596
5366.92828,0.05673
5368.85675,0.03857
5370.78522,0.01948
5372.71368,0.01095
5374.64215,0.02206
5376.57062,0.04086
5378.49909,0.05651
5380.42756,0.05590
5382.35603,0.03582
5384.28450,0.01840
5386.21297,0.01949
5388.14143,0.03059
5390.06990,0.04779
5391.99837,0.06967
5393.92684,0.08238
5395.85531,0.07350
5397.78378,0.05883
5399.71225,0.05448
5401.64071,0.04786
5403.56918,0.02911
5405.49765,0.02077
5407.42612,0.04389
5409.35459,0.06999
5411.28306,0.06656
5413.21153,0.06019
5415.13999,0.05945
5417.06846,0.04110
5418.99693,0.02554
5420.92540,0.02671
5422.85387,0.03709
5424.78234,0.05744
5426.71081,0.07180
5428.63928,0.06960
5430.56774,0.06264
5432.49621,0.04940
5434.42468,0.03920
5436.35315,0.05029
5438.28162,0.06612
5440.21009,0.06547
5442.13856,0.06425
5444.06702,0.08552
5445.99549,0.10456
5447.92396,0.09158
5449.85243,0.06331
5451.78090,0.04778
5453.70937,0.04723
5455.63784,0.04909
5457.56631,0.05431
5459.49477,0.06911
5461.42324,0.08103
5463.35171,0.07766
5465.28018,0.05702
5467.20865,0.04122
5469.13712,0.05117
5471.06559,0.06614
5472.99405,0.08004
5474.92252,0.10201
5476.85099,0.10628
5478.77946,0.08621
5480.70793,0.07030
5482.63640,0.06677
5484.56487,0.06365
5486.49334,0.06010
5488.42180,0.05726
5490.35027,0.05537
5492.27874,0.06101
5494.20721,0.06689
5496.13568,0.05756
5498.06415,0.03859
5499.99262,0.04020
5501.92108,0.06500
5503.84955,0.07356
5505.77802,0.05695
5507.70649,0.04237
5509.63496,0.04285
5511.56343,0.05263
5513.49190,0.06599
5515.42037,0.07140
5517.34883,0.06799
5519.27730,0.06281
5521.20577,0.05579
5523.13424,0.05671
5525.06271,0.06011
5526.99118,0.05277
5528.91965,0.05208
5530.84811,0.05982
5532.77658,0.05887
5534.70505,0.05526
5536.63352,0.06156
5538.56199,0.07331
5540.49046,0.08372
5542.41893,0.08618
5544.34740,0.06619
5546.27586,0.04604
5548.20433,0.05538
5550.13280,0.07123
5552.06127,0.06859
5553.98974,0.05596
5555.91821,0.06089
5557.84668,0.08404
5559.77514,0.08754
5561.70361,0.06243
5563.63208,0.04713
5565.56055,0.05850
5567.48902,0.06963
5569.41749,0.07773
5571.34596,0.08722
5573.27443,0.07796
5575.20289,0.05513
5577.13136,0.03726
5579.05983,0.02836
5580.98830,0.03850
5582.91677,0.06060
5584.84524,0.06362
5586.77371,0.04231
5588.70217,0.02175
5590.63064,0.02347
5592.55911,0.04722
5594.48758,0.07173
5596.41605,0.07054
5598.34452,0.04909
5600.27299,0.04262
5602.20145,0.05730
5604.12992,0.06746
5606.05839,0.06776
5607.98686,0.06816
5609.91533,0.07540
5611.84380,0.09119
5613.77227,0.10095
5615.70074,0.09403
5617.62920,0.08113
5619.55767,0.07742
5621.48614,0.08211
5623.41461,0.07803
5625.34308,0.06616
5627.27155,0.05897
5629.20002,0.05575
5631.12848,0.06697
5633.05695,0.09484
5634.98542,0.11400
5636.91389,0.10719
5638.84236,0.08635
5640.77083,0.07549
5642.69930,0.08333
5644.62777,0.09792
5646.55623,0.09567
5648.48470,0.07061
5650.41317,0.04912
5652.34164,0.04868
5654.27011,0.05835
5656.19858,0.07107
5658.12705,0.09152
5660.05551,0.10295
5661.98398,0.09816
5663.91245,0.10243
5665.84092,0.10937
5667.76939,0.09621
5669.69786,0.08030
5671.62633,0.08076
5673.55480,0.07598
5675.48326,0.05484
5677.41173,0.04325
5679.34020,0.04812
5681.26867,0.05140
5683.19714,0.05158
5685.12561,0.05539
5687.05408,0.06439
5688.98254,0.07766
5690.91101,0.07552
5692.83948,0.05692
5694.76795,0.05993
5696.69642,0.08077
5698.62489,0.08043
5700.55336,0.06481
5702.48183,0.04794
5704.41029,0.03990
5706.33876,0.05619
5708.26723,0.07366
5710.19570,0.07945
5712.12417,0.08203
5714.05264,0.06169
5715.98111,0.02720
5717.90957,0.02137
5719.83804,0.04952
5721.76651,0.07738
5723.69498,0.07888
5725.62345,0.05858
5727.55192,0.03685
5729.48039,0.02554
5731.40886,0.01567
5733.33732,0.01035
5735.26579,0.02294
5737.19426,0.03835
5739.12273,0.05879
5741.05120,0.09064
5742.97967,0.09542
5744.90814,0.07725
5746.83660,0.07805
5748.76507,0.09099
5750.69354,0.07768
5752.62201,0.04557
5754.55048,0.03710
5756.47895,0.05244
5758.40742,0.05962
5760.33588,0.04926
5762.26435,0.03288
5764.19282,0.01808
5766.12129,0.02002
5768.04976,0.03341
5769.97823,0.04216
5771.90670,0.05875
5773.83517,0.06729
5775.76363,0.04280
5777.69210,0.00778
5779.62057,0.00282
5781.54904,0.02646
5783.47751,0.04321
5785.40598,0.05758
5787.33445,0.07678
5789.26291,0.08695
5791.19138,0.09990
5793.11985,0.10487
5795.04832,0.08243
5796.97679,0.05850
5798.90526,0.05415
5800.83373,0.05920
5802.76220,0.06607
5804.69066,0.08018
5806.61913,0.09435
5808.54760,0.09243
5810.47607,0.08414
5812.40454,0.08089
5814.33301,0.07246
5816.26148,0.06341
5818.18994,0.07841
5820.11841,0.09901
5822.04688,0.08796
5823.97535,0.07471
5825.90382,0.09299
5827.83229,0.12510
5829.76076,0.13950
5831.68923,0.12886
5833.61769,0.11067
5835.54616,0.09855
5837.47463,0.08095
5839.40310,0.05229
5841.33157,0.04044
5843.26004,0.05010
5845.18851,0.05637
5847.11697,0.05733
5849.04544,0.06885
5850.97391,0.08595
5852.90238,0.08593
5854.83085,0.06941
5856.75932,0.05668
5858.68779,0.06479
5860.61626,0.08220
5862.54472,0.10055
5864.47319,0.13521
5866.40166,0.14534
5868.33013,0.09131
5870.25860,0.03043
5872.18707,0.01589
5874.11554,0.04241
5876.04400,0.07596
5877.97247,0.08349
5879.90094,0.08780
5881.82941,0.11557
5883.75788,0.13953
5885.68635,0.13732
5887.61482,0.12183
5889.54329,0.10303
5891.47175,0.08593
5893.40022,0.08638
5895.32869,0.09818
5897.25716,0.10077
5899.18563,0.08775
5901.11410,0.07095
5903.04257,0.08002
5904.97103,0.10705
5906.89950,0.11574
5908.82797,0.11972
5910.75644,0.13336
5912.68491,0.11700
5914.61338,0.06496
5916.54185,0.02632
5918.47032,0.02304
5920.39878,0.04381
5922.32725,0.07159
5924.25572,0.08868
5926.18419,0.09519
5928.11266,0.11214
5930.04113,0.12957
5931.96960,0.11589
5933.89806,0.08497
5935.82653,0.06975
5937.75500,0.06760
5939.68347,0.06600
5941.61194,0.04528
5943.54041,0.01609
5945.46888,0.03285
5947.39734,0.07099
5949.32581,0.06520
5951.25428,0.03447
5953.18275,0.02915
5955.11122,0.05125
5957.03969,0.06970
5958.96816,0.05527
5960.89663,0.02309
5962.82509,0.01051
5964.75356,0.01468
5966.68203,0.01912
5968.61050,0.02105
5970.53897,0.03864
5972.46744,0.06588
5974.39591,0.06299
5976.32437,0.05935
5978.25284,0.08856
5980.18131,0.10754
5982.10978,0.07758
5984.03825,0.03166
5985.96672,0.02423
5987.89519,0.04078
5989.82366,0.04891
5991.75212,0.06602
5993.68059,0.12116
5995.60906,0.17384
5997.53753,0.15606
5999.46600,0.11424
6001.39447,0.10595
6003.32294,0.11119
6005.25140,0.10659
6007.17987,0.08820
6009.10834,0.05703
6011.03681,0.02363
6012.96528,-0.00325
6014.89375,0.01252
6016.82222,0.08775
6018.75069,0.13500
6020.67915,0.10280
6022.60762,0.07498
6024.53609,0.09061
6026.46456,0.11332
6028.39303,0.12071
6030.32150,0.10564
6032.24997,0.07369
6034.17843,0.03287
6036.10690,0.00223
6038.03537,0.00353
6039.96384,0.02702
6041.89231,0.05074
6043.82078,0.05512
6045.74925,0.04847
6047.67772,0.04780
6049.60618,0.05651
6051.53465,0.07422
6053.46312,0.09111
6055.39159,0.08338
6057.32006,0.04147
6059.24853,0.02002
6061.17700,0.03757
6063.10546,0.04894
6065.03393,0.04899
6066.96240,0.05641
6068.89087,0.06443
6070.81934,0.04760
6072.74781,0.00938
6074.67628,-0.00601
6076.60475,0.02913
6078.53321,0.07273
6080.46168,0.08045
6082.39015,0.06871
6084.31862,0.05005
6086.24709,0.04250
6088.17556,0.08446
6090.10403,0.14083
6092.03249,0.13983
6093.96096,0.10932
6095.88943,0.10993
6097.81790,0.11578
6099.74637,0.11000
6101.67484,0.11079
6103.60331,0.10712
6105.53177,0.10088
6107.46024,0.11707
6109.38871,0.12818
6111.31718,0.09181
6113.24565,0.04413
6115.17412,0.03819
6117.10259,0.06878
6119.03106,0.10038
6120.95952,0.11739
6122.88799,0.10453
6124.81646,0.05720
6126.74493,0.03854
6128.67340,0.09250
6130.60187,0.12351
6132.53034,0.07120
6134.45880,0.02511
6136.38727,0.03589
6138.31574,0.06051
6140.24421,0.05636
6142.17268,0.02852
6144.10115,0.02332
6146.02962,0.05969
6147.95809,0.10317
6149.88655,0.12269
6151.81502,0.11939
6153.74349,0.12175
6155.67196,0.12646
6157.60043,0.08174
6159.52890,0.01411
6161.45737,0.01849
6163.38583,0.07938
6165.31430,0.10421
6167.24277,0.08717
6169.17124,0.07849
6171.09971,0.07989
6173.02818,0.08162
6174.95665,0.09840
6176.88512,0.12339
6178.81358,0.13295
6180.74205,0.13642
6182.67052,0.15592
6184.59899,0.17131
6186.52746,0.15339
6188.45593,0.12765
6190.38440,0.12109
6192.31286,0.08387
6194.24133,0.03088
6196.16980,0.03145
6198.09827,0.06007
6200.02674,0.08170
6201.95521,0.09417
6203.88368,0.09023
6205.81215,0.07252
6207.74061,0.05456
6209.66908,0.08072
6211.59755,0.14163
6213.52602,0.14194
6215.45449,0.08875
6217.38296,0.04829
6219.31143,0.03377
6221.23989,0.04316
6223.16836,0.05453
6225.09683,0.04244
6227.02530,0.00847
6228.95377,-0.02947
6230.88224,-0.02392
6232.81071,0.02516
6234.73918,0.07949
6236.66764,0.12845
6238.59611,0.14538
6240.52458,0.10953
6242.45305,0.05528
6244.38152,0.02830
6246.30999,0.01614
6248.23846,-0.00652
6250.16692,-0.02046
6252.09539,-0.00622
6254.02386,0.02148
6255.95233,0.05377
6257.88080,0.07109
6259.80927,0.05611
6261.73774,0.03119
6263.66621,0.01442
6265.59467,0.00890
6267.52314,0.00652
6269.45161,-0.00671
6271.38008,-0.03116
6273.30855,-0.03038
6275.23702,0.02120
6277.16549,0.04227
6279.09395,0.01842
6281.02242,0.01336
6282.95089,-0.00268
6284.87936,-0.04627
6286.80783,-0.06024
6288.73630,-0.03067
6290.66477,0.01421
6292.59323,0.04766
6294.52170,0.04214
6296.45017,-0.00379
6298.37864,-0.03322
6300.30711,0.01447
6302.23558,0.09544
6304.16405,0.11021
6306.09252,0.07408
6308.02098,0.04674
6309.94945,0.05453
6311.87792,0.07992
6313.80639,0.08265
6315.73486,0.06726
6317.66333,0.06854
6319.59180,0.10623
6321.52026,0.15244
6323.44873,0.15883
6325.37720,0.12747
6327.30567,0.07393
6329.23414,0.01310
6331.16261,-0.02116
6333.09108,-0.03525
6335.01955,-0.04669
6336.94801,-0.02051
6338.87648,0.06356
6340.80495,0.13939
6342.73342,0.12483
6344.66189,0.05766
6346.59036,0.04462
6348.51883,0.07518
6350.44729,0.05979
6352.37576,0.02319
6354.30423,0.04494
6356.23270,0.09432
6358.16117,0.11725
6360.08964,0.12669
6362.01811,0.13832
6363.94658,0.15524
6365.87504,0.16539
6367.80351,0.15057
6369.73198,0.13948
6371.66045,0.11718
6373.58892,0.05521
6375.51739,0.00546
6377.44586,0.00840
6379.37432,0.03125
6381.30279,0.03902
6383.23126,0.05098
6385.15973,0.06845
6387.08820,0.08046
6389.01667,0.10020
6390.94514,0.10394
6392.87361,0.07788
6394.80207,0.07289
6396.73054,0.10825
6398.65901,0.12847
6400.58748,0.09306
6402.51595,0.04002
6404.44442,0.03130
6406.37289,0.04791
6408.30135,0.02435
6410.22982,-0.03174
6412.15829,-0.06009
6414.08676,-0.02906
6416.01523,0.05179
6417.94370,0.13627
6419.87217,0.15511
6421.80064,0.10663
6423.72910,0.05616
6425.65757,0.06104
6427.58604,0.08243
6429.51451,0.07241
6431.44298,0.08627
6433.37145,0.11513
6435.29992,0.09241
6437.22838,0.06107
6439.15685,0.07196
6441.08532,0.09927
6443.01379,0.11822
6444.94226,0.09019
6446.87073,0.03248
6448.79920,0.04075
6450.72766,0.10168
6452.65613,0.09727
6454.58460,0.03440
6456.51307,-0.00699
6458.44154,0.00127
6460.37001,0.04727
6462.29848,0.08734
6464.22695,0.07871
6466.15541,0.08652
6468.08388,0.18448
6470.01235,0.28036
6471.94082,0.25819
6473.86929,0.16272
6475.79776,0.06644
6477.72623,0.01436
6479.65469,0.00569
6481.58316,0.00195
6483.51163,0.00904
6485.44010,0.03000
6487.36857,0.03597
6489.29704,0.02950
6491.22551,0.04698
6493.15398,0.06239
6495.08244,0.03578
6497.01091,0.02705
6498.93938,0.05901
6500.86785,0.07881
6502.79632,0.07683
6504.72479,0.08102
6506.65326,0.07814
6508.58172,0.04516
6510.51019,0.01290
6512.43866,0.03710
6514.36713,0.08285
6516.29560,0.08303
6518.22407,0.05424
6520.15254,0.04513
6522.08101,0.07073
6524.00947,0.09535
6525.93794,0.05798
6527.86641,-0.01715
6529.79488,-0.04822
6531.72335,-0.01953
6533.65182,0.02027
6535.58029,0.02707
6537.50875,-0.00807
6539.43722,-0.03918
6541.36569,-0.03121
6543.29416,-0.01326
6545.22263,-0.00335
6547.15110,0.01117
6549.07957,0.02835
6551.00804,0.06343
6552.93650,0.11880
6554.86497,0.11239
6556.79344,0.07262
6558.72191,0.11194
6560.65038,0.18691
6562.57885,0.21406
6564.50732,0.20069
6566.43578,0.18750
6568.36425,0.17095
6570.29272,0.14281
6572.22119,0.14919
6574.14966,0.18703
6576.07813,0.18972
6578.00660,0.11372
6579.93507,0.02769
6581.86353,0.04741
6583.79200,0.11414
6585.72047,0.09490
6587.64894,0.04026
6589.57741,0.02337
6591.50588,0.01505
6593.43435,0.00562
6595.36281,0.02772
6597.29128,0.07771
6599.21975,0.13200
6601.14822,0.15548
6603.07669,0.10847
6605.00516,0.03188
6606.93363,-0.00024
6608.86210,0.00992
6610.79056,-0.00324
6612.71903,-0.03487
6614.64750,-0.01598
6616.57597,0.05061
6618.50444,0.09421
6620.43291,0.09148
6622.36138,0.08824
6624.28984,0.11847
6626.21831,0.13942
6628.14678,0.13453
6630.07525,0.14496
6632.00372,0.15423
6633.93219,0.15800
6635.86066,0.16927
6637.78912,0.14152
6639.71759,0.07742
6641.64606,0.01731
6643.57453,-0.02142
6645.50300,-0.05227
6647.43147,-0.07482
6649.35994,-0.05305
6651.28841,-0.02584
6653.21687,-0.02823
6655.14534,-0.02968
6657.07381,-0.00370
6659.00228,0.02561
6660.93075,0.01631
6662.85922,0.01226
6664.78769,0.02599
6666.71615,0.02146
6668.64462,0.01295
6670.57309,-0.00336
6672.50156,0.00665
6674.43003,0.09068
6676.35850,0.14760
6678.28697,0.12173
6680.21544,0.08497
6682.14390,0.07551
6684.07237,0.07240
6686.00084,0.05878
6687.92931,0.04394
6689.85778,0.03816
6691.78625,0.02779
6693.71472,0.01712
6695.64318,0.02899
6697.57165,0.03183
6699.50012,-0.00863
6701.42859,-0.00656
6703.35706,0.06142
6705.28553,0.11596
6707.21400,0.14411
6709.14247,0.11074
6711.07093,0.01340
6712.99940,-0.06348
6714.92787,-0.05787
6716.85634,-0.00678
6718.78481,-0.00988
6720.71328,-0.05419
6722.64175,-0.05771
6724.57021,-0.02944
6726.49868,-0.01821
6728.42715,-0.01711
6730.35562,0.00468
6732.28409,0.05120
6734.21256,0.08523
6736.14103,0.07338
6738.06950,0.07843
6739.99796,0.14731
6741.92643,0.18631
6743.85490,0.11251
6745.78337,0.02391
6747.71184,0.01875
6749.64031,0.07415
6751.56878,0.12614
6753.49724,0.11449
6755.42571,0.04036
6757.35418,-0.00687
6759.28265,0.01236
6761.21112,0.06499
6763.13959,0.07090
6765.06806,0.00344
6766.99653,-0.05256
6768.92499,-0.02492
6770.85346,0.03382
6772.78193,0.06799
6774.71040,0.08484
6776.63887,0.07961
6778.56734,0.06172
6780.49581,0.06860
6782.42427,0.11295
6784.35274,0.14302
6786.28121,0.09433
6788.20968,0.00560
6790.13815,-0.06391
6792.06662,-0.13385
6793.99509,-0.16599
6795.92355,-0.08402
6797.85202,0.03650
6799.78049,0.08849
6801.70896,0.04266
6803.63743,-0.03708
6805.56590,-0.05993
6807.49437,-0.04899
6809.42284,-0.01595
6811.35130,0.06088
6813.27977,0.12312
6815.20824,0.13525
6817.13671,0.12426
6819.06518,0.07996
6820.99365,0.00209
6822.92212,-0.03384
6824.85058,0.02143
6826.77905,0.10769
6828.70752,0.15093
6830.63599,0.08499
6832.56446,-0.01594
6834.49293,-0.06732
6836.42140,-0.10682
6838.34987,-0.12285
6840.27833,-0.05884
6842.20680,0.02623
6844.13527,0.06355
6846.06374,0.08336
6847.99221,0.11318
6849.92068,0.10708
6851.84915,0.04769
6853.77761,-0.01725
6855.70608,0.00077
6857.63455,0.08617
6859.56302,0.12079
6861.49149,0.10162
6863.41996,0.11999
6865.34843,0.15849
6867.27690,0.09272
6869.20536,-0.00832
6871.13383,-0.01461
6873.06230,0.03034
6874.99077,0.05779
6876.91924,0.07490
6878.84771,0.09127
6880.77618,0.07882
6882.70464,0.03688
6884.63311,0.02975
6886.56158,0.10312
6888.49005,0.20523
6890.41852,0.19845
6892.34699,0.05079
6894.27546,-0.05424
6896.20393,-0.05609
6898.13239,-0.05300
6900.06086,-0.04049
6901.98933,-0.02648
6903.91780,-0.05300
6905.84627,-0.07159
6907.77474,-0.05384
6909.70321,0.00287
6911.63167,0.09304
6913.56014,0.17083
6915.48861,0.19475
6917.41708,0.16510
6919.34555,0.11700
6921.27402,0.07192
6923.20249,0.05228
6925.13096,0.06698
6927.05942,0.06692
6928.98789,0.04701
6930.91636,0.05093
6932.84483,0.05412
6934.77330,0.04586
6936.70177,0.05866
6938.63024,0.08230
6940.55870,0.08392
6942.48717,0.04558
6944.41564,0.00181
6946.34411,-0.01803
6948.27258,0.01231
6950.20105,0.06252
6952.12952,0.04655
6954.05799,-0.00065
6955.98645,0.00883
6957.91492,0.04908
6959.84339,0.07498
6961.77186,0.09391
6963.70033,0.11478
6965.62880,0.15285
6967.55727,0.24641
6969.48573,0.30590
6971.41420,0.24820
6973.34267,0.18506
6975.27114,0.11713
6977.19961,0.01403
6979.12808,-0.08347
6981.05655,-0.17012
6982.98501,-0.14978
6984.91348,0.01555
6986.84195,0.15306
6988.77042,0.13885
6990.69889,0.07128
6992.62736,0.07748
6994.55583,0.11436
6996.48430,0.10189
6998.41276,0.07621
7000.34123,0.09160
7002.26970,0.05120
7004.19817,-0.02529
7006.12664,0.03761
7008.05511,0.17295
7009.98358,0.20491
7011.91204,0.18493
7013.84051,0.18855
7015.76898,0.23674
7017.69745,0.27512
7019.62592,0.22807
7021.55439,0.13096
7023.48286,0.05253
7025.41133,0.01079
7027.33979,0.01684
7029.26826,0.04848
7031.19673,0.07390
7033.12520,0.09446
7035.05367,0.04766
7036.98214,-0.03657
7038.91061,-0.08310
7040.83907,-0.12576
7042.76754,-0.18048
7044.69601,-0.21643
7046.62448,-0.16543
7048.55295,-0.02523
7050.48142,0.07668
7052.40989,0.08159
7054.33836,0.04641
7056.26682,0.00244
7058.19529,-0.08222
7060.12376,-0.09493
7062.05223,0.02361
7063.98070,0.12507
7065.90917,0.11988
7067.83764,0.10391
7069.76610,0.09468
7071.69457,0.04889
7073.62304,0.05060
7075.55151,0.09125
7077.47998,0.06751
7079.40845,-0.02232
7081.33692,-0.08438
7083.26539,-0.08359
7085.19385,-0.05742
7087.12232,0.02021
7089.05079,0.08211
7090.97926,0.05710
7092.90773,0.02609
7094.83620,0.06994
7096.76467,0.16791
7098.69313,0.19398
7100.62160,0.10064
7102.55007,0.00545
7104.47854,-0.02027
7106.40701,-0.02089
7108.33548,-0.01563
7110.26395,0.03795
7112.19242,0.04024
7114.12088,-0.06467
7116.04935,-0.13398
7117.97782,-0.08468
7119.90629,0.00516
7121.83476,0.07175
7123.76323,0.08454
7125.69170,0.07565
7127.62016,0.10769
7129.54863,0.13799
7131.47710,0.13209
7133.40557,0.07667
7135.33404,-0.02153
7137.26251,-0.07757
7139.19098,-0.11570
7141.11944,-0.18762
7143.04791,-0.17650
7144.97638,-0.04242
7146.90485,0.07023
7148.83332,0.08776
7150.76179,0.06436
7152.69026,0.00648
7154.61873,-0.05722
7156.54719,-0.06324
7158.47566,-0.03079
7160.40413,0.02877
7162.33260,0.12058
7164.26107,0.25216
7166.18954,0.35556
7168.11801,0.32551
7170.04647,0.20083
7171.97494,0.08704
7173.90341,0.02616
7175.83188,-0.01145
7177.76035,-0.00284
7179.68882,0.04182
7181.61729,0.01540
7183.54576,-0.07538
7185.47422,-0.07653
7187.40269,0.01088
7189.33116,0.08101
7191.25963,0.04622
7193.18810,-0.08726
7195.11657,-0.19033
7197.04504,-0.21018
7198.97350,-0.15947
7200.90197,-0.08057
7202.83044,-0.05465
7204.75891,-0.05927
7206.68738,0.02187
7208.61585,0.04971
7210.54432,-0.02592
7212.47279,-0.12812
7214.40125,-0.17856
7216.32972,-0.07301
7218.25819,0.06932
7220.18666,0.04730
7222.11513,0.02183
7224.04360,0.07623
7225.97207,0.09335
7227.90053,-0.04186
7229.82900,-0.11433
7231.75747,0.10156
7233.68594,0.27110
7235.61441,0.20742
7237.54288,0.14548
7239.47135,0.17824
7241.39982,0.14658
7243.32828,0.06479
7245.25675,0.10536
7247.18522,0.17106
7249.11369,0.15654
7251.04216,0.09970
7252.97063,0.06227
7254.89910,-0.00401
7256.82756,-0.09771
7258.75603,-0.14169
7260.68450,-0.11180
7262.61297,-0.04638
7264.54144,0.08424
7266.46991,0.19523
7268.39838,0.18330
7270.32685,0.15709
7272.25531,0.20607
7274.18378,0.25058
7276.11225,0.28925
7278.04072,0.36801
7279.96919,0.45338
7281.89766,0.35660
7283.82613,0.11724
7285.75459,0.04737
7287.68306,0.16471
7289.61153,0.21287
7291.54000,0.18153
7293.46847,0.25700
7295.39694,0.34056
7297.32541,0.26685
7299.25387,0.13699
7301.18234,0.09585
7303.11081,0.13481
7305.03928,0.11408
7306.96775,0.04528
7308.89622,0.13520
7310.82469,0.25078
7312.75316,0.18139
7314.68162,0.02651
7316.61009,-0.11660
7318.53856,-0.10309
7320.46703,0.09300
7322.39550,0.21760
7324.32397,0.09569
7326.25244,-0.04829
7328.18090,-0.08855
7330.10937,-0.07147
7332.03784,-0.02191
7333.96631,0.01795
7335.89478,0.04231
7337.82325,0.05862
7339.75172,0.04284
7341.68019,0.08752
7343.60865,0.17068
7345.53712,0.14104
7347.46559,0.08490
7349.39406,0.15088
7351.32253,0.23776
7353.25100,0.17484
7355.17947,-0.02398
7357.10793,-0.17628
7359.03640,-0.12231
7360.96487,0.01286
7362.89334,0.06723
7364.82181,0.08051
7366.75028,0.11135
7368.67875,0.13083
7370.60722,0.11395
7372.53568,0.11959
7374.46415,0.16970
7376.39262,0.19217
7378.32109,0.26205
7380.24956,0.37974
7382.17803,0.47888
7384.10650,0.54128
7386.03496,0.45344
7387.96343,0.21475
7389.89190,0.07398
7391.82037,0.07935
7393.74884,0.09158
7395.67731,0.04547
7397.60578,0.02826
7399.53425,0.03423
7401.46271,0.01374
7403.39118,0.07902
7405.31965,0.19757
7407.24812,0.15635
7409.17659,0.02450
7411.10506,-0.04411
7413.03353,-0.01104
7414.96199,0.03264
7416.89046,0.00402
7418.81893,-0.10177
7420.74740,-0.18404
7422.67587,-0.08531
7424.60434,0.08007
7426.53281,0.14567
7428.46128,0.14494
7430.38974,0.12781
7432.31821,0.09668
7434.24668,0.07788
7436.17515,0.01553
7438.10362,-0.04548
7440.03209,0.07837
7441.96056,0.30187
7443.88902,0.36561
7445.81749,0.24643
7447.74596,0.13085
7449.67443,0.06497
7451.60290,-0.06265
7453.53137,-0.15340
7455.45984,-0.06268
7457.38831,0.10074
7459.31677,0.16538
7461.24524,0.07285
7463.17371,-0.02536
7465.10218,-0.01729
7467.03065,0.10316
7468.95912,0.20729
7470.88759,0.23586
7472.81605,0.20235
7474.74452,0.15668
7476.67299,0.23802
7478.60146,0.47433
7480.52993,0.55977
7482.45840,0.37018
7484.38687,0.21964
7486.31533,0.21426
7488.24380,0.25206
7490.17227,0.27674
7492.10074,0.32652
7494.02921,0.38200
7495.95768,0.39775
7497.88615,0.38229
