399.19301,0.02447
401.12148,0.01026
403.04995,0.09489
404.97842,-0.00936
406.90689,-0.03104
408.83536,0.01653
410.76382,-0.00947
412.69229,-0.06356
414.62076,0.03600
416.54923,0.22879
418.47770,0.31522
420.40617,0.14932
422.33464,0.00260
424.26311,0.00676
426.19157,0.10077
428.12004,0.18834
430.04851,0.18931
431.97698,0.08639
433.90545,0.01483
435.83392,0.02438
437.76239,0.03779
439.69085,0.03318
441.61932,0.01717
443.54779,-0.03774
445.47626,-0.05485
447.40473,-0.01419
449.33320,0.02374
451.26167,0.07319
453.19013,0.12888
455.11860,0.13273
457.04707,0.06578
458.97554,0.02554
460.90401,0.03705
462.83248,0.02438
464.76095,0.02137
466.68942,0.05902
468.61788,0.09963
470.54635,0.13213
472.47482,0.13323
474.40329,0.09346
476.33176,0.10549
478.26023,0.15442
480.18870,0.18733
482.11716,0.18687
484.04563,0.14168
485.97410,0.07165
487.90257,0.01613
489.83104,-0.01665
491.75951,0.00954
493.68798,0.07967
495.61645,0.12411
497.54491,0.11790
499.47338,0.06465
501.40185,0.00223
503.33032,-0.01675
505.25879,0.02158
507.18726,0.06652
509.11573,0.06138
511.04419,0.05266
512.97266,0.06652
514.90113,0.04112
516.82960,-0.02318
518.75807,-0.03514
520.68654,0.00278
522.61501,0.03017
524.54348,0.05794
526.47194,0.09557
528.40041,0.09560
530.32888,0.06332
532.25735,0.03454
534.18582,0.00693
536.11429,-0.01190
538.04276,0.01182
539.97122,0.06519
541.89969,0.10089
543.82816,0.09557
545.75663,0.05723
547.68510,0.02691
549.61357,0.04611
551.54204,0.10139
553.47051,0.13936
555.39897,0.11891
557.32744,0.05732
559.25591,0.02706
561.18438,0.06757
563.11285,0.13089
565.04132,0.15602
566.96979,0.13840
568.89825,0.10311
570.82672,0.08142
572.75519,0.08229
574.68366,0.08403
576.61213,0.07286
578.54060,0.05817
580.46907,0.04780
582.39754,0.04876
584.32600,0.06230
586.25447,0.07681
588.18294,0.07705
590.11141,0.06596
592.03988,0.07257
593.96835,0.09503
595.89682,0.09718
597.82528,0.08798
599.75375,0.09159
601.68222,0.08852
603.61069,0.07351
605.53916,0.07535
607.46763,0.08917
609.39610,0.09547
611.32456,0.09338
613.25303,0.08481
615.18150,0.07464
617.10997,0.06548
619.03844,0.06046
620.96691,0.06808
622.89538,0.07353
624.82385,0.06827
626.75231,0.07310
628.68078,0.08971
630.60925,0.10561
632.53772,0.11276
634.46619,0.10094
636.39466,0.08980
638.32313,0.10010
640.25159,0.11286
642.18006,0.11111
644.10853,0.10311
646.03700,0.09196
647.96547,0.08010
649.89394,0.07576
651.82241,0.07710
653.75088,0.08546
655.67934,0.10247
657.60781,0.11358
659.53628,0.10749
661.46475,0.09115
663.39322,0.07952
665.32169,0.07634
667.25016,0.08336
669.17862,0.10273
671.10709,0.10787
673.03556,0.09797
674.96403,0.08780
676.89250,0.09120
678.82097,0.09873
680.74944,0.09378
682.67791,0.08793
684.60637,0.09467
686.53484,0.10500
688.46331,0.10537
690.39178,0.10188
692.32025,0.10205
694.24872,0.09834
696.17719,0.08703
698.10565,0.07516
700.03412,0.07502
701.96259,0.08724
703.89106,0.10008
705.81953,0.10930
707.74800,0.11411
709.67647,0.11140
711.60494,0.10303
713.53340,0.09901
715.46187,0.10349
717.39034,0.10526
719.31881,0.10168
721.24728,0.10484
723.17575,0.11270
725.10422,0.11109
727.03268,0.10274
728.96115,0.08991
730.88962,0.07397
732.81809,0.07103
734.74656,0.08315
736.67503,0.10009
738.60350,0.11333
740.53197,0.11574
742.46043,0.11115
744.38890,0.10862
746.31737,0.10667
748.24584,0.09547
750.17431,0.08213
752.10278,0.08168
754.03125,0.08981
755.95971,0.09264
757.88818,0.09265
759.81665,0.09769
761.74512,0.10198
763.67359,0.10156
765.60206,0.10209
767.53053,0.10676
769.45900,0.10410
771.38746,0.09259
773.31593,0.09461
775.24440,0.11361
777.17287,0.12755
779.10134,0.12908
781.02981,0.12756
782.95828,0.12225
784.88674,0.11258
786.81521,0.10411
788.74368,0.09772
790.67215,0.09788
792.60062,0.10371
794.52909,0.10896
796.45756,0.11146
798.38602,0.10714
800.31449,0.10605
802.24296,0.11927
804.17143,0.13194
806.09990,0.12943
808.02837,0.11175
809.95684,0.09127
811.88531,0.08207
813.81377,0.08502
815.74224,0.09471
817.67071,0.10276
819.59918,0.10203
821.52765,0.09799
823.45612,0.09919
825.38459,0.10486
827.31305,0.10271
829.24152,0.09067
831.16999,0.08942
833.09846,0.10330
835.02693,0.11612
836.95540,0.12084
838.88387,0.11973
840.81234,0.11806
842.74080,0.11623
844.66927,0.11346
846.59774,0.11050
848.52621,0.10685
850.45468,0.10837
852.38315,0.11800
854.31162,0.12421
856.24008,0.11848
858.16855,0.10919
860.09702,0.10351
862.02549,0.10372
863.95396,0.11109
865.88243,0.11118
867.81090,0.09685
869.73937,0.08809
871.66783,0.09534
873.59630,0.10236
875.52477,0.09762
877.45324,0.09308
879.38171,0.09695
881.31018,0.10358
883.23865,0.11166
885.16711,0.11373
887.09558,0.10792
889.02405,0.10453
890.95252,0.09872
892.88099,0.08956
894.80946,0.08700
896.73793,0.09068
898.66640,0.09943
900.59486,0.11338
902.52333,0.12312
904.45180,0.12493
906.38027,0.12596
908.30874,0.12581
910.23721,0.12328
912.16568,0.12727
914.09414,0.13619
916.02261,0.13706
917.95108,0.13355
919.87955,0.13085
921.80802,0.12409
923.73649,0.11727
925.66496,0.11458
927.59343,0.11793
929.52189,0.12531
931.45036,0.12744
933.37883,0.12351
935.30730,0.12018
937.23577,0.12088
939.16424,0.12194
941.09271,0.12046
943.02117,0.12017
944.94964,0.11835
946.87811,0.11053
948.80658,0.10782
950.73505,0.11483
952.66352,0.12085
954.59199,0.12423
956.52045,0.12507
958.44892,0.11994
960.37739,0.11775
962.30586,0.12401
964.23433,0.12674
966.16280,0.11873
968.09127,0.10989
970.01974,0.10653
971.94820,0.10731
973.87667,0.11426
975.80514,0.12246
977.73361,0.12514
979.66208,0.12827
981.59055,0.13312
983.51902,0.13304
985.44748,0.13055
987.37595,0.13185
989.30442,0.13263
991.23289,0.12723
993.16136,0.12394
995.08983,0.12575
997.01830,0.12500
998.94677,0.12221
1000.87523,0.12429
1002.80370,0.13162
1004.73217,0.13293
1006.66064,0.12497
1008.58911,0.11883
1010.51758,0.11872
1012.44605,0.12069
1014.37451,0.12406
1016.30298,0.12867
1018.23145,0.13202
1020.15992,0.13029
1022.08839,0.12293
1024.01686,0.11604
1025.94533,0.10988
1027.87380,0.10149
1029.80226,0.09767
1031.73073,0.10324
1033.65920,0.11179
1035.58767,0.12065
1037.51614,0.12895
1039.44461,0.13111
1041.37308,0.13036
1043.30154,0.12907
1045.23001,0.12745
1047.15848,0.12892
1049.08695,0.13327
1051.01542,0.13786
1052.94389,0.13650
1054.87236,0.13224
1056.80083,0.13305
1058.72929,0.13663
1060.65776,0.13760
1062.58623,0.13618
1064.51470,0.13634
1066.44317,0.13819
1068.37164,0.14217
1070.30011,0.14863
1072.22857,0.15212
1074.15704,0.14822
1076.08551,0.14306
1078.01398,0.14182
1079.94245,0.13855
1081.87092,0.13385
1083.79939,0.13281
1085.72786,0.13343
1087.65632,0.13243
1089.58479,0.12887
1091.51326,0.12274
1093.44173,0.11653
1095.37020,0.11792
1097.29867,0.12860
1099.22714,0.14037
1101.15560,0.14731
1103.08407,0.14883
1105.01254,0.14758
1106.94101,0.14453
1108.86948,0.14305
1110.79795,0.14652
1112.72642,0.14885
1114.65489,0.14924
1116.58335,0.15072
1118.51182,0.14833
1120.44029,0.14200
1122.36876,0.13661
1124.29723,0.13257
1126.22570,0.13046
1128.15417,0.13342
1130.08263,0.13974
1132.01110,0.14352
1133.93957,0.14202
1135.86804,0.13890
1137.79651,0.14026
1139.72498,0.14260
1141.65345,0.13989
1143.58191,0.13587
1145.51038,0.13450
1147.43885,0.13636
1149.36732,0.14043
1151.29579,0.14279
1153.22426,0.14348
1155.15273,0.14475
1157.08120,0.14498
1159.00966,0.14266
1160.93813,0.13792
1162.86660,0.13516
1164.79507,0.13721
1166.72354,0.13713
1168.65201,0.13522
1170.58048,0.13738
1172.50894,0.14050
1174.43741,0.14303
1176.36588,0.14492
1178.29435,0.14522
1180.22282,0.14587
1182.15129,0.14696
1184.07976,0.14739
1186.00823,0.14747
1187.93669,0.14717
1189.86516,0.14455
1191.79363,0.14052
1193.72210,0.14020
1195.65057,0.14394
1197.57904,0.14713
1199.50751,0.14697
1201.43597,0.14529
1203.36444,0.14642
1205.29291,0.14976
1207.22138,0.14994
1209.14985,0.14604
1211.07832,0.14176
1213.00679,0.14021
1214.93526,0.14283
1216.86372,0.14647
1218.79219,0.14679
1220.72066,0.14577
1222.64913,0.14711
1224.57760,0.14890
1226.50607,0.14810
1228.43454,0.14715
1230.36300,0.14826
1232.29147,0.14864
1234.21994,0.14663
1236.14841,0.14476
1238.07688,0.14532
1240.00535,0.14725
1241.93382,0.15043
1243.86229,0.15465
1245.79075,0.15475
1247.71922,0.14846
1249.64769,0.14140
1251.57616,0.13906
1253.50463,0.13992
1255.43310,0.14168
1257.36157,0.14489
1259.29003,0.14666
1261.21850,0.14483
1263.14697,0.14256
1265.07544,0.14268
1267.00391,0.14396
1268.93238,0.14413
1270.86085,0.14613
1272.78932,0.15181
1274.71778,0.15568
1276.64625,0.15521
1278.57472,0.15451
1280.50319,0.15466
1282.43166,0.15496
1284.36013,0.15671
1286.28860,0.15672
1288.21706,0.15335
1290.14553,0.15194
1292.07400,0.15461
1294.00247,0.15743
1295.93094,0.15646
1297.85941,0.15386
1299.78788,0.15278
1301.71634,0.14983
1303.64481,0.14356
1305.57328,0.14114
1307.50175,0.14701
1309.43022,0.15428
1311.35869,0.15628
1313.28716,0.15484
1315.21563,0.15404
1317.14409,0.15558
1319.07256,0.15879
1321.00103,0.16209
1322.92950,0.16266
1324.85797,0.15816
1326.78644,0.15259
1328.71491,0.15150
1330.64337,0.15205
1332.57184,0.15218
1334.50031,0.15415
1336.42878,0.15695
1338.35725,0.16063
1340.28572,0.16252
1342.21419,0.15721
1344.14266,0.14883
1346.07112,0.14686
1347.99959,0.15344
1349.92806,0.15838
1351.85653,0.15819
1353.78500,0.15851
1355.71347,0.15901
1357.64194,0.15938
1359.57040,0.16193
1361.49887,0.16589
1363.42734,0.16800
1365.35581,0.16692
1367.28428,0.16400
1369.21275,0.16054
1371.14122,0.16009
1373.06969,0.16445
1374.99815,0.16809
1376.92662,0.16688
1378.85509,0.16596
1380.78356,0.16609
1382.71203,0.16463
1384.64050,0.16476
1386.56897,0.16945
1388.49743,0.17348
1390.42590,0.17435
1392.35437,0.17696
1394.28284,0.17961
1396.21131,0.17804
1398.13978,0.17584
1400.06825,0.17290
1401.99672,0.16660
1403.92518,0.16002
1405.85365,0.15850
1407.78212,0.16063
1409.71059,0.16064
1411.63906,0.15970
1413.56753,0.16248
1415.49600,0.16896
1417.42446,0.17489
1419.35293,0.17551
1421.28140,0.17445
1423.20987,0.17466
1425.13834,0.17161
1427.06681,0.16828
1428.99528,0.16925
1430.92375,0.17089
1432.85221,0.17219
1434.78068,0.17781
1436.70915,0.18384
1438.63762,0.17916
1440.56609,0.17161
1442.49456,0.16836
1444.42303,0.16817
1446.35149,0.16997
1448.27996,0.17402
1450.20843,0.17954
1452.13690,0.18481
1454.06537,0.19144
1455.99384,0.20351
1457.92231,0.20736
1459.85077,0.19417
1461.77924,0.18569
1463.70771,0.18437
1465.63618,0.18293
1467.56465,0.17841
1469.49312,0.17874
1471.42159,0.18809
1473.35006,0.19941
1475.27852,0.20015
1477.20699,0.19182
1479.13546,0.18286
1481.06393,0.17985
1482.99240,0.18075
1484.92087,0.18310
1486.84934,0.18811
1488.77780,0.19164
1490.70627,0.18675
1492.63474,0.18083
1494.56321,0.18234
1496.49168,0.19254
1498.42015,0.19847
1500.34862,0.18969
1502.27709,0.17903
1504.20555,0.17866
1506.13402,0.19854
1508.06249,0.21723
1509.99096,0.20690
1511.91943,0.19575
1513.84790,0.19434
1515.77637,0.20080
1517.70483,0.20560
1519.63330,0.20843
1521.56177,0.21110
1523.49024,0.20485
1525.41871,0.19584
1527.34718,0.18838
1529.27565,0.18438
1531.20412,0.18778
1533.13258,0.19481
1535.06105,0.19474
1536.98952,0.19360
1538.91799,0.20361
1540.84646,0.22113
1542.77493,0.21886
1544.70340,0.20445
1546.63186,0.19193
1548.56033,0.18804
1550.48880,0.18951
1552.41727,0.19162
1554.34574,0.19699
1556.27421,0.20682
1558.20268,0.21558
1560.13115,0.20398
1562.05961,0.19360
1563.98808,0.19142
1565.91655,0.18855
1567.84502,0.18685
1569.77349,0.18813
1571.70196,0.18583
1573.63043,0.18489
1575.55889,0.18941
1577.48736,0.18889
1579.41583,0.18143
1581.34430,0.17637
1583.27277,0.17534
1585.20124,0.17639
1587.12971,0.17737
1589.05818,0.17813
1590.98664,0.17844
1592.91511,0.17792
1594.84358,0.17817
1596.77205,0.17887
1598.70052,0.17967
1600.62899,0.18145
1602.55746,0.18247
1604.48592,0.18192
1606.41439,0.18201
1608.34286,0.18335
1610.27133,0.18420
1612.19980,0.18417
1614.12827,0.18587
1616.05674,0.19187
1617.98521,0.19533
1619.91367,0.19390
1621.84214,0.19594
1623.77061,0.20003
1625.69908,0.19823
1627.62755,0.19068
1629.55602,0.18315
1631.48449,0.18200
1633.41295,0.18955
1635.34142,0.20421
1637.26989,0.20668
1639.19836,0.19678
1641.12683,0.19008
1643.05530,0.19059
1644.98377,0.20003
1646.91223,0.21335
1648.84070,0.21460
1650.76917,0.21448
1652.69764,0.22052
1654.62611,0.21169
1656.55458,0.19648
1658.48305,0.18857
1660.41152,0.19077
1662.33998,0.20018
1664.26845,0.20288
1666.19692,0.20079
1668.12539,0.20087
1670.05386,0.19875
1671.98233,0.19614
1673.91080,0.19609
1675.83926,0.19329
1677.76773,0.19069
1679.69620,0.19392
1681.62467,0.20320
1683.55314,0.21613
1685.48161,0.21273
1687.41008,0.19850
1689.33855,0.19175
1691.26701,0.19097
1693.19548,0.19438
1695.12395,0.20374
1697.05242,0.21364
1698.98089,0.21946
1700.90936,0.21817
1702.83783,0.21027
1704.76629,0.20357
1706.69476,0.19572
1708.62323,0.18842
1710.55170,0.18714
1712.48017,0.19256
1714.40864,0.20212
1716.33711,0.20933
1718.26558,0.20322
1720.19404,0.19358
1722.12251,0.18915
1724.05098,0.18641
1725.97945,0.18588
1727.90792,0.18948
1729.83639,0.19433
1731.76486,0.19825
1733.69332,0.19914
1735.62179,0.19515
1737.55026,0.19423
1739.47873,0.19519
1741.40720,0.19383
1743.33567,0.19367
1745.26414,0.19666
1747.19261,0.20101
1749.12107,0.20472
1751.04954,0.20095
1752.97801,0.19236
1754.90648,0.18873
1756.83495,0.18875
1758.76342,0.18857
1760.69189,0.18945
1762.62035,0.18981
1764.54882,0.18738
1766.47729,0.18593
1768.40576,0.18846
1770.33423,0.19489
1772.26270,0.19966
1774.19117,0.19578
1776.11964,0.18904
1778.04810,0.18484
1779.97657,0.18412
1781.90504,0.18558
1783.83351,0.18772
1785.76198,0.18905
1787.69045,0.18933
1789.61892,0.19101
1791.54738,0.19355
1793.47585,0.19381
1795.40432,0.19255
1797.33279,0.19135
1799.26126,0.19045
1801.18973,0.19030
1803.11820,0.18913
1805.04666,0.18691
1806.97513,0.18638
1808.90360,0.18754
1810.83207,0.18765
1812.76054,0.18520
1814.68901,0.18194
1816.61748,0.18293
1818.54595,0.20265
1820.47441,0.22761
1822.40288,0.21987
1824.33135,0.19492
1826.25982,0.18918
1828.18829,0.19144
1830.11676,0.19023
1832.04523,0.18855
1833.97369,0.18819
1835.90216,0.18942
1837.83063,0.18921
1839.75910,0.18825
1841.68757,0.19048
1843.61604,0.19620
1845.54451,0.19918
1847.47298,0.19709
1849.40144,0.19312
1851.32991,0.19064
1853.25838,0.18982
1855.18685,0.18707
1857.11532,0.18407
1859.04379,0.18409
1860.97226,0.18643
1862.90072,0.18906
1864.82919,0.19207
1866.75766,0.19721
1868.68613,0.19934
1870.61460,0.19314
1872.54307,0.18673
1874.47154,0.18446
1876.40001,0.18540
1878.32847,0.18703
1880.25694,0.18576
1882.18541,0.18296
1884.11388,0.18328
1886.04235,0.18763
1887.97082,0.19225
1889.89929,0.19169
1891.82775,0.18823
1893.75622,0.18827
1895.68469,0.18911
1897.61316,0.18742
1899.54163,0.18529
1901.47010,0.18317
1903.39857,0.18079
1905.32704,0.17945
1907.25550,0.18149
1909.18397,0.18482
1911.11244,0.18480
1913.04091,0.18456
1914.96938,0.18678
1916.89785,0.18818
1918.82632,0.18700
1920.75478,0.18513
1922.68325,0.18423
1924.61172,0.18478
1926.54019,0.18558
1928.46866,0.18571
1930.39713,0.18639
1932.32560,0.18784
1934.25407,0.18849
1936.18253,0.18746
1938.11100,0.18509
1940.03947,0.18418
1941.96794,0.18658
1943.89641,0.18844
1945.82488,0.18815
1947.75335,0.18817
1949.68181,0.18891
1951.61028,0.19052
1953.53875,0.19242
1955.46722,0.19277
1957.39569,0.19012
1959.32416,0.18699
1961.25263,0.18806
1963.18110,0.19104
1965.10956,0.19153
1967.03803,0.19100
1968.96650,0.19057
1970.89497,0.18905
1972.82344,0.18702
1974.75191,0.18527
1976.68038,0.18345
1978.60884,0.18187
1980.53731,0.18143
1982.46578,0.18172
1984.39425,0.18274
1986.32272,0.18566
1988.25119,0.18857
1990.17966,0.18948
1992.10812,0.18998
1994.03659,0.18984
1995.96506,0.18809
1997.89353,0.18669
1999.82200,0.18572
2001.75047,0.18434
2003.67894,0.18455
2005.60741,0.18617
2007.53587,0.18739
2009.46434,0.18864
2011.39281,0.18916
2013.32128,0.18775
2015.24975,0.18721
2017.17822,0.18901
2019.10669,0.18954
2021.03515,0.18896
2022.96362,0.19046
2024.89209,0.19212
2026.82056,0.19101
2028.74903,0.18986
2030.67750,0.19113
2032.60597,0.19180
2034.53444,0.18985
2036.46290,0.18842
2038.39137,0.18970
2040.31984,0.19059
2042.24831,0.18901
2044.17678,0.18712
2046.10525,0.18647
2048.03372,0.18725
2049.96218,0.18904
2051.89065,0.19049
2053.81912,0.19160
2055.74759,0.19314
2057.67606,0.19339
2059.60453,0.19069
2061.53300,0.18798
2063.46147,0.18898
2065.38993,0.19116
2067.31840,0.18995
2069.24687,0.18719
2071.17534,0.18650
2073.10381,0.18734
2075.03228,0.18753
2076.96075,0.18668
2078.88921,0.18647
2080.81768,0.18810
2082.74615,0.19021
2084.67462,0.19102
2086.60309,0.19035
2088.53156,0.18894
2090.46003,0.18793
2092.38850,0.18881
2094.31696,0.19115
2096.24543,0.19308
2098.17390,0.19395
2100.10237,0.19212
2102.03084,0.18822
2103.95931,0.18674
2105.88778,0.18776
2107.81624,0.18825
2109.74471,0.18792
2111.67318,0.18828
2113.60165,0.18911
2115.53012,0.18930
2117.45859,0.19013
2119.38706,0.19140
2121.31553,0.19036
2123.24399,0.18750
2125.17246,0.18606
2127.10093,0.18687
2129.02940,0.18794
2130.95787,0.18870
2132.88634,0.19005
2134.81481,0.19163
2136.74327,0.19330
2138.67174,0.19512
2140.60021,0.19574
2142.52868,0.19457
2144.45715,0.19173
2146.38562,0.18870
2148.31409,0.18786
2150.24255,0.18812
2152.17102,0.18846
2154.09949,0.18985
2156.02796,0.19223
2157.95643,0.19478
2159.88490,0.19587
2161.81337,0.19531
2163.74184,0.19448
2165.67030,0.19403
2167.59877,0.19426
2169.52724,0.19517
2171.45571,0.19630
2173.38418,0.19618
2175.31265,0.19419
2177.24112,0.19235
2179.16958,0.19200
2181.09805,0.19228
2183.02652,0.19228
2184.95499,0.19169
2186.88346,0.19223
2188.81193,0.19433
2190.74040,0.19487
2192.66887,0.19391
2194.59733,0.19349
2196.52580,0.19310
2198.45427,0.19317
2200.38274,0.19443
2202.31121,0.19456
2204.23968,0.19280
2206.16815,0.19164
2208.09661,0.19132
2210.02508,0.19108
2211.95355,0.19079
2213.88202,0.19059
2215.81049,0.19118
2217.73896,0.19134
2219.66743,0.19060
2221.59590,0.19069
2223.52436,0.19138
2225.45283,0.19107
2227.38130,0.19051
2229.30977,0.19039
2231.23824,0.18968
2233.16671,0.18868
2235.09518,0.18815
2237.02364,0.18913
2238.95211,0.19088
2240.88058,0.19188
2242.80905,0.19322
2244.73752,0.19379
2246.66599,0.19250
2248.59446,0.19082
2250.52293,0.18986
2252.45139,0.19072
2254.37986,0.19297
2256.30833,0.19505
2258.23680,0.19595
2260.16527,0.19496
2262.09374,0.19372
2264.02221,0.19447
2265.95067,0.19499
2267.87914,0.19346
2269.80761,0.19228
2271.73608,0.19286
2273.66455,0.19427
2275.59302,0.19489
2277.52149,0.19437
2279.44996,0.19399
2281.37842,0.19470
2283.30689,0.19606
2285.23536,0.19715
2287.16383,0.19760
2289.09230,0.19695
2291.02077,0.19348
2292.94924,0.18388
2294.87770,0.17231
2296.80617,0.17304
2298.73464,0.18743
2300.66311,0.19857
2302.59158,0.20157
2304.52005,0.20532
2306.44852,0.20870
2308.37699,0.20786
2310.30545,0.20760
2312.23392,0.20852
2314.16239,0.20665
2316.09086,0.20712
2318.01933,0.21462
2319.94780,0.22442
2321.87627,0.23193
2323.80473,0.23456
2325.73320,0.23369
2327.66167,0.23305
2329.59014,0.23551
2331.51861,0.24123
2333.44708,0.24375
2335.37555,0.24157
2337.30401,0.23861
2339.23248,0.23911
2341.16095,0.24253
2343.08942,0.24589
2345.01789,0.24453
2346.94636,0.23530
2348.87483,0.22677
2350.80330,0.22424
2352.73176,0.23092
2354.66023,0.24753
2356.58870,0.26205
2358.51717,0.26484
2360.44564,0.26347
2362.37411,0.27126
2364.30258,0.28078
2366.23104,0.27421
2368.15951,0.25574
2370.08798,0.23700
2372.01645,0.21971
2373.94492,0.20736
2375.87339,0.20207
2377.80186,0.19999
2379.73033,0.19932
2381.65879,0.19859
2383.58726,0.19759
2385.51573,0.19756
2387.44420,0.19721
2389.37267,0.19600
2391.30114,0.19526
2393.22961,0.19536
2395.15807,0.19628
2397.08654,0.19777
2399.01501,0.19717
2400.94348,0.19452
2402.87195,0.19459
2404.80042,0.19664
2406.72889,0.19619
2408.65736,0.19353
2410.58582,0.19281
2412.51429,0.19410
2414.44276,0.19342
2416.37123,0.19278
2418.29970,0.19402
2420.22817,0.19412
2422.15664,0.19383
2424.08510,0.19557
2426.01357,0.19819
2427.94204,0.19783
2429.87051,0.19377
2431.79898,0.19144
2433.72745,0.19329
2435.65592,0.19599
2437.58439,0.19754
2439.51285,0.19681
2441.44132,0.19429
2443.36979,0.19171
2445.29826,0.18976
2447.22673,0.19033
2449.15520,0.19190
2451.08367,0.19132
2453.01213,0.19081
2454.94060,0.19292
2456.86907,0.19657
2458.79754,0.19785
2460.72601,0.19476
2462.65448,0.19072
2464.58295,0.18940
2466.51142,0.19047
2468.43988,0.19143
2470.36835,0.19159
2472.29682,0.19208
2474.22529,0.19266
2476.15376,0.19262
2478.08223,0.19343
2480.01070,0.19584
2481.93916,0.19698
2483.86763,0.19649
2485.79610,0.19665
2487.72457,0.19684
2489.65304,0.19668
2491.58151,0.19668
2493.50998,0.19627
2495.43844,0.19548
2497.36691,0.19489
2499.29538,0.19536
2501.22385,0.19661
2503.15232,0.19687
2505.08079,0.19604
2507.00926,0.19562
2508.93773,0.19566
2510.86619,0.19608
2512.79466,0.19797
2514.72313,0.20019
2516.65160,0.20033
2518.58007,0.19929
2520.50854,0.19827
2522.43701,0.19685
2524.36547,0.19623
2526.29394,0.19804
2528.22241,0.20128
2530.15088,0.20216
2532.07935,0.19899
2534.00782,0.19561
2535.93629,0.19433
2537.86476,0.19428
2539.79322,0.19467
2541.72169,0.19393
2543.65016,0.19344
2545.57863,0.19510
2547.50710,0.19655
2549.43557,0.19715
2551.36404,0.19844
2553.29250,0.20032
2555.22097,0.20221
2557.14944,0.20279
2559.07791,0.20109
2561.00638,0.19774
2562.93485,0.19408
2564.86332,0.19218
2566.79179,0.19358
2568.72025,0.19697
2570.64872,0.19872
2572.57719,0.19827
2574.50566,0.19807
2576.43413,0.19772
2578.36260,0.19686
2580.29107,0.19776
2582.21953,0.20045
2584.14800,0.20214
2586.07647,0.20142
2588.00494,0.19998
2589.93341,0.19868
2591.86188,0.19734
2593.79035,0.19758
2595.71882,0.19915
2597.64728,0.19926
2599.57575,0.19777
2601.50422,0.19745
2603.43269,0.19942
2605.36116,0.20177
2607.28963,0.20282
2609.21810,0.20106
2611.14656,0.19725
2613.07503,0.19709
2615.00350,0.20147
2616.93197,0.20421
2618.86044,0.20392
2620.78891,0.20328
2622.71738,0.20172
2624.64585,0.19929
2626.57431,0.19868
2628.50278,0.20042
2630.43125,0.20197
2632.35972,0.20198
2634.28819,0.20167
2636.21666,0.20099
2638.14513,0.19997
2640.07359,0.20012
2642.00206,0.20083
2643.93053,0.20082
2645.85900,0.20042
2647.78747,0.20002
2649.71594,0.20056
2651.64441,0.20310
2653.57288,0.20552
2655.50134,0.20709
2657.42981,0.20875
2659.35828,0.20744
2661.28675,0.20315
2663.21522,0.19992
2665.14369,0.19881
2667.07216,0.19964
2669.00062,0.20060
2670.92909,0.19943
2672.85756,0.19902
2674.78603,0.20178
2676.71450,0.20389
2678.64297,0.20257
2680.57144,0.20089
2682.49990,0.20137
2684.42837,0.20210
2686.35684,0.20210
2688.28531,0.20199
2690.21378,0.20137
2692.14225,0.20132
2694.07072,0.20268
2695.99919,0.20419
2697.92765,0.20493
2699.85612,0.20475
2701.78459,0.20470
2703.71306,0.20710
2705.64153,0.21015
2707.57000,0.20920
2709.49847,0.20616
2711.42693,0.20558
2713.35540,0.20623
2715.28387,0.20634
2717.21234,0.20632
2719.14081,0.20503
2721.06928,0.20271
2722.99775,0.20246
2724.92622,0.20540
2726.85468,0.20943
2728.78315,0.21124
2730.71162,0.21020
2732.64009,0.21051
2734.56856,0.21357
2736.49703,0.21362
2738.42550,0.20904
2740.35396,0.20575
2742.28243,0.20692
2744.21090,0.20922
2746.13937,0.20833
2748.06784,0.20598
2749.99631,0.20583
2751.92478,0.20697
2753.85325,0.20736
2755.78171,0.20721
2757.71018,0.20636
2759.63865,0.20390
2761.56712,0.20238
2763.49559,0.20433
2765.42406,0.20700
2767.35253,0.20590
2769.28099,0.20117
2771.20946,0.19838
2773.13793,0.20209
2775.06640,0.20911
2776.99487,0.21180
2778.92334,0.21001
2780.85181,0.20855
2782.78028,0.20840
2784.70874,0.20952
2786.63721,0.21122
2788.56568,0.21298
2790.49415,0.21522
2792.42262,0.21507
2794.35109,0.21173
2796.27956,0.20993
2798.20802,0.21052
2800.13649,0.21059
2802.06496,0.21116
2803.99343,0.21288
2805.92190,0.21355
2807.85037,0.21303
2809.77884,0.21334
2811.70731,0.21520
2813.63577,0.21606
2815.56424,0.21384
2817.49271,0.21208
2819.42118,0.21310
2821.34965,0.21321
2823.27812,0.21121
2825.20659,0.20998
2827.13505,0.20945
2829.06352,0.20838
2830.99199,0.20930
2832.92046,0.21307
2834.84893,0.21484
2836.77740,0.21324
2838.70587,0.21306
2840.63433,0.21527
2842.56280,0.21655
2844.49127,0.21626
2846.41974,0.21554
2848.34821,0.21431
2850.27668,0.21145
2852.20515,0.20772
2854.13362,0.20591
2856.06208,0.20754
2857.99055,0.21095
2859.91902,0.21379
2861.84749,0.21690
2863.77596,0.21952
2865.70443,0.21800
2867.63290,0.21358
2869.56136,0.21148
2871.48983,0.21284
2873.41830,0.21342
2875.34677,0.21164
2877.27524,0.21059
2879.20371,0.21171
2881.13218,0.21415
2883.06065,0.21735
2884.98911,0.21930
2886.91758,0.21837
2888.84605,0.21739
2890.77452,0.21858
2892.70299,0.21821
2894.63146,0.21384
2896.55993,0.21017
2898.48839,0.20898
2900.41686,0.20850
2902.34533,0.21014
2904.27380,0.21201
2906.20227,0.21198
2908.13074,0.21179
2910.05921,0.21067
2911.98768,0.20832
2913.91614,0.20695
2915.84461,0.20727
2917.77308,0.20779
2919.70155,0.20599
2921.63002,0.20291
2923.55849,0.20229
2925.48696,0.20459
2927.41542,0.20915
2929.34389,0.21235
2931.27236,0.20974
2933.20083,0.20613
2935.12930,0.20586
2937.05777,0.20745
2938.98624,0.21134
2940.91471,0.21490
2942.84317,0.21422
2944.77164,0.21027
2946.70011,0.20609
2948.62858,0.20474
2950.55705,0.20449
2952.48552,0.20284
2954.41399,0.20301
2956.34245,0.20429
2958.27092,0.20435
2960.19939,0.20805
2962.12786,0.21610
2964.05633,0.22123
2965.98480,0.22094
2967.91327,0.21984
2969.84174,0.22052
2971.77020,0.22076
2973.69867,0.21908
2975.62714,0.21509
2977.55561,0.21019
2979.48408,0.20946
2981.41255,0.21372
2983.34102,0.21970
2985.26948,0.22319
2987.19795,0.22061
2989.12642,0.21819
2991.05489,0.22154
2992.98336,0.22461
2994.91183,0.22423
2996.84030,0.22360
2998.76877,0.22295
3000.69723,0.22091
3002.62570,0.21802
3004.55417,0.21523
3006.48264,0.21346
3008.41111,0.21440
3010.33958,0.21554
3012.26805,0.20936
3014.19651,0.19281
3016.12498,0.17649
3018.05345,0.17875
3019.98192,0.19729
3021.91039,0.21021
3023.83886,0.21252
3025.76733,0.21388
3027.69579,0.21671
3029.62426,0.21966
3031.55273,0.22458
3033.48120,0.22996
3035.40967,0.22927
3037.33814,0.22286
3039.26661,0.21735
3041.19508,0.21541
3043.12354,0.21604
3045.05201,0.21556
3046.98048,0.21248
3048.90895,0.21187
3050.83742,0.21542
3052.76589,0.21929
3054.69436,0.21872
3056.62282,0.21275
3058.55129,0.21109
3060.47976,0.21756
3062.40823,0.22282
3064.33670,0.22102
3066.26517,0.21455
3068.19364,0.21129
3070.12211,0.21394
3072.05057,0.21622
3073.97904,0.21338
3075.90751,0.20814
3077.83598,0.20882
3079.76445,0.21618
3081.69292,0.22071
3083.62139,0.21706
3085.54985,0.21350
3087.47832,0.21912
3089.40679,0.22571
3091.33526,0.22457
3093.26373,0.21961
3095.19220,0.21646
3097.12067,0.21874
3099.04914,0.22300
3100.97760,0.22315
3102.90607,0.22063
3104.83454,0.21867
3106.76301,0.21702
3108.69148,0.21708
3110.61995,0.21836
3112.54842,0.21750
3114.47688,0.21674
3116.40535,0.21738
3118.33382,0.21691
3120.26229,0.21597
3122.19076,0.21678
3124.11923,0.21916
3126.04770,0.22044
3127.97617,0.22158
3129.90463,0.22450
3131.83310,0.22510
3133.76157,0.22211
3135.69004,0.22161
3137.61851,0.22547
3139.54698,0.23103
3141.47545,0.23439
3143.40391,0.23035
3145.33238,0.22114
3147.26085,0.21424
3149.18932,0.21292
3151.11779,0.21442
3153.04626,0.21676
3154.97473,0.22073
3156.90320,0.22387
3158.83166,0.22469
3160.76013,0.22563
3162.68860,0.22852
3164.61707,0.23064
3166.54554,0.22887
3168.47401,0.22666
3170.40248,0.22668
3172.33094,0.22655
3174.25941,0.22571
3176.18788,0.22636
3178.11635,0.22682
3180.04482,0.22504
3181.97329,0.22444
3183.90176,0.22680
3185.83022,0.23011
3187.75869,0.22922
3189.68716,0.22270
3191.61563,0.21830
3193.54410,0.21942
3195.47257,0.22228
3197.40104,0.22509
3199.32951,0.22692
3201.25797,0.22528
3203.18644,0.22063
3205.11491,0.21767
3207.04338,0.21752
3208.97185,0.21681
3210.90032,0.21541
3212.82879,0.21661
3214.75725,0.21964
3216.68572,0.22190
3218.61419,0.22320
3220.54266,0.22271
3222.47113,0.22331
3224.39960,0.22504
3226.32807,0.22377
3228.25654,0.22290
3230.18500,0.22237
3232.11347,0.22034
3234.04194,0.22243
3235.97041,0.22696
3237.89888,0.22749
3239.82735,0.22594
3241.75582,0.22650
3243.68428,0.22876
3245.61275,0.23022
3247.54122,0.22961
3249.46969,0.22648
3251.39816,0.22390
3253.32663,0.22498
3255.25510,0.22454
3257.18357,0.21995
3259.11203,0.21680
3261.04050,0.21714
3262.96897,0.21665
3264.89744,0.21311
3266.82591,0.21179
3268.75438,0.21581
3270.68285,0.21994
3272.61131,0.21865
3274.53978,0.21352
3276.46825,0.21109
3278.39672,0.21438
3280.32519,0.22157
3282.25366,0.22657
3284.18213,0.22481
3286.11060,0.22072
3288.03906,0.22023
3289.96753,0.22372
3291.89600,0.22687
3293.82447,0.22525
3295.75294,0.22170
3297.68141,0.22042
3299.60988,0.21887
3301.53834,0.21745
3303.46681,0.21916
3305.39528,0.22245
3307.32375,0.22605
3309.25222,0.22618
3311.18069,0.22035
3313.10916,0.21570
3315.03763,0.21656
3316.96609,0.21746
3318.89456,0.21523
3320.82303,0.21193
3322.75150,0.20846
3324.67997,0.20888
3326.60844,0.21613
3328.53691,0.22443
3330.46537,0.22884
3332.39384,0.22764
3334.32231,0.22087
3336.25078,0.21617
3338.17925,0.21891
3340.10772,0.22369
3342.03619,0.22505
3343.96466,0.22525
3345.89312,0.22661
3347.82159,0.22668
3349.75006,0.22522
3351.67853,0.22340
3353.60700,0.22209
3355.53547,0.22192
3357.46394,0.22108
3359.39240,0.22072
3361.32087,0.22293
3363.24934,0.22595
3365.17781,0.22680
3367.10628,0.22432
3369.03475,0.22024
3370.96322,0.21784
3372.89168,0.21942
3374.82015,0.22200
3376.74862,0.22182
3378.67709,0.22072
3380.60556,0.22040
3382.53403,0.21913
3384.46250,0.21782
3386.39097,0.21844
3388.31943,0.21924
3390.24790,0.22096
3392.17637,0.22470
3394.10484,0.22614
3396.03331,0.22314
3397.96178,0.21913
3399.89025,0.21753
3401.81871,0.21655
3403.74718,0.21647
3405.67565,0.22226
3407.60412,0.22750
3409.53259,0.22185
3411.46106,0.21292
3413.38953,0.21262
3415.31800,0.21724
3417.24646,0.21843
3419.17493,0.21580
3421.10340,0.21191
3423.03187,0.20872
3424.96034,0.20779
3426.88881,0.20867
3428.81728,0.21059
3430.74574,0.21306
3432.67421,0.21343
3434.60268,0.21071
3436.53115,0.20953
3438.45962,0.21215
3440.38809,0.21465
3442.31656,0.21557
3444.24503,0.21696
3446.17349,0.21665
3448.10196,0.21196
3450.03043,0.20745
3451.95890,0.20762
3453.88737,0.20975
3455.81584,0.20930
3457.74431,0.20504
3459.67277,0.20123
3461.60124,0.20263
3463.52971,0.20310
3465.45818,0.19696
3467.38665,0.19067
3469.31512,0.19020
3471.24359,0.19444
3473.17206,0.19980
3475.10052,0.20306
3477.02899,0.20069
3478.95746,0.19460
3480.88593,0.19264
3482.81440,0.19531
3484.74287,0.19804
3486.67134,0.19917
3488.59980,0.19682
3490.52827,0.19365
3492.45674,0.19311
3494.38521,0.19335
3496.31368,0.19379
3498.24215,0.19259
3500.17062,0.18826
3502.09909,0.18541
3504.02755,0.18594
3505.95602,0.18729
3507.88449,0.18759
3509.81296,0.18569
3511.74143,0.18389
3513.66990,0.18283
3515.59837,0.18189
3517.52683,0.18262
3519.45530,0.18465
3521.38377,0.18664
3523.31224,0.18585
3525.24071,0.18389
3527.16918,0.18479
3529.09765,0.18459
3531.02611,0.18150
3532.95458,0.17976
3534.88305,0.17956
3536.81152,0.17760
3538.73999,0.17695
3540.66846,0.18101
3542.59693,0.18440
3544.52540,0.18267
3546.45386,0.17663
3548.38233,0.17328
3550.31080,0.17673
3552.23927,0.17901
3554.16774,0.17469
3556.09621,0.17194
3558.02468,0.17394
3559.95314,0.17345
3561.88161,0.17099
3563.81008,0.17367
3565.73855,0.18059
3567.66702,0.18354
3569.59549,0.17819
3571.52396,0.17070
3573.45243,0.16495
3575.38089,0.16336
3577.30936,0.16717
3579.23783,0.17162
3581.16630,0.17187
3583.09477,0.17203
3585.02324,0.17935
3586.95171,0.18819
3588.88017,0.18394
3590.80864,0.17617
3592.73711,0.17270
3594.66558,0.16719
3596.59405,0.16068
3598.52252,0.15935
3600.45099,0.16073
3602.37946,0.15982
3604.30792,0.15653
3606.23639,0.15400
3608.16486,0.15446
3610.09333,0.15609
3612.02180,0.15876
3613.95027,0.16376
3615.87874,0.16695
3617.80720,0.16567
3619.73567,0.16072
3621.66414,0.15503
3623.59261,0.15250
3625.52108,0.15559
3627.44955,0.16377
3629.37802,0.16691
3631.30649,0.16015
3633.23495,0.15424
3635.16342,0.14856
3637.09189,0.14319
3639.02036,0.14129
3640.94883,0.14191
3642.87730,0.14415
3644.80577,0.15062
3646.73423,0.16570
3648.66270,0.18398
3650.59117,0.17633
3652.51964,0.15545
3654.44811,0.14384
3656.37658,0.13965
3658.30505,0.13662
3660.23352,0.13406
3662.16198,0.13447
3664.09045,0.13648
3666.01892,0.13923
3667.94739,0.14684
3669.87586,0.15644
3671.80433,0.15611
3673.73280,0.15469
3675.66126,0.15630
3677.58973,0.15250
3679.51820,0.14629
3681.44667,0.14177
3683.37514,0.14045
3685.30361,0.14017
3687.23208,0.13835
3689.16055,0.13732
3691.08901,0.13715
3693.01748,0.13572
3694.94595,0.13581
3696.87442,0.13755
3698.80289,0.13945
3700.73136,0.13819
3702.65983,0.13192
3704.58829,0.12837
3706.51676,0.13129
3708.44523,0.13855
3710.37370,0.14460
3712.30217,0.14030
3714.23064,0.13362
3716.15911,0.13196
3718.08757,0.13533
3720.01604,0.14467
3721.94451,0.15193
3723.87298,0.14958
3725.80145,0.14267
3727.72992,0.13548
3729.65839,0.13245
3731.58686,0.13777
3733.51532,0.14689
3735.44379,0.14831
3737.37226,0.14312
3739.30073,0.13787
3741.22920,0.13360
3743.15767,0.13439
3745.08614,0.14198
3747.01460,0.14423
3748.94307,0.14182
3750.87154,0.14160
3752.80001,0.14002
3754.72848,0.13717
3756.65695,0.13584
3758.58542,0.13166
3760.51389,0.12506
3762.44235,0.12339
3764.37082,0.12516
3766.29929,0.12503
3768.22776,0.12318
3770.15623,0.12271
3772.08470,0.12210
3774.01317,0.12188
3775.94163,0.12442
3777.87010,0.12875
3779.79857,0.13048
3781.72704,0.12957
3783.65551,0.12975
3785.58398,0.12821
3787.51245,0.12595
3789.44092,0.12741
3791.36938,0.12920
3793.29785,0.12742
3795.22632,0.12462
3797.15479,0.12691
3799.08326,0.13390
3801.01173,0.13688
3802.94020,0.13140
3804.86866,0.12794
3806.79713,0.12875
3808.72560,0.12956
3810.65407,0.12995
3812.58254,0.13008
3814.51101,0.12865
3816.43948,0.12492
3818.36795,0.12704
3820.29641,0.13718
3822.22488,0.13860
3824.15335,0.13357
3826.08182,0.13460
3828.01029,0.13563
3829.93876,0.13258
3831.86723,0.13111
3833.79569,0.13219
3835.72416,0.13214
3837.65263,0.13493
3839.58110,0.13861
3841.50957,0.13347
3843.43804,0.12492
3845.36651,0.11910
3847.29498,0.11777
3849.22344,0.12189
3851.15191,0.12833
3853.08038,0.12957
3855.00885,0.12495
3856.93732,0.12250
3858.86579,0.12143
3860.79426,0.12157
3862.72272,0.11966
3864.65119,0.11591
3866.57966,0.11902
3868.50813,0.12484
3870.43660,0.12553
3872.36507,0.12352
3874.29354,0.12170
3876.22200,0.11943
3878.15047,0.11815
3880.07894,0.11829
3882.00741,0.11777
3883.93588,0.11525
3885.86435,0.11393
3887.79282,0.11592
3889.72129,0.11730
3891.64975,0.11662
3893.57822,0.11701
3895.50669,0.12075
3897.43516,0.12625
3899.36363,0.13075
3901.29210,0.13447
3903.22057,0.13565
3905.14903,0.12923
3907.07750,0.11973
3909.00597,0.11333
3910.93444,0.11113
3912.86291,0.11296
3914.79138,0.11542
3916.71985,0.11415
3918.64832,0.11039
3920.57678,0.10791
3922.50525,0.10914
3924.43372,0.11178
3926.36219,0.11329
3928.29066,0.11691
3930.21913,0.11885
3932.14760,0.11477
3934.07606,0.10982
3936.00453,0.10670
3937.93300,0.10659
3939.86147,0.11050
3941.78994,0.11338
3943.71841,0.11185
3945.64688,0.11216
3947.57535,0.11693
3949.50381,0.11824
3951.43228,0.11403
3953.36075,0.11223
3955.28922,0.11137
3957.21769,0.10676
3959.14616,0.10201
3961.07463,0.09967
3963.00309,0.09908
3964.93156,0.09827
3966.86003,0.09683
3968.78850,0.09861
3970.71697,0.10215
3972.64544,0.10260
3974.57391,0.10071
3976.50238,0.09834
3978.43084,0.09787
3980.35931,0.10165
3982.28778,0.10563
3984.21625,0.10503
3986.14472,0.10165
3988.07319,0.09809
3990.00166,0.09476
3991.93012,0.09448
3993.85859,0.09926
3995.78706,0.10383
3997.71553,0.10405
3999.64400,0.10312
4001.57247,0.10363
4003.50094,0.10427
4005.42941,0.10181
4007.35787,0.09782
4009.28634,0.09850
4011.21481,0.10195
4013.14328,0.10182
4015.07175,0.09802
4017.00022,0.09314
4018.92869,0.09035
4020.85715,0.09307
4022.78562,0.09811
4024.71409,0.09959
4026.64256,0.09764
4028.57103,0.09498
4030.49950,0.09247
4032.42797,0.09168
4034.35644,0.09482
4036.28490,0.09913
4038.21337,0.10158
4040.14184,0.10239
4042.07031,0.09884
4043.99878,0.09139
4045.92725,0.08666
4047.85572,0.08719
4049.78418,0.08991
4051.71265,0.09226
4053.64112,0.09260
4055.56959,0.09310
4057.49806,0.09557
4059.42653,0.09511
4061.35500,0.09298
4063.28346,0.09415
4065.21193,0.09463
4067.14040,0.09212
4069.06887,0.09006
4070.99734,0.09052
4072.92581,0.09327
4074.85428,0.09301
4076.78275,0.08629
4078.71121,0.08144
4080.63968,0.08270
4082.56815,0.08371
4084.49662,0.08429
4086.42509,0.08604
4088.35356,0.08426
4090.28203,0.07963
4092.21049,0.07988
4094.13896,0.08526
4096.06743,0.08808
4097.99590,0.08616
4099.92437,0.08271
4101.85284,0.08119
4103.78131,0.08412
4105.70978,0.08636
4107.63824,0.08336
4109.56671,0.08030
4111.49518,0.07977
4113.42365,0.08008
4115.35212,0.08225
4117.28059,0.08437
4119.20906,0.08257
4121.13752,0.07849
4123.06599,0.07544
4124.99446,0.07483
4126.92293,0.07648
4128.85140,0.07760
4130.77987,0.07563
4132.70834,0.07336
4134.63681,0.07399
4136.56527,0.07518
4138.49374,0.07687
4140.42221,0.07958
4142.35068,0.07975
4144.27915,0.07709
4146.20762,0.07400
4148.13609,0.07139
4150.06455,0.07117
4151.99302,0.07369
4153.92149,0.07403
4155.84996,0.07083
4157.77843,0.06867
4159.70690,0.07108
4161.63537,0.07495
4163.56384,0.07437
4165.49230,0.07030
4167.42077,0.06667
4169.34924,0.06508
4171.27771,0.06552
4173.20618,0.06639
4175.13465,0.06560
4177.06312,0.06500
4178.99158,0.06721
4180.92005,0.06876
4182.84852,0.06809
4184.77699,0.06862
4186.70546,0.07079
4188.63393,0.07092
4190.56240,0.06935
4192.49087,0.06602
4194.41933,0.05944
4196.34780,0.05987
4198.27627,0.06874
4200.20474,0.07068
4202.13321,0.06551
4204.06168,0.06372
4205.99015,0.06411
4207.91861,0.06247
4209.84708,0.05953
4211.77555,0.05643
4213.70402,0.05554
4215.63249,0.05825
4217.56096,0.06145
4219.48943,0.06260
4221.41789,0.06278
4223.34636,0.06264
4225.27483,0.05956
4227.20330,0.05518
4229.13177,0.05543
4231.06024,0.05918
4232.98871,0.06178
4234.91718,0.06243
4236.84564,0.06227
4238.77411,0.05950
4240.70258,0.05423
4242.63105,0.05477
4244.55952,0.05780
4246.48799,0.05195
4248.41646,0.04646
4250.34492,0.05285
4252.27339,0.05969
4254.20186,0.05602
4256.13033,0.04934
4258.05880,0.04717
4259.98727,0.04812
4261.91574,0.05038
4263.84421,0.05330
4265.77267,0.05400
4267.70114,0.05031
4269.62961,0.04653
4271.55808,0.04484
4273.48655,0.04296
4275.41502,0.04238
4277.34349,0.04572
4279.27195,0.04868
4281.20042,0.04684
4283.12889,0.04618
4285.05736,0.05308
4286.98583,0.06129
4288.91430,0.05832
4290.84277,0.04656
4292.77124,0.03724
4294.69970,0.03332
4296.62817,0.03573
4298.55664,0.04251
4300.48511,0.04945
4302.41358,0.05305
4304.34205,0.04997
4306.27052,0.04481
4308.19898,0.04316
4310.12745,0.04018
4312.05592,0.03537
4313.98439,0.03485
4315.91286,0.03537
4317.84133,0.03321
4319.76980,0.03114
4321.69827,0.03144
4323.62673,0.03252
4325.55520,0.03197
4327.48367,0.03038
4329.41214,0.02870
4331.34061,0.02886
4333.26908,0.02953
4335.19755,0.02789
4337.12601,0.02777
4339.05448,0.03022
4340.98295,0.03066
4342.91142,0.03057
4344.83989,0.03329
4346.76836,0.03504
4348.69683,0.03287
4350.62530,0.02887
4352.55376,0.02629
4354.48223,0.02614
4356.41070,0.02760
4358.33917,0.02914
4360.26764,0.02942
4362.19611,0.03028
4364.12458,0.03190
4366.05304,0.03267
4367.98151,0.03345
4369.90998,0.03194
4371.83845,0.02610
4373.76692,0.02177
4375.69539,0.01993
4377.62386,0.01559
4379.55232,0.01257
4381.48079,0.01439
4383.40926,0.01788
4385.33773,0.01857
4387.26620,0.01430
4389.19467,0.01167
4391.12314,0.01670
4393.05161,0.02537
4394.98007,0.02974
4396.90854,0.02617
4398.83701,0.02136
4400.76548,0.02168
4402.69395,0.02276
4404.62242,0.02023
4406.55089,0.01762
4408.47935,0.01964
4410.40782,0.02300
4412.33629,0.02130
4414.26476,0.01711
4416.19323,0.01801
4418.12170,0.02385
4420.05017,0.02465
4421.97864,0.01848
4423.90710,0.01550
4425.83557,0.01674
4427.76404,0.01707
4429.69251,0.01668
4431.62098,0.01325
4433.54945,0.00944
4435.47792,0.01572
4437.40638,0.02499
4439.33485,0.01997
4441.26332,0.00602
4443.19179,0.00076
4445.12026,0.00544
4447.04873,0.00842
4448.97720,0.00683
4450.90567,0.00853
4452.83413,0.01360
4454.76260,0.01354
4456.69107,0.01123
4458.61954,0.01456
4460.54801,0.01727
4462.47648,0.01330
4464.40495,0.01058
4466.33341,0.01299
4468.26188,0.01330
4470.19035,0.00674
4472.11882,0.00046
4474.04729,0.00219
4475.97576,0.00641
4477.90423,0.00707
4479.83270,0.00890
4481.76116,0.01629
4483.68963,0.02247
4485.61810,0.01859
4487.54657,0.00733
4489.47504,-0.00538
4491.40351,-0.01513
4493.33198,-0.01285
4495.26044,-0.00084
4497.18891,0.00334
4499.11738,-0.00278
4501.04585,-0.00345
4502.97432,0.00557
4504.90279,0.01423
4506.83126,0.01609
4508.75973,0.01342
4510.68819,0.01019
4512.61666,0.00884
4514.54513,0.01176
4516.47360,0.01655
4518.40207,0.01459
4520.33054,0.00555
4522.25901,0.00030
4524.18747,0.00066
4526.11594,-0.00030
4528.04441,-0.00294
4529.97288,-0.00344
4531.90135,-0.00142
4533.82982,0.00041
4535.75829,0.00154
4537.68676,0.00338
4539.61522,0.00433
4541.54369,0.00461
4543.47216,0.00795
4545.40063,0.01252
4547.32910,0.01514
4549.25757,0.01498
4551.18604,0.01273
4553.11450,0.01054
4555.04297,0.00865
4556.97144,0.00638
4558.89991,0.00591
4560.82838,0.01042
4562.75685,0.01621
4564.68532,0.01383
4566.61378,0.00175
4568.54225,-0.00882
4570.47072,-0.00711
4572.39919,0.00340
4574.32766,0.01076
4576.25613,0.01482
4578.18460,0.01948
4580.11307,0.01957
4582.04153,0.01591
4583.97000,0.01307
4585.89847,0.00712
4587.82694,-0.00272
4589.75541,-0.01187
4591.68388,-0.01940
4593.61235,-0.01989
4595.54081,-0.00886
4597.46928,0.00401
4599.39775,0.00713
4601.32622,0.00161
4603.25469,-0.00176
4605.18316,0.00081
4607.11163,0.00132
4609.04010,-0.00214
4610.96856,-0.00080
4612.89703,0.00843
4614.82550,0.01607
4616.75397,0.01391
4618.68244,0.00634
4620.61091,0.00209
4622.53938,0.00263
4624.46784,0.00615
4626.39631,0.00917
4628.32478,0.00786
4630.25325,0.00321
4632.18172,-0.00015
4634.11019,-0.00091
4636.03866,-0.00008
4637.96713,0.00601
4639.89559,0.01206
4641.82406,0.00666
4643.75253,-0.00166
4645.68100,-0.00206
4647.60947,-0.00152
4649.53794,0.00237
4651.46641,0.01541
4653.39487,0.02115
4655.32334,0.01244
4657.25181,0.00420
4659.18028,0.00244
4661.10875,0.00305
4663.03722,0.00706
4664.96569,0.01125
4666.89416,0.00995
4668.82262,0.00855
4670.75109,0.01160
4672.67956,0.01318
4674.60803,0.00830
4676.53650,-0.00020
4678.46497,-0.00206
4680.39344,0.00679
4682.32190,0.01157
4684.25037,0.00727
4686.17884,0.00864
4688.10731,0.01813
4690.03578,0.02005
4691.96425,0.00783
4693.89272,-0.00093
4695.82119,0.00003
4697.74965,-0.00536
4699.67812,-0.01459
4701.60659,-0.01274
4703.53506,-0.00152
4705.46353,0.00833
4707.39200,0.00886
4709.32047,0.00220
4711.24893,0.00043
4713.17740,0.00778
4715.10587,0.01346
4717.03434,0.01035
4718.96281,0.00431
4720.89128,-0.00036
4722.81975,-0.00192
4724.74821,-0.00076
4726.67668,-0.00084
4728.60515,-0.00112
4730.53362,0.00174
4732.46209,0.00682
4734.39056,0.00765
4736.31903,0.00409
4738.24750,0.00335
4740.17596,0.00323
4742.10443,0.00233
4744.03290,0.00589
4745.96137,0.00727
4747.88984,0.00350
4749.81831,0.00655
4751.74678,0.01472
4753.67524,0.01541
4755.60371,0.00708
4757.53218,0.00134
4759.46065,0.00694
4761.38912,0.01428
4763.31759,0.01382
4765.24606,0.01196
4767.17453,0.01515
4769.10299,0.01879
4771.03146,0.01712
4772.95993,0.01242
4774.88840,0.00670
4776.81687,-0.00008
4778.74534,-0.00270
4780.67381,0.00233
4782.60227,0.00325
4784.53074,-0.00982
4786.45921,-0.01794
4788.38768,-0.00916
4790.31615,0.00161
4792.24462,0.00993
4794.17309,0.01363
4796.10156,0.00609
4798.03002,-0.00228
4799.95849,-0.00205
4801.88696,0.00232
4803.81543,0.00285
4805.74390,0.00060
4807.67237,0.00181
4809.60084,0.00304
4811.52930,0.00353
4813.45777,0.00281
4815.38624,-0.00185
4817.31471,-0.00083
4819.24318,0.00488
4821.17165,0.00796
4823.10012,0.01078
4825.02859,0.00867
4826.95705,0.00622
4828.88552,0.01375
4830.81399,0.01697
4832.74246,0.00627
4834.67093,-0.00030
4836.59940,0.00734
4838.52787,0.01622
4840.45633,0.01657
4842.38480,0.01513
4844.31327,0.01854
4846.24174,0.01877
4848.17021,0.01261
4850.09868,0.00851
4852.02715,0.00855
4853.95562,0.00894
4855.88408,0.00905
4857.81255,0.00785
4859.74102,0.00594
4861.66949,0.00930
4863.59796,0.00921
4865.52643,-0.00271
4867.45490,-0.01008
4869.38336,-0.00443
4871.31183,0.00571
4873.24030,0.01551
4875.16877,0.02087
4877.09724,0.01722
4879.02571,0.01101
4880.95418,0.00889
4882.88265,0.00501
4884.81111,0.00247
4886.73958,0.01024
4888.66805,0.02137
4890.59652,0.02505
4892.52499,0.02148
4894.45346,0.01890
4896.38193,0.01914
4898.31039,0.01679
4900.23886,0.00966
4902.16733,0.00016
4904.09580,-0.00991
4906.02427,-0.01579
4907.95274,-0.00613
4909.88121,0.01460
4911.80967,0.02383
4913.73814,0.01391
4915.66661,-0.00228
4917.59508,-0.00839
4919.52355,-0.00691
4921.45202,-0.00654
4923.38049,-0.00153
4925.30896,0.00506
4927.23742,0.00656
4929.16589,0.00672
4931.09436,0.00295
4933.02283,-0.00205
4934.95130,0.00056
4936.87977,0.00265
4938.80824,-0.00392
4940.73670,-0.00561
4942.66517,0.00718
4944.59364,0.01782
4946.52211,0.01725
4948.45058,0.01396
4950.37905,0.01104
4952.30752,0.00787
4954.23599,0.00292
4956.16445,0.00141
4958.09292,0.01718
4960.02139,0.03969
4961.94986,0.03551
4963.87833,0.00955
4965.80680,-0.00078
4967.73527,0.00658
4969.66373,0.00576
4971.59220,-0.00666
4973.52067,-0.01271
4975.44914,-0.00634
4977.37761,0.00515
4979.30608,0.01229
4981.23455,0.00710
4983.16302,-0.00183
4985.09148,-0.00064
4987.01995,0.00492
4988.94842,0.00662
4990.87689,0.00780
4992.80536,0.00758
4994.73383,0.00196
4996.66230,-0.00205
4998.59076,0.00317
5000.51923,0.01303
5002.44770,0.02103
5004.37617,0.02636
5006.30464,0.02933
5008.23311,0.02881
5010.16158,0.02000
5012.09005,0.00226
5014.01851,-0.01187
5015.94698,-0.00988
5017.87545,-0.00124
5019.80392,0.00140
5021.73239,0.00062
5023.66086,-0.00379
5025.58933,-0.00297
5027.51779,0.00877
5029.44626,0.01351
5031.37473,0.01259
5033.30320,0.01721
5035.23167,0.01461
5037.16014,0.00130
5039.08861,-0.00256
5041.01708,0.01162
5042.94554,0.02270
5044.87401,0.01938
5046.80248,0.01659
5048.73095,0.01576
5050.65942,0.00808
5052.58789,-0.00034
5054.51636,-0.00078
5056.44482,0.00860
5058.37329,0.02095
5060.30176,0.02222
5062.23023,0.01156
5064.15870,0.00648
5066.08717,0.00537
5068.01564,-0.00233
5069.94410,-0.00284
5071.87257,0.00875
5073.80104,0.01232
5075.72951,0.00378
5077.65798,0.00168
5079.58645,0.00910
5081.51492,0.01420
5083.44339,0.01733
5085.37185,0.02071
5087.30032,0.01616
5089.22879,0.00100
5091.15726,-0.01545
5093.08573,-0.01970
5095.01420,-0.00643
5096.94267,0.00982
5098.87113,0.01605
5100.79960,0.01523
5102.72807,0.01320
5104.65654,0.01477
5106.58501,0.01757
5108.51348,0.01460
5110.44195,0.00342
5112.37042,-0.00841
5114.29888,-0.00591
5116.22735,0.00566
5118.15582,0.00580
5120.08429,0.00104
5122.01276,0.00921
5123.94123,0.01949
5125.86970,0.01974
5127.79816,0.01571
5129.72663,0.01234
5131.65510,0.01166
5133.58357,0.01260
5135.51204,0.01286
5137.44051,0.00894
5139.36898,0.00624
5141.29745,0.01796
5143.22591,0.03556
5145.15438,0.04318
5147.08285,0.03448
5149.01132,0.01388
5150.93979,-0.00119
5152.86826,-0.00650
5154.79673,-0.00961
5156.72519,-0.01021
5158.65366,-0.00474
5160.58213,0.01226
5162.51060,0.03323
5164.43907,0.03589
5166.36754,0.02494
5168.29601,0.01730
5170.22448,0.01260
5172.15294,0.01437
5174.08141,0.01657
5176.00988,0.00701
5177.93835,-0.00405
5179.86682,-0.00296
5181.79529,0.00629
5183.72376,0.01389
5185.65222,0.02134
5187.58069,0.02959
5189.50916,0.03238
5191.43763,0.02796
5193.36610,0.01642
5195.29457,0.00722
5197.22304,0.01256
5199.15151,0.02232
5201.07997,0.02213
5203.00844,0.01916
5204.93691,0.02292
5206.86538,0.03249
5208.79385,0.04260
5210.72232,0.04266
5212.65079,0.03162
5214.57925,0.02802
5216.50772,0.03279
5218.43619,0.03198
5220.36466,0.03272
5222.29313,0.03779
5224.22160,0.03726
5226.15007,0.03451
5228.07854,0.04450
5230.00700,0.05968
5231.93547,0.05866
5233.86394,0.05266
5235.79241,0.05258
5237.72088,0.04696
5239.64935,0.03668
5241.57782,0.02320
5243.50628,0.01207
5245.43475,0.01383
5247.36322,0.02223
5249.29169,0.02730
5251.22016,0.02552
5253.14863,0.02130
5255.07710,0.01978
5257.00556,0.01992
5258.93403,0.02178
5260.86250,0.02507
5262.79097,0.02017
5264.71944,0.00970
5266.64791,0.01304
5268.57638,0.02224
5270.50485,0.02365
5272.43331,0.02633
5274.36178,0.02510
5276.29025,0.00902
5278.21872,-0.00226
5280.14719,-0.00153
5282.07566,-0.00126
5284.00413,0.01031
5285.93259,0.03374
5287.86106,0.04740
5289.78953,0.05091
5291.71800,0.05958
5293.64647,0.06849
5295.57494,0.05797
5297.50341,0.03391
5299.43188,0.01991
5301.36034,0.02398
5303.28881,0.02728
5305.21728,0.01484
5307.14575,0.00717
5309.07422,0.01622
5311.00269,0.02603
5312.93116,0.03107
5314.85962,0.02848
5316.78809,0.02000
5318.71656,0.02128
5320.64503,0.02928
5322.57350,0.02594
5324.50197,0.01806
5326.43044,0.02311
5328.35891,0.03228
5330.28737,0.03015
5332.21584,0.02441
5334.14431,0.02981
5336.07278,0.04324
5338.00125,0.05251
5339.92972,0.05454
5341.85819,0.05508
5343.78665,0.05580
5345.71512,0.04828
5347.64359,0.03522
5349.57206,0.03503
5351.50053,0.05461
5353.42900,0.07221
5355.35747,0.06206
5357.28594,0.04133
5359.21440,0.02815
5361.14287,0.01565
5363.07134,0.00740
5364.99981,0.02269
5366.92828,0.05207
5368.85675,0.06649
5370.78522,0.06327
5372.71368,0.05113
5374.64215,0.02924
5376.57062,0.01243
5378.49909,0.01732
5380.42756,0.02694
5382.35603,0.03278
5384.28450,0.04173
5386.21297,0.05230
5388.14143,0.05757
5390.06990,0.05398
5391.99837,0.04676
5393.92684,0.05595
5395.85531,0.08796
5397.78378,0.11133
5399.71225,0.09804
5401.64071,0.05928
5403.56918,0.03727
5405.49765,0.04881
5407.42612,0.06179
5409.35459,0.06316
5411.28306,0.07136
5413.21153,0.07484
5415.13999,0.05412
5417.06846,0.02747
5418.99693,0.01733
5420.92540,0.02446
5422.85387,0.03219
5424.78234,0.04055
5426.71081,0.05765
5428.63928,0.06566
5430.56774,0.05245
5432.49621,0.04086
5434.42468,0.04724
5436.35315,0.05941
5438.28162,0.06213
5440.21009,0.06515
5442.13856,0.07062
5444.06702,0.07229
5445.99549,0.07920
5447.92396,0.07826
5449.85243,0.06151
5451.78090,0.05415
5453.70937,0.05237
5455.63784,0.04673
5457.56631,0.04579
5459.49477,0.04608
5461.42324,0.05289
5463.35171,0.05642
5465.28018,0.03388
5467.20865,0.01584
5469.13712,0.02545
5471.06559,0.03228
5472.99405,0.02812
5474.92252,0.03283
5476.85099,0.04331
5478.77946,0.04792
5480.70793,0.04974
5482.63640,0.05011
5484.56487,0.04406
5486.49334,0.03301
5488.42180,0.04607
5490.35027,0.08174
5492.27874,0.08571
5494.20721,0.06582
5496.13568,0.06307
5498.06415,0.07123
5499.99262,0.07815
5501.92108,0.07135
5503.84955,0.05442
5505.77802,0.04557
5507.70649,0.04978
5509.63496,0.05918
5511.56343,0.06265
5513.49190,0.05946
5515.42037,0.05712
5517.34883,0.05745
5519.27730,0.05481
5521.20577,0.05050
5523.13424,0.05264
5525.06271,0.05444
5526.99118,0.05715
5528.91965,0.07797
5530.84811,0.09964
5532.77658,0.08969
5534.70505,0.06600
5536.63352,0.06605
5538.56199,0.07704
5540.49046,0.07390
5542.41893,0.07656
5544.34740,0.08693
5546.27586,0.07972
5548.20433,0.06873
5550.13280,0.07033
5552.06127,0.07580
5553.98974,0.08072
5555.91821,0.07747
5557.84668,0.06002
5559.77514,0.04986
5561.70361,0.05137
5563.63208,0.02798
5565.56055,0.00052
5567.48902,0.02315
5569.41749,0.06346
5571.34596,0.07284
5573.27443,0.05988
5575.20289,0.04761
5577.13136,0.05324
5579.05983,0.08118
5580.98830,0.10388
5582.91677,0.10371
5584.84524,0.10222
5586.77371,0.09684
5588.70217,0.06359
5590.63064,0.01629
5592.55911,-0.00394
5594.48758,0.00725
5596.41605,0.03048
5598.34452,0.05699
5600.27299,0.07351
5602.20145,0.07094
5604.12992,0.05579
5606.05839,0.04490
5607.98686,0.05102
5609.91533,0.05812
5611.84380,0.04544
5613.77227,0.03526
5615.70074,0.04964
5617.62920,0.06526
5619.55767,0.07569
5621.48614,0.08516
5623.41461,0.08546
5625.34308,0.09290
5627.27155,0.10441
5629.20002,0.10207
5631.12848,0.09560
5633.05695,0.08136
5634.98542,0.06352
5636.91389,0.06118
5638.84236,0.06487
5640.77083,0.06797
5642.69930,0.07733
5644.62777,0.08728
5646.55623,0.09185
5648.48470,0.08014
5650.41317,0.05528
5652.34164,0.05204
5654.27011,0.06642
5656.19858,0.07456
5658.12705,0.08303
5660.05551,0.08742
5661.98398,0.08925
5663.91245,0.09864
5665.84092,0.09655
5667.76939,0.07823
5669.69786,0.06406
5671.62633,0.05870
5673.55480,0.05778
5675.48326,0.05928
5677.41173,0.06108
5679.34020,0.06698
5681.26867,0.07422
5683.19714,0.07863
5685.12561,0.07936
5687.05408,0.07680
5688.98254,0.08112
5690.91101,0.09252
5692.83948,0.09805
5694.76795,0.09321
5696.69642,0.08126
5698.62489,0.07098
5700.55336,0.07242
5702.48183,0.07461
5704.41029,0.05319
5706.33876,0.01616
5708.26723,0.00028
5710.19570,0.02106
5712.12417,0.05709
5714.05264,0.07452
5715.98111,0.06600
5717.90957,0.06065
5719.83804,0.07839
5721.76651,0.09777
5723.69498,0.09088
5725.62345,0.07144
5727.55192,0.06334
5729.48039,0.06094
5731.40886,0.05718
5733.33732,0.05530
5735.26579,0.06147
5737.19426,0.06095
5739.12273,0.03727
5741.05120,0.02343
5742.97967,0.03888
5744.90814,0.07161
5746.83660,0.10212
5748.76507,0.10554
5750.69354,0.09381
5752.62201,0.08852
5754.55048,0.08372
5756.47895,0.07746
5758.40742,0.07212
5760.33588,0.06305
5762.26435,0.03960
5764.19282,0.01373
5766.12129,0.01558
5768.04976,0.03632
5769.97823,0.04599
5771.90670,0.03166
5773.83517,0.02840
5775.76363,0.07437
5777.69210,0.12151
5779.62057,0.12995
5781.54904,0.13834
5783.47751,0.14743
5785.40598,0.12090
5787.33445,0.07336
5789.26291,0.04561
5791.19138,0.04754
5793.11985,0.06045
5795.04832,0.06394
5796.97679,0.05581
5798.90526,0.04708
5800.83373,0.05313
5802.76220,0.07366
5804.69066,0.08079
5806.61913,0.06198
5808.54760,0.04075
5810.47607,0.04263
5812.40454,0.05578
5814.33301,0.05040
5816.26148,0.03705
5818.18994,0.03706
5820.11841,0.04968
5822.04688,0.06370
5823.97535,0.06943
5825.90382,0.07142
5827.83229,0.08129
5829.76076,0.09954
5831.68923,0.09741
5833.61769,0.07993
5835.54616,0.09361
5837.47463,0.10379
5839.40310,0.07614
5841.33157,0.07050
5843.26004,0.09321
5845.18851,0.08740
5847.11697,0.04480
5849.04544,0.01139
5850.97391,0.03123
5852.90238,0.05515
5854.83085,0.02903
5856.75932,-0.01245
5858.68779,-0.01664
5860.61626,0.01604
5862.54472,0.05688
5864.47319,0.08836
5866.40166,0.10570
5868.33013,0.11072
5870.25860,0.09501
5872.18707,0.06028
5874.11554,0.03819
5876.04400,0.05281
5877.97247,0.08798
5879.90094,0.09655
5881.82941,0.07444
5883.75788,0.07255
5885.68635,0.08257
5887.61482,0.06454
5889.54329,0.04510
5891.47175,0.04546
5893.40022,0.04138
5895.32869,0.03656
5897.25716,0.05838
5899.18563,0.08568
5901.11410,0.07551
5903.04257,0.05023
5904.97103,0.04082
5906.89950,0.03050
5908.82797,0.02855
5910.75644,0.06224
5912.68491,0.10599
5914.61338,0.11310
5916.54185,0.07868
5918.47032,0.03940
5920.39878,0.03372
5922.32725,0.04626
5924.25572,0.04865
5926.18419,0.05616
5928.11266,0.07391
5930.04113,0.08377
5931.96960,0.07846
5933.89806,0.05696
5935.82653,0.03977
5937.75500,0.04951
5939.68347,0.06857
5941.61194,0.07081
5943.54041,0.04388
5945.46888,0.00874
5947.39734,-0.00408
5949.32581,0.00391
5951.25428,0.03389
5953.18275,0.07526
5955.11122,0.10239
5957.03969,0.11079
5958.96816,0.08909
5960.89663,0.04310
5962.82509,0.02402
5964.75356,0.04787
5966.68203,0.05182
5968.61050,-0.00215
5970.53897,-0.03685
5972.46744,0.00669
5974.39591,0.06434
5976.32437,0.06928
5978.25284,0.04685
5980.18131,0.03797
5982.10978,0.05618
5984.03825,0.08878
5985.96672,0.08518
5987.89519,0.05028
5989.82366,0.06006
5991.75212,0.10713
5993.68059,0.12744
5995.60906,0.10634
5997.53753,0.07516
5999.46600,0.06185
6001.39447,0.06950
6003.32294,0.09523
6005.25140,0.10938
6007.17987,0.08762
6009.10834,0.06051
6011.03681,0.04546
6012.96528,0.03201
6014.89375,0.01934
6016.82222,0.00013
6018.75069,-0.02121
6020.67915,-0.01784
6022.60762,0.00544
6024.53609,0.03933
6026.46456,0.08886
6028.39303,0.13642
6030.32150,0.15079
6032.24997,0.13635
6034.17843,0.12773
6036.10690,0.11374
6038.03537,0.07059
6039.96384,0.04900
6041.89231,0.06232
6043.82078,0.06431
6045.74925,0.05580
6047.67772,0.06085
6049.60618,0.08888
6051.53465,0.11621
6053.46312,0.10027
6055.39159,0.06477
6057.32006,0.07429
6059.24853,0.11425
6061.17700,0.11301
6063.10546,0.07316
6065.03393,0.07003
6066.96240,0.10596
6068.89087,0.11208
6070.81934,0.06171
6072.74781,0.01974
6074.67628,0.03033
6076.60475,0.05423
6078.53321,0.06351
6080.46168,0.05843
6082.39015,0.05607
6084.31862,0.07868
6086.24709,0.09433
6088.17556,0.07189
6090.10403,0.04841
6092.03249,0.03710
6093.96096,0.02538
6095.88943,0.03184
6097.81790,0.05145
6099.74637,0.07249
6101.67484,0.10691
6103.60331,0.13030
6105.53177,0.11459
6107.46024,0.08497
6109.38871,0.07251
6111.31718,0.06256
6113.24565,0.04879
6115.17412,0.04225
6117.10259,0.02815
6119.03106,0.01600
6120.95952,0.03038
6122.88799,0.05646
6124.81646,0.08250
6126.74493,0.08203
6128.67340,0.04600
6130.60187,0.02489
6132.53034,0.02666
6134.45880,0.03365
6136.38727,0.05061
6138.31574,0.07907
6140.24421,0.11172
6142.17268,0.12555
6144.10115,0.10487
6146.02962,0.05553
6147.95809,0.01085
6149.88655,0.01043
6151.81502,0.04853
6153.74349,0.06820
6155.67196,0.03497
6157.60043,-0.00527
6159.52890,-0.00174
6161.45737,0.01363
6163.38583,-0.00485
6165.31430,-0.00406
6167.24277,0.03556
6169.17124,0.03943
6171.09971,0.01383
6173.02818,0.00742
6174.95665,0.00725
6176.88512,0.01505
6178.81358,0.03349
6180.74205,0.02779
6182.67052,-0.00195
6184.59899,-0.01488
6186.52746,-0.00150
6188.45593,0.00838
6190.38440,0.00261
6192.31286,0.02174
6194.24133,0.06830
6196.16980,0.09495
6198.09827,0.10407
6200.02674,0.11207
6201.95521,0.09994
6203.88368,0.07100
6205.81215,0.05740
6207.74061,0.04600
6209.66908,0.03861
6211.59755,0.08563
6213.52602,0.13338
6215.45449,0.11015
6217.38296,0.06085
6219.31143,0.05608
6221.23989,0.09444
6223.16836,0.11830
6225.09683,0.08655
6227.02530,0.04799
6228.95377,0.04372
6230.88224,0.05992
6232.81071,0.09541
6234.73918,0.10415
6236.66764,0.06682
6238.59611,0.04818
6240.52458,0.04296
6242.45305,0.00563
6244.38152,-0.01411
6246.30999,0.01040
6248.23846,0.03403
6250.16692,0.06842
6252.09539,0.09064
6254.02386,0.05238
6255.95233,0.04366
6257.88080,0.11772
6259.80927,0.18397
6261.73774,0.19183
6263.66621,0.16141
6265.59467,0.11493
6267.52314,0.08007
6269.45161,0.07649
6271.38008,0.09466
6273.30855,0.10580
6275.23702,0.09129
6277.16549,0.06157
6279.09395,0.03100
6281.02242,0.03910
6282.95089,0.11124
6284.87936,0.17280
6286.80783,0.15232
6288.73630,0.09780
6290.66477,0.06886
6292.59323,0.06245
6294.52170,0.08419
6296.45017,0.10431
6298.37864,0.07687
6300.30711,0.06103
6302.23558,0.09531
6304.16405,0.09563
6306.09252,0.04430
6308.02098,0.00601
6309.94945,0.00712
6311.87792,0.05149
6313.80639,0.11632
6315.73486,0.12929
6317.66333,0.06550
6319.59180,0.00369
6321.52026,-0.00435
6323.44873,-0.00488
6325.37720,-0.01621
6327.30567,-0.01241
6329.23414,0.00860
6331.16261,0.03737
6333.09108,0.08103
6335.01955,0.12435
6336.94801,0.12035
6338.87648,0.08785
6340.80495,0.07789
6342.73342,0.08354
6344.66189,0.06906
6346.59036,0.01514
6348.51883,-0.02202
6350.44729,0.01674
6352.37576,0.08402
6354.30423,0.09247
6356.23270,0.02663
6358.16117,-0.04723
6360.08964,-0.07198
6362.01811,-0.06621
6363.94658,-0.06099
6365.87504,-0.06284
6367.80351,-0.04167
6369.73198,-0.01282
6371.66045,-0.01012
6373.58892,0.02257
6375.51739,0.07242
6377.44586,0.06953
6379.37432,0.03728
6381.30279,0.03145
6383.23126,0.07499
6385.15973,0.10462
6387.08820,0.08208
6389.01667,0.07073
6390.94514,0.08116
6392.87361,0.07152
6394.80207,0.04635
6396.73054,0.04720
6398.65901,0.06955
6400.58748,0.05960
6402.51595,0.03507
6404.44442,0.05504
6406.37289,0.08330
6408.30135,0.07372
6410.22982,0.06098
6412.15829,0.08923
6414.08676,0.11986
6416.01523,0.10106
6417.94370,0.03886
6419.87217,-0.00878
6421.80064,-0.00419
6423.72910,0.01186
6425.65757,0.03324
6427.58604,0.10119
6429.51451,0.17020
6431.44298,0.16517
6433.37145,0.12438
6435.29992,0.09460
6437.22838,0.05791
6439.15685,0.04748
6441.08532,0.08644
6443.01379,0.11460
6444.94226,0.09201
6446.87073,0.04489
6448.79920,0.00014
6450.72766,-0.00558
6452.65613,0.03948
6454.58460,0.09344
6456.51307,0.11012
6458.44154,0.07775
6460.37001,0.04038
6462.29848,0.01971
6464.22695,0.02039
6466.15541,0.04066
6468.08388,0.05333
6470.01235,0.05231
6471.94082,0.04422
6473.86929,0.03650
6475.79776,0.01069
6477.72623,-0.03207
6479.65469,-0.01906
6481.58316,0.06346
6483.51163,0.12117
6485.44010,0.10380
6487.36857,0.05980
6489.29704,0.03599
6491.22551,0.05923
6493.15398,0.10544
6495.08244,0.09003
6497.01091,0.04488
6498.93938,0.06170
6500.86785,0.09093
6502.79632,0.06429
6504.72479,0.04792
6506.65326,0.03968
6508.58172,0.02171
6510.51019,0.05442
6512.43866,0.09516
6514.36713,0.07166
6516.29560,0.03107
6518.22407,0.01086
6520.15254,-0.00248
6522.08101,0.00447
6524.00947,0.04908
6525.93794,0.07826
6527.86641,0.03961
6529.79488,-0.00435
6531.72335,0.00174
6533.65182,0.01398
6535.58029,0.00780
6537.50875,-0.00269
6539.43722,0.01024
6541.36569,0.06357
6543.29416,0.10055
6545.22263,0.09049
6547.15110,0.07730
6549.07957,0.07144
6551.00804,0.06936
6552.93650,0.10143
6554.86497,0.11507
6556.79344,0.06754
6558.72191,0.05350
6560.65038,0.06946
6562.57885,0.04291
6564.50732,0.01021
6566.43578,0.00050
6568.36425,-0.00963
6570.29272,-0.03928
6572.22119,-0.05356
6574.14966,-0.00153
6576.07813,0.08491
6578.00660,0.12984
6579.93507,0.12477
6581.86353,0.12497
6583.79200,0.10743
6585.72047,0.04443
6587.64894,-0.00501
6589.57741,-0.00198
6591.50588,0.02706
6593.43435,0.04357
6595.36281,0.05632
6597.29128,0.06860
6599.21975,0.05352
6601.14822,0.03618
6603.07669,0.04742
6605.00516,0.05407
6606.93363,0.05202
6608.86210,0.05118
6610.79056,0.03979
6612.71903,0.04659
6614.64750,0.04972
6616.57597,-0.00555
6618.50444,-0.02586
6620.43291,0.04576
6622.36138,0.11027
6624.28984,0.11983
6626.21831,0.12302
6628.14678,0.13103
6630.07525,0.11096
6632.00372,0.04445
6633.93219,-0.03151
6635.86066,-0.05785
6637.78912,-0.02963
6639.71759,0.01003
6641.64606,0.03077
6643.57453,0.04574
6645.50300,0.08743
6647.43147,0.15386
6649.35994,0.20766
6651.28841,0.18302
6653.21687,0.08721
6655.14534,0.04971
6657.07381,0.11676
6659.00228,0.13541
6660.93075,0.04469
6662.85922,-0.02706
6664.78769,-0.00661
6666.71615,0.03182
6668.64462,0.04400
6670.57309,0.08371
6672.50156,0.11590
6674.43003,0.08584
6676.35850,0.06323
6678.28697,0.08876
6680.21544,0.08312
6682.14390,0.00417
6684.07237,-0.01434
6686.00084,0.06688
6687.92931,0.08007
6689.85778,0.01122
6691.78625,-0.00639
6693.71472,-0.00767
6695.64318,-0.01835
6697.57165,0.02545
6699.50012,0.06725
6701.42859,0.05905
6703.35706,0.08312
6705.28553,0.13945
6707.21400,0.17801
6709.14247,0.17162
6711.07093,0.10398
6712.99940,0.03057
6714.92787,0.01873
6716.85634,0.06129
6718.78481,0.09306
6720.71328,0.05611
6722.64175,-0.05359
6724.57021,-0.13432
6726.49868,-0.10760
6728.42715,-0.02630
6730.35562,0.04919
6732.28409,0.10079
6734.21256,0.13221
6736.14103,0.13584
6738.06950,0.09992
6739.99796,0.04818
6741.92643,0.01992
6743.85490,0.02112
6745.78337,0.01027
6747.71184,-0.03493
6749.64031,-0.07235
6751.56878,-0.05668
6753.49724,-0.03381
6755.42571,-0.03850
6757.35418,-0.01257
6759.28265,0.04517
6761.21112,0.06648
6763.13959,0.05348
6765.06806,0.04253
6766.99653,0.03456
6768.92499,0.02441
6770.85346,-0.00900
6772.78193,-0.05090
6774.71040,-0.02027
6776.63887,0.04998
6778.56734,0.03167
6780.49581,-0.02713
6782.42427,-0.04500
6784.35274,-0.03863
6786.28121,-0.00566
6788.20968,0.07135
6790.13815,0.17608
6792.06662,0.23416
6793.99509,0.15358
6795.92355,0.00431
6797.85202,-0.02416
6799.78049,0.07138
6801.70896,0.10624
6803.63743,0.03846
6805.56590,0.00824
6807.49437,0.02928
6809.42284,0.02229
6811.35130,-0.01654
6813.27977,-0.01597
6815.20824,0.02556
6817.13671,0.04743
6819.06518,0.01512
6820.99365,-0.01724
6822.92212,0.03093
6824.85058,0.03782
6826.77905,-0.07898
6828.70752,-0.14349
6830.63599,-0.05000
6832.56446,0.05384
6834.49293,0.05963
6836.42140,0.02091
6838.34987,0.03187
6840.27833,0.08089
6842.20680,0.13893
6844.13527,0.19307
6846.06374,0.18853
6847.99221,0.12434
6849.92068,0.08038
6851.84915,0.04679
6853.77761,-0.01036
6855.70608,0.00001
6857.63455,0.09632
6859.56302,0.18281
6861.49149,0.20947
6863.41996,0.11958
6865.34843,-0.00993
6867.27690,-0.03427
6869.20536,0.03663
6871.13383,0.09754
6873.06230,0.08561
6874.99077,0.04114
6876.91924,0.03190
6878.84771,0.04352
6880.77618,0.00596
6882.70464,-0.10064
6884.63311,-0.18224
6886.56158,-0.15297
6888.49005,-0.04137
6890.41852,0.05017
6892.34699,0.06442
6894.27546,0.05711
6896.20393,0.08024
6898.13239,0.10174
6900.06086,0.09835
6901.98933,0.09332
6903.91780,0.11540
6905.84627,0.10766
6907.77474,0.00631
6909.70321,-0.07572
6911.63167,-0.03240
6913.56014,0.07447
6915.48861,0.11608
6917.41708,0.09709
6919.34555,0.08017
6921.27402,0.06807
6923.20249,0.08798
6925.13096,0.19883
6927.05942,0.32255
6928.98789,0.29887
6930.91636,0.15883
6932.84483,0.06391
6934.77330,0.02182
6936.70177,-0.00532
6938.63024,0.02002
6940.55870,0.07398
6942.48717,0.03840
6944.41564,-0.01711
6946.34411,0.04430
6948.27258,0.15711
6950.20105,0.18701
6952.12952,0.18503
6954.05799,0.22213
6955.98645,0.24180
6957.91492,0.19339
6959.84339,0.12138
6961.77186,0.10073
6963.70033,0.14441
6965.62880,0.17013
6967.55727,0.11371
6969.48573,0.02529
6971.41420,-0.01426
6973.34267,-0.01340
6975.27114,-0.04314
6977.19961,-0.11820
6979.12808,-0.14490
6981.05655,-0.09973
6982.98501,-0.01286
6984.91348,0.08476
6986.84195,0.11865
6988.77042,0.06792
6990.69889,0.01315
6992.62736,0.01601
6994.55583,0.03653
6996.48430,0.04150
6998.41276,0.09070
7000.34123,0.17829
7002.26970,0.21825
7004.19817,0.18932
7006.12664,0.10205
7008.05511,0.04119
7009.98358,0.09370
7011.91204,0.18767
7013.84051,0.14482
7015.76898,0.00070
7017.69745,0.00317
7019.62592,0.10159
7021.55439,0.07815
7023.48286,-0.02577
7025.41133,-0.04593
7027.33979,0.02106
7029.26826,0.10733
7031.19673,0.17250
7033.12520,0.22122
7035.05367,0.20602
7036.98214,0.08387
7038.91061,-0.01031
7040.83907,0.02194
7042.76754,0.12532
7044.69601,0.14554
7046.62448,0.04760
7048.55295,-0.01970
7050.48142,0.02448
7052.40989,0.08895
7054.33836,0.07141
7056.26682,-0.00374
7058.19529,-0.01347
7060.12376,0.06587
7062.05223,0.10717
7063.98070,0.03069
7065.90917,-0.04636
7067.83764,-0.03426
7069.76610,0.00302
7071.69457,0.01120
7073.62304,0.05092
7075.55151,0.14484
7077.47998,0.25317
7079.40845,0.36499
7081.33692,0.40121
7083.26539,0.31878
7085.19385,0.23861
7087.12232,0.19311
7089.05079,0.14691
7090.97926,0.10210
7092.90773,0.08290
7094.83620,0.05891
7096.76467,0.01249
7098.69313,-0.01556
7100.62160,-0.02168
7102.55007,-0.04889
7104.47854,-0.07200
7106.40701,-0.03810
7108.33548,-0.02257
7110.26395,-0.02280
7112.19242,0.07236
7114.12088,0.21762
7116.04935,0.29682
7117.97782,0.19668
7119.90629,-0.01554
7121.83476,-0.11045
7123.76323,-0.06886
7125.69170,0.03156
7127.62016,0.06348
7129.54863,-0.02152
7131.47710,-0.04988
7133.40557,0.06141
7135.33404,0.15027
7137.26251,0.13726
7139.19098,0.11036
7141.11944,0.13919
7143.04791,0.18261
7144.97638,0.16170
7146.90485,0.10253
7148.83332,0.07338
7150.76179,0.02783
7152.69026,-0.01152
7154.61873,0.06324
7156.54719,0.12445
7158.47566,0.07453
7160.40413,0.03802
7162.33260,0.06840
7164.26107,0.09396
7166.18954,0.08301
7168.11801,0.08990
7170.04647,0.15367
7171.97494,0.14416
7173.90341,-0.01365
7175.83188,-0.11551
7177.76035,-0.04418
7179.68882,0.03423
7181.61729,0.09158
7183.54576,0.15660
7185.47422,0.16504
7187.40269,0.15986
7189.33116,0.16804
7191.25963,0.18177
7193.18810,0.22153
7195.11657,0.25835
7197.04504,0.25099
7198.97350,0.19322
7200.90197,0.08326
7202.83044,-0.02728
7204.75891,-0.01008
7206.68738,0.10233
7208.61585,0.16110
7210.54432,0.15854
7212.47279,0.15486
7214.40125,0.21864
7216.32972,0.27064
7218.25819,0.16830
7220.18666,0.02143
7222.11513,-0.01008
7224.04360,0.06126
7225.97207,0.14802
7227.90053,0.19600
7229.82900,0.20839
7231.75747,0.15686
7233.68594,0.10556
7235.61441,0.07237
7237.54288,0.02105
7239.47135,-0.02126
7241.39982,-0.06293
7243.32828,-0.10219
7245.25675,-0.10362
7247.18522,-0.12748
7249.11369,-0.16648
7251.04216,-0.12706
7252.97063,0.00795
7254.89910,0.09001
7256.82756,0.13557
7258.75603,0.12814
7260.68450,0.03535
7262.61297,-0.00708
7264.54144,0.05220
7266.46991,0.10050
7268.39838,0.04960
7270.32685,-0.07798
7272.25531,-0.11209
7274.18378,-0.03107
7276.11225,-0.01573
7278.04072,0.00629
7279.96919,0.12149
7281.89766,0.12858
7283.82613,-0.01164
7285.75459,-0.11798
7287.68306,-0.09727
7289.61153,-0.02192
7291.54000,-0.00727
7293.46847,0.00854
7295.39694,0.04753
7297.32541,0.04065
7299.25387,0.03430
7301.18234,0.07545
7303.11081,0.14993
7305.03928,0.25423
7306.96775,0.32920
7308.89622,0.25010
7310.82469,0.14236
7312.75316,0.16402
7314.68162,0.26001
7316.61009,0.35122
7318.53856,0.34104
7320.46703,0.23189
7322.39550,0.06478
7324.32397,-0.04222
7326.25244,0.01798
7328.18090,0.14029
7330.10937,0.18419
7332.03784,0.22203
7333.96631,0.28108
7335.89478,0.30221
7337.82325,0.30678
7339.75172,0.26310
7341.68019,0.19199
7343.60865,0.20281
7345.53712,0.21069
7347.46559,0.14408
7349.39406,0.10210
7351.32253,0.08627
7353.25100,0.02686
7355.17947,-0.00905
7357.10793,-0.01268
7359.03640,0.00881
7360.96487,0.15732
7362.89334,0.28770
7364.82181,0.18584
7366.75028,0.02285
7368.67875,0.03095
7370.60722,0.07596
7372.53568,0.00609
7374.46415,-0.10778
7376.39262,-0.13979
7378.32109,-0.09583
7380.24956,-0.00479
7382.17803,0.11175
7384.10650,0.17189
7386.03496,0.15975
7387.96343,0.07908
7389.89190,0.00061
7391.82037,0.06588
7393.74884,0.18609
7395.67731,0.13194
7397.60578,-0.00391
7399.53425,-0.05350
7401.46271,-0.04006
7403.39118,0.03096
7405.31965,0.13384
7407.24812,0.21543
7409.17659,0.23058
7411.10506,0.10052
7413.03353,-0.07944
7414.96199,-0.16676
7416.89046,-0.14017
7418.81893,-0.03150
7420.74740,0.10783
7422.67587,0.21030
7424.60434,0.22059
7426.53281,0.17027
7428.46128,0.12698
7430.38974,0.08000
7432.31821,0.00256
7434.24668,0.00375
7436.17515,0.12548
7438.10362,0.24508
7440.03209,0.32570
7441.96056,0.32616
7443.88902,0.23863
7445.81749,0.19030
7447.74596,0.17095
7449.67443,0.10768
7451.60290,0.03804
7453.53137,0.02988
7455.45984,0.07174
7457.38831,0.10688
7459.31677,0.05998
7461.24524,-0.03316
7463.17371,-0.02760
7465.10218,0.01598
7467.03065,-0.01455
7468.95912,0.00783
7470.88759,0.19052
7472.81605,0.32646
7474.74452,0.18958
7476.67299,-0.10548
7478.60146,-0.30663
7480.52993,-0.21700
7482.45840,0.04354
7484.38687,0.16100
7486.31533,0.07045
7488.24380,-0.04595
7490.17227,-0.00510
7492.10074,0.12325
7494.02921,0.13530
7495.95768,0.05675
7497.88615,0.06173
