399.19301,0.71706
401.12148,0.33386
403.04995,0.18702
404.97842,0.17003
406.90689,0.11142
408.83536,0.04314
410.76382,0.08138
412.69229,0.10877
414.62076,0.02910
416.54923,-0.05782
418.47770,-0.07066
420.40617,0.02565
422.33464,0.10504
424.26311,0.10284
426.19157,0.05163
428.12004,0.03017
430.04851,0.03777
431.97698,0.01726
433.90545,-0.00128
435.83392,0.01618
437.76239,0.01810
439.69085,-0.02679
441.61932,-0.06711
443.54779,-0.06462
445.47626,-0.06202
447.40473,-0.03154
449.33320,0.03377
451.26167,0.06247
453.19013,0.05566
455.11860,0.03860
457.04707,0.03655
458.97554,0.06769
460.90401,0.09676
462.83248,0.11198
464.76095,0.09224
466.68942,0.03629
468.61788,0.00745
470.54635,0.04569
472.47482,0.10076
474.40329,0.07092
476.33176,0.06073
478.26023,0.09363
480.18870,0.09689
482.11716,0.09380
484.04563,0.09410
485.97410,0.04921
487.90257,-0.00199
489.83104,0.01134
491.75951,0.05134
493.68798,0.06617
495.61645,0.08066
497.54491,0.08954
499.47338,0.05775
501.40185,0.01318
503.33032,-0.00860
505.25879,-0.00781
507.18726,0.01443
509.11573,0.04476
511.04419,0.06545
512.97266,0.07150
514.90113,0.06250
516.82960,0.05225
518.75807,0.04760
520.68654,0.03565
522.61501,0.01829
524.54348,0.01222
526.47194,0.02097
528.40041,0.04061
530.32888,0.06134
532.25735,0.05558
534.18582,0.03529
536.11429,0.03528
538.04276,0.05540
539.97122,0.08281
541.89969,0.09759
543.82816,0.07988
545.75663,0.03594
547.68510,-0.00642
549.61357,0.01308
551.54204,0.17245
553.47051,0.34814
555.39897,0.29599
557.32744,0.10908
559.25591,0.03743
561.18438,0.05570
563.11285,0.06647
565.04132,0.05314
566.96979,0.03577
568.89825,0.02933
570.82672,0.01883
572.75519,0.01183
574.68366,0.02160
576.61213,0.02862
578.54060,0.01834
580.46907,0.00457
582.39754,0.00799
584.32600,0.02587
586.25447,0.03606
588.18294,0.04333
590.11141,0.05430
592.03988,0.04322
593.96835,0.02040
595.89682,0.02376
597.82528,0.04486
599.75375,0.05389
601.68222,0.04775
603.61069,0.04135
605.53916,0.03880
607.46763,0.03858
609.39610,0.04007
611.32456,0.03964
613.25303,0.04077
615.18150,0.05070
617.10997,0.06277
619.03844,0.06952
620.96691,0.07233
622.89538,0.06695
624.82385,0.05459
626.75231,0.04758
628.68078,0.04739
630.60925,0.04971
632.53772,0.05979
634.46619,0.07175
636.39466,0.07700
638.32313,0.07834
640.25159,0.06849
642.18006,0.04878
644.10853,0.03972
646.03700,0.04599
647.96547,0.05760
649.89394,0.06788
651.82241,0.06510
653.75088,0.04879
655.67934,0.04344
657.60781,0.05287
659.53628,0.05752
661.46475,0.05476
663.39322,0.05341
665.32169,0.05721
667.25016,0.06226
669.17862,0.06614
671.10709,0.06675
673.03556,0.06231
674.96403,0.06271
676.89250,0.06687
678.82097,0.06273
680.74944,0.05414
682.67791,0.04634
684.60637,0.04077
686.53484,0.04267
688.46331,0.04823
690.39178,0.05180
692.32025,0.05474
694.24872,0.05404
696.17719,0.04812
698.10565,0.04223
700.03412,0.04327
701.96259,0.04974
703.89106,0.05360
705.81953,0.05583
707.74800,0.05626
709.67647,0.05271
711.60494,0.05069
713.53340,0.05037
715.46187,0.04897
717.39034,0.05117
719.31881,0.05769
721.24728,0.05985
723.17575,0.06074
725.10422,0.06481
727.03268,0.06103
728.96115,0.05151
730.88962,0.05086
732.81809,0.05935
734.74656,0.06898
736.67503,0.07578
738.60350,0.07246
740.53197,0.05742
742.46043,0.04816
744.38890,0.05346
746.31737,0.05978
748.24584,0.05658
750.17431,0.04878
752.10278,0.04408
754.03125,0.04331
755.95971,0.04784
757.88818,0.05453
759.81665,0.05571
761.74512,0.05463
763.67359,0.05593
765.60206,0.06051
767.53053,0.06534
769.45900,0.06343
771.38746,0.06050
773.31593,0.06407
775.24440,0.06826
777.17287,0.06840
779.10134,0.06737
781.02981,0.06636
782.95828,0.06502
784.88674,0.06629
786.81521,0.06796
788.74368,0.06603
790.67215,0.06593
792.60062,0.07125
794.52909,0.07246
796.45756,0.06096
798.38602,0.04889
800.31449,0.05106
802.24296,0.05994
804.17143,0.06257
806.09990,0.05989
808.02837,0.05268
809.95684,0.04472
811.88531,0.04805
813.81377,0.05647
815.74224,0.05474
817.67071,0.05168
819.59918,0.05612
821.52765,0.05656
823.45612,0.04761
825.38459,0.04092
827.31305,0.04740
829.24152,0.05850
831.16999,0.06344
833.09846,0.06896
835.02693,0.07445
836.95540,0.06985
838.88387,0.05914
840.81234,0.04861
842.74080,0.04352
844.66927,0.04872
846.59774,0.05655
848.52621,0.05888
850.45468,0.05862
852.38315,0.06049
854.31162,0.06173
856.24008,0.05855
858.16855,0.05425
860.09702,0.04959
862.02549,0.04427
863.95396,0.04657
865.88243,0.05516
867.81090,0.05939
869.73937,0.06100
871.66783,0.06428
873.59630,0.06607
875.52477,0.06427
877.45324,0.06203
879.38171,0.06023
881.31018,0.05677
883.23865,0.05756
885.16711,0.06298
887.09558,0.06156
889.02405,0.05661
890.95252,0.05943
892.88099,0.06585
894.80946,0.06845
896.73793,0.06754
898.66640,0.06595
900.59486,0.06549
902.52333,0.06605
904.45180,0.06915
906.38027,0.07413
908.30874,0.07444
910.23721,0.06860
912.16568,0.06240
914.09414,0.06060
916.02261,0.06406
917.95108,0.06780
919.87955,0.06568
921.80802,0.05878
923.73649,0.05142
925.66496,0.04700
927.59343,0.04818
929.52189,0.05484
931.45036,0.06296
933.37883,0.06587
935.30730,0.06251
937.23577,0.05955
939.16424,0.05985
941.09271,0.06180
943.02117,0.06278
944.94964,0.06012
946.87811,0.05819
948.80658,0.05991
950.73505,0.05920
952.66352,0.05631
954.59199,0.05826
956.52045,0.06222
958.44892,0.05896
960.37739,0.05338
962.30586,0.05685
964.23433,0.06322
966.16280,0.06207
968.09127,0.05809
970.01974,0.05817
971.94820,0.06188
973.87667,0.06549
975.80514,0.06587
977.73361,0.06382
979.66208,0.06337
981.59055,0.06503
983.51902,0.06479
985.44748,0.06336
987.37595,0.06432
989.30442,0.06605
991.23289,0.06586
993.16136,0.06339
995.08983,0.05876
997.01830,0.05310
998.94677,0.04960
1000.87523,0.05205
1002.80370,0.05835
1004.73217,0.05970
1006.66064,0.05468
1008.58911,0.05043
1010.51758,0.04961
1012.44605,0.05230
1014.37451,0.05738
1016.30298,0.05994
1018.23145,0.06140
1020.15992,0.06614
1022.08839,0.06998
1024.01686,0.06991
1025.94533,0.06622
1027.87380,0.05779
1029.80226,0.05263
1031.73073,0.05819
1033.65920,0.06512
1035.58767,0.06542
1037.51614,0.06635
1039.44461,0.07134
1041.37308,0.07372
1043.30154,0.07184
1045.23001,0.06572
1047.15848,0.05913
1049.08695,0.06181
1051.01542,0.07030
1052.94389,0.07465
1054.87236,0.07480
1056.80083,0.07324
1058.72929,0.07107
1060.65776,0.07063
1062.58623,0.07269
1064.51470,0.07434
1066.44317,0.07174
1068.37164,0.06553
1070.30011,0.06316
1072.22857,0.06909
1074.15704,0.07417
1076.08551,0.07164
1078.01398,0.06808
1079.94245,0.06886
1081.87092,0.07354
1083.79939,0.07766
1085.72786,0.07682
1087.65632,0.07405
1089.58479,0.07121
1091.51326,0.06616
1093.44173,0.06056
1095.37020,0.05970
1097.29867,0.06767
1099.22714,0.07953
1101.15560,0.08481
1103.08407,0.08188
1105.01254,0.07932
1106.94101,0.08343
1108.86948,0.08807
1110.79795,0.08393
1112.72642,0.07571
1114.65489,0.07181
1116.58335,0.07154
1118.51182,0.07188
1120.44029,0.07130
1122.36876,0.06936
1124.29723,0.06751
1126.22570,0.06759
1128.15417,0.06911
1130.08263,0.07076
1132.01110,0.07037
1133.93957,0.06678
1135.86804,0.06286
1137.79651,0.05954
1139.72498,0.05609
1141.65345,0.05492
1143.58191,0.05952
1145.51038,0.06866
1147.43885,0.07559
1149.36732,0.07745
1151.29579,0.07670
1153.22426,0.07415
1155.15273,0.07122
1157.08120,0.07120
1159.00966,0.07365
1160.93813,0.07568
1162.86660,0.07617
1164.79507,0.07616
1166.72354,0.07571
1168.65201,0.07309
1170.58048,0.07179
1172.50894,0.07457
1174.43741,0.07579
1176.36588,0.07307
1178.29435,0.07025
1180.22282,0.06966
1182.15129,0.07241
1184.07976,0.07785
1186.00823,0.08308
1187.93669,0.08548
1189.86516,0.08307
1191.79363,0.07750
1193.72210,0.07360
1195.65057,0.07251
1197.57904,0.07235
1199.50751,0.07237
1201.43597,0.07171
1203.36444,0.06959
1205.29291,0.06825
1207.22138,0.06852
1209.14985,0.06846
1211.07832,0.06973
1213.00679,0.07315
1214.93526,0.07592
1216.86372,0.07581
1218.79219,0.07189
1220.72066,0.06628
1222.64913,0.06310
1224.57760,0.06456
1226.50607,0.06897
1228.43454,0.07335
1230.36300,0.07626
1232.29147,0.07724
1234.21994,0.07725
1236.14841,0.07580
1238.07688,0.07315
1240.00535,0.07352
1241.93382,0.07606
1243.86229,0.07456
1245.79075,0.07010
1247.71922,0.06894
1249.64769,0.07111
1251.57616,0.07313
1253.50463,0.07305
1255.43310,0.07173
1257.36157,0.07257
1259.29003,0.07546
1261.21850,0.07651
1263.14697,0.07437
1265.07544,0.07077
1267.00391,0.06917
1268.93238,0.07179
1270.86085,0.07504
1272.78932,0.07474
1274.71778,0.07268
1276.64625,0.07214
1278.57472,0.07147
1280.50319,0.06948
1282.43166,0.06966
1284.36013,0.07188
1286.28860,0.07224
1288.21706,0.07097
1290.14553,0.07133
1292.07400,0.07318
1294.00247,0.07338
1295.93094,0.07286
1297.85941,0.07302
1299.78788,0.07159
1301.71634,0.06810
1303.64481,0.06646
1305.57328,0.06938
1307.50175,0.07327
1309.43022,0.07434
1311.35869,0.07399
1313.28716,0.07553
1315.21563,0.07757
1317.14409,0.07690
1319.07256,0.07594
1321.00103,0.07613
1322.92950,0.07571
1324.85797,0.07394
1326.78644,0.07197
1328.71491,0.07180
1330.64337,0.07196
1332.57184,0.07119
1334.50031,0.07017
1336.42878,0.07038
1338.35725,0.07397
1340.28572,0.07703
1342.21419,0.07614
1344.14266,0.07439
1346.07112,0.07184
1347.99959,0.07021
1349.92806,0.07260
1351.85653,0.07381
1353.78500,0.07015
1355.71347,0.06736
1357.64194,0.06877
1359.57040,0.07139
1361.49887,0.07304
1363.42734,0.07301
1365.35581,0.07190
1367.28428,0.07240
1369.21275,0.07486
1371.14122,0.07607
1373.06969,0.07475
1374.99815,0.07327
1376.92662,0.07356
1378.85509,0.07483
1380.78356,0.07597
1382.71203,0.07649
1384.64050,0.07759
1386.56897,0.08057
1388.49743,0.08244
1390.42590,0.08081
1392.35437,0.07915
1394.28284,0.07977
1396.21131,0.08201
1398.13978,0.08303
1400.06825,0.08028
1401.99672,0.07617
1403.92518,0.07416
1405.85365,0.07437
1407.78212,0.07512
1409.71059,0.07654
1411.63906,0.07864
1413.56753,0.08019
1415.49600,0.08312
1417.42446,0.08936
1419.35293,0.09298
1421.28140,0.08921
1423.20987,0.08353
1425.13834,0.07940
1427.06681,0.08005
1428.99528,0.08390
1430.92375,0.08449
1432.85221,0.08116
1434.78068,0.07859
1436.70915,0.07762
1438.63762,0.07692
1440.56609,0.07733
1442.49456,0.07826
1444.42303,0.07856
1446.35149,0.08011
1448.27996,0.08286
1450.20843,0.08304
1452.13690,0.08292
1454.06537,0.08716
1455.99384,0.09473
1457.92231,0.09617
1459.85077,0.08888
1461.77924,0.08181
1463.70771,0.07761
1465.63618,0.07828
1467.56465,0.08088
1469.49312,0.08234
1471.42159,0.08419
1473.35006,0.08708
1475.27852,0.08806
1477.20699,0.08641
1479.13546,0.08319
1481.06393,0.08009
1482.99240,0.07873
1484.92087,0.07998
1486.84934,0.08219
1488.77780,0.08061
1490.70627,0.07660
1492.63474,0.07709
1494.56321,0.08066
1496.49168,0.08475
1498.42015,0.08613
1500.34862,0.08360
1502.27709,0.08143
1504.20555,0.08340
1506.13402,0.09230
1508.06249,0.09816
1509.99096,0.09341
1511.91943,0.09047
1513.84790,0.09131
1515.77637,0.09136
1517.70483,0.08811
1519.63330,0.08931
1521.56177,0.09541
1523.49024,0.09616
1525.41871,0.09427
1527.34718,0.09192
1529.27565,0.08937
1531.20412,0.09017
1533.13258,0.09244
1535.06105,0.09088
1536.98952,0.08793
1538.91799,0.08556
1540.84646,0.08702
1542.77493,0.09252
1544.70340,0.09175
1546.63186,0.08746
1548.56033,0.08622
1550.48880,0.08851
1552.41727,0.09221
1554.34574,0.09638
1556.27421,0.10074
1558.20268,0.10690
1560.13115,0.10198
1562.05961,0.09003
1563.98808,0.08337
1565.91655,0.08355
1567.84502,0.08955
1569.77349,0.09349
1571.70196,0.08991
1573.63043,0.08565
1575.55889,0.08368
1577.48736,0.08464
1579.41583,0.08602
1581.34430,0.08443
1583.27277,0.08173
1585.20124,0.08217
1587.12971,0.08409
1589.05818,0.08397
1590.98664,0.08287
1592.91511,0.08294
1594.84358,0.08284
1596.77205,0.07994
1598.70052,0.07695
1600.62899,0.07712
1602.55746,0.07862
1604.48592,0.07922
1606.41439,0.08045
1608.34286,0.08294
1610.27133,0.08433
1612.19980,0.08484
1614.12827,0.08649
1616.05674,0.08831
1617.98521,0.08708
1619.91367,0.08522
1621.84214,0.08575
1623.77061,0.08711
1625.69908,0.08588
1627.62755,0.08188
1629.55602,0.07816
1631.48449,0.07928
1633.41295,0.08495
1635.34142,0.08891
1637.26989,0.08540
1639.19836,0.08282
1641.12683,0.08293
1643.05530,0.08547
1644.98377,0.09184
1646.91223,0.09664
1648.84070,0.09315
1650.76917,0.09187
1652.69764,0.09347
1654.62611,0.08732
1656.55458,0.08346
1658.48305,0.08450
1660.41152,0.08607
1662.33998,0.08561
1664.26845,0.08423
1666.19692,0.08551
1668.12539,0.09034
1670.05386,0.09401
1671.98233,0.09417
1673.91080,0.09610
1675.83926,0.09718
1677.76773,0.09452
1679.69620,0.09089
1681.62467,0.08842
1683.55314,0.08917
1685.48161,0.09065
1687.41008,0.08933
1689.33855,0.08703
1691.26701,0.08577
1693.19548,0.08781
1695.12395,0.09315
1697.05242,0.09927
1698.98089,0.10189
1700.90936,0.09718
1702.83783,0.09249
1704.76629,0.09294
1706.69476,0.09363
1708.62323,0.09219
1710.55170,0.09050
1712.48017,0.08908
1714.40864,0.09003
1716.33711,0.09496
1718.26558,0.09472
1720.19404,0.08766
1722.12251,0.08242
1724.05098,0.07984
1725.97945,0.07932
1727.90792,0.08104
1729.83639,0.08424
1731.76486,0.08692
1733.69332,0.08744
1735.62179,0.08583
1737.55026,0.08517
1739.47873,0.08535
1741.40720,0.08448
1743.33567,0.08288
1745.26414,0.08298
1747.19261,0.08646
1749.12107,0.09141
1751.04954,0.09201
1752.97801,0.08738
1754.90648,0.08356
1756.83495,0.08425
1758.76342,0.08742
1760.69189,0.08883
1762.62035,0.08755
1764.54882,0.08628
1766.47729,0.08667
1768.40576,0.08695
1770.33423,0.08739
1772.26270,0.08868
1774.19117,0.08717
1776.11964,0.08453
1778.04810,0.08430
1779.97657,0.08553
1781.90504,0.08461
1783.83351,0.08214
1785.76198,0.08179
1787.69045,0.08398
1789.61892,0.08775
1791.54738,0.09260
1793.47585,0.09359
1795.40432,0.08922
1797.33279,0.08555
1799.26126,0.08542
1801.18973,0.08598
1803.11820,0.08461
1805.04666,0.08304
1806.97513,0.08176
1808.90360,0.08094
1810.83207,0.08123
1812.76054,0.08175
1814.68901,0.08273
1816.61748,0.08320
1818.54595,0.08170
1820.47441,0.08105
1822.40288,0.08312
1824.33135,0.08497
1826.25982,0.08473
1828.18829,0.08464
1830.11676,0.08492
1832.04523,0.08424
1833.97369,0.08322
1835.90216,0.08235
1837.83063,0.08209
1839.75910,0.08294
1841.68757,0.08437
1843.61604,0.08462
1845.54451,0.08268
1847.47298,0.08103
1849.40144,0.08085
1851.32991,0.08096
1853.25838,0.08052
1855.18685,0.08008
1857.11532,0.08015
1859.04379,0.08106
1860.97226,0.08198
1862.90072,0.08183
1864.82919,0.08255
1866.75766,0.08534
1868.68613,0.08582
1870.61460,0.08274
1872.54307,0.08161
1874.47154,0.08189
1876.40001,0.08145
1878.32847,0.08148
1880.25694,0.08184
1882.18541,0.08138
1884.11388,0.08144
1886.04235,0.08260
1887.97082,0.08334
1889.89929,0.08277
1891.82775,0.08171
1893.75622,0.08147
1895.68469,0.08191
1897.61316,0.08252
1899.54163,0.08349
1901.47010,0.08380
1903.39857,0.08294
1905.32704,0.08283
1907.25550,0.08407
1909.18397,0.08488
1911.11244,0.08405
1913.04091,0.08193
1914.96938,0.08071
1916.89785,0.08154
1918.82632,0.08218
1920.75478,0.08254
1922.68325,0.08339
1924.61172,0.08359
1926.54019,0.08395
1928.46866,0.08496
1930.39713,0.08523
1932.32560,0.08395
1934.25407,0.08149
1936.18253,0.07963
1938.11100,0.08028
1940.03947,0.08256
1941.96794,0.08424
1943.89641,0.08482
1945.82488,0.08463
1947.75335,0.08412
1949.68181,0.08424
1951.61028,0.08460
1953.53875,0.08424
1955.46722,0.08345
1957.39569,0.08327
1959.32416,0.08433
1961.25263,0.08613
1963.18110,0.08711
1965.10956,0.08653
1967.03803,0.08570
1968.96650,0.08489
1970.89497,0.08332
1972.82344,0.08168
1974.75191,0.08049
1976.68038,0.08034
1978.60884,0.08106
1980.53731,0.08152
1982.46578,0.08230
1984.39425,0.08354
1986.32272,0.08437
1988.25119,0.08501
1990.17966,0.08576
1992.10812,0.08566
1994.03659,0.08478
1995.96506,0.08428
1997.89353,0.08338
1999.82200,0.08149
2001.75047,0.08027
2003.67894,0.08162
2005.60741,0.08436
2007.53587,0.08542
2009.46434,0.08476
2011.39281,0.08461
2013.32128,0.08451
2015.24975,0.08287
2017.17822,0.08120
2019.10669,0.08084
2021.03515,0.08102
2022.96362,0.08196
2024.89209,0.08405
2026.82056,0.08521
2028.74903,0.08370
2030.67750,0.08165
2032.60597,0.08148
2034.53444,0.08279
2036.46290,0.08377
2038.39137,0.08352
2040.31984,0.08322
2042.24831,0.08423
2044.17678,0.08531
2046.10525,0.08451
2048.03372,0.08302
2049.96218,0.08239
2051.89065,0.08234
2053.81912,0.08281
2055.74759,0.08330
2057.67606,0.08312
2059.60453,0.08323
2061.53300,0.08446
2063.46147,0.08581
2065.38993,0.08580
2067.31840,0.08445
2069.24687,0.08357
2071.17534,0.08365
2073.10381,0.08384
2075.03228,0.08494
2076.96075,0.08662
2078.88921,0.08664
2080.81768,0.08469
2082.74615,0.08345
2084.67462,0.08531
2086.60309,0.08765
2088.53156,0.08727
2090.46003,0.08573
2092.38850,0.08486
2094.31696,0.08502
2096.24543,0.08595
2098.17390,0.08566
2100.10237,0.08349
2102.03084,0.08260
2103.95931,0.08420
2105.88778,0.08539
2107.81624,0.08496
2109.74471,0.08457
2111.67318,0.08461
2113.60165,0.08372
2115.53012,0.08276
2117.45859,0.08312
2119.38706,0.08404
2121.31553,0.08521
2123.24399,0.08613
2125.17246,0.08641
2127.10093,0.08569
2129.02940,0.08395
2130.95787,0.08354
2132.88634,0.08479
2134.81481,0.08515
2136.74327,0.08432
2138.67174,0.08399
2140.60021,0.08324
2142.52868,0.08165
2144.45715,0.08186
2146.38562,0.08268
2148.31409,0.08208
2150.24255,0.08264
2152.17102,0.08477
2154.09949,0.08544
2156.02796,0.08517
2157.95643,0.08619
2159.88490,0.08711
2161.81337,0.08694
2163.74184,0.08717
2165.67030,0.08732
2167.59877,0.08610
2169.52724,0.08492
2171.45571,0.08558
2173.38418,0.08748
2175.31265,0.08864
2177.24112,0.08799
2179.16958,0.08577
2181.09805,0.08331
2183.02652,0.08241
2184.95499,0.08293
2186.88346,0.08368
2188.81193,0.08416
2190.74040,0.08342
2192.66887,0.08158
2194.59733,0.08110
2196.52580,0.08319
2198.45427,0.08492
2200.38274,0.08421
2202.31121,0.08337
2204.23968,0.08410
2206.16815,0.08491
2208.09661,0.08452
2210.02508,0.08356
2211.95355,0.08240
2213.88202,0.08089
2215.81049,0.08042
2217.73896,0.08236
2219.66743,0.08529
2221.59590,0.08721
2223.52436,0.08728
2225.45283,0.08653
2227.38130,0.08662
2229.30977,0.08683
2231.23824,0.08645
2233.16671,0.08534
2235.09518,0.08358
2237.02364,0.08248
2238.95211,0.08207
2240.88058,0.08199
2242.80905,0.08265
2244.73752,0.08333
2246.66599,0.08397
2248.59446,0.08511
2250.52293,0.08571
2252.45139,0.08543
2254.37986,0.08491
2256.30833,0.08476
2258.23680,0.08520
2260.16527,0.08528
2262.09374,0.08466
2264.02221,0.08323
2265.95067,0.08267
2267.87914,0.08448
2269.80761,0.08564
2271.73608,0.08561
2273.66455,0.08653
2275.59302,0.08639
2277.52149,0.08369
2279.44996,0.08167
2281.37842,0.08272
2283.30689,0.08465
2285.23536,0.08456
2287.16383,0.08247
2289.09230,0.08063
2291.02077,0.08095
2292.94924,0.08375
2294.87770,0.08670
2296.80617,0.08608
2298.73464,0.08287
2300.66311,0.08073
2302.59158,0.08002
2304.52005,0.08006
2306.44852,0.08051
2308.37699,0.08110
2310.30545,0.08137
2312.23392,0.08007
2314.16239,0.07755
2316.09086,0.07611
2318.01933,0.07873
2319.94780,0.08438
2321.87627,0.08800
2323.80473,0.08914
2325.73320,0.08764
2327.66167,0.08527
2329.59014,0.08827
2331.51861,0.09108
2333.44708,0.08569
2335.37555,0.08042
2337.30401,0.08342
2339.23248,0.08807
2341.16095,0.08531
2343.08942,0.08016
2345.01789,0.08009
2346.94636,0.08056
2348.87483,0.08072
2350.80330,0.08368
2352.73176,0.08592
2354.66023,0.08176
2356.58870,0.07798
2358.51717,0.07887
2360.44564,0.07506
2362.37411,0.06793
2364.30258,0.06613
2366.23104,0.07200
2368.15951,0.08384
2370.08798,0.08857
2372.01645,0.08473
2373.94492,0.08254
2375.87339,0.08210
2377.80186,0.08198
2379.73033,0.08345
2381.65879,0.08486
2383.58726,0.08377
2385.51573,0.08083
2387.44420,0.07875
2389.37267,0.07901
2391.30114,0.08098
2393.22961,0.08325
2395.15807,0.08517
2397.08654,0.08635
2399.01501,0.08658
2400.94348,0.08604
2402.87195,0.08471
2404.80042,0.08419
2406.72889,0.08471
2408.65736,0.08424
2410.58582,0.08350
2412.51429,0.08290
2414.44276,0.08226
2416.37123,0.08338
2418.29970,0.08494
2420.22817,0.08531
2422.15664,0.08552
2424.08510,0.08467
2426.01357,0.08337
2427.94204,0.08400
2429.87051,0.08510
2431.79898,0.08496
2433.72745,0.08454
2435.65592,0.08461
2437.58439,0.08506
2439.51285,0.08519
2441.44132,0.08483
2443.36979,0.08463
2445.29826,0.08491
2447.22673,0.08578
2449.15520,0.08626
2451.08367,0.08460
2453.01213,0.08210
2454.94060,0.08237
2456.86907,0.08491
2458.79754,0.08641
2460.72601,0.08600
2462.65448,0.08462
2464.58295,0.08397
2466.51142,0.08421
2468.43988,0.08406
2470.36835,0.08504
2472.29682,0.08751
2474.22529,0.08812
2476.15376,0.08706
2478.08223,0.08636
2480.01070,0.08546
2481.93916,0.08488
2483.86763,0.08504
2485.79610,0.08482
2487.72457,0.08485
2489.65304,0.08625
2491.58151,0.08659
2493.50998,0.08489
2495.43844,0.08462
2497.36691,0.08613
2499.29538,0.08728
2501.22385,0.08784
2503.15232,0.08925
2505.08079,0.09120
2507.00926,0.09032
2508.93773,0.08765
2510.86619,0.08744
2512.79466,0.08860
2514.72313,0.08876
2516.65160,0.08825
2518.58007,0.08712
2520.50854,0.08608
2522.43701,0.08575
2524.36547,0.08487
2526.29394,0.08394
2528.22241,0.08481
2530.15088,0.08716
2532.07935,0.08880
2534.00782,0.08783
2535.93629,0.08547
2537.86476,0.08486
2539.79322,0.08641
2541.72169,0.08750
2543.65016,0.08759
2545.57863,0.08808
2547.50710,0.08876
2549.43557,0.08923
2551.36404,0.08898
2553.29250,0.08803
2555.22097,0.08759
2557.14944,0.08691
2559.07791,0.08502
2561.00638,0.08329
2562.93485,0.08301
2564.86332,0.08425
2566.79179,0.08514
2568.72025,0.08442
2570.64872,0.08491
2572.57719,0.08788
2574.50566,0.08939
2576.43413,0.08741
2578.36260,0.08577
2580.29107,0.08783
2582.21953,0.08963
2584.14800,0.08720
2586.07647,0.08482
2588.00494,0.08583
2589.93341,0.08886
2591.86188,0.09201
2593.79035,0.09173
2595.71882,0.08824
2597.64728,0.08646
2599.57575,0.08749
2601.50422,0.08817
2603.43269,0.08607
2605.36116,0.08390
2607.28963,0.08567
2609.21810,0.08879
2611.14656,0.08974
2613.07503,0.08952
2615.00350,0.09005
2616.93197,0.09156
2618.86044,0.09283
2620.78891,0.09351
2622.71738,0.09387
2624.64585,0.09256
2626.57431,0.08978
2628.50278,0.08869
2630.43125,0.09010
2632.35972,0.09051
2634.28819,0.08804
2636.21666,0.08588
2638.14513,0.08658
2640.07359,0.08798
2642.00206,0.08810
2643.93053,0.08798
2645.85900,0.08858
2647.78747,0.08967
2649.71594,0.09063
2651.64441,0.08989
2653.57288,0.08707
2655.50134,0.08477
2657.42981,0.08467
2659.35828,0.08567
2661.28675,0.08695
2663.21522,0.08860
2665.14369,0.08973
2667.07216,0.08959
2669.00062,0.08931
2670.92909,0.08927
2672.85756,0.08956
2674.78603,0.09142
2676.71450,0.09410
2678.64297,0.09535
2680.57144,0.09451
2682.49990,0.09292
2684.42837,0.09265
2686.35684,0.09375
2688.28531,0.09388
2690.21378,0.09184
2692.14225,0.08970
2694.07072,0.09017
2695.99919,0.09224
2697.92765,0.09330
2699.85612,0.09365
2701.78459,0.09378
2703.71306,0.09245
2705.64153,0.09091
2707.57000,0.09199
2709.49847,0.09504
2711.42693,0.09660
2713.35540,0.09456
2715.28387,0.09083
2717.21234,0.08903
2719.14081,0.08953
2721.06928,0.08987
2722.99775,0.08929
2724.92622,0.08946
2726.85468,0.09103
2728.78315,0.09214
2730.71162,0.09177
2732.64009,0.09123
2734.56856,0.09108
2736.49703,0.09051
2738.42550,0.08995
2740.35396,0.08972
2742.28243,0.08881
2744.21090,0.08802
2746.13937,0.08861
2748.06784,0.08950
2749.99631,0.09041
2751.92478,0.09222
2753.85325,0.09393
2755.78171,0.09454
2757.71018,0.09503
2759.63865,0.09516
2761.56712,0.09439
2763.49559,0.09425
2765.42406,0.09382
2767.35253,0.09237
2769.28099,0.09201
2771.20946,0.09195
2773.13793,0.09130
2775.06640,0.09260
2776.99487,0.09526
2778.92334,0.09584
2780.85181,0.09520
2782.78028,0.09544
2784.70874,0.09597
2786.63721,0.09640
2788.56568,0.09598
2790.49415,0.09470
2792.42262,0.09383
2794.35109,0.09401
2796.27956,0.09571
2798.20802,0.09697
2800.13649,0.09590
2802.06496,0.09435
2803.99343,0.09477
2805.92190,0.09808
2807.85037,0.10100
2809.77884,0.09991
2811.70731,0.09703
2813.63577,0.09502
2815.56424,0.09406
2817.49271,0.09441
2819.42118,0.09435
2821.34965,0.09245
2823.27812,0.09092
2825.20659,0.09110
2827.13505,0.09178
2829.06352,0.09177
2830.99199,0.09153
2832.92046,0.09296
2834.84893,0.09443
2836.77740,0.09309
2838.70587,0.09169
2840.63433,0.09219
2842.56280,0.09305
2844.49127,0.09547
2846.41974,0.09895
2848.34821,0.09872
2850.27668,0.09434
2852.20515,0.09092
2854.13362,0.09095
2856.06208,0.09271
2857.99055,0.09395
2859.91902,0.09267
2861.84749,0.09068
2863.77596,0.09206
2865.70443,0.09493
2867.63290,0.09551
2869.56136,0.09553
2871.48983,0.09738
2873.41830,0.09868
2875.34677,0.09713
2877.27524,0.09365
2879.20371,0.09112
2881.13218,0.09182
2883.06065,0.09337
2884.98911,0.09326
2886.91758,0.09308
2888.84605,0.09461
2890.77452,0.09707
2892.70299,0.09793
2894.63146,0.09655
2896.55993,0.09586
2898.48839,0.09703
2900.41686,0.09637
2902.34533,0.09320
2904.27380,0.09156
2906.20227,0.09318
2908.13074,0.09557
2910.05921,0.09624
2911.98768,0.09574
2913.91614,0.09518
2915.84461,0.09584
2917.77308,0.09760
2919.70155,0.09859
2921.63002,0.09783
2923.55849,0.09442
2925.48696,0.09015
2927.41542,0.08942
2929.34389,0.09255
2931.27236,0.09517
2933.20083,0.09645
2935.12930,0.09723
2937.05777,0.09545
2938.98624,0.09299
2940.91471,0.09191
2942.84317,0.09149
2944.77164,0.09117
2946.70011,0.08931
2948.62858,0.08776
2950.55705,0.08933
2952.48552,0.09162
2954.41399,0.09277
2956.34245,0.09407
2958.27092,0.09587
2960.19939,0.09752
2962.12786,0.09728
2964.05633,0.09413
2965.98480,0.09188
2967.91327,0.09373
2969.84174,0.09721
2971.77020,0.09840
2973.69867,0.09678
2975.62714,0.09512
2977.55561,0.09598
2979.48408,0.09827
2981.41255,0.09830
2983.34102,0.09652
2985.26948,0.09698
2987.19795,0.09846
2989.12642,0.09724
2991.05489,0.09631
2992.98336,0.09767
2994.91183,0.09685
2996.84030,0.09466
2998.76877,0.09438
3000.69723,0.09511
3002.62570,0.09833
3004.55417,0.10180
3006.48264,0.10046
3008.41111,0.09751
3010.33958,0.09632
3012.26805,0.09353
3014.19651,0.08631
3016.12498,0.07954
3018.05345,0.08016
3019.98192,0.08666
3021.91039,0.09252
3023.83886,0.09521
3025.76733,0.09725
3027.69579,0.10075
3029.62426,0.10442
3031.55273,0.10403
3033.48120,0.09819
3035.40967,0.09415
3037.33814,0.09657
3039.26661,0.10026
3041.19508,0.10077
3043.12354,0.10018
3045.05201,0.10043
3046.98048,0.10187
3048.90895,0.10456
3050.83742,0.10506
3052.76589,0.10210
3054.69436,0.09862
3056.62282,0.09693
3058.55129,0.09831
3060.47976,0.09991
3062.40823,0.09882
3064.33670,0.09669
3066.26517,0.09455
3068.19364,0.09302
3070.12211,0.09413
3072.05057,0.09734
3073.97904,0.09711
3075.90751,0.09302
3077.83598,0.09425
3079.76445,0.10018
3081.69292,0.09922
3083.62139,0.09211
3085.54985,0.08960
3087.47832,0.09258
3089.40679,0.09511
3091.33526,0.09629
3093.26373,0.09627
3095.19220,0.09479
3097.12067,0.09375
3099.04914,0.09333
3100.97760,0.09268
3102.90607,0.09410
3104.83454,0.09822
3106.76301,0.09942
3108.69148,0.09703
3110.61995,0.09645
3112.54842,0.09782
3114.47688,0.09974
3116.40535,0.10157
3118.33382,0.10186
3120.26229,0.10148
3122.19076,0.10076
3124.11923,0.09860
3126.04770,0.09721
3127.97617,0.09853
3129.90463,0.09994
3131.83310,0.09917
3133.76157,0.09674
3135.69004,0.09554
3137.61851,0.09869
3139.54698,0.10294
3141.47545,0.10269
3143.40391,0.09877
3145.33238,0.09574
3147.26085,0.09718
3149.18932,0.10202
3151.11779,0.10472
3153.04626,0.10353
3154.97473,0.10332
3156.90320,0.10559
3158.83166,0.10504
3160.76013,0.10111
3162.68860,0.09864
3164.61707,0.09915
3166.54554,0.10162
3168.47401,0.10535
3170.40248,0.10662
3172.33094,0.10218
3174.25941,0.09872
3176.18788,0.09981
3178.11635,0.09884
3180.04482,0.09685
3181.97329,0.09831
3183.90176,0.10018
3185.83022,0.10049
3187.75869,0.10091
3189.68716,0.10197
3191.61563,0.10216
3193.54410,0.10070
3195.47257,0.10007
3197.40104,0.10257
3199.32951,0.10399
3201.25797,0.10013
3203.18644,0.09474
3205.11491,0.09207
3207.04338,0.09404
3208.97185,0.09978
3210.90032,0.10314
3212.82879,0.10443
3214.75725,0.10687
3216.68572,0.10672
3218.61419,0.10491
3220.54266,0.10423
3222.47113,0.10394
3224.39960,0.10419
3226.32807,0.10261
3228.25654,0.09984
3230.18500,0.09929
3232.11347,0.09946
3234.04194,0.09821
3235.97041,0.09660
3237.89888,0.09771
3239.82735,0.10160
3241.75582,0.10381
3243.68428,0.10216
3245.61275,0.10106
3247.54122,0.10431
3249.46969,0.10708
3251.39816,0.10418
3253.32663,0.09841
3255.25510,0.09458
3257.18357,0.09319
3259.11203,0.09386
3261.04050,0.09761
3262.96897,0.10225
3264.89744,0.10425
3266.82591,0.10472
3268.75438,0.10495
3270.68285,0.10248
3272.61131,0.09896
3274.53978,0.09926
3276.46825,0.10160
3278.39672,0.10074
3280.32519,0.09740
3282.25366,0.09675
3284.18213,0.09951
3286.11060,0.10008
3288.03906,0.09664
3289.96753,0.09510
3291.89600,0.09770
3293.82447,0.09948
3295.75294,0.09875
3297.68141,0.09871
3299.60988,0.10074
3301.53834,0.10173
3303.46681,0.09783
3305.39528,0.09184
3307.32375,0.09047
3309.25222,0.09315
3311.18069,0.09375
3313.10916,0.09204
3315.03763,0.09329
3316.96609,0.09781
3318.89456,0.10173
3320.82303,0.10344
3322.75150,0.10276
3324.67997,0.10256
3326.60844,0.10452
3328.53691,0.10444
3330.46537,0.10138
3332.39384,0.09898
3334.32231,0.09900
3336.25078,0.09990
3338.17925,0.09979
3340.10772,0.09889
3342.03619,0.09770
3343.96466,0.09695
3345.89312,0.09714
3347.82159,0.09759
3349.75006,0.09779
3351.67853,0.09756
3353.60700,0.09735
3355.53547,0.09815
3357.46394,0.09904
3359.39240,0.09863
3361.32087,0.09907
3363.24934,0.10204
3365.17781,0.10349
3367.10628,0.10023
3369.03475,0.09717
3370.96322,0.09852
3372.89168,0.10103
3374.82015,0.10193
3376.74862,0.10128
3378.67709,0.09932
3380.60556,0.09852
3382.53403,0.10007
3384.46250,0.10095
3386.39097,0.10066
3388.31943,0.10047
3390.24790,0.10070
3392.17637,0.10280
3394.10484,0.10419
3396.03331,0.10192
3397.96178,0.09888
3399.89025,0.09691
3401.81871,0.09479
3403.74718,0.09364
3405.67565,0.09365
3407.60412,0.09273
3409.53259,0.09240
3411.46106,0.09333
3413.38953,0.09479
3415.31800,0.09696
3417.24646,0.09869
3419.17493,0.09908
3421.10340,0.09721
3423.03187,0.09517
3424.96034,0.09533
3426.88881,0.09588
3428.81728,0.09726
3430.74574,0.09975
3432.67421,0.10059
3434.60268,0.10073
3436.53115,0.10195
3438.45962,0.10176
3440.38809,0.09846
3442.31656,0.09470
3444.24503,0.09414
3446.17349,0.09557
3448.10196,0.09417
3450.03043,0.08991
3451.95890,0.08850
3453.88737,0.08993
3455.81584,0.08939
3457.74431,0.09014
3459.67277,0.09308
3461.60124,0.09183
3463.52971,0.08853
3465.45818,0.08872
3467.38665,0.09075
3469.31512,0.09096
3471.24359,0.09013
3473.17206,0.09001
3475.10052,0.08927
3477.02899,0.08867
3478.95746,0.08825
3480.88593,0.08493
3482.81440,0.08138
3484.74287,0.08239
3486.67134,0.08627
3488.59980,0.08919
3490.52827,0.08970
3492.45674,0.08892
3494.38521,0.08674
3496.31368,0.08442
3498.24215,0.08708
3500.17062,0.09263
3502.09909,0.09250
3504.02755,0.08815
3505.95602,0.08781
3507.88449,0.08833
3509.81296,0.08501
3511.74143,0.08213
3513.66990,0.08283
3515.59837,0.08553
3517.52683,0.08857
3519.45530,0.09037
3521.38377,0.09015
3523.31224,0.08765
3525.24071,0.08268
3527.16918,0.07874
3529.09765,0.07990
3531.02611,0.08301
3532.95458,0.08469
3534.88305,0.08517
3536.81152,0.08346
3538.73999,0.08037
3540.66846,0.07791
3542.59693,0.07635
3544.52540,0.07617
3546.45386,0.07667
3548.38233,0.07594
3550.31080,0.07613
3552.23927,0.08038
3554.16774,0.08477
3556.09621,0.08389
3558.02468,0.08029
3559.95314,0.07824
3561.88161,0.07673
3563.81008,0.07475
3565.73855,0.07755
3567.66702,0.08422
3569.59549,0.08446
3571.52396,0.08080
3573.45243,0.07717
3575.38089,0.07407
3577.30936,0.07283
3579.23783,0.07316
3581.16630,0.07277
3583.09477,0.07260
3585.02324,0.07538
3586.95171,0.07774
3588.88017,0.07436
3590.80864,0.07040
3592.73711,0.07118
3594.66558,0.07451
3596.59405,0.07497
3598.52252,0.07328
3600.45099,0.07061
3602.37946,0.06844
3604.30792,0.06891
3606.23639,0.07015
3608.16486,0.07117
3610.09333,0.07105
3612.02180,0.06884
3613.95027,0.06841
3615.87874,0.07147
3617.80720,0.07463
3619.73567,0.07568
3621.66414,0.07312
3623.59261,0.06943
3625.52108,0.06898
3627.44955,0.07300
3629.37802,0.07463
3631.30649,0.06779
3633.23495,0.06059
3635.16342,0.05768
3637.09189,0.06078
3639.02036,0.06676
3640.94883,0.06920
3642.87730,0.06777
3644.80577,0.06689
3646.73423,0.06743
3648.66270,0.06867
3650.59117,0.07010
3652.51964,0.06923
3654.44811,0.06718
3656.37658,0.06546
3658.30505,0.06391
3660.23352,0.06206
3662.16198,0.06017
3664.09045,0.05916
3666.01892,0.05905
3667.94739,0.05889
3669.87586,0.05968
3671.80433,0.06140
3673.73280,0.06091
3675.66126,0.06164
3677.58973,0.06661
3679.51820,0.06692
3681.44667,0.06180
3683.37514,0.05849
3685.30361,0.06057
3687.23208,0.06553
3689.16055,0.06974
3691.08901,0.06929
3693.01748,0.06453
3694.94595,0.05891
3696.87442,0.05519
3698.80289,0.05527
3700.73136,0.05875
3702.65983,0.06191
3704.58829,0.06180
3706.51676,0.06155
3708.44523,0.06459
3710.37370,0.06828
3712.30217,0.06464
3714.23064,0.05775
3716.15911,0.05452
3718.08757,0.05538
3720.01604,0.05787
3721.94451,0.05873
3723.87298,0.05978
3725.80145,0.06117
3727.72992,0.06077
3729.65839,0.06153
3731.58686,0.06520
3733.51532,0.06767
3735.44379,0.06357
3737.37226,0.06099
3739.30073,0.06405
3741.22920,0.06548
3743.15767,0.06312
3745.08614,0.06118
3747.01460,0.06214
3748.94307,0.06495
3750.87154,0.06852
3752.80001,0.06584
3754.72848,0.06240
3756.65695,0.06382
3758.58542,0.06680
3760.51389,0.06668
3762.44235,0.06431
3764.37082,0.06156
3766.29929,0.06050
3768.22776,0.06291
3770.15623,0.06380
3772.08470,0.05917
3774.01317,0.05529
3775.94163,0.05519
3777.87010,0.05680
3779.79857,0.05707
3781.72704,0.05457
3783.65551,0.05411
3785.58398,0.05753
3787.51245,0.06002
3789.44092,0.06085
3791.36938,0.06097
3793.29785,0.06005
3795.22632,0.06028
3797.15479,0.06268
3799.08326,0.06533
3801.01173,0.06827
3802.94020,0.06866
3804.86866,0.06723
3806.79713,0.06718
3808.72560,0.06429
3810.65407,0.05974
3812.58254,0.05824
3814.51101,0.05930
3816.43948,0.05861
3818.36795,0.05595
3820.29641,0.05677
3822.22488,0.05904
3824.15335,0.05774
3826.08182,0.05555
3828.01029,0.05467
3829.93876,0.05484
3831.86723,0.05610
3833.79569,0.05889
3835.72416,0.05983
3837.65263,0.05996
3839.58110,0.06311
3841.50957,0.06320
3843.43804,0.06018
3845.36651,0.05755
3847.29498,0.05574
3849.22344,0.05635
3851.15191,0.06116
3853.08038,0.06903
3855.00885,0.06740
3856.93732,0.06062
3858.86579,0.05805
3860.79426,0.05933
3862.72272,0.06323
3864.65119,0.06536
3866.57966,0.06178
3868.50813,0.05769
3870.43660,0.05712
3872.36507,0.05647
3874.29354,0.05191
3876.22200,0.04696
3878.15047,0.04634
3880.07894,0.04996
3882.00741,0.05500
3883.93588,0.05982
3885.86435,0.06093
3887.79282,0.05687
3889.72129,0.05545
3891.64975,0.05927
3893.57822,0.06205
3895.50669,0.06162
3897.43516,0.06129
3899.36363,0.06097
3901.29210,0.06046
3903.22057,0.06122
3905.14903,0.06120
3907.07750,0.06060
3909.00597,0.05992
3910.93444,0.05811
3912.86291,0.05582
3914.79138,0.05314
3916.71985,0.05180
3918.64832,0.05436
3920.57678,0.05611
3922.50525,0.05423
3924.43372,0.05147
3926.36219,0.04983
3928.29066,0.05002
3930.21913,0.05095
3932.14760,0.05201
3934.07606,0.05362
3936.00453,0.05508
3937.93300,0.05715
3939.86147,0.05924
3941.78994,0.05960
3943.71841,0.05974
3945.64688,0.05970
3947.57535,0.05846
3949.50381,0.05688
3951.43228,0.05314
3953.36075,0.04816
3955.28922,0.04746
3957.21769,0.05023
3959.14616,0.05150
3961.07463,0.05197
3963.00309,0.05441
3964.93156,0.05749
3966.86003,0.05703
3968.78850,0.05319
3970.71697,0.05156
3972.64544,0.05392
3974.57391,0.05657
3976.50238,0.05524
3978.43084,0.05103
3980.35931,0.04979
3982.28778,0.05196
3984.21625,0.05327
3986.14472,0.05291
3988.07319,0.05347
3990.00166,0.05389
3991.93012,0.05176
3993.85859,0.05020
3995.78706,0.04969
3997.71553,0.04941
3999.64400,0.05139
4001.57247,0.05275
4003.50094,0.05044
4005.42941,0.04667
4007.35787,0.04387
4009.28634,0.04330
4011.21481,0.04502
4013.14328,0.04655
4015.07175,0.04491
4017.00022,0.04290
4018.92869,0.04517
4020.85715,0.04876
4022.78562,0.04964
4024.71409,0.04837
4026.64256,0.04633
4028.57103,0.04545
4030.49950,0.04638
4032.42797,0.04749
4034.35644,0.04717
4036.28490,0.04571
4038.21337,0.04438
4040.14184,0.04397
4042.07031,0.04592
4043.99878,0.04854
4045.92725,0.04774
4047.85572,0.04556
4049.78418,0.04605
4051.71265,0.04707
4053.64112,0.04633
4055.56959,0.04670
4057.49806,0.04852
4059.42653,0.04838
4061.35500,0.04649
4063.28346,0.04482
4065.21193,0.04352
4067.14040,0.04275
4069.06887,0.04417
4070.99734,0.04677
4072.92581,0.04647
4074.85428,0.04332
4076.78275,0.04237
4078.71121,0.04555
4080.63968,0.04714
4082.56815,0.04457
4084.49662,0.04303
4086.42509,0.04395
4088.35356,0.04491
4090.28203,0.04550
4092.21049,0.04484
4094.13896,0.04197
4096.06743,0.03977
4097.99590,0.04076
4099.92437,0.04345
4101.85284,0.04666
4103.78131,0.04848
4105.70978,0.04642
4107.63824,0.04354
4109.56671,0.04443
4111.49518,0.04768
4113.42365,0.04871
4115.35212,0.04654
4117.28059,0.04579
4119.20906,0.04687
4121.13752,0.04488
4123.06599,0.04248
4124.99446,0.04294
4126.92293,0.04247
4128.85140,0.03931
4130.77987,0.03578
4132.70834,0.03628
4134.63681,0.04065
4136.56527,0.04177
4138.49374,0.03851
4140.42221,0.03573
4142.35068,0.03419
4144.27915,0.03368
4146.20762,0.03614
4148.13609,0.03950
4150.06455,0.03880
4151.99302,0.03582
4153.92149,0.03552
4155.84996,0.03652
4157.77843,0.03583
4159.70690,0.03433
4161.63537,0.03422
4163.56384,0.03503
4165.49230,0.03430
4167.42077,0.03405
4169.34924,0.03772
4171.27771,0.04135
4173.20618,0.03991
4175.13465,0.03628
4177.06312,0.03388
4178.99158,0.03109
4180.92005,0.02764
4182.84852,0.02572
4184.77699,0.02652
4186.70546,0.02696
4188.63393,0.02432
4190.56240,0.02529
4192.49087,0.03315
4194.41933,0.03765
4196.34780,0.03631
4198.27627,0.03835
4200.20474,0.04332
4202.13321,0.04319
4204.06168,0.03858
4205.99015,0.03597
4207.91861,0.03589
4209.84708,0.03506
4211.77555,0.03411
4213.70402,0.03302
4215.63249,0.03273
4217.56096,0.03545
4219.48943,0.03735
4221.41789,0.03573
4223.34636,0.03287
4225.27483,0.02997
4227.20330,0.02668
4229.13177,0.02434
4231.06024,0.02361
4232.98871,0.02339
4234.91718,0.02416
4236.84564,0.02664
4238.77411,0.03252
4240.70258,0.03968
4242.63105,0.04084
4244.55952,0.03766
4246.48799,0.03585
4248.41646,0.03451
4250.34492,0.03315
4252.27339,0.03244
4254.20186,0.03026
4256.13033,0.02589
4258.05880,0.02279
4259.98727,0.02308
4261.91574,0.02471
4263.84421,0.02585
4265.77267,0.02566
4267.70114,0.02542
4269.62961,0.02830
4271.55808,0.03315
4273.48655,0.03634
4275.41502,0.03594
4277.34349,0.03296
4279.27195,0.02945
4281.20042,0.02303
4283.12889,0.01570
4285.05736,0.01647
4286.98583,0.02449
4288.91430,0.03020
4290.84277,0.03002
4292.77124,0.02833
4294.69970,0.02770
4296.62817,0.02692
4298.55664,0.02963
4300.48511,0.03475
4302.41358,0.03554
4304.34205,0.03379
4306.27052,0.03212
4308.19898,0.02991
4310.12745,0.02839
4312.05592,0.02745
4313.98439,0.02593
4315.91286,0.02328
4317.84133,0.02060
4319.76980,0.01978
4321.69827,0.02111
4323.62673,0.02332
4325.55520,0.02402
4327.48367,0.02263
4329.41214,0.02075
4331.34061,0.01797
4333.26908,0.01390
4335.19755,0.01194
4337.12601,0.01548
4339.05448,0.02099
4340.98295,0.02081
4342.91142,0.01512
4344.83989,0.01168
4346.76836,0.01298
4348.69683,0.01590
4350.62530,0.01900
4352.55376,0.02140
4354.48223,0.02121
4356.41070,0.01982
4358.33917,0.02213
4360.26764,0.02585
4362.19611,0.02380
4364.12458,0.01881
4366.05304,0.01699
4367.98151,0.01650
4369.90998,0.01588
4371.83845,0.01609
4373.76692,0.01410
4375.69539,0.01205
4377.62386,0.01799
4379.55232,0.02503
4381.48079,0.02043
4383.40926,0.01048
4385.33773,0.00849
4387.26620,0.01329
4389.19467,0.01535
4391.12314,0.01308
4393.05161,0.01170
4394.98007,0.01182
4396.90854,0.01130
4398.83701,0.01188
4400.76548,0.01246
4402.69395,0.01069
4404.62242,0.01101
4406.55089,0.01333
4408.47935,0.01320
4410.40782,0.01518
4412.33629,0.01982
4414.26476,0.01791
4416.19323,0.01149
4418.12170,0.00840
4420.05017,0.00738
4421.97864,0.00735
4423.90710,0.00900
4425.83557,0.01324
4427.76404,0.01875
4429.69251,0.01818
4431.62098,0.01298
4433.54945,0.01250
4435.47792,0.01686
4437.40638,0.02031
4439.33485,0.01865
4441.26332,0.01007
4443.19179,0.00183
4445.12026,0.00430
4447.04873,0.01288
4448.97720,0.01656
4450.90567,0.01528
4452.83413,0.01349
4454.76260,0.01421
4456.69107,0.01662
4458.61954,0.01625
4460.54801,0.01464
4462.47648,0.01447
4464.40495,0.01192
4466.33341,0.00703
4468.26188,0.00487
4470.19035,0.00701
4472.11882,0.00970
4474.04729,0.01026
4475.97576,0.01111
4477.90423,0.01316
4479.83270,0.01346
4481.76116,0.01125
4483.68963,0.00945
4485.61810,0.01198
4487.54657,0.01722
4489.47504,0.01818
4491.40351,0.01484
4493.33198,0.01201
4495.26044,0.01020
4497.18891,0.00868
4499.11738,0.00709
4501.04585,0.00871
4502.97432,0.01483
4504.90279,0.01800
4506.83126,0.01493
4508.75973,0.00907
4510.68819,0.00372
4512.61666,0.00139
4514.54513,0.00203
4516.47360,0.00521
4518.40207,0.00950
4520.33054,0.01049
4522.25901,0.00982
4524.18747,0.01231
4526.11594,0.01384
4528.04441,0.01095
4529.97288,0.00836
4531.90135,0.00941
4533.82982,0.01173
4535.75829,0.01358
4537.68676,0.01414
4539.61522,0.00943
4541.54369,0.00302
4543.47216,0.00220
4545.40063,0.00261
4547.32910,0.00292
4549.25757,0.00654
4551.18604,0.00780
4553.11450,0.00379
4555.04297,-0.00087
4556.97144,-0.00325
4558.89991,-0.00139
4560.82838,0.00252
4562.75685,0.00250
4564.68532,-0.00166
4566.61378,-0.00444
4568.54225,-0.00388
4570.47072,-0.00362
4572.39919,-0.00538
4574.32766,-0.00789
4576.25613,-0.00757
4578.18460,0.00033
4580.11307,0.00982
4582.04153,0.01059
4583.97000,0.00331
4585.89847,-0.00359
4587.82694,-0.00266
4589.75541,0.00162
4591.68388,0.00148
4593.61235,0.00443
4595.54081,0.01184
4597.46928,0.01252
4599.39775,0.00671
4601.32622,-0.00165
4603.25469,-0.00960
4605.18316,-0.01286
4607.11163,-0.00966
4609.04010,0.00015
4610.96856,0.00789
4612.89703,0.00479
4614.82550,-0.00194
4616.75397,-0.00313
4618.68244,-0.00091
4620.61091,0.00133
4622.53938,0.00377
4624.46784,0.00538
4626.39631,0.00758
4628.32478,0.01098
4630.25325,0.00889
4632.18172,0.00326
4634.11019,0.00401
4636.03866,0.00916
4637.96713,0.00832
4639.89559,0.00279
4641.82406,0.00037
4643.75253,-0.00049
4645.68100,-0.00195
4647.60947,-0.00341
4649.53794,-0.00421
4651.46641,-0.00253
4653.39487,-0.00085
4655.32334,0.00075
4657.25181,0.00299
4659.18028,0.00507
4661.10875,0.00846
4663.03722,0.00978
4664.96569,0.00800
4666.89416,0.00747
4668.82262,0.01015
4670.75109,0.01379
4672.67956,0.01321
4674.60803,0.00871
4676.53650,0.00302
4678.46497,-0.00126
4680.39344,0.00109
4682.32190,0.00400
4684.25037,-0.00092
4686.17884,-0.00383
4688.10731,0.00095
4690.03578,0.00008
4691.96425,-0.00908
4693.89272,-0.00983
4695.82119,0.00029
4697.74965,0.00601
4699.67812,0.00440
4701.60659,0.00341
4703.53506,0.00430
4705.46353,0.00400
4707.39200,0.00372
4709.32047,0.00489
4711.24893,0.00505
4713.17740,0.00540
4715.10587,0.00821
4717.03434,0.01020
4718.96281,0.00861
4720.89128,0.00711
4722.81975,0.01036
4724.74821,0.01430
4726.67668,0.01397
4728.60515,0.01221
4730.53362,0.00767
4732.46209,-0.00001
4734.39056,-0.00126
4736.31903,0.00299
4738.24750,0.00414
4740.17596,0.00305
4742.10443,0.00194
4744.03290,0.00112
4745.96137,0.00065
4747.88984,-0.00221
4749.81831,-0.00737
4751.74678,-0.00901
4753.67524,-0.00601
4755.60371,-0.00191
4757.53218,0.00339
4759.46065,0.00937
4761.38912,0.01183
4763.31759,0.00843
4765.24606,0.00256
4767.17453,0.00101
4769.10299,0.00769
4771.03146,0.01479
4772.95993,0.01116
4774.88840,0.00203
4776.81687,-0.00122
4778.74534,0.00205
4780.67381,0.00573
4782.60227,0.00726
4784.53074,0.00976
4786.45921,0.00790
4788.38768,-0.00537
4790.31615,-0.01780
4792.24462,-0.01591
4794.17309,-0.00581
4796.10156,0.00120
4798.03002,0.00245
4799.95849,0.00136
4801.88696,0.00460
4803.81543,0.01388
4805.74390,0.01874
4807.67237,0.01441
4809.60084,0.00895
4811.52930,0.00502
4813.45777,0.00070
4815.38624,-0.00068
4817.31471,0.00740
4819.24318,0.01704
4821.17165,0.01499
4823.10012,0.00595
4825.02859,0.00374
4826.95705,0.00608
4828.88552,0.00687
4830.81399,0.00623
4832.74246,0.00512
4834.67093,0.00408
4836.59940,0.00175
4838.52787,0.00178
4840.45633,0.00585
4842.38480,0.00658
4844.31327,0.00158
4846.24174,-0.00268
4848.17021,-0.00451
4850.09868,-0.00584
4852.02715,-0.00378
4853.95562,0.00358
4855.88408,0.01314
4857.81255,0.02094
4859.74102,0.02012
4861.66949,0.01279
4863.59796,0.01046
4865.52643,0.01132
4867.45490,0.00677
4869.38336,0.00025
4871.31183,0.00227
4873.24030,0.00921
4875.16877,0.00765
4877.09724,0.00092
4879.02571,0.00049
4880.95418,0.00744
4882.88265,0.00946
4884.81111,-0.00023
4886.73958,-0.00821
4888.66805,-0.00716
4890.59652,-0.00281
4892.52499,0.00210
4894.45346,0.00539
4896.38193,0.00633
4898.31039,0.00440
4900.23886,0.00221
4902.16733,0.00520
4904.09580,0.01214
4906.02427,0.01938
4907.95274,0.02114
4909.88121,0.01358
4911.80967,0.00588
4913.73814,0.00488
4915.66661,0.00495
4917.59508,0.00387
4919.52355,0.00298
4921.45202,0.00276
4923.38049,0.00751
4925.30896,0.01568
4927.23742,0.01939
4929.16589,0.01639
4931.09436,0.00976
4933.02283,0.00372
4934.95130,-0.00232
4936.87977,-0.00561
4938.80824,0.00339
4940.73670,0.01913
4942.66517,0.02614
4944.59364,0.02293
4946.52211,0.01812
4948.45058,0.01410
4950.37905,0.00736
4952.30752,0.00098
4954.23599,-0.00009
4956.16445,0.00290
4958.09292,0.00527
4960.02139,0.00473
4961.94986,0.00821
4963.87833,0.01683
4965.80680,0.01923
4967.73527,0.01271
4969.66373,0.00627
4971.59220,0.00151
4973.52067,-0.00459
4975.44914,-0.00248
4977.37761,0.00607
4979.30608,0.00578
4981.23455,0.00187
4983.16302,0.00146
4985.09148,-0.00281
4987.01995,-0.00836
4988.94842,-0.00926
4990.87689,-0.01189
4992.80536,-0.01405
4994.73383,-0.00718
4996.66230,-0.00139
4998.59076,-0.00168
5000.51923,0.00223
5002.44770,0.00522
5004.37617,0.00386
5006.30464,0.00640
5008.23311,0.01547
5010.16158,0.02019
5012.09005,0.01368
5014.01851,0.00520
5015.94698,-0.00004
5017.87545,-0.00477
5019.80392,-0.00741
5021.73239,-0.00383
5023.66086,0.00587
5025.58933,0.01594
5027.51779,0.02083
5029.44626,0.01887
5031.37473,0.01482
5033.30320,0.01522
5035.23167,0.01751
5037.16014,0.01441
5039.08861,0.00615
5041.01708,0.00088
5042.94554,0.00161
5044.87401,-0.00105
5046.80248,-0.00696
5048.73095,-0.00261
5050.65942,0.00302
5052.58789,-0.00427
5054.51636,-0.01425
5056.44482,-0.01723
5058.37329,-0.01406
5060.30176,-0.00833
5062.23023,-0.00368
5064.15870,-0.00307
5066.08717,-0.00023
5068.01564,0.01193
5069.94410,0.02162
5071.87257,0.01533
5073.80104,0.00013
5075.72951,-0.00267
5077.65798,0.00995
5079.58645,0.01510
5081.51492,0.00873
5083.44339,0.00721
5085.37185,0.00855
5087.30032,0.00774
5089.22879,0.01161
5091.15726,0.01399
5093.08573,0.00915
5095.01420,0.00681
5096.94267,0.00782
5098.87113,0.00417
5100.79960,-0.00127
5102.72807,0.00189
5104.65654,0.01024
5106.58501,0.01073
5108.51348,0.00545
5110.44195,0.00708
5112.37042,0.01023
5114.29888,0.00464
5116.22735,0.00167
5118.15582,0.00669
5120.08429,0.00936
5122.01276,0.00806
5123.94123,0.00830
5125.86970,0.00772
5127.79816,0.00271
5129.72663,-0.00352
5131.65510,-0.00905
5133.58357,-0.01229
5135.51204,-0.01000
5137.44051,-0.00241
5139.36898,0.00831
5141.29745,0.01665
5143.22591,0.01646
5145.15438,0.01513
5147.08285,0.01779
5149.01132,0.01586
5150.93979,0.01354
5152.86826,0.01933
5154.79673,0.02815
5156.72519,0.02744
5158.65366,0.01753
5160.58213,0.01707
5162.51060,0.02507
5164.43907,0.02319
5166.36754,0.01306
5168.29601,0.00888
5170.22448,0.01012
5172.15294,0.00694
5174.08141,0.00248
5176.00988,0.00490
5177.93835,0.00832
5179.86682,0.00987
5181.79529,0.02117
5183.72376,0.03973
5185.65222,0.04767
5187.58069,0.03956
5189.50916,0.02525
5191.43763,0.01410
5193.36610,0.01256
5195.29457,0.02064
5197.22304,0.02219
5199.15151,0.00906
5201.07997,0.00230
5203.00844,0.01063
5204.93691,0.01849
5206.86538,0.01928
5208.79385,0.01517
5210.72232,0.00292
5212.65079,-0.01021
5214.57925,-0.01286
5216.50772,-0.00486
5218.43619,0.00587
5220.36466,0.01061
5222.29313,0.01012
5224.22160,0.01337
5226.15007,0.02247
5228.07854,0.02609
5230.00700,0.02115
5231.93547,0.01752
5233.86394,0.01856
5235.79241,0.01927
5237.72088,0.01602
5239.64935,0.01274
5241.57782,0.01904
5243.50628,0.02838
5245.43475,0.02560
5247.36322,0.01747
5249.29169,0.01270
5251.22016,0.00981
5253.14863,0.00728
5255.07710,0.00807
5257.00556,0.01635
5258.93403,0.01947
5260.86250,0.00868
5262.79097,0.00047
5264.71944,0.01163
5266.64791,0.03173
5268.57638,0.04060
5270.50485,0.03872
5272.43331,0.03917
5274.36178,0.04210
5276.29025,0.04063
5278.21872,0.03262
5280.14719,0.02602
5282.07566,0.02673
5284.00413,0.01867
5285.93259,0.00220
5287.86106,-0.00362
5289.78953,0.00177
5291.71800,0.01509
5293.64647,0.02243
5295.57494,0.01850
5297.50341,0.01910
5299.43188,0.02249
5301.36034,0.01529
5303.28881,-0.00024
5305.21728,-0.00917
5307.14575,-0.00213
5309.07422,0.01308
5311.00269,0.03204
5312.93116,0.05316
5314.85962,0.05763
5316.78809,0.04102
5318.71656,0.02581
5320.64503,0.02452
5322.57350,0.02931
5324.50197,0.03249
5326.43044,0.04395
5328.35891,0.05550
5330.28737,0.03913
5332.21584,0.01540
5334.14431,0.02171
5336.07278,0.04835
5338.00125,0.06489
5339.92972,0.05958
5341.85819,0.04998
5343.78665,0.04840
5345.71512,0.04808
5347.64359,0.04439
5349.57206,0.03614
5351.50053,0.01891
5353.42900,0.00781
5355.35747,0.01567
5357.28594,0.01793
5359.21440,0.00879
5361.14287,0.00523
5363.07134,0.00828
5364.99981,0.01373
5366.92828,0.02584
5368.85675,0.03896
5370.78522,0.03867
5372.71368,0.02885
5374.64215,0.02676
5376.57062,0.02853
5378.49909,0.02653
5380.42756,0.02378
5382.35603,0.00979
5384.28450,-0.00073
5386.21297,0.01733
5388.14143,0.02888
5390.06990,0.02261
5391.99837,0.02665
5393.92684,0.03355
5395.85531,0.03064
5397.78378,0.03291
5399.71225,0.04371
5401.64071,0.05177
5403.56918,0.04725
5405.49765,0.04117
5407.42612,0.04316
5409.35459,0.04206
5411.28306,0.04230
5413.21153,0.04737
5415.13999,0.04149
5417.06846,0.02807
5418.99693,0.01440
5420.92540,0.00909
5422.85387,0.02018
5424.78234,0.03311
5426.71081,0.04396
5428.63928,0.05789
5430.56774,0.05571
5432.49621,0.03901
5434.42468,0.02311
5436.35315,0.01396
5438.28162,0.01647
5440.21009,0.02863
5442.13856,0.04197
5444.06702,0.04629
5445.99549,0.04816
5447.92396,0.05077
5449.85243,0.03786
5451.78090,0.02061
5453.70937,0.02310
5455.63784,0.04157
5457.56631,0.05371
5459.49477,0.04474
5461.42324,0.02644
5463.35171,0.02371
5465.28018,0.03448
5467.20865,0.03417
5469.13712,0.02064
5471.06559,0.01122
5472.99405,0.01278
5474.92252,0.02419
5476.85099,0.03476
5478.77946,0.02951
5480.70793,0.01453
5482.63640,0.00684
5484.56487,0.00791
5486.49334,0.01035
5488.42180,0.01672
5490.35027,0.02991
5492.27874,0.04271
5494.20721,0.03768
5496.13568,0.01665
5498.06415,0.00117
5499.99262,0.00633
5501.92108,0.03228
5503.84955,0.05242
5505.77802,0.04306
5507.70649,0.02231
5509.63496,0.01812
5511.56343,0.02386
5513.49190,0.02321
5515.42037,0.01977
5517.34883,0.02305
5519.27730,0.02947
5521.20577,0.03068
5523.13424,0.02409
5525.06271,0.01493
5526.99118,0.00984
5528.91965,0.01314
5530.84811,0.02979
5532.77658,0.04551
5534.70505,0.04615
5536.63352,0.05271
5538.56199,0.07436
5540.49046,0.08527
5542.41893,0.07234
5544.34740,0.05164
5546.27586,0.03427
5548.20433,0.01182
5550.13280,-0.01224
5552.06127,-0.01861
5553.98974,-0.00370
5555.91821,0.00859
5557.84668,0.01260
5559.77514,0.02650
5561.70361,0.03891
5563.63208,0.03740
5565.56055,0.04005
5567.48902,0.04753
5569.41749,0.04201
5571.34596,0.03431
5573.27443,0.03614
5575.20289,0.03313
5577.13136,0.02588
5579.05983,0.02903
5580.98830,0.03562
5582.91677,0.03402
5584.84524,0.03521
5586.77371,0.04031
5588.70217,0.04216
5590.63064,0.04518
5592.55911,0.03871
5594.48758,0.01829
5596.41605,0.01244
5598.34452,0.03341
5600.27299,0.05029
5602.20145,0.04896
5604.12992,0.04320
5606.05839,0.03121
5607.98686,0.01941
5609.91533,0.02737
5611.84380,0.04768
5613.77227,0.04807
5615.70074,0.02938
5617.62920,0.02593
5619.55767,0.03976
5621.48614,0.05298
5623.41461,0.05509
5625.34308,0.04641
5627.27155,0.05034
5629.20002,0.06278
5631.12848,0.06258
5633.05695,0.06073
5634.98542,0.06069
5636.91389,0.05422
5638.84236,0.05481
5640.77083,0.06980
5642.69930,0.07575
5644.62777,0.05963
5646.55623,0.03858
5648.48470,0.02780
5650.41317,0.02330
5652.34164,0.02277
5654.27011,0.02608
5656.19858,0.02837
5658.12705,0.03130
5660.05551,0.03045
5661.98398,0.02196
5663.91245,0.01551
5665.84092,0.01308
5667.76939,0.01491
5669.69786,0.01676
5671.62633,0.00986
5673.55480,0.00537
5675.48326,0.00890
5677.41173,0.00714
5679.34020,0.00459
5681.26867,0.01874
5683.19714,0.04482
5685.12561,0.05633
5687.05408,0.04628
5688.98254,0.03489
5690.91101,0.02990
5692.83948,0.02458
5694.76795,0.02111
5696.69642,0.02105
5698.62489,0.01687
5700.55336,0.00975
5702.48183,0.01305
5704.41029,0.03452
5706.33876,0.05826
5708.26723,0.06001
5710.19570,0.04698
5712.12417,0.03344
5714.05264,0.00949
5715.98111,-0.01934
5717.90957,-0.02472
5719.83804,-0.00087
5721.76651,0.02944
5723.69498,0.04027
5725.62345,0.02944
5727.55192,0.01694
5729.48039,0.00818
5731.40886,0.00879
5733.33732,0.03288
5735.26579,0.06307
5737.19426,0.06519
5739.12273,0.04799
5741.05120,0.03326
5742.97967,0.01275
5744.90814,-0.01257
5746.83660,-0.02098
5748.76507,0.00016
5750.69354,0.02581
5752.62201,0.02677
5754.55048,0.02220
5756.47895,0.02874
5758.40742,0.03931
5760.33588,0.04890
5762.26435,0.05646
5764.19282,0.05981
5766.12129,0.05180
5768.04976,0.03778
5769.97823,0.03029
5771.90670,0.03567
5773.83517,0.05731
5775.76363,0.08136
5777.69210,0.08839
5779.62057,0.07315
5781.54904,0.04044
5783.47751,0.01956
5785.40598,0.02960
5787.33445,0.03498
5789.26291,0.00803
5791.19138,-0.01705
5793.11985,-0.00245
5795.04832,0.03764
5796.97679,0.06426
5798.90526,0.05889
5800.83373,0.04260
5802.76220,0.04345
5804.69066,0.06164
5806.61913,0.07223
5808.54760,0.06199
5810.47607,0.05719
5812.40454,0.07487
5814.33301,0.08557
5816.26148,0.05595
5818.18994,0.01331
5820.11841,0.02074
5822.04688,0.06695
5823.97535,0.08593
5825.90382,0.07069
5827.83229,0.06021
5829.76076,0.06605
5831.68923,0.07467
5833.61769,0.07188
5835.54616,0.04820
5837.47463,0.01914
5839.40310,0.00696
5841.33157,0.01883
5843.26004,0.04028
5845.18851,0.05528
5847.11697,0.05900
5849.04544,0.06011
5850.97391,0.07523
5852.90238,0.09228
5854.83085,0.09235
5856.75932,0.07943
5858.68779,0.06725
5860.61626,0.05745
5862.54472,0.04590
5864.47319,0.03458
5866.40166,0.03627
5868.33013,0.06282
5870.25860,0.08860
5872.18707,0.08267
5874.11554,0.05225
5876.04400,0.02222
5877.97247,0.00822
5879.90094,0.00862
5881.82941,0.01076
5883.75788,0.00731
5885.68635,0.01158
5887.61482,0.04725
5889.54329,0.09855
5891.47175,0.10256
5893.40022,0.06064
5895.32869,0.03635
5897.25716,0.04856
5899.18563,0.06799
5901.11410,0.05937
5903.04257,0.02597
5904.97103,0.01680
5906.89950,0.04586
5908.82797,0.06633
5910.75644,0.04894
5912.68491,0.02566
5914.61338,0.01733
5916.54185,0.01500
5918.47032,0.03215
5920.39878,0.07126
5922.32725,0.07771
5924.25572,0.03862
5926.18419,0.01626
5928.11266,0.02934
5930.04113,0.04009
5931.96960,0.04618
5933.89806,0.06400
5935.82653,0.06664
5937.75500,0.04633
5939.68347,0.02756
5941.61194,0.01450
5943.54041,0.01858
5945.46888,0.03403
5947.39734,0.03576
5949.32581,0.02977
5951.25428,0.03814
5953.18275,0.06299
5955.11122,0.08208
5957.03969,0.08133
5958.96816,0.07105
5960.89663,0.04734
5962.82509,0.01045
5964.75356,0.00555
5966.68203,0.04259
5968.61050,0.06022
5970.53897,0.03138
5972.46744,0.01532
5974.39591,0.03499
5976.32437,0.04152
5978.25284,0.03738
5980.18131,0.03751
5982.10978,0.03543
5984.03825,0.04034
5985.96672,0.04447
5987.89519,0.03519
5989.82366,0.01370
5991.75212,-0.01590
5993.68059,-0.04174
5995.60906,-0.03537
5997.53753,0.00554
5999.46600,0.03937
6001.39447,0.04318
6003.32294,0.02018
6005.25140,0.00477
6007.17987,0.02531
6009.10834,0.05202
6011.03681,0.05381
6012.96528,0.04733
6014.89375,0.05192
6016.82222,0.05614
6018.75069,0.05639
6020.67915,0.05601
6022.60762,0.04992
6024.53609,0.05214
6026.46456,0.07090
6028.39303,0.07995
6030.32150,0.05922
6032.24997,0.03892
6034.17843,0.03990
6036.10690,0.04259
6038.03537,0.04849
6039.96384,0.06868
6041.89231,0.08318
6043.82078,0.08088
6045.74925,0.07462
6047.67772,0.07603
6049.60618,0.08822
6051.53465,0.09315
6053.46312,0.07566
6055.39159,0.05571
6057.32006,0.06088
6059.24853,0.07783
6061.17700,0.08148
6063.10546,0.07237
6065.03393,0.05138
6066.96240,0.02460
6068.89087,0.01432
6070.81934,0.02871
6072.74781,0.04403
6074.67628,0.03545
6076.60475,0.02163
6078.53321,0.02948
6080.46168,0.04738
6082.39015,0.06621
6084.31862,0.07888
6086.24709,0.06370
6088.17556,0.03437
6090.10403,0.01424
6092.03249,0.00024
6093.96096,-0.00321
6095.88943,0.01653
6097.81790,0.04476
6099.74637,0.03986
6101.67484,0.01585
6103.60331,0.01759
6105.53177,0.03039
6107.46024,0.04030
6109.38871,0.05368
6111.31718,0.05655
6113.24565,0.05593
6115.17412,0.06143
6117.10259,0.04999
6119.03106,0.02978
6120.95952,0.03246
6122.88799,0.04528
6124.81646,0.06659
6126.74493,0.10910
6128.67340,0.12276
6130.60187,0.07293
6132.53034,0.02816
6134.45880,0.02626
6136.38727,0.04954
6138.31574,0.07814
6140.24421,0.09103
6142.17268,0.09080
6144.10115,0.07607
6146.02962,0.03856
6147.95809,-0.00434
6149.88655,-0.01825
6151.81502,0.01345
6153.74349,0.04408
6155.67196,0.03566
6157.60043,0.02148
6159.52890,0.03198
6161.45737,0.04044
6163.38583,0.02457
6165.31430,0.01997
6167.24277,0.03562
6169.17124,0.02903
6171.09971,0.00137
6173.02818,-0.01818
6174.95665,-0.04233
6176.88512,-0.05289
6178.81358,0.00115
6180.74205,0.09241
6182.67052,0.13242
6184.59899,0.10179
6186.52746,0.06852
6188.45593,0.07314
6190.38440,0.09335
6192.31286,0.10946
6194.24133,0.10740
6196.16980,0.09203
6198.09827,0.07096
6200.02674,0.02599
6201.95521,-0.01465
6203.88368,-0.01107
6205.81215,0.00854
6207.74061,0.03116
6209.66908,0.07470
6211.59755,0.07847
6213.52602,0.01418
6215.45449,-0.01946
6217.38296,0.01526
6219.31143,0.03677
6221.23989,0.01860
6223.16836,0.01640
6225.09683,0.03279
6227.02530,0.02752
6228.95377,0.03543
6230.88224,0.07540
6232.81071,0.08169
6234.73918,0.03817
6236.66764,0.02352
6238.59611,0.05253
6240.52458,0.05387
6242.45305,0.03444
6244.38152,0.05024
6246.30999,0.05957
6248.23846,0.03887
6250.16692,0.02314
6252.09539,0.00853
6254.02386,0.00190
6255.95233,0.01688
6257.88080,0.03799
6259.80927,0.04634
6261.73774,0.02992
6263.66621,0.00588
6265.59467,-0.00819
6267.52314,-0.01853
6269.45161,-0.02069
6271.38008,0.01368
6273.30855,0.07350
6275.23702,0.08067
6277.16549,0.05265
6279.09395,0.06902
6281.02242,0.09991
6282.95089,0.10210
6284.87936,0.09532
6286.80783,0.08813
6288.73630,0.05864
6290.66477,0.01005
6292.59323,-0.01666
6294.52170,0.00796
6296.45017,0.03905
6298.37864,0.03223
6300.30711,0.01732
6302.23558,0.01310
6304.16405,0.01118
6306.09252,0.03418
6308.02098,0.07107
6309.94945,0.06805
6311.87792,0.03679
6313.80639,0.02545
6315.73486,0.03330
6317.66333,0.05300
6319.59180,0.08201
6321.52026,0.08539
6323.44873,0.05622
6325.37720,0.04924
6327.30567,0.06848
6329.23414,0.06030
6331.16261,0.02004
6333.09108,-0.00252
6335.01955,0.00946
6336.94801,0.03601
6338.87648,0.04622
6340.80495,0.01987
6342.73342,-0.02649
6344.66189,-0.06748
6346.59036,-0.08063
6348.51883,-0.05789
6350.44729,-0.02516
6352.37576,-0.00721
6354.30423,0.01640
6356.23270,0.07009
6358.16117,0.11621
6360.08964,0.10566
6362.01811,0.08487
6363.94658,0.10480
6365.87504,0.11036
6367.80351,0.07810
6369.73198,0.05084
6371.66045,0.02703
6373.58892,0.01258
6375.51739,0.03151
6377.44586,0.06524
6379.37432,0.07276
6381.30279,0.03637
6383.23126,-0.02583
6385.15973,-0.04280
6387.08820,0.00874
6389.01667,0.05977
6390.94514,0.07310
6392.87361,0.07782
6394.80207,0.08228
6396.73054,0.07501
6398.65901,0.06523
6400.58748,0.03623
6402.51595,0.00245
6404.44442,0.00926
6406.37289,0.04360
6408.30135,0.05995
6410.22982,0.03647
6412.15829,0.02237
6414.08676,0.04386
6416.01523,0.03075
6417.94370,-0.01011
6419.87217,0.01433
6421.80064,0.08016
6423.72910,0.13204
6425.65757,0.15966
6427.58604,0.14967
6429.51451,0.10762
6431.44298,0.05494
6433.37145,0.03255
6435.29992,0.04404
6437.22838,0.05078
6439.15685,0.03630
6441.08532,0.00842
6443.01379,-0.01261
6444.94226,-0.00000
6446.87073,0.04270
6448.79920,0.06272
6450.72766,0.02092
6452.65613,-0.03173
6454.58460,-0.04202
6456.51307,-0.01550
6458.44154,0.02990
6460.37001,0.07750
6462.29848,0.08861
6464.22695,0.04999
6466.15541,0.02122
6468.08388,0.02701
6470.01235,0.02681
6471.94082,0.02349
6473.86929,0.04799
6475.79776,0.05956
6477.72623,0.00971
6479.65469,-0.02790
6481.58316,0.00138
6483.51163,0.02522
6485.44010,0.02524
6487.36857,0.03459
6489.29704,0.03449
6491.22551,0.00723
6493.15398,-0.00639
6495.08244,0.03330
6497.01091,0.07020
6498.93938,0.04941
6500.86785,0.01766
6502.79632,0.03575
6504.72479,0.07942
6506.65326,0.10234
6508.58172,0.09724
6510.51019,0.08733
6512.43866,0.06787
6514.36713,0.01794
6516.29560,-0.03340
6518.22407,-0.01688
6520.15254,0.06130
6522.08101,0.09733
6524.00947,0.06467
6525.93794,0.05417
6527.86641,0.07435
6529.79488,0.06753
6531.72335,0.03872
6533.65182,0.01190
6535.58029,0.00192
6537.50875,0.00846
6539.43722,0.02670
6541.36569,0.05700
6543.29416,0.05710
6545.22263,0.03742
6547.15110,0.05009
6549.07957,0.06675
6551.00804,0.05265
6552.93650,0.02924
6554.86497,0.03804
6556.79344,0.05523
6558.72191,0.01527
6560.65038,-0.06342
6562.57885,-0.09044
6564.50732,-0.02573
6566.43578,0.04589
6568.36425,0.06781
6570.29272,0.07834
6572.22119,0.07167
6574.14966,0.03732
6576.07813,0.00593
6578.00660,0.01040
6579.93507,0.04712
6581.86353,0.06598
6583.79200,0.05295
6585.72047,0.03411
6587.64894,0.02025
6589.57741,0.02328
6591.50588,0.01970
6593.43435,-0.00451
6595.36281,0.00307
6597.29128,0.02675
6599.21975,0.00272
6601.14822,-0.02864
6603.07669,0.01015
6605.00516,0.06008
6606.93363,0.06682
6608.86210,0.06487
6610.79056,0.07972
6612.71903,0.09923
6614.64750,0.10986
6616.57597,0.10392
6618.50444,0.06244
6620.43291,-0.00100
6622.36138,-0.03573
6624.28984,-0.01873
6626.21831,-0.00058
6628.14678,-0.03852
6630.07525,-0.08924
6632.00372,-0.06376
6633.93219,0.03381
6635.86066,0.12935
6637.78912,0.15945
6639.71759,0.13981
6641.64606,0.09959
6643.57453,0.05251
6645.50300,0.00578
6647.43147,-0.00076
6649.35994,0.02970
6651.28841,0.03848
6653.21687,0.04659
6655.14534,0.06599
6657.07381,0.05540
6659.00228,0.03221
6660.93075,0.02148
6662.85922,0.00422
6664.78769,-0.01227
6666.71615,0.00926
6668.64462,0.04188
6670.57309,0.01887
6672.50156,0.00597
6674.43003,0.04562
6676.35850,0.03232
6678.28697,0.00323
6680.21544,0.04647
6682.14390,0.06231
6684.07237,-0.01332
6686.00084,-0.06197
6687.92931,-0.03042
6689.85778,0.01362
6691.78625,0.03046
6693.71472,0.03734
6695.64318,0.06457
6697.57165,0.08272
6699.50012,0.06665
6701.42859,0.07035
6703.35706,0.05808
6705.28553,-0.01895
6707.21400,-0.07775
6709.14247,-0.05346
6711.07093,-0.02161
6712.99940,-0.04267
6714.92787,-0.06742
6716.85634,-0.04110
6718.78481,0.03336
6720.71328,0.10173
6722.64175,0.12292
6724.57021,0.12675
6726.49868,0.11644
6728.42715,0.08027
6730.35562,0.03510
6732.28409,-0.01883
6734.21256,-0.04905
6736.14103,-0.02142
6738.06950,0.01280
6739.99796,0.03818
6741.92643,0.07455
6743.85490,0.10568
6745.78337,0.11661
6747.71184,0.09060
6749.64031,0.05407
6751.56878,0.03466
6753.49724,0.01273
6755.42571,-0.00102
6757.35418,0.02798
6759.28265,0.06463
6761.21112,0.02894
6763.13959,-0.01484
6765.06806,-0.02311
6766.99653,-0.04419
6768.92499,-0.04398
6770.85346,0.00248
6772.78193,0.04839
6774.71040,0.05865
6776.63887,0.04058
6778.56734,0.04311
6780.49581,0.05965
6782.42427,0.02528
6784.35274,-0.04682
6786.28121,-0.05856
6788.20968,0.01176
6790.13815,0.08739
6792.06662,0.11235
6793.99509,0.08424
6795.92355,0.03550
6797.85202,0.02744
6799.78049,0.03863
6801.70896,0.03069
6803.63743,0.05099
6805.56590,0.07700
6807.49437,0.05431
6809.42284,-0.01097
6811.35130,-0.06986
6813.27977,-0.03428
6815.20824,0.04309
6817.13671,0.03632
6819.06518,-0.01176
6820.99365,-0.00856
6822.92212,0.02461
6824.85058,0.03576
6826.77905,0.04878
6828.70752,0.08647
6830.63599,0.11116
6832.56446,0.09457
6834.49293,0.05885
6836.42140,0.01969
6838.34987,0.00088
6840.27833,-0.00350
6842.20680,-0.01098
6844.13527,-0.01967
6846.06374,-0.02602
6847.99221,-0.00730
6849.92068,0.02484
6851.84915,0.04258
6853.77761,0.07053
6855.70608,0.08351
6857.63455,0.03392
6859.56302,-0.00003
6861.49149,0.02683
6863.41996,0.06006
6865.34843,0.08123
6867.27690,0.07856
6869.20536,0.04537
6871.13383,0.02067
6873.06230,0.01152
6874.99077,0.01394
6876.91924,0.05882
6878.84771,0.12706
6880.77618,0.09899
6882.70464,-0.04560
6884.63311,-0.17682
6886.56158,-0.18945
6888.49005,-0.08541
6890.41852,0.03673
6892.34699,0.08262
6894.27546,0.03684
6896.20393,-0.02193
6898.13239,-0.01025
6900.06086,0.06444
6901.98933,0.12091
6903.91780,0.11766
6905.84627,0.09824
6907.77474,0.07860
6909.70321,0.03796
6911.63167,0.01095
6913.56014,0.03192
6915.48861,0.03742
6917.41708,-0.01463
6919.34555,-0.04735
6921.27402,-0.00536
6923.20249,0.02365
6925.13096,-0.01318
6927.05942,-0.05235
6928.98789,-0.03409
6930.91636,-0.02259
6932.84483,-0.05785
6934.77330,-0.05047
6936.70177,-0.00526
6938.63024,0.00320
6940.55870,-0.01068
6942.48717,-0.00542
6944.41564,-0.00261
6946.34411,0.00223
6948.27258,0.00252
6950.20105,0.02298
6952.12952,0.07144
6954.05799,0.05654
6955.98645,-0.05324
6957.91492,-0.12698
6959.84339,-0.06613
6961.77186,0.04928
6963.70033,0.07990
6965.62880,0.05366
6967.55727,0.04535
6969.48573,0.04501
6971.41420,0.00170
6973.34267,-0.06226
6975.27114,-0.04424
6977.19961,0.01312
6979.12808,0.02222
6981.05655,0.01043
6982.98501,-0.02388
6984.91348,-0.06738
6986.84195,-0.02054
6988.77042,0.09617
6990.69889,0.13031
6992.62736,0.04788
6994.55583,-0.04529
6996.48430,-0.06773
6998.41276,-0.04080
7000.34123,-0.02141
7002.26970,-0.00837
7004.19817,0.02472
7006.12664,0.07833
7008.05511,0.11508
7009.98358,0.12549
7011.91204,0.12720
7013.84051,0.12255
7015.76898,0.13522
7017.69745,0.13271
7019.62592,0.05938
7021.55439,-0.04432
7023.48286,-0.11159
7025.41133,-0.10909
7027.33979,-0.06372
7029.26826,-0.01837
7031.19673,0.02298
7033.12520,0.08254
7035.05367,0.14252
7036.98214,0.13495
7038.91061,0.08634
7040.83907,0.05503
7042.76754,0.03856
7044.69601,0.03532
7046.62448,0.04734
7048.55295,0.03537
7050.48142,-0.00498
7052.40989,-0.04845
7054.33836,-0.07401
7056.26682,-0.02647
7058.19529,0.07066
7060.12376,0.06237
7062.05223,-0.02295
7063.98070,-0.00865
7065.90917,0.09433
7067.83764,0.10510
7069.76610,0.01618
7071.69457,-0.01026
7073.62304,0.05696
7075.55151,0.12487
7077.47998,0.16843
7079.40845,0.19573
7081.33692,0.15454
7083.26539,0.03322
7085.19385,-0.03060
7087.12232,0.01385
7089.05079,0.08462
7090.97926,0.14345
7092.90773,0.18110
7094.83620,0.16395
7096.76467,0.10099
7098.69313,0.00061
7100.62160,-0.06186
7102.55007,-0.07415
7104.47854,-0.08418
7106.40701,-0.05866
7108.33548,0.04690
7110.26395,0.14300
7112.19242,0.13018
7114.12088,0.04864
7116.04935,0.01969
7117.97782,0.09853
7119.90629,0.18599
7121.83476,0.16492
7123.76323,0.08113
7125.69170,0.03792
7127.62016,-0.01558
7129.54863,-0.10496
7131.47710,-0.10603
7133.40557,-0.03530
7135.33404,0.02596
7137.26251,0.07620
7139.19098,0.09120
7141.11944,0.06057
7143.04791,0.03820
7144.97638,0.05009
7146.90485,0.04065
7148.83332,0.03005
7150.76179,0.08415
7152.69026,0.13110
7154.61873,0.08897
7156.54719,0.07255
7158.47566,0.17301
7160.40413,0.25728
7162.33260,0.17478
7164.26107,0.03546
7166.18954,0.01627
7168.11801,0.09907
7170.04647,0.17102
7171.97494,0.18835
7173.90341,0.18522
7175.83188,0.16891
7177.76035,0.15682
7179.68882,0.17221
7181.61729,0.17226
7183.54576,0.09975
7185.47422,0.02035
7187.40269,0.06404
7189.33116,0.19201
7191.25963,0.21331
7193.18810,0.10109
7195.11657,0.05412
7197.04504,0.07908
7198.97350,0.04980
7200.90197,-0.00126
7202.83044,0.02309
7204.75891,0.07562
7206.68738,0.05597
7208.61585,0.04265
7210.54432,0.02829
7212.47279,-0.01689
7214.40125,-0.03567
7216.32972,0.02769
7218.25819,0.14760
7220.18666,0.19296
7222.11513,0.15818
7224.04360,0.11487
7225.97207,0.11685
7227.90053,0.13167
7229.82900,0.11015
7231.75747,0.12067
7233.68594,0.18522
7235.61441,0.22008
7237.54288,0.20386
7239.47135,0.13647
7241.39982,0.03453
7243.32828,-0.02426
7245.25675,-0.00474
7247.18522,-0.00842
7249.11369,-0.05272
7251.04216,-0.06859
7252.97063,-0.01271
7254.89910,0.10415
7256.82756,0.19600
7258.75603,0.22535
7260.68450,0.19027
7262.61297,0.10187
7264.54144,0.01578
7266.46991,-0.00012
7268.39838,0.02267
7270.32685,0.01223
7272.25531,0.00100
7274.18378,0.03176
7276.11225,0.03848
7278.04072,0.03787
7279.96919,0.02727
7281.89766,-0.00047
7283.82613,0.02754
7285.75459,0.08603
7287.68306,0.10031
7289.61153,0.09063
7291.54000,0.14702
7293.46847,0.21324
7295.39694,0.21051
7297.32541,0.15419
7299.25387,0.07625
7301.18234,0.05268
7303.11081,0.05452
7305.03928,0.03744
7306.96775,0.07361
7308.89622,0.05161
7310.82469,-0.04940
7312.75316,-0.05685
7314.68162,-0.04929
7316.61009,-0.08028
7318.53856,-0.09391
7320.46703,-0.06138
7322.39550,-0.01794
7324.32397,-0.01887
7326.25244,-0.03256
7328.18090,0.01672
7330.10937,0.05912
7332.03784,0.01358
7333.96631,0.00380
7335.89478,0.03101
7337.82325,0.03607
7339.75172,0.06213
7341.68019,0.12711
7343.60865,0.16089
7345.53712,0.18711
7347.46559,0.19036
7349.39406,0.11386
7351.32253,0.06340
7353.25100,0.09370
7355.17947,0.12192
7357.10793,0.09427
7359.03640,0.02043
7360.96487,0.04835
7362.89334,0.11998
7364.82181,0.07976
7366.75028,0.00780
7368.67875,0.00554
7370.60722,0.07099
7372.53568,0.15785
7374.46415,0.22874
7376.39262,0.18334
7378.32109,0.07867
7380.24956,0.05464
7382.17803,0.07859
7384.10650,0.04993
7386.03496,0.06256
7387.96343,0.14991
7389.89190,0.15387
7391.82037,0.08158
7393.74884,0.02822
7395.67731,0.00950
7397.60578,0.01315
7399.53425,0.07615
7401.46271,0.17679
7403.39118,0.21149
7405.31965,0.15035
7407.24812,0.07451
7409.17659,-0.01849
7411.10506,-0.11487
7413.03353,-0.13538
7414.96199,-0.08478
7416.89046,-0.04909
7418.81893,-0.05597
7420.74740,0.07539
7422.67587,0.23522
7424.60434,0.18551
7426.53281,0.07286
7428.46128,0.15612
7430.38974,0.39924
7432.31821,0.43637
7434.24668,0.21406
7436.17515,-0.02746
7438.10362,-0.08823
7440.03209,0.00361
7441.96056,0.09541
7443.88902,0.11310
7445.81749,0.08630
7447.74596,0.01086
7449.67443,-0.08192
7451.60290,-0.05963
7453.53137,0.03212
7455.45984,0.08739
7457.38831,0.12729
7459.31677,0.14870
7461.24524,0.18235
7463.17371,0.26563
7465.10218,0.30407
7467.03065,0.20776
7468.95912,0.08569
7470.88759,0.04941
7472.81605,0.09573
7474.74452,0.15777
7476.67299,0.20312
7478.60146,0.21889
7480.52993,0.17040
7482.45840,0.04684
7484.38687,-0.06124
7486.31533,-0.14376
7488.24380,-0.17606
7490.17227,-0.08623
7492.10074,0.01171
7494.02921,0.01693
7495.95768,0.00718
7497.88615,0.04210
