399.19301,0.32080
401.12148,0.46040
403.04995,0.24003
404.97842,0.04659
406.90689,0.02270
408.83536,0.08335
410.76382,0.09455
412.69229,0.02399
414.62076,-0.02676
416.54923,-0.04186
418.47770,-0.06191
420.40617,-0.03900
422.33464,0.00678
424.26311,0.04334
426.19157,0.05516
428.12004,0.03608
430.04851,0.02722
431.97698,0.05817
433.90545,0.06521
435.83392,0.02317
437.76239,0.00601
439.69085,0.00808
441.61932,-0.02176
443.54779,-0.03196
445.47626,0.01626
447.40473,0.05201
449.33320,0.01524
451.26167,-0.04548
453.19013,-0.04638
455.11860,0.01161
457.04707,0.08132
458.97554,0.12029
460.90401,0.11905
462.83248,0.09519
464.76095,0.04263
466.68942,-0.01335
468.61788,-0.01550
470.54635,0.00716
472.47482,0.02155
474.40329,0.06316
476.33176,0.07332
478.26023,0.05108
480.18870,0.04889
482.11716,0.05245
484.04563,0.02448
485.97410,0.00038
487.90257,0.00400
489.83104,0.00694
491.75951,0.00940
493.68798,0.01680
495.61645,0.01792
497.54491,0.01362
499.47338,0.02098
501.40185,0.03604
503.33032,0.03665
505.25879,0.02976
507.18726,0.03946
509.11573,0.04979
511.04419,0.03790
512.97266,0.01921
514.90113,0.01666
516.82960,0.03640
518.75807,0.05587
520.68654,0.05697
522.61501,0.02927
524.54348,-0.02035
526.47194,-0.03714
528.40041,-0.01959
530.32888,-0.01456
532.25735,-0.00152
534.18582,0.04468
536.11429,0.07498
538.04276,0.05447
539.97122,0.02315
541.89969,0.02187
543.82816,0.04065
545.75663,0.05409
547.68510,0.05849
549.61357,0.04107
551.54204,-0.00517
553.47051,-0.04091
555.39897,-0.02651
557.32744,0.01346
559.25591,0.04021
561.18438,0.04840
563.11285,0.04023
565.04132,0.02943
566.96979,0.03169
568.89825,0.04105
570.82672,0.03324
572.75519,0.00546
574.68366,-0.01596
576.61213,-0.00821
578.54060,0.01975
580.46907,0.05137
582.39754,0.07236
584.32600,0.06311
586.25447,0.03673
588.18294,0.02382
590.11141,0.03137
592.03988,0.05192
593.96835,0.06516
595.89682,0.05924
597.82528,0.04818
599.75375,0.04747
601.68222,0.05530
603.61069,0.06218
605.53916,0.06530
607.46763,0.05896
609.39610,0.04294
611.32456,0.03521
613.25303,0.04052
615.18150,0.05054
617.10997,0.06061
619.03844,0.06292
620.96691,0.06121
622.89538,0.06105
624.82385,0.06294
626.75231,0.06646
628.68078,0.06302
630.60925,0.05672
632.53772,0.06082
634.46619,0.06471
636.39466,0.05510
638.32313,0.05316
640.25159,0.07097
642.18006,0.08009
644.10853,0.07053
646.03700,0.06106
647.96547,0.05920
649.89394,0.06131
651.82241,0.06403
653.75088,0.06186
655.67934,0.04895
657.60781,0.03396
659.53628,0.03133
661.46475,0.04127
663.39322,0.05071
665.32169,0.05024
667.25016,0.04307
669.17862,0.03918
671.10709,0.04185
673.03556,0.05048
674.96403,0.06272
676.89250,0.06516
678.82097,0.05652
680.74944,0.04700
682.67791,0.03599
684.60637,0.03164
686.53484,0.04263
688.46331,0.05278
690.39178,0.05387
692.32025,0.05187
694.24872,0.04752
696.17719,0.04387
698.10565,0.04253
700.03412,0.04137
701.96259,0.03852
703.89106,0.03758
705.81953,0.04570
707.74800,0.06203
709.67647,0.08604
711.60494,0.10139
713.53340,0.08438
715.46187,0.06066
717.39034,0.06244
719.31881,0.07385
721.24728,0.07367
723.17575,0.06565
725.10422,0.06289
727.03268,0.06628
728.96115,0.06762
730.88962,0.06682
732.81809,0.06517
734.74656,0.06088
736.67503,0.06113
738.60350,0.06513
740.53197,0.05945
742.46043,0.04771
744.38890,0.04297
746.31737,0.04806
748.24584,0.05598
750.17431,0.05621
752.10278,0.05161
754.03125,0.05119
755.95971,0.05210
757.88818,0.05039
759.81665,0.04848
761.74512,0.05380
763.67359,0.06817
765.60206,0.07581
767.53053,0.07189
769.45900,0.06607
771.38746,0.05759
773.31593,0.05067
775.24440,0.05163
777.17287,0.05832
779.10134,0.06614
781.02981,0.06722
782.95828,0.06256
784.88674,0.06041
786.81521,0.06170
788.74368,0.06356
790.67215,0.06523
792.60062,0.06508
794.52909,0.06153
796.45756,0.05602
798.38602,0.05064
800.31449,0.04607
802.24296,0.04289
804.17143,0.04566
806.09990,0.05588
808.02837,0.06373
809.95684,0.05728
811.88531,0.04290
813.81377,0.03922
815.74224,0.04377
817.67071,0.04185
819.59918,0.04176
821.52765,0.05206
823.45612,0.06000
825.38459,0.06365
827.31305,0.06961
829.24152,0.06925
831.16999,0.06081
833.09846,0.05622
835.02693,0.05785
836.95540,0.05558
838.88387,0.04929
840.81234,0.04740
842.74080,0.04809
844.66927,0.04880
846.59774,0.05235
848.52621,0.05661
850.45468,0.06037
852.38315,0.06337
854.31162,0.06179
856.24008,0.05738
858.16855,0.05433
860.09702,0.05309
862.02549,0.05687
863.95396,0.06265
865.88243,0.06837
867.81090,0.09372
869.73937,0.12025
871.66783,0.10329
873.59630,0.07651
875.52477,0.07510
877.45324,0.07047
879.38171,0.05837
881.31018,0.05248
883.23865,0.04770
885.16711,0.04731
887.09558,0.05675
889.02405,0.06639
890.95252,0.06862
892.88099,0.06732
894.80946,0.06543
896.73793,0.06019
898.66640,0.05267
900.59486,0.04896
902.52333,0.05302
904.45180,0.06231
906.38027,0.06762
908.30874,0.06585
910.23721,0.06283
912.16568,0.06260
914.09414,0.06401
916.02261,0.06401
917.95108,0.06373
919.87955,0.06505
921.80802,0.06559
923.73649,0.06222
925.66496,0.05760
927.59343,0.05547
929.52189,0.05534
931.45036,0.05867
933.37883,0.06465
935.30730,0.06933
937.23577,0.07093
939.16424,0.06919
941.09271,0.06466
943.02117,0.05966
944.94964,0.05969
946.87811,0.06333
948.80658,0.06045
950.73505,0.05309
952.66352,0.05300
954.59199,0.05838
956.52045,0.06076
958.44892,0.06018
960.37739,0.05793
962.30586,0.05688
964.23433,0.05917
966.16280,0.06017
968.09127,0.05934
970.01974,0.06099
971.94820,0.06275
973.87667,0.06383
975.80514,0.06666
977.73361,0.06874
979.66208,0.06820
981.59055,0.06353
983.51902,0.05843
985.44748,0.06219
987.37595,0.07064
989.30442,0.07114
991.23289,0.06614
993.16136,0.06312
995.08983,0.06114
997.01830,0.06145
998.94677,0.06433
1000.87523,0.06727
1002.80370,0.07014
1004.73217,0.07228
1006.66064,0.07133
1008.58911,0.06762
1010.51758,0.06374
1012.44605,0.06022
1014.37451,0.05932
1016.30298,0.05939
1018.23145,0.05641
1020.15992,0.05524
1022.08839,0.05859
1024.01686,0.05833
1025.94533,0.05098
1027.87380,0.04715
1029.80226,0.05375
1031.73073,0.06343
1033.65920,0.06887
1035.58767,0.06898
1037.51614,0.06476
1039.44461,0.06255
1041.37308,0.06771
1043.30154,0.07434
1045.23001,0.07535
1047.15848,0.07307
1049.08695,0.07144
1051.01542,0.07044
1052.94389,0.07106
1054.87236,0.07165
1056.80083,0.06985
1058.72929,0.06902
1060.65776,0.06882
1062.58623,0.06367
1064.51470,0.05503
1066.44317,0.05198
1068.37164,0.05518
1070.30011,0.05899
1072.22857,0.05917
1074.15704,0.05510
1076.08551,0.05573
1078.01398,0.06262
1079.94245,0.06720
1081.87092,0.06859
1083.79939,0.06994
1085.72786,0.07273
1087.65632,0.07450
1089.58479,0.06964
1091.51326,0.06118
1093.44173,0.05622
1095.37020,0.05407
1097.29867,0.05302
1099.22714,0.05355
1101.15560,0.05440
1103.08407,0.05517
1105.01254,0.05966
1106.94101,0.06537
1108.86948,0.06536
1110.79795,0.06443
1112.72642,0.06682
1114.65489,0.06967
1116.58335,0.07167
1118.51182,0.07293
1120.44029,0.07501
1122.36876,0.07722
1124.29723,0.07420
1126.22570,0.06579
1128.15417,0.06237
1130.08263,0.06680
1132.01110,0.07115
1133.93957,0.07196
1135.86804,0.07029
1137.79651,0.06771
1139.72498,0.06460
1141.65345,0.06257
1143.58191,0.06500
1145.51038,0.06945
1147.43885,0.06916
1149.36732,0.06615
1151.29579,0.06692
1153.22426,0.06858
1155.15273,0.06820
1157.08120,0.06968
1159.00966,0.07260
1160.93813,0.07223
1162.86660,0.07010
1164.79507,0.07124
1166.72354,0.07466
1168.65201,0.07428
1170.58048,0.07026
1172.50894,0.06902
1174.43741,0.07071
1176.36588,0.07295
1178.29435,0.07600
1180.22282,0.07724
1182.15129,0.07569
1184.07976,0.07423
1186.00823,0.07426
1187.93669,0.07532
1189.86516,0.07582
1191.79363,0.07492
1193.72210,0.07553
1195.65057,0.07696
1197.57904,0.07313
1199.50751,0.06672
1201.43597,0.06553
1203.36444,0.06671
1205.29291,0.06500
1207.22138,0.06299
1209.14985,0.06293
1211.07832,0.06446
1213.00679,0.06878
1214.93526,0.07379
1216.86372,0.07486
1218.79219,0.07231
1220.72066,0.06937
1222.64913,0.06738
1224.57760,0.06749
1226.50607,0.06968
1228.43454,0.07023
1230.36300,0.06880
1232.29147,0.06895
1234.21994,0.06990
1236.14841,0.07006
1238.07688,0.06989
1240.00535,0.06879
1241.93382,0.06697
1243.86229,0.06516
1245.79075,0.06323
1247.71922,0.06238
1249.64769,0.06323
1251.57616,0.06321
1253.50463,0.06178
1255.43310,0.06191
1257.36157,0.06275
1259.29003,0.06222
1261.21850,0.06375
1263.14697,0.06797
1265.07544,0.06877
1267.00391,0.06508
1268.93238,0.06267
1270.86085,0.06428
1272.78932,0.06613
1274.71778,0.06550
1276.64625,0.06591
1278.57472,0.06865
1280.50319,0.06897
1282.43166,0.06623
1284.36013,0.06440
1286.28860,0.06339
1288.21706,0.06433
1290.14553,0.06736
1292.07400,0.06699
1294.00247,0.06385
1295.93094,0.06254
1297.85941,0.06161
1299.78788,0.05580
1301.71634,0.04375
1303.64481,0.03458
1305.57328,0.04015
1307.50175,0.05608
1309.43022,0.06704
1311.35869,0.07138
1313.28716,0.07511
1315.21563,0.07673
1317.14409,0.07483
1319.07256,0.07087
1321.00103,0.06693
1322.92950,0.06630
1324.85797,0.06750
1326.78644,0.06775
1328.71491,0.06798
1330.64337,0.06472
1332.57184,0.06026
1334.50031,0.06201
1336.42878,0.06531
1338.35725,0.06559
1340.28572,0.06239
1342.21419,0.05904
1344.14266,0.06169
1346.07112,0.06521
1347.99959,0.06412
1349.92806,0.06199
1351.85653,0.06164
1353.78500,0.06288
1355.71347,0.06497
1357.64194,0.06640
1359.57040,0.06747
1361.49887,0.07104
1363.42734,0.07552
1365.35581,0.07682
1367.28428,0.07746
1369.21275,0.07835
1371.14122,0.07826
1373.06969,0.07968
1374.99815,0.08124
1376.92662,0.07724
1378.85509,0.07101
1380.78356,0.06839
1382.71203,0.07017
1384.64050,0.07438
1386.56897,0.07867
1388.49743,0.07982
1390.42590,0.07782
1392.35437,0.07763
1394.28284,0.08100
1396.21131,0.08436
1398.13978,0.08586
1400.06825,0.08408
1401.99672,0.08026
1403.92518,0.07746
1405.85365,0.07519
1407.78212,0.07356
1409.71059,0.07439
1411.63906,0.07754
1413.56753,0.07904
1415.49600,0.07765
1417.42446,0.07635
1419.35293,0.07542
1421.28140,0.07498
1423.20987,0.07675
1425.13834,0.07840
1427.06681,0.07738
1428.99528,0.07661
1430.92375,0.07878
1432.85221,0.08139
1434.78068,0.08197
1436.70915,0.07964
1438.63762,0.07679
1440.56609,0.07619
1442.49456,0.07685
1444.42303,0.07805
1446.35149,0.08070
1448.27996,0.08400
1450.20843,0.08410
1452.13690,0.08180
1454.06537,0.08187
1455.99384,0.08560
1457.92231,0.08463
1459.85077,0.08034
1461.77924,0.08006
1463.70771,0.08038
1465.63618,0.07919
1467.56465,0.07951
1469.49312,0.08425
1471.42159,0.09221
1473.35006,0.09428
1475.27852,0.08752
1477.20699,0.08281
1479.13546,0.08222
1481.06393,0.08300
1482.99240,0.08409
1484.92087,0.08483
1486.84934,0.08552
1488.77780,0.08701
1490.70627,0.08451
1492.63474,0.08060
1494.56321,0.08217
1496.49168,0.08620
1498.42015,0.08418
1500.34862,0.07993
1502.27709,0.07952
1504.20555,0.08225
1506.13402,0.09005
1508.06249,0.09656
1509.99096,0.09101
1511.91943,0.08329
1513.84790,0.07719
1515.77637,0.07345
1517.70483,0.07546
1519.63330,0.08551
1521.56177,0.09656
1523.49024,0.09588
1525.41871,0.08867
1527.34718,0.08251
1529.27565,0.07951
1531.20412,0.08129
1533.13258,0.08692
1535.06105,0.08978
1536.98952,0.09112
1538.91799,0.09705
1540.84646,0.10290
1542.77493,0.10025
1544.70340,0.09672
1546.63186,0.09327
1548.56033,0.08875
1550.48880,0.08449
1552.41727,0.08568
1554.34574,0.09144
1556.27421,0.09558
1558.20268,0.09813
1560.13115,0.09604
1562.05961,0.08949
1563.98808,0.08364
1565.91655,0.08033
1567.84502,0.08232
1569.77349,0.08761
1571.70196,0.08911
1573.63043,0.08771
1575.55889,0.08658
1577.48736,0.08482
1579.41583,0.08228
1581.34430,0.08101
1583.27277,0.08133
1585.20124,0.08227
1587.12971,0.08305
1589.05818,0.08220
1590.98664,0.08044
1592.91511,0.08007
1594.84358,0.07982
1596.77205,0.07877
1598.70052,0.07919
1600.62899,0.08230
1602.55746,0.08530
1604.48592,0.08488
1606.41439,0.08269
1608.34286,0.08094
1610.27133,0.08029
1612.19980,0.08192
1614.12827,0.08570
1616.05674,0.09001
1617.98521,0.09056
1619.91367,0.08821
1621.84214,0.08666
1623.77061,0.08588
1625.69908,0.08548
1627.62755,0.08534
1629.55602,0.08521
1631.48449,0.08656
1633.41295,0.09251
1635.34142,0.10316
1637.26989,0.10201
1639.19836,0.09237
1641.12683,0.08823
1643.05530,0.08980
1644.98377,0.09562
1646.91223,0.10005
1648.84070,0.09611
1650.76917,0.09603
1652.69764,0.10431
1654.62611,0.10035
1656.55458,0.08843
1658.48305,0.08288
1660.41152,0.08282
1662.33998,0.08433
1664.26845,0.08360
1666.19692,0.08164
1668.12539,0.08180
1670.05386,0.08515
1671.98233,0.08740
1673.91080,0.08852
1675.83926,0.08818
1677.76773,0.08557
1679.69620,0.08462
1681.62467,0.08835
1683.55314,0.09626
1685.48161,0.09796
1687.41008,0.09355
1689.33855,0.09077
1691.26701,0.08872
1693.19548,0.08674
1695.12395,0.08768
1697.05242,0.09362
1698.98089,0.09761
1700.90936,0.09341
1702.83783,0.09055
1704.76629,0.09281
1706.69476,0.09099
1708.62323,0.08336
1710.55170,0.07915
1712.48017,0.08165
1714.40864,0.08729
1716.33711,0.09031
1718.26558,0.08742
1720.19404,0.08362
1722.12251,0.08217
1724.05098,0.08285
1725.97945,0.08403
1727.90792,0.08392
1729.83639,0.08341
1731.76486,0.08448
1733.69332,0.08552
1735.62179,0.08409
1737.55026,0.08398
1739.47873,0.08526
1741.40720,0.08582
1743.33567,0.08545
1745.26414,0.08445
1747.19261,0.08327
1749.12107,0.08173
1751.04954,0.07954
1752.97801,0.07845
1754.90648,0.08008
1756.83495,0.08411
1758.76342,0.08806
1760.69189,0.08974
1762.62035,0.08702
1764.54882,0.08281
1766.47729,0.08179
1768.40576,0.08325
1770.33423,0.08493
1772.26270,0.08543
1774.19117,0.08489
1776.11964,0.08517
1778.04810,0.08645
1779.97657,0.08735
1781.90504,0.08688
1783.83351,0.08508
1785.76198,0.08215
1787.69045,0.08055
1789.61892,0.08249
1791.54738,0.08582
1793.47585,0.08600
1795.40432,0.08459
1797.33279,0.08429
1799.26126,0.08466
1801.18973,0.08489
1803.11820,0.08400
1805.04666,0.08170
1806.97513,0.08008
1808.90360,0.08118
1810.83207,0.08276
1812.76054,0.08273
1814.68901,0.08305
1816.61748,0.08405
1818.54595,0.08352
1820.47441,0.08171
1822.40288,0.08063
1824.33135,0.08094
1826.25982,0.08275
1828.18829,0.08498
1830.11676,0.08657
1832.04523,0.08573
1833.97369,0.08229
1835.90216,0.08005
1837.83063,0.08142
1839.75910,0.08343
1841.68757,0.08437
1843.61604,0.08454
1845.54451,0.08314
1847.47298,0.08260
1849.40144,0.08355
1851.32991,0.08297
1853.25838,0.08088
1855.18685,0.07965
1857.11532,0.07941
1859.04379,0.07946
1860.97226,0.08093
1862.90072,0.08363
1864.82919,0.08590
1866.75766,0.08759
1868.68613,0.08810
1870.61460,0.08660
1872.54307,0.08491
1874.47154,0.08485
1876.40001,0.08622
1878.32847,0.08670
1880.25694,0.08543
1882.18541,0.08398
1884.11388,0.08314
1886.04235,0.08300
1887.97082,0.08385
1889.89929,0.08430
1891.82775,0.08333
1893.75622,0.08227
1895.68469,0.08205
1897.61316,0.08282
1899.54163,0.08394
1901.47010,0.08442
1903.39857,0.08483
1905.32704,0.08585
1907.25550,0.08586
1909.18397,0.08403
1911.11244,0.08256
1913.04091,0.08300
1914.96938,0.08421
1916.89785,0.08430
1918.82632,0.08291
1920.75478,0.08248
1922.68325,0.08315
1924.61172,0.08141
1926.54019,0.07864
1928.46866,0.07891
1930.39713,0.08076
1932.32560,0.08134
1934.25407,0.08112
1936.18253,0.08100
1938.11100,0.08065
1940.03947,0.08061
1941.96794,0.08245
1943.89641,0.08502
1945.82488,0.08571
1947.75335,0.08418
1949.68181,0.08177
1951.61028,0.08053
1953.53875,0.08165
1955.46722,0.08408
1957.39569,0.08517
1959.32416,0.08474
1961.25263,0.08411
1963.18110,0.08355
1965.10956,0.08400
1967.03803,0.08473
1968.96650,0.08366
1970.89497,0.08180
1972.82344,0.08133
1974.75191,0.08153
1976.68038,0.08088
1978.60884,0.08012
1980.53731,0.08027
1982.46578,0.08124
1984.39425,0.08292
1986.32272,0.08486
1988.25119,0.08471
1990.17966,0.08249
1992.10812,0.08165
1994.03659,0.08239
1995.96506,0.08359
1997.89353,0.08414
1999.82200,0.08296
2001.75047,0.08235
2003.67894,0.08336
2005.60741,0.08427
2007.53587,0.08430
2009.46434,0.08382
2011.39281,0.08408
2013.32128,0.08533
2015.24975,0.08596
2017.17822,0.08582
2019.10669,0.08627
2021.03515,0.08660
2022.96362,0.08523
2024.89209,0.08339
2026.82056,0.08276
2028.74903,0.08237
2030.67750,0.08222
2032.60597,0.08344
2034.53444,0.08521
2036.46290,0.08685
2038.39137,0.08815
2040.31984,0.08765
2042.24831,0.08532
2044.17678,0.08324
2046.10525,0.08263
2048.03372,0.08332
2049.96218,0.08484
2051.89065,0.08602
2053.81912,0.08563
2055.74759,0.08461
2057.67606,0.08422
2059.60453,0.08424
2061.53300,0.08501
2063.46147,0.08567
2065.38993,0.08424
2067.31840,0.08229
2069.24687,0.08207
2071.17534,0.08243
2073.10381,0.08271
2075.03228,0.08375
2076.96075,0.08493
2078.88921,0.08625
2080.81768,0.08839
2082.74615,0.08856
2084.67462,0.08591
2086.60309,0.08498
2088.53156,0.08627
2090.46003,0.08645
2092.38850,0.08515
2094.31696,0.08382
2096.24543,0.08338
2098.17390,0.08388
2100.10237,0.08487
2102.03084,0.08511
2103.95931,0.08411
2105.88778,0.08358
2107.81624,0.08400
2109.74471,0.08449
2111.67318,0.08535
2113.60165,0.08643
2115.53012,0.08644
2117.45859,0.08525
2119.38706,0.08416
2121.31553,0.08372
2123.24399,0.08307
2125.17246,0.08255
2127.10093,0.08273
2129.02940,0.08299
2130.95787,0.08370
2132.88634,0.08405
2134.81481,0.08294
2136.74327,0.08151
2138.67174,0.08097
2140.60021,0.08204
2142.52868,0.08303
2144.45715,0.08208
2146.38562,0.08100
2148.31409,0.08087
2150.24255,0.08131
2152.17102,0.08238
2154.09949,0.08296
2156.02796,0.08330
2157.95643,0.08530
2159.88490,0.08758
2161.81337,0.08838
2163.74184,0.08844
2165.67030,0.08811
2167.59877,0.08782
2169.52724,0.08783
2171.45571,0.08758
2173.38418,0.08673
2175.31265,0.08504
2177.24112,0.08272
2179.16958,0.08046
2181.09805,0.07970
2183.02652,0.08101
2184.95499,0.08170
2186.88346,0.08017
2188.81193,0.07851
2190.74040,0.07838
2192.66887,0.08011
2194.59733,0.08266
2196.52580,0.08372
2198.45427,0.08298
2200.38274,0.08212
2202.31121,0.08324
2204.23968,0.08529
2206.16815,0.08492
2208.09661,0.08351
2210.02508,0.08312
2211.95355,0.08309
2213.88202,0.08348
2215.81049,0.08416
2217.73896,0.08504
2219.66743,0.08592
2221.59590,0.08606
2223.52436,0.08534
2225.45283,0.08363
2227.38130,0.08257
2229.30977,0.08346
2231.23824,0.08440
2233.16671,0.08430
2235.09518,0.08426
2237.02364,0.08440
2238.95211,0.08417
2240.88058,0.08418
2242.80905,0.08461
2244.73752,0.08451
2246.66599,0.08365
2248.59446,0.08370
2250.52293,0.08593
2252.45139,0.08792
2254.37986,0.08723
2256.30833,0.08528
2258.23680,0.08432
2260.16527,0.08400
2262.09374,0.08240
2264.02221,0.08062
2265.95067,0.08123
2267.87914,0.08284
2269.80761,0.08325
2271.73608,0.08251
2273.66455,0.08142
2275.59302,0.08062
2277.52149,0.08073
2279.44996,0.08159
2281.37842,0.08244
2283.30689,0.08351
2285.23536,0.08428
2287.16383,0.08407
2289.09230,0.08281
2291.02077,0.07975
2292.94924,0.07680
2294.87770,0.07768
2296.80617,0.08177
2298.73464,0.08412
2300.66311,0.08295
2302.59158,0.08137
2304.52005,0.08132
2306.44852,0.08223
2308.37699,0.08260
2310.30545,0.08159
2312.23392,0.08105
2314.16239,0.08331
2316.09086,0.08598
2318.01933,0.08516
2319.94780,0.08296
2321.87627,0.08040
2323.80473,0.07679
2325.73320,0.07900
2327.66167,0.08405
2329.59014,0.08156
2331.51861,0.07930
2333.44708,0.08548
2335.37555,0.09075
2337.30401,0.09042
2339.23248,0.08561
2341.16095,0.07794
2343.08942,0.07768
2345.01789,0.08225
2346.94636,0.08081
2348.87483,0.07821
2350.80330,0.07724
2352.73176,0.07765
2354.66023,0.07906
2356.58870,0.07848
2358.51717,0.08198
2360.44564,0.09317
2362.37411,0.09777
2364.30258,0.08990
2366.23104,0.08160
2368.15951,0.08006
2370.08798,0.08331
2372.01645,0.08598
2373.94492,0.08417
2375.87339,0.08139
2377.80186,0.08135
2379.73033,0.08164
2381.65879,0.08042
2383.58726,0.08069
2385.51573,0.08380
2387.44420,0.08690
2389.37267,0.08830
2391.30114,0.08874
2393.22961,0.08845
2395.15807,0.08717
2397.08654,0.08600
2399.01501,0.08591
2400.94348,0.08676
2402.87195,0.08758
2404.80042,0.08658
2406.72889,0.08445
2408.65736,0.08376
2410.58582,0.08489
2412.51429,0.08710
2414.44276,0.08914
2416.37123,0.08978
2418.29970,0.08851
2420.22817,0.08629
2422.15664,0.08573
2424.08510,0.08654
2426.01357,0.08599
2427.94204,0.08394
2429.87051,0.08243
2431.79898,0.08297
2433.72745,0.08501
2435.65592,0.08704
2437.58439,0.08739
2439.51285,0.08620
2441.44132,0.08543
2443.36979,0.08511
2445.29826,0.08497
2447.22673,0.08564
2449.15520,0.08709
2451.08367,0.08807
2453.01213,0.08734
2454.94060,0.08604
2456.86907,0.08614
2458.79754,0.08702
2460.72601,0.08701
2462.65448,0.08604
2464.58295,0.08591
2466.51142,0.08824
2468.43988,0.09078
2470.36835,0.09058
2472.29682,0.08855
2474.22529,0.08705
2476.15376,0.08685
2478.08223,0.08683
2480.01070,0.08711
2481.93916,0.08842
2483.86763,0.08869
2485.79610,0.08720
2487.72457,0.08623
2489.65304,0.08598
2491.58151,0.08580
2493.50998,0.08621
2495.43844,0.08690
2497.36691,0.08748
2499.29538,0.08746
2501.22385,0.08712
2503.15232,0.08782
2505.08079,0.08864
2507.00926,0.08876
2508.93773,0.08947
2510.86619,0.08980
2512.79466,0.08824
2514.72313,0.08636
2516.65160,0.08606
2518.58007,0.08794
2520.50854,0.08963
2522.43701,0.08860
2524.36547,0.08765
2526.29394,0.08915
2528.22241,0.09079
2530.15088,0.09031
2532.07935,0.08894
2534.00782,0.08828
2535.93629,0.08747
2537.86476,0.08596
2539.79322,0.08450
2541.72169,0.08394
2543.65016,0.08529
2545.57863,0.08808
2547.50710,0.08907
2549.43557,0.08738
2551.36404,0.08596
2553.29250,0.08588
2555.22097,0.08630
2557.14944,0.08590
2559.07791,0.08542
2561.00638,0.08694
2562.93485,0.08854
2564.86332,0.08832
2566.79179,0.08751
2568.72025,0.08705
2570.64872,0.08672
2572.57719,0.08611
2574.50566,0.08529
2576.43413,0.08431
2578.36260,0.08360
2580.29107,0.08405
2582.21953,0.08518
2584.14800,0.08615
2586.07647,0.08687
2588.00494,0.08683
2589.93341,0.08672
2591.86188,0.08701
2593.79035,0.08656
2595.71882,0.08599
2597.64728,0.08670
2599.57575,0.08797
2601.50422,0.08862
2603.43269,0.08936
2605.36116,0.09071
2607.28963,0.09109
2609.21810,0.09125
2611.14656,0.09229
2613.07503,0.09105
2615.00350,0.08747
2616.93197,0.08661
2618.86044,0.08904
2620.78891,0.09046
2622.71738,0.08987
2624.64585,0.08911
2626.57431,0.08865
2628.50278,0.08904
2630.43125,0.08970
2632.35972,0.08945
2634.28819,0.08944
2636.21666,0.08978
2638.14513,0.08861
2640.07359,0.08666
2642.00206,0.08711
2643.93053,0.08925
2645.85900,0.09003
2647.78747,0.08950
2649.71594,0.08902
2651.64441,0.08879
2653.57288,0.08817
2655.50134,0.08814
2657.42981,0.08956
2659.35828,0.09104
2661.28675,0.09180
2663.21522,0.09224
2665.14369,0.09244
2667.07216,0.09232
2669.00062,0.09346
2670.92909,0.09519
2672.85756,0.09512
2674.78603,0.09360
2676.71450,0.09088
2678.64297,0.08884
2680.57144,0.08998
2682.49990,0.09248
2684.42837,0.09385
2686.35684,0.09410
2688.28531,0.09378
2690.21378,0.09168
2692.14225,0.08840
2694.07072,0.08752
2695.99919,0.08898
2697.92765,0.09044
2699.85612,0.09198
2701.78459,0.09292
2703.71306,0.09184
2705.64153,0.08998
2707.57000,0.08963
2709.49847,0.09079
2711.42693,0.09056
2713.35540,0.08831
2715.28387,0.08769
2717.21234,0.08936
2719.14081,0.09048
2721.06928,0.09089
2722.99775,0.09078
2724.92622,0.08888
2726.85468,0.08783
2728.78315,0.08967
2730.71162,0.09075
2732.64009,0.08943
2734.56856,0.08793
2736.49703,0.08803
2738.42550,0.09010
2740.35396,0.09279
2742.28243,0.09460
2744.21090,0.09451
2746.13937,0.09308
2748.06784,0.09247
2749.99631,0.09387
2751.92478,0.09635
2753.85325,0.09749
2755.78171,0.09615
2757.71018,0.09379
2759.63865,0.09245
2761.56712,0.09330
2763.49559,0.09548
2765.42406,0.09692
2767.35253,0.09658
2769.28099,0.09460
2771.20946,0.09207
2773.13793,0.09078
2775.06640,0.09031
2776.99487,0.08893
2778.92334,0.08763
2780.85181,0.08822
2782.78028,0.09095
2784.70874,0.09350
2786.63721,0.09298
2788.56568,0.09212
2790.49415,0.09362
2792.42262,0.09449
2794.35109,0.09408
2796.27956,0.09360
2798.20802,0.09186
2800.13649,0.08937
2802.06496,0.08807
2803.99343,0.08837
2805.92190,0.09026
2807.85037,0.09265
2809.77884,0.09363
2811.70731,0.09376
2813.63577,0.09415
2815.56424,0.09479
2817.49271,0.09566
2819.42118,0.09539
2821.34965,0.09342
2823.27812,0.09175
2825.20659,0.09140
2827.13505,0.09173
2829.06352,0.09264
2830.99199,0.09349
2832.92046,0.09397
2834.84893,0.09433
2836.77740,0.09322
2838.70587,0.09072
2840.63433,0.08958
2842.56280,0.09113
2844.49127,0.09277
2846.41974,0.09240
2848.34821,0.09193
2850.27668,0.09208
2852.20515,0.09163
2854.13362,0.09169
2856.06208,0.09198
2857.99055,0.09055
2859.91902,0.09064
2861.84749,0.09409
2863.77596,0.09525
2865.70443,0.09204
2867.63290,0.08990
2869.56136,0.09253
2871.48983,0.09655
2873.41830,0.09785
2875.34677,0.09720
2877.27524,0.09653
2879.20371,0.09656
2881.13218,0.09610
2883.06065,0.09363
2884.98911,0.09157
2886.91758,0.09342
2888.84605,0.09727
2890.77452,0.09828
2892.70299,0.09576
2894.63146,0.09251
2896.55993,0.09063
2898.48839,0.09096
2900.41686,0.09322
2902.34533,0.09411
2904.27380,0.09110
2906.20227,0.08769
2908.13074,0.08638
2910.05921,0.08604
2911.98768,0.08778
2913.91614,0.08875
2915.84461,0.08455
2917.77308,0.08311
2919.70155,0.08960
2921.63002,0.09300
2923.55849,0.08576
2925.48696,0.07521
2927.41542,0.07417
2929.34389,0.08231
2931.27236,0.08747
2933.20083,0.08636
2935.12930,0.08195
2937.05777,0.07833
2938.98624,0.08262
2940.91471,0.09083
2942.84317,0.09250
2944.77164,0.08682
2946.70011,0.07905
2948.62858,0.07699
2950.55705,0.08299
2952.48552,0.08967
2954.41399,0.09086
2956.34245,0.08475
2958.27092,0.07830
2960.19939,0.08030
2962.12786,0.08633
2964.05633,0.08908
2965.98480,0.08664
2967.91327,0.08222
2969.84174,0.08415
2971.77020,0.09322
2973.69867,0.10144
2975.62714,0.10100
2977.55561,0.09246
2979.48408,0.08808
2981.41255,0.09190
2983.34102,0.09522
2985.26948,0.09313
2987.19795,0.08727
2989.12642,0.08570
2991.05489,0.09179
2992.98336,0.09696
2994.91183,0.09698
2996.84030,0.09535
2998.76877,0.09521
3000.69723,0.09695
3002.62570,0.09766
3004.55417,0.09571
3006.48264,0.09167
3008.41111,0.08613
3010.33958,0.07794
3012.26805,0.06304
3014.19651,0.04245
3016.12498,0.02994
3018.05345,0.04154
3019.98192,0.07031
3021.91039,0.09268
3023.83886,0.10095
3025.76733,0.10048
3027.69579,0.09623
3029.62426,0.09387
3031.55273,0.09558
3033.48120,0.09899
3035.40967,0.10090
3037.33814,0.09960
3039.26661,0.09749
3041.19508,0.09674
3043.12354,0.09672
3045.05201,0.09664
3046.98048,0.09506
3048.90895,0.09298
3050.83742,0.09232
3052.76589,0.09168
3054.69436,0.08741
3056.62282,0.08100
3058.55129,0.08383
3060.47976,0.09464
3062.40823,0.09828
3064.33670,0.09240
3066.26517,0.08584
3068.19364,0.08709
3070.12211,0.09471
3072.05057,0.09902
3073.97904,0.09511
3075.90751,0.08845
3077.83598,0.08939
3079.76445,0.09644
3081.69292,0.10000
3083.62139,0.09346
3085.54985,0.08177
3087.47832,0.08022
3089.40679,0.08733
3091.33526,0.08872
3093.26373,0.08253
3095.19220,0.07990
3097.12067,0.08579
3099.04914,0.09162
3100.97760,0.09236
3102.90607,0.08903
3104.83454,0.08680
3106.76301,0.08871
3108.69148,0.08968
3110.61995,0.08710
3112.54842,0.08387
3114.47688,0.08555
3116.40535,0.09204
3118.33382,0.09632
3120.26229,0.09308
3122.19076,0.08628
3124.11923,0.08729
3126.04770,0.09348
3127.97617,0.09277
3129.90463,0.08736
3131.83310,0.08669
3133.76157,0.09084
3135.69004,0.09538
3137.61851,0.09707
3139.54698,0.09613
3141.47545,0.09872
3143.40391,0.10380
3145.33238,0.10387
3147.26085,0.09900
3149.18932,0.09534
3151.11779,0.09590
3153.04626,0.09610
3154.97473,0.09349
3156.90320,0.09269
3158.83166,0.09427
3160.76013,0.09400
3162.68860,0.09207
3164.61707,0.09184
3166.54554,0.09509
3168.47401,0.09919
3170.40248,0.09970
3172.33094,0.09703
3174.25941,0.09517
3176.18788,0.09787
3178.11635,0.10322
3180.04482,0.10439
3181.97329,0.10200
3183.90176,0.10295
3185.83022,0.10640
3187.75869,0.10577
3189.68716,0.10198
3191.61563,0.09842
3193.54410,0.09591
3195.47257,0.09746
3197.40104,0.10109
3199.32951,0.09997
3201.25797,0.09485
3203.18644,0.09205
3205.11491,0.09356
3207.04338,0.09648
3208.97185,0.09787
3210.90032,0.09701
3212.82879,0.09685
3214.75725,0.09886
3216.68572,0.09958
3218.61419,0.09881
3220.54266,0.09867
3222.47113,0.09930
3224.39960,0.10072
3226.32807,0.10057
3228.25654,0.09800
3230.18500,0.09777
3232.11347,0.10133
3234.04194,0.10359
3235.97041,0.10157
3237.89888,0.09832
3239.82735,0.09775
3241.75582,0.09855
3243.68428,0.09905
3245.61275,0.10138
3247.54122,0.10433
3249.46969,0.10405
3251.39816,0.10062
3253.32663,0.09781
3255.25510,0.09733
3257.18357,0.09755
3259.11203,0.09727
3261.04050,0.09477
3262.96897,0.09155
3264.89744,0.09150
3266.82591,0.09356
3268.75438,0.09618
3270.68285,0.09962
3272.61131,0.10261
3274.53978,0.10372
3276.46825,0.10271
3278.39672,0.10018
3280.32519,0.09778
3282.25366,0.09799
3284.18213,0.10078
3286.11060,0.10205
3288.03906,0.09920
3289.96753,0.09605
3291.89600,0.09768
3293.82447,0.10089
3295.75294,0.09921
3297.68141,0.09435
3299.60988,0.09244
3301.53834,0.09436
3303.46681,0.09670
3305.39528,0.09866
3307.32375,0.10179
3309.25222,0.10420
3311.18069,0.10227
3313.10916,0.09729
3315.03763,0.09449
3316.96609,0.09604
3318.89456,0.09817
3320.82303,0.09783
3322.75150,0.09758
3324.67997,0.10009
3326.60844,0.10281
3328.53691,0.10253
3330.46537,0.10240
3332.39384,0.10347
3334.32231,0.10274
3336.25078,0.10223
3338.17925,0.10241
3340.10772,0.10097
3342.03619,0.09854
3343.96466,0.09509
3345.89312,0.09231
3347.82159,0.09354
3349.75006,0.09606
3351.67853,0.09903
3353.60700,0.10659
3355.53547,0.11250
3357.46394,0.10939
3359.39240,0.10393
3361.32087,0.10329
3363.24934,0.10388
3365.17781,0.10151
3367.10628,0.10103
3369.03475,0.10528
3370.96322,0.10973
3372.89168,0.10986
3374.82015,0.10518
3376.74862,0.10139
3378.67709,0.10234
3380.60556,0.10466
3382.53403,0.10661
3384.46250,0.10749
3386.39097,0.10328
3388.31943,0.09726
3390.24790,0.09632
3392.17637,0.09690
3394.10484,0.09618
3396.03331,0.09782
3397.96178,0.09930
3399.89025,0.09705
3401.81871,0.09486
3403.74718,0.09532
3405.67565,0.09667
3407.60412,0.09719
3409.53259,0.09508
3411.46106,0.09064
3413.38953,0.08765
3415.31800,0.08861
3417.24646,0.09345
3419.17493,0.09973
3421.10340,0.10317
3423.03187,0.10175
3424.96034,0.09915
3426.88881,0.09873
3428.81728,0.09793
3430.74574,0.09618
3432.67421,0.09637
3434.60268,0.09740
3436.53115,0.09713
3438.45962,0.09567
3440.38809,0.09375
3442.31656,0.09192
3444.24503,0.09058
3446.17349,0.09135
3448.10196,0.09407
3450.03043,0.09301
3451.95890,0.08862
3453.88737,0.08729
3455.81584,0.08885
3457.74431,0.09128
3459.67277,0.09326
3461.60124,0.09158
3463.52971,0.08684
3465.45818,0.08375
3467.38665,0.08461
3469.31512,0.08723
3471.24359,0.09001
3473.17206,0.09248
3475.10052,0.09353
3477.02899,0.09364
3478.95746,0.09266
3480.88593,0.09069
3482.81440,0.09165
3484.74287,0.09529
3486.67134,0.09475
3488.59980,0.08949
3490.52827,0.08512
3492.45674,0.08311
3494.38521,0.08326
3496.31368,0.08531
3498.24215,0.08650
3500.17062,0.08589
3502.09909,0.08630
3504.02755,0.08725
3505.95602,0.08382
3507.88449,0.07900
3509.81296,0.08067
3511.74143,0.08562
3513.66990,0.08562
3515.59837,0.08378
3517.52683,0.08528
3519.45530,0.08825
3521.38377,0.09052
3523.31224,0.09071
3525.24071,0.08827
3527.16918,0.08518
3529.09765,0.08248
3531.02611,0.08146
3532.95458,0.08172
3534.88305,0.08030
3536.81152,0.07611
3538.73999,0.07196
3540.66846,0.07118
3542.59693,0.07369
3544.52540,0.07740
3546.45386,0.07986
3548.38233,0.07994
3550.31080,0.07913
3552.23927,0.07898
3554.16774,0.08009
3556.09621,0.08022
3558.02468,0.07773
3559.95314,0.07447
3561.88161,0.07241
3563.81008,0.07406
3565.73855,0.08073
3567.66702,0.08605
3569.59549,0.08328
3571.52396,0.07617
3573.45243,0.06868
3575.38089,0.06490
3577.30936,0.06736
3579.23783,0.07134
3581.16630,0.07207
3583.09477,0.07214
3585.02324,0.07461
3586.95171,0.07829
3588.88017,0.07894
3590.80864,0.07820
3592.73711,0.07914
3594.66558,0.08129
3596.59405,0.08324
3598.52252,0.08190
3600.45099,0.07704
3602.37946,0.07256
3604.30792,0.07016
3606.23639,0.06827
3608.16486,0.06622
3610.09333,0.06680
3612.02180,0.07134
3613.95027,0.07651
3615.87874,0.07782
3617.80720,0.07581
3619.73567,0.07111
3621.66414,0.06599
3623.59261,0.06517
3625.52108,0.06919
3627.44955,0.07580
3629.37802,0.07613
3631.30649,0.06973
3633.23495,0.06777
3635.16342,0.06785
3637.09189,0.06636
3639.02036,0.06497
3640.94883,0.06442
3642.87730,0.06312
3644.80577,0.06103
3646.73423,0.06118
3648.66270,0.06848
3650.59117,0.07603
3652.51964,0.07484
3654.44811,0.07050
3656.37658,0.06551
3658.30505,0.06363
3660.23352,0.06442
3662.16198,0.06366
3664.09045,0.06263
3666.01892,0.06414
3667.94739,0.06812
3669.87586,0.07146
3671.80433,0.06913
3673.73280,0.06471
3675.66126,0.06073
3677.58973,0.05885
3679.51820,0.05974
3681.44667,0.06178
3683.37514,0.06367
3685.30361,0.06572
3687.23208,0.06886
3689.16055,0.06989
3691.08901,0.06656
3693.01748,0.06539
3694.94595,0.06562
3696.87442,0.06366
3698.80289,0.06053
3700.73136,0.05941
3702.65983,0.06060
3704.58829,0.06095
3706.51676,0.06143
3708.44523,0.06450
3710.37370,0.06641
3712.30217,0.06250
3714.23064,0.05853
3716.15911,0.05728
3718.08757,0.05804
3720.01604,0.05947
3721.94451,0.05991
3723.87298,0.06245
3725.80145,0.06620
3727.72992,0.06632
3729.65839,0.06680
3731.58686,0.06877
3733.51532,0.06720
3735.44379,0.06343
3737.37226,0.06332
3739.30073,0.06644
3741.22920,0.06888
3743.15767,0.06825
3745.08614,0.06736
3747.01460,0.07093
3748.94307,0.07606
3750.87154,0.07519
3752.80001,0.06948
3754.72848,0.07032
3756.65695,0.07410
3758.58542,0.07264
3760.51389,0.06462
3762.44235,0.05928
3764.37082,0.05956
3766.29929,0.06306
3768.22776,0.06610
3770.15623,0.06450
3772.08470,0.06011
3774.01317,0.05870
3775.94163,0.06075
3777.87010,0.06314
3779.79857,0.06216
3781.72704,0.05935
3783.65551,0.05731
3785.58398,0.05530
3787.51245,0.05403
3789.44092,0.05534
3791.36938,0.05869
3793.29785,0.06189
3795.22632,0.06505
3797.15479,0.06834
3799.08326,0.06942
3801.01173,0.06769
3802.94020,0.06457
3804.86866,0.06165
3806.79713,0.05868
3808.72560,0.05606
3810.65407,0.05457
3812.58254,0.05614
3814.51101,0.06165
3816.43948,0.06504
3818.36795,0.06564
3820.29641,0.07296
3822.22488,0.07504
3824.15335,0.06467
3826.08182,0.05866
3828.01029,0.05990
3829.93876,0.06135
3831.86723,0.06116
3833.79569,0.06107
3835.72416,0.06095
3837.65263,0.06057
3839.58110,0.06164
3841.50957,0.06195
3843.43804,0.05816
3845.36651,0.05457
3847.29498,0.05461
3849.22344,0.05546
3851.15191,0.05651
3853.08038,0.06046
3855.00885,0.06263
3856.93732,0.06094
3858.86579,0.05938
3860.79426,0.05749
3862.72272,0.05561
3864.65119,0.05603
3866.57966,0.05758
3868.50813,0.06018
3870.43660,0.06170
3872.36507,0.05820
3874.29354,0.05482
3876.22200,0.05506
3878.15047,0.05846
3880.07894,0.06143
3882.00741,0.05862
3883.93588,0.05396
3885.86435,0.05241
3887.79282,0.05356
3889.72129,0.05370
3891.64975,0.05090
3893.57822,0.04869
3895.50669,0.05058
3897.43516,0.05463
3899.36363,0.05680
3901.29210,0.05444
3903.22057,0.04991
3905.14903,0.04778
3907.07750,0.04961
3909.00597,0.05220
3910.93444,0.05357
3912.86291,0.05387
3914.79138,0.05157
3916.71985,0.04901
3918.64832,0.05100
3920.57678,0.05169
3922.50525,0.04918
3924.43372,0.04838
3926.36219,0.04885
3928.29066,0.05069
3930.21913,0.05483
3932.14760,0.05598
3934.07606,0.05305
3936.00453,0.05203
3937.93300,0.05250
3939.86147,0.05214
3941.78994,0.05128
3943.71841,0.05045
3945.64688,0.05104
3947.57535,0.05233
3949.50381,0.05198
3951.43228,0.05038
3953.36075,0.04785
3955.28922,0.04609
3957.21769,0.04845
3959.14616,0.05168
3961.07463,0.05159
3963.00309,0.04918
3964.93156,0.04630
3966.86003,0.04556
3968.78850,0.04757
3970.71697,0.04897
3972.64544,0.04846
3974.57391,0.04875
3976.50238,0.05008
3978.43084,0.04974
3980.35931,0.04793
3982.28778,0.04735
3984.21625,0.04904
3986.14472,0.05031
3988.07319,0.04936
3990.00166,0.04796
3991.93012,0.04749
3993.85859,0.04640
3995.78706,0.04354
3997.71553,0.04261
3999.64400,0.04714
4001.57247,0.05410
4003.50094,0.05714
4005.42941,0.05489
4007.35787,0.05106
4009.28634,0.04774
4011.21481,0.04580
4013.14328,0.04605
4015.07175,0.04722
4017.00022,0.04839
4018.92869,0.04976
4020.85715,0.05008
4022.78562,0.04993
4024.71409,0.05038
4026.64256,0.04931
4028.57103,0.04771
4030.49950,0.04639
4032.42797,0.04475
4034.35644,0.04757
4036.28490,0.05324
4038.21337,0.05429
4040.14184,0.05236
4042.07031,0.05166
4043.99878,0.05093
4045.92725,0.04860
4047.85572,0.04587
4049.78418,0.04460
4051.71265,0.04444
4053.64112,0.04288
4055.56959,0.04211
4057.49806,0.04603
4059.42653,0.05008
4061.35500,0.04932
4063.28346,0.04723
4065.21193,0.04606
4067.14040,0.04388
4069.06887,0.04322
4070.99734,0.04672
4072.92581,0.05014
4074.85428,0.05009
4076.78275,0.04727
4078.71121,0.04244
4080.63968,0.03886
4082.56815,0.03939
4084.49662,0.04096
4086.42509,0.04167
4088.35356,0.04384
4090.28203,0.04758
4092.21049,0.05043
4094.13896,0.05012
4096.06743,0.04610
4097.99590,0.04213
4099.92437,0.04270
4101.85284,0.04471
4103.78131,0.04274
4105.70978,0.03950
4107.63824,0.04120
4109.56671,0.04631
4111.49518,0.04779
4113.42365,0.04420
4115.35212,0.04121
4117.28059,0.04309
4119.20906,0.04566
4121.13752,0.04435
4123.06599,0.04002
4124.99446,0.03568
4126.92293,0.03645
4128.85140,0.04201
4130.77987,0.04678
4132.70834,0.04834
4134.63681,0.04646
4136.56527,0.04238
4138.49374,0.03841
4140.42221,0.03737
4142.35068,0.03947
4144.27915,0.04031
4146.20762,0.03835
4148.13609,0.03736
4150.06455,0.03834
4151.99302,0.03769
4153.92149,0.03435
4155.84996,0.03348
4157.77843,0.03679
4159.70690,0.03764
4161.63537,0.03391
4163.56384,0.03121
4165.49230,0.03258
4167.42077,0.03431
4169.34924,0.03447
4171.27771,0.03637
4173.20618,0.03909
4175.13465,0.03960
4177.06312,0.03845
4178.99158,0.03536
4180.92005,0.03040
4182.84852,0.02901
4184.77699,0.03404
4186.70546,0.04039
4188.63393,0.04309
4190.56240,0.04082
4192.49087,0.03477
4194.41933,0.02931
4196.34780,0.02857
4198.27627,0.03073
4200.20474,0.03299
4202.13321,0.03425
4204.06168,0.03324
4205.99015,0.03242
4207.91861,0.03261
4209.84708,0.03225
4211.77555,0.03220
4213.70402,0.03171
4215.63249,0.02915
4217.56096,0.02830
4219.48943,0.03293
4221.41789,0.03730
4223.34636,0.03725
4225.27483,0.03578
4227.20330,0.03572
4229.13177,0.03845
4231.06024,0.04058
4232.98871,0.03978
4234.91718,0.03965
4236.84564,0.04077
4238.77411,0.03917
4240.70258,0.03244
4242.63105,0.02472
4244.55952,0.02131
4246.48799,0.02177
4248.41646,0.02462
4250.34492,0.02715
4252.27339,0.02560
4254.20186,0.02174
4256.13033,0.02116
4258.05880,0.02513
4259.98727,0.02801
4261.91574,0.02805
4263.84421,0.02705
4265.77267,0.02384
4267.70114,0.02303
4269.62961,0.02723
4271.55808,0.03156
4273.48655,0.03553
4275.41502,0.03776
4277.34349,0.03494
4279.27195,0.02907
4281.20042,0.02377
4283.12889,0.02389
4285.05736,0.02849
4286.98583,0.02877
4288.91430,0.02493
4290.84277,0.02215
4292.77124,0.01959
4294.69970,0.02009
4296.62817,0.02771
4298.55664,0.03414
4300.48511,0.03220
4302.41358,0.02841
4304.34205,0.02752
4306.27052,0.02736
4308.19898,0.02609
4310.12745,0.02438
4312.05592,0.02271
4313.98439,0.02169
4315.91286,0.02448
4317.84133,0.02797
4319.76980,0.02623
4321.69827,0.02222
4323.62673,0.01974
4325.55520,0.01949
4327.48367,0.02065
4329.41214,0.01845
4331.34061,0.01413
4333.26908,0.01402
4335.19755,0.01640
4337.12601,0.01740
4339.05448,0.01596
4340.98295,0.01367
4342.91142,0.01495
4344.83989,0.01954
4346.76836,0.02370
4348.69683,0.02584
4350.62530,0.02638
4352.55376,0.02768
4354.48223,0.03018
4356.41070,0.02900
4358.33917,0.02308
4360.26764,0.01992
4362.19611,0.02142
4364.12458,0.02068
4366.05304,0.01656
4367.98151,0.01585
4369.90998,0.01947
4371.83845,0.02061
4373.76692,0.01764
4375.69539,0.01469
4377.62386,0.01298
4379.55232,0.01332
4381.48079,0.01837
4383.40926,0.02395
4385.33773,0.02237
4387.26620,0.01682
4389.19467,0.01512
4391.12314,0.01579
4393.05161,0.01516
4394.98007,0.01451
4396.90854,0.01418
4398.83701,0.01426
4400.76548,0.01487
4402.69395,0.01390
4404.62242,0.01214
4406.55089,0.01146
4408.47935,0.00987
4410.40782,0.00549
4412.33629,0.00285
4414.26476,0.00770
4416.19323,0.01506
4418.12170,0.01809
4420.05017,0.01987
4421.97864,0.02127
4423.90710,0.01729
4425.83557,0.00920
4427.76404,0.00336
4429.69251,0.00501
4431.62098,0.01140
4433.54945,0.01345
4435.47792,0.01125
4437.40638,0.00968
4439.33485,0.00929
4441.26332,0.01175
4443.19179,0.01600
4445.12026,0.01584
4447.04873,0.01082
4448.97720,0.00675
4450.90567,0.00594
4452.83413,0.00899
4454.76260,0.01469
4456.69107,0.01706
4458.61954,0.01391
4460.54801,0.00973
4462.47648,0.00816
4464.40495,0.01039
4466.33341,0.01503
4468.26188,0.01580
4470.19035,0.00996
4472.11882,0.00557
4474.04729,0.00909
4475.97576,0.01368
4477.90423,0.01437
4479.83270,0.01525
4481.76116,0.01607
4483.68963,0.01658
4485.61810,0.01696
4487.54657,0.01364
4489.47504,0.00751
4491.40351,0.00347
4493.33198,0.00427
4495.26044,0.00868
4497.18891,0.01391
4499.11738,0.01513
4501.04585,0.01035
4502.97432,0.00781
4504.90279,0.01227
4506.83126,0.01477
4508.75973,0.00979
4510.68819,0.00158
4512.61666,-0.00459
4514.54513,-0.00294
4516.47360,0.00239
4518.40207,0.00186
4520.33054,-0.00008
4522.25901,0.00320
4524.18747,0.00803
4526.11594,0.01118
4528.04441,0.00964
4529.97288,0.00357
4531.90135,0.00123
4533.82982,0.00212
4535.75829,0.00218
4537.68676,0.00269
4539.61522,0.00116
4541.54369,0.00065
4543.47216,0.00698
4545.40063,0.01339
4547.32910,0.01445
4549.25757,0.01619
4551.18604,0.01801
4553.11450,0.01259
4555.04297,0.00336
4556.97144,0.00189
4558.89991,0.00854
4560.82838,0.01143
4562.75685,0.00961
4564.68532,0.00811
4566.61378,0.00529
4568.54225,0.00349
4570.47072,0.00615
4572.39919,0.01048
4574.32766,0.01358
4576.25613,0.01447
4578.18460,0.00903
4580.11307,-0.00149
4582.04153,-0.00408
4583.97000,0.00475
4585.89847,0.01418
4587.82694,0.01873
4589.75541,0.01945
4591.68388,0.01666
4593.61235,0.01360
4595.54081,0.01267
4597.46928,0.01216
4599.39775,0.01255
4601.32622,0.01108
4603.25469,0.00389
4605.18316,-0.00129
4607.11163,0.00133
4609.04010,0.00477
4610.96856,0.00300
4612.89703,-0.00156
4614.82550,-0.00438
4616.75397,-0.00358
4618.68244,0.00133
4620.61091,0.00970
4622.53938,0.01419
4624.46784,0.00693
4626.39631,-0.00391
4628.32478,-0.00506
4630.25325,0.00257
4632.18172,0.00815
4634.11019,0.00695
4636.03866,0.00636
4637.96713,0.01119
4639.89559,0.01796
4641.82406,0.01780
4643.75253,0.00707
4645.68100,-0.00244
4647.60947,0.00059
4649.53794,0.01178
4651.46641,0.01852
4653.39487,0.01577
4655.32334,0.00957
4657.25181,0.00660
4659.18028,0.00631
4661.10875,0.00627
4663.03722,0.00748
4664.96569,0.00983
4666.89416,0.01223
4668.82262,0.01459
4670.75109,0.01178
4672.67956,-0.00032
4674.60803,-0.01185
4676.53650,-0.01399
4678.46497,-0.00935
4680.39344,-0.00247
4682.32190,0.00322
4684.25037,0.00792
4686.17884,0.00920
4688.10731,0.00512
4690.03578,0.00094
4691.96425,-0.00168
4693.89272,0.00019
4695.82119,0.00813
4697.74965,0.01353
4699.67812,0.01006
4701.60659,0.00148
4703.53506,-0.00435
4705.46353,-0.00627
4707.39200,-0.00808
4709.32047,-0.01010
4711.24893,-0.00786
4713.17740,-0.00049
4715.10587,0.00364
4717.03434,0.00082
4718.96281,-0.00164
4720.89128,0.00390
4722.81975,0.01143
4724.74821,0.01042
4726.67668,0.00548
4728.60515,0.00518
4730.53362,0.00914
4732.46209,0.01656
4734.39056,0.02112
4736.31903,0.01569
4738.24750,0.00530
4740.17596,-0.00260
4742.10443,-0.00564
4744.03290,-0.00300
4745.96137,0.00070
4747.88984,0.00122
4749.81831,-0.00165
4751.74678,-0.00400
4753.67524,-0.00039
4755.60371,0.00704
4757.53218,0.01047
4759.46065,0.00838
4761.38912,0.00640
4763.31759,0.00583
4765.24606,0.00694
4767.17453,0.00909
4769.10299,0.00746
4771.03146,0.00393
4772.95993,0.00787
4774.88840,0.01507
4776.81687,0.01180
4778.74534,0.00262
4780.67381,0.00054
4782.60227,0.00121
4784.53074,-0.00190
4786.45921,-0.00178
4788.38768,0.00364
4790.31615,0.00594
4792.24462,0.00360
4794.17309,0.00272
4796.10156,0.00631
4798.03002,0.00929
4799.95849,0.00705
4801.88696,0.00294
4803.81543,-0.00173
4805.74390,-0.00208
4807.67237,0.00919
4809.60084,0.01855
4811.52930,0.01750
4813.45777,0.01580
4815.38624,0.01262
4817.31471,0.00428
4819.24318,-0.00381
4821.17165,-0.00570
4823.10012,0.00022
4825.02859,0.00698
4826.95705,0.00892
4828.88552,0.00903
4830.81399,0.00777
4832.74246,0.00478
4834.67093,0.00350
4836.59940,0.00590
4838.52787,0.00909
4840.45633,0.00727
4842.38480,0.00586
4844.31327,0.01179
4846.24174,0.01372
4848.17021,0.00508
4850.09868,-0.00209
4852.02715,-0.00107
4853.95562,0.00098
4855.88408,-0.00049
4857.81255,-0.00490
4859.74102,-0.00844
4861.66949,-0.00195
4863.59796,0.00600
4865.52643,-0.00117
4867.45490,-0.01081
4869.38336,-0.00393
4871.31183,0.01255
4873.24030,0.01979
4875.16877,0.01403
4877.09724,0.00718
4879.02571,0.00060
4880.95418,-0.00480
4882.88265,0.00008
4884.81111,0.00793
4886.73958,0.00668
4888.66805,-0.00060
4890.59652,-0.00799
4892.52499,-0.01195
4894.45346,-0.00951
4896.38193,-0.00030
4898.31039,0.00983
4900.23886,0.01365
4902.16733,0.01148
4904.09580,0.00832
4906.02427,0.00638
4907.95274,0.00095
4909.88121,-0.00926
4911.80967,-0.01406
4913.73814,-0.00880
4915.66661,-0.00305
4917.59508,0.00156
4919.52355,0.00761
4921.45202,0.00972
4923.38049,0.00405
4925.30896,-0.00698
4927.23742,-0.01058
4929.16589,-0.00328
4931.09436,-0.00013
4933.02283,-0.00154
4934.95130,0.00247
4936.87977,0.00779
4938.80824,0.01182
4940.73670,0.01763
4942.66517,0.02083
4944.59364,0.01673
4946.52211,0.00835
4948.45058,0.00449
4950.37905,0.01039
4952.30752,0.01607
4954.23599,0.01241
4956.16445,0.00827
4958.09292,0.00572
4960.02139,-0.00163
4961.94986,-0.00357
4963.87833,0.00550
4965.80680,0.01240
4967.73527,0.01092
4969.66373,0.00514
4971.59220,0.00117
4973.52067,0.00294
4975.44914,0.00761
4977.37761,0.00745
4979.30608,-0.00254
4981.23455,-0.01317
4983.16302,-0.01500
4985.09148,-0.01313
4987.01995,-0.00747
4988.94842,0.00626
4990.87689,0.01541
4992.80536,0.01458
4994.73383,0.02001
4996.66230,0.02547
4998.59076,0.01224
5000.51923,-0.00351
5002.44770,-0.00125
5004.37617,0.00862
5006.30464,0.00836
5008.23311,0.00281
5010.16158,0.00590
5012.09005,0.01386
5014.01851,0.01668
5015.94698,0.01747
5017.87545,0.01390
5019.80392,0.00252
5021.73239,-0.00334
5023.66086,0.00109
5025.58933,0.00735
5027.51779,0.01448
5029.44626,0.02001
5031.37473,0.01662
5033.30320,0.00323
5035.23167,-0.00915
5037.16014,-0.00483
5039.08861,0.00930
5041.01708,0.01277
5042.94554,0.00773
5044.87401,0.00346
5046.80248,0.00015
5048.73095,0.00296
5050.65942,0.00899
5052.58789,0.00743
5054.51636,0.00665
5056.44482,0.01229
5058.37329,0.01613
5060.30176,0.01874
5062.23023,0.01809
5064.15870,0.01027
5066.08717,0.00242
5068.01564,0.00192
5069.94410,0.00791
5071.87257,0.01310
5073.80104,0.01342
5075.72951,0.01243
5077.65798,0.01189
5079.58645,0.00963
5081.51492,0.00656
5083.44339,0.00510
5085.37185,0.00322
5087.30032,-0.00246
5089.22879,-0.00395
5091.15726,0.00787
5093.08573,0.01850
5095.01420,0.01272
5096.94267,0.00186
5098.87113,0.00552
5100.79960,0.02796
5102.72807,0.05027
5104.65654,0.05168
5106.58501,0.03886
5108.51348,0.02922
5110.44195,0.02519
5112.37042,0.02168
5114.29888,0.01584
5116.22735,0.00933
5118.15582,0.00669
5120.08429,0.00616
5122.01276,0.00371
5123.94123,0.00042
5125.86970,-0.00281
5127.79816,0.00126
5129.72663,0.01234
5131.65510,0.01488
5133.58357,0.00845
5135.51204,0.00447
5137.44051,0.00837
5139.36898,0.01089
5141.29745,0.00587
5143.22591,0.00891
5145.15438,0.01766
5147.08285,0.01539
5149.01132,0.00580
5150.93979,0.00136
5152.86826,0.00944
5154.79673,0.01711
5156.72519,0.01189
5158.65366,0.01027
5160.58213,0.01695
5162.51060,0.01531
5164.43907,0.00654
5166.36754,0.00763
5168.29601,0.01605
5170.22448,0.01176
5172.15294,-0.00202
5174.08141,-0.00868
5176.00988,-0.00941
5177.93835,-0.00550
5179.86682,0.00517
5181.79529,0.01649
5183.72376,0.02148
5185.65222,0.02161
5187.58069,0.01842
5189.50916,0.00910
5191.43763,0.00124
5193.36610,0.00644
5195.29457,0.02143
5197.22304,0.03259
5199.15151,0.02958
5201.07997,0.01513
5203.00844,0.00113
5204.93691,-0.00336
5206.86538,-0.00184
5208.79385,-0.00663
5210.72232,-0.01125
5212.65079,0.00030
5214.57925,0.02579
5216.50772,0.04900
5218.43619,0.05524
5220.36466,0.04326
5222.29313,0.02898
5224.22160,0.02449
5226.15007,0.02066
5228.07854,0.00924
5230.00700,0.00556
5231.93547,0.01484
5233.86394,0.02464
5235.79241,0.02392
5237.72088,0.01109
5239.64935,0.00492
5241.57782,0.01149
5243.50628,0.01292
5245.43475,0.01476
5247.36322,0.02680
5249.29169,0.02726
5251.22016,0.01253
5253.14863,0.01091
5255.07710,0.02502
5257.00556,0.02979
5258.93403,0.02443
5260.86250,0.02952
5262.79097,0.04111
5264.71944,0.02805
5266.64791,0.00085
5268.57638,-0.00005
5270.50485,0.01727
5272.43331,0.02348
5274.36178,0.01866
5276.29025,0.01667
5278.21872,0.02440
5280.14719,0.03413
5282.07566,0.03575
5284.00413,0.02833
5285.93259,0.01687
5287.86106,0.01283
5289.78953,0.01808
5291.71800,0.02247
5293.64647,0.02525
5295.57494,0.03103
5297.50341,0.03527
5299.43188,0.03326
5301.36034,0.03136
5303.28881,0.03208
5305.21728,0.02531
5307.14575,0.01830
5309.07422,0.02830
5311.00269,0.04328
5312.93116,0.05181
5314.85962,0.05784
5316.78809,0.05312
5318.71656,0.03862
5320.64503,0.03284
5322.57350,0.03593
5324.50197,0.03983
5326.43044,0.03778
5328.35891,0.02626
5330.28737,0.02279
5332.21584,0.03187
5334.14431,0.03889
5336.07278,0.03514
5338.00125,0.02016
5339.92972,0.01483
5341.85819,0.03341
5343.78665,0.05609
5345.71512,0.05780
5347.64359,0.04610
5349.57206,0.03879
5351.50053,0.04176
5353.42900,0.04981
5355.35747,0.04834
5357.28594,0.04307
5359.21440,0.04995
5361.14287,0.06498
5363.07134,0.05860
5364.99981,0.02849
5366.92828,0.01343
5368.85675,0.02051
5370.78522,0.02773
5372.71368,0.02318
5374.64215,0.01525
5376.57062,0.01272
5378.49909,0.01293
5380.42756,0.02184
5382.35603,0.03329
5384.28450,0.03412
5386.21297,0.03417
5388.14143,0.03932
5390.06990,0.03701
5391.99837,0.02470
5393.92684,0.01254
5395.85531,0.01571
5397.78378,0.02589
5399.71225,0.02712
5401.64071,0.02264
5403.56918,0.01566
5405.49765,0.01140
5407.42612,0.01829
5409.35459,0.03459
5411.28306,0.05052
5413.21153,0.05015
5415.13999,0.03481
5417.06846,0.02239
5418.99693,0.01682
5420.92540,0.01658
5422.85387,0.01923
5424.78234,0.01790
5426.71081,0.01116
5428.63928,0.01130
5430.56774,0.02152
5432.49621,0.02240
5434.42468,0.01640
5436.35315,0.02430
5438.28162,0.04177
5440.21009,0.05507
5442.13856,0.05294
5444.06702,0.03657
5445.99549,0.02271
5447.92396,0.01891
5449.85243,0.02064
5451.78090,0.02440
5453.70937,0.02534
5455.63784,0.02186
5457.56631,0.02092
5459.49477,0.02359
5461.42324,0.02873
5463.35171,0.03575
5465.28018,0.04537
5467.20865,0.05816
5469.13712,0.05317
5471.06559,0.03273
5472.99405,0.03071
5474.92252,0.03898
5476.85099,0.03100
5478.77946,0.01890
5480.70793,0.01194
5482.63640,0.00412
5484.56487,-0.00104
5486.49334,0.00385
5488.42180,0.01807
5490.35027,0.02864
5492.27874,0.03238
5494.20721,0.04080
5496.13568,0.05094
5498.06415,0.05212
5499.99262,0.04239
5501.92108,0.03634
5503.84955,0.04327
5505.77802,0.05128
5507.70649,0.05094
5509.63496,0.05074
5511.56343,0.05108
5513.49190,0.04133
5515.42037,0.03676
5517.34883,0.04556
5519.27730,0.04723
5521.20577,0.03783
5523.13424,0.02188
5525.06271,0.01121
5526.99118,0.01917
5528.91965,0.02688
5530.84811,0.02354
5532.77658,0.02538
5534.70505,0.03288
5536.63352,0.03772
5538.56199,0.03589
5540.49046,0.02053
5542.41893,0.00221
5544.34740,0.00748
5546.27586,0.02573
5548.20433,0.02666
5550.13280,0.01486
5552.06127,0.00455
5553.98974,0.00370
5555.91821,0.02009
5557.84668,0.04463
5559.77514,0.06544
5561.70361,0.08159
5563.63208,0.07909
5565.56055,0.05602
5567.48902,0.04060
5569.41749,0.03397
5571.34596,0.01853
5573.27443,0.00660
5575.20289,0.00893
5577.13136,0.02025
5579.05983,0.03535
5580.98830,0.03888
5582.91677,0.03250
5584.84524,0.03785
5586.77371,0.05727
5588.70217,0.07737
5590.63064,0.08260
5592.55911,0.07422
5594.48758,0.06379
5596.41605,0.05286
5598.34452,0.03878
5600.27299,0.02331
5602.20145,0.00563
5604.12992,-0.00639
5606.05839,0.01198
5607.98686,0.05135
5609.91533,0.06608
5611.84380,0.04823
5613.77227,0.02923
5615.70074,0.02530
5617.62920,0.03607
5619.55767,0.04631
5621.48614,0.04134
5623.41461,0.04078
5625.34308,0.04757
5627.27155,0.04090
5629.20002,0.02971
5631.12848,0.01879
5633.05695,0.00914
5634.98542,0.01455
5636.91389,0.02271
5638.84236,0.01573
5640.77083,0.00247
5642.69930,0.00325
5644.62777,0.02364
5646.55623,0.04143
5648.48470,0.04714
5650.41317,0.05056
5652.34164,0.04437
5654.27011,0.02749
5656.19858,0.01547
5658.12705,0.01041
5660.05551,0.00451
5661.98398,0.00080
5663.91245,0.00055
5665.84092,0.00570
5667.76939,0.02392
5669.69786,0.04200
5671.62633,0.04553
5673.55480,0.04603
5675.48326,0.04340
5677.41173,0.02803
5679.34020,0.01747
5681.26867,0.01769
5683.19714,0.01909
5685.12561,0.03024
5687.05408,0.04903
5688.98254,0.06042
5690.91101,0.06350
5692.83948,0.06028
5694.76795,0.05226
5696.69642,0.04930
5698.62489,0.04682
5700.55336,0.03240
5702.48183,0.02202
5704.41029,0.02243
5706.33876,0.01586
5708.26723,0.01171
5710.19570,0.02296
5712.12417,0.03595
5714.05264,0.04855
5715.98111,0.06366
5717.90957,0.06879
5719.83804,0.06437
5721.76651,0.06604
5723.69498,0.06921
5725.62345,0.05748
5727.55192,0.03866
5729.48039,0.02934
5731.40886,0.02225
5733.33732,0.01102
5735.26579,0.01392
5737.19426,0.03331
5739.12273,0.03772
5741.05120,0.03113
5742.97967,0.04555
5744.90814,0.06664
5746.83660,0.06624
5748.76507,0.05661
5750.69354,0.06031
5752.62201,0.06828
5754.55048,0.05357
5756.47895,0.02189
5758.40742,0.00492
5760.33588,0.01069
5762.26435,0.01975
5764.19282,0.02374
5766.12129,0.04514
5768.04976,0.07677
5769.97823,0.08511
5771.90670,0.07959
5773.83517,0.07679
5775.76363,0.06734
5777.69210,0.05724
5779.62057,0.04812
5781.54904,0.03304
5783.47751,0.02869
5785.40598,0.02347
5787.33445,-0.00188
5789.26291,-0.00527
5791.19138,0.02757
5793.11985,0.05249
5795.04832,0.04956
5796.97679,0.04208
5798.90526,0.05062
5800.83373,0.05422
5802.76220,0.03845
5804.69066,0.02389
5806.61913,0.02292
5808.54760,0.02936
5810.47607,0.03752
5812.40454,0.03671
5814.33301,0.02457
5816.26148,0.02739
5818.18994,0.05428
5820.11841,0.07205
5822.04688,0.06249
5823.97535,0.04146
5825.90382,0.02377
5827.83229,0.02416
5829.76076,0.04552
5831.68923,0.06256
5833.61769,0.06138
5835.54616,0.05226
5837.47463,0.05034
5839.40310,0.04930
5841.33157,0.02588
5843.26004,-0.00382
5845.18851,-0.00348
5847.11697,0.02298
5849.04544,0.04482
5850.97391,0.04411
5852.90238,0.04504
5854.83085,0.06681
5856.75932,0.08643
5858.68779,0.08147
5860.61626,0.05467
5862.54472,0.02483
5864.47319,0.01772
5866.40166,0.03139
5868.33013,0.04207
5870.25860,0.03443
5872.18707,0.01009
5874.11554,0.00247
5876.04400,0.02927
5877.97247,0.05101
5879.90094,0.04519
5881.82941,0.03043
5883.75788,0.02320
5885.68635,0.01384
5887.61482,-0.00187
5889.54329,0.01384
5891.47175,0.05392
5893.40022,0.07443
5895.32869,0.07727
5897.25716,0.06072
5899.18563,0.02324
5901.11410,0.00399
5903.04257,0.03204
5904.97103,0.07360
5906.89950,0.07972
5908.82797,0.06154
5910.75644,0.06532
5912.68491,0.08485
5914.61338,0.08119
5916.54185,0.05786
5918.47032,0.03190
5920.39878,0.01006
5922.32725,0.00276
5924.25572,0.00479
5926.18419,0.00189
5928.11266,-0.00975
5930.04113,-0.02052
5931.96960,-0.01727
5933.89806,-0.00333
5935.82653,0.00963
5937.75500,0.01853
5939.68347,0.01756
5941.61194,0.00835
5943.54041,0.01017
5945.46888,0.02598
5947.39734,0.03156
5949.32581,0.01512
5951.25428,0.00826
5953.18275,0.03169
5955.11122,0.05657
5957.03969,0.05412
5958.96816,0.02437
5960.89663,-0.00390
5962.82509,-0.00797
5964.75356,0.00229
5966.68203,0.02126
5968.61050,0.04891
5970.53897,0.05727
5972.46744,0.03269
5974.39591,0.01718
5976.32437,0.02902
5978.25284,0.03105
5980.18131,0.01787
5982.10978,0.02641
5984.03825,0.05580
5985.96672,0.06374
5987.89519,0.03638
5989.82366,0.00550
5991.75212,0.00052
5993.68059,0.01550
5995.60906,0.03491
5997.53753,0.04979
5999.46600,0.05484
6001.39447,0.04750
6003.32294,0.02666
6005.25140,0.01916
6007.17987,0.04457
6009.10834,0.06087
6011.03681,0.03979
6012.96528,0.01486
6014.89375,0.00875
6016.82222,0.00789
6018.75069,0.01637
6020.67915,0.02918
6022.60762,0.01792
6024.53609,0.00859
6026.46456,0.01788
6028.39303,0.02102
6030.32150,0.03435
6032.24997,0.05405
6034.17843,0.04110
6036.10690,0.02623
6038.03537,0.05387
6039.96384,0.09507
6041.89231,0.09903
6043.82078,0.06728
6045.74925,0.06134
6047.67772,0.08697
6049.60618,0.09668
6051.53465,0.09427
6053.46312,0.08991
6055.39159,0.07529
6057.32006,0.06820
6059.24853,0.06557
6061.17700,0.04315
6063.10546,0.00726
6065.03393,-0.01193
6066.96240,0.01872
6068.89087,0.08272
6070.81934,0.10590
6072.74781,0.08471
6074.67628,0.07324
6076.60475,0.07080
6078.53321,0.06394
6080.46168,0.06745
6082.39015,0.08500
6084.31862,0.09101
6086.24709,0.06200
6088.17556,0.01368
6090.10403,-0.02624
6092.03249,-0.04741
6093.96096,-0.03187
6095.88943,0.02429
6097.81790,0.07247
6099.74637,0.08253
6101.67484,0.09021
6103.60331,0.10938
6105.53177,0.11368
6107.46024,0.09566
6109.38871,0.06286
6111.31718,0.04015
6113.24565,0.03069
6115.17412,0.01489
6117.10259,0.00525
6119.03106,0.00937
6120.95952,0.01650
6122.88799,0.02182
6124.81646,0.03855
6126.74493,0.06528
6128.67340,0.05706
6130.60187,0.02371
6132.53034,0.01089
6134.45880,0.01033
6136.38727,0.01420
6138.31574,0.02633
6140.24421,0.02436
6142.17268,0.00901
6144.10115,0.02420
6146.02962,0.05415
6147.95809,0.04962
6149.88655,0.03585
6151.81502,0.05004
6153.74349,0.04746
6155.67196,0.01286
6157.60043,-0.00582
6159.52890,0.01538
6161.45737,0.05602
6163.38583,0.06450
6165.31430,0.05449
6167.24277,0.05915
6169.17124,0.06027
6171.09971,0.07038
6173.02818,0.09711
6174.95665,0.09479
6176.88512,0.05299
6178.81358,0.03956
6180.74205,0.08534
6182.67052,0.12311
6184.59899,0.11246
6186.52746,0.07959
6188.45593,0.04381
6190.38440,0.00422
6192.31286,-0.03011
6194.24133,-0.02998
6196.16980,0.01411
6198.09827,0.06784
6200.02674,0.09544
6201.95521,0.08582
6203.88368,0.06186
6205.81215,0.06450
6207.74061,0.08116
6209.66908,0.07298
6211.59755,0.04202
6213.52602,0.01382
6215.45449,0.00822
6217.38296,0.03591
6219.31143,0.06164
6221.23989,0.05244
6223.16836,0.03455
6225.09683,0.04621
6227.02530,0.05876
6228.95377,0.03338
6230.88224,0.00172
6232.81071,-0.00378
6234.73918,0.00829
6236.66764,0.03152
6238.59611,0.05170
6240.52458,0.04160
6242.45305,0.00346
6244.38152,-0.00862
6246.30999,0.04863
6248.23846,0.12300
6250.16692,0.12549
6252.09539,0.06361
6254.02386,0.02075
6255.95233,0.01973
6257.88080,0.00365
6259.80927,-0.04708
6261.73774,-0.05579
6263.66621,-0.01386
6265.59467,-0.00503
6267.52314,-0.01013
6269.45161,0.03382
6271.38008,0.08561
6273.30855,0.09659
6275.23702,0.08730
6277.16549,0.07135
6279.09395,0.01640
6281.02242,-0.03516
6282.95089,-0.02618
6284.87936,0.00135
6286.80783,0.01072
6288.73630,0.03893
6290.66477,0.09241
6292.59323,0.12039
6294.52170,0.10818
6296.45017,0.07825
6298.37864,0.04513
6300.30711,0.01288
6302.23558,-0.01658
6304.16405,-0.02639
6306.09252,-0.00983
6308.02098,0.01168
6309.94945,0.02759
6311.87792,0.04491
6313.80639,0.05587
6315.73486,0.07076
6317.66333,0.08845
6319.59180,0.06346
6321.52026,0.01424
6323.44873,0.00624
6325.37720,0.02798
6327.30567,0.03271
6329.23414,0.02241
6331.16261,0.03625
6333.09108,0.07677
6335.01955,0.10549
6336.94801,0.08961
6338.87648,0.05967
6340.80495,0.05441
6342.73342,0.03173
6344.66189,0.00534
6346.59036,0.04495
6348.51883,0.08177
6350.44729,0.04114
6352.37576,-0.00379
6354.30423,0.00210
6356.23270,0.03692
6358.16117,0.07296
6360.08964,0.07753
6362.01811,0.04393
6363.94658,0.01923
6365.87504,0.04634
6367.80351,0.08722
6369.73198,0.08182
6371.66045,0.04909
6373.58892,0.04515
6375.51739,0.06695
6377.44586,0.07395
6379.37432,0.06392
6381.30279,0.04643
6383.23126,0.01544
6385.15973,-0.00828
6387.08820,0.00678
6389.01667,0.02876
6390.94514,0.01302
6392.87361,-0.03010
6394.80207,-0.05262
6396.73054,-0.03912
6398.65901,-0.01302
6400.58748,0.01314
6402.51595,0.02526
6404.44442,0.02844
6406.37289,0.04759
6408.30135,0.05213
6410.22982,0.02536
6412.15829,0.01737
6414.08676,0.02945
6416.01523,0.02936
6417.94370,0.02105
6419.87217,0.02206
6421.80064,0.05057
6423.72910,0.10717
6425.65757,0.13655
6427.58604,0.10258
6429.51451,0.05118
6431.44298,0.02482
6433.37145,0.02361
6435.29992,0.00825
6437.22838,-0.01571
6439.15685,0.01067
6441.08532,0.03632
6443.01379,0.00972
6444.94226,0.01876
6446.87073,0.08828
6448.79920,0.09767
6450.72766,0.02532
6452.65613,0.00466
6454.58460,0.05559
6456.51307,0.09038
6458.44154,0.08417
6460.37001,0.07833
6462.29848,0.09905
6464.22695,0.11464
6466.15541,0.08799
6468.08388,0.03328
6470.01235,0.02150
6471.94082,0.08282
6473.86929,0.12956
6475.79776,0.11068
6477.72623,0.07412
6479.65469,0.07238
6481.58316,0.08309
6483.51163,0.06678
6485.44010,0.04143
6487.36857,0.03092
6489.29704,0.02484
6491.22551,-0.00556
6493.15398,-0.04729
6495.08244,-0.04327
6497.01091,-0.00064
6498.93938,0.02075
6500.86785,0.01068
6502.79632,0.01074
6504.72479,0.01994
6506.65326,0.02144
6508.58172,0.03566
6510.51019,0.06571
6512.43866,0.08079
6514.36713,0.07969
6516.29560,0.06504
6518.22407,0.01978
6520.15254,-0.03442
6522.08101,-0.05675
6524.00947,-0.02709
6525.93794,0.01072
6527.86641,0.01960
6529.79488,0.04214
6531.72335,0.07399
6533.65182,0.07688
6535.58029,0.07157
6537.50875,0.07133
6539.43722,0.06865
6541.36569,0.07406
6543.29416,0.07432
6545.22263,0.05514
6547.15110,0.03887
6549.07957,0.02369
6551.00804,-0.00035
6552.93650,-0.00691
6554.86497,0.02825
6556.79344,0.07969
6558.72191,0.09453
6560.65038,0.04871
6562.57885,-0.01862
6564.50732,-0.03945
6566.43578,-0.00154
6568.36425,0.03451
6570.29272,0.04027
6572.22119,0.01630
6574.14966,-0.02224
6576.07813,-0.00409
6578.00660,0.07515
6579.93507,0.10232
6581.86353,0.06651
6583.79200,0.05647
6585.72047,0.05765
6587.64894,0.03902
6589.57741,0.03583
6591.50588,0.03727
6593.43435,0.02495
6595.36281,0.02945
6597.29128,0.02852
6599.21975,-0.00344
6601.14822,-0.02183
6603.07669,-0.01013
6605.00516,-0.00129
6606.93363,0.00625
6608.86210,-0.00173
6610.79056,-0.05188
6612.71903,-0.08977
6614.64750,-0.06528
6616.57597,-0.02698
6618.50444,-0.00694
6620.43291,0.00474
6622.36138,0.02466
6624.28984,0.06944
6626.21831,0.11214
6628.14678,0.13942
6630.07525,0.17372
6632.00372,0.18910
6633.93219,0.16075
6635.86066,0.11844
6637.78912,0.08398
6639.71759,0.05528
6641.64606,0.02538
6643.57453,-0.02690
6645.50300,-0.06616
6647.43147,-0.03946
6649.35994,0.01108
6651.28841,0.04190
6653.21687,0.05944
6655.14534,0.09116
6657.07381,0.12263
6659.00228,0.08385
6660.93075,0.02017
6662.85922,0.01818
6664.78769,0.04112
6666.71615,0.05667
6668.64462,0.06614
6670.57309,0.06199
6672.50156,0.06966
6674.43003,0.04757
6676.35850,-0.00773
6678.28697,-0.00670
6680.21544,0.03398
6682.14390,0.06681
6684.07237,0.08934
6686.00084,0.07291
6687.92931,-0.00272
6689.85778,-0.06205
6691.78625,-0.04457
6693.71472,0.00137
6695.64318,0.03179
6697.57165,0.01494
6699.50012,-0.01046
6701.42859,0.03424
6703.35706,0.10554
6705.28553,0.09845
6707.21400,0.02303
6709.14247,-0.01380
6711.07093,0.01774
6712.99940,0.05539
6714.92787,0.06730
6716.85634,0.08440
6718.78481,0.12352
6720.71328,0.15926
6722.64175,0.17427
6724.57021,0.16368
6726.49868,0.13510
6728.42715,0.09127
6730.35562,0.04842
6732.28409,0.04946
6734.21256,0.09052
6736.14103,0.10907
6738.06950,0.05985
6739.99796,-0.01101
6741.92643,-0.03465
6743.85490,-0.01871
6745.78337,0.01690
6747.71184,0.07202
6749.64031,0.09169
6751.56878,0.05316
6753.49724,0.01708
6755.42571,0.01436
6757.35418,0.02913
6759.28265,0.02816
6761.21112,-0.03335
6763.13959,-0.09393
6765.06806,-0.05642
6766.99653,0.01736
6768.92499,0.04465
6770.85346,0.07466
6772.78193,0.12140
6774.71040,0.15051
6776.63887,0.14956
6778.56734,0.11491
6780.49581,0.07609
6782.42427,0.05266
6784.35274,0.02781
6786.28121,-0.00412
6788.20968,-0.01546
6790.13815,-0.00584
6792.06662,-0.00077
6793.99509,0.01423
6795.92355,0.03789
6797.85202,0.07097
6799.78049,0.13587
6801.70896,0.17997
6803.63743,0.15321
6805.56590,0.09558
6807.49437,0.04113
6809.42284,0.01202
6811.35130,0.03631
6813.27977,0.08423
6815.20824,0.10958
6817.13671,0.13399
6819.06518,0.14576
6820.99365,0.10377
6822.92212,0.06131
6824.85058,0.08962
6826.77905,0.10528
6828.70752,0.07182
6830.63599,0.08063
6832.56446,0.12742
6834.49293,0.10923
6836.42140,0.05972
6838.34987,0.09794
6840.27833,0.13879
6842.20680,0.08599
6844.13527,0.02839
6846.06374,0.04479
6847.99221,0.11961
6849.92068,0.18562
6851.84915,0.20316
6853.77761,0.20625
6855.70608,0.16383
6857.63455,0.06594
6859.56302,0.00589
6861.49149,0.01369
6863.41996,0.02580
6865.34843,0.00044
6867.27690,-0.01404
6869.20536,0.01850
6871.13383,0.04490
6873.06230,0.04459
6874.99077,0.08640
6876.91924,0.13994
6878.84771,0.13841
6880.77618,0.12201
6882.70464,0.09591
6884.63311,0.05453
6886.56158,0.02698
6888.49005,-0.01305
6890.41852,-0.04529
6892.34699,-0.02444
6894.27546,-0.01131
6896.20393,-0.05110
6898.13239,-0.05738
6900.06086,0.00938
6901.98933,0.06234
6903.91780,0.06124
6905.84627,0.00279
6907.77474,-0.02936
6909.70321,0.03096
6911.63167,0.08620
6913.56014,0.08295
6915.48861,0.07531
6917.41708,0.05629
6919.34555,0.00856
6921.27402,-0.02791
6923.20249,-0.02942
6925.13096,-0.00386
6927.05942,0.01610
6928.98789,0.00852
6930.91636,-0.00162
6932.84483,0.02712
6934.77330,0.07649
6936.70177,0.09546
6938.63024,0.06088
6940.55870,-0.00228
6942.48717,-0.03494
6944.41564,-0.02911
6946.34411,0.03837
6948.27258,0.13778
6950.20105,0.13663
6952.12952,0.06161
6954.05799,0.03284
6955.98645,0.03762
6957.91492,0.05816
6959.84339,0.10338
6961.77186,0.12140
6963.70033,0.11431
6965.62880,0.09684
6967.55727,0.02359
6969.48573,-0.08502
6971.41420,-0.09176
6973.34267,0.00899
6975.27114,0.05038
6977.19961,0.02765
6979.12808,0.04045
6981.05655,0.06508
6982.98501,0.06339
6984.91348,0.08220
6986.84195,0.13126
6988.77042,0.12401
6990.69889,0.07166
6992.62736,0.06537
6994.55583,0.08869
6996.48430,0.09445
6998.41276,0.12599
7000.34123,0.19205
7002.26970,0.19177
7004.19817,0.11087
7006.12664,0.04643
7008.05511,0.09266
7009.98358,0.15719
7011.91204,0.11666
7013.84051,0.08350
7015.76898,0.17154
7017.69745,0.24435
7019.62592,0.23787
7021.55439,0.21205
7023.48286,0.16417
7025.41133,0.09556
7027.33979,0.06862
7029.26826,0.07104
7031.19673,0.05545
7033.12520,0.03428
7035.05367,0.02314
7036.98214,0.01674
7038.91061,-0.01913
7040.83907,-0.03502
7042.76754,-0.00820
7044.69601,0.03280
7046.62448,0.08163
7048.55295,0.08509
7050.48142,0.03390
7052.40989,-0.00601
7054.33836,0.01635
7056.26682,0.07881
7058.19529,0.14025
7060.12376,0.15810
7062.05223,0.13674
7063.98070,0.13508
7065.90917,0.09963
7067.83764,0.02956
7069.76610,0.07062
7071.69457,0.17264
7073.62304,0.15577
7075.55151,0.08177
7077.47998,0.01512
7079.40845,-0.00509
7081.33692,0.06805
7083.26539,0.08676
7085.19385,-0.01075
7087.12232,-0.03686
7089.05079,0.06538
7090.97926,0.13550
7092.90773,0.13094
7094.83620,0.08036
7096.76467,0.03772
7098.69313,0.02371
7100.62160,0.00821
7102.55007,0.00996
7104.47854,0.02312
7106.40701,0.02769
7108.33548,0.03357
7110.26395,0.06452
7112.19242,0.12649
7114.12088,0.14925
7116.04935,0.10469
7117.97782,0.05593
7119.90629,0.04902
7121.83476,0.07460
7123.76323,0.09770
7125.69170,0.09454
7127.62016,0.08741
7129.54863,0.09587
7131.47710,0.13044
7133.40557,0.17190
7135.33404,0.14629
7137.26251,0.04456
7139.19098,-0.03833
7141.11944,-0.07574
7143.04791,-0.12294
7144.97638,-0.09870
7146.90485,0.02556
7148.83332,0.12216
7150.76179,0.13365
7152.69026,0.07890
7154.61873,0.02806
7156.54719,-0.00442
7158.47566,-0.00128
7160.40413,0.03112
7162.33260,0.03147
7164.26107,0.01303
7166.18954,0.03414
7168.11801,0.03617
7170.04647,-0.08387
7171.97494,-0.17505
7173.90341,-0.13674
7175.83188,-0.10871
7177.76035,-0.10564
7179.68882,-0.07787
7181.61729,-0.06416
7183.54576,-0.06705
7185.47422,-0.07114
7187.40269,-0.06743
7189.33116,-0.03044
7191.25963,-0.00343
7193.18810,0.00792
7195.11657,0.07068
7197.04504,0.12646
7198.97350,0.13088
7200.90197,0.14497
7202.83044,0.16354
7204.75891,0.08917
7206.68738,0.02846
7208.61585,0.10320
7210.54432,0.15549
7212.47279,0.09980
7214.40125,0.00083
7216.32972,-0.04245
7218.25819,0.06484
7220.18666,0.17974
7222.11513,0.16897
7224.04360,0.11896
7225.97207,0.12937
7227.90053,0.17219
7229.82900,0.11967
7231.75747,-0.04379
7233.68594,-0.17705
7235.61441,-0.18733
7237.54288,-0.06511
7239.47135,0.06317
7241.39982,0.12541
7243.32828,0.14545
7245.25675,0.06426
7247.18522,-0.02577
7249.11369,0.01704
7251.04216,0.13828
7252.97063,0.18817
7254.89910,0.18261
7256.82756,0.19848
7258.75603,0.21284
7260.68450,0.19560
7262.61297,0.12487
7264.54144,-0.01485
7266.46991,-0.11701
7268.39838,-0.11148
7270.32685,-0.08192
7272.25531,-0.05853
7274.18378,-0.00525
7276.11225,0.03181
7278.04072,0.03193
7279.96919,-0.00149
7281.89766,-0.05961
7283.82613,-0.09306
7285.75459,-0.07809
7287.68306,-0.01942
7289.61153,0.04999
7291.54000,0.06375
7293.46847,-0.00708
7295.39694,-0.13533
7297.32541,-0.21320
7299.25387,-0.14369
7301.18234,-0.01023
7303.11081,0.10290
7305.03928,0.17985
7306.96775,0.17626
7308.89622,0.14742
7310.82469,0.19277
7312.75316,0.25124
7314.68162,0.28088
7316.61009,0.23173
7318.53856,0.12411
7320.46703,0.07221
7322.39550,0.08214
7324.32397,0.15903
7326.25244,0.27153
7328.18090,0.33146
7330.10937,0.26348
7332.03784,0.12424
7333.96631,0.04952
7335.89478,0.05233
7337.82325,0.05733
7339.75172,0.01064
7341.68019,-0.07925
7343.60865,-0.07415
7345.53712,0.08110
7347.46559,0.26429
7349.39406,0.29675
7351.32253,0.16523
7353.25100,-0.01365
7355.17947,-0.10330
7357.10793,-0.06019
7359.03640,-0.08948
7360.96487,-0.26608
7362.89334,-0.22530
7364.82181,-0.00107
7366.75028,0.07948
7368.67875,0.04999
7370.60722,0.10085
7372.53568,0.18544
7374.46415,0.16411
7376.39262,0.04863
7378.32109,0.07057
7380.24956,0.24145
7382.17803,0.34197
7384.10650,0.21706
7386.03496,0.07653
7387.96343,0.06425
7389.89190,0.07650
7391.82037,0.09822
7393.74884,0.10716
7395.67731,0.02656
7397.60578,-0.07229
7399.53425,-0.08545
7401.46271,-0.02620
7403.39118,0.03457
7405.31965,0.03967
7407.24812,0.00522
7409.17659,-0.01196
7411.10506,0.02093
7413.03353,0.07181
7414.96199,0.14908
7416.89046,0.28845
7418.81893,0.36338
7420.74740,0.19273
7422.67587,-0.00223
7424.60434,-0.08955
7426.53281,-0.13895
7428.46128,-0.17157
7430.38974,-0.22145
7432.31821,-0.27203
7434.24668,-0.22882
7436.17515,-0.14421
7438.10362,-0.03855
7440.03209,0.10725
7441.96056,0.11437
7443.88902,-0.05341
7445.81749,-0.19327
7447.74596,-0.24913
7449.67443,-0.22107
7451.60290,-0.05838
7453.53137,0.05603
7455.45984,0.00727
7457.38831,-0.04721
7459.31677,-0.02333
7461.24524,-0.00853
7463.17371,-0.01898
7465.10218,0.00839
7467.03065,0.04850
7468.95912,0.11457
7470.88759,0.16576
7472.81605,0.13583
7474.74452,0.11404
7476.67299,0.18838
7478.60146,0.38820
7480.52993,0.56532
7482.45840,0.44685
7484.38687,0.13217
7486.31533,-0.05506
7488.24380,-0.02350
7490.17227,0.01607
7492.10074,0.01137
7494.02921,0.09567
7495.95768,0.20239
7497.88615,0.25507
