399.19301,0.75609
401.12148,0.84668
403.04995,0.36297
404.97842,0.04436
406.90689,-0.04789
408.83536,-0.03791
410.76382,0.06994
412.69229,0.11892
414.62076,0.06160
416.54923,-0.01567
418.47770,-0.08616
420.40617,-0.07317
422.33464,-0.02110
424.26311,0.00817
426.19157,-0.00018
428.12004,-0.02052
430.04851,0.02179
431.97698,0.12233
433.90545,0.15547
435.83392,0.12634
437.76239,0.09356
439.69085,0.07624
441.61932,0.07929
443.54779,0.05029
445.47626,-0.00502
447.40473,-0.02263
449.33320,0.00085
451.26167,0.03336
453.19013,0.05991
455.11860,0.07238
457.04707,0.04381
458.97554,0.00898
460.90401,0.02305
462.83248,0.06487
464.76095,0.08800
466.68942,0.07367
468.61788,0.04068
470.54635,-0.00257
472.47482,-0.03478
474.40329,-0.03295
476.33176,-0.03874
478.26023,-0.02920
480.18870,0.02177
482.11716,0.05829
484.04563,0.02436
485.97410,-0.01438
487.90257,0.00666
489.83104,0.03677
491.75951,0.02932
493.68798,0.00384
495.61645,-0.01736
497.54491,-0.00547
499.47338,0.02876
501.40185,0.04624
503.33032,0.03625
505.25879,0.01371
507.18726,0.02224
509.11573,0.06963
511.04419,0.09827
512.97266,0.08703
514.90113,0.06808
516.82960,0.08764
518.75807,0.12433
520.68654,0.11329
522.61501,0.07480
524.54348,0.05479
526.47194,0.04450
528.40041,0.03809
530.32888,0.05895
532.25735,0.09926
534.18582,0.11195
536.11429,0.07983
538.04276,0.05527
539.97122,0.05489
541.89969,0.04382
543.82816,0.03266
545.75663,0.03948
547.68510,0.03635
549.61357,0.01538
551.54204,0.03262
553.47051,0.07566
555.39897,0.05983
557.32744,0.02626
559.25591,0.04749
561.18438,0.07239
563.11285,0.07679
565.04132,0.08622
566.96979,0.08237
568.89825,0.05399
570.82672,0.02978
572.75519,0.02805
574.68366,0.03420
576.61213,0.03502
578.54060,0.04574
580.46907,0.05492
582.39754,0.03905
584.32600,0.02092
586.25447,0.02084
588.18294,0.03427
590.11141,0.05529
592.03988,0.07342
593.96835,0.08256
595.89682,0.08426
597.82528,0.07727
599.75375,0.06251
601.68222,0.04072
603.61069,0.02521
605.53916,0.02563
607.46763,0.02226
609.39610,0.01578
611.32456,0.02520
613.25303,0.04360
615.18150,0.05451
617.10997,0.05936
619.03844,0.06719
620.96691,0.06743
622.89538,0.05076
624.82385,0.03174
626.75231,0.02350
628.68078,0.02565
630.60925,0.02993
632.53772,0.03286
634.46619,0.04245
636.39466,0.05999
638.32313,0.07056
640.25159,0.06222
642.18006,0.05046
644.10853,0.05326
646.03700,0.06037
647.96547,0.06079
649.89394,0.05952
651.82241,0.05849
653.75088,0.04803
655.67934,0.03167
657.60781,0.02947
659.53628,0.03846
661.46475,0.04205
663.39322,0.04629
665.32169,0.06122
667.25016,0.08116
669.17862,0.07914
671.10709,0.06387
673.03556,0.06274
674.96403,0.06284
676.89250,0.05031
678.82097,0.04191
680.74944,0.05236
682.67791,0.06652
684.60637,0.07154
686.53484,0.07300
688.46331,0.07117
690.39178,0.06284
692.32025,0.05841
694.24872,0.05959
696.17719,0.05597
698.10565,0.04998
700.03412,0.04585
701.96259,0.04091
703.89106,0.04097
705.81953,0.04894
707.74800,0.05561
709.67647,0.05426
711.60494,0.05040
713.53340,0.05183
715.46187,0.05456
717.39034,0.05608
719.31881,0.05731
721.24728,0.05426
723.17575,0.04993
725.10422,0.04751
727.03268,0.04699
728.96115,0.05174
730.88962,0.05838
732.81809,0.06100
734.74656,0.05868
736.67503,0.05203
738.60350,0.04494
740.53197,0.03866
742.46043,0.03487
744.38890,0.03908
746.31737,0.04273
748.24584,0.04035
750.17431,0.04467
752.10278,0.05613
754.03125,0.06256
755.95971,0.06011
757.88818,0.05307
759.81665,0.04956
761.74512,0.05429
763.67359,0.06501
765.60206,0.07589
767.53053,0.08065
769.45900,0.07652
771.38746,0.06786
773.31593,0.06040
775.24440,0.05450
777.17287,0.05157
779.10134,0.05470
781.02981,0.05855
782.95828,0.05622
784.88674,0.05445
786.81521,0.06083
788.74368,0.06545
790.67215,0.05924
792.60062,0.05299
794.52909,0.05647
796.45756,0.06069
798.38602,0.06015
800.31449,0.06016
802.24296,0.05964
804.17143,0.05515
806.09990,0.04945
808.02837,0.04693
809.95684,0.04923
811.88531,0.05201
813.81377,0.05163
815.74224,0.05034
817.67071,0.04618
819.59918,0.04251
821.52765,0.04518
823.45612,0.04897
825.38459,0.05427
827.31305,0.06185
829.24152,0.06500
831.16999,0.06246
833.09846,0.06028
835.02693,0.06333
836.95540,0.06560
838.88387,0.06183
840.81234,0.05689
842.74080,0.05323
844.66927,0.05087
846.59774,0.05370
848.52621,0.05938
850.45468,0.06477
852.38315,0.07191
854.31162,0.07322
856.24008,0.06471
858.16855,0.05892
860.09702,0.06141
862.02549,0.06409
863.95396,0.06176
865.88243,0.06438
867.81090,0.09491
869.73937,0.13141
871.66783,0.11670
873.59630,0.07207
875.52477,0.05203
877.45324,0.04836
879.38171,0.04556
881.31018,0.04832
883.23865,0.05163
885.16711,0.05173
887.09558,0.05130
889.02405,0.04880
890.95252,0.04439
892.88099,0.04451
894.80946,0.05157
896.73793,0.05600
898.66640,0.05163
900.59486,0.04657
902.52333,0.04533
904.45180,0.04400
906.38027,0.04501
908.30874,0.05308
910.23721,0.06158
912.16568,0.06212
914.09414,0.05863
916.02261,0.05889
917.95108,0.06238
919.87955,0.06414
921.80802,0.06225
923.73649,0.05794
925.66496,0.05523
927.59343,0.05534
929.52189,0.05681
931.45036,0.05941
933.37883,0.05891
935.30730,0.05422
937.23577,0.05231
939.16424,0.05531
941.09271,0.05703
943.02117,0.05538
944.94964,0.05556
946.87811,0.05733
948.80658,0.05614
950.73505,0.05523
952.66352,0.05859
954.59199,0.06266
956.52045,0.06208
958.44892,0.05788
960.37739,0.05929
962.30586,0.06903
964.23433,0.07522
966.16280,0.07200
968.09127,0.06663
970.01974,0.06336
971.94820,0.06028
973.87667,0.05506
975.80514,0.05174
977.73361,0.05713
979.66208,0.06573
981.59055,0.07036
983.51902,0.07037
985.44748,0.06364
987.37595,0.05673
989.30442,0.05891
991.23289,0.06426
993.16136,0.06314
995.08983,0.05964
997.01830,0.06206
998.94677,0.06505
1000.87523,0.06104
1002.80370,0.05776
1004.73217,0.06125
1006.66064,0.06368
1008.58911,0.06414
1010.51758,0.06748
1012.44605,0.06719
1014.37451,0.06080
1016.30298,0.05845
1018.23145,0.06133
1020.15992,0.06354
1022.08839,0.06563
1024.01686,0.06522
1025.94533,0.05770
1027.87380,0.04769
1029.80226,0.04717
1031.73073,0.05724
1033.65920,0.06578
1035.58767,0.06836
1037.51614,0.06849
1039.44461,0.06691
1041.37308,0.06347
1043.30154,0.06220
1045.23001,0.06630
1047.15848,0.07340
1049.08695,0.07916
1051.01542,0.08054
1052.94389,0.07693
1054.87236,0.07045
1056.80083,0.06614
1058.72929,0.06474
1060.65776,0.06413
1062.58623,0.06553
1064.51470,0.06622
1066.44317,0.06531
1068.37164,0.06766
1070.30011,0.06944
1072.22857,0.06359
1074.15704,0.05760
1076.08551,0.06064
1078.01398,0.06654
1079.94245,0.06948
1081.87092,0.07312
1083.79939,0.07639
1085.72786,0.07451
1087.65632,0.07168
1089.58479,0.07047
1091.51326,0.06520
1093.44173,0.05951
1095.37020,0.06030
1097.29867,0.06222
1099.22714,0.06113
1101.15560,0.06082
1103.08407,0.06202
1105.01254,0.06243
1106.94101,0.06381
1108.86948,0.06990
1110.79795,0.07338
1112.72642,0.06738
1114.65489,0.06418
1116.58335,0.07090
1118.51182,0.07740
1120.44029,0.07759
1122.36876,0.07561
1124.29723,0.07358
1126.22570,0.06967
1128.15417,0.06727
1130.08263,0.06784
1132.01110,0.06645
1133.93957,0.06156
1135.86804,0.05913
1137.79651,0.06180
1139.72498,0.06412
1141.65345,0.06687
1143.58191,0.07225
1145.51038,0.07606
1147.43885,0.07680
1149.36732,0.07692
1151.29579,0.07682
1153.22426,0.07632
1155.15273,0.07751
1157.08120,0.07965
1159.00966,0.07947
1160.93813,0.07770
1162.86660,0.07752
1164.79507,0.07715
1166.72354,0.07467
1168.65201,0.07247
1170.58048,0.07091
1172.50894,0.07064
1174.43741,0.07090
1176.36588,0.06954
1178.29435,0.06823
1180.22282,0.06725
1182.15129,0.06704
1184.07976,0.06946
1186.00823,0.07281
1187.93669,0.07482
1189.86516,0.07332
1191.79363,0.06910
1193.72210,0.06898
1195.65057,0.07239
1197.57904,0.07264
1199.50751,0.07034
1201.43597,0.06812
1203.36444,0.06654
1205.29291,0.06604
1207.22138,0.06582
1209.14985,0.06666
1211.07832,0.07005
1213.00679,0.07175
1214.93526,0.06908
1216.86372,0.06711
1218.79219,0.06906
1220.72066,0.07223
1222.64913,0.07239
1224.57760,0.06858
1226.50607,0.06504
1228.43454,0.06662
1230.36300,0.07139
1232.29147,0.07403
1234.21994,0.07397
1236.14841,0.07285
1238.07688,0.07294
1240.00535,0.07562
1241.93382,0.07712
1243.86229,0.07536
1245.79075,0.07467
1247.71922,0.07597
1249.64769,0.07525
1251.57616,0.07246
1253.50463,0.06978
1255.43310,0.06838
1257.36157,0.06870
1259.29003,0.06947
1261.21850,0.06981
1263.14697,0.07008
1265.07544,0.07142
1267.00391,0.07273
1268.93238,0.07241
1270.86085,0.07228
1272.78932,0.07264
1274.71778,0.07346
1276.64625,0.07497
1278.57472,0.07448
1280.50319,0.07242
1282.43166,0.07249
1284.36013,0.07488
1286.28860,0.07700
1288.21706,0.07657
1290.14553,0.07455
1292.07400,0.07342
1294.00247,0.07290
1295.93094,0.07217
1297.85941,0.07033
1299.78788,0.06824
1301.71634,0.06778
1303.64481,0.06759
1305.57328,0.06750
1307.50175,0.06891
1309.43022,0.07126
1311.35869,0.07378
1313.28716,0.07518
1315.21563,0.07396
1317.14409,0.07163
1319.07256,0.07055
1321.00103,0.06960
1322.92950,0.06789
1324.85797,0.06784
1326.78644,0.07041
1328.71491,0.07353
1330.64337,0.07439
1332.57184,0.07241
1334.50031,0.07166
1336.42878,0.07368
1338.35725,0.07554
1340.28572,0.07529
1342.21419,0.07282
1344.14266,0.07138
1346.07112,0.07184
1347.99959,0.07289
1349.92806,0.07549
1351.85653,0.07690
1353.78500,0.07544
1355.71347,0.07497
1357.64194,0.07653
1359.57040,0.07872
1361.49887,0.08103
1363.42734,0.07959
1365.35581,0.07412
1367.28428,0.07159
1369.21275,0.07322
1371.14122,0.07511
1373.06969,0.07639
1374.99815,0.07690
1376.92662,0.07515
1378.85509,0.07255
1380.78356,0.07207
1382.71203,0.07409
1384.64050,0.07693
1386.56897,0.07950
1388.49743,0.08128
1390.42590,0.08317
1392.35437,0.08520
1394.28284,0.08563
1396.21131,0.08387
1398.13978,0.08144
1400.06825,0.07907
1401.99672,0.07621
1403.92518,0.07448
1405.85365,0.07714
1407.78212,0.07967
1409.71059,0.07773
1411.63906,0.07649
1413.56753,0.07843
1415.49600,0.07943
1417.42446,0.07917
1419.35293,0.07936
1421.28140,0.07885
1423.20987,0.07988
1425.13834,0.08277
1427.06681,0.08345
1428.99528,0.08158
1430.92375,0.08055
1432.85221,0.08191
1434.78068,0.08298
1436.70915,0.08087
1438.63762,0.07879
1440.56609,0.07886
1442.49456,0.07884
1444.42303,0.07949
1446.35149,0.08127
1448.27996,0.08191
1450.20843,0.08190
1452.13690,0.08420
1454.06537,0.08923
1455.99384,0.09371
1457.92231,0.09022
1459.85077,0.08396
1461.77924,0.08229
1463.70771,0.08424
1465.63618,0.08606
1467.56465,0.08495
1469.49312,0.08560
1471.42159,0.09049
1473.35006,0.09361
1475.27852,0.09038
1477.20699,0.08584
1479.13546,0.08152
1481.06393,0.07810
1482.99240,0.07684
1484.92087,0.07824
1486.84934,0.08140
1488.77780,0.08486
1490.70627,0.08476
1492.63474,0.08153
1494.56321,0.08117
1496.49168,0.08473
1498.42015,0.08522
1500.34862,0.08158
1502.27709,0.08129
1504.20555,0.08685
1506.13402,0.09593
1508.06249,0.09639
1509.99096,0.09029
1511.91943,0.08706
1513.84790,0.08809
1515.77637,0.09110
1517.70483,0.09212
1519.63330,0.09333
1521.56177,0.09510
1523.49024,0.09221
1525.41871,0.08768
1527.34718,0.08400
1529.27565,0.08058
1531.20412,0.07936
1533.13258,0.08224
1535.06105,0.08372
1536.98952,0.08276
1538.91799,0.08658
1540.84646,0.09528
1542.77493,0.09413
1544.70340,0.08765
1546.63186,0.08339
1548.56033,0.08425
1550.48880,0.08851
1552.41727,0.09089
1554.34574,0.08896
1556.27421,0.08430
1558.20268,0.08016
1560.13115,0.08022
1562.05961,0.08153
1563.98808,0.08397
1565.91655,0.08663
1567.84502,0.08674
1569.77349,0.08503
1571.70196,0.08513
1573.63043,0.08718
1575.55889,0.08730
1577.48736,0.08244
1579.41583,0.07896
1581.34430,0.07842
1583.27277,0.07832
1585.20124,0.07809
1587.12971,0.07968
1589.05818,0.08291
1590.98664,0.08391
1592.91511,0.08260
1594.84358,0.08193
1596.77205,0.08126
1598.70052,0.08057
1600.62899,0.08142
1602.55746,0.08293
1604.48592,0.08344
1606.41439,0.08261
1608.34286,0.08196
1610.27133,0.08331
1612.19980,0.08544
1614.12827,0.08827
1616.05674,0.09181
1617.98521,0.09077
1619.91367,0.08779
1621.84214,0.08731
1623.77061,0.08775
1625.69908,0.08731
1627.62755,0.08668
1629.55602,0.08607
1631.48449,0.08652
1633.41295,0.09070
1635.34142,0.09714
1637.26989,0.09569
1639.19836,0.09016
1641.12683,0.08674
1643.05530,0.08657
1644.98377,0.09121
1646.91223,0.09727
1648.84070,0.09659
1650.76917,0.09683
1652.69764,0.10185
1654.62611,0.09602
1656.55458,0.08616
1658.48305,0.08234
1660.41152,0.08414
1662.33998,0.08835
1664.26845,0.08817
1666.19692,0.08564
1668.12539,0.08609
1670.05386,0.08744
1671.98233,0.08641
1673.91080,0.08677
1675.83926,0.08834
1677.76773,0.08918
1679.69620,0.09145
1681.62467,0.09706
1683.55314,0.10308
1685.48161,0.09827
1687.41008,0.09116
1689.33855,0.08928
1691.26701,0.08872
1693.19548,0.08799
1695.12395,0.08882
1697.05242,0.08981
1698.98089,0.09065
1700.90936,0.09322
1702.83783,0.09329
1704.76629,0.09108
1706.69476,0.08792
1708.62323,0.08525
1710.55170,0.08475
1712.48017,0.08625
1714.40864,0.08967
1716.33711,0.09517
1718.26558,0.09482
1720.19404,0.08750
1722.12251,0.08272
1724.05098,0.08195
1725.97945,0.08304
1727.90792,0.08472
1729.83639,0.08690
1731.76486,0.08970
1733.69332,0.09242
1735.62179,0.09093
1737.55026,0.08716
1739.47873,0.08468
1741.40720,0.08449
1743.33567,0.08518
1745.26414,0.08607
1747.19261,0.08765
1749.12107,0.08845
1751.04954,0.08663
1752.97801,0.08409
1754.90648,0.08288
1756.83495,0.08302
1758.76342,0.08384
1760.69189,0.08434
1762.62035,0.08302
1764.54882,0.08145
1766.47729,0.08186
1768.40576,0.08286
1770.33423,0.08525
1772.26270,0.08985
1774.19117,0.08952
1776.11964,0.08609
1778.04810,0.08605
1779.97657,0.08877
1781.90504,0.08874
1783.83351,0.08497
1785.76198,0.08144
1787.69045,0.08123
1789.61892,0.08446
1791.54738,0.08875
1793.47585,0.09046
1795.40432,0.08889
1797.33279,0.08629
1799.26126,0.08423
1801.18973,0.08295
1803.11820,0.08157
1805.04666,0.07990
1806.97513,0.07945
1808.90360,0.08012
1810.83207,0.07982
1812.76054,0.07922
1814.68901,0.07998
1816.61748,0.08099
1818.54595,0.08143
1820.47441,0.08188
1822.40288,0.08269
1824.33135,0.08388
1826.25982,0.08438
1828.18829,0.08515
1830.11676,0.08712
1832.04523,0.08668
1833.97369,0.08467
1835.90216,0.08372
1837.83063,0.08296
1839.75910,0.08238
1841.68757,0.08408
1843.61604,0.08640
1845.54451,0.08392
1847.47298,0.07971
1849.40144,0.07844
1851.32991,0.07918
1853.25838,0.08087
1855.18685,0.08308
1857.11532,0.08360
1859.04379,0.08210
1860.97226,0.08083
1862.90072,0.07983
1864.82919,0.07908
1866.75766,0.08063
1868.68613,0.08392
1870.61460,0.08478
1872.54307,0.08338
1874.47154,0.08183
1876.40001,0.08039
1878.32847,0.07982
1880.25694,0.08097
1882.18541,0.08237
1884.11388,0.08244
1886.04235,0.08220
1887.97082,0.08319
1889.89929,0.08511
1891.82775,0.08559
1893.75622,0.08492
1895.68469,0.08555
1897.61316,0.08686
1899.54163,0.08684
1901.47010,0.08538
1903.39857,0.08345
1905.32704,0.08232
1907.25550,0.08342
1909.18397,0.08512
1911.11244,0.08360
1913.04091,0.08046
1914.96938,0.08016
1916.89785,0.08343
1918.82632,0.08625
1920.75478,0.08583
1922.68325,0.08437
1924.61172,0.08314
1926.54019,0.08138
1928.46866,0.07967
1930.39713,0.07965
1932.32560,0.08062
1934.25407,0.08108
1936.18253,0.08116
1938.11100,0.08182
1940.03947,0.08371
1941.96794,0.08487
1943.89641,0.08402
1945.82488,0.08353
1947.75335,0.08368
1949.68181,0.08319
1951.61028,0.08273
1953.53875,0.08270
1955.46722,0.08243
1957.39569,0.08283
1959.32416,0.08442
1961.25263,0.08576
1963.18110,0.08599
1965.10956,0.08539
1967.03803,0.08466
1968.96650,0.08442
1970.89497,0.08355
1972.82344,0.08152
1974.75191,0.08002
1976.68038,0.08025
1978.60884,0.08170
1980.53731,0.08210
1982.46578,0.08017
1984.39425,0.07927
1986.32272,0.08163
1988.25119,0.08385
1990.17966,0.08385
1992.10812,0.08326
1994.03659,0.08222
1995.96506,0.08073
1997.89353,0.07991
1999.82200,0.08099
2001.75047,0.08441
2003.67894,0.08802
2005.60741,0.08913
2007.53587,0.08794
2009.46434,0.08629
2011.39281,0.08542
2013.32128,0.08573
2015.24975,0.08636
2017.17822,0.08588
2019.10669,0.08449
2021.03515,0.08469
2022.96362,0.08671
2024.89209,0.08638
2026.82056,0.08328
2028.74903,0.08126
2030.67750,0.08110
2032.60597,0.08141
2034.53444,0.08216
2036.46290,0.08294
2038.39137,0.08245
2040.31984,0.08140
2042.24831,0.08114
2044.17678,0.08066
2046.10525,0.07972
2048.03372,0.08085
2049.96218,0.08420
2051.89065,0.08693
2053.81912,0.08786
2055.74759,0.08758
2057.67606,0.08704
2059.60453,0.08616
2061.53300,0.08495
2063.46147,0.08419
2065.38993,0.08349
2067.31840,0.08342
2069.24687,0.08506
2071.17534,0.08620
2073.10381,0.08478
2075.03228,0.08313
2076.96075,0.08391
2078.88921,0.08529
2080.81768,0.08471
2082.74615,0.08341
2084.67462,0.08341
2086.60309,0.08484
2088.53156,0.08616
2090.46003,0.08593
2092.38850,0.08494
2094.31696,0.08411
2096.24543,0.08292
2098.17390,0.08131
2100.10237,0.08000
2102.03084,0.08002
2103.95931,0.08178
2105.88778,0.08339
2107.81624,0.08337
2109.74471,0.08372
2111.67318,0.08472
2113.60165,0.08436
2115.53012,0.08339
2117.45859,0.08297
2119.38706,0.08217
2121.31553,0.08129
2123.24399,0.08204
2125.17246,0.08352
2127.10093,0.08416
2129.02940,0.08428
2130.95787,0.08362
2132.88634,0.08263
2134.81481,0.08300
2136.74327,0.08446
2138.67174,0.08469
2140.60021,0.08274
2142.52868,0.08098
2144.45715,0.08038
2146.38562,0.07964
2148.31409,0.07978
2150.24255,0.08148
2152.17102,0.08236
2154.09949,0.08163
2156.02796,0.08164
2157.95643,0.08296
2159.88490,0.08358
2161.81337,0.08378
2163.74184,0.08491
2165.67030,0.08618
2167.59877,0.08650
2169.52724,0.08589
2171.45571,0.08471
2173.38418,0.08373
2175.31265,0.08447
2177.24112,0.08588
2179.16958,0.08485
2181.09805,0.08278
2183.02652,0.08287
2184.95499,0.08367
2186.88346,0.08345
2188.81193,0.08312
2190.74040,0.08280
2192.66887,0.08240
2194.59733,0.08167
2196.52580,0.07993
2198.45427,0.07866
2200.38274,0.07887
2202.31121,0.07979
2204.23968,0.08132
2206.16815,0.08246
2208.09661,0.08230
2210.02508,0.08199
2211.95355,0.08286
2213.88202,0.08517
2215.81049,0.08722
2217.73896,0.08770
2219.66743,0.08795
2221.59590,0.08848
2223.52436,0.08837
2225.45283,0.08742
2227.38130,0.08590
2229.30977,0.08478
2231.23824,0.08475
2233.16671,0.08555
2235.09518,0.08599
2237.02364,0.08478
2238.95211,0.08275
2240.88058,0.08127
2242.80905,0.08107
2244.73752,0.08237
2246.66599,0.08367
2248.59446,0.08419
2250.52293,0.08516
2252.45139,0.08629
2254.37986,0.08653
2256.30833,0.08702
2258.23680,0.08724
2260.16527,0.08563
2262.09374,0.08445
2264.02221,0.08579
2265.95067,0.08745
2267.87914,0.08734
2269.80761,0.08690
2271.73608,0.08610
2273.66455,0.08405
2275.59302,0.08322
2277.52149,0.08412
2279.44996,0.08441
2281.37842,0.08427
2283.30689,0.08461
2285.23536,0.08409
2287.16383,0.08231
2289.09230,0.08080
2291.02077,0.08095
2292.94924,0.08185
2294.87770,0.08229
2296.80617,0.08428
2298.73464,0.08692
2300.66311,0.08758
2302.59158,0.08737
2304.52005,0.08648
2306.44852,0.08506
2308.37699,0.08414
2310.30545,0.08290
2312.23392,0.08130
2314.16239,0.08043
2316.09086,0.08166
2318.01933,0.08570
2319.94780,0.08927
2321.87627,0.08841
2323.80473,0.08326
2325.73320,0.07682
2327.66167,0.07229
2329.59014,0.06892
2331.51861,0.06602
2333.44708,0.06778
2335.37555,0.07457
2337.30401,0.08102
2339.23248,0.08361
2341.16095,0.08545
2343.08942,0.08703
2345.01789,0.08494
2346.94636,0.08376
2348.87483,0.08661
2350.80330,0.08927
2352.73176,0.08560
2354.66023,0.07967
2356.58870,0.08601
2358.51717,0.09513
2360.44564,0.09276
2362.37411,0.09380
2364.30258,0.10170
2366.23104,0.10238
2368.15951,0.09454
2370.08798,0.08692
2372.01645,0.08451
2373.94492,0.08501
2375.87339,0.08523
2377.80186,0.08441
2379.73033,0.08391
2381.65879,0.08435
2383.58726,0.08465
2385.51573,0.08486
2387.44420,0.08508
2389.37267,0.08546
2391.30114,0.08596
2393.22961,0.08512
2395.15807,0.08433
2397.08654,0.08556
2399.01501,0.08640
2400.94348,0.08624
2402.87195,0.08694
2404.80042,0.08697
2406.72889,0.08545
2408.65736,0.08373
2410.58582,0.08180
2412.51429,0.08070
2414.44276,0.08158
2416.37123,0.08357
2418.29970,0.08601
2420.22817,0.08722
2422.15664,0.08568
2424.08510,0.08358
2426.01357,0.08317
2427.94204,0.08338
2429.87051,0.08358
2431.79898,0.08490
2433.72745,0.08691
2435.65592,0.08810
2437.58439,0.08899
2439.51285,0.08997
2441.44132,0.08940
2443.36979,0.08721
2445.29826,0.08537
2447.22673,0.08450
2449.15520,0.08368
2451.08367,0.08229
2453.01213,0.08077
2454.94060,0.08112
2456.86907,0.08372
2458.79754,0.08643
2460.72601,0.08822
2462.65448,0.08814
2464.58295,0.08619
2466.51142,0.08428
2468.43988,0.08360
2470.36835,0.08421
2472.29682,0.08471
2474.22529,0.08390
2476.15376,0.08267
2478.08223,0.08334
2480.01070,0.08653
2481.93916,0.08882
2483.86763,0.08781
2485.79610,0.08617
2487.72457,0.08694
2489.65304,0.08836
2491.58151,0.08764
2493.50998,0.08663
2495.43844,0.08758
2497.36691,0.08888
2499.29538,0.08929
2501.22385,0.08913
2503.15232,0.08845
2505.08079,0.08753
2507.00926,0.08679
2508.93773,0.08682
2510.86619,0.08727
2512.79466,0.08682
2514.72313,0.08625
2516.65160,0.08691
2518.58007,0.08766
2520.50854,0.08805
2522.43701,0.08881
2524.36547,0.08854
2526.29394,0.08645
2528.22241,0.08477
2530.15088,0.08558
2532.07935,0.08691
2534.00782,0.08601
2535.93629,0.08525
2537.86476,0.08698
2539.79322,0.08882
2541.72169,0.08920
2543.65016,0.08946
2545.57863,0.08909
2547.50710,0.08676
2549.43557,0.08491
2551.36404,0.08521
2553.29250,0.08571
2555.22097,0.08555
2557.14944,0.08479
2559.07791,0.08370
2561.00638,0.08461
2562.93485,0.08781
2564.86332,0.08949
2566.79179,0.08760
2568.72025,0.08546
2570.64872,0.08630
2572.57719,0.08796
2574.50566,0.08827
2576.43413,0.08825
2578.36260,0.08860
2580.29107,0.08903
2582.21953,0.08921
2584.14800,0.08947
2586.07647,0.08933
2588.00494,0.08765
2589.93341,0.08576
2591.86188,0.08542
2593.79035,0.08646
2595.71882,0.08856
2597.64728,0.09012
2599.57575,0.08963
2601.50422,0.08872
2603.43269,0.08826
2605.36116,0.08797
2607.28963,0.08846
2609.21810,0.08944
2611.14656,0.09024
2613.07503,0.09006
2615.00350,0.08950
2616.93197,0.08939
2618.86044,0.08835
2620.78891,0.08725
2622.71738,0.08758
2624.64585,0.08725
2626.57431,0.08661
2628.50278,0.08855
2630.43125,0.09137
2632.35972,0.09226
2634.28819,0.09196
2636.21666,0.09169
2638.14513,0.09250
2640.07359,0.09393
2642.00206,0.09292
2643.93053,0.08888
2645.85900,0.08453
2647.78747,0.08267
2649.71594,0.08424
2651.64441,0.08689
2653.57288,0.08881
2655.50134,0.09094
2657.42981,0.09258
2659.35828,0.09241
2661.28675,0.09092
2663.21522,0.08951
2665.14369,0.09024
2667.07216,0.09262
2669.00062,0.09300
2670.92909,0.09056
2672.85756,0.08847
2674.78603,0.08828
2676.71450,0.08860
2678.64297,0.08839
2680.57144,0.08748
2682.49990,0.08691
2684.42837,0.08839
2686.35684,0.09213
2688.28531,0.09529
2690.21378,0.09390
2692.14225,0.08953
2694.07072,0.08744
2695.99919,0.08835
2697.92765,0.09045
2699.85612,0.09231
2701.78459,0.09235
2703.71306,0.09168
2705.64153,0.09206
2707.57000,0.09229
2709.49847,0.09145
2711.42693,0.09124
2713.35540,0.09298
2715.28387,0.09543
2717.21234,0.09615
2719.14081,0.09458
2721.06928,0.09310
2722.99775,0.09311
2724.92622,0.09285
2726.85468,0.09209
2728.78315,0.09181
2730.71162,0.09167
2732.64009,0.09240
2734.56856,0.09395
2736.49703,0.09349
2738.42550,0.09157
2740.35396,0.09159
2742.28243,0.09224
2744.21090,0.09209
2746.13937,0.09250
2748.06784,0.09233
2749.99631,0.09165
2751.92478,0.09230
2753.85325,0.09217
2755.78171,0.09046
2757.71018,0.09112
2759.63865,0.09362
2761.56712,0.09441
2763.49559,0.09529
2765.42406,0.09747
2767.35253,0.09853
2769.28099,0.09765
2771.20946,0.09582
2773.13793,0.09409
2775.06640,0.09333
2776.99487,0.09397
2778.92334,0.09442
2780.85181,0.09297
2782.78028,0.09110
2784.70874,0.09165
2786.63721,0.09415
2788.56568,0.09549
2790.49415,0.09522
2792.42262,0.09429
2794.35109,0.09205
2796.27956,0.08972
2798.20802,0.08975
2800.13649,0.09150
2802.06496,0.09278
2803.99343,0.09320
2805.92190,0.09342
2807.85037,0.09278
2809.77884,0.09195
2811.70731,0.09318
2813.63577,0.09592
2815.56424,0.09776
2817.49271,0.09688
2819.42118,0.09489
2821.34965,0.09453
2823.27812,0.09479
2825.20659,0.09447
2827.13505,0.09343
2829.06352,0.09259
2830.99199,0.09322
2832.92046,0.09410
2834.84893,0.09418
2836.77740,0.09513
2838.70587,0.09788
2840.63433,0.10041
2842.56280,0.09974
2844.49127,0.09614
2846.41974,0.09414
2848.34821,0.09471
2850.27668,0.09550
2852.20515,0.09541
2854.13362,0.09341
2856.06208,0.09168
2857.99055,0.09205
2859.91902,0.09279
2861.84749,0.09335
2863.77596,0.09361
2865.70443,0.09395
2867.63290,0.09485
2869.56136,0.09385
2871.48983,0.09061
2873.41830,0.08897
2875.34677,0.09046
2877.27524,0.09348
2879.20371,0.09564
2881.13218,0.09532
2883.06065,0.09379
2884.98911,0.09356
2886.91758,0.09376
2888.84605,0.09230
2890.77452,0.09058
2892.70299,0.09010
2894.63146,0.09087
2896.55993,0.09219
2898.48839,0.09285
2900.41686,0.09332
2902.34533,0.09416
2904.27380,0.09465
2906.20227,0.09534
2908.13074,0.09634
2910.05921,0.09377
2911.98768,0.08938
2913.91614,0.09104
2915.84461,0.09614
2917.77308,0.09747
2919.70155,0.09705
2921.63002,0.09679
2923.55849,0.09528
2925.48696,0.09372
2927.41542,0.09413
2929.34389,0.09586
2931.27236,0.09493
2933.20083,0.09162
2935.12930,0.08905
2937.05777,0.08712
2938.98624,0.08735
2940.91471,0.09052
2942.84317,0.09369
2944.77164,0.09419
2946.70011,0.09348
2948.62858,0.09570
2950.55705,0.09978
2952.48552,0.10217
2954.41399,0.10304
2956.34245,0.10078
2958.27092,0.09530
2960.19939,0.09266
2962.12786,0.09426
2964.05633,0.09585
2965.98480,0.09521
2967.91327,0.09377
2969.84174,0.09382
2971.77020,0.09489
2973.69867,0.09661
2975.62714,0.09793
2977.55561,0.09777
2979.48408,0.09815
2981.41255,0.09911
2983.34102,0.09912
2985.26948,0.09779
2987.19795,0.09478
2989.12642,0.09339
2991.05489,0.09616
2992.98336,0.09926
2994.91183,0.10047
2996.84030,0.10145
2998.76877,0.10284
3000.69723,0.10217
3002.62570,0.09783
3004.55417,0.09501
3006.48264,0.09733
3008.41111,0.09939
3010.33958,0.09621
3012.26805,0.08991
3014.19651,0.08237
3016.12498,0.07532
3018.05345,0.07599
3019.98192,0.08587
3021.91039,0.09550
3023.83886,0.09792
3025.76733,0.09638
3027.69579,0.09698
3029.62426,0.09922
3031.55273,0.09925
3033.48120,0.09800
3035.40967,0.09855
3037.33814,0.09956
3039.26661,0.09876
3041.19508,0.09726
3043.12354,0.09697
3045.05201,0.09752
3046.98048,0.09780
3048.90895,0.09771
3050.83742,0.09690
3052.76589,0.09506
3054.69436,0.09239
3056.62282,0.09084
3058.55129,0.09344
3060.47976,0.09778
3062.40823,0.10009
3064.33670,0.09987
3066.26517,0.09682
3068.19364,0.09540
3070.12211,0.09947
3072.05057,0.10293
3073.97904,0.09987
3075.90751,0.09460
3077.83598,0.09429
3079.76445,0.09633
3081.69292,0.09421
3083.62139,0.08957
3085.54985,0.08915
3087.47832,0.09413
3089.40679,0.09759
3091.33526,0.09639
3093.26373,0.09413
3095.19220,0.09299
3097.12067,0.09366
3099.04914,0.09574
3100.97760,0.09634
3102.90607,0.09471
3104.83454,0.09492
3106.76301,0.09708
3108.69148,0.09813
3110.61995,0.09794
3112.54842,0.09684
3114.47688,0.09682
3116.40535,0.09845
3118.33382,0.09970
3120.26229,0.10052
3122.19076,0.09958
3124.11923,0.09628
3126.04770,0.09455
3127.97617,0.09552
3129.90463,0.09655
3131.83310,0.09781
3133.76157,0.10052
3135.69004,0.10260
3137.61851,0.10106
3139.54698,0.09878
3141.47545,0.09967
3143.40391,0.09994
3145.33238,0.09784
3147.26085,0.09603
3149.18932,0.09446
3151.11779,0.09317
3153.04626,0.09380
3154.97473,0.09774
3156.90320,0.10282
3158.83166,0.10439
3160.76013,0.10171
3162.68860,0.09948
3164.61707,0.10131
3166.54554,0.10321
3168.47401,0.10138
3170.40248,0.09847
3172.33094,0.09615
3174.25941,0.09572
3176.18788,0.09986
3178.11635,0.10504
3180.04482,0.10579
3181.97329,0.10359
3183.90176,0.10017
3185.83022,0.09715
3187.75869,0.09771
3189.68716,0.09855
3191.61563,0.09689
3193.54410,0.09722
3195.47257,0.10066
3197.40104,0.10293
3199.32951,0.10305
3201.25797,0.10233
3203.18644,0.10259
3205.11491,0.10461
3207.04338,0.10509
3208.97185,0.10254
3210.90032,0.10041
3212.82879,0.10139
3214.75725,0.10141
3216.68572,0.09684
3218.61419,0.09391
3220.54266,0.09654
3222.47113,0.10005
3224.39960,0.10145
3226.32807,0.10176
3228.25654,0.10084
3230.18500,0.09941
3232.11347,0.10076
3234.04194,0.10319
3235.97041,0.10365
3237.89888,0.10447
3239.82735,0.10472
3241.75582,0.10324
3243.68428,0.10221
3245.61275,0.10058
3247.54122,0.09999
3249.46969,0.09997
3251.39816,0.09586
3253.32663,0.09186
3255.25510,0.09360
3257.18357,0.09850
3259.11203,0.10185
3261.04050,0.10243
3262.96897,0.10170
3264.89744,0.10102
3266.82591,0.10181
3268.75438,0.10308
3270.68285,0.10122
3272.61131,0.09754
3274.53978,0.09774
3276.46825,0.10044
3278.39672,0.10061
3280.32519,0.10022
3282.25366,0.10019
3284.18213,0.09798
3286.11060,0.09678
3288.03906,0.09898
3289.96753,0.10011
3291.89600,0.09944
3293.82447,0.10087
3295.75294,0.10330
3297.68141,0.10215
3299.60988,0.09846
3301.53834,0.09909
3303.46681,0.10358
3305.39528,0.10483
3307.32375,0.10247
3309.25222,0.10057
3311.18069,0.09961
3313.10916,0.09713
3315.03763,0.09500
3316.96609,0.09701
3318.89456,0.10010
3320.82303,0.10072
3322.75150,0.10108
3324.67997,0.10318
3326.60844,0.10313
3328.53691,0.09875
3330.46537,0.09606
3332.39384,0.09869
3334.32231,0.10256
3336.25078,0.10350
3338.17925,0.10387
3340.10772,0.10694
3342.03619,0.10884
3343.96466,0.10660
3345.89312,0.10259
3347.82159,0.10065
3349.75006,0.10328
3351.67853,0.10642
3353.60700,0.10570
3355.53547,0.10304
3357.46394,0.10016
3359.39240,0.09747
3361.32087,0.09598
3363.24934,0.09713
3365.17781,0.10018
3367.10628,0.10293
3369.03475,0.10603
3370.96322,0.10685
3372.89168,0.10229
3374.82015,0.09619
3376.74862,0.09242
3378.67709,0.09305
3380.60556,0.09840
3382.53403,0.10241
3384.46250,0.09946
3386.39097,0.09584
3388.31943,0.09859
3390.24790,0.10164
3392.17637,0.10065
3394.10484,0.10076
3396.03331,0.10328
3397.96178,0.10380
3399.89025,0.10150
3401.81871,0.09781
3403.74718,0.09429
3405.67565,0.09487
3407.60412,0.09826
3409.53259,0.10002
3411.46106,0.10047
3413.38953,0.09960
3415.31800,0.09739
3417.24646,0.09651
3419.17493,0.09814
3421.10340,0.10017
3423.03187,0.10004
3424.96034,0.09776
3426.88881,0.09470
3428.81728,0.09337
3430.74574,0.09698
3432.67421,0.10287
3434.60268,0.10371
3436.53115,0.10026
3438.45962,0.09816
3440.38809,0.09573
3442.31656,0.09072
3444.24503,0.08735
3446.17349,0.08871
3448.10196,0.09293
3450.03043,0.09686
3451.95890,0.09954
3453.88737,0.10062
3455.81584,0.09807
3457.74431,0.09251
3459.67277,0.08807
3461.60124,0.08670
3463.52971,0.08681
3465.45818,0.08629
3467.38665,0.08794
3469.31512,0.09358
3471.24359,0.09680
3473.17206,0.09498
3475.10052,0.09330
3477.02899,0.09353
3478.95746,0.09301
3480.88593,0.09043
3482.81440,0.08682
3484.74287,0.08520
3486.67134,0.08674
3488.59980,0.08905
3490.52827,0.09110
3492.45674,0.09210
3494.38521,0.09015
3496.31368,0.08607
3498.24215,0.08253
3500.17062,0.08172
3502.09909,0.08296
3504.02755,0.08285
3505.95602,0.08259
3507.88449,0.08364
3509.81296,0.08315
3511.74143,0.08394
3513.66990,0.08631
3515.59837,0.08415
3517.52683,0.07998
3519.45530,0.07850
3521.38377,0.07815
3523.31224,0.07888
3525.24071,0.08203
3527.16918,0.08545
3529.09765,0.08595
3531.02611,0.08420
3532.95458,0.08325
3534.88305,0.08314
3536.81152,0.08289
3538.73999,0.08269
3540.66846,0.08124
3542.59693,0.07831
3544.52540,0.07608
3546.45386,0.07424
3548.38233,0.07377
3550.31080,0.07766
3552.23927,0.08240
3554.16774,0.08356
3556.09621,0.08176
3558.02468,0.07762
3559.95314,0.07400
3561.88161,0.07369
3563.81008,0.07558
3565.73855,0.07781
3567.66702,0.07750
3569.59549,0.07570
3571.52396,0.07520
3573.45243,0.07516
3575.38089,0.07536
3577.30936,0.07615
3579.23783,0.07609
3581.16630,0.07546
3583.09477,0.07624
3585.02324,0.07699
3586.95171,0.07753
3588.88017,0.07810
3590.80864,0.07750
3592.73711,0.07680
3594.66558,0.07406
3596.59405,0.07122
3598.52252,0.07261
3600.45099,0.07458
3602.37946,0.07454
3604.30792,0.07525
3606.23639,0.07627
3608.16486,0.07336
3610.09333,0.06967
3612.02180,0.07067
3613.95027,0.07180
3615.87874,0.07125
3617.80720,0.07404
3619.73567,0.07723
3621.66414,0.07380
3623.59261,0.06952
3625.52108,0.06972
3627.44955,0.07386
3629.37802,0.07534
3631.30649,0.07067
3633.23495,0.06640
3635.16342,0.06370
3637.09189,0.06219
3639.02036,0.06237
3640.94883,0.06418
3642.87730,0.06636
3644.80577,0.06870
3646.73423,0.07249
3648.66270,0.07737
3650.59117,0.07512
3652.51964,0.06820
3654.44811,0.06607
3656.37658,0.06767
3658.30505,0.06628
3660.23352,0.06307
3662.16198,0.06240
3664.09045,0.06362
3666.01892,0.06572
3667.94739,0.06896
3669.87586,0.06874
3671.80433,0.06258
3673.73280,0.05955
3675.66126,0.06352
3677.58973,0.06553
3679.51820,0.06188
3681.44667,0.05748
3683.37514,0.05505
3685.30361,0.05676
3687.23208,0.06249
3689.16055,0.06853
3691.08901,0.06969
3693.01748,0.06765
3694.94595,0.06573
3696.87442,0.06379
3698.80289,0.06100
3700.73136,0.05916
3702.65983,0.06119
3704.58829,0.06409
3706.51676,0.06527
3708.44523,0.06760
3710.37370,0.07065
3712.30217,0.06773
3714.23064,0.06269
3716.15911,0.06198
3718.08757,0.06481
3720.01604,0.06802
3721.94451,0.06780
3723.87298,0.06405
3725.80145,0.06164
3727.72992,0.06312
3729.65839,0.06379
3731.58686,0.06046
3733.51532,0.05773
3735.44379,0.06212
3737.37226,0.06665
3739.30073,0.06509
3741.22920,0.06199
3743.15767,0.06289
3745.08614,0.06812
3747.01460,0.06967
3748.94307,0.07179
3750.87154,0.07414
3752.80001,0.06713
3754.72848,0.06201
3756.65695,0.06258
3758.58542,0.06377
3760.51389,0.06183
3762.44235,0.05820
3764.37082,0.05735
3766.29929,0.06067
3768.22776,0.06418
3770.15623,0.06395
3772.08470,0.06127
3774.01317,0.05998
3775.94163,0.06071
3777.87010,0.06185
3779.79857,0.06067
3781.72704,0.05781
3783.65551,0.05661
3785.58398,0.05752
3787.51245,0.05843
3789.44092,0.05841
3791.36938,0.05810
3793.29785,0.05833
3795.22632,0.06065
3797.15479,0.06253
3799.08326,0.06036
3801.01173,0.05803
3802.94020,0.05871
3804.86866,0.05997
3806.79713,0.06253
3808.72560,0.06506
3810.65407,0.06434
3812.58254,0.06255
3814.51101,0.06102
3816.43948,0.05650
3818.36795,0.05223
3820.29641,0.05762
3822.22488,0.06781
3824.15335,0.06828
3826.08182,0.06395
3828.01029,0.05996
3829.93876,0.05633
3831.86723,0.05507
3833.79569,0.05804
3835.72416,0.06102
3837.65263,0.06136
3839.58110,0.05984
3841.50957,0.05609
3843.43804,0.05243
3845.36651,0.05255
3847.29498,0.05665
3849.22344,0.06252
3851.15191,0.06742
3853.08038,0.07051
3855.00885,0.07007
3856.93732,0.06514
3858.86579,0.06174
3860.79426,0.06256
3862.72272,0.06284
3864.65119,0.05818
3866.57966,0.05457
3868.50813,0.05641
3870.43660,0.06074
3872.36507,0.06140
3874.29354,0.05921
3876.22200,0.05869
3878.15047,0.05993
3880.07894,0.05933
3882.00741,0.05738
3883.93588,0.05512
3885.86435,0.04949
3887.79282,0.04683
3889.72129,0.04995
3891.64975,0.05275
3893.57822,0.05323
3895.50669,0.05416
3897.43516,0.05525
3899.36363,0.05470
3901.29210,0.05215
3903.22057,0.05081
3905.14903,0.05285
3907.07750,0.05448
3909.00597,0.05382
3910.93444,0.05324
3912.86291,0.05509
3914.79138,0.05803
3916.71985,0.05730
3918.64832,0.05297
3920.57678,0.05111
3922.50525,0.05204
3924.43372,0.05387
3926.36219,0.05638
3928.29066,0.05823
3930.21913,0.05859
3932.14760,0.05725
3934.07606,0.05698
3936.00453,0.05850
3937.93300,0.05664
3939.86147,0.05090
3941.78994,0.04707
3943.71841,0.04903
3945.64688,0.05199
3947.57535,0.05077
3949.50381,0.05010
3951.43228,0.05303
3953.36075,0.05380
3955.28922,0.05063
3957.21769,0.04745
3959.14616,0.04679
3961.07463,0.04775
3963.00309,0.04926
3964.93156,0.05188
3966.86003,0.05386
3968.78850,0.05259
3970.71697,0.05070
3972.64544,0.05058
3974.57391,0.04940
3976.50238,0.04662
3978.43084,0.04680
3980.35931,0.04975
3982.28778,0.05075
3984.21625,0.04970
3986.14472,0.04772
3988.07319,0.04433
3990.00166,0.04029
3991.93012,0.03874
3993.85859,0.04130
3995.78706,0.04327
3997.71553,0.04349
3999.64400,0.04574
4001.57247,0.04812
4003.50094,0.04770
4005.42941,0.04640
4007.35787,0.04719
4009.28634,0.05011
4011.21481,0.05094
4013.14328,0.04683
4015.07175,0.04252
4017.00022,0.04482
4018.92869,0.05148
4020.85715,0.05503
4022.78562,0.05475
4024.71409,0.05307
4026.64256,0.05065
4028.57103,0.04709
4030.49950,0.04223
4032.42797,0.04012
4034.35644,0.04213
4036.28490,0.04502
4038.21337,0.04652
4040.14184,0.04549
4042.07031,0.04558
4043.99878,0.04751
4045.92725,0.04653
4047.85572,0.04431
4049.78418,0.04436
4051.71265,0.04561
4053.64112,0.04675
4055.56959,0.04788
4057.49806,0.04799
4059.42653,0.04599
4061.35500,0.04373
4063.28346,0.04353
4065.21193,0.04559
4067.14040,0.04695
4069.06887,0.04385
4070.99734,0.03967
4072.92581,0.04138
4074.85428,0.04614
4076.78275,0.04533
4078.71121,0.03913
4080.63968,0.03516
4082.56815,0.03615
4084.49662,0.03731
4086.42509,0.03506
4088.35356,0.03184
4090.28203,0.03331
4092.21049,0.03844
4094.13896,0.04121
4096.06743,0.04092
4097.99590,0.03921
4099.92437,0.03783
4101.85284,0.03741
4103.78131,0.03679
4105.70978,0.03531
4107.63824,0.03593
4109.56671,0.04158
4111.49518,0.04560
4113.42365,0.04444
4115.35212,0.04487
4117.28059,0.04765
4119.20906,0.04831
4121.13752,0.04806
4123.06599,0.04861
4124.99446,0.04922
4126.92293,0.04929
4128.85140,0.04597
4130.77987,0.03937
4132.70834,0.03324
4134.63681,0.03141
4136.56527,0.03547
4138.49374,0.04016
4140.42221,0.04098
4142.35068,0.03956
4144.27915,0.03870
4146.20762,0.03875
4148.13609,0.03783
4150.06455,0.03623
4151.99302,0.03594
4153.92149,0.03713
4155.84996,0.03919
4157.77843,0.04042
4159.70690,0.03926
4161.63537,0.03745
4163.56384,0.03725
4165.49230,0.03813
4167.42077,0.03793
4169.34924,0.03757
4171.27771,0.03882
4173.20618,0.03958
4175.13465,0.03901
4177.06312,0.03938
4178.99158,0.04216
4180.92005,0.04539
4182.84852,0.04445
4184.77699,0.03800
4186.70546,0.03231
4188.63393,0.03379
4190.56240,0.03754
4192.49087,0.03609
4194.41933,0.03304
4196.34780,0.03381
4198.27627,0.03593
4200.20474,0.03676
4202.13321,0.03758
4204.06168,0.03869
4205.99015,0.03837
4207.91861,0.03504
4209.84708,0.03109
4211.77555,0.02994
4213.70402,0.03019
4215.63249,0.03086
4217.56096,0.03365
4219.48943,0.03678
4221.41789,0.03708
4223.34636,0.03549
4225.27483,0.03406
4227.20330,0.03317
4229.13177,0.03214
4231.06024,0.03139
4232.98871,0.03426
4234.91718,0.03692
4236.84564,0.03214
4238.77411,0.02502
4240.70258,0.02322
4242.63105,0.02600
4244.55952,0.02961
4246.48799,0.03264
4248.41646,0.03408
4250.34492,0.03364
4252.27339,0.03303
4254.20186,0.03023
4256.13033,0.02574
4258.05880,0.02531
4259.98727,0.02789
4261.91574,0.02785
4263.84421,0.02498
4265.77267,0.02165
4267.70114,0.01953
4269.62961,0.02069
4271.55808,0.02278
4273.48655,0.02404
4275.41502,0.02657
4277.34349,0.02725
4279.27195,0.02521
4281.20042,0.02469
4283.12889,0.02518
4285.05736,0.02644
4286.98583,0.02898
4288.91430,0.02733
4290.84277,0.02070
4292.77124,0.01841
4294.69970,0.02318
4296.62817,0.02655
4298.55664,0.02555
4300.48511,0.02361
4302.41358,0.02195
4304.34205,0.02238
4306.27052,0.02247
4308.19898,0.01897
4310.12745,0.01697
4312.05592,0.01801
4313.98439,0.01920
4315.91286,0.02217
4317.84133,0.02658
4319.76980,0.02909
4321.69827,0.02814
4323.62673,0.02280
4325.55520,0.01800
4327.48367,0.01919
4329.41214,0.02025
4331.34061,0.01671
4333.26908,0.01294
4335.19755,0.01231
4337.12601,0.01438
4339.05448,0.01453
4340.98295,0.01039
4342.91142,0.00906
4344.83989,0.01510
4346.76836,0.02113
4348.69683,0.02239
4350.62530,0.02301
4352.55376,0.02318
4354.48223,0.02021
4356.41070,0.01758
4358.33917,0.01794
4360.26764,0.01787
4362.19611,0.01551
4364.12458,0.01363
4366.05304,0.01394
4367.98151,0.01673
4369.90998,0.02022
4371.83845,0.02128
4373.76692,0.02364
4375.69539,0.02696
4377.62386,0.02421
4379.55232,0.01687
4381.48079,0.01026
4383.40926,0.00861
4385.33773,0.01155
4387.26620,0.01302
4389.19467,0.01356
4391.12314,0.01820
4393.05161,0.02354
4394.98007,0.02370
4396.90854,0.02125
4398.83701,0.01854
4400.76548,0.01192
4402.69395,0.00520
4404.62242,0.00539
4406.55089,0.00811
4408.47935,0.00951
4410.40782,0.01117
4412.33629,0.01297
4414.26476,0.01564
4416.19323,0.01945
4418.12170,0.02417
4420.05017,0.02911
4421.97864,0.02897
4423.90710,0.02067
4425.83557,0.01279
4427.76404,0.01159
4429.69251,0.01175
4431.62098,0.01122
4433.54945,0.01170
4435.47792,0.01352
4437.40638,0.01635
4439.33485,0.01682
4441.26332,0.01446
4443.19179,0.01518
4445.12026,0.02002
4447.04873,0.02276
4448.97720,0.02192
4450.90567,0.01982
4452.83413,0.01629
4454.76260,0.01311
4456.69107,0.01408
4458.61954,0.01665
4460.54801,0.01516
4462.47648,0.00952
4464.40495,0.00549
4466.33341,0.00809
4468.26188,0.01008
4470.19035,0.00595
4472.11882,0.00533
4474.04729,0.01026
4475.97576,0.01316
4477.90423,0.01545
4479.83270,0.01713
4481.76116,0.01504
4483.68963,0.01354
4485.61810,0.01202
4487.54657,0.00782
4489.47504,0.00559
4491.40351,0.00679
4493.33198,0.00714
4495.26044,0.00477
4497.18891,0.00387
4499.11738,0.00556
4501.04585,0.00400
4502.97432,-0.00112
4504.90279,-0.00098
4506.83126,0.00622
4508.75973,0.01037
4510.68819,0.00769
4512.61666,0.00582
4514.54513,0.00828
4516.47360,0.00823
4518.40207,0.00374
4520.33054,0.00256
4522.25901,0.00609
4524.18747,0.00677
4526.11594,0.00419
4528.04441,0.00451
4529.97288,0.00455
4531.90135,0.00165
4533.82982,0.00123
4535.75829,0.00351
4537.68676,0.00550
4539.61522,0.00641
4541.54369,0.00642
4543.47216,0.00712
4545.40063,0.00913
4547.32910,0.01168
4549.25757,0.01202
4551.18604,0.00865
4553.11450,0.00661
4555.04297,0.00736
4556.97144,0.00500
4558.89991,0.00101
4560.82838,0.00022
4562.75685,-0.00057
4564.68532,-0.00418
4566.61378,-0.00691
4568.54225,-0.00542
4570.47072,-0.00058
4572.39919,0.00252
4574.32766,-0.00057
4576.25613,-0.00557
4578.18460,-0.00412
4580.11307,0.00425
4582.04153,0.01159
4583.97000,0.01253
4585.89847,0.00733
4587.82694,0.00068
4589.75541,-0.00117
4591.68388,0.00170
4593.61235,0.00743
4595.54081,0.01337
4597.46928,0.01378
4599.39775,0.00908
4601.32622,0.00617
4603.25469,0.00894
4605.18316,0.01343
4607.11163,0.01214
4609.04010,0.00340
4610.96856,-0.00847
4612.89703,-0.01431
4614.82550,-0.00636
4616.75397,0.00822
4618.68244,0.01519
4620.61091,0.01338
4622.53938,0.01173
4624.46784,0.01204
4626.39631,0.00877
4628.32478,0.00416
4630.25325,0.00451
4632.18172,0.00689
4634.11019,0.00711
4636.03866,0.00847
4637.96713,0.00894
4639.89559,0.00411
4641.82406,0.00226
4643.75253,0.00729
4645.68100,0.01091
4647.60947,0.01604
4649.53794,0.02240
4651.46641,0.01562
4653.39487,-0.00173
4655.32334,-0.01372
4657.25181,-0.01454
4659.18028,-0.00843
4661.10875,-0.00482
4663.03722,-0.00733
4664.96569,-0.00978
4666.89416,-0.00741
4668.82262,-0.00300
4670.75109,0.00154
4672.67956,0.00626
4674.60803,0.00680
4676.53650,0.00419
4678.46497,0.00829
4680.39344,0.01756
4682.32190,0.02021
4684.25037,0.01287
4686.17884,0.00677
4688.10731,0.01117
4690.03578,0.01480
4691.96425,0.00664
4693.89272,-0.00532
4695.82119,-0.00884
4697.74965,-0.00178
4699.67812,0.00957
4701.60659,0.01528
4703.53506,0.01104
4705.46353,0.00526
4707.39200,0.00417
4709.32047,0.00523
4711.24893,0.00644
4713.17740,0.00621
4715.10587,0.00420
4717.03434,0.00267
4718.96281,0.00364
4720.89128,0.00411
4722.81975,0.00026
4724.74821,-0.00222
4726.67668,-0.00111
4728.60515,-0.00297
4730.53362,-0.00292
4732.46209,0.00526
4734.39056,0.01083
4736.31903,0.00861
4738.24750,0.00891
4740.17596,0.01305
4742.10443,0.01644
4744.03290,0.02223
4745.96137,0.02795
4747.88984,0.02747
4749.81831,0.02068
4751.74678,0.01268
4753.67524,0.01036
4755.60371,0.01143
4757.53218,0.01059
4759.46065,0.00956
4761.38912,0.01082
4763.31759,0.01295
4765.24606,0.01104
4767.17453,0.00437
4769.10299,0.00090
4771.03146,0.00613
4772.95993,0.01512
4774.88840,0.02143
4776.81687,0.02222
4778.74534,0.01835
4780.67381,0.01372
4782.60227,0.00787
4784.53074,0.00227
4786.45921,0.00482
4788.38768,0.01334
4790.31615,0.01352
4792.24462,0.00067
4794.17309,-0.01132
4796.10156,-0.01408
4798.03002,-0.01198
4799.95849,-0.00801
4801.88696,-0.00415
4803.81543,-0.00335
4805.74390,-0.00474
4807.67237,-0.00137
4809.60084,0.00744
4811.52930,0.01218
4813.45777,0.01230
4815.38624,0.01737
4817.31471,0.02307
4819.24318,0.01838
4821.17165,0.00992
4823.10012,0.00480
4825.02859,0.00281
4826.95705,0.00414
4828.88552,0.00400
4830.81399,0.00602
4832.74246,0.01512
4834.67093,0.01816
4836.59940,0.01093
4838.52787,0.00695
4840.45633,0.00554
4842.38480,0.00333
4844.31327,0.00590
4846.24174,0.00889
4848.17021,0.01068
4850.09868,0.01153
4852.02715,0.00952
4853.95562,0.01042
4855.88408,0.01461
4857.81255,0.01667
4859.74102,0.01746
4861.66949,0.01842
4863.59796,0.01439
4865.52643,0.00528
4867.45490,-0.00038
4869.38336,0.00007
4871.31183,0.00264
4873.24030,0.00491
4875.16877,0.00693
4877.09724,0.00824
4879.02571,0.01014
4880.95418,0.01360
4882.88265,0.01395
4884.81111,0.00740
4886.73958,-0.00243
4888.66805,-0.00562
4890.59652,-0.00242
4892.52499,-0.00120
4894.45346,-0.00172
4896.38193,-0.00514
4898.31039,-0.00861
4900.23886,-0.00072
4902.16733,0.01607
4904.09580,0.02488
4906.02427,0.02044
4907.95274,0.01532
4909.88121,0.01542
4911.80967,0.01895
4913.73814,0.01863
4915.66661,0.01005
4917.59508,0.00212
4919.52355,0.00068
4921.45202,-0.00019
4923.38049,-0.00568
4925.30896,-0.00616
4927.23742,0.00213
4929.16589,0.00544
4931.09436,0.00358
4933.02283,0.00802
4934.95130,0.01187
4936.87977,0.00529
4938.80824,-0.00022
4940.73670,0.00391
4942.66517,0.00385
4944.59364,-0.00482
4946.52211,-0.00756
4948.45058,-0.00076
4950.37905,0.00870
4952.30752,0.01257
4954.23599,0.00896
4956.16445,0.00604
4958.09292,0.00940
4960.02139,0.01543
4961.94986,0.01664
4963.87833,0.01525
4965.80680,0.01465
4967.73527,0.01298
4969.66373,0.00926
4971.59220,0.00817
4973.52067,0.01237
4975.44914,0.01460
4977.37761,0.01295
4979.30608,0.01024
4981.23455,0.01153
4983.16302,0.01768
4985.09148,0.01724
4987.01995,0.00882
4988.94842,0.00225
4990.87689,0.00105
4992.80536,0.00041
4994.73383,-0.00338
4996.66230,-0.00766
4998.59076,-0.00747
5000.51923,-0.00260
5002.44770,0.00604
5004.37617,0.02028
5006.30464,0.02736
5008.23311,0.01467
5010.16158,0.00063
5012.09005,0.00255
5014.01851,0.00532
5015.94698,0.00098
5017.87545,0.00250
5019.80392,0.00963
5021.73239,0.01083
5023.66086,0.00290
5025.58933,-0.00794
5027.51779,-0.00962
5029.44626,0.00229
5031.37473,0.01043
5033.30320,0.00156
5035.23167,-0.00884
5037.16014,-0.00327
5039.08861,0.00615
5041.01708,0.00441
5042.94554,-0.00228
5044.87401,-0.00412
5046.80248,0.00326
5048.73095,0.00946
5050.65942,0.00471
5052.58789,0.00436
5054.51636,0.01702
5056.44482,0.02669
5058.37329,0.01869
5060.30176,0.00092
5062.23023,-0.00825
5064.15870,-0.00586
5066.08717,0.00254
5068.01564,0.01277
5069.94410,0.01673
5071.87257,0.01035
5073.80104,0.00058
5075.72951,-0.00262
5077.65798,-0.00302
5079.58645,-0.00308
5081.51492,0.00255
5083.44339,0.00218
5085.37185,-0.00484
5087.30032,-0.00319
5089.22879,0.00513
5091.15726,0.01415
5093.08573,0.01675
5095.01420,0.00941
5096.94267,0.00101
5098.87113,-0.00650
5100.79960,-0.01091
5102.72807,-0.00422
5104.65654,0.00367
5106.58501,0.00086
5108.51348,-0.00508
5110.44195,-0.00306
5112.37042,0.00993
5114.29888,0.01930
5116.22735,0.01812
5118.15582,0.02122
5120.08429,0.02371
5122.01276,0.01322
5123.94123,0.00368
5125.86970,0.00956
5127.79816,0.01975
5129.72663,0.02098
5131.65510,0.01914
5133.58357,0.02197
5135.51204,0.02173
5137.44051,0.00581
5139.36898,-0.01726
5141.29745,-0.02060
5143.22591,0.00133
5145.15438,0.02031
5147.08285,0.02586
5149.01132,0.02732
5150.93979,0.01940
5152.86826,0.00995
5154.79673,0.01624
5156.72519,0.02947
5158.65366,0.03172
5160.58213,0.02608
5162.51060,0.01888
5164.43907,0.01198
5166.36754,0.00739
5168.29601,0.00630
5170.22448,0.01326
5172.15294,0.02008
5174.08141,0.01861
5176.00988,0.01595
5177.93835,0.01523
5179.86682,0.01419
5181.79529,0.01380
5183.72376,0.01477
5185.65222,0.01627
5187.58069,0.02027
5189.50916,0.01991
5191.43763,0.01606
5193.36610,0.01968
5195.29457,0.02675
5197.22304,0.03457
5199.15151,0.03815
5201.07997,0.02922
5203.00844,0.01940
5204.93691,0.01759
5206.86538,0.01021
5208.79385,-0.00730
5210.72232,-0.01388
5212.65079,-0.00668
5214.57925,-0.00098
5216.50772,0.00217
5218.43619,0.00980
5220.36466,0.01790
5222.29313,0.01853
5224.22160,0.01651
5226.15007,0.02549
5228.07854,0.04168
5230.00700,0.04845
5231.93547,0.04259
5233.86394,0.03475
5235.79241,0.03253
5237.72088,0.03197
5239.64935,0.03168
5241.57782,0.03486
5243.50628,0.04318
5245.43475,0.05358
5247.36322,0.05125
5249.29169,0.02784
5251.22016,0.00858
5253.14863,0.01089
5255.07710,0.01536
5257.00556,0.00804
5258.93403,0.00513
5260.86250,0.02007
5262.79097,0.04101
5264.71944,0.04336
5266.64791,0.02179
5268.57638,0.00227
5270.50485,0.00649
5272.43331,0.02193
5274.36178,0.02593
5276.29025,0.01809
5278.21872,0.01284
5280.14719,0.01383
5282.07566,0.01083
5284.00413,0.00988
5285.93259,0.02431
5287.86106,0.03525
5289.78953,0.02499
5291.71800,0.01131
5293.64647,0.01394
5295.57494,0.03295
5297.50341,0.05105
5299.43188,0.04884
5301.36034,0.03334
5303.28881,0.02073
5305.21728,0.01288
5307.14575,0.01016
5309.07422,0.01365
5311.00269,0.01650
5312.93116,0.02229
5314.85962,0.03085
5316.78809,0.02681
5318.71656,0.01441
5320.64503,0.01015
5322.57350,0.01562
5324.50197,0.02611
5326.43044,0.03578
5328.35891,0.03470
5330.28737,0.02343
5332.21584,0.01470
5334.14431,0.01566
5336.07278,0.02243
5338.00125,0.02652
5339.92972,0.02252
5341.85819,0.01985
5343.78665,0.03068
5345.71512,0.04219
5347.64359,0.03382
5349.57206,0.01809
5351.50053,0.01738
5353.42900,0.03105
5355.35747,0.03579
5357.28594,0.03441
5359.21440,0.04179
5361.14287,0.04713
5363.07134,0.03795
5364.99981,0.02600
5366.92828,0.01898
5368.85675,0.01131
5370.78522,0.00934
5372.71368,0.01773
5374.64215,0.03112
5376.57062,0.03887
5378.49909,0.03101
5380.42756,0.01463
5382.35603,0.00579
5384.28450,0.01622
5386.21297,0.02821
5388.14143,0.02701
5390.06990,0.03016
5391.99837,0.03958
5393.92684,0.04704
5395.85531,0.04924
5397.78378,0.04702
5399.71225,0.04096
5401.64071,0.03067
5403.56918,0.02794
5405.49765,0.03566
5407.42612,0.04026
5409.35459,0.03672
5411.28306,0.02174
5413.21153,-0.00257
5415.13999,-0.01009
5417.06846,0.01479
5418.99693,0.05416
5420.92540,0.07319
5422.85387,0.05806
5424.78234,0.03788
5426.71081,0.03607
5428.63928,0.03812
5430.56774,0.03111
5432.49621,0.02517
5434.42468,0.02889
5436.35315,0.03725
5438.28162,0.03393
5440.21009,0.02515
5442.13856,0.03170
5444.06702,0.04457
5445.99549,0.04675
5447.92396,0.04173
5449.85243,0.03084
5451.78090,0.01064
5453.70937,-0.01081
5455.63784,-0.01388
5457.56631,0.01020
5459.49477,0.02970
5461.42324,0.02224
5463.35171,0.01688
5465.28018,0.03532
5467.20865,0.05781
5469.13712,0.06811
5471.06559,0.06696
5472.99405,0.05707
5474.92252,0.04421
5476.85099,0.03225
5478.77946,0.01724
5480.70793,0.01317
5482.63640,0.03269
5484.56487,0.05218
5486.49334,0.05506
5488.42180,0.04922
5490.35027,0.03785
5492.27874,0.03012
5494.20721,0.04606
5496.13568,0.07262
5498.06415,0.07127
5499.99262,0.04163
5501.92108,0.02418
5503.84955,0.03365
5505.77802,0.04391
5507.70649,0.03291
5509.63496,0.02267
5511.56343,0.02345
5513.49190,0.01327
5515.42037,0.00028
5517.34883,0.00727
5519.27730,0.02787
5521.20577,0.04650
5523.13424,0.06369
5525.06271,0.07780
5526.99118,0.08119
5528.91965,0.07016
5530.84811,0.04834
5532.77658,0.03733
5534.70505,0.04371
5536.63352,0.05092
5538.56199,0.05599
5540.49046,0.06176
5542.41893,0.05544
5544.34740,0.04034
5546.27586,0.04245
5548.20433,0.05732
5550.13280,0.06343
5552.06127,0.06286
5553.98974,0.05777
5555.91821,0.03771
5557.84668,0.00525
5559.77514,-0.01137
5561.70361,0.00130
5563.63208,0.01787
5565.56055,0.02002
5567.48902,0.02764
5569.41749,0.04272
5571.34596,0.04345
5573.27443,0.03682
5575.20289,0.03177
5577.13136,0.02165
5579.05983,0.01496
5580.98830,0.02096
5582.91677,0.02603
5584.84524,0.02197
5586.77371,0.02941
5588.70217,0.05079
5590.63064,0.05949
5592.55911,0.05044
5594.48758,0.03778
5596.41605,0.02563
5598.34452,0.01209
5600.27299,0.00385
5602.20145,0.00155
5604.12992,0.00220
5606.05839,0.01777
5607.98686,0.04928
5609.91533,0.07765
5611.84380,0.08464
5613.77227,0.07380
5615.70074,0.06554
5617.62920,0.06099
5619.55767,0.05208
5621.48614,0.04057
5623.41461,0.02716
5625.34308,0.02030
5627.27155,0.03245
5629.20002,0.04410
5631.12848,0.03610
5633.05695,0.02840
5634.98542,0.03523
5636.91389,0.04800
5638.84236,0.05922
5640.77083,0.06106
5642.69930,0.05057
5644.62777,0.03488
5646.55623,0.01976
5648.48470,0.01943
5650.41317,0.04136
5652.34164,0.05502
5654.27011,0.04258
5656.19858,0.03371
5658.12705,0.04273
5660.05551,0.04059
5661.98398,0.01580
5663.91245,0.00139
5665.84092,0.01519
5667.76939,0.04390
5669.69786,0.06917
5671.62633,0.06805
5673.55480,0.04104
5675.48326,0.02016
5677.41173,0.02106
5679.34020,0.03881
5681.26867,0.06821
5683.19714,0.08819
5685.12561,0.08051
5687.05408,0.05250
5688.98254,0.02910
5690.91101,0.02796
5692.83948,0.03826
5694.76795,0.04571
5696.69642,0.04888
5698.62489,0.04638
5700.55336,0.03248
5702.48183,0.00977
5704.41029,-0.00414
5706.33876,-0.00040
5708.26723,0.01100
5710.19570,0.02080
5712.12417,0.02556
5714.05264,0.03832
5715.98111,0.06569
5717.90957,0.06787
5719.83804,0.03710
5721.76651,0.02490
5723.69498,0.04662
5725.62345,0.07535
5727.55192,0.08635
5729.48039,0.07746
5731.40886,0.06295
5733.33732,0.04110
5735.26579,0.01246
5737.19426,-0.00382
5739.12273,-0.00285
5741.05120,0.00620
5742.97967,0.02303
5744.90814,0.04493
5746.83660,0.05481
5748.76507,0.04814
5750.69354,0.04782
5752.62201,0.05757
5754.55048,0.05501
5756.47895,0.04569
5758.40742,0.04877
5760.33588,0.05658
5762.26435,0.05542
5764.19282,0.05327
5766.12129,0.06024
5768.04976,0.06004
5769.97823,0.03566
5771.90670,0.01347
5773.83517,0.02143
5775.76363,0.03606
5777.69210,0.04332
5779.62057,0.05778
5781.54904,0.06767
5783.47751,0.06387
5785.40598,0.05975
5787.33445,0.05939
5789.26291,0.06018
5791.19138,0.05320
5793.11985,0.04793
5795.04832,0.05869
5796.97679,0.06230
5798.90526,0.05270
5800.83373,0.05572
5802.76220,0.06644
5804.69066,0.05731
5806.61913,0.02882
5808.54760,0.01358
5810.47607,0.02286
5812.40454,0.02335
5814.33301,0.01364
5816.26148,0.02945
5818.18994,0.05359
5820.11841,0.05249
5822.04688,0.04315
5823.97535,0.05653
5825.90382,0.07936
5827.83229,0.07617
5829.76076,0.05253
5831.68923,0.03662
5833.61769,0.02186
5835.54616,0.00114
5837.47463,-0.00476
5839.40310,0.00636
5841.33157,0.01875
5843.26004,0.02745
5845.18851,0.03119
5847.11697,0.03028
5849.04544,0.02419
5850.97391,0.01920
5852.90238,0.02875
5854.83085,0.04670
5856.75932,0.05316
5858.68779,0.04724
5860.61626,0.05613
5862.54472,0.08252
5864.47319,0.09501
5866.40166,0.09087
5868.33013,0.06960
5870.25860,0.03642
5872.18707,0.02759
5874.11554,0.04178
5876.04400,0.05629
5877.97247,0.06758
5879.90094,0.06926
5881.82941,0.06388
5883.75788,0.05982
5885.68635,0.04544
5887.61482,0.03002
5889.54329,0.03681
5891.47175,0.04706
5893.40022,0.05516
5895.32869,0.06963
5897.25716,0.06681
5899.18563,0.03715
5901.11410,0.00382
5903.04257,-0.01466
5904.97103,-0.00989
5906.89950,0.03035
5908.82797,0.07989
5910.75644,0.08490
5912.68491,0.05639
5914.61338,0.04385
5916.54185,0.06182
5918.47032,0.08543
5920.39878,0.09655
5922.32725,0.09961
5924.25572,0.10167
5926.18419,0.10165
5928.11266,0.08713
5930.04113,0.06319
5931.96960,0.05520
5933.89806,0.06791
5935.82653,0.08794
5937.75500,0.10287
5939.68347,0.10030
5941.61194,0.07861
5943.54041,0.04703
5945.46888,0.01634
5947.39734,0.00457
5949.32581,0.03053
5951.25428,0.05831
5953.18275,0.04105
5955.11122,0.02209
5957.03969,0.03662
5958.96816,0.06019
5960.89663,0.06954
5962.82509,0.05960
5964.75356,0.03984
5966.68203,0.02235
5968.61050,0.02230
5970.53897,0.03129
5972.46744,0.03138
5974.39591,0.03695
5976.32437,0.05054
5978.25284,0.04614
5980.18131,0.02563
5982.10978,0.02555
5984.03825,0.05604
5985.96672,0.08591
5987.89519,0.08894
5989.82366,0.08247
5991.75212,0.07777
5993.68059,0.05249
5995.60906,0.02387
5997.53753,0.01750
5999.46600,0.02571
6001.39447,0.04531
6003.32294,0.05736
6005.25140,0.04116
6007.17987,0.01050
6009.10834,0.00772
6011.03681,0.03751
6012.96528,0.04558
6014.89375,0.03143
6016.82222,0.02580
6018.75069,0.00813
6020.67915,-0.00706
6022.60762,0.01451
6024.53609,0.04803
6026.46456,0.06579
6028.39303,0.07392
6030.32150,0.08622
6032.24997,0.06927
6034.17843,0.00652
6036.10690,-0.04237
6038.03537,-0.03605
6039.96384,0.00012
6041.89231,0.02619
6043.82078,0.04314
6045.74925,0.06450
6047.67772,0.07511
6049.60618,0.06701
6051.53465,0.04908
6053.46312,0.03169
6055.39159,0.02216
6057.32006,0.02440
6059.24853,0.02648
6061.17700,0.01444
6063.10546,0.01406
6065.03393,0.02942
6066.96240,0.02940
6068.89087,0.01497
6070.81934,-0.00786
6072.74781,-0.02370
6074.67628,-0.00860
6076.60475,0.01670
6078.53321,0.02864
6080.46168,0.03000
6082.39015,0.02392
6084.31862,0.03315
6086.24709,0.06593
6088.17556,0.08308
6090.10403,0.06237
6092.03249,0.01658
6093.96096,-0.02400
6095.88943,-0.02804
6097.81790,-0.00295
6099.74637,0.02068
6101.67484,0.03232
6103.60331,0.02449
6105.53177,0.00352
6107.46024,0.01216
6109.38871,0.06731
6111.31718,0.12117
6113.24565,0.11393
6115.17412,0.06380
6117.10259,0.03356
6119.03106,0.03522
6120.95952,0.04985
6122.88799,0.05594
6124.81646,0.04190
6126.74493,0.02187
6128.67340,0.02848
6130.60187,0.07115
6132.53034,0.09408
6134.45880,0.07503
6136.38727,0.05111
6138.31574,0.03952
6140.24421,0.03948
6142.17268,0.04228
6144.10115,0.04640
6146.02962,0.06736
6147.95809,0.08924
6149.88655,0.09792
6151.81502,0.11007
6153.74349,0.12079
6155.67196,0.11611
6157.60043,0.10398
6159.52890,0.08898
6161.45737,0.07185
6163.38583,0.06546
6165.31430,0.06500
6167.24277,0.04461
6169.17124,0.03268
6171.09971,0.07002
6173.02818,0.11912
6174.95665,0.11860
6176.88512,0.06965
6178.81358,0.00930
6180.74205,-0.03657
6182.67052,-0.04140
6184.59899,-0.01317
6186.52746,0.00873
6188.45593,0.01596
6190.38440,0.01227
6192.31286,0.00663
6194.24133,0.01525
6196.16980,0.02330
6198.09827,0.01506
6200.02674,0.01034
6201.95521,0.03464
6203.88368,0.07361
6205.81215,0.08028
6207.74061,0.05161
6209.66908,0.02162
6211.59755,0.02749
6213.52602,0.08289
6215.45449,0.14715
6217.38296,0.15111
6219.31143,0.08358
6221.23989,0.02002
6223.16836,0.03442
6225.09683,0.09506
6227.02530,0.10887
6228.95377,0.07773
6230.88224,0.06997
6232.81071,0.08852
6234.73918,0.06114
6236.66764,0.00554
6238.59611,0.01146
6240.52458,0.05992
6242.45305,0.06398
6244.38152,0.02721
6246.30999,0.01183
6248.23846,0.02396
6250.16692,0.02682
6252.09539,0.01861
6254.02386,0.02038
6255.95233,0.03972
6257.88080,0.04610
6259.80927,0.00940
6261.73774,-0.01633
6263.66621,0.01672
6265.59467,0.06887
6267.52314,0.08572
6269.45161,0.07390
6271.38008,0.07098
6273.30855,0.07679
6275.23702,0.07191
6277.16549,0.07089
6279.09395,0.06919
6281.02242,0.05403
6282.95089,0.05696
6284.87936,0.07614
6286.80783,0.06145
6288.73630,0.02328
6290.66477,0.01846
6292.59323,0.05169
6294.52170,0.06485
6296.45017,0.03807
6298.37864,0.03609
6300.30711,0.07822
6302.23558,0.10369
6304.16405,0.10662
6306.09252,0.10709
6308.02098,0.08501
6309.94945,0.05365
6311.87792,0.03789
6313.80639,0.03216
6315.73486,0.03605
6317.66333,0.03988
6319.59180,0.02381
6321.52026,-0.01033
6323.44873,-0.02597
6325.37720,0.01836
6327.30567,0.09388
6329.23414,0.13374
6331.16261,0.11267
6333.09108,0.05626
6335.01955,0.00871
6336.94801,-0.00284
6338.87648,0.00238
6340.80495,-0.00638
6342.73342,-0.01970
6344.66189,-0.01705
6346.59036,0.00027
6348.51883,0.00221
6350.44729,-0.00189
6352.37576,0.03768
6354.30423,0.08880
6356.23270,0.11027
6358.16117,0.10021
6360.08964,0.08381
6362.01811,0.11305
6363.94658,0.15917
6365.87504,0.13964
6367.80351,0.07270
6369.73198,0.02009
6371.66045,-0.02520
6373.58892,-0.06457
6375.51739,-0.05854
6377.44586,-0.01146
6379.37432,0.02722
6381.30279,0.05641
6383.23126,0.07962
6385.15973,0.06284
6387.08820,0.03816
6389.01667,0.03909
6390.94514,0.06546
6392.87361,0.09048
6394.80207,0.04857
6396.73054,-0.01839
6398.65901,-0.02611
6400.58748,-0.00096
6402.51595,-0.00816
6404.44442,-0.02265
6406.37289,0.01123
6408.30135,0.06189
6410.22982,0.05113
6412.15829,0.00217
6414.08676,-0.00767
6416.01523,-0.00373
6417.94370,-0.01008
6419.87217,0.01368
6421.80064,0.02970
6423.72910,-0.00371
6425.65757,-0.02961
6427.58604,-0.01874
6429.51451,-0.02311
6431.44298,-0.04951
6433.37145,-0.05414
6435.29992,-0.03766
6437.22838,-0.04149
6439.15685,-0.06579
6441.08532,-0.06768
6443.01379,-0.03644
6444.94226,0.01473
6446.87073,0.04209
6448.79920,0.03067
6450.72766,0.02770
6452.65613,0.03946
6454.58460,0.03918
6456.51307,0.03858
6458.44154,0.04586
6460.37001,0.05710
6462.29848,0.06802
6464.22695,0.04848
6466.15541,-0.00207
6468.08388,-0.02687
6470.01235,0.00360
6471.94082,0.05674
6473.86929,0.07871
6475.79776,0.06028
6477.72623,0.02801
6479.65469,0.01196
6481.58316,0.03717
6483.51163,0.07457
6485.44010,0.10747
6487.36857,0.15002
6489.29704,0.16065
6491.22551,0.11893
6493.15398,0.08379
6495.08244,0.07218
6497.01091,0.06211
6498.93938,0.05856
6500.86785,0.05251
6502.79632,0.05325
6504.72479,0.08605
6506.65326,0.13262
6508.58172,0.14529
6510.51019,0.09036
6512.43866,0.02442
6514.36713,0.02572
6516.29560,0.05587
6518.22407,0.06675
6520.15254,0.07136
6522.08101,0.08312
6524.00947,0.11222
6525.93794,0.13812
6527.86641,0.13692
6529.79488,0.12932
6531.72335,0.10060
6533.65182,0.03530
6535.58029,-0.02056
6537.50875,-0.00960
6539.43722,0.05672
6541.36569,0.09040
6543.29416,0.05327
6545.22263,0.00835
6547.15110,0.01541
6549.07957,0.05421
6551.00804,0.07491
6552.93650,0.07424
6554.86497,0.07698
6556.79344,0.10242
6558.72191,0.12980
6560.65038,0.10977
6562.57885,0.08474
6564.50732,0.09549
6566.43578,0.07402
6568.36425,0.03694
6570.29272,0.05596
6572.22119,0.08734
6574.14966,0.07168
6576.07813,0.02135
6578.00660,-0.02385
6579.93507,-0.04697
6581.86353,-0.03472
6583.79200,0.01265
6585.72047,0.02577
6587.64894,0.01422
6589.57741,0.04526
6591.50588,0.08211
6593.43435,0.08794
6595.36281,0.08200
6597.29128,0.05212
6599.21975,0.00255
6601.14822,-0.02037
6603.07669,-0.01639
6605.00516,-0.01976
6606.93363,-0.01966
6608.86210,-0.00979
6610.79056,0.00047
6612.71903,0.02319
6614.64750,0.03594
6616.57597,0.01181
6618.50444,-0.00826
6620.43291,0.02766
6622.36138,0.09889
6624.28984,0.12003
6626.21831,0.08842
6628.14678,0.08751
6630.07525,0.09135
6632.00372,0.05080
6633.93219,0.04237
6635.86066,0.08018
6637.78912,0.07671
6639.71759,0.00756
6641.64606,-0.06001
6643.57453,-0.05332
6645.50300,-0.00905
6647.43147,-0.00448
6649.35994,-0.01108
6651.28841,0.00735
6653.21687,0.04302
6655.14534,0.08428
6657.07381,0.09856
6659.00228,0.09624
6660.93075,0.13464
6662.85922,0.17316
6664.78769,0.13477
6666.71615,0.03139
6668.64462,-0.04844
6670.57309,-0.05555
6672.50156,-0.01349
6674.43003,0.03731
6676.35850,0.04881
6678.28697,0.03942
6680.21544,0.07312
6682.14390,0.11554
6684.07237,0.10084
6686.00084,0.07136
6687.92931,0.04993
6689.85778,0.00644
6691.78625,-0.01026
6693.71472,0.01335
6695.64318,0.03727
6697.57165,0.04608
6699.50012,0.05729
6701.42859,0.07925
6703.35706,0.08713
6705.28553,0.08654
6707.21400,0.08747
6709.14247,0.06029
6711.07093,0.00818
6712.99940,-0.02451
6714.92787,0.00472
6716.85634,0.07496
6718.78481,0.12664
6720.71328,0.13222
6722.64175,0.07897
6724.57021,0.00433
6726.49868,-0.03095
6728.42715,-0.03964
6730.35562,-0.04754
6732.28409,-0.05629
6734.21256,-0.08308
6736.14103,-0.08156
6738.06950,-0.01189
6739.99796,0.05654
6741.92643,0.07809
6743.85490,0.07791
6745.78337,0.07534
6747.71184,0.07533
6749.64031,0.06237
6751.56878,0.00566
6753.49724,-0.05102
6755.42571,-0.02157
6757.35418,0.07183
6759.28265,0.14659
6761.21112,0.15716
6763.13959,0.11590
6765.06806,0.05975
6766.99653,0.02756
6768.92499,0.01229
6770.85346,-0.01583
6772.78193,-0.02859
6774.71040,-0.00369
6776.63887,0.04694
6778.56734,0.08548
6780.49581,0.07643
6782.42427,0.01346
6784.35274,-0.06282
6786.28121,-0.06172
6788.20968,0.00034
6790.13815,-0.00104
6792.06662,-0.03556
6793.99509,-0.00833
6795.92355,0.04065
6797.85202,0.07860
6799.78049,0.08531
6801.70896,0.06972
6803.63743,0.09663
6805.56590,0.13791
6807.49437,0.12688
6809.42284,0.10436
6811.35130,0.11701
6813.27977,0.11078
6815.20824,0.07480
6817.13671,0.07891
6819.06518,0.10106
6820.99365,0.09620
6822.92212,0.05711
6824.85058,-0.01832
6826.77905,-0.08091
6828.70752,-0.06775
6830.63599,-0.00132
6832.56446,0.05508
6834.49293,0.05933
6836.42140,-0.00866
6838.34987,-0.06716
6840.27833,-0.07153
6842.20680,-0.04459
6844.13527,-0.01694
6846.06374,-0.00165
6847.99221,0.03579
6849.92068,0.08032
6851.84915,0.07284
6853.77761,0.01275
6855.70608,-0.03248
6857.63455,-0.00025
6859.56302,0.06814
6861.49149,0.12920
6863.41996,0.13276
6865.34843,0.06552
6867.27690,0.00055
6869.20536,-0.01395
6871.13383,-0.01736
6873.06230,0.00265
6874.99077,0.06710
6876.91924,0.08441
6878.84771,0.03434
6880.77618,0.01006
6882.70464,0.00748
6884.63311,-0.01510
6886.56158,0.00094
6888.49005,0.05503
6890.41852,0.05468
6892.34699,0.01564
6894.27546,0.03525
6896.20393,0.06669
6898.13239,0.04140
6900.06086,-0.01790
6901.98933,-0.09191
6903.91780,-0.13803
6905.84627,-0.09030
6907.77474,-0.00623
6909.70321,0.03441
6911.63167,0.06808
6913.56014,0.09530
6915.48861,0.07483
6917.41708,0.04074
6919.34555,0.03761
6921.27402,0.06462
6923.20249,0.05953
6925.13096,0.01458
6927.05942,-0.00489
6928.98789,-0.01281
6930.91636,-0.03996
6932.84483,-0.01641
6934.77330,0.01967
6936.70177,-0.01806
6938.63024,-0.08258
6940.55870,-0.09572
6942.48717,-0.06994
6944.41564,-0.02071
6946.34411,0.04626
6948.27258,0.08225
6950.20105,0.12761
6952.12952,0.17795
6954.05799,0.13146
6955.98645,0.04080
6957.91492,0.03255
6959.84339,0.05762
6961.77186,0.04509
6963.70033,0.03621
6965.62880,0.07315
6967.55727,0.10527
6969.48573,0.09069
6971.41420,0.05580
6973.34267,0.01327
6975.27114,0.02332
6977.19961,0.11711
6979.12808,0.17210
6981.05655,0.14360
6982.98501,0.05775
6984.91348,-0.03586
6986.84195,-0.01072
6988.77042,0.10211
6990.69889,0.10785
6992.62736,0.02409
6994.55583,0.00815
6996.48430,0.06186
6998.41276,0.07220
7000.34123,0.05191
7002.26970,0.07701
7004.19817,0.10752
7006.12664,0.06231
7008.05511,-0.01064
7009.98358,-0.02318
7011.91204,-0.01461
7013.84051,-0.00596
7015.76898,0.02621
7017.69745,0.05737
7019.62592,0.04271
7021.55439,-0.00138
7023.48286,-0.00922
7025.41133,-0.01977
7027.33979,-0.13080
7029.26826,-0.22019
7031.19673,-0.16658
7033.12520,-0.11235
7035.05367,-0.07614
7036.98214,-0.04415
7038.91061,-0.05398
7040.83907,-0.02999
7042.76754,0.04942
7044.69601,0.05896
7046.62448,-0.00979
7048.55295,-0.05045
7050.48142,0.00332
7052.40989,0.09271
7054.33836,0.09596
7056.26682,0.03551
7058.19529,-0.00225
7060.12376,-0.00199
7062.05223,0.09933
7063.98070,0.25275
7065.90917,0.25811
7067.83764,0.09774
7069.76610,-0.09235
7071.69457,-0.15925
7073.62304,-0.07856
7075.55151,0.04950
7077.47998,0.11705
7079.40845,0.07983
7081.33692,0.00293
7083.26539,-0.00129
7085.19385,0.05288
7087.12232,0.09390
7089.05079,0.07767
7090.97926,0.03034
7092.90773,-0.00075
7094.83620,0.00583
7096.76467,0.06700
7098.69313,0.13613
7100.62160,0.09567
7102.55007,-0.00412
7104.47854,-0.07336
7106.40701,-0.10256
7108.33548,-0.07517
7110.26395,0.01297
7112.19242,0.08833
7114.12088,0.07154
7116.04935,0.02938
7117.97782,0.08237
7119.90629,0.19986
7121.83476,0.26262
7123.76323,0.24497
7125.69170,0.20738
7127.62016,0.17923
7129.54863,0.11468
7131.47710,0.04768
7133.40557,0.06302
7135.33404,0.08488
7137.26251,0.03655
7139.19098,0.02187
7141.11944,0.10650
7143.04791,0.20454
7144.97638,0.20066
7146.90485,0.08446
7148.83332,-0.00116
7150.76179,-0.02088
7152.69026,-0.00543
7154.61873,0.02342
7156.54719,-0.02540
7158.47566,-0.13403
7160.40413,-0.15016
7162.33260,-0.04406
7164.26107,0.05273
7166.18954,0.08127
7168.11801,0.06467
7170.04647,0.04001
7171.97494,0.06427
7173.90341,0.12011
7175.83188,0.16271
7177.76035,0.17876
7179.68882,0.16325
7181.61729,0.11486
7183.54576,0.03016
7185.47422,-0.02510
7187.40269,0.02766
7189.33116,0.12755
7191.25963,0.14246
7193.18810,0.11083
7195.11657,0.11889
7197.04504,0.11216
7198.97350,0.06551
7200.90197,0.02302
7202.83044,0.02704
7204.75891,0.07085
7206.68738,0.08686
7208.61585,0.09822
7210.54432,0.11902
7212.47279,0.08788
7214.40125,0.03953
7216.32972,0.06598
7218.25819,0.11616
7220.18666,0.11757
7222.11513,0.09769
7224.04360,0.04700
7225.97207,-0.01736
7227.90053,-0.01172
7229.82900,0.08258
7231.75747,0.11608
7233.68594,-0.00629
7235.61441,-0.11612
7237.54288,-0.07322
7239.47135,0.01551
7241.39982,0.00201
7243.32828,0.01645
7245.25675,0.10197
7247.18522,0.13608
7249.11369,0.17153
7251.04216,0.23101
7252.97063,0.23561
7254.89910,0.18516
7256.82756,0.14768
7258.75603,0.13717
7260.68450,0.15030
7262.61297,0.11730
7264.54144,0.00054
7266.46991,-0.05369
7268.39838,0.02195
7270.32685,0.11867
7272.25531,0.08156
7274.18378,-0.02333
7276.11225,-0.01794
7278.04072,0.01067
7279.96919,-0.05468
7281.89766,-0.06909
7283.82613,0.07060
7285.75459,0.22178
7287.68306,0.27213
7289.61153,0.18576
7291.54000,0.00198
7293.46847,-0.13616
7295.39694,-0.15303
7297.32541,-0.09652
7299.25387,-0.03587
7301.18234,0.02463
7303.11081,0.08425
7305.03928,0.11839
7306.96775,0.11848
7308.89622,0.09987
7310.82469,0.05618
7312.75316,-0.03178
7314.68162,-0.06835
7316.61009,0.02917
7318.53856,0.09583
7320.46703,0.02324
7322.39550,-0.04263
7324.32397,-0.01382
7326.25244,-0.01791
7328.18090,-0.10938
7330.10937,-0.10423
7332.03784,0.03404
7333.96631,0.09650
7335.89478,0.08303
7337.82325,0.07490
7339.75172,0.07481
7341.68019,0.09686
7343.60865,0.11021
7345.53712,0.06702
7347.46559,-0.04569
7349.39406,-0.14668
7351.32253,-0.15528
7353.25100,-0.10174
7355.17947,-0.00786
7357.10793,0.11489
7359.03640,0.13459
7360.96487,0.05337
7362.89334,0.03879
7364.82181,0.04598
7366.75028,0.03196
7368.67875,0.04607
7370.60722,0.07835
7372.53568,0.14477
7374.46415,0.24616
7376.39262,0.26504
7378.32109,0.26618
7380.24956,0.33152
7382.17803,0.33348
7384.10650,0.23460
7386.03496,0.12347
7387.96343,0.02428
7389.89190,-0.03393
7391.82037,-0.05875
7393.74884,-0.04273
7395.67731,0.04372
7397.60578,0.11417
7399.53425,0.09471
7401.46271,0.05307
7403.39118,0.06975
7405.31965,0.12779
7407.24812,0.15672
7409.17659,0.14543
7411.10506,0.05618
7413.03353,-0.07199
7414.96199,-0.11947
7416.89046,-0.10463
7418.81893,-0.14396
7420.74740,-0.10978
7422.67587,0.03309
7424.60434,0.10980
7426.53281,0.10502
7428.46128,0.03932
7430.38974,-0.04367
7432.31821,-0.03255
7434.24668,0.06364
7436.17515,0.19042
7438.10362,0.25720
7440.03209,0.20919
7441.96056,0.13809
7443.88902,0.10654
7445.81749,0.09525
7447.74596,0.12223
7449.67443,0.17863
7451.60290,0.20279
7453.53137,0.18838
7455.45984,0.15947
7457.38831,0.15594
7459.31677,0.17744
7461.24524,0.11620
7463.17371,0.03223
7465.10218,0.02191
7467.03065,-0.00134
7468.95912,-0.05048
7470.88759,-0.04675
7472.81605,0.01188
7474.74452,0.09078
7476.67299,0.17008
7478.60146,0.20489
7480.52993,0.19400
7482.45840,0.13698
7484.38687,0.06886
7486.31533,0.06121
7488.24380,0.02512
7490.17227,-0.04141
7492.10074,0.03190
7494.02921,0.15445
7495.95768,0.20140
7497.88615,0.14762
