399.19301,0.23637
401.12148,0.39917
403.04995,0.16357
404.97842,-0.06648
406.90689,-0.06657
408.83536,0.06954
410.76382,0.22332
412.69229,0.30029
414.62076,0.26957
416.54923,0.18530
418.47770,0.09817
420.40617,0.03540
422.33464,0.03247
424.26311,0.04105
426.19157,-0.01851
428.12004,-0.09425
430.04851,-0.06948
431.97698,0.05700
433.90545,0.07457
435.83392,-0.03007
437.76239,-0.08200
439.69085,-0.06457
441.61932,-0.05082
443.54779,0.01456
445.47626,0.12233
447.40473,0.12920
449.33320,0.07178
451.26167,0.07842
453.19013,0.11493
455.11860,0.09197
457.04707,0.01740
458.97554,-0.03695
460.90401,-0.03627
462.83248,0.01237
464.76095,0.07811
466.68942,0.09327
468.61788,0.06584
470.54635,0.06278
472.47482,0.10217
474.40329,0.12567
476.33176,0.07708
478.26023,0.01780
480.18870,-0.01302
482.11716,-0.00263
484.04563,0.04439
485.97410,0.08512
487.90257,0.08824
489.83104,0.07443
491.75951,0.05524
493.68798,0.04827
495.61645,0.06701
497.54491,0.08256
499.47338,0.09134
501.40185,0.08885
503.33032,0.06742
505.25879,0.06836
507.18726,0.08980
509.11573,0.09652
511.04419,0.09069
512.97266,0.06148
514.90113,0.01846
516.82960,0.00664
518.75807,0.01676
520.68654,0.02092
522.61501,0.02823
524.54348,0.05325
526.47194,0.08529
528.40041,0.09037
530.32888,0.06463
532.25735,0.02491
534.18582,0.01113
536.11429,0.04232
538.04276,0.06861
539.97122,0.06507
541.89969,0.05894
543.82816,0.05495
545.75663,0.03915
547.68510,0.01669
549.61357,0.00914
551.54204,0.06687
553.47051,0.14438
555.39897,0.11846
557.32744,0.04805
559.25591,0.04036
561.18438,0.05281
563.11285,0.05252
565.04132,0.03846
566.96979,0.01809
568.89825,0.01127
570.82672,0.01861
572.75519,0.02931
574.68366,0.02783
576.61213,0.01457
578.54060,0.00754
580.46907,0.01781
582.39754,0.03889
584.32600,0.06057
586.25447,0.08051
588.18294,0.09083
590.11141,0.07788
592.03988,0.05263
593.96835,0.04854
595.89682,0.06034
597.82528,0.06774
599.75375,0.06713
601.68222,0.05794
603.61069,0.05188
605.53916,0.06010
607.46763,0.06862
609.39610,0.06022
611.32456,0.04442
613.25303,0.03831
615.18150,0.03532
617.10997,0.02396
619.03844,0.02121
620.96691,0.03068
622.89538,0.03360
624.82385,0.04200
626.75231,0.05728
628.68078,0.05672
630.60925,0.04989
632.53772,0.04923
634.46619,0.03822
636.39466,0.01986
638.32313,0.01398
640.25159,0.02399
642.18006,0.04605
644.10853,0.06870
646.03700,0.07491
647.96547,0.05870
649.89394,0.03609
651.82241,0.02605
653.75088,0.02014
655.67934,0.01424
657.60781,0.01899
659.53628,0.03352
661.46475,0.05493
663.39322,0.07922
665.32169,0.08900
667.25016,0.07272
669.17862,0.05491
671.10709,0.06168
673.03556,0.06491
674.96403,0.05517
676.89250,0.04504
678.82097,0.04155
680.74944,0.03647
682.67791,0.03206
684.60637,0.03918
686.53484,0.05460
688.46331,0.05923
690.39178,0.05450
692.32025,0.05811
694.24872,0.06685
696.17719,0.06379
698.10565,0.04923
700.03412,0.04494
701.96259,0.05276
703.89106,0.05534
705.81953,0.05178
707.74800,0.05525
709.67647,0.07434
711.60494,0.09074
713.53340,0.07902
715.46187,0.05536
717.39034,0.04772
719.31881,0.05153
721.24728,0.05257
723.17575,0.05271
725.10422,0.05435
727.03268,0.04874
728.96115,0.04252
730.88962,0.04787
732.81809,0.05414
734.74656,0.05141
736.67503,0.04585
738.60350,0.04640
740.53197,0.05322
742.46043,0.05773
744.38890,0.05963
746.31737,0.06600
748.24584,0.07172
750.17431,0.06994
752.10278,0.06646
754.03125,0.06424
755.95971,0.06105
757.88818,0.05729
759.81665,0.05479
761.74512,0.05354
763.67359,0.05042
765.60206,0.04564
767.53053,0.04519
769.45900,0.04897
771.38746,0.04822
773.31593,0.04342
775.24440,0.04165
777.17287,0.04374
779.10134,0.04782
781.02981,0.05046
782.95828,0.04903
784.88674,0.04899
786.81521,0.05336
788.74368,0.05528
790.67215,0.05267
792.60062,0.04644
794.52909,0.04199
796.45756,0.04532
798.38602,0.04703
800.31449,0.04440
802.24296,0.04663
804.17143,0.05146
806.09990,0.05521
808.02837,0.06180
809.95684,0.06260
811.88531,0.05396
813.81377,0.05012
815.74224,0.05217
817.67071,0.05431
819.59918,0.05811
821.52765,0.05999
823.45612,0.05692
825.38459,0.05595
827.31305,0.06182
829.24152,0.06931
831.16999,0.07065
833.09846,0.06130
835.02693,0.04748
836.95540,0.04042
838.88387,0.04260
840.81234,0.04754
842.74080,0.05045
844.66927,0.05271
846.59774,0.05563
848.52621,0.05923
850.45468,0.05873
852.38315,0.04963
854.31162,0.04150
856.24008,0.04596
858.16855,0.05748
860.09702,0.06695
862.02549,0.07722
863.95396,0.08354
865.88243,0.07391
867.81090,0.05740
869.73937,0.04956
871.66783,0.05380
873.59630,0.06542
875.52477,0.06931
877.45324,0.06000
879.38171,0.05201
881.31018,0.05172
883.23865,0.05406
885.16711,0.05960
887.09558,0.06635
889.02405,0.06535
890.95252,0.05753
892.88099,0.04962
894.80946,0.04248
896.73793,0.03914
898.66640,0.04256
900.59486,0.04935
902.52333,0.05624
904.45180,0.06055
906.38027,0.06064
908.30874,0.05858
910.23721,0.05562
912.16568,0.05384
914.09414,0.05679
916.02261,0.06293
917.95108,0.06639
919.87955,0.06474
921.80802,0.06334
923.73649,0.06340
925.66496,0.05887
927.59343,0.05287
929.52189,0.05252
931.45036,0.05684
933.37883,0.06264
935.30730,0.06481
937.23577,0.06063
939.16424,0.05795
941.09271,0.06172
943.02117,0.06563
944.94964,0.06536
946.87811,0.06181
948.80658,0.05870
950.73505,0.05960
952.66352,0.06177
954.59199,0.06290
956.52045,0.06179
958.44892,0.05750
960.37739,0.05527
962.30586,0.05862
964.23433,0.06270
966.16280,0.06178
968.09127,0.05870
970.01974,0.05992
971.94820,0.06489
973.87667,0.06814
975.80514,0.06546
977.73361,0.05895
979.66208,0.05730
981.59055,0.06272
983.51902,0.06703
985.44748,0.06714
987.37595,0.06631
989.30442,0.06399
991.23289,0.05896
993.16136,0.05513
995.08983,0.05661
997.01830,0.06274
998.94677,0.06967
1000.87523,0.07069
1002.80370,0.06320
1004.73217,0.05633
1006.66064,0.05807
1008.58911,0.06493
1010.51758,0.07007
1012.44605,0.07072
1014.37451,0.06946
1016.30298,0.06909
1018.23145,0.06790
1020.15992,0.06535
1022.08839,0.06673
1024.01686,0.07169
1025.94533,0.06569
1027.87380,0.05031
1029.80226,0.04915
1031.73073,0.05966
1033.65920,0.06174
1035.58767,0.05741
1037.51614,0.05774
1039.44461,0.06512
1041.37308,0.07348
1043.30154,0.07627
1045.23001,0.07181
1047.15848,0.06449
1049.08695,0.06385
1051.01542,0.06759
1052.94389,0.06738
1054.87236,0.06992
1056.80083,0.07656
1058.72929,0.07663
1060.65776,0.07171
1062.58623,0.06782
1064.51470,0.06461
1066.44317,0.06367
1068.37164,0.06490
1070.30011,0.06728
1072.22857,0.07404
1074.15704,0.07967
1076.08551,0.07574
1078.01398,0.07008
1079.94245,0.06935
1081.87092,0.07036
1083.79939,0.07407
1085.72786,0.07801
1087.65632,0.07888
1089.58479,0.08117
1091.51326,0.08093
1093.44173,0.07205
1095.37020,0.06595
1097.29867,0.06934
1099.22714,0.07120
1101.15560,0.06861
1103.08407,0.06655
1105.01254,0.06533
1106.94101,0.06555
1108.86948,0.06512
1110.79795,0.06264
1112.72642,0.06330
1114.65489,0.06757
1116.58335,0.07239
1118.51182,0.07572
1120.44029,0.07288
1122.36876,0.06605
1124.29723,0.06290
1126.22570,0.06263
1128.15417,0.06055
1130.08263,0.05883
1132.01110,0.06070
1133.93957,0.06251
1135.86804,0.06176
1137.79651,0.06083
1139.72498,0.06083
1141.65345,0.06288
1143.58191,0.06430
1145.51038,0.06247
1147.43885,0.06278
1149.36732,0.06544
1151.29579,0.06660
1153.22426,0.06939
1155.15273,0.07413
1157.08120,0.07510
1159.00966,0.07103
1160.93813,0.06662
1162.86660,0.06535
1164.79507,0.06773
1166.72354,0.07104
1168.65201,0.07139
1170.58048,0.07093
1172.50894,0.07313
1174.43741,0.07596
1176.36588,0.07579
1178.29435,0.07293
1180.22282,0.07183
1182.15129,0.07178
1184.07976,0.06665
1186.00823,0.05925
1187.93669,0.05964
1189.86516,0.06806
1191.79363,0.07460
1193.72210,0.07554
1195.65057,0.07419
1197.57904,0.07227
1199.50751,0.07085
1201.43597,0.06980
1203.36444,0.06873
1205.29291,0.06883
1207.22138,0.06894
1209.14985,0.06823
1211.07832,0.06951
1213.00679,0.07333
1214.93526,0.07577
1216.86372,0.07517
1218.79219,0.07403
1220.72066,0.07295
1222.64913,0.07255
1224.57760,0.07590
1226.50607,0.07985
1228.43454,0.07830
1230.36300,0.07368
1232.29147,0.07164
1234.21994,0.07211
1236.14841,0.07334
1238.07688,0.07664
1240.00535,0.08016
1241.93382,0.07972
1243.86229,0.07583
1245.79075,0.07292
1247.71922,0.07371
1249.64769,0.07487
1251.57616,0.07363
1253.50463,0.07229
1255.43310,0.07242
1257.36157,0.07273
1259.29003,0.07298
1261.21850,0.07459
1263.14697,0.07507
1265.07544,0.07087
1267.00391,0.06564
1268.93238,0.06577
1270.86085,0.07050
1272.78932,0.07393
1274.71778,0.07402
1276.64625,0.07361
1278.57472,0.07342
1280.50319,0.07103
1282.43166,0.06880
1284.36013,0.07114
1286.28860,0.07423
1288.21706,0.07373
1290.14553,0.07293
1292.07400,0.07431
1294.00247,0.07561
1295.93094,0.07543
1297.85941,0.07464
1299.78788,0.07299
1301.71634,0.06953
1303.64481,0.06606
1305.57328,0.06631
1307.50175,0.07018
1309.43022,0.07326
1311.35869,0.07450
1313.28716,0.07482
1315.21563,0.07362
1317.14409,0.07203
1319.07256,0.07010
1321.00103,0.06877
1322.92950,0.07004
1324.85797,0.07162
1326.78644,0.07240
1328.71491,0.07299
1330.64337,0.07162
1332.57184,0.07074
1334.50031,0.07332
1336.42878,0.07634
1338.35725,0.07813
1340.28572,0.07822
1342.21419,0.07739
1344.14266,0.07798
1346.07112,0.07844
1347.99959,0.07696
1349.92806,0.07452
1351.85653,0.07334
1353.78500,0.07332
1355.71347,0.07188
1357.64194,0.07110
1359.57040,0.07599
1361.49887,0.08554
1363.42734,0.08945
1365.35581,0.08469
1367.28428,0.07951
1369.21275,0.07552
1371.14122,0.07333
1373.06969,0.07555
1374.99815,0.07843
1376.92662,0.07769
1378.85509,0.07595
1380.78356,0.07436
1382.71203,0.07428
1384.64050,0.07828
1386.56897,0.08266
1388.49743,0.08227
1390.42590,0.08118
1392.35437,0.08266
1394.28284,0.08519
1396.21131,0.08559
1398.13978,0.08349
1400.06825,0.08095
1401.99672,0.07843
1403.92518,0.07678
1405.85365,0.07671
1407.78212,0.07735
1409.71059,0.07819
1411.63906,0.07903
1413.56753,0.08018
1415.49600,0.08303
1417.42446,0.08648
1419.35293,0.08717
1421.28140,0.08667
1423.20987,0.08587
1425.13834,0.08314
1427.06681,0.08155
1428.99528,0.08213
1430.92375,0.08155
1432.85221,0.08102
1434.78068,0.08286
1436.70915,0.08295
1438.63762,0.07932
1440.56609,0.07750
1442.49456,0.07743
1444.42303,0.07669
1446.35149,0.07523
1448.27996,0.07417
1450.20843,0.07476
1452.13690,0.07694
1454.06537,0.07818
1455.99384,0.07658
1457.92231,0.07599
1459.85077,0.07733
1461.77924,0.07781
1463.70771,0.07996
1465.63618,0.08188
1467.56465,0.08075
1469.49312,0.08154
1471.42159,0.08499
1473.35006,0.08588
1475.27852,0.08401
1477.20699,0.08137
1479.13546,0.07934
1481.06393,0.07956
1482.99240,0.08035
1484.92087,0.08212
1486.84934,0.08609
1488.77780,0.08848
1490.70627,0.08584
1492.63474,0.08236
1494.56321,0.08087
1496.49168,0.08179
1498.42015,0.08463
1500.34862,0.08745
1502.27709,0.08963
1504.20555,0.09148
1506.13402,0.09220
1508.06249,0.08796
1509.99096,0.08477
1511.91943,0.08516
1513.84790,0.08787
1515.77637,0.09261
1517.70483,0.09549
1519.63330,0.09321
1521.56177,0.08967
1523.49024,0.09023
1525.41871,0.09162
1527.34718,0.08819
1529.27565,0.08462
1531.20412,0.08667
1533.13258,0.09213
1535.06105,0.09301
1536.98952,0.09084
1538.91799,0.09411
1540.84646,0.10384
1542.77493,0.10374
1544.70340,0.09496
1546.63186,0.08745
1548.56033,0.08637
1550.48880,0.08912
1552.41727,0.09132
1554.34574,0.09265
1556.27421,0.09499
1558.20268,0.09854
1560.13115,0.09388
1562.05961,0.08850
1563.98808,0.08684
1565.91655,0.08596
1567.84502,0.08620
1569.77349,0.08654
1571.70196,0.08404
1573.63043,0.08192
1575.55889,0.08160
1577.48736,0.08137
1579.41583,0.08167
1581.34430,0.08348
1583.27277,0.08572
1585.20124,0.08577
1587.12971,0.08298
1589.05818,0.08087
1590.98664,0.08207
1592.91511,0.08406
1594.84358,0.08428
1596.77205,0.08343
1598.70052,0.08188
1600.62899,0.07973
1602.55746,0.07950
1604.48592,0.08154
1606.41439,0.08276
1608.34286,0.08207
1610.27133,0.08086
1612.19980,0.08154
1614.12827,0.08488
1616.05674,0.08998
1617.98521,0.09256
1619.91367,0.09061
1621.84214,0.08814
1623.77061,0.08785
1625.69908,0.08908
1627.62755,0.08877
1629.55602,0.08773
1631.48449,0.08886
1633.41295,0.09249
1635.34142,0.09763
1637.26989,0.09622
1639.19836,0.08909
1641.12683,0.08394
1643.05530,0.08231
1644.98377,0.08325
1646.91223,0.08702
1648.84070,0.09232
1650.76917,0.09576
1652.69764,0.09643
1654.62611,0.09242
1656.55458,0.08815
1658.48305,0.08733
1660.41152,0.09216
1662.33998,0.09628
1664.26845,0.09154
1666.19692,0.08789
1668.12539,0.09121
1670.05386,0.09541
1671.98233,0.09548
1673.91080,0.09374
1675.83926,0.09020
1677.76773,0.08810
1679.69620,0.08897
1681.62467,0.09258
1683.55314,0.09766
1685.48161,0.09504
1687.41008,0.08985
1689.33855,0.08810
1691.26701,0.08780
1693.19548,0.08879
1695.12395,0.09177
1697.05242,0.09496
1698.98089,0.09411
1700.90936,0.08784
1702.83783,0.08490
1704.76629,0.08815
1706.69476,0.09098
1708.62323,0.08897
1710.55170,0.08655
1712.48017,0.08720
1714.40864,0.09291
1716.33711,0.10129
1718.26558,0.09841
1720.19404,0.08970
1722.12251,0.08538
1724.05098,0.08283
1725.97945,0.08218
1727.90792,0.08404
1729.83639,0.08544
1731.76486,0.08513
1733.69332,0.08379
1735.62179,0.08157
1737.55026,0.08167
1739.47873,0.08404
1741.40720,0.08430
1743.33567,0.08240
1745.26414,0.08356
1747.19261,0.08898
1749.12107,0.09353
1751.04954,0.09090
1752.97801,0.08592
1754.90648,0.08418
1756.83495,0.08442
1758.76342,0.08560
1760.69189,0.08719
1762.62035,0.08774
1764.54882,0.08659
1766.47729,0.08483
1768.40576,0.08443
1770.33423,0.08631
1772.26270,0.08840
1774.19117,0.08733
1776.11964,0.08442
1778.04810,0.08255
1779.97657,0.08187
1781.90504,0.08236
1783.83351,0.08424
1785.76198,0.08466
1787.69045,0.08332
1789.61892,0.08408
1791.54738,0.08674
1793.47585,0.08720
1795.40432,0.08589
1797.33279,0.08536
1799.26126,0.08622
1801.18973,0.08623
1803.11820,0.08407
1805.04666,0.08248
1806.97513,0.08216
1808.90360,0.08186
1810.83207,0.08158
1812.76054,0.08201
1814.68901,0.08270
1816.61748,0.08407
1818.54595,0.08665
1820.47441,0.08776
1822.40288,0.08652
1824.33135,0.08628
1826.25982,0.08796
1828.18829,0.08900
1830.11676,0.08748
1832.04523,0.08417
1833.97369,0.08232
1835.90216,0.08188
1837.83063,0.08102
1839.75910,0.08048
1841.68757,0.08256
1843.61604,0.08680
1845.54451,0.08784
1847.47298,0.08456
1849.40144,0.08207
1851.32991,0.08265
1853.25838,0.08344
1855.18685,0.08160
1857.11532,0.08014
1859.04379,0.08156
1860.97226,0.08283
1862.90072,0.08259
1864.82919,0.08323
1866.75766,0.08568
1868.68613,0.08750
1870.61460,0.08631
1872.54307,0.08418
1874.47154,0.08271
1876.40001,0.08217
1878.32847,0.08222
1880.25694,0.08209
1882.18541,0.08318
1884.11388,0.08509
1886.04235,0.08525
1887.97082,0.08473
1889.89929,0.08461
1891.82775,0.08468
1893.75622,0.08571
1895.68469,0.08673
1897.61316,0.08630
1899.54163,0.08534
1901.47010,0.08552
1903.39857,0.08622
1905.32704,0.08530
1907.25550,0.08402
1909.18397,0.08438
1911.11244,0.08434
1913.04091,0.08337
1914.96938,0.08321
1916.89785,0.08285
1918.82632,0.08151
1920.75478,0.08110
1922.68325,0.08168
1924.61172,0.08135
1926.54019,0.08109
1928.46866,0.08238
1930.39713,0.08269
1932.32560,0.08100
1934.25407,0.07996
1936.18253,0.08057
1938.11100,0.08252
1940.03947,0.08495
1941.96794,0.08565
1943.89641,0.08450
1945.82488,0.08438
1947.75335,0.08514
1949.68181,0.08471
1951.61028,0.08399
1953.53875,0.08490
1955.46722,0.08589
1957.39569,0.08483
1959.32416,0.08349
1961.25263,0.08312
1963.18110,0.08257
1965.10956,0.08196
1967.03803,0.08135
1968.96650,0.08102
1970.89497,0.08232
1972.82344,0.08410
1974.75191,0.08433
1976.68038,0.08293
1978.60884,0.08051
1980.53731,0.07871
1982.46578,0.07906
1984.39425,0.08088
1986.32272,0.08249
1988.25119,0.08249
1990.17966,0.08093
1992.10812,0.07944
1994.03659,0.07916
1995.96506,0.08033
1997.89353,0.08227
1999.82200,0.08313
2001.75047,0.08314
2003.67894,0.08399
2005.60741,0.08550
2007.53587,0.08681
2009.46434,0.08615
2011.39281,0.08358
2013.32128,0.08221
2015.24975,0.08269
2017.17822,0.08332
2019.10669,0.08268
2021.03515,0.08148
2022.96362,0.08214
2024.89209,0.08338
2026.82056,0.08197
2028.74903,0.07950
2030.67750,0.07891
2032.60597,0.08028
2034.53444,0.08228
2036.46290,0.08258
2038.39137,0.08132
2040.31984,0.08151
2042.24831,0.08310
2044.17678,0.08354
2046.10525,0.08270
2048.03372,0.08170
2049.96218,0.08113
2051.89065,0.08177
2053.81912,0.08214
2055.74759,0.08080
2057.67606,0.08042
2059.60453,0.08237
2061.53300,0.08430
2063.46147,0.08436
2065.38993,0.08270
2067.31840,0.08154
2069.24687,0.08298
2071.17534,0.08598
2073.10381,0.08789
2075.03228,0.08777
2076.96075,0.08595
2078.88921,0.08456
2080.81768,0.08574
2082.74615,0.08694
2084.67462,0.08625
2086.60309,0.08637
2088.53156,0.08810
2090.46003,0.08930
2092.38850,0.08831
2094.31696,0.08589
2096.24543,0.08451
2098.17390,0.08503
2100.10237,0.08567
2102.03084,0.08552
2103.95931,0.08597
2105.88778,0.08680
2107.81624,0.08647
2109.74471,0.08503
2111.67318,0.08389
2113.60165,0.08512
2115.53012,0.08783
2117.45859,0.08797
2119.38706,0.08546
2121.31553,0.08322
2123.24399,0.08139
2125.17246,0.08008
2127.10093,0.08008
2129.02940,0.08063
2130.95787,0.08081
2132.88634,0.07978
2134.81481,0.07832
2136.74327,0.07871
2138.67174,0.08046
2140.60021,0.08125
2142.52868,0.08213
2144.45715,0.08340
2146.38562,0.08186
2148.31409,0.08012
2150.24255,0.08229
2152.17102,0.08452
2154.09949,0.08466
2156.02796,0.08572
2157.95643,0.08749
2159.88490,0.08793
2161.81337,0.08779
2163.74184,0.08852
2165.67030,0.08930
2167.59877,0.08836
2169.52724,0.08651
2171.45571,0.08520
2173.38418,0.08430
2175.31265,0.08452
2177.24112,0.08565
2179.16958,0.08639
2181.09805,0.08659
2183.02652,0.08616
2184.95499,0.08563
2186.88346,0.08554
2188.81193,0.08421
2190.74040,0.08042
2192.66887,0.07717
2194.59733,0.07704
2196.52580,0.07840
2198.45427,0.07953
2200.38274,0.08037
2202.31121,0.08110
2204.23968,0.08200
2206.16815,0.08323
2208.09661,0.08509
2210.02508,0.08740
2211.95355,0.08903
2213.88202,0.08956
2215.81049,0.08882
2217.73896,0.08697
2219.66743,0.08532
2221.59590,0.08503
2223.52436,0.08601
2225.45283,0.08579
2227.38130,0.08358
2229.30977,0.08275
2231.23824,0.08484
2233.16671,0.08697
2235.09518,0.08626
2237.02364,0.08467
2238.95211,0.08550
2240.88058,0.08807
2242.80905,0.08976
2244.73752,0.08856
2246.66599,0.08576
2248.59446,0.08469
2250.52293,0.08512
2252.45139,0.08552
2254.37986,0.08576
2256.30833,0.08506
2258.23680,0.08351
2260.16527,0.08284
2262.09374,0.08406
2264.02221,0.08591
2265.95067,0.08637
2267.87914,0.08538
2269.80761,0.08373
2271.73608,0.08174
2273.66455,0.08080
2275.59302,0.08184
2277.52149,0.08350
2279.44996,0.08442
2281.37842,0.08513
2283.30689,0.08611
2285.23536,0.08565
2287.16383,0.08373
2289.09230,0.08214
2291.02077,0.08049
2292.94924,0.07915
2294.87770,0.07951
2296.80617,0.08058
2298.73464,0.08130
2300.66311,0.08247
2302.59158,0.08314
2304.52005,0.08149
2306.44852,0.07913
2308.37699,0.07978
2310.30545,0.08409
2312.23392,0.08567
2314.16239,0.08210
2316.09086,0.08008
2318.01933,0.08058
2319.94780,0.07968
2321.87627,0.07819
2323.80473,0.07780
2325.73320,0.07698
2327.66167,0.07637
2329.59014,0.07988
2331.51861,0.08558
2333.44708,0.08722
2335.37555,0.08440
2337.30401,0.07852
2339.23248,0.07485
2341.16095,0.08288
2343.08942,0.09625
2345.01789,0.09680
2346.94636,0.08610
2348.87483,0.07701
2350.80330,0.07231
2352.73176,0.07314
2354.66023,0.08288
2356.58870,0.09596
2358.51717,0.10179
2360.44564,0.10506
2362.37411,0.10486
2364.30258,0.09087
2366.23104,0.07847
2368.15951,0.07954
2370.08798,0.08567
2372.01645,0.09002
2373.94492,0.09002
2375.87339,0.08810
2377.80186,0.08692
2379.73033,0.08683
2381.65879,0.08741
2383.58726,0.08705
2385.51573,0.08492
2387.44420,0.08277
2389.37267,0.08266
2391.30114,0.08469
2393.22961,0.08725
2395.15807,0.08826
2397.08654,0.08681
2399.01501,0.08433
2400.94348,0.08325
2402.87195,0.08342
2404.80042,0.08305
2406.72889,0.08178
2408.65736,0.08045
2410.58582,0.08135
2412.51429,0.08442
2414.44276,0.08646
2416.37123,0.08691
2418.29970,0.08702
2420.22817,0.08690
2422.15664,0.08673
2424.08510,0.08652
2426.01357,0.08578
2427.94204,0.08496
2429.87051,0.08407
2431.79898,0.08288
2433.72745,0.08223
2435.65592,0.08291
2437.58439,0.08392
2439.51285,0.08361
2441.44132,0.08423
2443.36979,0.08663
2445.29826,0.08616
2447.22673,0.08252
2449.15520,0.08065
2451.08367,0.08132
2453.01213,0.08243
2454.94060,0.08436
2456.86907,0.08542
2458.79754,0.08368
2460.72601,0.08346
2462.65448,0.08627
2464.58295,0.08800
2466.51142,0.08821
2468.43988,0.08862
2470.36835,0.08898
2472.29682,0.08869
2474.22529,0.08772
2476.15376,0.08709
2478.08223,0.08678
2480.01070,0.08549
2481.93916,0.08399
2483.86763,0.08422
2485.79610,0.08529
2487.72457,0.08513
2489.65304,0.08442
2491.58151,0.08467
2493.50998,0.08589
2495.43844,0.08726
2497.36691,0.08773
2499.29538,0.08714
2501.22385,0.08671
2503.15232,0.08754
2505.08079,0.08873
2507.00926,0.08974
2508.93773,0.09102
2510.86619,0.09071
2512.79466,0.08842
2514.72313,0.08704
2516.65160,0.08762
2518.58007,0.08876
2520.50854,0.08877
2522.43701,0.08800
2524.36547,0.08780
2526.29394,0.08724
2528.22241,0.08681
2530.15088,0.08870
2532.07935,0.09047
2534.00782,0.08871
2535.93629,0.08566
2537.86476,0.08524
2539.79322,0.08781
2541.72169,0.08985
2543.65016,0.08888
2545.57863,0.08773
2547.50710,0.08831
2549.43557,0.08830
2551.36404,0.08706
2553.29250,0.08622
2555.22097,0.08614
2557.14944,0.08677
2559.07791,0.08743
2561.00638,0.08695
2562.93485,0.08648
2564.86332,0.08662
2566.79179,0.08637
2568.72025,0.08572
2570.64872,0.08573
2572.57719,0.08704
2574.50566,0.08763
2576.43413,0.08648
2578.36260,0.08534
2580.29107,0.08472
2582.21953,0.08485
2584.14800,0.08554
2586.07647,0.08564
2588.00494,0.08682
2589.93341,0.08897
2591.86188,0.08913
2593.79035,0.08923
2595.71882,0.09136
2597.64728,0.09279
2599.57575,0.09182
2601.50422,0.08944
2603.43269,0.08731
2605.36116,0.08707
2607.28963,0.08891
2609.21810,0.09095
2611.14656,0.09113
2613.07503,0.08992
2615.00350,0.08907
2616.93197,0.08805
2618.86044,0.08721
2620.78891,0.08785
2622.71738,0.08787
2624.64585,0.08645
2626.57431,0.08549
2628.50278,0.08537
2630.43125,0.08565
2632.35972,0.08651
2634.28819,0.08821
2636.21666,0.08984
2638.14513,0.09032
2640.07359,0.08995
2642.00206,0.08962
2643.93053,0.09042
2645.85900,0.09181
2647.78747,0.09143
2649.71594,0.08975
2651.64441,0.08947
2653.57288,0.09056
2655.50134,0.09095
2657.42981,0.09080
2659.35828,0.09152
2661.28675,0.09194
2663.21522,0.09129
2665.14369,0.09090
2667.07216,0.09017
2669.00062,0.08877
2670.92909,0.08851
2672.85756,0.08966
2674.78603,0.09079
2676.71450,0.09062
2678.64297,0.08832
2680.57144,0.08590
2682.49990,0.08657
2684.42837,0.08912
2686.35684,0.09157
2688.28531,0.09398
2690.21378,0.09529
2692.14225,0.09503
2694.07072,0.09283
2695.99919,0.08943
2697.92765,0.08819
2699.85612,0.08983
2701.78459,0.09172
2703.71306,0.09167
2705.64153,0.09052
2707.57000,0.09106
2709.49847,0.09222
2711.42693,0.09087
2713.35540,0.08873
2715.28387,0.08878
2717.21234,0.09028
2719.14081,0.09157
2721.06928,0.09230
2722.99775,0.09273
2724.92622,0.09271
2726.85468,0.09220
2728.78315,0.09159
2730.71162,0.09038
2732.64009,0.09041
2734.56856,0.09285
2736.49703,0.09289
2738.42550,0.09032
2740.35396,0.09035
2742.28243,0.09198
2744.21090,0.09247
2746.13937,0.09248
2748.06784,0.09163
2749.99631,0.09047
2751.92478,0.09136
2753.85325,0.09329
2755.78171,0.09337
2757.71018,0.09165
2759.63865,0.09015
2761.56712,0.08916
2763.49559,0.08871
2765.42406,0.09061
2767.35253,0.09259
2769.28099,0.09033
2771.20946,0.08779
2773.13793,0.09074
2775.06640,0.09482
2776.99487,0.09503
2778.92334,0.09399
2780.85181,0.09305
2782.78028,0.09201
2784.70874,0.09175
2786.63721,0.09121
2788.56568,0.09129
2790.49415,0.09312
2792.42262,0.09420
2794.35109,0.09348
2796.27956,0.09236
2798.20802,0.09214
2800.13649,0.09348
2802.06496,0.09466
2803.99343,0.09383
2805.92190,0.09297
2807.85037,0.09338
2809.77884,0.09354
2811.70731,0.09444
2813.63577,0.09666
2815.56424,0.09752
2817.49271,0.09610
2819.42118,0.09393
2821.34965,0.09330
2823.27812,0.09476
2825.20659,0.09534
2827.13505,0.09408
2829.06352,0.09320
2830.99199,0.09346
2832.92046,0.09459
2834.84893,0.09540
2836.77740,0.09420
2838.70587,0.09239
2840.63433,0.09192
2842.56280,0.09287
2844.49127,0.09548
2846.41974,0.09718
2848.34821,0.09462
2850.27668,0.09149
2852.20515,0.09232
2854.13362,0.09480
2856.06208,0.09597
2857.99055,0.09651
2859.91902,0.09664
2861.84749,0.09573
2863.77596,0.09455
2865.70443,0.09291
2867.63290,0.09128
2869.56136,0.09194
2871.48983,0.09412
2873.41830,0.09623
2875.34677,0.09764
2877.27524,0.09711
2879.20371,0.09569
2881.13218,0.09467
2883.06065,0.09375
2884.98911,0.09358
2886.91758,0.09362
2888.84605,0.09287
2890.77452,0.09193
2892.70299,0.09136
2894.63146,0.09181
2896.55993,0.09351
2898.48839,0.09525
2900.41686,0.09575
2902.34533,0.09551
2904.27380,0.09561
2906.20227,0.09568
2908.13074,0.09555
2910.05921,0.09564
2911.98768,0.09556
2913.91614,0.09523
2915.84461,0.09589
2917.77308,0.09786
2919.70155,0.09755
2921.63002,0.09409
2923.55849,0.09251
2925.48696,0.09337
2927.41542,0.09329
2929.34389,0.09167
2931.27236,0.09067
2933.20083,0.09240
2935.12930,0.09439
2937.05777,0.09401
2938.98624,0.09267
2940.91471,0.09320
2942.84317,0.09514
2944.77164,0.09555
2946.70011,0.09551
2948.62858,0.09691
2950.55705,0.09843
2952.48552,0.09786
2954.41399,0.09476
2956.34245,0.09206
2958.27092,0.09227
2960.19939,0.09464
2962.12786,0.09728
2964.05633,0.09702
2965.98480,0.09337
2967.91327,0.09151
2969.84174,0.09268
2971.77020,0.09292
2973.69867,0.09208
2975.62714,0.09284
2977.55561,0.09404
2979.48408,0.09423
2981.41255,0.09526
2983.34102,0.09632
2985.26948,0.09640
2987.19795,0.09587
2989.12642,0.09366
2991.05489,0.09163
2992.98336,0.09367
2994.91183,0.09784
2996.84030,0.09848
2998.76877,0.09754
3000.69723,0.09881
3002.62570,0.09881
3004.55417,0.09622
3006.48264,0.09496
3008.41111,0.09589
3010.33958,0.09330
3012.26805,0.08482
3014.19651,0.07647
3016.12498,0.07342
3018.05345,0.07830
3019.98192,0.08802
3021.91039,0.09417
3023.83886,0.09540
3025.76733,0.09531
3027.69579,0.09502
3029.62426,0.09518
3031.55273,0.09701
3033.48120,0.09939
3035.40967,0.09884
3037.33814,0.09531
3039.26661,0.09424
3041.19508,0.09826
3043.12354,0.10227
3045.05201,0.10178
3046.98048,0.09928
3048.90895,0.09868
3050.83742,0.09932
3052.76589,0.09968
3054.69436,0.09909
3056.62282,0.09635
3058.55129,0.09464
3060.47976,0.09607
3062.40823,0.09656
3064.33670,0.09549
3066.26517,0.09662
3068.19364,0.09878
3070.12211,0.09785
3072.05057,0.09531
3073.97904,0.09288
3075.90751,0.09071
3077.83598,0.09236
3079.76445,0.09736
3081.69292,0.09962
3083.62139,0.09675
3085.54985,0.09363
3087.47832,0.09482
3089.40679,0.09680
3091.33526,0.09556
3093.26373,0.09352
3095.19220,0.09369
3097.12067,0.09512
3099.04914,0.09617
3100.97760,0.09662
3102.90607,0.09652
3104.83454,0.09679
3106.76301,0.09795
3108.69148,0.09761
3110.61995,0.09499
3112.54842,0.09342
3114.47688,0.09387
3116.40535,0.09458
3118.33382,0.09419
3120.26229,0.09280
3122.19076,0.09364
3124.11923,0.09740
3126.04770,0.09977
3127.97617,0.09832
3129.90463,0.09472
3131.83310,0.09190
3133.76157,0.09213
3135.69004,0.09492
3137.61851,0.09712
3139.54698,0.09798
3141.47545,0.10015
3143.40391,0.10375
3145.33238,0.10449
3147.26085,0.10099
3149.18932,0.09617
3151.11779,0.09246
3153.04626,0.09283
3154.97473,0.09612
3156.90320,0.09740
3158.83166,0.09739
3160.76013,0.09904
3162.68860,0.10065
3164.61707,0.09917
3166.54554,0.09644
3168.47401,0.09552
3170.40248,0.09453
3172.33094,0.09376
3174.25941,0.09667
3176.18788,0.10009
3178.11635,0.09967
3180.04482,0.09813
3181.97329,0.09920
3183.90176,0.10068
3185.83022,0.09769
3187.75869,0.09255
3189.68716,0.09033
3191.61563,0.09082
3193.54410,0.09422
3195.47257,0.09926
3197.40104,0.10187
3199.32951,0.10211
3201.25797,0.10155
3203.18644,0.09991
3205.11491,0.09878
3207.04338,0.09988
3208.97185,0.10138
3210.90032,0.10189
3212.82879,0.10307
3214.75725,0.10427
3216.68572,0.10257
3218.61419,0.09904
3220.54266,0.09649
3222.47113,0.09616
3224.39960,0.09715
3226.32807,0.09725
3228.25654,0.09687
3230.18500,0.09796
3232.11347,0.09985
3234.04194,0.10055
3235.97041,0.09998
3237.89888,0.09958
3239.82735,0.10123
3241.75582,0.10334
3243.68428,0.10208
3245.61275,0.10042
3247.54122,0.10194
3249.46969,0.10249
3251.39816,0.09964
3253.32663,0.09710
3255.25510,0.09728
3257.18357,0.09916
3259.11203,0.10150
3261.04050,0.10207
3262.96897,0.09963
3264.89744,0.09647
3266.82591,0.09555
3268.75438,0.09795
3270.68285,0.10155
3272.61131,0.10317
3274.53978,0.10340
3276.46825,0.10208
3278.39672,0.09828
3280.32519,0.09639
3282.25366,0.09880
3284.18213,0.10218
3286.11060,0.10323
3288.03906,0.10171
3289.96753,0.09916
3291.89600,0.09801
3293.82447,0.09979
3295.75294,0.10187
3297.68141,0.10232
3299.60988,0.10049
3301.53834,0.09844
3303.46681,0.09826
3305.39528,0.09631
3307.32375,0.09510
3309.25222,0.09725
3311.18069,0.09641
3313.10916,0.09378
3315.03763,0.09547
3316.96609,0.10020
3318.89456,0.10508
3320.82303,0.10833
3322.75150,0.10762
3324.67997,0.10439
3326.60844,0.10246
3328.53691,0.10255
3330.46537,0.10241
3332.39384,0.10218
3334.32231,0.10433
3336.25078,0.10698
3338.17925,0.10667
3340.10772,0.10305
3342.03619,0.09831
3343.96466,0.09564
3345.89312,0.09569
3347.82159,0.09638
3349.75006,0.09670
3351.67853,0.09733
3353.60700,0.09779
3355.53547,0.09710
3357.46394,0.09672
3359.39240,0.09840
3361.32087,0.09919
3363.24934,0.09757
3365.17781,0.09876
3367.10628,0.10225
3369.03475,0.10227
3370.96322,0.09930
3372.89168,0.09654
3374.82015,0.09664
3376.74862,0.09983
3378.67709,0.10159
3380.60556,0.09933
3382.53403,0.09687
3384.46250,0.09690
3386.39097,0.09712
3388.31943,0.09750
3390.24790,0.10031
3392.17637,0.10403
3394.10484,0.10407
3396.03331,0.09977
3397.96178,0.09569
3399.89025,0.09328
3401.81871,0.09155
3403.74718,0.09131
3405.67565,0.09150
3407.60412,0.09180
3409.53259,0.09552
3411.46106,0.10094
3413.38953,0.10146
3415.31800,0.09865
3417.24646,0.09918
3419.17493,0.10202
3421.10340,0.10192
3423.03187,0.10034
3424.96034,0.10064
3426.88881,0.10043
3428.81728,0.09924
3430.74574,0.09958
3432.67421,0.10011
3434.60268,0.09792
3436.53115,0.09391
3438.45962,0.09155
3440.38809,0.09257
3442.31656,0.09461
3444.24503,0.09260
3446.17349,0.08827
3448.10196,0.08865
3450.03043,0.09183
3451.95890,0.09230
3453.88737,0.09138
3455.81584,0.09141
3457.74431,0.09191
3459.67277,0.09373
3461.60124,0.09494
3463.52971,0.09228
3465.45818,0.08957
3467.38665,0.08960
3469.31512,0.08924
3471.24359,0.08778
3473.17206,0.08834
3475.10052,0.09083
3477.02899,0.09239
3478.95746,0.09312
3480.88593,0.09321
3482.81440,0.09160
3484.74287,0.09001
3486.67134,0.08982
3488.59980,0.09051
3490.52827,0.09175
3492.45674,0.09199
3494.38521,0.09052
3496.31368,0.08911
3498.24215,0.08991
3500.17062,0.09257
3502.09909,0.09305
3504.02755,0.08996
3505.95602,0.08720
3507.88449,0.08578
3509.81296,0.08385
3511.74143,0.08245
3513.66990,0.08236
3515.59837,0.08247
3517.52683,0.08373
3519.45530,0.08642
3521.38377,0.08717
3523.31224,0.08246
3525.24071,0.07701
3527.16918,0.07804
3529.09765,0.08139
3531.02611,0.08129
3532.95458,0.07901
3534.88305,0.07669
3536.81152,0.07644
3538.73999,0.07712
3540.66846,0.07593
3542.59693,0.07474
3544.52540,0.07404
3546.45386,0.07170
3548.38233,0.07067
3550.31080,0.07422
3552.23927,0.07995
3554.16774,0.08297
3556.09621,0.08281
3558.02468,0.08234
3559.95314,0.08192
3561.88161,0.08042
3563.81008,0.07943
3565.73855,0.07938
3567.66702,0.07700
3569.59549,0.07656
3571.52396,0.07955
3573.45243,0.07792
3575.38089,0.07078
3577.30936,0.06850
3579.23783,0.07310
3581.16630,0.07611
3583.09477,0.07609
3585.02324,0.07713
3586.95171,0.07937
3588.88017,0.07975
3590.80864,0.07820
3592.73711,0.07525
3594.66558,0.07084
3596.59405,0.06877
3598.52252,0.07017
3600.45099,0.07078
3602.37946,0.07052
3604.30792,0.07295
3606.23639,0.07586
3608.16486,0.07363
3610.09333,0.06893
3612.02180,0.06821
3613.95027,0.06945
3615.87874,0.06999
3617.80720,0.07076
3619.73567,0.06993
3621.66414,0.06705
3623.59261,0.06485
3625.52108,0.06344
3627.44955,0.06326
3629.37802,0.06552
3631.30649,0.06867
3633.23495,0.07005
3635.16342,0.06879
3637.09189,0.06782
3639.02036,0.06785
3640.94883,0.06682
3642.87730,0.06779
3644.80577,0.07273
3646.73423,0.07957
3648.66270,0.08338
3650.59117,0.07612
3652.51964,0.06946
3654.44811,0.06804
3656.37658,0.06614
3658.30505,0.06224
3660.23352,0.05922
3662.16198,0.05857
3664.09045,0.05922
3666.01892,0.05937
3667.94739,0.06080
3669.87586,0.06449
3671.80433,0.06580
3673.73280,0.06672
3675.66126,0.07173
3677.58973,0.07227
3679.51820,0.06641
3681.44667,0.06169
3683.37514,0.06033
3685.30361,0.06212
3687.23208,0.06624
3689.16055,0.06623
3691.08901,0.06052
3693.01748,0.05930
3694.94595,0.06160
3696.87442,0.06299
3698.80289,0.06319
3700.73136,0.06286
3702.65983,0.06122
3704.58829,0.06046
3706.51676,0.06428
3708.44523,0.07090
3710.37370,0.07267
3712.30217,0.06541
3714.23064,0.05904
3716.15911,0.05967
3718.08757,0.06450
3720.01604,0.06762
3721.94451,0.06706
3723.87298,0.06622
3725.80145,0.06611
3727.72992,0.06483
3729.65839,0.06518
3731.58686,0.07016
3733.51532,0.07529
3735.44379,0.07427
3737.37226,0.07137
3739.30073,0.07081
3741.22920,0.07074
3743.15767,0.06862
3745.08614,0.06207
3747.01460,0.05670
3748.94307,0.05589
3750.87154,0.05694
3752.80001,0.05747
3754.72848,0.05617
3756.65695,0.05459
3758.58542,0.05759
3760.51389,0.06516
3762.44235,0.06937
3764.37082,0.06775
3766.29929,0.06405
3768.22776,0.06363
3770.15623,0.06430
3772.08470,0.06225
3774.01317,0.05990
3775.94163,0.05782
3777.87010,0.05536
3779.79857,0.05429
3781.72704,0.05650
3783.65551,0.05988
3785.58398,0.06133
3787.51245,0.06114
3789.44092,0.06083
3791.36938,0.06016
3793.29785,0.05959
3795.22632,0.05952
3797.15479,0.05914
3799.08326,0.05815
3801.01173,0.05520
3802.94020,0.05112
3804.86866,0.05193
3806.79713,0.05636
3808.72560,0.05938
3810.65407,0.06095
3812.58254,0.06222
3814.51101,0.06224
3816.43948,0.06065
3818.36795,0.05820
3820.29641,0.05595
3822.22488,0.05406
3824.15335,0.05337
3826.08182,0.05379
3828.01029,0.05463
3829.93876,0.05762
3831.86723,0.06196
3833.79569,0.06457
3835.72416,0.06674
3837.65263,0.06675
3839.58110,0.06163
3841.50957,0.05741
3843.43804,0.05645
3845.36651,0.05633
3847.29498,0.05719
3849.22344,0.05871
3851.15191,0.05910
3853.08038,0.06196
3855.00885,0.06565
3856.93732,0.06344
3858.86579,0.06046
3860.79426,0.05991
3862.72272,0.06004
3864.65119,0.05661
3866.57966,0.05503
3868.50813,0.05712
3870.43660,0.05741
3872.36507,0.05690
3874.29354,0.05716
3876.22200,0.05591
3878.15047,0.05325
3880.07894,0.05046
3882.00741,0.05237
3883.93588,0.05948
3885.86435,0.06304
3887.79282,0.06058
3889.72129,0.06010
3891.64975,0.06374
3893.57822,0.06491
3895.50669,0.06087
3897.43516,0.05579
3899.36363,0.05198
3901.29210,0.05466
3903.22057,0.06285
3905.14903,0.06260
3907.07750,0.05721
3909.00597,0.05519
3910.93444,0.05452
3912.86291,0.05498
3914.79138,0.05775
3916.71985,0.06022
3918.64832,0.05870
3920.57678,0.05439
3922.50525,0.05276
3924.43372,0.05537
3926.36219,0.05702
3928.29066,0.05471
3930.21913,0.05112
3932.14760,0.04912
3934.07606,0.04968
3936.00453,0.05117
3937.93300,0.05080
3939.86147,0.05009
3941.78994,0.05287
3943.71841,0.05802
3945.64688,0.06097
3947.57535,0.05865
3949.50381,0.05502
3951.43228,0.05551
3953.36075,0.05490
3955.28922,0.05278
3957.21769,0.05435
3959.14616,0.05664
3961.07463,0.05625
3963.00309,0.05332
3964.93156,0.04962
3966.86003,0.04771
3968.78850,0.04614
3970.71697,0.04459
3972.64544,0.04515
3974.57391,0.04659
3976.50238,0.04910
3978.43084,0.05421
3980.35931,0.05710
3982.28778,0.05475
3984.21625,0.05210
3986.14472,0.05099
3988.07319,0.05138
3990.00166,0.05311
3991.93012,0.05176
3993.85859,0.04835
3995.78706,0.04777
3997.71553,0.05025
3999.64400,0.05395
4001.57247,0.05549
4003.50094,0.05326
4005.42941,0.05069
4007.35787,0.05077
4009.28634,0.05153
4011.21481,0.04980
4013.14328,0.04761
4015.07175,0.04856
4017.00022,0.05191
4018.92869,0.05348
4020.85715,0.05066
4022.78562,0.04784
4024.71409,0.04868
4026.64256,0.04943
4028.57103,0.04704
4030.49950,0.04277
4032.42797,0.04028
4034.35644,0.04242
4036.28490,0.04658
4038.21337,0.04879
4040.14184,0.04772
4042.07031,0.04611
4043.99878,0.04709
4045.92725,0.04743
4047.85572,0.04545
4049.78418,0.04365
4051.71265,0.04265
4053.64112,0.04414
4055.56959,0.04668
4057.49806,0.04636
4059.42653,0.04611
4061.35500,0.04903
4063.28346,0.05130
4065.21193,0.05142
4067.14040,0.05326
4069.06887,0.05567
4070.99734,0.05290
4072.92581,0.04658
4074.85428,0.04380
4076.78275,0.04579
4078.71121,0.04912
4080.63968,0.05085
4082.56815,0.04913
4084.49662,0.04417
4086.42509,0.03928
4088.35356,0.03963
4090.28203,0.04426
4092.21049,0.04642
4094.13896,0.04457
4096.06743,0.04247
4097.99590,0.04179
4099.92437,0.04030
4101.85284,0.03704
4103.78131,0.03635
4105.70978,0.04117
4107.63824,0.04666
4109.56671,0.04738
4111.49518,0.04458
4113.42365,0.04167
4115.35212,0.03863
4117.28059,0.03702
4119.20906,0.04039
4121.13752,0.04610
4123.06599,0.04811
4124.99446,0.04673
4126.92293,0.04593
4128.85140,0.04391
4130.77987,0.03976
4132.70834,0.03747
4134.63681,0.03859
4136.56527,0.04205
4138.49374,0.04364
4140.42221,0.04078
4142.35068,0.03769
4144.27915,0.03724
4146.20762,0.03759
4148.13609,0.03765
4150.06455,0.03815
4151.99302,0.03962
4153.92149,0.04011
4155.84996,0.03687
4157.77843,0.03412
4159.70690,0.03484
4161.63537,0.03436
4163.56384,0.03351
4165.49230,0.03585
4167.42077,0.03894
4169.34924,0.03970
4171.27771,0.03954
4173.20618,0.04099
4175.13465,0.04079
4177.06312,0.03731
4178.99158,0.03619
4180.92005,0.03649
4182.84852,0.03311
4184.77699,0.02971
4186.70546,0.03042
4188.63393,0.03167
4190.56240,0.03066
4192.49087,0.03066
4194.41933,0.03180
4196.34780,0.03122
4198.27627,0.03072
4200.20474,0.03299
4202.13321,0.03655
4204.06168,0.03807
4205.99015,0.03752
4207.91861,0.03499
4209.84708,0.03014
4211.77555,0.02613
4213.70402,0.02517
4215.63249,0.02652
4217.56096,0.02814
4219.48943,0.03029
4221.41789,0.03365
4223.34636,0.03405
4225.27483,0.03182
4227.20330,0.03214
4229.13177,0.03316
4231.06024,0.03133
4232.98871,0.02932
4234.91718,0.03029
4236.84564,0.03283
4238.77411,0.03373
4240.70258,0.03168
4242.63105,0.02825
4244.55952,0.02514
4246.48799,0.02341
4248.41646,0.02485
4250.34492,0.02848
4252.27339,0.03288
4254.20186,0.03861
4256.13033,0.04210
4258.05880,0.03789
4259.98727,0.02895
4261.91574,0.02444
4263.84421,0.02504
4265.77267,0.02657
4267.70114,0.03018
4269.62961,0.03260
4271.55808,0.02931
4273.48655,0.02697
4275.41502,0.02991
4277.34349,0.03314
4279.27195,0.03396
4281.20042,0.03219
4283.12889,0.02870
4285.05736,0.02745
4286.98583,0.02921
4288.91430,0.02765
4290.84277,0.02218
4292.77124,0.02129
4294.69970,0.02353
4296.62817,0.02267
4298.55664,0.02204
4300.48511,0.02500
4302.41358,0.03024
4304.34205,0.03319
4306.27052,0.02915
4308.19898,0.02182
4310.12745,0.01908
4312.05592,0.02136
4313.98439,0.02266
4315.91286,0.01922
4317.84133,0.01320
4319.76980,0.00875
4321.69827,0.00793
4323.62673,0.01102
4325.55520,0.01499
4327.48367,0.01744
4329.41214,0.01912
4331.34061,0.01930
4333.26908,0.01762
4335.19755,0.01480
4337.12601,0.01398
4339.05448,0.01708
4340.98295,0.01948
4342.91142,0.01978
4344.83989,0.02082
4346.76836,0.02067
4348.69683,0.01922
4350.62530,0.02070
4352.55376,0.02135
4354.48223,0.01951
4356.41070,0.02184
4358.33917,0.02643
4360.26764,0.02720
4362.19611,0.02407
4364.12458,0.02231
4366.05304,0.02405
4367.98151,0.02289
4369.90998,0.01717
4371.83845,0.01200
4373.76692,0.00997
4375.69539,0.01228
4377.62386,0.01522
4379.55232,0.01327
4381.48079,0.01199
4383.40926,0.01403
4385.33773,0.01247
4387.26620,0.00947
4389.19467,0.01201
4391.12314,0.01661
4393.05161,0.01735
4394.98007,0.01841
4396.90854,0.02162
4398.83701,0.01952
4400.76548,0.01248
4402.69395,0.01092
4404.62242,0.01723
4406.55089,0.02209
4408.47935,0.02077
4410.40782,0.01699
4412.33629,0.01435
4414.26476,0.01582
4416.19323,0.02132
4418.12170,0.02451
4420.05017,0.02234
4421.97864,0.01736
4423.90710,0.01274
4425.83557,0.01115
4427.76404,0.01034
4429.69251,0.01080
4431.62098,0.01818
4433.54945,0.02663
4435.47792,0.02388
4437.40638,0.01393
4439.33485,0.00954
4441.26332,0.01177
4443.19179,0.01335
4445.12026,0.01095
4447.04873,0.00749
4448.97720,0.00793
4450.90567,0.01191
4452.83413,0.01236
4454.76260,0.00973
4456.69107,0.00885
4458.61954,0.00988
4460.54801,0.01371
4462.47648,0.01543
4464.40495,0.00992
4466.33341,0.00193
4468.26188,-0.00241
4470.19035,-0.00485
4472.11882,-0.00622
4474.04729,-0.00001
4475.97576,0.01090
4477.90423,0.01723
4479.83270,0.01515
4481.76116,0.00635
4483.68963,-0.00170
4485.61810,-0.00342
4487.54657,-0.00059
4489.47504,0.00150
4491.40351,0.00229
4493.33198,0.00574
4495.26044,0.01052
4497.18891,0.01066
4499.11738,0.00739
4501.04585,0.00582
4502.97432,0.00555
4504.90279,0.00507
4506.83126,0.00503
4508.75973,0.00632
4510.68819,0.00836
4512.61666,0.00995
4514.54513,0.01033
4516.47360,0.00964
4518.40207,0.00706
4520.33054,0.00402
4522.25901,0.00352
4524.18747,0.00442
4526.11594,0.00386
4528.04441,-0.00068
4529.97288,-0.00402
4531.90135,-0.00066
4533.82982,0.00126
4535.75829,-0.00327
4537.68676,-0.00384
4539.61522,0.00454
4541.54369,0.01102
4543.47216,0.01006
4545.40063,0.00517
4547.32910,0.00154
4549.25757,0.00559
4551.18604,0.01286
4553.11450,0.00982
4555.04297,-0.00217
4556.97144,-0.00804
4558.89991,-0.00438
4560.82838,0.00401
4562.75685,0.01187
4564.68532,0.01100
4566.61378,0.00550
4568.54225,0.00381
4570.47072,0.00383
4572.39919,0.00583
4574.32766,0.01047
4576.25613,0.01142
4578.18460,0.00665
4580.11307,0.00253
4582.04153,0.00414
4583.97000,0.00911
4585.89847,0.01367
4587.82694,0.01676
4589.75541,0.01628
4591.68388,0.01134
4593.61235,0.00610
4595.54081,0.00362
4597.46928,0.00437
4599.39775,0.00799
4601.32622,0.00909
4603.25469,0.00466
4605.18316,0.00022
4607.11163,0.00249
4609.04010,0.00761
4610.96856,0.00673
4612.89703,0.00141
4614.82550,-0.00320
4616.75397,-0.00392
4618.68244,-0.00075
4620.61091,-0.00043
4622.53938,-0.00312
4624.46784,-0.00104
4626.39631,0.00410
4628.32478,0.00344
4630.25325,-0.00065
4632.18172,-0.00049
4634.11019,0.00146
4636.03866,-0.00008
4637.96713,-0.00121
4639.89559,0.00083
4641.82406,0.00090
4643.75253,0.00042
4645.68100,0.00288
4647.60947,0.00379
4649.53794,0.00402
4651.46641,0.00383
4653.39487,-0.00048
4655.32334,-0.00341
4657.25181,-0.00296
4659.18028,-0.00304
4661.10875,-0.00121
4663.03722,0.00134
4664.96569,-0.00221
4666.89416,-0.00649
4668.82262,-0.00365
4670.75109,-0.00285
4672.67956,-0.00574
4674.60803,-0.00110
4676.53650,0.00324
4678.46497,-0.00218
4680.39344,-0.00576
4682.32190,-0.00170
4684.25037,0.00436
4686.17884,0.00898
4688.10731,0.00967
4690.03578,0.01024
4691.96425,0.01212
4693.89272,0.01134
4695.82119,0.01295
4697.74965,0.01741
4699.67812,0.01733
4701.60659,0.01539
4703.53506,0.01221
4705.46353,0.00363
4707.39200,-0.00305
4709.32047,-0.00367
4711.24893,-0.00242
4713.17740,0.00051
4715.10587,0.00616
4717.03434,0.01066
4718.96281,0.00722
4720.89128,-0.00013
4722.81975,-0.00058
4724.74821,0.00593
4726.67668,0.01135
4728.60515,0.01264
4730.53362,0.01298
4732.46209,0.01370
4734.39056,0.01526
4736.31903,0.01303
4738.24750,0.00417
4740.17596,-0.00027
4742.10443,0.00278
4744.03290,0.00345
4745.96137,0.00084
4747.88984,-0.00152
4749.81831,-0.00483
4751.74678,-0.00554
4753.67524,0.00073
4755.60371,0.00878
4757.53218,0.01225
4759.46065,0.01086
4761.38912,0.00620
4763.31759,0.00161
4765.24606,-0.00055
4767.17453,-0.00209
4769.10299,-0.00076
4771.03146,0.00442
4772.95993,0.00649
4774.88840,0.00255
4776.81687,-0.00467
4778.74534,-0.01031
4780.67381,-0.01027
4782.60227,-0.00712
4784.53074,-0.00500
4786.45921,-0.00674
4788.38768,-0.01011
4790.31615,-0.00715
4792.24462,-0.00172
4794.17309,-0.00171
4796.10156,-0.00253
4798.03002,-0.00207
4799.95849,-0.00283
4801.88696,-0.00289
4803.81543,-0.00136
4805.74390,0.00130
4807.67237,0.00458
4809.60084,0.00770
4811.52930,0.01165
4813.45777,0.01330
4815.38624,0.00930
4817.31471,0.00402
4819.24318,0.00171
4821.17165,0.00746
4823.10012,0.01984
4825.02859,0.02491
4826.95705,0.01916
4828.88552,0.01057
4830.81399,0.00379
4832.74246,0.00442
4834.67093,0.01086
4836.59940,0.01128
4838.52787,0.00609
4840.45633,0.00228
4842.38480,0.00057
4844.31327,-0.00186
4846.24174,-0.00391
4848.17021,-0.00212
4850.09868,0.00033
4852.02715,0.00161
4853.95562,0.00365
4855.88408,0.00487
4857.81255,0.00657
4859.74102,0.00885
4861.66949,0.00507
4863.59796,-0.00117
4865.52643,-0.00113
4867.45490,0.00219
4869.38336,0.00253
4871.31183,0.00143
4873.24030,0.00495
4875.16877,0.01032
4877.09724,0.01077
4879.02571,0.00834
4880.95418,0.00462
4882.88265,-0.00153
4884.81111,-0.00870
4886.73958,-0.01319
4888.66805,-0.00866
4890.59652,0.00027
4892.52499,0.00118
4894.45346,-0.00061
4896.38193,0.00248
4898.31039,0.00534
4900.23886,0.00983
4902.16733,0.01743
4904.09580,0.01700
4906.02427,0.00799
4907.95274,0.00489
4909.88121,0.00908
4911.80967,0.01030
4913.73814,0.00900
4915.66661,0.00737
4917.59508,0.00180
4919.52355,-0.00390
4921.45202,-0.00311
4923.38049,0.00414
4925.30896,0.01118
4927.23742,0.00651
4929.16589,-0.00343
4931.09436,0.00218
4933.02283,0.01816
4934.95130,0.02205
4936.87977,0.01616
4938.80824,0.01300
4940.73670,0.01168
4942.66517,0.01050
4944.59364,0.00942
4946.52211,0.00985
4948.45058,0.00884
4950.37905,0.00198
4952.30752,-0.00239
4954.23599,0.00083
4956.16445,0.00445
4958.09292,0.00421
4960.02139,0.00120
4961.94986,-0.00131
4963.87833,0.00319
4965.80680,0.01255
4967.73527,0.01624
4969.66373,0.01370
4971.59220,0.00688
4973.52067,-0.00127
4975.44914,-0.00054
4977.37761,0.00692
4979.30608,0.00987
4981.23455,0.00741
4983.16302,0.00354
4985.09148,-0.00052
4987.01995,-0.00503
4988.94842,-0.00662
4990.87689,-0.00150
4992.80536,0.00072
4994.73383,-0.00166
4996.66230,0.00530
4998.59076,0.01261
5000.51923,0.00594
5002.44770,0.00165
5004.37617,0.01458
5006.30464,0.02532
5008.23311,0.01952
5010.16158,0.00966
5012.09005,0.00679
5014.01851,0.00902
5015.94698,0.01004
5017.87545,0.00665
5019.80392,-0.00210
5021.73239,-0.01005
5023.66086,-0.00693
5025.58933,0.00438
5027.51779,0.01069
5029.44626,0.00477
5031.37473,-0.00308
5033.30320,-0.00002
5035.23167,0.00994
5037.16014,0.01949
5039.08861,0.02387
5041.01708,0.02039
5042.94554,0.01231
5044.87401,0.00520
5046.80248,0.00505
5048.73095,0.01229
5050.65942,0.02083
5052.58789,0.02023
5054.51636,0.01040
5056.44482,0.00270
5058.37329,-0.00027
5060.30176,0.00614
5062.23023,0.02122
5064.15870,0.02750
5066.08717,0.02532
5068.01564,0.02877
5069.94410,0.03442
5071.87257,0.03341
5073.80104,0.02372
5075.72951,0.00872
5077.65798,-0.00072
5079.58645,-0.00385
5081.51492,-0.00996
5083.44339,-0.01678
5085.37185,-0.01428
5087.30032,0.00165
5089.22879,0.01786
5091.15726,0.01577
5093.08573,0.00307
5095.01420,-0.00079
5096.94267,-0.00102
5098.87113,-0.00665
5100.79960,-0.00652
5102.72807,-0.00033
5104.65654,-0.00353
5106.58501,-0.00886
5108.51348,0.00167
5110.44195,0.01553
5112.37042,0.02214
5114.29888,0.03192
5116.22735,0.03851
5118.15582,0.03056
5120.08429,0.01773
5122.01276,0.01450
5123.94123,0.01646
5125.86970,0.01330
5127.79816,0.00600
5129.72663,-0.00140
5131.65510,-0.00509
5133.58357,-0.00394
5135.51204,-0.00037
5137.44051,0.00284
5139.36898,0.00793
5141.29745,0.01834
5143.22591,0.02483
5145.15438,0.01881
5147.08285,0.01200
5149.01132,0.01366
5150.93979,0.01380
5152.86826,0.01047
5154.79673,0.01024
5156.72519,0.01230
5158.65366,0.01908
5160.58213,0.02728
5162.51060,0.02377
5164.43907,0.01182
5166.36754,0.00727
5168.29601,0.01045
5170.22448,0.01174
5172.15294,0.00747
5174.08141,-0.00050
5176.00988,-0.00768
5177.93835,-0.00296
5179.86682,0.01453
5181.79529,0.02191
5183.72376,0.01146
5185.65222,-0.00005
5187.58069,-0.00779
5189.50916,-0.00971
5191.43763,-0.00312
5193.36610,0.00128
5195.29457,0.00351
5197.22304,0.00881
5199.15151,0.01000
5201.07997,0.00666
5203.00844,0.00700
5204.93691,0.01332
5206.86538,0.01755
5208.79385,0.01349
5210.72232,0.00868
5212.65079,0.00832
5214.57925,0.00825
5216.50772,0.00949
5218.43619,0.01539
5220.36466,0.01924
5222.29313,0.01921
5224.22160,0.01787
5226.15007,0.02015
5228.07854,0.02770
5230.00700,0.03086
5231.93547,0.02931
5233.86394,0.02546
5235.79241,0.01620
5237.72088,0.00148
5239.64935,-0.00979
5241.57782,-0.00369
5243.50628,0.01597
5245.43475,0.02313
5247.36322,0.00919
5249.29169,0.00549
5251.22016,0.02560
5253.14863,0.03662
5255.07710,0.02412
5257.00556,0.00975
5258.93403,0.00534
5260.86250,0.00162
5262.79097,-0.00715
5264.71944,-0.00744
5266.64791,0.00812
5268.57638,0.01980
5270.50485,0.01951
5272.43331,0.02212
5274.36178,0.03293
5276.29025,0.03924
5278.21872,0.03057
5280.14719,0.01839
5282.07566,0.01647
5284.00413,0.01393
5285.93259,0.00453
5287.86106,-0.00123
5289.78953,0.00132
5291.71800,0.00980
5293.64647,0.01637
5295.57494,0.01573
5297.50341,0.00900
5299.43188,0.00746
5301.36034,0.01969
5303.28881,0.03057
5305.21728,0.02910
5307.14575,0.02611
5309.07422,0.02977
5311.00269,0.03503
5312.93116,0.03441
5314.85962,0.03140
5316.78809,0.03664
5318.71656,0.04839
5320.64503,0.05094
5322.57350,0.03510
5324.50197,0.01851
5326.43044,0.02350
5328.35891,0.03258
5330.28737,0.02613
5332.21584,0.02584
5334.14431,0.03828
5336.07278,0.04190
5338.00125,0.03821
5339.92972,0.03459
5341.85819,0.03159
5343.78665,0.03604
5345.71512,0.03909
5347.64359,0.03403
5349.57206,0.02935
5351.50053,0.02523
5353.42900,0.01479
5355.35747,-0.00323
5357.28594,-0.01140
5359.21440,-0.00214
5361.14287,0.00831
5363.07134,0.00949
5364.99981,0.01155
5366.92828,0.02043
5368.85675,0.03830
5370.78522,0.05855
5372.71368,0.06108
5374.64215,0.04641
5376.57062,0.03659
5378.49909,0.03936
5380.42756,0.03552
5382.35603,0.02084
5384.28450,0.01637
5386.21297,0.02743
5388.14143,0.03640
5390.06990,0.03872
5391.99837,0.04279
5393.92684,0.04641
5395.85531,0.03328
5397.78378,0.01536
5399.71225,0.01425
5401.64071,0.01882
5403.56918,0.02159
5405.49765,0.03347
5407.42612,0.04164
5409.35459,0.03309
5411.28306,0.02240
5413.21153,0.01829
5415.13999,0.01170
5417.06846,0.00271
5418.99693,0.00817
5420.92540,0.02792
5422.85387,0.03895
5424.78234,0.03992
5426.71081,0.04058
5428.63928,0.03566
5430.56774,0.02581
5432.49621,0.01770
5434.42468,0.01880
5436.35315,0.02848
5438.28162,0.03236
5440.21009,0.03589
5442.13856,0.04633
5444.06702,0.05228
5445.99549,0.04457
5447.92396,0.02622
5449.85243,0.01459
5451.78090,0.01608
5453.70937,0.01989
5455.63784,0.02363
5457.56631,0.02933
5459.49477,0.03405
5461.42324,0.03672
5463.35171,0.03936
5465.28018,0.04450
5467.20865,0.04828
5469.13712,0.04620
5471.06559,0.04856
5472.99405,0.05871
5474.92252,0.06194
5476.85099,0.05757
5478.77946,0.04978
5480.70793,0.02809
5482.63640,0.00407
5484.56487,0.00029
5486.49334,0.02004
5488.42180,0.04813
5490.35027,0.05620
5492.27874,0.03695
5494.20721,0.01443
5496.13568,0.01049
5498.06415,0.02379
5499.99262,0.03906
5501.92108,0.04442
5503.84955,0.04503
5505.77802,0.05553
5507.70649,0.07336
5509.63496,0.07686
5511.56343,0.06441
5513.49190,0.05556
5515.42037,0.05021
5517.34883,0.02928
5519.27730,0.01114
5521.20577,0.02386
5523.13424,0.05083
5525.06271,0.06538
5526.99118,0.06247
5528.91965,0.04937
5530.84811,0.04497
5532.77658,0.05544
5534.70505,0.05722
5536.63352,0.04119
5538.56199,0.03283
5540.49046,0.04533
5542.41893,0.05457
5544.34740,0.04348
5546.27586,0.03422
5548.20433,0.04315
5550.13280,0.05505
5552.06127,0.05608
5553.98974,0.04799
5555.91821,0.04368
5557.84668,0.04984
5559.77514,0.05906
5561.70361,0.06087
5563.63208,0.04668
5565.56055,0.03462
5567.48902,0.04450
5569.41749,0.05345
5571.34596,0.04612
5573.27443,0.03409
5575.20289,0.02354
5577.13136,0.02658
5579.05983,0.04886
5580.98830,0.05285
5582.91677,0.02112
5584.84524,0.01183
5586.77371,0.03956
5588.70217,0.05119
5590.63064,0.03930
5592.55911,0.02747
5594.48758,0.02070
5596.41605,0.03337
5598.34452,0.05531
5600.27299,0.05467
5602.20145,0.03651
5604.12992,0.03182
5606.05839,0.04989
5607.98686,0.07089
5609.91533,0.08587
5611.84380,0.08987
5613.77227,0.07809
5615.70074,0.06941
5617.62920,0.07030
5619.55767,0.06781
5621.48614,0.05758
5623.41461,0.05078
5625.34308,0.05258
5627.27155,0.05664
5629.20002,0.06714
5631.12848,0.07968
5633.05695,0.07134
5634.98542,0.03854
5636.91389,0.01934
5638.84236,0.03216
5640.77083,0.04429
5642.69930,0.04259
5644.62777,0.04019
5646.55623,0.03965
5648.48470,0.04379
5650.41317,0.04805
5652.34164,0.03585
5654.27011,0.01948
5656.19858,0.02564
5658.12705,0.04616
5660.05551,0.05912
5661.98398,0.05487
5663.91245,0.03303
5665.84092,0.00531
5667.76939,-0.02247
5669.69786,-0.03876
5671.62633,-0.01865
5673.55480,0.02229
5675.48326,0.04400
5677.41173,0.03922
5679.34020,0.02629
5681.26867,0.01856
5683.19714,0.02609
5685.12561,0.04492
5687.05408,0.05293
5688.98254,0.04419
5690.91101,0.04016
5692.83948,0.05829
5694.76795,0.07035
5696.69642,0.04801
5698.62489,0.03142
5700.55336,0.04441
5702.48183,0.04876
5704.41029,0.03571
5706.33876,0.03021
5708.26723,0.03440
5710.19570,0.03713
5712.12417,0.03719
5714.05264,0.03999
5715.98111,0.04463
5717.90957,0.03574
5719.83804,0.01156
5721.76651,-0.00804
5723.69498,-0.00902
5725.62345,0.00270
5727.55192,0.01931
5729.48039,0.03292
5731.40886,0.02569
5733.33732,0.01272
5735.26579,0.02220
5737.19426,0.04228
5739.12273,0.04910
5741.05120,0.04511
5742.97967,0.04615
5744.90814,0.05215
5746.83660,0.06210
5748.76507,0.08470
5750.69354,0.09892
5752.62201,0.07385
5754.55048,0.03562
5756.47895,0.02409
5758.40742,0.02832
5760.33588,0.03293
5762.26435,0.04849
5764.19282,0.06318
5766.12129,0.04677
5768.04976,0.01029
5769.97823,-0.00595
5771.90670,0.00412
5773.83517,0.01803
5775.76363,0.03687
5777.69210,0.05972
5779.62057,0.07081
5781.54904,0.06929
5783.47751,0.06675
5785.40598,0.06913
5787.33445,0.06046
5789.26291,0.03955
5791.19138,0.02405
5793.11985,0.00788
5795.04832,0.00416
5796.97679,0.03734
5798.90526,0.07212
5800.83373,0.07669
5802.76220,0.06831
5804.69066,0.04690
5806.61913,0.01770
5808.54760,0.01295
5810.47607,0.02799
5812.40454,0.04152
5814.33301,0.04352
5816.26148,0.03925
5818.18994,0.04140
5820.11841,0.04470
5822.04688,0.04528
5823.97535,0.04527
5825.90382,0.04694
5827.83229,0.05478
5829.76076,0.05581
5831.68923,0.04441
5833.61769,0.04821
5835.54616,0.07071
5837.47463,0.07261
5839.40310,0.05518
5841.33157,0.04259
5843.26004,0.02749
5845.18851,0.01555
5847.11697,0.01814
5849.04544,0.03783
5850.97391,0.07067
5852.90238,0.08578
5854.83085,0.06830
5856.75932,0.04117
5858.68779,0.02726
5860.61626,0.02638
5862.54472,0.03370
5864.47319,0.04006
5866.40166,0.03826
5868.33013,0.03709
5870.25860,0.04064
5872.18707,0.04426
5874.11554,0.04559
5876.04400,0.05492
5877.97247,0.06958
5879.90094,0.06622
5881.82941,0.05682
5883.75788,0.05705
5885.68635,0.05692
5887.61482,0.04512
5889.54329,0.01560
5891.47175,-0.01794
5893.40022,-0.04246
5895.32869,-0.04796
5897.25716,-0.03100
5899.18563,-0.02001
5901.11410,-0.02686
5903.04257,-0.02163
5904.97103,0.00264
5906.89950,0.02325
5908.82797,0.03080
5910.75644,0.01839
5912.68491,0.00208
5914.61338,0.01070
5916.54185,0.03267
5918.47032,0.05087
5920.39878,0.05693
5922.32725,0.04626
5924.25572,0.02472
5926.18419,-0.00009
5928.11266,-0.01249
5930.04113,-0.01315
5931.96960,-0.00486
5933.89806,0.02819
5935.82653,0.06071
5937.75500,0.05298
5939.68347,0.02467
5941.61194,0.00987
5943.54041,0.01921
5945.46888,0.04009
5947.39734,0.06137
5949.32581,0.07707
5951.25428,0.05933
5953.18275,0.02324
5955.11122,0.01742
5957.03969,0.04208
5958.96816,0.07311
5960.89663,0.09068
5962.82509,0.09624
5964.75356,0.08405
5966.68203,0.05144
5968.61050,0.02328
5970.53897,0.00597
5972.46744,0.01501
5974.39591,0.05020
5976.32437,0.06273
5978.25284,0.05507
5980.18131,0.05466
5982.10978,0.05333
5984.03825,0.03576
5985.96672,0.00438
5987.89519,-0.00876
5989.82366,0.01923
5991.75212,0.06677
5993.68059,0.09533
5995.60906,0.07789
5997.53753,0.04120
5999.46600,0.03581
6001.39447,0.05897
6003.32294,0.07752
6005.25140,0.06471
6007.17987,0.03031
6009.10834,0.01801
6011.03681,0.03977
6012.96528,0.06501
6014.89375,0.06451
6016.82222,0.03959
6018.75069,0.02048
6020.67915,0.02002
6022.60762,0.01244
6024.53609,-0.00996
6026.46456,-0.01721
6028.39303,-0.00892
6030.32150,-0.00859
6032.24997,-0.00619
6034.17843,-0.00247
6036.10690,0.00110
6038.03537,0.01986
6039.96384,0.02954
6041.89231,0.01873
6043.82078,0.01020
6045.74925,0.01350
6047.67772,0.03641
6049.60618,0.07653
6051.53465,0.10421
6053.46312,0.08169
6055.39159,0.01138
6057.32006,-0.01834
6059.24853,0.01785
6061.17700,0.03400
6063.10546,0.00528
6065.03393,-0.01053
6066.96240,0.00139
6068.89087,0.00584
6070.81934,0.00291
6072.74781,0.00818
6074.67628,-0.00008
6076.60475,-0.01651
6078.53321,-0.01331
6080.46168,-0.00117
6082.39015,0.02325
6084.31862,0.05360
6086.24709,0.04995
6088.17556,0.03079
6090.10403,0.03371
6092.03249,0.04507
6093.96096,0.03493
6095.88943,0.01181
6097.81790,0.01530
6099.74637,0.04016
6101.67484,0.05161
6103.60331,0.04024
6105.53177,0.02378
6107.46024,0.01957
6109.38871,0.01603
6111.31718,-0.00126
6113.24565,-0.01034
6115.17412,-0.00151
6117.10259,0.01517
6119.03106,0.03930
6120.95952,0.05014
6122.88799,0.04543
6124.81646,0.06522
6126.74493,0.09874
6128.67340,0.08198
6130.60187,0.04170
6132.53034,0.04644
6134.45880,0.05501
6136.38727,0.03384
6138.31574,0.01088
6140.24421,0.00603
6142.17268,0.03779
6144.10115,0.07264
6146.02962,0.05949
6147.95809,0.02463
6149.88655,-0.00328
6151.81502,-0.02200
6153.74349,-0.01272
6155.67196,0.02853
6157.60043,0.06355
6159.52890,0.05729
6161.45737,0.03708
6163.38583,0.04811
6165.31430,0.06663
6167.24277,0.06283
6169.17124,0.04063
6171.09971,0.01977
6173.02818,0.01741
6174.95665,0.02283
6176.88512,0.05030
6178.81358,0.09173
6180.74205,0.09620
6182.67052,0.05732
6184.59899,-0.00417
6186.52746,-0.04682
6188.45593,-0.02592
6190.38440,0.02046
6192.31286,0.04417
6194.24133,0.05243
6196.16980,0.04900
6198.09827,0.03955
6200.02674,0.05052
6201.95521,0.08455
6203.88368,0.09067
6205.81215,0.04866
6207.74061,0.02090
6209.66908,0.02088
6211.59755,0.01532
6213.52602,0.01363
6215.45449,0.01843
6217.38296,0.01775
6219.31143,0.01712
6221.23989,0.02837
6223.16836,0.04881
6225.09683,0.05530
6227.02530,0.05558
6228.95377,0.06528
6230.88224,0.05931
6232.81071,0.04594
6234.73918,0.04990
6236.66764,0.05204
6238.59611,0.05220
6240.52458,0.06326
6242.45305,0.06857
6244.38152,0.05278
6246.30999,0.04364
6248.23846,0.05577
6250.16692,0.06819
6252.09539,0.07136
6254.02386,0.06060
6255.95233,0.04711
6257.88080,0.04953
6259.80927,0.06489
6261.73774,0.06819
6263.66621,0.04486
6265.59467,0.02827
6267.52314,0.04065
6269.45161,0.04975
6271.38008,0.03760
6273.30855,0.03330
6275.23702,0.06228
6277.16549,0.09189
6279.09395,0.08309
6281.02242,0.03377
6282.95089,-0.00454
6284.87936,0.00939
6286.80783,0.03545
6288.73630,0.05011
6290.66477,0.05687
6292.59323,0.04002
6294.52170,0.04029
6296.45017,0.08162
6298.37864,0.08495
6300.30711,0.03493
6302.23558,0.00925
6304.16405,0.02750
6306.09252,0.05643
6308.02098,0.06812
6309.94945,0.04518
6311.87792,0.01731
6313.80639,0.02094
6315.73486,0.05066
6317.66333,0.08816
6319.59180,0.10551
6321.52026,0.09207
6323.44873,0.07035
6325.37720,0.05912
6327.30567,0.05994
6329.23414,0.06014
6331.16261,0.05798
6333.09108,0.05916
6335.01955,0.05488
6336.94801,0.03286
6338.87648,-0.01276
6340.80495,-0.05124
6342.73342,-0.04627
6344.66189,-0.01122
6346.59036,0.02990
6348.51883,0.05081
6350.44729,0.02211
6352.37576,-0.02234
6354.30423,-0.02636
6356.23270,0.00230
6358.16117,0.02350
6360.08964,0.03373
6362.01811,0.05622
6363.94658,0.07668
6365.87504,0.09477
6367.80351,0.10685
6369.73198,0.08893
6371.66045,0.08027
6373.58892,0.11136
6375.51739,0.11649
6377.44586,0.06442
6379.37432,0.03930
6381.30279,0.06095
6383.23126,0.04724
6385.15973,0.01247
6387.08820,0.01993
6389.01667,0.03180
6390.94514,0.03319
6392.87361,0.06136
6394.80207,0.09687
6396.73054,0.09392
6398.65901,0.04887
6400.58748,-0.00366
6402.51595,-0.00030
6404.44442,0.03562
6406.37289,0.02323
6408.30135,-0.02404
6410.22982,-0.03721
6412.15829,-0.00905
6414.08676,0.02635
6416.01523,0.03105
6417.94370,-0.00361
6419.87217,-0.02175
6421.80064,0.00911
6423.72910,0.05776
6425.65757,0.10983
6427.58604,0.13987
6429.51451,0.12287
6431.44298,0.11666
6433.37145,0.13297
6435.29992,0.11287
6437.22838,0.06713
6439.15685,0.03772
6441.08532,0.03930
6443.01379,0.04008
6444.94226,0.01204
6446.87073,0.00324
6448.79920,0.02509
6450.72766,0.02233
6452.65613,-0.00379
6454.58460,-0.00691
6456.51307,-0.00137
6458.44154,-0.01884
6460.37001,-0.00868
6462.29848,0.05573
6464.22695,0.08322
6466.15541,0.06448
6468.08388,0.07423
6470.01235,0.07549
6471.94082,0.02591
6473.86929,-0.01056
6475.79776,0.00642
6477.72623,0.02578
6479.65469,-0.01456
6481.58316,-0.08508
6483.51163,-0.08934
6485.44010,-0.00745
6487.36857,0.06362
6489.29704,0.06936
6491.22551,0.05375
6493.15398,0.03860
6495.08244,0.02267
6497.01091,0.02253
6498.93938,0.03674
6500.86785,0.03701
6502.79632,0.00930
6504.72479,-0.01340
6506.65326,-0.00568
6508.58172,0.03264
6510.51019,0.06198
6512.43866,0.05033
6514.36713,0.03458
6516.29560,0.02274
6518.22407,-0.00896
6520.15254,-0.05103
6522.08101,-0.07599
6524.00947,-0.05583
6525.93794,0.00385
6527.86641,0.05250
6529.79488,0.02845
6531.72335,-0.04628
6533.65182,-0.06325
6535.58029,-0.03218
6537.50875,-0.02300
6539.43722,0.00109
6541.36569,0.04569
6543.29416,0.06572
6545.22263,0.06214
6547.15110,0.04858
6549.07957,0.04805
6551.00804,0.07920
6552.93650,0.12664
6554.86497,0.13577
6556.79344,0.09198
6558.72191,0.07175
6560.65038,0.09028
6562.57885,0.11228
6564.50732,0.12199
6566.43578,0.11256
6568.36425,0.13975
6570.29272,0.18072
6572.22119,0.16756
6574.14966,0.13062
6576.07813,0.09048
6578.00660,0.06220
6579.93507,0.04497
6581.86353,-0.01491
6583.79200,-0.08333
6585.72047,-0.08984
6587.64894,-0.05768
6589.57741,-0.02588
6591.50588,-0.00741
6593.43435,-0.00542
6595.36281,0.00995
6597.29128,0.06387
6599.21975,0.11640
6601.14822,0.12026
6603.07669,0.08512
6605.00516,0.05600
6606.93363,0.03579
6608.86210,0.03209
6610.79056,0.06467
6612.71903,0.07466
6614.64750,0.05671
6616.57597,0.05791
6618.50444,0.03495
6620.43291,0.00396
6622.36138,0.01035
6624.28984,0.03359
6626.21831,0.06140
6628.14678,0.06955
6630.07525,0.03257
6632.00372,-0.00738
6633.93219,-0.04042
6635.86066,-0.04987
6637.78912,0.00399
6639.71759,0.05178
6641.64606,0.05436
6643.57453,0.06063
6645.50300,0.06810
6647.43147,0.02947
6649.35994,-0.00686
6651.28841,-0.01898
6653.21687,-0.05876
6655.14534,-0.10080
6657.07381,-0.07905
6659.00228,-0.01663
6660.93075,0.01455
6662.85922,-0.00041
6664.78769,-0.02644
6666.71615,-0.03424
6668.64462,-0.03531
6670.57309,-0.03120
6672.50156,-0.00310
6674.43003,0.00948
6676.35850,0.02843
6678.28697,0.10151
6680.21544,0.15350
6682.14390,0.11158
6684.07237,0.03938
6686.00084,0.02247
6687.92931,0.02446
6689.85778,0.01470
6691.78625,0.00370
6693.71472,-0.01507
6695.64318,-0.03580
6697.57165,-0.03481
6699.50012,-0.01887
6701.42859,0.00284
6703.35706,0.04933
6705.28553,0.06526
6707.21400,0.01462
6709.14247,-0.04217
6711.07093,-0.06588
6712.99940,-0.06362
6714.92787,-0.05427
6716.85634,-0.03883
6718.78481,-0.01737
6720.71328,-0.01047
6722.64175,-0.02913
6724.57021,-0.03761
6726.49868,-0.01684
6728.42715,0.00660
6730.35562,0.04150
6732.28409,0.07551
6734.21256,0.06639
6736.14103,0.02930
6738.06950,0.00458
6739.99796,0.00348
6741.92643,0.01883
6743.85490,0.02471
6745.78337,0.04464
6747.71184,0.10326
6749.64031,0.12821
6751.56878,0.09005
6753.49724,0.04695
6755.42571,0.01826
6757.35418,0.00051
6759.28265,-0.00936
6761.21112,-0.03403
6763.13959,-0.07188
6765.06806,-0.08662
6766.99653,-0.06420
6768.92499,-0.02525
6770.85346,-0.01112
6772.78193,-0.02083
6774.71040,-0.00760
6776.63887,-0.00022
6778.56734,-0.01303
6780.49581,0.00796
6782.42427,0.02533
6784.35274,0.01607
6786.28121,0.03691
6788.20968,0.08382
6790.13815,0.10460
6792.06662,0.07239
6793.99509,0.02817
6795.92355,0.01000
6797.85202,0.01685
6799.78049,0.05076
6801.70896,0.07537
6803.63743,0.06410
6805.56590,0.07368
6807.49437,0.10193
6809.42284,0.10836
6811.35130,0.07892
6813.27977,0.03024
6815.20824,0.01555
6817.13671,0.02809
6819.06518,0.04501
6820.99365,0.06712
6822.92212,0.02542
6824.85058,-0.07068
6826.77905,-0.08545
6828.70752,-0.02460
6830.63599,0.01644
6832.56446,0.03977
6834.49293,0.06343
6836.42140,0.03419
6838.34987,-0.00755
6840.27833,0.04184
6842.20680,0.11370
6844.13527,0.09674
6846.06374,0.02927
6847.99221,-0.03211
6849.92068,-0.06178
6851.84915,-0.03132
6853.77761,0.01691
6855.70608,0.05169
6857.63455,0.10324
6859.56302,0.13945
6861.49149,0.10114
6863.41996,0.03900
6865.34843,-0.01620
6867.27690,-0.07415
6869.20536,-0.07756
6871.13383,-0.04538
6873.06230,-0.02697
6874.99077,-0.01710
6876.91924,-0.01328
6878.84771,-0.01544
6880.77618,-0.03654
6882.70464,-0.07129
6884.63311,-0.03376
6886.56158,0.06394
6888.49005,0.10595
6890.41852,0.09888
6892.34699,0.11318
6894.27546,0.13774
6896.20393,0.12255
6898.13239,0.07444
6900.06086,0.01875
6901.98933,-0.01898
6903.91780,-0.03308
6905.84627,-0.05946
6907.77474,-0.04451
6909.70321,0.04346
6911.63167,0.14093
6913.56014,0.16338
6915.48861,0.11774
6917.41708,0.07086
6919.34555,0.04058
6921.27402,0.03228
6923.20249,0.06923
6925.13096,0.08571
6927.05942,0.07025
6928.98789,0.07975
6930.91636,0.08247
6932.84483,0.04039
6934.77330,-0.00201
6936.70177,-0.02836
6938.63024,-0.06075
6940.55870,-0.08923
6942.48717,-0.06278
6944.41564,-0.01434
6946.34411,0.00635
6948.27258,0.01470
6950.20105,0.02149
6952.12952,0.00085
6954.05799,-0.01295
6955.98645,0.02996
6957.91492,0.07290
6959.84339,0.05425
6961.77186,-0.01510
6963.70033,-0.05744
6965.62880,-0.01703
6967.55727,0.05545
6969.48573,0.06657
6971.41420,0.05098
6973.34267,0.09890
6975.27114,0.14005
6977.19961,0.08397
6979.12808,0.01474
6981.05655,-0.01631
6982.98501,-0.03976
6984.91348,-0.04265
6986.84195,-0.02295
6988.77042,-0.02358
6990.69889,-0.03720
6992.62736,-0.03076
6994.55583,0.00603
6996.48430,0.06613
6998.41276,0.12406
7000.34123,0.13451
7002.26970,0.08186
7004.19817,0.02532
7006.12664,0.01173
7008.05511,0.02136
7009.98358,0.03511
7011.91204,0.05670
7013.84051,0.06894
7015.76898,0.05022
7017.69745,0.01803
7019.62592,-0.00000
7021.55439,-0.01215
7023.48286,-0.02682
7025.41133,-0.02026
7027.33979,-0.00383
7029.26826,-0.00100
7031.19673,-0.01275
7033.12520,-0.04181
7035.05367,-0.04401
7036.98214,-0.00611
7038.91061,-0.00108
7040.83907,-0.01733
7042.76754,0.02594
7044.69601,0.10330
7046.62448,0.11022
7048.55295,0.10105
7050.48142,0.11668
7052.40989,0.10888
7054.33836,0.06221
7056.26682,-0.06380
7058.19529,-0.14192
7060.12376,-0.03175
7062.05223,0.10833
7063.98070,0.16742
7065.90917,0.12942
7067.83764,0.09595
7069.76610,0.17581
7071.69457,0.20991
7073.62304,0.09578
7075.55151,-0.00013
7077.47998,-0.00029
7079.40845,0.04197
7081.33692,0.02719
7083.26539,-0.00331
7085.19385,0.07834
7087.12232,0.18598
7089.05079,0.15936
7090.97926,0.05451
7092.90773,-0.01273
7094.83620,0.00831
7096.76467,0.09916
7098.69313,0.17462
7100.62160,0.16922
7102.55007,0.12815
7104.47854,0.06254
7106.40701,-0.01207
7108.33548,-0.08579
7110.26395,-0.13757
7112.19242,-0.11871
7114.12088,-0.06623
7116.04935,-0.06965
7117.97782,-0.13218
7119.90629,-0.12397
7121.83476,-0.03699
7123.76323,0.01340
7125.69170,0.02946
7127.62016,0.05485
7129.54863,0.05101
7131.47710,0.00868
7133.40557,-0.02810
7135.33404,-0.05501
7137.26251,-0.05574
7139.19098,-0.00532
7141.11944,0.03447
7143.04791,0.01776
7144.97638,-0.00552
7146.90485,0.01761
7148.83332,0.06548
7150.76179,0.09951
7152.69026,0.10016
7154.61873,0.09101
7156.54719,0.09029
7158.47566,0.09283
7160.40413,0.13599
7162.33260,0.18867
7164.26107,0.14109
7166.18954,-0.02466
7168.11801,-0.18246
7170.04647,-0.17519
7171.97494,0.00750
7173.90341,0.14530
7175.83188,0.09209
7177.76035,-0.02620
7179.68882,-0.01669
7181.61729,0.07678
7183.54576,0.08617
7185.47422,0.01614
7187.40269,-0.03424
7189.33116,-0.06007
7191.25963,-0.02095
7193.18810,0.01195
7195.11657,0.00212
7197.04504,0.04853
7198.97350,0.08004
7200.90197,0.03607
7202.83044,-0.01841
7204.75891,-0.06077
7206.68738,-0.04696
7208.61585,0.00332
7210.54432,0.00562
7212.47279,-0.02249
7214.40125,-0.02757
7216.32972,-0.02265
7218.25819,-0.04152
7220.18666,-0.06093
7222.11513,-0.03117
7224.04360,0.03700
7225.97207,0.07280
7227.90053,0.08739
7229.82900,0.16267
7231.75747,0.20974
7233.68594,0.13812
7235.61441,0.07392
7237.54288,0.07395
7239.47135,0.08817
7241.39982,0.08233
7243.32828,0.04163
7245.25675,-0.02734
7247.18522,-0.06215
7249.11369,-0.05520
7251.04216,-0.06219
7252.97063,-0.05945
7254.89910,0.00379
7256.82756,0.04825
7258.75603,0.05078
7260.68450,0.05570
7262.61297,0.07985
7264.54144,0.06605
7266.46991,0.04975
7268.39838,0.05336
7270.32685,0.06411
7272.25531,0.12809
7274.18378,0.12915
7276.11225,0.01477
7278.04072,-0.05171
7279.96919,-0.03861
7281.89766,-0.07066
7283.82613,-0.09903
7285.75459,-0.09341
7287.68306,-0.09971
7289.61153,-0.09082
7291.54000,-0.04690
7293.46847,0.00397
7295.39694,0.02001
7297.32541,0.01049
7299.25387,0.02935
7301.18234,0.05238
7303.11081,0.04520
7305.03928,0.07983
7306.96775,0.22223
7308.89622,0.39372
7310.82469,0.39419
7312.75316,0.18525
7314.68162,-0.04959
7316.61009,-0.07201
7318.53856,0.00315
7320.46703,-0.02430
7322.39550,0.04148
7324.32397,0.16718
7326.25244,0.18820
7328.18090,0.21720
7330.10937,0.23473
7332.03784,0.17279
7333.96631,0.14546
7335.89478,0.13994
7337.82325,0.02109
7339.75172,-0.25245
7341.68019,-0.32140
7343.60865,-0.19017
7345.53712,-0.11444
7347.46559,-0.07810
7349.39406,0.01967
7351.32253,0.14306
7353.25100,0.19082
7355.17947,0.10305
7357.10793,-0.10865
7359.03640,-0.29597
7360.96487,-0.28459
7362.89334,-0.08010
7364.82181,0.08737
7366.75028,0.08504
7368.67875,0.04998
7370.60722,0.08270
7372.53568,0.10488
7374.46415,0.04785
7376.39262,0.08894
7378.32109,0.25454
7380.24956,0.27997
7382.17803,0.11645
7384.10650,0.01169
7386.03496,0.07415
7387.96343,0.16164
7389.89190,0.24793
7391.82037,0.35907
7393.74884,0.38114
7395.67731,0.28069
7397.60578,0.19577
7399.53425,0.15758
7401.46271,0.12667
7403.39118,0.11708
7405.31965,0.16857
7407.24812,0.27181
7409.17659,0.35462
7411.10506,0.33647
7413.03353,0.21603
7414.96199,0.09418
7416.89046,0.08899
7418.81893,0.20114
7420.74740,0.19535
7422.67587,0.03826
7424.60434,-0.11115
7426.53281,-0.16326
7428.46128,-0.07896
7430.38974,0.03014
7432.31821,0.01577
7434.24668,-0.02562
7436.17515,-0.05158
7438.10362,-0.02527
7440.03209,0.05699
7441.96056,0.07742
7443.88902,-0.00776
7445.81749,-0.01968
7447.74596,0.00833
7449.67443,-0.01008
7451.60290,0.05385
7453.53137,0.16206
7455.45984,0.13639
7457.38831,0.04279
7459.31677,0.05603
7461.24524,0.10401
7463.17371,0.00465
7465.10218,-0.11345
7467.03065,-0.14872
7468.95912,-0.15225
7470.88759,-0.14722
7472.81605,-0.04619
7474.74452,0.10976
7476.67299,0.14602
7478.60146,0.06274
7480.52993,-0.00770
7482.45840,-0.02471
7484.38687,0.02441
7486.31533,0.09292
7488.24380,0.13906
7490.17227,0.18597
7492.10074,0.18856
7494.02921,0.10431
7495.95768,-0.03479
7497.88615,-0.14301
