399.19301,0.02646
401.12148,-0.03524
403.04995,-0.04645
404.97842,0.01692
406.90689,0.10328
408.83536,0.10106
410.76382,0.06147
412.69229,0.05180
414.62076,0.01349
416.54923,-0.03490
418.47770,-0.05193
420.40617,-0.01993
422.33464,0.04408
424.26311,0.10261
426.19157,0.11334
428.12004,0.07401
430.04851,0.04296
431.97698,0.02249
433.90545,-0.06468
435.83392,-0.12785
437.76239,-0.05916
439.69085,0.06367
441.61932,0.10280
443.54779,0.07274
445.47626,0.06928
447.40473,0.06126
449.33320,0.02758
451.26167,0.03373
453.19013,0.08749
455.11860,0.11717
457.04707,0.11097
458.97554,0.10194
460.90401,0.07925
462.83248,0.03166
464.76095,-0.00111
466.68942,0.01759
468.61788,0.04591
470.54635,0.04874
472.47482,0.00377
474.40329,-0.06014
476.33176,-0.02944
478.26023,0.02431
480.18870,0.05651
482.11716,0.06314
484.04563,0.03686
485.97410,0.01610
487.90257,0.03623
489.83104,0.05250
491.75951,0.04829
493.68798,0.05605
495.61645,0.05034
497.54491,0.02879
499.47338,0.04627
501.40185,0.08564
503.33032,0.07814
505.25879,0.03862
507.18726,0.01116
509.11573,0.00312
511.04419,0.00896
512.97266,0.01259
514.90113,0.01037
516.82960,0.00830
518.75807,0.01240
520.68654,0.02510
522.61501,0.04332
524.54348,0.06758
526.47194,0.07154
528.40041,0.04856
530.32888,0.03865
532.25735,0.04599
534.18582,0.04872
536.11429,0.04431
538.04276,0.03384
539.97122,0.02450
541.89969,0.02246
543.82816,0.02498
545.75663,0.03588
547.68510,0.04534
549.61357,0.05319
551.54204,0.12262
553.47051,0.22459
555.39897,0.21728
557.32744,0.12478
559.25591,0.07313
561.18438,0.06009
563.11285,0.05739
565.04132,0.06703
566.96979,0.08114
568.89825,0.08446
570.82672,0.07210
572.75519,0.05495
574.68366,0.04917
576.61213,0.05773
578.54060,0.06296
580.46907,0.06634
582.39754,0.07054
584.32600,0.06454
586.25447,0.06000
588.18294,0.06151
590.11141,0.04885
592.03988,0.03106
593.96835,0.03139
595.89682,0.03631
597.82528,0.03634
599.75375,0.03854
601.68222,0.03474
603.61069,0.01646
605.53916,0.00563
607.46763,0.02053
609.39610,0.04058
611.32456,0.05242
613.25303,0.06314
615.18150,0.06060
617.10997,0.04043
619.03844,0.02784
620.96691,0.03288
622.89538,0.04514
624.82385,0.05557
626.75231,0.05481
628.68078,0.03912
630.60925,0.03073
632.53772,0.05015
634.46619,0.07310
636.39466,0.07537
638.32313,0.06993
640.25159,0.06659
642.18006,0.05687
644.10853,0.04188
646.03700,0.03910
647.96547,0.05081
649.89394,0.05786
651.82241,0.05329
653.75088,0.04208
655.67934,0.02826
657.60781,0.02596
659.53628,0.04018
661.46475,0.05293
663.39322,0.05859
665.32169,0.06800
667.25016,0.08013
669.17862,0.07611
671.10709,0.06165
673.03556,0.05242
674.96403,0.04647
676.89250,0.04554
678.82097,0.05623
680.74944,0.06654
682.67791,0.06098
684.60637,0.05695
686.53484,0.06775
688.46331,0.07390
690.39178,0.06404
692.32025,0.05085
694.24872,0.04974
696.17719,0.05799
698.10565,0.05969
700.03412,0.05377
701.96259,0.04593
703.89106,0.04324
705.81953,0.05081
707.74800,0.05501
709.67647,0.05078
711.60494,0.05017
713.53340,0.05467
715.46187,0.05589
717.39034,0.05108
719.31881,0.04762
721.24728,0.05118
723.17575,0.05492
725.10422,0.05195
727.03268,0.04371
728.96115,0.03647
730.88962,0.03798
732.81809,0.04560
734.74656,0.04938
736.67503,0.04800
738.60350,0.04784
740.53197,0.05277
742.46043,0.05712
744.38890,0.05537
746.31737,0.04809
748.24584,0.04277
750.17431,0.05009
752.10278,0.06229
754.03125,0.06669
755.95971,0.06641
757.88818,0.06377
759.81665,0.06120
761.74512,0.06141
763.67359,0.05931
765.60206,0.05547
767.53053,0.05697
769.45900,0.06342
771.38746,0.07146
773.31593,0.07412
775.24440,0.06265
777.17287,0.04991
779.10134,0.05282
781.02981,0.05769
782.95828,0.04940
784.88674,0.04176
786.81521,0.05147
788.74368,0.06929
790.67215,0.07394
792.60062,0.06523
794.52909,0.05814
796.45756,0.05520
798.38602,0.05359
800.31449,0.05311
802.24296,0.05153
804.17143,0.05214
806.09990,0.05694
808.02837,0.06065
809.95684,0.06224
811.88531,0.06281
813.81377,0.05988
815.74224,0.05818
817.67071,0.05890
819.59918,0.05545
821.52765,0.05342
823.45612,0.05695
825.38459,0.05668
827.31305,0.05226
829.24152,0.05330
831.16999,0.05872
833.09846,0.06119
835.02693,0.05662
836.95540,0.05038
838.88387,0.05133
840.81234,0.05699
842.74080,0.05847
844.66927,0.05323
846.59774,0.04800
848.52621,0.04778
850.45468,0.05264
852.38315,0.05761
854.31162,0.05763
856.24008,0.05649
858.16855,0.06185
860.09702,0.06985
862.02549,0.06804
863.95396,0.05926
865.88243,0.06190
867.81090,0.09898
869.73937,0.13921
871.66783,0.12182
873.59630,0.08104
875.52477,0.06695
877.45324,0.06505
879.38171,0.06398
881.31018,0.06328
883.23865,0.06455
885.16711,0.06704
887.09558,0.06275
889.02405,0.05273
890.95252,0.04491
892.88099,0.04590
894.80946,0.05497
896.73793,0.06042
898.66640,0.05402
900.59486,0.04466
902.52333,0.04443
904.45180,0.05519
906.38027,0.06767
908.30874,0.07018
910.23721,0.06705
912.16568,0.06600
914.09414,0.06270
916.02261,0.05663
917.95108,0.05243
919.87955,0.05236
921.80802,0.05673
923.73649,0.06293
925.66496,0.06692
927.59343,0.06640
929.52189,0.06467
931.45036,0.06314
933.37883,0.05704
935.30730,0.04952
937.23577,0.04980
939.16424,0.05557
941.09271,0.05794
943.02117,0.05706
944.94964,0.05586
946.87811,0.05318
948.80658,0.05074
950.73505,0.05139
952.66352,0.05430
954.59199,0.05760
956.52045,0.06234
958.44892,0.06929
960.37739,0.07194
962.30586,0.06558
964.23433,0.05694
966.16280,0.05354
968.09127,0.05644
970.01974,0.06162
971.94820,0.06400
973.87667,0.06367
975.80514,0.06191
977.73361,0.06070
979.66208,0.06279
981.59055,0.06551
983.51902,0.06567
985.44748,0.06466
987.37595,0.06572
989.30442,0.07189
991.23289,0.07942
993.16136,0.07968
995.08983,0.07405
997.01830,0.06794
998.94677,0.06015
1000.87523,0.05466
1002.80370,0.05673
1004.73217,0.06203
1006.66064,0.06499
1008.58911,0.06391
1010.51758,0.06041
1012.44605,0.05571
1014.37451,0.05176
1016.30298,0.05348
1018.23145,0.05848
1020.15992,0.05950
1022.08839,0.05809
1024.01686,0.05939
1025.94533,0.05494
1027.87380,0.04145
1029.80226,0.03913
1031.73073,0.05478
1033.65920,0.07002
1035.58767,0.07210
1037.51614,0.06399
1039.44461,0.05769
1041.37308,0.05960
1043.30154,0.06605
1045.23001,0.07347
1047.15848,0.07808
1049.08695,0.07352
1051.01542,0.06603
1052.94389,0.06721
1054.87236,0.07055
1056.80083,0.06550
1058.72929,0.05876
1060.65776,0.06198
1062.58623,0.07264
1064.51470,0.07945
1066.44317,0.07712
1068.37164,0.07037
1070.30011,0.06619
1072.22857,0.06413
1074.15704,0.06162
1076.08551,0.06288
1078.01398,0.06828
1079.94245,0.06888
1081.87092,0.06398
1083.79939,0.06162
1085.72786,0.06006
1087.65632,0.05589
1089.58479,0.05521
1091.51326,0.05856
1093.44173,0.05900
1095.37020,0.05412
1097.29867,0.05165
1099.22714,0.05760
1101.15560,0.06218
1103.08407,0.06057
1105.01254,0.06012
1106.94101,0.06361
1108.86948,0.07104
1110.79795,0.07833
1112.72642,0.07941
1114.65489,0.07701
1116.58335,0.07518
1118.51182,0.07211
1120.44029,0.06989
1122.36876,0.07299
1124.29723,0.07744
1126.22570,0.07603
1128.15417,0.06814
1130.08263,0.06010
1132.01110,0.05814
1133.93957,0.06194
1135.86804,0.06690
1137.79651,0.07038
1139.72498,0.07205
1141.65345,0.07217
1143.58191,0.07083
1145.51038,0.06899
1147.43885,0.06728
1149.36732,0.06470
1151.29579,0.06435
1153.22426,0.06939
1155.15273,0.07594
1157.08120,0.07760
1159.00966,0.07337
1160.93813,0.06851
1162.86660,0.06588
1164.79507,0.06515
1166.72354,0.06618
1168.65201,0.06848
1170.58048,0.07320
1172.50894,0.07839
1174.43741,0.07953
1176.36588,0.07855
1178.29435,0.07820
1180.22282,0.07533
1182.15129,0.06947
1184.07976,0.06695
1186.00823,0.06923
1187.93669,0.06904
1189.86516,0.06761
1191.79363,0.07048
1193.72210,0.07110
1195.65057,0.06823
1197.57904,0.06892
1199.50751,0.06992
1201.43597,0.06749
1203.36444,0.06585
1205.29291,0.06689
1207.22138,0.06646
1209.14985,0.06287
1211.07832,0.06171
1213.00679,0.06466
1214.93526,0.06775
1216.86372,0.06917
1218.79219,0.06901
1220.72066,0.06998
1222.64913,0.07360
1224.57760,0.07678
1226.50607,0.07658
1228.43454,0.07433
1230.36300,0.07338
1232.29147,0.07350
1234.21994,0.07288
1236.14841,0.07208
1238.07688,0.07157
1240.00535,0.07110
1241.93382,0.07120
1243.86229,0.07133
1245.79075,0.07050
1247.71922,0.06981
1249.64769,0.07005
1251.57616,0.07019
1253.50463,0.07019
1255.43310,0.07064
1257.36157,0.07066
1259.29003,0.07077
1261.21850,0.07173
1263.14697,0.07221
1265.07544,0.07258
1267.00391,0.07226
1268.93238,0.07049
1270.86085,0.06940
1272.78932,0.06947
1274.71778,0.07094
1276.64625,0.07343
1278.57472,0.07474
1280.50319,0.07414
1282.43166,0.07306
1284.36013,0.07368
1286.28860,0.07567
1288.21706,0.07709
1290.14553,0.07736
1292.07400,0.07558
1294.00247,0.07210
1295.93094,0.07032
1297.85941,0.07083
1299.78788,0.06976
1301.71634,0.06593
1303.64481,0.06206
1305.57328,0.06222
1307.50175,0.06770
1309.43022,0.07257
1311.35869,0.07311
1313.28716,0.07208
1315.21563,0.07040
1317.14409,0.06906
1319.07256,0.06936
1321.00103,0.06958
1322.92950,0.06971
1324.85797,0.07096
1326.78644,0.07347
1328.71491,0.07548
1330.64337,0.07445
1332.57184,0.07121
1334.50031,0.06797
1336.42878,0.06614
1338.35725,0.06747
1340.28572,0.07231
1342.21419,0.07777
1344.14266,0.08149
1346.07112,0.08239
1347.99959,0.07982
1349.92806,0.07645
1351.85653,0.07515
1353.78500,0.07539
1355.71347,0.07511
1357.64194,0.07318
1359.57040,0.07250
1361.49887,0.07495
1363.42734,0.07808
1365.35581,0.08046
1367.28428,0.08164
1369.21275,0.08198
1371.14122,0.08234
1373.06969,0.08100
1374.99815,0.07772
1376.92662,0.07564
1378.85509,0.07531
1380.78356,0.07557
1382.71203,0.07573
1384.64050,0.07605
1386.56897,0.07762
1388.49743,0.07881
1390.42590,0.07819
1392.35437,0.07865
1394.28284,0.08173
1396.21131,0.08484
1398.13978,0.08460
1400.06825,0.08245
1401.99672,0.08239
1403.92518,0.08368
1405.85365,0.08338
1407.78212,0.08138
1409.71059,0.07873
1411.63906,0.07792
1413.56753,0.08173
1415.49600,0.08680
1417.42446,0.08672
1419.35293,0.08149
1421.28140,0.08031
1423.20987,0.08175
1425.13834,0.08227
1427.06681,0.08390
1428.99528,0.08532
1430.92375,0.08275
1432.85221,0.07938
1434.78068,0.07974
1436.70915,0.08140
1438.63762,0.08076
1440.56609,0.08039
1442.49456,0.08130
1444.42303,0.08359
1446.35149,0.08587
1448.27996,0.08537
1450.20843,0.08437
1452.13690,0.08633
1454.06537,0.08967
1455.99384,0.09103
1457.92231,0.08706
1459.85077,0.08119
1461.77924,0.07753
1463.70771,0.07567
1465.63618,0.07510
1467.56465,0.07602
1469.49312,0.07977
1471.42159,0.08844
1473.35006,0.09628
1475.27852,0.09290
1477.20699,0.08592
1479.13546,0.08193
1481.06393,0.08072
1482.99240,0.08092
1484.92087,0.08283
1486.84934,0.08705
1488.77780,0.08969
1490.70627,0.08415
1492.63474,0.07792
1494.56321,0.07882
1496.49168,0.08516
1498.42015,0.08810
1500.34862,0.08607
1502.27709,0.08668
1504.20555,0.09294
1506.13402,0.10066
1508.06249,0.09479
1509.99096,0.08618
1511.91943,0.08362
1513.84790,0.08613
1515.77637,0.09017
1517.70483,0.09076
1519.63330,0.09276
1521.56177,0.09743
1523.49024,0.09574
1525.41871,0.09063
1527.34718,0.08606
1529.27565,0.08292
1531.20412,0.08215
1533.13258,0.08306
1535.06105,0.08353
1536.98952,0.08458
1538.91799,0.09002
1540.84646,0.09624
1542.77493,0.09194
1544.70340,0.08630
1546.63186,0.08366
1548.56033,0.08389
1550.48880,0.08577
1552.41727,0.08714
1554.34574,0.08755
1556.27421,0.09090
1558.20268,0.10468
1560.13115,0.10438
1562.05961,0.08965
1563.98808,0.08273
1565.91655,0.08189
1567.84502,0.08429
1569.77349,0.08801
1571.70196,0.08958
1573.63043,0.08945
1575.55889,0.08942
1577.48736,0.08851
1579.41583,0.08590
1581.34430,0.08349
1583.27277,0.08243
1585.20124,0.08243
1587.12971,0.08293
1589.05818,0.08310
1590.98664,0.08201
1592.91511,0.08052
1594.84358,0.08052
1596.77205,0.08161
1598.70052,0.08181
1600.62899,0.08164
1602.55746,0.08217
1604.48592,0.08326
1606.41439,0.08476
1608.34286,0.08549
1610.27133,0.08467
1612.19980,0.08396
1614.12827,0.08558
1616.05674,0.08953
1617.98521,0.09023
1619.91367,0.08802
1621.84214,0.08759
1623.77061,0.08848
1625.69908,0.08838
1627.62755,0.08662
1629.55602,0.08410
1631.48449,0.08378
1633.41295,0.08800
1635.34142,0.09541
1637.26989,0.09539
1639.19836,0.08975
1641.12683,0.08573
1643.05530,0.08511
1644.98377,0.08837
1646.91223,0.09233
1648.84070,0.09273
1650.76917,0.09283
1652.69764,0.09264
1654.62611,0.08873
1656.55458,0.08575
1658.48305,0.08398
1660.41152,0.08350
1662.33998,0.08547
1664.26845,0.08668
1666.19692,0.08636
1668.12539,0.08699
1670.05386,0.08525
1671.98233,0.08281
1673.91080,0.08614
1675.83926,0.09041
1677.76773,0.08994
1679.69620,0.08898
1681.62467,0.08862
1683.55314,0.08631
1685.48161,0.08461
1687.41008,0.08500
1689.33855,0.08581
1691.26701,0.08731
1693.19548,0.08964
1695.12395,0.09302
1697.05242,0.09408
1698.98089,0.09228
1700.90936,0.09238
1702.83783,0.09305
1704.76629,0.09310
1706.69476,0.09124
1708.62323,0.08764
1710.55170,0.08532
1712.48017,0.08386
1714.40864,0.08254
1716.33711,0.08218
1718.26558,0.08124
1720.19404,0.07993
1722.12251,0.07973
1724.05098,0.08081
1725.97945,0.08324
1727.90792,0.08628
1729.83639,0.08802
1731.76486,0.08776
1733.69332,0.08696
1735.62179,0.08660
1737.55026,0.08628
1739.47873,0.08439
1741.40720,0.08165
1743.33567,0.08128
1745.26414,0.08397
1747.19261,0.08860
1749.12107,0.09137
1751.04954,0.08802
1752.97801,0.08381
1754.90648,0.08321
1756.83495,0.08302
1758.76342,0.08158
1760.69189,0.08186
1762.62035,0.08370
1764.54882,0.08443
1766.47729,0.08498
1768.40576,0.08719
1770.33423,0.09163
1772.26270,0.09439
1774.19117,0.09114
1776.11964,0.08730
1778.04810,0.08503
1779.97657,0.08341
1781.90504,0.08329
1783.83351,0.08482
1785.76198,0.08567
1787.69045,0.08496
1789.61892,0.08448
1791.54738,0.08469
1793.47585,0.08436
1795.40432,0.08210
1797.33279,0.07967
1799.26126,0.08097
1801.18973,0.08413
1803.11820,0.08391
1805.04666,0.08249
1806.97513,0.08258
1808.90360,0.08298
1810.83207,0.08274
1812.76054,0.08249
1814.68901,0.08170
1816.61748,0.07897
1818.54595,0.07637
1820.47441,0.07739
1822.40288,0.08027
1824.33135,0.08222
1826.25982,0.08366
1828.18829,0.08594
1830.11676,0.08689
1832.04523,0.08426
1833.97369,0.08256
1835.90216,0.08375
1837.83063,0.08476
1839.75910,0.08380
1841.68757,0.08229
1843.61604,0.08060
1845.54451,0.07900
1847.47298,0.07969
1849.40144,0.08191
1851.32991,0.08284
1853.25838,0.08111
1855.18685,0.07834
1857.11532,0.07731
1859.04379,0.07829
1860.97226,0.07948
1862.90072,0.08004
1864.82919,0.08104
1866.75766,0.08369
1868.68613,0.08632
1870.61460,0.08480
1872.54307,0.08126
1874.47154,0.08060
1876.40001,0.08301
1878.32847,0.08593
1880.25694,0.08714
1882.18541,0.08571
1884.11388,0.08398
1886.04235,0.08446
1887.97082,0.08595
1889.89929,0.08544
1891.82775,0.08353
1893.75622,0.08366
1895.68469,0.08471
1897.61316,0.08370
1899.54163,0.08189
1901.47010,0.08157
1903.39857,0.08256
1905.32704,0.08365
1907.25550,0.08462
1909.18397,0.08465
1911.11244,0.08346
1913.04091,0.08299
1914.96938,0.08339
1916.89785,0.08258
1918.82632,0.08146
1920.75478,0.08263
1922.68325,0.08383
1924.61172,0.08271
1926.54019,0.08189
1928.46866,0.08219
1930.39713,0.08215
1932.32560,0.08230
1934.25407,0.08261
1936.18253,0.08249
1938.11100,0.08334
1940.03947,0.08538
1941.96794,0.08705
1943.89641,0.08841
1945.82488,0.08868
1947.75335,0.08660
1949.68181,0.08442
1951.61028,0.08449
1953.53875,0.08567
1955.46722,0.08487
1957.39569,0.08265
1959.32416,0.08239
1961.25263,0.08278
1963.18110,0.08282
1965.10956,0.08467
1967.03803,0.08678
1968.96650,0.08637
1970.89497,0.08464
1972.82344,0.08347
1974.75191,0.08241
1976.68038,0.08150
1978.60884,0.08147
1980.53731,0.08116
1982.46578,0.08083
1984.39425,0.08223
1986.32272,0.08366
1988.25119,0.08254
1990.17966,0.08090
1992.10812,0.08108
1994.03659,0.08195
1995.96506,0.08217
1997.89353,0.08201
1999.82200,0.08257
2001.75047,0.08324
2003.67894,0.08292
2005.60741,0.08242
2007.53587,0.08241
2009.46434,0.08202
2011.39281,0.08162
2013.32128,0.08262
2015.24975,0.08417
2017.17822,0.08503
2019.10669,0.08512
2021.03515,0.08499
2022.96362,0.08516
2024.89209,0.08509
2026.82056,0.08433
2028.74903,0.08403
2030.67750,0.08524
2032.60597,0.08674
2034.53444,0.08752
2036.46290,0.08731
2038.39137,0.08616
2040.31984,0.08486
2042.24831,0.08324
2044.17678,0.08246
2046.10525,0.08330
2048.03372,0.08341
2049.96218,0.08215
2051.89065,0.08093
2053.81912,0.08044
2055.74759,0.08069
2057.67606,0.08109
2059.60453,0.08104
2061.53300,0.08008
2063.46147,0.07889
2065.38993,0.07987
2067.31840,0.08309
2069.24687,0.08520
2071.17534,0.08468
2073.10381,0.08406
2075.03228,0.08507
2076.96075,0.08598
2078.88921,0.08637
2080.81768,0.08740
2082.74615,0.08878
2084.67462,0.08976
2086.60309,0.08970
2088.53156,0.08843
2090.46003,0.08752
2092.38850,0.08768
2094.31696,0.08737
2096.24543,0.08697
2098.17390,0.08746
2100.10237,0.08685
2102.03084,0.08410
2103.95931,0.08126
2105.88778,0.08060
2107.81624,0.08211
2109.74471,0.08319
2111.67318,0.08398
2113.60165,0.08626
2115.53012,0.08801
2117.45859,0.08776
2119.38706,0.08722
2121.31553,0.08729
2123.24399,0.08646
2125.17246,0.08449
2127.10093,0.08329
2129.02940,0.08273
2130.95787,0.08207
2132.88634,0.08170
2134.81481,0.08152
2136.74327,0.08158
2138.67174,0.08199
2140.60021,0.08221
2142.52868,0.08196
2144.45715,0.08121
2146.38562,0.08070
2148.31409,0.08146
2150.24255,0.08280
2152.17102,0.08331
2154.09949,0.08267
2156.02796,0.08217
2157.95643,0.08275
2159.88490,0.08321
2161.81337,0.08280
2163.74184,0.08270
2165.67030,0.08339
2167.59877,0.08368
2169.52724,0.08432
2171.45571,0.08672
2173.38418,0.08871
2175.31265,0.08792
2177.24112,0.08546
2179.16958,0.08355
2181.09805,0.08313
2183.02652,0.08403
2184.95499,0.08472
2186.88346,0.08405
2188.81193,0.08373
2190.74040,0.08404
2192.66887,0.08347
2194.59733,0.08278
2196.52580,0.08263
2198.45427,0.08273
2200.38274,0.08255
2202.31121,0.08210
2204.23968,0.08276
2206.16815,0.08399
2208.09661,0.08430
2210.02508,0.08393
2211.95355,0.08355
2213.88202,0.08349
2215.81049,0.08350
2217.73896,0.08421
2219.66743,0.08606
2221.59590,0.08670
2223.52436,0.08479
2225.45283,0.08294
2227.38130,0.08316
2229.30977,0.08393
2231.23824,0.08380
2233.16671,0.08413
2235.09518,0.08496
2237.02364,0.08475
2238.95211,0.08391
2240.88058,0.08271
2242.80905,0.08186
2244.73752,0.08256
2246.66599,0.08283
2248.59446,0.08145
2250.52293,0.08142
2252.45139,0.08399
2254.37986,0.08660
2256.30833,0.08764
2258.23680,0.08722
2260.16527,0.08608
2262.09374,0.08507
2264.02221,0.08478
2265.95067,0.08534
2267.87914,0.08509
2269.80761,0.08377
2271.73608,0.08393
2273.66455,0.08533
2275.59302,0.08505
2277.52149,0.08294
2279.44996,0.08131
2281.37842,0.08160
2283.30689,0.08230
2285.23536,0.08189
2287.16383,0.08149
2289.09230,0.08255
2291.02077,0.08468
2292.94924,0.08610
2294.87770,0.08619
2296.80617,0.08487
2298.73464,0.08177
2300.66311,0.07949
2302.59158,0.08057
2304.52005,0.08212
2306.44852,0.08133
2308.37699,0.08032
2310.30545,0.07973
2312.23392,0.07865
2314.16239,0.07763
2316.09086,0.07650
2318.01933,0.07628
2319.94780,0.07806
2321.87627,0.08083
2323.80473,0.08257
2325.73320,0.08308
2327.66167,0.08373
2329.59014,0.08380
2331.51861,0.08071
2333.44708,0.07610
2335.37555,0.07914
2337.30401,0.08987
2339.23248,0.09653
2341.16095,0.09713
2343.08942,0.09228
2345.01789,0.07955
2346.94636,0.07248
2348.87483,0.07561
2350.80330,0.08269
2352.73176,0.09423
2354.66023,0.10746
2356.58870,0.10713
2358.51717,0.08983
2360.44564,0.07162
2362.37411,0.06842
2364.30258,0.07617
2366.23104,0.07749
2368.15951,0.07473
2370.08798,0.07808
2372.01645,0.08055
2373.94492,0.08055
2375.87339,0.08316
2377.80186,0.08402
2379.73033,0.08152
2381.65879,0.08150
2383.58726,0.08391
2385.51573,0.08450
2387.44420,0.08431
2389.37267,0.08613
2391.30114,0.08869
2393.22961,0.08889
2395.15807,0.08676
2397.08654,0.08614
2399.01501,0.08763
2400.94348,0.08775
2402.87195,0.08577
2404.80042,0.08404
2406.72889,0.08395
2408.65736,0.08508
2410.58582,0.08692
2412.51429,0.08867
2414.44276,0.08895
2416.37123,0.08737
2418.29970,0.08594
2420.22817,0.08616
2422.15664,0.08588
2424.08510,0.08482
2426.01357,0.08566
2427.94204,0.08710
2429.87051,0.08673
2431.79898,0.08610
2433.72745,0.08623
2435.65592,0.08612
2437.58439,0.08545
2439.51285,0.08484
2441.44132,0.08503
2443.36979,0.08535
2445.29826,0.08592
2447.22673,0.08687
2449.15520,0.08591
2451.08367,0.08394
2453.01213,0.08398
2454.94060,0.08485
2456.86907,0.08435
2458.79754,0.08384
2460.72601,0.08575
2462.65448,0.08901
2464.58295,0.09072
2466.51142,0.08987
2468.43988,0.08841
2470.36835,0.08933
2472.29682,0.09105
2474.22529,0.09009
2476.15376,0.08832
2478.08223,0.08826
2480.01070,0.08803
2481.93916,0.08622
2483.86763,0.08405
2485.79610,0.08296
2487.72457,0.08428
2489.65304,0.08717
2491.58151,0.08867
2493.50998,0.08855
2495.43844,0.08817
2497.36691,0.08849
2499.29538,0.09003
2501.22385,0.09050
2503.15232,0.08869
2505.08079,0.08744
2507.00926,0.08812
2508.93773,0.08898
2510.86619,0.08953
2512.79466,0.09102
2514.72313,0.09191
2516.65160,0.09001
2518.58007,0.08788
2520.50854,0.08807
2522.43701,0.08788
2524.36547,0.08543
2526.29394,0.08420
2528.22241,0.08617
2530.15088,0.08866
2532.07935,0.08954
2534.00782,0.08941
2535.93629,0.08908
2537.86476,0.08766
2539.79322,0.08531
2541.72169,0.08438
2543.65016,0.08612
2545.57863,0.08945
2547.50710,0.09049
2549.43557,0.08750
2551.36404,0.08461
2553.29250,0.08450
2555.22097,0.08573
2557.14944,0.08689
2559.07791,0.08784
2561.00638,0.08908
2562.93485,0.09021
2564.86332,0.08984
2566.79179,0.08828
2568.72025,0.08750
2570.64872,0.08773
2572.57719,0.08885
2574.50566,0.09084
2576.43413,0.09050
2578.36260,0.08682
2580.29107,0.08454
2582.21953,0.08627
2584.14800,0.08881
2586.07647,0.08920
2588.00494,0.08797
2589.93341,0.08683
2591.86188,0.08747
2593.79035,0.09005
2595.71882,0.09245
2597.64728,0.09231
2599.57575,0.08951
2601.50422,0.08716
2603.43269,0.08724
2605.36116,0.08790
2607.28963,0.08815
2609.21810,0.08959
2611.14656,0.09217
2613.07503,0.09266
2615.00350,0.09037
2616.93197,0.08839
2618.86044,0.08781
2620.78891,0.08827
2622.71738,0.08871
2624.64585,0.08758
2626.57431,0.08636
2628.50278,0.08661
2630.43125,0.08713
2632.35972,0.08733
2634.28819,0.08854
2636.21666,0.09098
2638.14513,0.09287
2640.07359,0.09317
2642.00206,0.09123
2643.93053,0.08798
2645.85900,0.08615
2647.78747,0.08682
2649.71594,0.08932
2651.64441,0.09139
2653.57288,0.09093
2655.50134,0.08962
2657.42981,0.08917
2659.35828,0.08879
2661.28675,0.08945
2663.21522,0.09106
2665.14369,0.09080
2667.07216,0.08978
2669.00062,0.08992
2670.92909,0.09007
2672.85756,0.08980
2674.78603,0.08945
2676.71450,0.08976
2678.64297,0.09007
2680.57144,0.08789
2682.49990,0.08512
2684.42837,0.08576
2686.35684,0.08932
2688.28531,0.09206
2690.21378,0.09203
2692.14225,0.09054
2694.07072,0.08899
2695.99919,0.08830
2697.92765,0.08877
2699.85612,0.08957
2701.78459,0.09177
2703.71306,0.09544
2705.64153,0.09570
2707.57000,0.09149
2709.49847,0.08873
2711.42693,0.08987
2713.35540,0.09226
2715.28387,0.09328
2717.21234,0.09205
2719.14081,0.08975
2721.06928,0.08865
2722.99775,0.08922
2724.92622,0.08902
2726.85468,0.08744
2728.78315,0.08593
2730.71162,0.08562
2732.64009,0.08730
2734.56856,0.09046
2736.49703,0.09355
2738.42550,0.09409
2740.35396,0.09191
2742.28243,0.08987
2744.21090,0.08920
2746.13937,0.08899
2748.06784,0.08905
2749.99631,0.09066
2751.92478,0.09367
2753.85325,0.09526
2755.78171,0.09273
2757.71018,0.08815
2759.63865,0.08643
2761.56712,0.08788
2763.49559,0.08894
2765.42406,0.08845
2767.35253,0.08870
2769.28099,0.09098
2771.20946,0.09387
2773.13793,0.09588
2775.06640,0.09661
2776.99487,0.09593
2778.92334,0.09339
2780.85181,0.09045
2782.78028,0.08962
2784.70874,0.09035
2786.63721,0.09153
2788.56568,0.09276
2790.49415,0.09332
2792.42262,0.09390
2794.35109,0.09427
2796.27956,0.09402
2798.20802,0.09422
2800.13649,0.09479
2802.06496,0.09509
2803.99343,0.09464
2805.92190,0.09339
2807.85037,0.09212
2809.77884,0.09223
2811.70731,0.09413
2813.63577,0.09491
2815.56424,0.09355
2817.49271,0.09380
2819.42118,0.09564
2821.34965,0.09593
2823.27812,0.09532
2825.20659,0.09432
2827.13505,0.09254
2829.06352,0.09108
2830.99199,0.09077
2832.92046,0.09211
2834.84893,0.09329
2836.77740,0.09237
2838.70587,0.09197
2840.63433,0.09453
2842.56280,0.09720
2844.49127,0.09588
2846.41974,0.09246
2848.34821,0.09158
2850.27668,0.09216
2852.20515,0.09151
2854.13362,0.09133
2856.06208,0.09295
2857.99055,0.09391
2859.91902,0.09275
2861.84749,0.09201
2863.77596,0.09299
2865.70443,0.09413
2867.63290,0.09530
2869.56136,0.09724
2871.48983,0.09865
2873.41830,0.09857
2875.34677,0.09830
2877.27524,0.09752
2879.20371,0.09614
2881.13218,0.09578
2883.06065,0.09528
2884.98911,0.09407
2886.91758,0.09422
2888.84605,0.09481
2890.77452,0.09466
2892.70299,0.09528
2894.63146,0.09512
2896.55993,0.09297
2898.48839,0.09128
2900.41686,0.09026
2902.34533,0.08860
2904.27380,0.08738
2906.20227,0.08826
2908.13074,0.08985
2910.05921,0.09125
2911.98768,0.09270
2913.91614,0.09313
2915.84461,0.09240
2917.77308,0.09126
2919.70155,0.09123
2921.63002,0.09320
2923.55849,0.09613
2925.48696,0.09848
2927.41542,0.09853
2929.34389,0.09562
2931.27236,0.09153
2933.20083,0.08988
2935.12930,0.09089
2937.05777,0.09167
2938.98624,0.09251
2940.91471,0.09330
2942.84317,0.09298
2944.77164,0.09326
2946.70011,0.09362
2948.62858,0.09269
2950.55705,0.09109
2952.48552,0.08965
2954.41399,0.08885
2956.34245,0.08808
2958.27092,0.08873
2960.19939,0.09189
2962.12786,0.09528
2964.05633,0.09677
2965.98480,0.09637
2967.91327,0.09475
2969.84174,0.09348
2971.77020,0.09485
2973.69867,0.09710
2975.62714,0.09833
2977.55561,0.09955
2979.48408,0.10045
2981.41255,0.10059
2983.34102,0.10036
2985.26948,0.10031
2987.19795,0.09920
2989.12642,0.09633
2991.05489,0.09518
2992.98336,0.09702
2994.91183,0.09908
2996.84030,0.09967
2998.76877,0.09849
3000.69723,0.09653
3002.62570,0.09474
3004.55417,0.09295
3006.48264,0.09251
3008.41111,0.09476
3010.33958,0.09690
3012.26805,0.09375
3014.19651,0.08389
3016.12498,0.07347
3018.05345,0.07415
3019.98192,0.08657
3021.91039,0.09601
3023.83886,0.09768
3025.76733,0.09843
3027.69579,0.09947
3029.62426,0.09965
3031.55273,0.10099
3033.48120,0.10361
3035.40967,0.10469
3037.33814,0.10339
3039.26661,0.10168
3041.19508,0.10123
3043.12354,0.10045
3045.05201,0.09843
3046.98048,0.09734
3048.90895,0.09760
3050.83742,0.09881
3052.76589,0.10090
3054.69436,0.10021
3056.62282,0.09512
3058.55129,0.09263
3060.47976,0.09557
3062.40823,0.09837
3064.33670,0.09741
3066.26517,0.09401
3068.19364,0.09276
3070.12211,0.09408
3072.05057,0.09423
3073.97904,0.09200
3075.90751,0.08896
3077.83598,0.08757
3079.76445,0.08931
3081.69292,0.09282
3083.62139,0.09367
3085.54985,0.09199
3087.47832,0.09312
3089.40679,0.09714
3091.33526,0.09943
3093.26373,0.09742
3095.19220,0.09389
3097.12067,0.09267
3099.04914,0.09385
3100.97760,0.09627
3102.90607,0.09706
3104.83454,0.09579
3106.76301,0.09594
3108.69148,0.09814
3110.61995,0.09911
3112.54842,0.09855
3114.47688,0.10050
3116.40535,0.10255
3118.33382,0.10081
3120.26229,0.09908
3122.19076,0.09973
3124.11923,0.10022
3126.04770,0.09905
3127.97617,0.09800
3129.90463,0.09698
3131.83310,0.09531
3133.76157,0.09532
3135.69004,0.09671
3137.61851,0.09699
3139.54698,0.09635
3141.47545,0.09626
3143.40391,0.09605
3145.33238,0.09530
3147.26085,0.09565
3149.18932,0.09757
3151.11779,0.09989
3153.04626,0.10200
3154.97473,0.10338
3156.90320,0.10275
3158.83166,0.09904
3160.76013,0.09392
3162.68860,0.09084
3164.61707,0.09035
3166.54554,0.09115
3168.47401,0.09266
3170.40248,0.09483
3172.33094,0.09704
3174.25941,0.09835
3176.18788,0.09924
3178.11635,0.09911
3180.04482,0.09881
3181.97329,0.10060
3183.90176,0.10242
3185.83022,0.10140
3187.75869,0.09866
3189.68716,0.09751
3191.61563,0.09761
3193.54410,0.09793
3195.47257,0.10009
3197.40104,0.10228
3199.32951,0.10303
3201.25797,0.10329
3203.18644,0.10014
3205.11491,0.09466
3207.04338,0.09389
3208.97185,0.09623
3210.90032,0.09619
3212.82879,0.09674
3214.75725,0.09886
3216.68572,0.09716
3218.61419,0.09419
3220.54266,0.09499
3222.47113,0.09515
3224.39960,0.09351
3226.32807,0.09596
3228.25654,0.10106
3230.18500,0.10455
3232.11347,0.10770
3234.04194,0.10840
3235.97041,0.10542
3237.89888,0.10463
3239.82735,0.10762
3241.75582,0.11045
3243.68428,0.10991
3245.61275,0.10434
3247.54122,0.09745
3249.46969,0.09435
3251.39816,0.09323
3253.32663,0.09289
3255.25510,0.09436
3257.18357,0.09522
3259.11203,0.09704
3261.04050,0.10075
3262.96897,0.10176
3264.89744,0.10036
3266.82591,0.09933
3268.75438,0.09772
3270.68285,0.09636
3272.61131,0.09861
3274.53978,0.10341
3276.46825,0.10713
3278.39672,0.10733
3280.32519,0.10304
3282.25366,0.09605
3284.18213,0.09043
3286.11060,0.09043
3288.03906,0.09424
3289.96753,0.09645
3291.89600,0.09804
3293.82447,0.10031
3295.75294,0.09986
3297.68141,0.09766
3299.60988,0.09581
3301.53834,0.09408
3303.46681,0.09508
3305.39528,0.09752
3307.32375,0.09790
3309.25222,0.09852
3311.18069,0.10115
3313.10916,0.10393
3315.03763,0.10319
3316.96609,0.09918
3318.89456,0.09723
3320.82303,0.09802
3322.75150,0.09967
3324.67997,0.10248
3326.60844,0.10464
3328.53691,0.10448
3330.46537,0.10415
3332.39384,0.10506
3334.32231,0.10473
3336.25078,0.10197
3338.17925,0.09824
3340.10772,0.09517
3342.03619,0.09379
3343.96466,0.09322
3345.89312,0.09243
3347.82159,0.09349
3349.75006,0.09922
3351.67853,0.10498
3353.60700,0.10380
3355.53547,0.09860
3357.46394,0.09613
3359.39240,0.09724
3361.32087,0.09799
3363.24934,0.09493
3365.17781,0.08977
3367.10628,0.08865
3369.03475,0.09300
3370.96322,0.09731
3372.89168,0.09895
3374.82015,0.09942
3376.74862,0.09910
3378.67709,0.09767
3380.60556,0.09625
3382.53403,0.09564
3384.46250,0.09369
3386.39097,0.09049
3388.31943,0.09067
3390.24790,0.09373
3392.17637,0.09474
3394.10484,0.09605
3396.03331,0.10065
3397.96178,0.10382
3399.89025,0.10366
3401.81871,0.10167
3403.74718,0.09948
3405.67565,0.10043
3407.60412,0.10277
3409.53259,0.10135
3411.46106,0.09689
3413.38953,0.09468
3415.31800,0.09737
3417.24646,0.10105
3419.17493,0.10099
3421.10340,0.09889
3423.03187,0.09731
3424.96034,0.09554
3426.88881,0.09375
3428.81728,0.09251
3430.74574,0.09198
3432.67421,0.09130
3434.60268,0.08877
3436.53115,0.08624
3438.45962,0.08651
3440.38809,0.08777
3442.31656,0.08772
3444.24503,0.08764
3446.17349,0.09088
3448.10196,0.09765
3450.03043,0.10117
3451.95890,0.09771
3453.88737,0.09186
3455.81584,0.09040
3457.74431,0.09451
3459.67277,0.09775
3461.60124,0.09627
3463.52971,0.09317
3465.45818,0.09116
3467.38665,0.09014
3469.31512,0.08958
3471.24359,0.09058
3473.17206,0.09391
3475.10052,0.09603
3477.02899,0.09376
3478.95746,0.09129
3480.88593,0.09208
3482.81440,0.09206
3484.74287,0.08896
3486.67134,0.08605
3488.59980,0.08558
3490.52827,0.08726
3492.45674,0.08818
3494.38521,0.08611
3496.31368,0.08425
3498.24215,0.08525
3500.17062,0.08812
3502.09909,0.08993
3504.02755,0.08633
3505.95602,0.08037
3507.88449,0.07782
3509.81296,0.08015
3511.74143,0.08468
3513.66990,0.08510
3515.59837,0.08116
3517.52683,0.07966
3519.45530,0.08317
3521.38377,0.08472
3523.31224,0.08114
3525.24071,0.08058
3527.16918,0.08564
3529.09765,0.08885
3531.02611,0.08655
3532.95458,0.08277
3534.88305,0.08183
3536.81152,0.08266
3538.73999,0.08163
3540.66846,0.08098
3542.59693,0.08371
3544.52540,0.08616
3546.45386,0.08500
3548.38233,0.08284
3550.31080,0.08240
3552.23927,0.08262
3554.16774,0.08136
3556.09621,0.07997
3558.02468,0.07871
3559.95314,0.07525
3561.88161,0.07394
3563.81008,0.07901
3565.73855,0.08322
3567.66702,0.08004
3569.59549,0.07598
3571.52396,0.07529
3573.45243,0.07568
3575.38089,0.07551
3577.30936,0.07484
3579.23783,0.07251
3581.16630,0.07075
3583.09477,0.07265
3585.02324,0.07530
3586.95171,0.07452
3588.88017,0.06947
3590.80864,0.06540
3592.73711,0.06628
3594.66558,0.07182
3596.59405,0.07334
3598.52252,0.06714
3600.45099,0.06331
3602.37946,0.06750
3604.30792,0.07444
3606.23639,0.07916
3608.16486,0.08001
3610.09333,0.07871
3612.02180,0.07836
3613.95027,0.07979
3615.87874,0.08008
3617.80720,0.07660
3619.73567,0.07293
3621.66414,0.07185
3623.59261,0.07020
3625.52108,0.06950
3627.44955,0.07279
3629.37802,0.07537
3631.30649,0.07110
3633.23495,0.06763
3635.16342,0.06787
3637.09189,0.06864
3639.02036,0.06785
3640.94883,0.06588
3642.87730,0.06516
3644.80577,0.06779
3646.73423,0.07193
3648.66270,0.07266
3650.59117,0.06846
3652.51964,0.06672
3654.44811,0.06646
3656.37658,0.06344
3658.30505,0.06023
3660.23352,0.06024
3662.16198,0.06081
3664.09045,0.06113
3666.01892,0.06166
3667.94739,0.06357
3669.87586,0.06880
3671.80433,0.07198
3673.73280,0.07071
3675.66126,0.06984
3677.58973,0.07287
3679.51820,0.07242
3681.44667,0.06596
3683.37514,0.06232
3685.30361,0.06578
3687.23208,0.06978
3689.16055,0.06836
3691.08901,0.06618
3693.01748,0.06649
3694.94595,0.06511
3696.87442,0.06012
3698.80289,0.05439
3700.73136,0.05381
3702.65983,0.05843
3704.58829,0.06145
3706.51676,0.06293
3708.44523,0.06571
3710.37370,0.06815
3712.30217,0.06614
3714.23064,0.06294
3716.15911,0.06183
3718.08757,0.06065
3720.01604,0.05826
3721.94451,0.05530
3723.87298,0.05407
3725.80145,0.05815
3727.72992,0.06197
3729.65839,0.06044
3731.58686,0.05833
3733.51532,0.05733
3735.44379,0.05788
3737.37226,0.06393
3739.30073,0.06848
3741.22920,0.06886
3743.15767,0.06975
3745.08614,0.07216
3747.01460,0.07202
3748.94307,0.07362
3750.87154,0.07320
3752.80001,0.06458
3754.72848,0.06307
3756.65695,0.06789
3758.58542,0.06935
3760.51389,0.06639
3762.44235,0.06329
3764.37082,0.06074
3766.29929,0.06117
3768.22776,0.06422
3770.15623,0.06231
3772.08470,0.05639
3774.01317,0.05563
3775.94163,0.05961
3777.87010,0.06190
3779.79857,0.05991
3781.72704,0.05975
3783.65551,0.06383
3785.58398,0.06658
3787.51245,0.06393
3789.44092,0.06001
3791.36938,0.05818
3793.29785,0.05579
3795.22632,0.05304
3797.15479,0.05517
3799.08326,0.06102
3801.01173,0.06512
3802.94020,0.06626
3804.86866,0.06803
3806.79713,0.07034
3808.72560,0.06955
3810.65407,0.06654
3812.58254,0.06356
3814.51101,0.06251
3816.43948,0.06478
3818.36795,0.06873
3820.29641,0.07237
3822.22488,0.06940
3824.15335,0.06278
3826.08182,0.06015
3828.01029,0.05963
3829.93876,0.05812
3831.86723,0.05826
3833.79569,0.06312
3835.72416,0.06821
3837.65263,0.06732
3839.58110,0.06489
3841.50957,0.06624
3843.43804,0.06398
3845.36651,0.05679
3847.29498,0.05130
3849.22344,0.05031
3851.15191,0.05428
3853.08038,0.06273
3855.00885,0.06422
3856.93732,0.06159
3858.86579,0.06189
3860.79426,0.06202
3862.72272,0.06095
3864.65119,0.05998
3866.57966,0.05949
3868.50813,0.06244
3870.43660,0.06562
3872.36507,0.06343
3874.29354,0.06102
3876.22200,0.05967
3878.15047,0.05882
3880.07894,0.05839
3882.00741,0.05674
3883.93588,0.05513
3885.86435,0.05265
3887.79282,0.05042
3889.72129,0.05319
3891.64975,0.05834
3893.57822,0.05839
3895.50669,0.05523
3897.43516,0.05402
3899.36363,0.05742
3901.29210,0.06287
3903.22057,0.06289
3905.14903,0.05899
3907.07750,0.05608
3909.00597,0.05331
3910.93444,0.05171
3912.86291,0.05043
3914.79138,0.04835
3916.71985,0.04847
3918.64832,0.05024
3920.57678,0.05214
3922.50525,0.05358
3924.43372,0.05425
3926.36219,0.05587
3928.29066,0.05489
3930.21913,0.04916
3932.14760,0.04679
3934.07606,0.05183
3936.00453,0.05584
3937.93300,0.05438
3939.86147,0.05084
3941.78994,0.05039
3943.71841,0.05315
3945.64688,0.05522
3947.57535,0.05527
3949.50381,0.05328
3951.43228,0.05072
3953.36075,0.04847
3955.28922,0.04742
3957.21769,0.04905
3959.14616,0.04983
3961.07463,0.04812
3963.00309,0.04887
3964.93156,0.05237
3966.86003,0.05444
3968.78850,0.05429
3970.71697,0.05258
3972.64544,0.05121
3974.57391,0.05299
3976.50238,0.05459
3978.43084,0.05147
3980.35931,0.04805
3982.28778,0.04910
3984.21625,0.05094
3986.14472,0.04907
3988.07319,0.04474
3990.00166,0.04300
3991.93012,0.04539
3993.85859,0.04861
3995.78706,0.05075
3997.71553,0.05084
3999.64400,0.04986
4001.57247,0.04974
4003.50094,0.04890
4005.42941,0.04863
4007.35787,0.04988
4009.28634,0.04861
4011.21481,0.04773
4013.14328,0.04982
4015.07175,0.04880
4017.00022,0.04428
4018.92869,0.04208
4020.85715,0.04306
4022.78562,0.04352
4024.71409,0.04152
4026.64256,0.03884
4028.57103,0.03921
4030.49950,0.04439
4032.42797,0.05023
4034.35644,0.05098
4036.28490,0.04812
4038.21337,0.04584
4040.14184,0.04412
4042.07031,0.04333
4043.99878,0.04379
4045.92725,0.04436
4047.85572,0.04490
4049.78418,0.04413
4051.71265,0.04289
4053.64112,0.04312
4055.56959,0.04328
4057.49806,0.04220
4059.42653,0.04064
4061.35500,0.03962
4063.28346,0.04079
4065.21193,0.04472
4067.14040,0.04762
4069.06887,0.04598
4070.99734,0.04315
4072.92581,0.04445
4074.85428,0.04859
4076.78275,0.04916
4078.71121,0.04526
4080.63968,0.04160
4082.56815,0.04118
4084.49662,0.04380
4086.42509,0.04596
4088.35356,0.04507
4090.28203,0.04334
4092.21049,0.04213
4094.13896,0.04069
4096.06743,0.04084
4097.99590,0.04302
4099.92437,0.04406
4101.85284,0.04232
4103.78131,0.03934
4105.70978,0.03829
4107.63824,0.04006
4109.56671,0.04250
4111.49518,0.04498
4113.42365,0.04659
4115.35212,0.04478
4117.28059,0.04084
4119.20906,0.03828
4121.13752,0.03887
4123.06599,0.04204
4124.99446,0.04372
4126.92293,0.04303
4128.85140,0.04342
4130.77987,0.04456
4132.70834,0.04450
4134.63681,0.04418
4136.56527,0.04559
4138.49374,0.04755
4140.42221,0.04821
4142.35068,0.04865
4144.27915,0.04885
4146.20762,0.04759
4148.13609,0.04515
4150.06455,0.04333
4151.99302,0.04167
4153.92149,0.03943
4155.84996,0.03918
4157.77843,0.03965
4159.70690,0.03842
4161.63537,0.03677
4163.56384,0.03611
4165.49230,0.03860
4167.42077,0.04361
4169.34924,0.04627
4171.27771,0.04386
4173.20618,0.03976
4175.13465,0.03810
4177.06312,0.03821
4178.99158,0.03779
4180.92005,0.03672
4182.84852,0.03716
4184.77699,0.03890
4186.70546,0.03878
4188.63393,0.03659
4190.56240,0.03566
4192.49087,0.03622
4194.41933,0.03538
4196.34780,0.03558
4198.27627,0.03979
4200.20474,0.04318
4202.13321,0.04314
4204.06168,0.04325
4205.99015,0.04337
4207.91861,0.04325
4209.84708,0.04456
4211.77555,0.04437
4213.70402,0.04008
4215.63249,0.03404
4217.56096,0.03013
4219.48943,0.02920
4221.41789,0.03046
4223.34636,0.03292
4225.27483,0.03388
4227.20330,0.03263
4229.13177,0.03009
4231.06024,0.02868
4232.98871,0.03161
4234.91718,0.03503
4236.84564,0.03226
4238.77411,0.02481
4240.70258,0.01971
4242.63105,0.02029
4244.55952,0.02395
4246.48799,0.02682
4248.41646,0.02775
4250.34492,0.02733
4252.27339,0.02544
4254.20186,0.02207
4256.13033,0.02067
4258.05880,0.02393
4259.98727,0.02671
4261.91574,0.02421
4263.84421,0.02233
4265.77267,0.02726
4267.70114,0.03049
4269.62961,0.02385
4271.55808,0.01806
4273.48655,0.02205
4275.41502,0.02730
4277.34349,0.02890
4279.27195,0.03166
4281.20042,0.03246
4283.12889,0.02887
4285.05736,0.02775
4286.98583,0.02982
4288.91430,0.02900
4290.84277,0.02512
4292.77124,0.02411
4294.69970,0.02581
4296.62817,0.02430
4298.55664,0.02159
4300.48511,0.02465
4302.41358,0.02986
4304.34205,0.02999
4306.27052,0.02773
4308.19898,0.02607
4310.12745,0.02500
4312.05592,0.02605
4313.98439,0.02831
4315.91286,0.02850
4317.84133,0.02530
4319.76980,0.02090
4321.69827,0.01764
4323.62673,0.01711
4325.55520,0.02032
4327.48367,0.02376
4329.41214,0.02242
4331.34061,0.01887
4333.26908,0.01746
4335.19755,0.01504
4337.12601,0.01203
4339.05448,0.01583
4340.98295,0.02443
4342.91142,0.02821
4344.83989,0.02635
4346.76836,0.02330
4348.69683,0.02098
4350.62530,0.01977
4352.55376,0.01799
4354.48223,0.01551
4356.41070,0.01466
4358.33917,0.01736
4360.26764,0.02143
4362.19611,0.02170
4364.12458,0.01955
4366.05304,0.01760
4367.98151,0.01411
4369.90998,0.01208
4371.83845,0.01360
4373.76692,0.01686
4375.69539,0.02008
4377.62386,0.01946
4379.55232,0.01520
4381.48079,0.01216
4383.40926,0.01297
4385.33773,0.01664
4387.26620,0.02024
4389.19467,0.02004
4391.12314,0.01576
4393.05161,0.01243
4394.98007,0.01145
4396.90854,0.01245
4398.83701,0.01640
4400.76548,0.01830
4402.69395,0.01378
4404.62242,0.00982
4406.55089,0.01299
4408.47935,0.01822
4410.40782,0.02022
4412.33629,0.02150
4414.26476,0.02475
4416.19323,0.02789
4418.12170,0.02919
4420.05017,0.02765
4421.97864,0.02015
4423.90710,0.00914
4425.83557,0.00298
4427.76404,0.00523
4429.69251,0.01210
4431.62098,0.01627
4433.54945,0.01314
4435.47792,0.00831
4437.40638,0.00896
4439.33485,0.01369
4441.26332,0.01711
4443.19179,0.01366
4445.12026,0.00550
4447.04873,0.00405
4448.97720,0.01255
4450.90567,0.02043
4452.83413,0.01698
4454.76260,0.00540
4456.69107,-0.00046
4458.61954,0.00415
4460.54801,0.01121
4462.47648,0.01594
4464.40495,0.01643
4466.33341,0.01125
4468.26188,0.00650
4470.19035,0.00537
4472.11882,0.00374
4474.04729,0.00256
4475.97576,0.00497
4477.90423,0.00783
4479.83270,0.00506
4481.76116,-0.00135
4483.68963,-0.00209
4485.61810,0.00570
4487.54657,0.01399
4489.47504,0.01436
4491.40351,0.01380
4493.33198,0.02085
4495.26044,0.02624
4497.18891,0.02040
4499.11738,0.00910
4501.04585,0.00519
4502.97432,0.00816
4504.90279,0.00994
4506.83126,0.01040
4508.75973,0.01055
4510.68819,0.00913
4512.61666,0.00611
4514.54513,0.00382
4516.47360,0.00284
4518.40207,0.00383
4520.33054,0.00619
4522.25901,0.00577
4524.18747,0.00384
4526.11594,0.00132
4528.04441,-0.00307
4529.97288,-0.00505
4531.90135,-0.00243
4533.82982,0.00101
4535.75829,0.00316
4537.68676,0.00521
4539.61522,0.00768
4541.54369,0.00919
4543.47216,0.00840
4545.40063,0.00683
4547.32910,0.00549
4549.25757,0.00202
4551.18604,-0.00175
4553.11450,-0.00204
4555.04297,-0.00287
4556.97144,-0.00307
4558.89991,0.00395
4560.82838,0.01236
4562.75685,0.01655
4564.68532,0.01747
4566.61378,0.01336
4568.54225,0.00606
4570.47072,0.00200
4572.39919,0.00194
4574.32766,0.00077
4576.25613,-0.00070
4578.18460,0.00049
4580.11307,0.00231
4582.04153,0.00723
4583.97000,0.01383
4585.89847,0.01408
4587.82694,0.01015
4589.75541,0.00550
4591.68388,-0.00098
4593.61235,-0.00598
4595.54081,-0.00572
4597.46928,-0.00089
4599.39775,0.00211
4601.32622,-0.00075
4603.25469,-0.00602
4605.18316,-0.00670
4607.11163,0.00036
4609.04010,0.00743
4610.96856,0.00911
4612.89703,0.00646
4614.82550,-0.00014
4616.75397,-0.00347
4618.68244,0.00005
4620.61091,0.00348
4622.53938,0.00574
4624.46784,0.00877
4626.39631,0.00799
4628.32478,0.00268
4630.25325,0.00137
4632.18172,0.00471
4634.11019,0.00495
4636.03866,0.00400
4637.96713,0.00258
4639.89559,0.00184
4641.82406,0.00670
4643.75253,0.01178
4645.68100,0.01124
4647.60947,0.01069
4649.53794,0.01162
4651.46641,0.00716
4653.39487,0.00213
4655.32334,0.00345
4657.25181,0.00499
4659.18028,0.00303
4661.10875,0.00174
4663.03722,0.00121
4664.96569,0.00130
4666.89416,0.00606
4668.82262,0.01035
4670.75109,0.00855
4672.67956,0.00530
4674.60803,0.00324
4676.53650,0.00258
4678.46497,0.00730
4680.39344,0.01282
4682.32190,0.00955
4684.25037,0.00383
4686.17884,0.00473
4688.10731,0.00753
4690.03578,0.00642
4691.96425,0.00389
4693.89272,0.00077
4695.82119,-0.00290
4697.74965,-0.00240
4699.67812,0.00183
4701.60659,0.00486
4703.53506,0.00850
4705.46353,0.01511
4707.39200,0.01833
4709.32047,0.01217
4711.24893,0.00299
4713.17740,-0.00072
4715.10587,0.00214
4717.03434,0.00718
4718.96281,0.00692
4720.89128,0.00530
4722.81975,0.01006
4724.74821,0.01363
4726.67668,0.01154
4728.60515,0.00749
4730.53362,0.00122
4732.46209,-0.00233
4734.39056,0.00160
4736.31903,0.00441
4738.24750,0.00120
4740.17596,-0.00078
4742.10443,-0.00040
4744.03290,-0.00268
4745.96137,-0.00569
4747.88984,-0.00233
4749.81831,0.00504
4751.74678,0.00522
4753.67524,0.00001
4755.60371,-0.00029
4757.53218,0.00607
4759.46065,0.01526
4761.38912,0.02173
4763.31759,0.01713
4765.24606,0.00420
4767.17453,-0.00334
4769.10299,-0.00522
4771.03146,-0.00388
4772.95993,0.00526
4774.88840,0.01272
4776.81687,0.01033
4778.74534,0.00858
4780.67381,0.01158
4782.60227,0.01189
4784.53074,0.00706
4786.45921,0.00151
4788.38768,0.00297
4790.31615,0.00730
4792.24462,0.00474
4794.17309,0.00144
4796.10156,0.00764
4798.03002,0.01792
4799.95849,0.01723
4801.88696,0.00785
4803.81543,0.00408
4805.74390,0.00244
4807.67237,-0.00175
4809.60084,0.00299
4811.52930,0.01533
4813.45777,0.02144
4815.38624,0.01826
4817.31471,0.01076
4819.24318,0.00750
4821.17165,0.01247
4823.10012,0.01349
4825.02859,0.00239
4826.95705,-0.00481
4828.88552,0.00251
4830.81399,0.01121
4832.74246,0.01112
4834.67093,0.00435
4836.59940,-0.00114
4838.52787,-0.00243
4840.45633,-0.00420
4842.38480,-0.00442
4844.31327,-0.00111
4846.24174,0.00041
4848.17021,-0.00125
4850.09868,-0.00402
4852.02715,-0.00733
4853.95562,-0.00857
4855.88408,-0.00388
4857.81255,0.00532
4859.74102,0.01269
4861.66949,0.01429
4863.59796,0.01248
4865.52643,0.01005
4867.45490,0.00817
4869.38336,0.00532
4871.31183,-0.00030
4873.24030,-0.00101
4875.16877,0.00536
4877.09724,0.00757
4879.02571,0.00463
4880.95418,0.00612
4882.88265,0.00917
4884.81111,0.00710
4886.73958,0.00875
4888.66805,0.01204
4890.59652,0.00437
4892.52499,-0.00573
4894.45346,-0.00826
4896.38193,-0.00755
4898.31039,-0.00899
4900.23886,-0.00813
4902.16733,0.00098
4904.09580,0.00709
4906.02427,0.00088
4907.95274,-0.00519
4909.88121,-0.00025
4911.80967,0.00638
4913.73814,0.00091
4915.66661,-0.00703
4917.59508,-0.00739
4919.52355,-0.00751
4921.45202,-0.00727
4923.38049,-0.00010
4925.30896,0.01297
4927.23742,0.02358
4929.16589,0.02267
4931.09436,0.00874
4933.02283,-0.00482
4934.95130,-0.00250
4936.87977,0.00796
4938.80824,0.01473
4940.73670,0.01729
4942.66517,0.01466
4944.59364,0.01453
4946.52211,0.02086
4948.45058,0.02135
4950.37905,0.01214
4952.30752,0.00226
4954.23599,0.00011
4956.16445,0.00500
4958.09292,0.00570
4960.02139,-0.00201
4961.94986,-0.00684
4963.87833,-0.00577
4965.80680,-0.00438
4967.73527,0.00208
4969.66373,0.01000
4971.59220,0.01224
4973.52067,0.01647
4975.44914,0.01813
4977.37761,0.00879
4979.30608,0.00159
4981.23455,0.00465
4983.16302,0.00975
4985.09148,0.01216
4987.01995,0.01465
4988.94842,0.01744
4990.87689,0.01684
4992.80536,0.00791
4994.73383,-0.00683
4996.66230,-0.01262
4998.59076,-0.00519
5000.51923,0.00485
5002.44770,0.00859
5004.37617,0.00643
5006.30464,0.00573
5008.23311,0.00922
5010.16158,0.01810
5012.09005,0.02398
5014.01851,0.01407
5015.94698,-0.00151
5017.87545,-0.00825
5019.80392,-0.00734
5021.73239,-0.00145
5023.66086,0.00599
5025.58933,0.00797
5027.51779,0.00581
5029.44626,0.00641
5031.37473,0.00710
5033.30320,0.00313
5035.23167,0.00363
5037.16014,0.01095
5039.08861,0.00976
5041.01708,0.00306
5042.94554,0.00503
5044.87401,0.00551
5046.80248,-0.00238
5048.73095,-0.00174
5050.65942,0.01108
5052.58789,0.02066
5054.51636,0.02190
5056.44482,0.01543
5058.37329,0.00814
5060.30176,0.01074
5062.23023,0.01493
5064.15870,0.01348
5066.08717,0.01051
5068.01564,0.00535
5069.94410,0.00402
5071.87257,0.00524
5073.80104,-0.00480
5075.72951,-0.01485
5077.65798,-0.00718
5079.58645,0.00965
5081.51492,0.02097
5083.44339,0.01767
5085.37185,0.00581
5087.30032,0.00456
5089.22879,0.01537
5091.15726,0.02854
5093.08573,0.03975
5095.01420,0.03900
5096.94267,0.01897
5098.87113,-0.00567
5100.79960,-0.01068
5102.72807,0.00253
5104.65654,0.01256
5106.58501,0.01293
5108.51348,0.01402
5110.44195,0.01490
5112.37042,0.00750
5114.29888,0.00315
5116.22735,0.00724
5118.15582,0.01472
5120.08429,0.02401
5122.01276,0.02323
5123.94123,0.01284
5125.86970,0.00905
5127.79816,0.01269
5129.72663,0.01499
5131.65510,0.01529
5133.58357,0.01539
5135.51204,0.01742
5137.44051,0.01567
5139.36898,0.00625
5141.29745,0.00511
5143.22591,0.01165
5145.15438,0.00907
5147.08285,-0.00101
5149.01132,-0.00774
5150.93979,-0.00549
5152.86826,0.00464
5154.79673,0.01415
5156.72519,0.01461
5158.65366,0.01573
5160.58213,0.02267
5162.51060,0.02625
5164.43907,0.02740
5166.36754,0.02830
5168.29601,0.02724
5170.22448,0.02279
5172.15294,0.01392
5174.08141,0.00503
5176.00988,0.00070
5177.93835,-0.00229
5179.86682,-0.00190
5181.79529,0.00848
5183.72376,0.01633
5185.65222,0.01343
5187.58069,0.01086
5189.50916,0.00996
5191.43763,0.00544
5193.36610,0.00067
5195.29457,0.00145
5197.22304,0.00694
5199.15151,0.01383
5201.07997,0.01766
5203.00844,0.01284
5204.93691,0.00712
5206.86538,0.01106
5208.79385,0.01999
5210.72232,0.02985
5212.65079,0.03305
5214.57925,0.02589
5216.50772,0.01812
5218.43619,0.00964
5220.36466,-0.00214
5222.29313,-0.01059
5224.22160,-0.01534
5226.15007,-0.01849
5228.07854,-0.00751
5230.00700,0.01928
5231.93547,0.03247
5233.86394,0.01609
5235.79241,-0.00596
5237.72088,-0.01020
5239.64935,-0.00159
5241.57782,0.00099
5243.50628,-0.00340
5245.43475,-0.00523
5247.36322,-0.00813
5249.29169,-0.00516
5251.22016,0.01719
5253.14863,0.03991
5255.07710,0.04239
5257.00556,0.03030
5258.93403,0.01855
5260.86250,0.02635
5262.79097,0.05136
5264.71944,0.06540
5266.64791,0.06640
5268.57638,0.06383
5270.50485,0.05671
5272.43331,0.04673
5274.36178,0.03697
5276.29025,0.02944
5278.21872,0.02712
5280.14719,0.03099
5282.07566,0.03419
5284.00413,0.03674
5285.93259,0.04098
5287.86106,0.03686
5289.78953,0.02545
5291.71800,0.01955
5293.64647,0.01692
5295.57494,0.01414
5297.50341,0.01383
5299.43188,0.01170
5301.36034,0.00702
5303.28881,0.00261
5305.21728,-0.00313
5307.14575,-0.00522
5309.07422,0.01006
5311.00269,0.03842
5312.93116,0.05609
5314.85962,0.04490
5316.78809,0.01728
5318.71656,0.00548
5320.64503,0.00591
5322.57350,0.00231
5324.50197,0.00151
5326.43044,0.00966
5328.35891,0.02491
5330.28737,0.03713
5332.21584,0.03885
5334.14431,0.03108
5336.07278,0.01936
5338.00125,0.01623
5339.92972,0.02319
5341.85819,0.02112
5343.78665,0.01015
5345.71512,0.00904
5347.64359,0.01000
5349.57206,0.00309
5351.50053,0.00323
5353.42900,0.01987
5355.35747,0.03909
5357.28594,0.04324
5359.21440,0.03654
5361.14287,0.03258
5363.07134,0.03344
5364.99981,0.03375
5366.92828,0.03229
5368.85675,0.02962
5370.78522,0.03000
5372.71368,0.03464
5374.64215,0.03976
5376.57062,0.04622
5378.49909,0.05134
5380.42756,0.04994
5382.35603,0.04641
5384.28450,0.04562
5386.21297,0.04175
5388.14143,0.03728
5390.06990,0.04083
5391.99837,0.04488
5393.92684,0.04290
5395.85531,0.03617
5397.78378,0.02463
5399.71225,0.01590
5401.64071,0.02028
5403.56918,0.03462
5405.49765,0.04013
5407.42612,0.02023
5409.35459,-0.00564
5411.28306,-0.00632
5413.21153,0.00631
5415.13999,0.02004
5417.06846,0.03449
5418.99693,0.03207
5420.92540,0.01664
5422.85387,0.00665
5424.78234,0.00957
5426.71081,0.02501
5428.63928,0.04005
5430.56774,0.04351
5432.49621,0.04051
5434.42468,0.03903
5436.35315,0.04047
5438.28162,0.04390
5440.21009,0.04826
5442.13856,0.04218
5444.06702,0.02572
5445.99549,0.01987
5447.92396,0.02989
5449.85243,0.03980
5451.78090,0.04091
5453.70937,0.03796
5455.63784,0.03684
5457.56631,0.03026
5459.49477,0.01441
5461.42324,0.00056
5463.35171,-0.00828
5465.28018,-0.00457
5467.20865,0.02529
5469.13712,0.05909
5471.06559,0.06039
5472.99405,0.04278
5474.92252,0.03272
5476.85099,0.03481
5478.77946,0.04118
5480.70793,0.04572
5482.63640,0.04958
5484.56487,0.04843
5486.49334,0.03563
5488.42180,0.01897
5490.35027,0.01094
5492.27874,0.01844
5494.20721,0.03581
5496.13568,0.03466
5498.06415,0.01422
5499.99262,0.00657
5501.92108,0.01693
5503.84955,0.03219
5505.77802,0.04547
5507.70649,0.05300
5509.63496,0.05813
5511.56343,0.05570
5513.49190,0.04408
5515.42037,0.03566
5517.34883,0.03612
5519.27730,0.03387
5521.20577,0.02518
5523.13424,0.02063
5525.06271,0.02217
5526.99118,0.03229
5528.91965,0.05081
5530.84811,0.05771
5532.77658,0.04493
5534.70505,0.02944
5536.63352,0.02050
5538.56199,0.02136
5540.49046,0.02471
5542.41893,0.01298
5544.34740,0.00051
5546.27586,0.00597
5548.20433,0.01604
5550.13280,0.02656
5552.06127,0.04629
5553.98974,0.06034
5555.91821,0.04901
5557.84668,0.02723
5559.77514,0.01975
5561.70361,0.02447
5563.63208,0.02616
5565.56055,0.01621
5567.48902,-0.00104
5569.41749,-0.01368
5571.34596,-0.00485
5573.27443,0.02646
5575.20289,0.05030
5577.13136,0.06158
5579.05983,0.07213
5580.98830,0.06519
5582.91677,0.04267
5584.84524,0.03122
5586.77371,0.03392
5588.70217,0.03998
5590.63064,0.04446
5592.55911,0.04801
5594.48758,0.05246
5596.41605,0.05524
5598.34452,0.05246
5600.27299,0.04490
5602.20145,0.03264
5604.12992,0.02534
5606.05839,0.02759
5607.98686,0.02914
5609.91533,0.02989
5611.84380,0.02806
5613.77227,0.02737
5615.70074,0.04254
5617.62920,0.06014
5619.55767,0.06012
5621.48614,0.06050
5623.41461,0.07607
5625.34308,0.07643
5627.27155,0.04377
5629.20002,0.01300
5631.12848,0.00815
5633.05695,0.01862
5634.98542,0.03659
5636.91389,0.05565
5638.84236,0.06273
5640.77083,0.05899
5642.69930,0.05928
5644.62777,0.06355
5646.55623,0.05753
5648.48470,0.04813
5650.41317,0.05170
5652.34164,0.06116
5654.27011,0.05930
5656.19858,0.04329
5658.12705,0.03183
5660.05551,0.03074
5661.98398,0.02664
5663.91245,0.02589
5665.84092,0.03194
5667.76939,0.03234
5669.69786,0.03397
5671.62633,0.04089
5673.55480,0.03484
5675.48326,0.02318
5677.41173,0.03260
5679.34020,0.04958
5681.26867,0.04446
5683.19714,0.01975
5685.12561,0.00574
5687.05408,0.01664
5688.98254,0.01829
5690.91101,-0.00500
5692.83948,-0.00885
5694.76795,0.01506
5696.69642,0.02838
5698.62489,0.02864
5700.55336,0.02900
5702.48183,0.02363
5704.41029,0.01483
5706.33876,0.00717
5708.26723,0.00250
5710.19570,0.00450
5712.12417,0.00883
5714.05264,0.00277
5715.98111,-0.01602
5717.90957,-0.02862
5719.83804,-0.01814
5721.76651,0.01164
5723.69498,0.04343
5725.62345,0.06456
5727.55192,0.08004
5729.48039,0.08291
5731.40886,0.06015
5733.33732,0.03850
5735.26579,0.03908
5737.19426,0.03568
5739.12273,0.02144
5741.05120,0.02148
5742.97967,0.03912
5744.90814,0.05372
5746.83660,0.03940
5748.76507,0.00276
5750.69354,-0.01413
5752.62201,0.00565
5754.55048,0.02919
5756.47895,0.02812
5758.40742,0.02479
5760.33588,0.04123
5762.26435,0.05180
5764.19282,0.03901
5766.12129,0.01520
5768.04976,0.00293
5769.97823,0.02659
5771.90670,0.05886
5773.83517,0.05093
5775.76363,0.02118
5777.69210,0.01426
5779.62057,0.02629
5781.54904,0.02598
5783.47751,0.02371
5785.40598,0.03756
5787.33445,0.04904
5789.26291,0.05064
5791.19138,0.05340
5793.11985,0.05795
5795.04832,0.05140
5796.97679,0.02712
5798.90526,0.00670
5800.83373,0.00500
5802.76220,0.01838
5804.69066,0.04213
5806.61913,0.05623
5808.54760,0.04938
5810.47607,0.04159
5812.40454,0.05149
5814.33301,0.07549
5816.26148,0.08855
5818.18994,0.07826
5820.11841,0.06481
5822.04688,0.05842
5823.97535,0.04375
5825.90382,0.01580
5827.83229,0.00526
5829.76076,0.03817
5831.68923,0.07539
5833.61769,0.07049
5835.54616,0.03916
5837.47463,0.01742
5839.40310,0.01344
5841.33157,0.01632
5843.26004,0.01413
5845.18851,0.01336
5847.11697,0.01509
5849.04544,0.01344
5850.97391,0.01442
5852.90238,0.00892
5854.83085,0.00034
5856.75932,0.01315
5858.68779,0.03977
5860.61626,0.05582
5862.54472,0.05555
5864.47319,0.03389
5866.40166,-0.00585
5868.33013,-0.02582
5870.25860,-0.00620
5872.18707,0.02011
5874.11554,0.02474
5876.04400,0.01784
5877.97247,0.02234
5879.90094,0.04042
5881.82941,0.05571
5883.75788,0.06168
5885.68635,0.06046
5887.61482,0.04457
5889.54329,0.02320
5891.47175,0.02231
5893.40022,0.03066
5895.32869,0.01651
5897.25716,-0.00555
5899.18563,-0.00333
5901.11410,0.01224
5903.04257,0.01261
5904.97103,-0.00172
5906.89950,0.00524
5908.82797,0.04117
5910.75644,0.06023
5912.68491,0.03810
5914.61338,0.00062
5916.54185,-0.00232
5918.47032,0.04208
5920.39878,0.07689
5922.32725,0.05944
5924.25572,0.01621
5926.18419,-0.00658
5928.11266,0.00863
5930.04113,0.03280
5931.96960,0.03142
5933.89806,0.01396
5935.82653,0.02031
5937.75500,0.03904
5939.68347,0.02590
5941.61194,0.00929
5943.54041,0.01901
5945.46888,0.02424
5947.39734,0.03097
5949.32581,0.05636
5951.25428,0.06961
5953.18275,0.06394
5955.11122,0.06595
5957.03969,0.06634
5958.96816,0.05596
5960.89663,0.04804
5962.82509,0.04359
5964.75356,0.04386
5966.68203,0.04586
5968.61050,0.04699
5970.53897,0.05837
5972.46744,0.07794
5974.39591,0.07806
5976.32437,0.05564
5978.25284,0.03613
5980.18131,0.02190
5982.10978,0.02372
5984.03825,0.05226
5985.96672,0.07459
5987.89519,0.07974
5989.82366,0.08483
5991.75212,0.08194
5993.68059,0.07337
5995.60906,0.06343
5997.53753,0.04577
5999.46600,0.03743
6001.39447,0.03622
6003.32294,0.01857
6005.25140,-0.00665
6007.17987,-0.00641
6009.10834,0.02405
6011.03681,0.05251
6012.96528,0.06249
6014.89375,0.06182
6016.82222,0.06211
6018.75069,0.07258
6020.67915,0.06970
6022.60762,0.04161
6024.53609,0.01696
6026.46456,0.01471
6028.39303,0.03102
6030.32150,0.04482
6032.24997,0.03771
6034.17843,0.01309
6036.10690,0.00400
6038.03537,0.02100
6039.96384,0.02912
6041.89231,0.03031
6043.82078,0.04961
6045.74925,0.06897
6047.67772,0.05792
6049.60618,0.03925
6051.53465,0.04374
6053.46312,0.04425
6055.39159,0.03193
6057.32006,0.02850
6059.24853,0.03761
6061.17700,0.05521
6063.10546,0.06306
6065.03393,0.05049
6066.96240,0.03721
6068.89087,0.03046
6070.81934,0.02977
6072.74781,0.03860
6074.67628,0.05288
6076.60475,0.05961
6078.53321,0.04696
6080.46168,0.02916
6082.39015,0.02122
6084.31862,0.03019
6086.24709,0.05176
6088.17556,0.05021
6090.10403,0.01941
6092.03249,-0.00618
6093.96096,-0.00486
6095.88943,0.00549
6097.81790,0.02134
6099.74637,0.04370
6101.67484,0.05011
6103.60331,0.04699
6105.53177,0.03131
6107.46024,0.01030
6109.38871,0.02035
6111.31718,0.04974
6113.24565,0.05801
6115.17412,0.05173
6117.10259,0.07239
6119.03106,0.09446
6120.95952,0.06827
6122.88799,0.04479
6124.81646,0.06305
6126.74493,0.06672
6128.67340,0.01518
6130.60187,-0.02384
6132.53034,-0.01931
6134.45880,-0.01974
6136.38727,-0.02775
6138.31574,-0.01729
6140.24421,0.00223
6142.17268,0.01778
6144.10115,0.03813
6146.02962,0.05475
6147.95809,0.04990
6149.88655,0.03826
6151.81502,0.03804
6153.74349,0.04229
6155.67196,0.04976
6157.60043,0.05522
6159.52890,0.05121
6161.45737,0.04859
6163.38583,0.04719
6165.31430,0.05216
6167.24277,0.06591
6169.17124,0.06136
6171.09971,0.05231
6173.02818,0.07354
6174.95665,0.09369
6176.88512,0.08159
6178.81358,0.05845
6180.74205,0.04897
6182.67052,0.04980
6184.59899,0.04430
6186.52746,0.01586
6188.45593,-0.02689
6190.38440,-0.04035
6192.31286,-0.01151
6194.24133,0.04606
6196.16980,0.08896
6198.09827,0.06049
6200.02674,-0.01504
6201.95521,-0.05711
6203.88368,-0.04048
6205.81215,-0.01272
6207.74061,0.01407
6209.66908,0.04574
6211.59755,0.04405
6213.52602,0.03236
6215.45449,0.05487
6217.38296,0.07771
6219.31143,0.07476
6221.23989,0.07820
6223.16836,0.08416
6225.09683,0.05682
6227.02530,0.02876
6228.95377,0.04252
6230.88224,0.06194
6232.81071,0.05724
6234.73918,0.04813
6236.66764,0.03691
6238.59611,0.02469
6240.52458,0.00897
6242.45305,-0.01369
6244.38152,-0.02455
6246.30999,-0.02651
6248.23846,-0.02207
6250.16692,-0.00006
6252.09539,0.03012
6254.02386,0.05563
6255.95233,0.05867
6257.88080,0.03053
6259.80927,0.00544
6261.73774,0.00359
6263.66621,0.01384
6265.59467,0.02281
6267.52314,0.02372
6269.45161,0.02825
6271.38008,0.01975
6273.30855,-0.01457
6275.23702,-0.00996
6277.16549,0.05395
6279.09395,0.08279
6281.02242,0.04664
6282.95089,0.00887
6284.87936,0.00938
6286.80783,0.03261
6288.73630,0.04824
6290.66477,0.04320
6292.59323,0.03169
6294.52170,0.02993
6296.45017,0.04997
6298.37864,0.08227
6300.30711,0.09500
6302.23558,0.07374
6304.16405,0.04613
6306.09252,0.03543
6308.02098,0.01322
6309.94945,-0.01563
6311.87792,0.01658
6313.80639,0.07377
6315.73486,0.07246
6317.66333,0.03148
6319.59180,-0.01029
6321.52026,-0.00706
6323.44873,0.06282
6325.37720,0.12298
6327.30567,0.13330
6329.23414,0.09895
6331.16261,0.03932
6333.09108,0.02609
6335.01955,0.06645
6336.94801,0.08896
6338.87648,0.06306
6340.80495,-0.00070
6342.73342,-0.07318
6344.66189,-0.10481
6346.59036,-0.08308
6348.51883,-0.06061
6350.44729,-0.04108
6352.37576,-0.00779
6354.30423,0.01138
6356.23270,0.00350
6358.16117,-0.01646
6360.08964,-0.00948
6362.01811,0.02983
6363.94658,0.05927
6365.87504,0.04637
6367.80351,-0.00263
6369.73198,-0.04316
6371.66045,-0.05129
6373.58892,-0.05530
6375.51739,-0.05939
6377.44586,-0.01392
6379.37432,0.04158
6381.30279,0.03635
6383.23126,-0.00271
6385.15973,-0.01864
6387.08820,-0.01362
6389.01667,-0.00764
6390.94514,0.00388
6392.87361,0.01729
6394.80207,0.02657
6396.73054,0.04474
6398.65901,0.06138
6400.58748,0.06136
6402.51595,0.05078
6404.44442,0.04646
6406.37289,0.03925
6408.30135,0.03834
6410.22982,0.07908
6412.15829,0.11628
6414.08676,0.10545
6416.01523,0.07619
6417.94370,0.04997
6419.87217,0.02910
6421.80064,0.02276
6423.72910,0.03355
6425.65757,0.03905
6427.58604,0.03331
6429.51451,0.03397
6431.44298,0.02742
6433.37145,0.01873
6435.29992,0.04738
6437.22838,0.08134
6439.15685,0.07372
6441.08532,0.05802
6443.01379,0.03967
6444.94226,0.01593
6446.87073,0.01370
6448.79920,0.01635
6450.72766,0.02296
6452.65613,0.05263
6454.58460,0.07959
6456.51307,0.07735
6458.44154,0.03368
6460.37001,-0.01908
6462.29848,-0.01696
6464.22695,0.01687
6466.15541,0.02015
6468.08388,0.00596
6470.01235,-0.00810
6471.94082,-0.02572
6473.86929,-0.02557
6475.79776,-0.00099
6477.72623,0.02788
6479.65469,0.03751
6481.58316,0.00979
6483.51163,-0.01934
6485.44010,-0.00444
6487.36857,0.02599
6489.29704,0.03258
6491.22551,0.01842
6493.15398,0.00971
6495.08244,0.01534
6497.01091,0.01752
6498.93938,0.01877
6500.86785,0.02389
6502.79632,0.01940
6504.72479,0.01415
6506.65326,0.02361
6508.58172,0.04567
6510.51019,0.06228
6512.43866,0.05404
6514.36713,0.03195
6516.29560,0.02269
6518.22407,0.01612
6520.15254,-0.00508
6522.08101,-0.01958
6524.00947,-0.03136
6525.93794,-0.05956
6527.86641,-0.06241
6529.79488,-0.02945
6531.72335,-0.01856
6533.65182,-0.03121
6535.58029,-0.02819
6537.50875,-0.02295
6539.43722,-0.01380
6541.36569,0.01371
6543.29416,0.03807
6545.22263,0.05108
6547.15110,0.06000
6549.07957,0.06580
6551.00804,0.05969
6552.93650,0.02176
6554.86497,-0.05351
6556.79344,-0.08928
6558.72191,-0.02723
6560.65038,0.04423
6562.57885,0.06254
6564.50732,0.06800
6566.43578,0.05376
6568.36425,0.00694
6570.29272,-0.00961
6572.22119,0.05191
6574.14966,0.13773
6576.07813,0.14248
6578.00660,0.06248
6579.93507,0.02711
6581.86353,0.06884
6583.79200,0.08894
6585.72047,0.06314
6587.64894,0.04169
6589.57741,0.05246
6591.50588,0.07190
6593.43435,0.06988
6595.36281,0.08609
6597.29128,0.13934
6599.21975,0.14874
6601.14822,0.08772
6603.07669,0.03314
6605.00516,0.00322
6606.93363,0.02967
6608.86210,0.11806
6610.79056,0.13404
6612.71903,0.05776
6614.64750,0.01478
6616.57597,0.01301
6618.50444,0.02263
6620.43291,0.05582
6622.36138,0.07985
6624.28984,0.08781
6626.21831,0.10049
6628.14678,0.10847
6630.07525,0.10760
6632.00372,0.07119
6633.93219,0.00112
6635.86066,-0.05102
6637.78912,-0.04864
6639.71759,-0.00426
6641.64606,0.03309
6643.57453,0.04472
6645.50300,0.06305
6647.43147,0.08603
6649.35994,0.07613
6651.28841,0.05994
6653.21687,0.06458
6655.14534,0.05373
6657.07381,0.03748
6659.00228,0.05006
6660.93075,0.05316
6662.85922,0.06509
6664.78769,0.09910
6666.71615,0.08595
6668.64462,0.03947
6670.57309,0.05743
6672.50156,0.11107
6674.43003,0.09025
6676.35850,0.02209
6678.28697,-0.02143
6680.21544,-0.04971
6682.14390,-0.07156
6684.07237,-0.04226
6686.00084,0.01646
6687.92931,0.00313
6689.85778,-0.04718
6691.78625,-0.04106
6693.71472,-0.02307
6695.64318,0.00732
6697.57165,0.06202
6699.50012,0.06668
6701.42859,0.00508
6703.35706,-0.02527
6705.28553,0.04679
6707.21400,0.13950
6709.14247,0.14375
6711.07093,0.07451
6712.99940,0.02010
6714.92787,0.02276
6716.85634,0.02328
6718.78481,-0.00557
6720.71328,0.00543
6722.64175,0.05984
6724.57021,0.08986
6726.49868,0.09713
6728.42715,0.10771
6730.35562,0.10057
6732.28409,0.08019
6734.21256,0.07022
6736.14103,0.05703
6738.06950,0.03197
6739.99796,-0.00407
6741.92643,-0.01728
6743.85490,0.02636
6745.78337,0.06402
6747.71184,0.04351
6749.64031,0.00324
6751.56878,-0.00593
6753.49724,0.00692
6755.42571,0.01090
6757.35418,-0.01072
6759.28265,-0.05877
6761.21112,-0.09990
6763.13959,-0.09111
6765.06806,-0.05076
6766.99653,-0.03343
6768.92499,-0.04888
6770.85346,-0.04445
6772.78193,-0.01144
6774.71040,-0.01568
6776.63887,-0.03058
6778.56734,0.02212
6780.49581,0.07077
6782.42427,0.05929
6784.35274,0.01532
6786.28121,-0.03183
6788.20968,-0.02600
6790.13815,0.05100
6792.06662,0.11391
6793.99509,0.11170
6795.92355,0.09454
6797.85202,0.07421
6799.78049,0.04715
6801.70896,0.03193
6803.63743,0.03313
6805.56590,0.03124
6807.49437,0.00483
6809.42284,-0.03606
6811.35130,-0.06689
6813.27977,-0.06984
6815.20824,-0.06020
6817.13671,-0.03351
6819.06518,0.02106
6820.99365,0.06195
6822.92212,0.08812
6824.85058,0.13282
6826.77905,0.15828
6828.70752,0.14586
6830.63599,0.13301
6832.56446,0.13539
6834.49293,0.12101
6836.42140,0.09848
6838.34987,0.13473
6840.27833,0.15942
6842.20680,0.08637
6844.13527,-0.00103
6846.06374,-0.04591
6847.99221,-0.07272
6849.92068,-0.07522
6851.84915,-0.05075
6853.77761,0.02784
6855.70608,0.15679
6857.63455,0.20643
6859.56302,0.14812
6861.49149,0.04035
6863.41996,-0.08415
6865.34843,-0.14726
6867.27690,-0.10198
6869.20536,-0.02852
6871.13383,0.02450
6873.06230,0.07841
6874.99077,0.09038
6876.91924,0.05754
6878.84771,0.05482
6880.77618,0.07360
6882.70464,0.05985
6884.63311,0.06582
6886.56158,0.09866
6888.49005,0.06193
6890.41852,-0.03258
6892.34699,-0.06864
6894.27546,-0.04669
6896.20393,-0.02733
6898.13239,-0.02218
6900.06086,-0.00123
6901.98933,0.03166
6903.91780,0.04107
6905.84627,0.03541
6907.77474,-0.00411
6909.70321,-0.08087
6911.63167,-0.07960
6913.56014,0.06569
6915.48861,0.19052
6917.41708,0.16860
6919.34555,0.08581
6921.27402,0.01294
6923.20249,-0.01418
6925.13096,0.01140
6927.05942,0.00617
6928.98789,-0.04845
6930.91636,-0.04689
6932.84483,0.03493
6934.77330,0.05939
6936.70177,0.02384
6938.63024,0.00263
6940.55870,0.03212
6942.48717,0.08522
6944.41564,0.10357
6946.34411,0.12517
6948.27258,0.13818
6950.20105,0.08904
6952.12952,0.06211
6954.05799,0.08698
6955.98645,0.08286
6957.91492,0.06410
6959.84339,0.06191
6961.77186,0.03640
6963.70033,-0.00189
6965.62880,0.01552
6967.55727,0.09020
6969.48573,0.11767
6971.41420,0.05980
6973.34267,0.02097
6975.27114,0.05997
6977.19961,0.09350
6979.12808,0.03198
6981.05655,-0.08304
6982.98501,-0.12814
6984.91348,-0.08144
6986.84195,-0.01442
6988.77042,0.03487
6990.69889,0.04530
6992.62736,0.05565
6994.55583,0.06893
6996.48430,0.03720
6998.41276,-0.01109
7000.34123,-0.00378
7002.26970,0.03391
7004.19817,0.04362
7006.12664,0.05196
7008.05511,0.06310
7009.98358,0.05771
7011.91204,0.08936
7013.84051,0.15294
7015.76898,0.16535
7017.69745,0.11295
7019.62592,0.02790
7021.55439,0.01126
7023.48286,0.10126
7025.41133,0.14801
7027.33979,0.08349
7029.26826,0.04417
7031.19673,0.09893
7033.12520,0.15487
7035.05367,0.14051
7036.98214,0.06001
7038.91061,0.00285
7040.83907,0.00505
7042.76754,0.04416
7044.69601,0.05445
7046.62448,-0.00643
7048.55295,-0.09075
7050.48142,-0.09756
7052.40989,0.00500
7054.33836,0.08594
7056.26682,0.02767
7058.19529,-0.01922
7060.12376,0.03395
7062.05223,0.03482
7063.98070,-0.00996
7065.90917,0.02068
7067.83764,0.08797
7069.76610,0.11759
7071.69457,0.09924
7073.62304,0.04030
7075.55151,-0.01530
7077.47998,-0.02811
7079.40845,-0.01066
7081.33692,-0.01903
7083.26539,-0.06453
7085.19385,-0.07894
7087.12232,-0.04031
7089.05079,0.02514
7090.97926,0.09577
7092.90773,0.12094
7094.83620,0.08794
7096.76467,0.08476
7098.69313,0.09347
7100.62160,0.07103
7102.55007,0.10157
7104.47854,0.15191
7106.40701,0.11761
7108.33548,0.07791
7110.26395,0.10398
7112.19242,0.13426
7114.12088,0.15152
7116.04935,0.20381
7117.97782,0.24905
7119.90629,0.16589
7121.83476,0.06475
7123.76323,0.02422
7125.69170,-0.04582
7127.62016,-0.09637
7129.54863,-0.06522
7131.47710,-0.04034
7133.40557,-0.01292
7135.33404,0.06914
7137.26251,0.13872
7139.19098,0.18689
7141.11944,0.26078
7143.04791,0.28839
7144.97638,0.17805
7146.90485,0.03049
7148.83332,-0.02573
7150.76179,-0.03220
7152.69026,-0.00994
7154.61873,0.04712
7156.54719,0.10617
7158.47566,0.13180
7160.40413,0.10828
7162.33260,0.07156
7164.26107,0.07187
7166.18954,0.10392
7168.11801,0.11613
7170.04647,0.07018
7171.97494,-0.00832
7173.90341,-0.04529
7175.83188,-0.00698
7177.76035,0.09416
7179.68882,0.16160
7181.61729,0.13410
7183.54576,0.05972
7185.47422,-0.02318
7187.40269,-0.04645
7189.33116,0.00030
7191.25963,0.02818
7193.18810,0.05669
7195.11657,0.09336
7197.04504,0.09695
7198.97350,0.10562
7200.90197,0.11447
7202.83044,0.10092
7204.75891,0.09389
7206.68738,0.08409
7208.61585,0.04530
7210.54432,0.02487
7212.47279,0.04786
7214.40125,0.07429
7216.32972,0.06134
7218.25819,0.00964
7220.18666,-0.02922
7222.11513,-0.02981
7224.04360,-0.02977
7225.97207,-0.05452
7227.90053,-0.03074
7229.82900,0.00663
7231.75747,-0.01568
7233.68594,0.00004
7235.61441,0.06857
7237.54288,0.13754
7239.47135,0.14267
7241.39982,0.05771
7243.32828,-0.05420
7245.25675,-0.14200
7247.18522,-0.18255
7249.11369,-0.17735
7251.04216,-0.17329
7252.97063,-0.08190
7254.89910,0.13279
7256.82756,0.23765
7258.75603,0.17392
7260.68450,0.02424
7262.61297,-0.08756
7264.54144,-0.16343
7266.46991,-0.16778
7268.39838,-0.06066
7270.32685,0.12906
7272.25531,0.29760
7274.18378,0.31759
7276.11225,0.25749
7278.04072,0.14746
7279.96919,0.00376
7281.89766,-0.02100
7283.82613,0.04853
7285.75459,0.08809
7287.68306,0.03710
7289.61153,-0.05249
7291.54000,-0.02434
7293.46847,0.09070
7295.39694,0.10526
7297.32541,0.01591
7299.25387,-0.03331
7301.18234,-0.00099
7303.11081,0.05986
7305.03928,0.17038
7306.96775,0.28264
7308.89622,0.26547
7310.82469,0.21050
7312.75316,0.16959
7314.68162,0.10497
7316.61009,0.10206
7318.53856,0.14514
7320.46703,0.09217
7322.39550,0.00097
7324.32397,-0.00564
7326.25244,0.02690
7328.18090,-0.02791
7330.10937,-0.09022
7332.03784,0.04005
7333.96631,0.19591
7335.89478,0.18604
7337.82325,0.09988
7339.75172,0.15039
7341.68019,0.27524
7343.60865,0.23626
7345.53712,0.17163
7347.46559,0.22684
7349.39406,0.30080
7351.32253,0.16455
7353.25100,-0.05875
7355.17947,-0.11448
7357.10793,0.04125
7359.03640,0.23215
7360.96487,0.12341
7362.89334,-0.11771
7364.82181,-0.14229
7366.75028,-0.03893
7368.67875,0.01159
7370.60722,0.05289
7372.53568,0.16159
7374.46415,0.21595
7376.39262,0.03495
7378.32109,-0.11886
7380.24956,-0.11894
7382.17803,-0.08576
7384.10650,-0.05434
7386.03496,0.10361
7387.96343,0.31850
7389.89190,0.37716
7391.82037,0.24672
7393.74884,0.05421
7395.67731,-0.04017
7397.60578,-0.07991
7399.53425,-0.10400
7401.46271,-0.03142
7403.39118,0.12524
7405.31965,0.20506
7407.24812,0.15802
7409.17659,0.07611
7411.10506,0.04569
7413.03353,0.12776
7414.96199,0.23809
7416.89046,0.29269
7418.81893,0.31142
7420.74740,0.21605
7422.67587,0.05473
7424.60434,0.01150
7426.53281,0.01548
7428.46128,-0.05659
7430.38974,-0.11353
7432.31821,-0.04287
7434.24668,0.07437
7436.17515,0.17307
7438.10362,0.21735
7440.03209,0.17472
7441.96056,0.06164
7443.88902,-0.01237
7445.81749,-0.00994
7447.74596,-0.03230
7449.67443,-0.09312
7451.60290,-0.10814
7453.53137,-0.04190
7455.45984,0.04813
7457.38831,0.11164
7459.31677,0.14978
7461.24524,0.16264
7463.17371,0.16472
7465.10218,0.14027
7467.03065,0.10590
7468.95912,0.11551
7470.88759,0.09737
7472.81605,0.06576
7474.74452,0.10655
7476.67299,0.10596
7478.60146,0.00486
7480.52993,-0.02584
7482.45840,0.03163
7484.38687,0.00266
7486.31533,-0.07850
7488.24380,-0.12917
7490.17227,-0.11417
7492.10074,-0.02209
7494.02921,0.03995
7495.95768,0.02415
7497.88615,-0.04048
