399.19301,-0.35297
401.12148,0.07065
403.04995,0.11991
404.97842,0.04684
406.90689,-0.05259
408.83536,-0.11583
410.76382,-0.05491
412.69229,0.01883
414.62076,0.01491
416.54923,0.06022
418.47770,0.20738
420.40617,0.23688
422.33464,0.12876
424.26311,0.04072
426.19157,0.01988
428.12004,0.02507
430.04851,0.02850
431.97698,0.05088
433.90545,0.06156
435.83392,0.03263
437.76239,0.01293
439.69085,0.02869
441.61932,0.04871
443.54779,0.04969
445.47626,0.06634
447.40473,0.11381
449.33320,0.13047
451.26167,0.08893
453.19013,0.05613
455.11860,0.05077
457.04707,0.02997
458.97554,0.02422
460.90401,0.06765
462.83248,0.08992
464.76095,0.05481
466.68942,0.03147
468.61788,0.02337
470.54635,-0.02700
472.47482,-0.06679
474.40329,0.00340
476.33176,0.06534
478.26023,0.06159
480.18870,0.03507
482.11716,0.01826
484.04563,0.03458
485.97410,0.04796
487.90257,0.03200
489.83104,0.03866
491.75951,0.06290
493.68798,0.04850
495.61645,0.02653
497.54491,0.04120
499.47338,0.07520
501.40185,0.09273
503.33032,0.08171
505.25879,0.06292
507.18726,0.03382
509.11573,0.01236
511.04419,0.03519
512.97266,0.07033
514.90113,0.06486
516.82960,0.01650
518.75807,-0.01128
520.68654,0.01367
522.61501,0.04052
524.54348,0.04485
526.47194,0.03822
528.40041,0.02833
530.32888,0.03139
532.25735,0.04219
534.18582,0.04247
536.11429,0.03312
538.04276,0.02797
539.97122,0.03101
541.89969,0.02385
543.82816,0.01770
545.75663,0.04041
547.68510,0.06299
549.61357,0.07058
551.54204,0.11133
553.47051,0.17288
555.39897,0.16977
557.32744,0.09526
559.25591,0.03721
561.18438,0.02288
563.11285,0.01759
565.04132,0.01325
566.96979,0.02907
568.89825,0.04800
570.82672,0.03981
572.75519,0.02302
574.68366,0.02259
576.61213,0.02530
578.54060,0.01740
580.46907,0.01070
582.39754,0.01607
584.32600,0.02863
586.25447,0.04690
588.18294,0.07103
590.11141,0.08242
592.03988,0.07045
593.96835,0.06161
595.89682,0.06641
597.82528,0.06800
599.75375,0.06292
601.68222,0.04916
603.61069,0.03320
605.53916,0.03666
607.46763,0.05014
609.39610,0.05044
611.32456,0.04498
613.25303,0.04545
615.18150,0.05084
617.10997,0.05885
619.03844,0.05806
620.96691,0.04792
622.89538,0.05049
624.82385,0.06461
626.75231,0.06899
628.68078,0.06797
630.60925,0.07075
632.53772,0.06885
634.46619,0.06181
636.39466,0.05339
638.32313,0.04659
640.25159,0.04566
642.18006,0.05008
644.10853,0.05573
646.03700,0.05466
647.96547,0.05551
649.89394,0.06938
651.82241,0.07265
653.75088,0.05083
655.67934,0.02942
657.60781,0.02890
659.53628,0.03743
661.46475,0.04113
663.39322,0.04192
665.32169,0.04053
667.25016,0.04266
669.17862,0.06047
671.10709,0.06560
673.03556,0.05294
674.96403,0.04246
676.89250,0.04334
678.82097,0.04813
680.74944,0.04744
682.67791,0.04478
684.60637,0.04590
686.53484,0.04084
688.46331,0.03338
690.39178,0.03982
692.32025,0.04794
694.24872,0.04547
696.17719,0.04331
698.10565,0.04591
700.03412,0.05009
701.96259,0.05599
703.89106,0.05431
705.81953,0.04806
707.74800,0.05653
709.67647,0.07202
711.60494,0.07508
713.53340,0.06560
715.46187,0.05546
717.39034,0.05273
719.31881,0.05338
721.24728,0.05673
723.17575,0.06419
725.10422,0.06532
727.03268,0.05684
728.96115,0.04760
730.88962,0.04481
732.81809,0.05089
734.74656,0.05683
736.67503,0.05596
738.60350,0.05307
740.53197,0.04898
742.46043,0.04554
744.38890,0.04824
746.31737,0.05503
748.24584,0.05810
750.17431,0.05346
752.10278,0.04491
754.03125,0.04178
755.95971,0.04366
757.88818,0.04169
759.81665,0.03959
761.74512,0.04091
763.67359,0.04524
765.60206,0.05426
767.53053,0.06167
769.45900,0.06399
771.38746,0.06536
773.31593,0.06805
775.24440,0.06907
777.17287,0.06670
779.10134,0.06351
781.02981,0.06063
782.95828,0.05863
784.88674,0.05766
786.81521,0.05689
788.74368,0.05390
790.67215,0.05011
792.60062,0.05110
794.52909,0.05460
796.45756,0.05364
798.38602,0.05170
800.31449,0.05487
802.24296,0.05968
804.17143,0.06271
806.09990,0.06299
808.02837,0.05899
809.95684,0.05293
811.88531,0.04849
813.81377,0.04685
815.74224,0.04666
817.67071,0.04770
819.59918,0.04770
821.52765,0.04630
823.45612,0.04646
825.38459,0.04590
827.31305,0.04200
829.24152,0.03900
831.16999,0.04581
833.09846,0.05597
835.02693,0.05336
836.95540,0.04446
838.88387,0.04089
840.81234,0.04381
842.74080,0.05375
844.66927,0.06248
846.59774,0.06180
848.52621,0.05723
850.45468,0.05546
852.38315,0.05619
854.31162,0.05841
856.24008,0.06264
858.16855,0.06711
860.09702,0.06820
862.02549,0.06686
863.95396,0.06582
865.88243,0.06470
867.81090,0.06893
869.73937,0.07639
871.66783,0.06999
873.59630,0.05467
875.52477,0.05258
877.45324,0.05915
879.38171,0.05547
881.31018,0.04484
883.23865,0.04444
885.16711,0.05273
887.09558,0.05385
889.02405,0.04833
890.95252,0.04606
892.88099,0.04787
894.80946,0.04987
896.73793,0.04937
898.66640,0.04837
900.59486,0.04863
902.52333,0.05002
904.45180,0.05374
906.38027,0.05828
908.30874,0.06024
910.23721,0.05827
912.16568,0.05667
914.09414,0.05689
916.02261,0.05255
917.95108,0.04819
919.87955,0.05266
921.80802,0.06079
923.73649,0.06497
925.66496,0.06534
927.59343,0.06330
929.52189,0.05744
931.45036,0.05213
933.37883,0.05294
935.30730,0.05693
937.23577,0.06144
939.16424,0.06349
941.09271,0.06209
943.02117,0.06187
944.94964,0.06192
946.87811,0.05871
948.80658,0.05195
950.73505,0.04576
952.66352,0.04654
954.59199,0.05381
956.52045,0.06155
958.44892,0.06280
960.37739,0.05549
962.30586,0.04822
964.23433,0.04826
966.16280,0.05307
968.09127,0.05772
970.01974,0.06198
971.94820,0.06671
973.87667,0.06812
975.80514,0.06733
977.73361,0.06858
979.66208,0.06649
981.59055,0.06018
983.51902,0.05841
985.44748,0.06285
987.37595,0.06778
989.30442,0.06770
991.23289,0.06282
993.16136,0.05969
995.08983,0.06368
997.01830,0.07136
998.94677,0.07217
1000.87523,0.06412
1002.80370,0.05845
1004.73217,0.06058
1006.66064,0.06410
1008.58911,0.06397
1010.51758,0.06203
1012.44605,0.06225
1014.37451,0.06392
1016.30298,0.06550
1018.23145,0.06587
1020.15992,0.06422
1022.08839,0.06671
1024.01686,0.07256
1025.94533,0.07523
1027.87380,0.07865
1029.80226,0.07899
1031.73073,0.06995
1033.65920,0.06094
1035.58767,0.05630
1037.51614,0.05422
1039.44461,0.05881
1041.37308,0.06969
1043.30154,0.07728
1045.23001,0.07478
1047.15848,0.06770
1049.08695,0.06407
1051.01542,0.06646
1052.94389,0.07379
1054.87236,0.07906
1056.80083,0.07678
1058.72929,0.06951
1060.65776,0.06368
1062.58623,0.06379
1064.51470,0.06466
1066.44317,0.06296
1068.37164,0.06582
1070.30011,0.07088
1072.22857,0.07172
1074.15704,0.07077
1076.08551,0.06998
1078.01398,0.07092
1079.94245,0.07368
1081.87092,0.07351
1083.79939,0.06976
1085.72786,0.06819
1087.65632,0.06912
1089.58479,0.06831
1091.51326,0.06780
1093.44173,0.07085
1095.37020,0.07421
1097.29867,0.07409
1099.22714,0.07274
1101.15560,0.07091
1103.08407,0.06589
1105.01254,0.06033
1106.94101,0.06131
1108.86948,0.07054
1110.79795,0.08079
1112.72642,0.08694
1114.65489,0.08738
1116.58335,0.08173
1118.51182,0.07548
1120.44029,0.07195
1122.36876,0.07204
1124.29723,0.07292
1126.22570,0.06970
1128.15417,0.06820
1130.08263,0.07032
1132.01110,0.06974
1133.93957,0.06652
1135.86804,0.06375
1137.79651,0.06190
1139.72498,0.05995
1141.65345,0.05883
1143.58191,0.05873
1145.51038,0.05903
1147.43885,0.06231
1149.36732,0.06941
1151.29579,0.07534
1153.22426,0.07588
1155.15273,0.07451
1157.08120,0.07472
1159.00966,0.07516
1160.93813,0.07549
1162.86660,0.07481
1164.79507,0.07209
1166.72354,0.06992
1168.65201,0.06892
1170.58048,0.06715
1172.50894,0.06707
1174.43741,0.07055
1176.36588,0.07286
1178.29435,0.07147
1180.22282,0.06957
1182.15129,0.06785
1184.07976,0.06840
1186.00823,0.07410
1187.93669,0.07770
1189.86516,0.07441
1191.79363,0.07042
1193.72210,0.07043
1195.65057,0.07313
1197.57904,0.07527
1199.50751,0.07515
1201.43597,0.07273
1203.36444,0.06917
1205.29291,0.06576
1207.22138,0.06461
1209.14985,0.06641
1211.07832,0.06736
1213.00679,0.06649
1214.93526,0.06700
1216.86372,0.06918
1218.79219,0.06967
1220.72066,0.06893
1222.64913,0.07114
1224.57760,0.07419
1226.50607,0.07352
1228.43454,0.07104
1230.36300,0.07139
1232.29147,0.07471
1234.21994,0.07621
1236.14841,0.07409
1238.07688,0.07141
1240.00535,0.06991
1241.93382,0.06955
1243.86229,0.06983
1245.79075,0.07031
1247.71922,0.07099
1249.64769,0.07110
1251.57616,0.06966
1253.50463,0.06774
1255.43310,0.06765
1257.36157,0.06877
1259.29003,0.06914
1261.21850,0.06978
1263.14697,0.07107
1265.07544,0.07149
1267.00391,0.07133
1268.93238,0.07210
1270.86085,0.07440
1272.78932,0.07589
1274.71778,0.07459
1276.64625,0.07307
1278.57472,0.07290
1280.50319,0.07342
1282.43166,0.07418
1284.36013,0.07338
1286.28860,0.07113
1288.21706,0.07098
1290.14553,0.07362
1292.07400,0.07539
1294.00247,0.07433
1295.93094,0.07187
1297.85941,0.06986
1299.78788,0.06799
1301.71634,0.06417
1303.64481,0.05981
1305.57328,0.05968
1307.50175,0.06474
1309.43022,0.06994
1311.35869,0.07215
1313.28716,0.07332
1315.21563,0.07393
1317.14409,0.07439
1319.07256,0.07485
1321.00103,0.07285
1322.92950,0.07035
1324.85797,0.07058
1326.78644,0.07216
1328.71491,0.07417
1330.64337,0.07581
1332.57184,0.07612
1334.50031,0.07728
1336.42878,0.07848
1338.35725,0.07652
1340.28572,0.07187
1342.21419,0.06906
1344.14266,0.07114
1346.07112,0.07342
1347.99959,0.07256
1349.92806,0.07301
1351.85653,0.07467
1353.78500,0.07375
1355.71347,0.07330
1357.64194,0.07660
1359.57040,0.07999
1361.49887,0.08134
1363.42734,0.08234
1365.35581,0.08265
1367.28428,0.08290
1369.21275,0.08313
1371.14122,0.08230
1373.06969,0.08162
1374.99815,0.08041
1376.92662,0.07819
1378.85509,0.07642
1380.78356,0.07421
1382.71203,0.07265
1384.64050,0.07492
1386.56897,0.07992
1388.49743,0.08206
1390.42590,0.08061
1392.35437,0.08008
1394.28284,0.08139
1396.21131,0.08260
1398.13978,0.08430
1400.06825,0.08514
1401.99672,0.08313
1403.92518,0.08106
1405.85365,0.07921
1407.78212,0.07693
1409.71059,0.07611
1411.63906,0.07727
1413.56753,0.07995
1415.49600,0.08259
1417.42446,0.08438
1419.35293,0.08567
1421.28140,0.08484
1423.20987,0.08244
1425.13834,0.08078
1427.06681,0.07978
1428.99528,0.07852
1430.92375,0.07925
1432.85221,0.08242
1434.78068,0.08475
1436.70915,0.08304
1438.63762,0.07934
1440.56609,0.07747
1442.49456,0.07725
1444.42303,0.07937
1446.35149,0.08172
1448.27996,0.08138
1450.20843,0.07987
1452.13690,0.08129
1454.06537,0.08890
1455.99384,0.10024
1457.92231,0.09882
1459.85077,0.08738
1461.77924,0.08356
1463.70771,0.08460
1465.63618,0.08354
1467.56465,0.08058
1469.49312,0.08114
1471.42159,0.08582
1473.35006,0.08862
1475.27852,0.08533
1477.20699,0.08300
1479.13546,0.08316
1481.06393,0.08299
1482.99240,0.08168
1484.92087,0.08090
1486.84934,0.08283
1488.77780,0.08765
1490.70627,0.08867
1492.63474,0.08501
1494.56321,0.08380
1496.49168,0.08637
1498.42015,0.08673
1500.34862,0.08287
1502.27709,0.07839
1504.20555,0.07702
1506.13402,0.08830
1508.06249,0.10270
1509.99096,0.09730
1511.91943,0.08953
1513.84790,0.08503
1515.77637,0.08483
1517.70483,0.08777
1519.63330,0.08838
1521.56177,0.08650
1523.49024,0.08809
1525.41871,0.08970
1527.34718,0.08515
1529.27565,0.08030
1531.20412,0.08168
1533.13258,0.08524
1535.06105,0.08708
1536.98952,0.09315
1538.91799,0.10629
1540.84646,0.11314
1542.77493,0.10317
1544.70340,0.09256
1546.63186,0.08501
1548.56033,0.08151
1550.48880,0.08195
1552.41727,0.08527
1554.34574,0.09176
1556.27421,0.10040
1558.20268,0.10657
1560.13115,0.10078
1562.05961,0.09254
1563.98808,0.08709
1565.91655,0.08593
1567.84502,0.09150
1569.77349,0.09725
1571.70196,0.09531
1573.63043,0.09243
1575.55889,0.09027
1577.48736,0.08611
1579.41583,0.08339
1581.34430,0.08214
1583.27277,0.08100
1585.20124,0.08159
1587.12971,0.08557
1589.05818,0.08946
1590.98664,0.08902
1592.91511,0.08612
1594.84358,0.08351
1596.77205,0.08096
1598.70052,0.07890
1600.62899,0.07940
1602.55746,0.08247
1604.48592,0.08394
1606.41439,0.08290
1608.34286,0.08290
1610.27133,0.08304
1612.19980,0.08107
1614.12827,0.07863
1616.05674,0.07742
1617.98521,0.08044
1619.91367,0.08614
1621.84214,0.09042
1623.77061,0.09103
1625.69908,0.08912
1627.62755,0.08715
1629.55602,0.08478
1631.48449,0.08351
1633.41295,0.08513
1635.34142,0.08909
1637.26989,0.09090
1639.19836,0.08928
1641.12683,0.08712
1643.05530,0.08666
1644.98377,0.09021
1646.91223,0.09536
1648.84070,0.09438
1650.76917,0.09246
1652.69764,0.09253
1654.62611,0.09204
1656.55458,0.09177
1658.48305,0.09315
1660.41152,0.09644
1662.33998,0.09594
1664.26845,0.08865
1666.19692,0.08492
1668.12539,0.08758
1670.05386,0.09182
1671.98233,0.09354
1673.91080,0.09288
1675.83926,0.08987
1677.76773,0.08781
1679.69620,0.08936
1681.62467,0.09480
1683.55314,0.10030
1685.48161,0.09584
1687.41008,0.08857
1689.33855,0.08375
1691.26701,0.08232
1693.19548,0.08632
1695.12395,0.09320
1697.05242,0.09642
1698.98089,0.09523
1700.90936,0.08993
1702.83783,0.08598
1704.76629,0.08689
1706.69476,0.08642
1708.62323,0.08352
1710.55170,0.08234
1712.48017,0.08334
1714.40864,0.08727
1716.33711,0.09336
1718.26558,0.09380
1720.19404,0.08972
1722.12251,0.08644
1724.05098,0.08330
1725.97945,0.08079
1727.90792,0.08014
1729.83639,0.08126
1731.76486,0.08310
1733.69332,0.08429
1735.62179,0.08339
1737.55026,0.08232
1739.47873,0.08310
1741.40720,0.08447
1743.33567,0.08395
1745.26414,0.08261
1747.19261,0.08201
1749.12107,0.08278
1751.04954,0.08397
1752.97801,0.08383
1754.90648,0.08326
1756.83495,0.08263
1758.76342,0.08188
1760.69189,0.08256
1762.62035,0.08448
1764.54882,0.08540
1766.47729,0.08571
1768.40576,0.08632
1770.33423,0.08811
1772.26270,0.09068
1774.19117,0.09043
1776.11964,0.08854
1778.04810,0.08741
1779.97657,0.08592
1781.90504,0.08289
1783.83351,0.08049
1785.76198,0.08023
1787.69045,0.08208
1789.61892,0.08567
1791.54738,0.08813
1793.47585,0.08768
1795.40432,0.08807
1797.33279,0.08925
1799.26126,0.08888
1801.18973,0.08719
1803.11820,0.08561
1805.04666,0.08437
1806.97513,0.08396
1808.90360,0.08450
1810.83207,0.08426
1812.76054,0.08191
1814.68901,0.07951
1816.61748,0.07893
1818.54595,0.07819
1820.47441,0.07671
1822.40288,0.07807
1824.33135,0.08219
1826.25982,0.08438
1828.18829,0.08521
1830.11676,0.08544
1832.04523,0.08360
1833.97369,0.08327
1835.90216,0.08436
1837.83063,0.08380
1839.75910,0.08298
1841.68757,0.08381
1843.61604,0.08493
1845.54451,0.08480
1847.47298,0.08453
1849.40144,0.08351
1851.32991,0.08083
1853.25838,0.07918
1855.18685,0.08056
1857.11532,0.08327
1859.04379,0.08434
1860.97226,0.08287
1862.90072,0.08129
1864.82919,0.08137
1866.75766,0.08201
1868.68613,0.08223
1870.61460,0.08259
1872.54307,0.08295
1874.47154,0.08307
1876.40001,0.08331
1878.32847,0.08337
1880.25694,0.08282
1882.18541,0.08199
1884.11388,0.08210
1886.04235,0.08360
1887.97082,0.08478
1889.89929,0.08527
1891.82775,0.08670
1893.75622,0.08765
1895.68469,0.08613
1897.61316,0.08426
1899.54163,0.08378
1901.47010,0.08329
1903.39857,0.08290
1905.32704,0.08385
1907.25550,0.08491
1909.18397,0.08439
1911.11244,0.08330
1913.04091,0.08352
1914.96938,0.08525
1916.89785,0.08594
1918.82632,0.08405
1920.75478,0.08247
1922.68325,0.08237
1924.61172,0.08256
1926.54019,0.08250
1928.46866,0.08278
1930.39713,0.08410
1932.32560,0.08482
1934.25407,0.08341
1936.18253,0.08168
1938.11100,0.08193
1940.03947,0.08375
1941.96794,0.08549
1943.89641,0.08647
1945.82488,0.08648
1947.75335,0.08537
1949.68181,0.08447
1951.61028,0.08425
1953.53875,0.08409
1955.46722,0.08393
1957.39569,0.08338
1959.32416,0.08274
1961.25263,0.08274
1963.18110,0.08376
1965.10956,0.08456
1967.03803,0.08297
1968.96650,0.08080
1970.89497,0.08066
1972.82344,0.08184
1974.75191,0.08311
1976.68038,0.08362
1978.60884,0.08315
1980.53731,0.08208
1982.46578,0.08038
1984.39425,0.07950
1986.32272,0.08130
1988.25119,0.08331
1990.17966,0.08348
1992.10812,0.08347
1994.03659,0.08357
1995.96506,0.08293
1997.89353,0.08180
1999.82200,0.08159
2001.75047,0.08263
2003.67894,0.08294
2005.60741,0.08205
2007.53587,0.08203
2009.46434,0.08310
2011.39281,0.08370
2013.32128,0.08441
2015.24975,0.08615
2017.17822,0.08699
2019.10669,0.08579
2021.03515,0.08394
2022.96362,0.08241
2024.89209,0.08187
2026.82056,0.08194
2028.74903,0.08125
2030.67750,0.08082
2032.60597,0.08174
2034.53444,0.08215
2036.46290,0.08049
2038.39137,0.07901
2040.31984,0.07988
2042.24831,0.08140
2044.17678,0.08276
2046.10525,0.08458
2048.03372,0.08558
2049.96218,0.08517
2051.89065,0.08405
2053.81912,0.08309
2055.74759,0.08346
2057.67606,0.08406
2059.60453,0.08350
2061.53300,0.08336
2063.46147,0.08423
2065.38993,0.08481
2067.31840,0.08547
2069.24687,0.08621
2071.17534,0.08601
2073.10381,0.08559
2075.03228,0.08553
2076.96075,0.08614
2078.88921,0.08762
2080.81768,0.08842
2082.74615,0.08806
2084.67462,0.08794
2086.60309,0.08809
2088.53156,0.08648
2090.46003,0.08322
2092.38850,0.08174
2094.31696,0.08307
2096.24543,0.08499
2098.17390,0.08605
2100.10237,0.08592
2102.03084,0.08528
2103.95931,0.08564
2105.88778,0.08605
2107.81624,0.08551
2109.74471,0.08603
2111.67318,0.08738
2113.60165,0.08719
2115.53012,0.08487
2117.45859,0.08195
2119.38706,0.08106
2121.31553,0.08166
2123.24399,0.08161
2125.17246,0.08226
2127.10093,0.08373
2129.02940,0.08378
2130.95787,0.08329
2132.88634,0.08316
2134.81481,0.08186
2136.74327,0.07985
2138.67174,0.07967
2140.60021,0.08143
2142.52868,0.08182
2144.45715,0.08044
2146.38562,0.08003
2148.31409,0.08052
2150.24255,0.08138
2152.17102,0.08334
2154.09949,0.08569
2156.02796,0.08647
2157.95643,0.08570
2159.88490,0.08552
2161.81337,0.08647
2163.74184,0.08658
2165.67030,0.08539
2167.59877,0.08577
2169.52724,0.08823
2171.45571,0.08919
2173.38418,0.08665
2175.31265,0.08349
2177.24112,0.08204
2179.16958,0.08131
2181.09805,0.08178
2183.02652,0.08317
2184.95499,0.08453
2186.88346,0.08599
2188.81193,0.08581
2190.74040,0.08405
2192.66887,0.08268
2194.59733,0.08203
2196.52580,0.08137
2198.45427,0.08050
2200.38274,0.08057
2202.31121,0.08153
2204.23968,0.08208
2206.16815,0.08248
2208.09661,0.08362
2210.02508,0.08463
2211.95355,0.08461
2213.88202,0.08383
2215.81049,0.08304
2217.73896,0.08346
2219.66743,0.08530
2221.59590,0.08690
2223.52436,0.08638
2225.45283,0.08489
2227.38130,0.08565
2229.30977,0.08724
2231.23824,0.08610
2233.16671,0.08410
2235.09518,0.08458
2237.02364,0.08626
2238.95211,0.08607
2240.88058,0.08417
2242.80905,0.08302
2244.73752,0.08386
2246.66599,0.08658
2248.59446,0.08921
2250.52293,0.08919
2252.45139,0.08747
2254.37986,0.08617
2256.30833,0.08507
2258.23680,0.08420
2260.16527,0.08466
2262.09374,0.08526
2264.02221,0.08388
2265.95067,0.08212
2267.87914,0.08200
2269.80761,0.08246
2271.73608,0.08258
2273.66455,0.08233
2275.59302,0.08290
2277.52149,0.08517
2279.44996,0.08642
2281.37842,0.08555
2283.30689,0.08451
2285.23536,0.08384
2287.16383,0.08352
2289.09230,0.08354
2291.02077,0.08442
2292.94924,0.08713
2294.87770,0.08860
2296.80617,0.08595
2298.73464,0.08244
2300.66311,0.08058
2302.59158,0.08020
2304.52005,0.08093
2306.44852,0.08117
2308.37699,0.08158
2310.30545,0.08257
2312.23392,0.08094
2314.16239,0.07783
2316.09086,0.07860
2318.01933,0.08313
2319.94780,0.08723
2321.87627,0.08899
2323.80473,0.08811
2325.73320,0.08582
2327.66167,0.08352
2329.59014,0.08250
2331.51861,0.08469
2333.44708,0.08820
2335.37555,0.08956
2337.30401,0.08848
2339.23248,0.08621
2341.16095,0.08222
2343.08942,0.07773
2345.01789,0.07824
2346.94636,0.08425
2348.87483,0.08930
2350.80330,0.08920
2352.73176,0.08348
2354.66023,0.07765
2356.58870,0.07680
2358.51717,0.07392
2360.44564,0.06555
2362.37411,0.06264
2364.30258,0.06795
2366.23104,0.07317
2368.15951,0.07748
2370.08798,0.08200
2372.01645,0.08523
2373.94492,0.08888
2375.87339,0.09050
2377.80186,0.08676
2379.73033,0.08233
2381.65879,0.08197
2383.58726,0.08414
2385.51573,0.08586
2387.44420,0.08659
2389.37267,0.08741
2391.30114,0.08864
2393.22961,0.08853
2395.15807,0.08610
2397.08654,0.08363
2399.01501,0.08344
2400.94348,0.08444
2402.87195,0.08393
2404.80042,0.08174
2406.72889,0.08068
2408.65736,0.08219
2410.58582,0.08401
2412.51429,0.08464
2414.44276,0.08570
2416.37123,0.08654
2418.29970,0.08570
2420.22817,0.08451
2422.15664,0.08421
2424.08510,0.08542
2426.01357,0.08726
2427.94204,0.08753
2429.87051,0.08699
2431.79898,0.08816
2433.72745,0.08923
2435.65592,0.08769
2437.58439,0.08576
2439.51285,0.08484
2441.44132,0.08467
2443.36979,0.08592
2445.29826,0.08718
2447.22673,0.08669
2449.15520,0.08588
2451.08367,0.08547
2453.01213,0.08488
2454.94060,0.08575
2456.86907,0.08847
2458.79754,0.09041
2460.72601,0.08863
2462.65448,0.08386
2464.58295,0.08128
2466.51142,0.08273
2468.43988,0.08488
2470.36835,0.08577
2472.29682,0.08597
2474.22529,0.08589
2476.15376,0.08618
2478.08223,0.08716
2480.01070,0.08675
2481.93916,0.08425
2483.86763,0.08273
2485.79610,0.08364
2487.72457,0.08464
2489.65304,0.08432
2491.58151,0.08431
2493.50998,0.08608
2495.43844,0.08735
2497.36691,0.08599
2499.29538,0.08499
2501.22385,0.08619
2503.15232,0.08725
2505.08079,0.08727
2507.00926,0.08675
2508.93773,0.08576
2510.86619,0.08522
2512.79466,0.08554
2514.72313,0.08603
2516.65160,0.08614
2518.58007,0.08620
2520.50854,0.08648
2522.43701,0.08694
2524.36547,0.08832
2526.29394,0.08941
2528.22241,0.08849
2530.15088,0.08702
2532.07935,0.08644
2534.00782,0.08702
2535.93629,0.08809
2537.86476,0.08793
2539.79322,0.08623
2541.72169,0.08557
2543.65016,0.08671
2545.57863,0.08670
2547.50710,0.08531
2549.43557,0.08430
2551.36404,0.08398
2553.29250,0.08505
2555.22097,0.08689
2557.14944,0.08767
2559.07791,0.08749
2561.00638,0.08691
2562.93485,0.08550
2564.86332,0.08368
2566.79179,0.08391
2568.72025,0.08645
2570.64872,0.08727
2572.57719,0.08558
2574.50566,0.08495
2576.43413,0.08607
2578.36260,0.08707
2580.29107,0.08703
2582.21953,0.08669
2584.14800,0.08726
2586.07647,0.08914
2588.00494,0.09051
2589.93341,0.08903
2591.86188,0.08600
2593.79035,0.08460
2595.71882,0.08688
2597.64728,0.09150
2599.57575,0.09269
2601.50422,0.08948
2603.43269,0.08721
2605.36116,0.08721
2607.28963,0.08806
2609.21810,0.08919
2611.14656,0.08891
2613.07503,0.08718
2615.00350,0.08593
2616.93197,0.08583
2618.86044,0.08706
2620.78891,0.08850
2622.71738,0.08853
2624.64585,0.08868
2626.57431,0.08912
2628.50278,0.08810
2630.43125,0.08703
2632.35972,0.08716
2634.28819,0.08746
2636.21666,0.08835
2638.14513,0.09027
2640.07359,0.09099
2642.00206,0.08973
2643.93053,0.08780
2645.85900,0.08657
2647.78747,0.08699
2649.71594,0.08857
2651.64441,0.09042
2653.57288,0.09109
2655.50134,0.09030
2657.42981,0.08988
2659.35828,0.08945
2661.28675,0.08719
2663.21522,0.08466
2665.14369,0.08426
2667.07216,0.08596
2669.00062,0.08815
2670.92909,0.08949
2672.85756,0.09085
2674.78603,0.09245
2676.71450,0.09280
2678.64297,0.09130
2680.57144,0.08951
2682.49990,0.08928
2684.42837,0.09012
2686.35684,0.09124
2688.28531,0.09187
2690.21378,0.09111
2692.14225,0.08920
2694.07072,0.08746
2695.99919,0.08790
2697.92765,0.09126
2699.85612,0.09479
2701.78459,0.09490
2703.71306,0.09292
2705.64153,0.09182
2707.57000,0.09133
2709.49847,0.09029
2711.42693,0.09025
2713.35540,0.09215
2715.28387,0.09333
2717.21234,0.09349
2719.14081,0.09390
2721.06928,0.09387
2722.99775,0.09281
2724.92622,0.09128
2726.85468,0.09059
2728.78315,0.09105
2730.71162,0.09081
2732.64009,0.08837
2734.56856,0.08604
2736.49703,0.08689
2738.42550,0.08953
2740.35396,0.09046
2742.28243,0.09038
2744.21090,0.09166
2746.13937,0.09319
2748.06784,0.09378
2749.99631,0.09296
2751.92478,0.09076
2753.85325,0.08925
2755.78171,0.09080
2757.71018,0.09441
2759.63865,0.09688
2761.56712,0.09762
2763.49559,0.09712
2765.42406,0.09611
2767.35253,0.09523
2769.28099,0.09372
2771.20946,0.09212
2773.13793,0.09182
2775.06640,0.09247
2776.99487,0.09280
2778.92334,0.09261
2780.85181,0.09255
2782.78028,0.09276
2784.70874,0.09246
2786.63721,0.09156
2788.56568,0.09119
2790.49415,0.09071
2792.42262,0.08925
2794.35109,0.08879
2796.27956,0.09011
2798.20802,0.09176
2800.13649,0.09423
2802.06496,0.09740
2803.99343,0.09829
2805.92190,0.09600
2807.85037,0.09329
2809.77884,0.09227
2811.70731,0.09229
2813.63577,0.09302
2815.56424,0.09464
2817.49271,0.09449
2819.42118,0.09177
2821.34965,0.09047
2823.27812,0.09155
2825.20659,0.09302
2827.13505,0.09313
2829.06352,0.09187
2830.99199,0.09288
2832.92046,0.09691
2834.84893,0.09987
2836.77740,0.09853
2838.70587,0.09475
2840.63433,0.09228
2842.56280,0.09204
2844.49127,0.09339
2846.41974,0.09344
2848.34821,0.09164
2850.27668,0.09169
2852.20515,0.09316
2854.13362,0.09339
2856.06208,0.09296
2857.99055,0.09284
2859.91902,0.09312
2861.84749,0.09389
2863.77596,0.09360
2865.70443,0.09090
2867.63290,0.08901
2869.56136,0.09081
2871.48983,0.09274
2873.41830,0.09175
2875.34677,0.08955
2877.27524,0.08827
2879.20371,0.08989
2881.13218,0.09473
2883.06065,0.10040
2884.98911,0.10350
2886.91758,0.10208
2888.84605,0.09870
2890.77452,0.09662
2892.70299,0.09540
2894.63146,0.09458
2896.55993,0.09543
2898.48839,0.09693
2900.41686,0.09729
2902.34533,0.09638
2904.27380,0.09374
2906.20227,0.09088
2908.13074,0.09063
2910.05921,0.09160
2911.98768,0.09110
2913.91614,0.09056
2915.84461,0.09136
2917.77308,0.09261
2919.70155,0.09340
2921.63002,0.09323
2923.55849,0.09129
2925.48696,0.08735
2927.41542,0.08681
2929.34389,0.09294
2931.27236,0.09839
2933.20083,0.09805
2935.12930,0.09557
2937.05777,0.09450
2938.98624,0.09448
2940.91471,0.09368
2942.84317,0.09181
2944.77164,0.09030
2946.70011,0.08945
2948.62858,0.08896
2950.55705,0.08922
2952.48552,0.09024
2954.41399,0.09177
2956.34245,0.09219
2958.27092,0.09158
2960.19939,0.09251
2962.12786,0.09369
2964.05633,0.09375
2965.98480,0.09281
2967.91327,0.08995
2969.84174,0.08932
2971.77020,0.09351
2973.69867,0.09850
2975.62714,0.10082
2977.55561,0.09877
2979.48408,0.09521
2981.41255,0.09402
2983.34102,0.09467
2985.26948,0.09573
2987.19795,0.09540
2989.12642,0.09451
2991.05489,0.09521
2992.98336,0.09651
2994.91183,0.09858
2996.84030,0.10144
2998.76877,0.10161
3000.69723,0.09845
3002.62570,0.09675
3004.55417,0.09764
3006.48264,0.09785
3008.41111,0.09787
3010.33958,0.09691
3012.26805,0.09120
3014.19651,0.08126
3016.12498,0.07317
3018.05345,0.07537
3019.98192,0.08683
3021.91039,0.09672
3023.83886,0.10023
3025.76733,0.09969
3027.69579,0.09923
3029.62426,0.10016
3031.55273,0.09936
3033.48120,0.09846
3035.40967,0.09969
3037.33814,0.09955
3039.26661,0.09832
3041.19508,0.09871
3043.12354,0.09920
3045.05201,0.09751
3046.98048,0.09456
3048.90895,0.09490
3050.83742,0.09943
3052.76589,0.10214
3054.69436,0.09958
3056.62282,0.09549
3058.55129,0.09540
3060.47976,0.09723
3062.40823,0.09495
3064.33670,0.08964
3066.26517,0.08785
3068.19364,0.09276
3070.12211,0.09766
3072.05057,0.09698
3073.97904,0.09268
3075.90751,0.08740
3077.83598,0.08681
3079.76445,0.09219
3081.69292,0.09602
3083.62139,0.09394
3085.54985,0.09045
3087.47832,0.09187
3089.40679,0.09581
3091.33526,0.09571
3093.26373,0.09130
3095.19220,0.08852
3097.12067,0.08964
3099.04914,0.09180
3100.97760,0.09379
3102.90607,0.09512
3104.83454,0.09803
3106.76301,0.10139
3108.69148,0.09996
3110.61995,0.09602
3112.54842,0.09428
3114.47688,0.09507
3116.40535,0.09571
3118.33382,0.09402
3120.26229,0.09153
3122.19076,0.09085
3124.11923,0.09275
3126.04770,0.09486
3127.97617,0.09439
3129.90463,0.09343
3131.83310,0.09430
3133.76157,0.09497
3135.69004,0.09508
3137.61851,0.09566
3139.54698,0.09660
3141.47545,0.09796
3143.40391,0.09974
3145.33238,0.10022
3147.26085,0.09707
3149.18932,0.09368
3151.11779,0.09464
3153.04626,0.09760
3154.97473,0.09783
3156.90320,0.09499
3158.83166,0.09279
3160.76013,0.09431
3162.68860,0.09791
3164.61707,0.09943
3166.54554,0.09931
3168.47401,0.10036
3170.40248,0.10243
3172.33094,0.10437
3174.25941,0.10509
3176.18788,0.10422
3178.11635,0.10275
3180.04482,0.10200
3181.97329,0.10253
3183.90176,0.10389
3185.83022,0.10559
3187.75869,0.10753
3189.68716,0.10803
3191.61563,0.10520
3193.54410,0.10050
3195.47257,0.09740
3197.40104,0.09671
3199.32951,0.09651
3201.25797,0.09753
3203.18644,0.10005
3205.11491,0.10034
3207.04338,0.09734
3208.97185,0.09402
3210.90032,0.09337
3212.82879,0.09736
3214.75725,0.10357
3216.68572,0.10547
3218.61419,0.10231
3220.54266,0.10053
3222.47113,0.10216
3224.39960,0.10086
3226.32807,0.09562
3228.25654,0.09356
3230.18500,0.09612
3232.11347,0.10023
3234.04194,0.10251
3235.97041,0.10150
3237.89888,0.10081
3239.82735,0.10139
3241.75582,0.10152
3243.68428,0.10272
3245.61275,0.10528
3247.54122,0.10654
3249.46969,0.10674
3251.39816,0.10675
3253.32663,0.10628
3255.25510,0.10542
3257.18357,0.10324
3259.11203,0.10043
3261.04050,0.09741
3262.96897,0.09445
3264.89744,0.09394
3266.82591,0.09578
3268.75438,0.09728
3270.68285,0.09615
3272.61131,0.09461
3274.53978,0.09772
3276.46825,0.10443
3278.39672,0.11008
3280.32519,0.11128
3282.25366,0.10615
3284.18213,0.10104
3286.11060,0.10201
3288.03906,0.10300
3289.96753,0.09964
3291.89600,0.09725
3293.82447,0.09898
3295.75294,0.09975
3297.68141,0.09704
3299.60988,0.09501
3301.53834,0.09603
3303.46681,0.09831
3305.39528,0.09872
3307.32375,0.09706
3309.25222,0.09470
3311.18069,0.09242
3313.10916,0.09306
3315.03763,0.09720
3316.96609,0.10080
3318.89456,0.10311
3320.82303,0.10551
3322.75150,0.10527
3324.67997,0.10269
3326.60844,0.10179
3328.53691,0.10417
3330.46537,0.10780
3332.39384,0.10651
3334.32231,0.10008
3336.25078,0.09609
3338.17925,0.09668
3340.10772,0.10018
3342.03619,0.10530
3343.96466,0.10666
3345.89312,0.10259
3347.82159,0.09898
3349.75006,0.09850
3351.67853,0.09987
3353.60700,0.10265
3355.53547,0.10426
3357.46394,0.10090
3359.39240,0.09445
3361.32087,0.09064
3363.24934,0.09206
3365.17781,0.09533
3367.10628,0.09469
3369.03475,0.09053
3370.96322,0.08961
3372.89168,0.09370
3374.82015,0.09779
3376.74862,0.09889
3378.67709,0.09871
3380.60556,0.09971
3382.53403,0.09982
3384.46250,0.09829
3386.39097,0.09861
3388.31943,0.10030
3390.24790,0.10334
3392.17637,0.10723
3394.10484,0.10723
3396.03331,0.10506
3397.96178,0.10441
3399.89025,0.10232
3401.81871,0.09766
3403.74718,0.09442
3405.67565,0.09620
3407.60412,0.10236
3409.53259,0.10633
3411.46106,0.10403
3413.38953,0.09920
3415.31800,0.09463
3417.24646,0.09296
3419.17493,0.09736
3421.10340,0.10319
3423.03187,0.10430
3424.96034,0.10295
3426.88881,0.10250
3428.81728,0.10063
3430.74574,0.09693
3432.67421,0.09562
3434.60268,0.09692
3436.53115,0.09832
3438.45962,0.09951
3440.38809,0.10081
3442.31656,0.09924
3444.24503,0.09358
3446.17349,0.09036
3448.10196,0.09169
3450.03043,0.09398
3451.95890,0.09682
3453.88737,0.09833
3455.81584,0.09851
3457.74431,0.09866
3459.67277,0.09490
3461.60124,0.08803
3463.52971,0.08538
3465.45818,0.08836
3467.38665,0.09241
3469.31512,0.09370
3471.24359,0.09226
3473.17206,0.09200
3475.10052,0.09403
3477.02899,0.09408
3478.95746,0.09099
3480.88593,0.08911
3482.81440,0.08941
3484.74287,0.08828
3486.67134,0.08578
3488.59980,0.08565
3490.52827,0.08815
3492.45674,0.08763
3494.38521,0.08278
3496.31368,0.08050
3498.24215,0.08238
3500.17062,0.08362
3502.09909,0.08286
3504.02755,0.08147
3505.95602,0.08059
3507.88449,0.07893
3509.81296,0.07779
3511.74143,0.07998
3513.66990,0.08082
3515.59837,0.07866
3517.52683,0.07851
3519.45530,0.08023
3521.38377,0.08157
3523.31224,0.08353
3525.24071,0.08507
3527.16918,0.08521
3529.09765,0.08531
3531.02611,0.08441
3532.95458,0.08237
3534.88305,0.08147
3536.81152,0.08211
3538.73999,0.08198
3540.66846,0.08042
3542.59693,0.07954
3544.52540,0.07992
3546.45386,0.07994
3548.38233,0.07939
3550.31080,0.07968
3552.23927,0.07903
3554.16774,0.07544
3556.09621,0.07213
3558.02468,0.07223
3559.95314,0.07542
3561.88161,0.07964
3563.81008,0.08391
3565.73855,0.08632
3567.66702,0.08328
3569.59549,0.07775
3571.52396,0.07482
3573.45243,0.07515
3575.38089,0.07689
3577.30936,0.07721
3579.23783,0.07362
3581.16630,0.06839
3583.09477,0.06863
3585.02324,0.07451
3586.95171,0.07893
3588.88017,0.07685
3590.80864,0.07266
3592.73711,0.07074
3594.66558,0.07044
3596.59405,0.06898
3598.52252,0.06761
3600.45099,0.06924
3602.37946,0.07296
3604.30792,0.07609
3606.23639,0.07795
3608.16486,0.07825
3610.09333,0.07749
3612.02180,0.07831
3613.95027,0.07860
3615.87874,0.07506
3617.80720,0.07108
3619.73567,0.06878
3621.66414,0.06603
3623.59261,0.06482
3625.52108,0.06807
3627.44955,0.07425
3629.37802,0.07800
3631.30649,0.07520
3633.23495,0.06940
3635.16342,0.06476
3637.09189,0.06417
3639.02036,0.06569
3640.94883,0.06527
3642.87730,0.06372
3644.80577,0.06489
3646.73423,0.06922
3648.66270,0.07447
3650.59117,0.07272
3652.51964,0.06595
3654.44811,0.06369
3656.37658,0.06624
3658.30505,0.06694
3660.23352,0.06454
3662.16198,0.06320
3664.09045,0.06457
3666.01892,0.06711
3667.94739,0.06888
3669.87586,0.06716
3671.80433,0.06516
3673.73280,0.07070
3675.66126,0.07752
3677.58973,0.07317
3679.51820,0.06607
3681.44667,0.06084
3683.37514,0.05923
3685.30361,0.06250
3687.23208,0.06795
3689.16055,0.07250
3691.08901,0.07224
3693.01748,0.06775
3694.94595,0.06214
3696.87442,0.05742
3698.80289,0.05748
3700.73136,0.06201
3702.65983,0.06457
3704.58829,0.06295
3706.51676,0.06159
3708.44523,0.06294
3710.37370,0.06487
3712.30217,0.06588
3714.23064,0.06679
3716.15911,0.06614
3718.08757,0.06639
3720.01604,0.06879
3721.94451,0.06681
3723.87298,0.05910
3725.80145,0.05330
3727.72992,0.05192
3729.65839,0.05410
3731.58686,0.06008
3733.51532,0.06707
3735.44379,0.06797
3737.37226,0.06237
3739.30073,0.05672
3741.22920,0.05296
3743.15767,0.05426
3745.08614,0.06435
3747.01460,0.07136
3748.94307,0.07334
3750.87154,0.07423
3752.80001,0.06920
3754.72848,0.06529
3756.65695,0.06770
3758.58542,0.07119
3760.51389,0.06912
3762.44235,0.06573
3764.37082,0.06634
3766.29929,0.06996
3768.22776,0.07032
3770.15623,0.06390
3772.08470,0.05754
3774.01317,0.05647
3775.94163,0.05876
3777.87010,0.06259
3779.79857,0.06429
3781.72704,0.06250
3783.65551,0.06157
3785.58398,0.06118
3787.51245,0.05866
3789.44092,0.05584
3791.36938,0.05517
3793.29785,0.05862
3795.22632,0.06643
3797.15479,0.07181
3799.08326,0.07115
3801.01173,0.07000
3802.94020,0.06751
3804.86866,0.06285
3806.79713,0.05965
3808.72560,0.05934
3810.65407,0.05925
3812.58254,0.05768
3814.51101,0.05372
3816.43948,0.04764
3818.36795,0.04654
3820.29641,0.05431
3822.22488,0.06430
3824.15335,0.06667
3826.08182,0.06463
3828.01029,0.06108
3829.93876,0.05892
3831.86723,0.05992
3833.79569,0.06038
3835.72416,0.05940
3837.65263,0.06254
3839.58110,0.06527
3841.50957,0.06010
3843.43804,0.05519
3845.36651,0.05592
3847.29498,0.05802
3849.22344,0.05981
3851.15191,0.06451
3853.08038,0.07144
3855.00885,0.06725
3856.93732,0.05844
3858.86579,0.05376
3860.79426,0.05274
3862.72272,0.05342
3864.65119,0.05452
3866.57966,0.05662
3868.50813,0.05928
3870.43660,0.06144
3872.36507,0.06090
3874.29354,0.05637
3876.22200,0.05217
3878.15047,0.05347
3880.07894,0.05966
3882.00741,0.06285
3883.93588,0.06056
3885.86435,0.05753
3887.79282,0.05488
3889.72129,0.05399
3891.64975,0.05418
3893.57822,0.05265
3895.50669,0.05251
3897.43516,0.05382
3899.36363,0.05333
3901.29210,0.05335
3903.22057,0.05639
3905.14903,0.06029
3907.07750,0.06208
3909.00597,0.06088
3910.93444,0.05724
3912.86291,0.05273
3914.79138,0.05116
3916.71985,0.05278
3918.64832,0.05339
3920.57678,0.05406
3922.50525,0.05691
3924.43372,0.05769
3926.36219,0.05372
3928.29066,0.05118
3930.21913,0.05293
3932.14760,0.05338
3934.07606,0.05068
3936.00453,0.04967
3937.93300,0.05134
3939.86147,0.05299
3941.78994,0.05264
3943.71841,0.05068
3945.64688,0.05008
3947.57535,0.05214
3949.50381,0.05348
3951.43228,0.05201
3953.36075,0.05198
3955.28922,0.05393
3957.21769,0.05315
3959.14616,0.05126
3961.07463,0.05209
3963.00309,0.05340
3964.93156,0.05195
3966.86003,0.04803
3968.78850,0.04460
3970.71697,0.04171
3972.64544,0.03869
3974.57391,0.03829
3976.50238,0.03993
3978.43084,0.04388
3980.35931,0.05085
3982.28778,0.05423
3984.21625,0.05282
3986.14472,0.05187
3988.07319,0.05019
3990.00166,0.04687
3991.93012,0.04589
3993.85859,0.04821
3995.78706,0.04869
3997.71553,0.04335
3999.64400,0.03845
4001.57247,0.04184
4003.50094,0.04931
4005.42941,0.05389
4007.35787,0.05482
4009.28634,0.05167
4011.21481,0.04777
4013.14328,0.04797
4015.07175,0.04883
4017.00022,0.04720
4018.92869,0.04577
4020.85715,0.04518
4022.78562,0.04383
4024.71409,0.04265
4026.64256,0.04345
4028.57103,0.04501
4030.49950,0.04721
4032.42797,0.05148
4034.35644,0.05313
4036.28490,0.04911
4038.21337,0.04480
4040.14184,0.04441
4042.07031,0.04646
4043.99878,0.04657
4045.92725,0.04463
4047.85572,0.04443
4049.78418,0.04426
4051.71265,0.04307
4053.64112,0.04477
4055.56959,0.04786
4057.49806,0.04945
4059.42653,0.04994
4061.35500,0.04681
4063.28346,0.04227
4065.21193,0.04289
4067.14040,0.04654
4069.06887,0.04639
4070.99734,0.04254
4072.92581,0.04119
4074.85428,0.04337
4076.78275,0.04367
4078.71121,0.04112
4080.63968,0.04115
4082.56815,0.04413
4084.49662,0.04563
4086.42509,0.04535
4088.35356,0.04350
4090.28203,0.04139
4092.21049,0.04103
4094.13896,0.04136
4096.06743,0.04248
4097.99590,0.04347
4099.92437,0.04139
4101.85284,0.03848
4103.78131,0.04019
4105.70978,0.04465
4107.63824,0.04612
4109.56671,0.04463
4111.49518,0.04278
4113.42365,0.04191
4115.35212,0.04457
4117.28059,0.05152
4119.20906,0.05528
4121.13752,0.05167
4123.06599,0.04675
4124.99446,0.04451
4126.92293,0.04322
4128.85140,0.04024
4130.77987,0.03717
4132.70834,0.03810
4134.63681,0.04370
4136.56527,0.04938
4138.49374,0.05038
4140.42221,0.04674
4142.35068,0.04102
4144.27915,0.03833
4146.20762,0.03973
4148.13609,0.03939
4150.06455,0.03724
4151.99302,0.03772
4153.92149,0.03873
4155.84996,0.03619
4157.77843,0.03320
4159.70690,0.03428
4161.63537,0.03796
4163.56384,0.03956
4165.49230,0.03686
4167.42077,0.03415
4169.34924,0.03534
4171.27771,0.03728
4173.20618,0.03643
4175.13465,0.03247
4177.06312,0.02910
4178.99158,0.03137
4180.92005,0.03537
4182.84852,0.03400
4184.77699,0.02990
4186.70546,0.03008
4188.63393,0.03384
4190.56240,0.03496
4192.49087,0.03458
4194.41933,0.03565
4196.34780,0.03575
4198.27627,0.03481
4200.20474,0.03451
4202.13321,0.03482
4204.06168,0.03417
4205.99015,0.03076
4207.91861,0.02675
4209.84708,0.02698
4211.77555,0.03008
4213.70402,0.03061
4215.63249,0.02930
4217.56096,0.02808
4219.48943,0.02584
4221.41789,0.02590
4223.34636,0.03041
4225.27483,0.03262
4227.20330,0.03090
4229.13177,0.02939
4231.06024,0.02763
4232.98871,0.02796
4234.91718,0.03151
4236.84564,0.03358
4238.77411,0.03527
4240.70258,0.03799
4242.63105,0.03576
4244.55952,0.02877
4246.48799,0.02468
4248.41646,0.02699
4250.34492,0.03165
4252.27339,0.03244
4254.20186,0.03039
4256.13033,0.03116
4258.05880,0.03656
4259.98727,0.04099
4261.91574,0.03907
4263.84421,0.03603
4265.77267,0.03596
4267.70114,0.03531
4269.62961,0.03293
4271.55808,0.02969
4273.48655,0.02615
4275.41502,0.02460
4277.34349,0.02574
4279.27195,0.02757
4281.20042,0.02834
4283.12889,0.02793
4285.05736,0.02810
4286.98583,0.02958
4288.91430,0.02949
4290.84277,0.02566
4292.77124,0.02396
4294.69970,0.02942
4296.62817,0.03427
4298.55664,0.03244
4300.48511,0.03007
4302.41358,0.02777
4304.34205,0.02110
4306.27052,0.01549
4308.19898,0.01385
4310.12745,0.01494
4312.05592,0.01900
4313.98439,0.02076
4315.91286,0.01929
4317.84133,0.02126
4319.76980,0.02846
4321.69827,0.03329
4323.62673,0.03039
4325.55520,0.02564
4327.48367,0.02476
4329.41214,0.02508
4331.34061,0.02342
4333.26908,0.02278
4335.19755,0.02676
4337.12601,0.03097
4339.05448,0.02813
4340.98295,0.02063
4342.91142,0.01624
4344.83989,0.01735
4346.76836,0.02107
4348.69683,0.02525
4350.62530,0.02919
4352.55376,0.02799
4354.48223,0.02037
4356.41070,0.01302
4358.33917,0.01040
4360.26764,0.01132
4362.19611,0.01149
4364.12458,0.01107
4366.05304,0.01327
4367.98151,0.01440
4369.90998,0.01105
4371.83845,0.00757
4373.76692,0.00799
4375.69539,0.01233
4377.62386,0.01811
4379.55232,0.02015
4381.48079,0.01834
4383.40926,0.01730
4385.33773,0.01614
4387.26620,0.01378
4389.19467,0.01187
4391.12314,0.01048
4393.05161,0.01105
4394.98007,0.01289
4396.90854,0.01524
4398.83701,0.01894
4400.76548,0.01909
4402.69395,0.01580
4404.62242,0.01741
4406.55089,0.02214
4408.47935,0.02177
4410.40782,0.01912
4412.33629,0.01953
4414.26476,0.01927
4416.19323,0.01669
4418.12170,0.01615
4420.05017,0.01888
4421.97864,0.01987
4423.90710,0.01447
4425.83557,0.00979
4427.76404,0.01592
4429.69251,0.02521
4431.62098,0.02629
4433.54945,0.02087
4435.47792,0.01452
4437.40638,0.01310
4439.33485,0.01651
4441.26332,0.01891
4443.19179,0.01956
4445.12026,0.01932
4447.04873,0.01736
4448.97720,0.01208
4450.90567,0.00383
4452.83413,0.00021
4454.76260,0.00564
4456.69107,0.01258
4458.61954,0.01436
4460.54801,0.01215
4462.47648,0.00956
4464.40495,0.00770
4466.33341,0.00606
4468.26188,0.00633
4470.19035,0.00747
4472.11882,0.00741
4474.04729,0.00713
4475.97576,0.00486
4477.90423,0.00186
4479.83270,0.00310
4481.76116,0.00629
4483.68963,0.00472
4485.61810,0.00039
4487.54657,0.00079
4489.47504,0.00258
4491.40351,0.00024
4493.33198,0.00034
4495.26044,0.00677
4497.18891,0.01131
4499.11738,0.00936
4501.04585,0.00455
4502.97432,0.00057
4504.90279,0.00024
4506.83126,0.00128
4508.75973,0.00165
4510.68819,0.00485
4512.61666,0.00722
4514.54513,0.00722
4516.47360,0.01057
4518.40207,0.01020
4520.33054,0.00333
4522.25901,0.00156
4524.18747,0.00348
4526.11594,0.00486
4528.04441,0.00867
4529.97288,0.00978
4531.90135,0.00852
4533.82982,0.01436
4535.75829,0.02298
4537.68676,0.02245
4539.61522,0.01677
4541.54369,0.01419
4543.47216,0.01010
4545.40063,0.00407
4547.32910,0.00279
4549.25757,0.00514
4551.18604,0.00821
4553.11450,0.01047
4555.04297,0.00772
4556.97144,0.00383
4558.89991,0.00582
4560.82838,0.01123
4562.75685,0.01562
4564.68532,0.01505
4566.61378,0.00950
4568.54225,0.00477
4570.47072,0.00339
4572.39919,0.00368
4574.32766,0.00384
4576.25613,0.00267
4578.18460,0.00029
4580.11307,0.00125
4582.04153,0.00607
4583.97000,0.00858
4585.89847,0.00897
4587.82694,0.01037
4589.75541,0.01069
4591.68388,0.00616
4593.61235,-0.00042
4595.54081,-0.00105
4597.46928,0.00265
4599.39775,0.00284
4601.32622,0.00084
4603.25469,0.00308
4605.18316,0.00882
4607.11163,0.01128
4609.04010,0.00933
4610.96856,0.00809
4612.89703,0.00666
4614.82550,0.00081
4616.75397,-0.00304
4618.68244,0.00259
4620.61091,0.00948
4622.53938,0.00656
4624.46784,-0.00190
4626.39631,-0.00322
4628.32478,0.00110
4630.25325,0.00005
4632.18172,-0.00471
4634.11019,-0.00628
4636.03866,-0.00166
4637.96713,0.00584
4639.89559,0.00529
4641.82406,-0.00175
4643.75253,0.00045
4645.68100,0.01295
4647.60947,0.01787
4649.53794,0.00905
4651.46641,0.00086
4653.39487,0.00014
4655.32334,0.00132
4657.25181,-0.00039
4659.18028,-0.00468
4661.10875,-0.00442
4663.03722,0.00109
4664.96569,0.00373
4666.89416,0.00184
4668.82262,-0.00325
4670.75109,-0.00805
4672.67956,-0.00537
4674.60803,0.00352
4676.53650,0.01212
4678.46497,0.01396
4680.39344,0.00530
4682.32190,-0.00305
4684.25037,-0.00104
4686.17884,0.00436
4688.10731,0.00627
4690.03578,0.00690
4691.96425,0.00809
4693.89272,0.00836
4695.82119,0.00743
4697.74965,0.00630
4699.67812,0.00485
4701.60659,0.00308
4703.53506,0.00216
4705.46353,0.00344
4707.39200,0.00600
4709.32047,0.00959
4711.24893,0.01486
4713.17740,0.01862
4715.10587,0.02025
4717.03434,0.01993
4718.96281,0.01216
4720.89128,0.00120
4722.81975,-0.00347
4724.74821,-0.00504
4726.67668,-0.00893
4728.60515,-0.01446
4730.53362,-0.01406
4732.46209,-0.00736
4734.39056,-0.00661
4736.31903,-0.00930
4738.24750,-0.00205
4740.17596,0.00917
4742.10443,0.00997
4744.03290,0.00421
4745.96137,0.00101
4747.88984,0.00069
4749.81831,0.00256
4751.74678,0.00591
4753.67524,0.00750
4755.60371,0.00604
4757.53218,0.00379
4759.46065,-0.00340
4761.38912,-0.01126
4763.31759,-0.00820
4765.24606,0.00035
4767.17453,0.00213
4769.10299,0.00240
4771.03146,0.00769
4772.95993,0.01153
4774.88840,0.00966
4776.81687,0.00695
4778.74534,0.00820
4780.67381,0.01188
4782.60227,0.01376
4784.53074,0.01086
4786.45921,0.00658
4788.38768,0.00618
4790.31615,0.01033
4792.24462,0.01672
4794.17309,0.01697
4796.10156,0.00832
4798.03002,0.00130
4799.95849,0.00129
4801.88696,0.00169
4803.81543,-0.00056
4805.74390,0.00126
4807.67237,0.00842
4809.60084,0.01480
4811.52930,0.01699
4813.45777,0.01433
4815.38624,0.01320
4817.31471,0.01763
4819.24318,0.01679
4821.17165,0.00405
4823.10012,-0.01209
4825.02859,-0.01755
4826.95705,-0.01146
4828.88552,-0.00725
4830.81399,-0.00702
4832.74246,-0.00817
4834.67093,-0.01409
4836.59940,-0.01694
4838.52787,-0.00863
4840.45633,-0.00132
4842.38480,-0.00189
4844.31327,-0.00132
4846.24174,0.00127
4848.17021,0.00234
4850.09868,0.00483
4852.02715,0.01012
4853.95562,0.01358
4855.88408,0.01524
4857.81255,0.01824
4859.74102,0.01653
4861.66949,0.00612
4863.59796,-0.00570
4865.52643,-0.01321
4867.45490,-0.01577
4869.38336,-0.01187
4871.31183,-0.00116
4873.24030,0.01367
4875.16877,0.02218
4877.09724,0.01610
4879.02571,0.00732
4880.95418,0.00833
4882.88265,0.01402
4884.81111,0.01807
4886.73958,0.01952
4888.66805,0.01468
4890.59652,0.00481
4892.52499,0.00122
4894.45346,0.01054
4896.38193,0.02086
4898.31039,0.01551
4900.23886,0.00085
4902.16733,-0.00701
4904.09580,-0.00535
4906.02427,-0.00198
4907.95274,-0.00355
4909.88121,-0.00557
4911.80967,0.00016
4913.73814,0.00932
4915.66661,0.00924
4917.59508,0.00306
4919.52355,0.00479
4921.45202,0.01360
4923.38049,0.01733
4925.30896,0.01778
4927.23742,0.02297
4929.16589,0.02238
4931.09436,0.01057
4933.02283,0.00312
4934.95130,0.00730
4936.87977,0.01209
4938.80824,0.00948
4940.73670,-0.00067
4942.66517,-0.01319
4944.59364,-0.01962
4946.52211,-0.01948
4948.45058,-0.01199
4950.37905,-0.00160
4952.30752,0.00033
4954.23599,-0.00118
4956.16445,0.00111
4958.09292,0.00514
4960.02139,0.00836
4961.94986,0.00768
4963.87833,0.00593
4965.80680,0.00671
4967.73527,0.00701
4969.66373,0.00678
4971.59220,0.00771
4973.52067,0.00925
4975.44914,0.00653
4977.37761,0.00188
4979.30608,0.00240
4981.23455,0.00480
4983.16302,0.00575
4985.09148,0.00816
4987.01995,0.00997
4988.94842,0.00829
4990.87689,0.00623
4992.80536,0.00534
4994.73383,0.00307
4996.66230,-0.00019
4998.59076,-0.00197
5000.51923,-0.00392
5002.44770,-0.00441
5004.37617,0.00485
5006.30464,0.02060
5008.23311,0.02870
5010.16158,0.02837
5012.09005,0.02113
5014.01851,0.00588
5015.94698,-0.00627
5017.87545,-0.00502
5019.80392,0.00147
5021.73239,0.00255
5023.66086,0.00061
5025.58933,-0.00439
5027.51779,-0.01046
5029.44626,-0.00800
5031.37473,0.00252
5033.30320,0.01349
5035.23167,0.01501
5037.16014,0.00393
5039.08861,-0.00793
5041.01708,-0.01243
5042.94554,-0.01055
5044.87401,-0.00059
5046.80248,0.01110
5048.73095,0.01218
5050.65942,0.00647
5052.58789,0.00719
5054.51636,0.01569
5056.44482,0.02047
5058.37329,0.01695
5060.30176,0.00952
5062.23023,0.00195
5064.15870,0.00253
5066.08717,0.01508
5068.01564,0.02473
5069.94410,0.02112
5071.87257,0.01920
5073.80104,0.02540
5075.72951,0.02580
5077.65798,0.01739
5079.58645,0.01118
5081.51492,0.01386
5083.44339,0.01618
5085.37185,0.01060
5087.30032,0.00545
5089.22879,0.00719
5091.15726,0.01242
5093.08573,0.01801
5095.01420,0.02481
5096.94267,0.03200
5098.87113,0.03069
5100.79960,0.01869
5102.72807,0.01252
5104.65654,0.01660
5106.58501,0.01929
5108.51348,0.01997
5110.44195,0.02166
5112.37042,0.02628
5114.29888,0.03754
5116.22735,0.04167
5118.15582,0.02426
5120.08429,-0.00031
5122.01276,-0.01293
5123.94123,-0.00863
5125.86970,0.00544
5127.79816,0.01439
5129.72663,0.01334
5131.65510,0.01214
5133.58357,0.02001
5135.51204,0.02919
5137.44051,0.02892
5139.36898,0.02301
5141.29745,0.01671
5143.22591,0.01702
5145.15438,0.02933
5147.08285,0.04398
5149.01132,0.04971
5150.93979,0.04502
5152.86826,0.03439
5154.79673,0.02503
5156.72519,0.02417
5158.65366,0.02729
5160.58213,0.01968
5162.51060,0.00678
5164.43907,0.00994
5166.36754,0.02515
5168.29601,0.03205
5170.22448,0.02749
5172.15294,0.01865
5174.08141,0.01264
5176.00988,0.01009
5177.93835,0.00350
5179.86682,-0.00567
5181.79529,-0.01031
5183.72376,-0.00526
5185.65222,0.00652
5187.58069,0.01055
5189.50916,0.01163
5191.43763,0.01870
5193.36610,0.02113
5195.29457,0.02071
5197.22304,0.02676
5199.15151,0.02627
5201.07997,0.01384
5203.00844,0.00761
5204.93691,0.01434
5206.86538,0.01719
5208.79385,0.00795
5210.72232,0.00348
5212.65079,0.00278
5214.57925,0.00021
5216.50772,0.01127
5218.43619,0.03516
5220.36466,0.05094
5222.29313,0.05446
5224.22160,0.05295
5226.15007,0.05238
5228.07854,0.05134
5230.00700,0.04187
5231.93547,0.02173
5233.86394,0.00312
5235.79241,0.00677
5237.72088,0.02953
5239.64935,0.04615
5241.57782,0.04616
5243.50628,0.03582
5245.43475,0.02410
5247.36322,0.01667
5249.29169,0.01712
5251.22016,0.02638
5253.14863,0.03598
5255.07710,0.03512
5257.00556,0.02372
5258.93403,0.01308
5260.86250,0.01016
5262.79097,0.00977
5264.71944,0.00552
5266.64791,0.00804
5268.57638,0.02390
5270.50485,0.03497
5272.43331,0.02802
5274.36178,0.01534
5276.29025,0.00642
5278.21872,0.00285
5280.14719,0.01133
5282.07566,0.02539
5284.00413,0.02488
5285.93259,0.01219
5287.86106,0.00760
5289.78953,0.01609
5291.71800,0.02959
5293.64647,0.03033
5295.57494,0.02154
5297.50341,0.02479
5299.43188,0.02664
5301.36034,0.01106
5303.28881,0.00211
5305.21728,0.01097
5307.14575,0.02127
5309.07422,0.02853
5311.00269,0.03102
5312.93116,0.02019
5314.85962,0.00930
5316.78809,0.00909
5318.71656,0.01285
5320.64503,0.02079
5322.57350,0.02922
5324.50197,0.03292
5326.43044,0.02978
5328.35891,0.02559
5330.28737,0.03512
5332.21584,0.04774
5334.14431,0.04338
5336.07278,0.02869
5338.00125,0.01438
5339.92972,0.01363
5341.85819,0.02603
5343.78665,0.02300
5345.71512,0.00489
5347.64359,0.00384
5349.57206,0.01411
5351.50053,0.01268
5353.42900,0.00367
5355.35747,0.01146
5357.28594,0.02670
5359.21440,0.03336
5361.14287,0.03737
5363.07134,0.04650
5364.99981,0.05288
5366.92828,0.04384
5368.85675,0.02943
5370.78522,0.02291
5372.71368,0.01860
5374.64215,0.01743
5376.57062,0.02980
5378.49909,0.03878
5380.42756,0.03559
5382.35603,0.03002
5384.28450,0.02457
5386.21297,0.03024
5388.14143,0.03789
5390.06990,0.03124
5391.99837,0.02710
5393.92684,0.03263
5395.85531,0.03328
5397.78378,0.02817
5399.71225,0.02050
5401.64071,0.01267
5403.56918,0.00891
5405.49765,0.00272
5407.42612,-0.00311
5409.35459,0.00163
5411.28306,0.00713
5413.21153,0.00603
5415.13999,0.00715
5417.06846,0.00512
5418.99693,-0.00278
5420.92540,0.00385
5422.85387,0.02065
5424.78234,0.01812
5426.71081,0.00623
5428.63928,0.01289
5430.56774,0.03032
5432.49621,0.04087
5434.42468,0.04268
5436.35315,0.03141
5438.28162,0.01619
5440.21009,0.00767
5442.13856,0.00484
5444.06702,0.01268
5445.99549,0.02842
5447.92396,0.03460
5449.85243,0.02956
5451.78090,0.03035
5453.70937,0.03267
5455.63784,0.02005
5457.56631,0.00546
5459.49477,0.01104
5461.42324,0.03195
5463.35171,0.04009
5465.28018,0.02442
5467.20865,0.00828
5469.13712,0.00418
5471.06559,0.00569
5472.99405,0.01462
5474.92252,0.03973
5476.85099,0.06357
5478.77946,0.06585
5480.70793,0.05333
5482.63640,0.04067
5484.56487,0.04150
5486.49334,0.04686
5488.42180,0.05202
5490.35027,0.06451
5492.27874,0.06636
5494.20721,0.05002
5496.13568,0.03896
5498.06415,0.04380
5499.99262,0.05265
5501.92108,0.04167
5503.84955,0.02009
5505.77802,0.02110
5507.70649,0.03905
5509.63496,0.05118
5511.56343,0.05806
5513.49190,0.05567
5515.42037,0.04434
5517.34883,0.04010
5519.27730,0.04709
5521.20577,0.05295
5523.13424,0.05038
5525.06271,0.04511
5526.99118,0.03784
5528.91965,0.02148
5530.84811,0.00455
5532.77658,0.00345
5534.70505,0.01799
5536.63352,0.03582
5538.56199,0.04539
5540.49046,0.04910
5542.41893,0.05171
5544.34740,0.04786
5546.27586,0.04192
5548.20433,0.04603
5550.13280,0.05856
5552.06127,0.06174
5553.98974,0.04737
5555.91821,0.03800
5557.84668,0.04121
5559.77514,0.03835
5561.70361,0.03317
5563.63208,0.02929
5565.56055,0.02040
5567.48902,0.01708
5569.41749,0.02160
5571.34596,0.02371
5573.27443,0.02992
5575.20289,0.04581
5577.13136,0.05054
5579.05983,0.04015
5580.98830,0.04595
5582.91677,0.06667
5584.84524,0.06327
5586.77371,0.04181
5588.70217,0.03509
5590.63064,0.04000
5592.55911,0.03844
5594.48758,0.03365
5596.41605,0.03276
5598.34452,0.03395
5600.27299,0.03137
5602.20145,0.02157
5604.12992,0.01147
5606.05839,0.00307
5607.98686,-0.00314
5609.91533,-0.00157
5611.84380,-0.00429
5613.77227,-0.00673
5615.70074,0.01109
5617.62920,0.03383
5619.55767,0.04571
5621.48614,0.05353
5623.41461,0.05565
5625.34308,0.03575
5627.27155,0.00771
5629.20002,0.00607
5631.12848,0.02066
5633.05695,0.02896
5634.98542,0.02774
5636.91389,0.01654
5638.84236,0.00194
5640.77083,0.00481
5642.69930,0.02900
5644.62777,0.05192
5646.55623,0.06068
5648.48470,0.05554
5650.41317,0.04214
5652.34164,0.02804
5654.27011,0.01589
5656.19858,0.01640
5658.12705,0.02730
5660.05551,0.03471
5661.98398,0.04675
5663.91245,0.05875
5665.84092,0.05076
5667.76939,0.03268
5669.69786,0.02504
5671.62633,0.03248
5673.55480,0.03977
5675.48326,0.03486
5677.41173,0.02019
5679.34020,0.00366
5681.26867,0.00040
5683.19714,0.00866
5685.12561,0.01105
5687.05408,0.00655
5688.98254,0.01302
5690.91101,0.03382
5692.83948,0.04651
5694.76795,0.04716
5696.69642,0.04111
5698.62489,0.02375
5700.55336,0.01418
5702.48183,0.03073
5704.41029,0.05308
5706.33876,0.06063
5708.26723,0.06006
5710.19570,0.05537
5712.12417,0.04470
5714.05264,0.04363
5715.98111,0.04585
5717.90957,0.01976
5719.83804,-0.02034
5721.76651,-0.02217
5723.69498,0.02660
5725.62345,0.06926
5727.55192,0.05983
5729.48039,0.02982
5731.40886,0.02016
5733.33732,0.02403
5735.26579,0.03120
5737.19426,0.04641
5739.12273,0.06243
5741.05120,0.06694
5742.97967,0.05912
5744.90814,0.04565
5746.83660,0.03738
5748.76507,0.03782
5750.69354,0.05507
5752.62201,0.08540
5754.55048,0.09289
5756.47895,0.06904
5758.40742,0.04465
5760.33588,0.04383
5762.26435,0.06458
5764.19282,0.07754
5766.12129,0.06249
5768.04976,0.03891
5769.97823,0.02929
5771.90670,0.03168
5773.83517,0.03933
5775.76363,0.04853
5777.69210,0.04777
5779.62057,0.04233
5781.54904,0.03981
5783.47751,0.02310
5785.40598,0.00872
5787.33445,0.02450
5789.26291,0.04513
5791.19138,0.05275
5793.11985,0.06241
5795.04832,0.06953
5796.97679,0.05309
5798.90526,0.02092
5800.83373,-0.00075
5802.76220,-0.00021
5804.69066,0.02334
5806.61913,0.04866
5808.54760,0.04022
5810.47607,0.00733
5812.40454,0.00015
5814.33301,0.02981
5816.26148,0.05419
5818.18994,0.05690
5820.11841,0.05566
5822.04688,0.04882
5823.97535,0.03709
5825.90382,0.03438
5827.83229,0.03647
5829.76076,0.03069
5831.68923,0.01351
5833.61769,-0.00392
5835.54616,-0.00486
5837.47463,0.00964
5839.40310,0.02668
5841.33157,0.04407
5843.26004,0.06128
5845.18851,0.06708
5847.11697,0.05638
5849.04544,0.03786
5850.97391,0.03311
5852.90238,0.04322
5854.83085,0.04809
5856.75932,0.04701
5858.68779,0.04555
5860.61626,0.04394
5862.54472,0.04754
5864.47319,0.05082
5866.40166,0.05189
5868.33013,0.06356
5870.25860,0.08049
5872.18707,0.08961
5874.11554,0.09137
5876.04400,0.08931
5877.97247,0.08408
5879.90094,0.07033
5881.82941,0.05436
5883.75788,0.04657
5885.68635,0.03480
5887.61482,0.01205
5889.54329,-0.00963
5891.47175,-0.01384
5893.40022,0.01366
5895.32869,0.06019
5897.25716,0.07359
5899.18563,0.03771
5901.11410,0.01086
5903.04257,0.02035
5904.97103,0.03846
5906.89950,0.05339
5908.82797,0.07235
5910.75644,0.09002
5912.68491,0.07801
5914.61338,0.03906
5916.54185,0.01510
5918.47032,0.02540
5920.39878,0.05010
5922.32725,0.05807
5924.25572,0.05039
5926.18419,0.04271
5928.11266,0.03990
5930.04113,0.05212
5931.96960,0.07493
5933.89806,0.07681
5935.82653,0.05568
5937.75500,0.04017
5939.68347,0.03471
5941.61194,0.03983
5943.54041,0.05808
5945.46888,0.07592
5947.39734,0.07019
5949.32581,0.03960
5951.25428,0.02578
5953.18275,0.04397
5955.11122,0.05842
5957.03969,0.05807
5958.96816,0.06137
5960.89663,0.05542
5962.82509,0.02779
5964.75356,0.00807
5966.68203,0.01841
5968.61050,0.04060
5970.53897,0.03523
5972.46744,0.01862
5974.39591,0.03283
5976.32437,0.05252
5978.25284,0.05412
5980.18131,0.05259
5982.10978,0.05868
5984.03825,0.07101
5985.96672,0.07862
5987.89519,0.08487
5989.82366,0.09753
5991.75212,0.09907
5993.68059,0.07784
5995.60906,0.04518
5997.53753,0.01708
5999.46600,0.01781
6001.39447,0.04330
6003.32294,0.03483
6005.25140,0.00396
6007.17987,0.03461
6009.10834,0.08580
6011.03681,0.08440
6012.96528,0.06803
6014.89375,0.06610
6016.82222,0.06408
6018.75069,0.05931
6020.67915,0.04346
6022.60762,0.01279
6024.53609,-0.01029
6026.46456,-0.00907
6028.39303,0.00380
6030.32150,0.02008
6032.24997,0.04096
6034.17843,0.03631
6036.10690,0.01256
6038.03537,0.02514
6039.96384,0.06173
6041.89231,0.06864
6043.82078,0.04079
6045.74925,0.01587
6047.67772,0.01239
6049.60618,0.03821
6051.53465,0.07549
6053.46312,0.07418
6055.39159,0.03319
6057.32006,-0.00125
6059.24853,-0.00538
6061.17700,0.00851
6063.10546,0.01821
6065.03393,0.03088
6066.96240,0.06097
6068.89087,0.09026
6070.81934,0.09303
6072.74781,0.07754
6074.67628,0.06608
6076.60475,0.06406
6078.53321,0.06795
6080.46168,0.07275
6082.39015,0.08585
6084.31862,0.10514
6086.24709,0.08982
6088.17556,0.03342
6090.10403,-0.00263
6092.03249,0.00518
6093.96096,0.01812
6095.88943,0.01602
6097.81790,0.02086
6099.74637,0.03817
6101.67484,0.05234
6103.60331,0.06579
6105.53177,0.07909
6107.46024,0.08313
6109.38871,0.07022
6111.31718,0.03233
6113.24565,0.00667
6115.17412,0.02780
6117.10259,0.05058
6119.03106,0.04790
6120.95952,0.05361
6122.88799,0.05614
6124.81646,0.04385
6126.74493,0.03223
6128.67340,0.00990
6130.60187,-0.00343
6132.53034,0.01945
6134.45880,0.03303
6136.38727,0.01197
6138.31574,0.00882
6140.24421,0.05078
6142.17268,0.07498
6144.10115,0.04270
6146.02962,0.02075
6147.95809,0.03887
6149.88655,0.04635
6151.81502,0.03477
6153.74349,0.04207
6155.67196,0.07367
6157.60043,0.10583
6159.52890,0.11338
6161.45737,0.09774
6163.38583,0.07747
6165.31430,0.06928
6167.24277,0.06568
6169.17124,0.04752
6171.09971,0.03215
6173.02818,0.04275
6174.95665,0.06581
6176.88512,0.05133
6178.81358,-0.00770
6180.74205,-0.02492
6182.67052,0.01759
6184.59899,0.04862
6186.52746,0.07149
6188.45593,0.10935
6190.38440,0.10006
6192.31286,0.04107
6194.24133,0.01918
6196.16980,0.05180
6198.09827,0.08717
6200.02674,0.09128
6201.95521,0.05460
6203.88368,-0.00295
6205.81215,-0.03002
6207.74061,-0.00439
6209.66908,0.04934
6211.59755,0.08183
6213.52602,0.05758
6215.45449,0.01193
6217.38296,0.01631
6219.31143,0.05917
6221.23989,0.08566
6223.16836,0.11000
6225.09683,0.14903
6227.02530,0.15260
6228.95377,0.10377
6230.88224,0.03997
6232.81071,-0.00344
6234.73918,-0.00488
6236.66764,0.00953
6238.59611,0.00765
6240.52458,-0.00361
6242.45305,0.01654
6244.38152,0.08263
6246.30999,0.12390
6248.23846,0.09734
6250.16692,0.04973
6252.09539,0.02665
6254.02386,0.03025
6255.95233,0.04315
6257.88080,0.03950
6259.80927,0.01438
6261.73774,0.00144
6263.66621,0.02055
6265.59467,0.05121
6267.52314,0.06035
6269.45161,0.03623
6271.38008,0.00236
6273.30855,-0.00431
6275.23702,0.01936
6277.16549,0.03490
6279.09395,0.02232
6281.02242,-0.00008
6282.95089,0.00024
6284.87936,0.00724
6286.80783,-0.00497
6288.73630,-0.01052
6290.66477,-0.00082
6292.59323,0.00559
6294.52170,0.01688
6296.45017,0.05299
6298.37864,0.09232
6300.30711,0.08363
6302.23558,0.03485
6304.16405,0.03379
6306.09252,0.08556
6308.02098,0.10535
6309.94945,0.08011
6311.87792,0.04988
6313.80639,0.02976
6315.73486,0.02496
6317.66333,0.04040
6319.59180,0.06150
6321.52026,0.06102
6323.44873,0.06014
6325.37720,0.08092
6327.30567,0.09875
6329.23414,0.09311
6331.16261,0.07198
6333.09108,0.05435
6335.01955,0.04412
6336.94801,0.03272
6338.87648,0.02120
6340.80495,0.02228
6342.73342,0.00643
6344.66189,-0.04206
6346.59036,-0.05494
6348.51883,0.00258
6350.44729,0.07958
6352.37576,0.10597
6354.30423,0.07228
6356.23270,0.03318
6358.16117,0.01664
6360.08964,0.02324
6362.01811,0.04889
6363.94658,0.06858
6365.87504,0.07294
6367.80351,0.07076
6369.73198,0.04919
6371.66045,0.02387
6373.58892,0.02739
6375.51739,0.04823
6377.44586,0.06530
6379.37432,0.08630
6381.30279,0.10216
6383.23126,0.07358
6385.15973,0.02494
6387.08820,0.03037
6389.01667,0.08079
6390.94514,0.11272
6392.87361,0.10142
6394.80207,0.06539
6396.73054,0.02521
6398.65901,0.00410
6400.58748,0.01579
6402.51595,0.05585
6404.44442,0.09400
6406.37289,0.10146
6408.30135,0.09196
6410.22982,0.07615
6412.15829,0.04566
6414.08676,0.03672
6416.01523,0.06395
6417.94370,0.06776
6419.87217,0.03001
6421.80064,0.01623
6423.72910,0.04408
6425.65757,0.05651
6427.58604,0.02469
6429.51451,0.00587
6431.44298,0.02247
6433.37145,0.04429
6435.29992,0.06593
6437.22838,0.07088
6439.15685,0.06036
6441.08532,0.06085
6443.01379,0.04920
6444.94226,0.03499
6446.87073,0.05838
6448.79920,0.08478
6450.72766,0.08340
6452.65613,0.06080
6454.58460,0.02425
6456.51307,-0.00520
6458.44154,-0.01646
6460.37001,-0.00926
6462.29848,0.02073
6464.22695,0.04957
6466.15541,0.05217
6468.08388,0.03577
6470.01235,0.00589
6471.94082,-0.02865
6473.86929,-0.02294
6475.79776,0.03343
6477.72623,0.08922
6479.65469,0.10547
6481.58316,0.08256
6483.51163,0.05343
6485.44010,0.04747
6487.36857,0.03881
6489.29704,-0.01170
6491.22551,-0.08431
6493.15398,-0.10904
6495.08244,-0.08913
6497.01091,-0.07922
6498.93938,-0.07558
6500.86785,-0.05736
6502.79632,-0.02838
6504.72479,-0.00656
6506.65326,0.01899
6508.58172,0.06000
6510.51019,0.07398
6512.43866,0.04556
6514.36713,0.01137
6516.29560,-0.02167
6518.22407,-0.04583
6520.15254,-0.03339
6522.08101,0.01512
6524.00947,0.03182
6525.93794,-0.02890
6527.86641,-0.09097
6529.79488,-0.07523
6531.72335,0.00416
6533.65182,0.06128
6535.58029,0.04762
6537.50875,0.00166
6539.43722,-0.02173
6541.36569,-0.01809
6543.29416,-0.01595
6545.22263,-0.02392
6547.15110,-0.02979
6549.07957,-0.01883
6551.00804,0.01430
6552.93650,0.02605
6554.86497,-0.01523
6556.79344,-0.04571
6558.72191,0.00519
6560.65038,0.07619
6562.57885,0.06741
6564.50732,0.00179
6566.43578,-0.01916
6568.36425,0.04066
6570.29272,0.10492
6572.22119,0.10341
6574.14966,0.06113
6576.07813,0.03264
6578.00660,0.03481
6579.93507,0.05044
6581.86353,0.05897
6583.79200,0.06097
6585.72047,0.04721
6587.64894,0.03538
6589.57741,0.04760
6591.50588,0.05870
6593.43435,0.07903
6595.36281,0.10523
6597.29128,0.08960
6599.21975,0.05274
6601.14822,0.03293
6603.07669,0.04721
6605.00516,0.08353
6606.93363,0.10455
6608.86210,0.10234
6610.79056,0.11403
6612.71903,0.12592
6614.64750,0.06464
6616.57597,-0.03322
6618.50444,-0.03834
6620.43291,0.00992
6622.36138,0.00158
6624.28984,-0.03087
6626.21831,-0.02010
6628.14678,0.02942
6630.07525,0.07221
6632.00372,0.05609
6633.93219,0.00536
6635.86066,-0.00334
6637.78912,0.02857
6639.71759,-0.00106
6641.64606,-0.07281
6643.57453,-0.10081
6645.50300,-0.10692
6647.43147,-0.11743
6649.35994,-0.09057
6651.28841,-0.00447
6653.21687,0.10385
6655.14534,0.13648
6657.07381,0.07495
6659.00228,0.06713
6660.93075,0.12538
6662.85922,0.11763
6664.78769,0.07395
6666.71615,0.04649
6668.64462,-0.00700
6670.57309,-0.03418
6672.50156,0.01907
6674.43003,0.05482
6676.35850,0.02883
6678.28697,-0.01449
6680.21544,-0.02447
6682.14390,0.00710
6684.07237,0.03422
6686.00084,0.05432
6687.92931,0.07878
6689.85778,0.06189
6691.78625,0.00615
6693.71472,-0.03589
6695.64318,-0.04292
6697.57165,0.00192
6699.50012,0.06356
6701.42859,0.04663
6703.35706,-0.03263
6705.28553,-0.07036
6707.21400,-0.04858
6709.14247,-0.00422
6711.07093,0.04696
6712.99940,0.10278
6714.92787,0.14316
6716.85634,0.15895
6718.78481,0.16088
6720.71328,0.12450
6722.64175,0.05166
6724.57021,0.00569
6726.49868,0.01554
6728.42715,0.05561
6730.35562,0.07483
6732.28409,0.05412
6734.21256,0.05462
6736.14103,0.08517
6738.06950,0.07835
6739.99796,0.03716
6741.92643,0.02739
6743.85490,0.05970
6745.78337,0.06648
6747.71184,0.02719
6749.64031,0.01432
6751.56878,0.04756
6753.49724,0.05444
6755.42571,0.02278
6757.35418,0.00711
6759.28265,0.00024
6761.21112,-0.04552
6763.13959,-0.09412
6765.06806,-0.08256
6766.99653,-0.01577
6768.92499,0.05190
6770.85346,0.07153
6772.78193,0.01737
6774.71040,-0.04502
6776.63887,0.01637
6778.56734,0.12158
6780.49581,0.11118
6782.42427,0.05453
6784.35274,0.06697
6786.28121,0.08396
6788.20968,0.06737
6790.13815,0.05560
6792.06662,-0.00362
6793.99509,-0.07248
6795.92355,-0.05425
6797.85202,0.00719
6799.78049,0.04911
6801.70896,0.05671
6803.63743,0.04255
6805.56590,0.01902
6807.49437,-0.00598
6809.42284,0.00199
6811.35130,0.05495
6813.27977,0.09553
6815.20824,0.06052
6817.13671,-0.01555
6819.06518,-0.02981
6820.99365,0.02118
6822.92212,0.06521
6824.85058,0.05378
6826.77905,-0.00044
6828.70752,-0.03667
6830.63599,-0.03194
6832.56446,-0.03040
6834.49293,-0.00188
6836.42140,0.05742
6838.34987,0.05966
6840.27833,0.03636
6842.20680,0.06691
6844.13527,0.08443
6846.06374,-0.00153
6847.99221,-0.07866
6849.92068,-0.00099
6851.84915,0.09398
6853.77761,0.13431
6855.70608,0.17098
6857.63455,0.14487
6859.56302,0.06534
6861.49149,0.01951
6863.41996,-0.00046
6865.34843,-0.01827
6867.27690,-0.01352
6869.20536,0.00551
6871.13383,0.03027
6873.06230,0.02412
6874.99077,-0.03928
6876.91924,-0.06549
6878.84771,-0.02096
6880.77618,-0.00358
6882.70464,-0.02874
6884.63311,-0.02525
6886.56158,0.02851
6888.49005,0.08844
6890.41852,0.06158
6892.34699,-0.03598
6894.27546,-0.05142
6896.20393,0.02140
6898.13239,0.04239
6900.06086,0.01163
6901.98933,0.02319
6903.91780,0.07172
6905.84627,0.13396
6907.77474,0.18034
6909.70321,0.16422
6911.63167,0.11106
6913.56014,0.09348
6915.48861,0.09895
6917.41708,0.05641
6919.34555,-0.02250
6921.27402,-0.06523
6923.20249,-0.03407
6925.13096,0.02522
6927.05942,0.07575
6928.98789,0.14748
6930.91636,0.19856
6932.84483,0.14705
6934.77330,0.06682
6936.70177,0.03869
6938.63024,0.03222
6940.55870,-0.00083
6942.48717,-0.03470
6944.41564,-0.03134
6946.34411,-0.01088
6948.27258,-0.01523
6950.20105,-0.03793
6952.12952,-0.05017
6954.05799,-0.04270
6955.98645,0.00422
6957.91492,0.06034
6959.84339,0.10118
6961.77186,0.13474
6963.70033,0.12259
6965.62880,0.06433
6967.55727,0.00949
6969.48573,0.01900
6971.41420,0.08923
6973.34267,0.09311
6975.27114,0.02501
6977.19961,-0.00161
6979.12808,-0.02285
6981.05655,-0.05635
6982.98501,-0.05407
6984.91348,-0.02891
6986.84195,-0.03161
6988.77042,-0.03666
6990.69889,0.00316
6992.62736,0.04959
6994.55583,0.06649
6996.48430,0.05831
6998.41276,0.05956
7000.34123,0.10835
7002.26970,0.14141
7004.19817,0.11805
7006.12664,0.05879
7008.05511,-0.03426
7009.98358,-0.07141
7011.91204,0.00547
7013.84051,0.11152
7015.76898,0.17226
7017.69745,0.19159
7019.62592,0.15981
7021.55439,0.10989
7023.48286,0.08116
7025.41133,0.07219
7027.33979,0.01971
7029.26826,-0.07905
7031.19673,-0.07907
7033.12520,0.01994
7035.05367,0.09978
7036.98214,0.10993
7038.91061,0.12438
7040.83907,0.16468
7042.76754,0.12123
7044.69601,-0.01582
7046.62448,-0.06780
7048.55295,0.00643
7050.48142,0.06476
7052.40989,0.04734
7054.33836,0.06886
7056.26682,0.19451
7058.19529,0.26086
7060.12376,0.23159
7062.05223,0.24064
7063.98070,0.20704
7065.90917,0.10157
7067.83764,0.03067
7069.76610,-0.00362
7071.69457,-0.04062
7073.62304,-0.05953
7075.55151,-0.02446
7077.47998,0.05415
7079.40845,0.14453
7081.33692,0.17118
7083.26539,0.09429
7085.19385,0.04214
7087.12232,0.07547
7089.05079,0.08455
7090.97926,0.00518
7092.90773,-0.04213
7094.83620,0.02528
7096.76467,0.14668
7098.69313,0.21296
7100.62160,0.19341
7102.55007,0.15540
7104.47854,0.10754
7106.40701,0.05331
7108.33548,0.00080
7110.26395,-0.03935
7112.19242,-0.01476
7114.12088,0.05097
7116.04935,0.07307
7117.97782,0.02738
7119.90629,-0.06319
7121.83476,-0.15313
7123.76323,-0.13054
7125.69170,-0.01234
7127.62016,0.01666
7129.54863,-0.05420
7131.47710,-0.06444
7133.40557,-0.01676
7135.33404,0.01599
7137.26251,0.04444
7139.19098,0.10473
7141.11944,0.14094
7143.04791,0.08863
7144.97638,0.02159
7146.90485,0.02787
7148.83332,0.03660
7150.76179,-0.02000
7152.69026,-0.11539
7154.61873,-0.13832
7156.54719,-0.07168
7158.47566,0.00716
7160.40413,0.09377
7162.33260,0.12357
7164.26107,0.08222
7166.18954,0.08772
7168.11801,0.15966
7170.04647,0.19011
7171.97494,0.16750
7173.90341,0.16383
7175.83188,0.16584
7177.76035,0.17872
7179.68882,0.26900
7181.61729,0.32726
7183.54576,0.16151
7185.47422,-0.00727
7187.40269,0.02057
7189.33116,0.08716
7191.25963,0.05215
7193.18810,-0.05483
7195.11657,-0.11016
7197.04504,-0.05751
7198.97350,0.04348
7200.90197,0.11323
7202.83044,0.15433
7204.75891,0.12859
7206.68738,0.02034
7208.61585,-0.01919
7210.54432,0.02162
7212.47279,0.03698
7214.40125,-0.03915
7216.32972,-0.13797
7218.25819,-0.11173
7220.18666,-0.01796
7222.11513,0.03432
7224.04360,0.06342
7225.97207,0.07076
7227.90053,0.04926
7229.82900,0.03012
7231.75747,0.00393
7233.68594,-0.00707
7235.61441,0.06431
7237.54288,0.15753
7239.47135,0.19022
7241.39982,0.18251
7243.32828,0.12248
7245.25675,0.08465
7247.18522,0.14377
7249.11369,0.22989
7251.04216,0.31065
7252.97063,0.34011
7254.89910,0.22926
7256.82756,0.11761
7258.75603,0.03573
7260.68450,-0.06296
7262.61297,-0.09121
7264.54144,0.00254
7266.46991,0.14577
7268.39838,0.18780
7270.32685,0.01497
7272.25531,-0.16996
7274.18378,-0.09648
7276.11225,0.06618
7278.04072,0.22536
7279.96919,0.27276
7281.89766,0.14873
7283.82613,0.07690
7285.75459,0.10518
7287.68306,0.15412
7289.61153,0.16478
7291.54000,0.11016
7293.46847,0.06227
7295.39694,0.10355
7297.32541,0.17971
7299.25387,0.20173
7301.18234,0.14074
7303.11081,0.01549
7305.03928,-0.10643
7306.96775,-0.15970
7308.89622,-0.07938
7310.82469,0.05177
7312.75316,0.10714
7314.68162,0.11482
7316.61009,0.14900
7318.53856,0.18690
7320.46703,0.14598
7322.39550,0.02772
7324.32397,-0.09381
7326.25244,-0.09795
7328.18090,0.06876
7330.10937,0.22950
7332.03784,0.22405
7333.96631,0.16975
7335.89478,0.09831
7337.82325,0.05389
7339.75172,0.09260
7341.68019,0.04838
7343.60865,-0.04365
7345.53712,-0.00587
7347.46559,0.10686
7349.39406,0.16152
7351.32253,0.13222
7353.25100,0.07676
7355.17947,0.09958
7357.10793,0.22166
7359.03640,0.24722
7360.96487,0.09603
7362.89334,0.02196
7364.82181,0.10125
7366.75028,0.19679
7368.67875,0.21984
7370.60722,0.19267
7372.53568,0.20543
7374.46415,0.24885
7376.39262,0.12501
7378.32109,-0.07789
7380.24956,-0.16110
7382.17803,-0.11878
7384.10650,-0.03049
7386.03496,0.07817
7387.96343,0.16905
7389.89190,0.19575
7391.82037,0.18275
7393.74884,0.09971
7395.67731,-0.00633
7397.60578,-0.01654
7399.53425,0.02567
7401.46271,0.09343
7403.39118,0.18554
7405.31965,0.18054
7407.24812,0.10031
7409.17659,0.09178
7411.10506,0.14111
7413.03353,0.16682
7414.96199,0.14164
7416.89046,0.07665
7418.81893,-0.00383
7420.74740,-0.07752
7422.67587,-0.06939
7424.60434,0.01792
7426.53281,0.11101
7428.46128,0.16234
7430.38974,0.14325
7432.31821,0.07891
7434.24668,0.03982
7436.17515,0.03145
7438.10362,-0.03654
7440.03209,-0.11962
7441.96056,-0.08714
7443.88902,0.01549
7445.81749,0.02412
7447.74596,-0.10769
7449.67443,-0.17902
7451.60290,-0.04615
7453.53137,0.07076
7455.45984,0.04509
7457.38831,-0.04710
7459.31677,-0.11736
7461.24524,-0.06012
7463.17371,0.07565
7465.10218,0.17219
7467.03065,0.13780
7468.95912,0.01176
7470.88759,-0.10509
7472.81605,-0.16734
7474.74452,-0.19065
7476.67299,-0.18303
7478.60146,-0.07762
7480.52993,0.11643
7482.45840,0.13397
7484.38687,-0.08717
7486.31533,-0.27777
7488.24380,-0.26171
7490.17227,-0.12764
7492.10074,-0.02516
7494.02921,0.04858
7495.95768,0.10609
7497.88615,0.15135
