399.19301,1.14401
401.12148,0.61017
403.04995,0.12148
404.97842,-0.13981
406.90689,-0.13559
408.83536,0.00056
410.76382,0.08613
412.69229,0.09435
414.62076,0.08650
416.54923,0.08889
418.47770,0.10893
420.40617,0.12727
422.33464,0.14682
424.26311,0.16222
426.19157,0.13132
428.12004,0.06048
430.04851,-0.01419
431.97698,-0.05272
433.90545,-0.01960
435.83392,0.05341
437.76239,0.09611
439.69085,0.07829
441.61932,0.02083
443.54779,-0.00567
445.47626,0.01426
447.40473,0.02280
449.33320,0.01241
451.26167,-0.00877
453.19013,-0.04077
455.11860,-0.04153
457.04707,-0.00588
458.97554,-0.01264
460.90401,-0.03062
462.83248,-0.00578
464.76095,0.01700
466.68942,0.04156
468.61788,0.06899
470.54635,0.07540
472.47482,0.09030
474.40329,0.08809
476.33176,0.04454
478.26023,0.02477
480.18870,0.01942
482.11716,0.02138
484.04563,0.03521
485.97410,0.03621
487.90257,0.01942
489.83104,0.01198
491.75951,0.01721
493.68798,0.01213
495.61645,0.00163
497.54491,0.01942
499.47338,0.04953
501.40185,0.06684
503.33032,0.07866
505.25879,0.08093
507.18726,0.05494
509.11573,0.00932
511.04419,-0.01413
512.97266,-0.00514
514.90113,0.00573
516.82960,0.00482
518.75807,0.00728
520.68654,0.01542
522.61501,0.03396
524.54348,0.06745
526.47194,0.09240
528.40041,0.08128
530.32888,0.04085
532.25735,0.01007
534.18582,0.02048
536.11429,0.06220
538.04276,0.09481
539.97122,0.08884
541.89969,0.04927
543.82816,0.01784
545.75663,0.02803
547.68510,0.05926
549.61357,0.06239
551.54204,0.00112
553.47051,-0.07610
555.39897,-0.07195
557.32744,0.00936
559.25591,0.06359
561.18438,0.06583
563.11285,0.06027
565.04132,0.05443
566.96979,0.04774
568.89825,0.04267
570.82672,0.04294
572.75519,0.05747
574.68366,0.06905
576.61213,0.06456
578.54060,0.05905
580.46907,0.05275
582.39754,0.03445
584.32600,0.01655
586.25447,0.01392
588.18294,0.02269
590.11141,0.04286
592.03988,0.06883
593.96835,0.08060
595.89682,0.08794
597.82528,0.10432
599.75375,0.11209
601.68222,0.10091
603.61069,0.08399
605.53916,0.07121
607.46763,0.05992
609.39610,0.04657
611.32456,0.03447
613.25303,0.03121
615.18150,0.03469
617.10997,0.03855
619.03844,0.03974
620.96691,0.03647
622.89538,0.03156
624.82385,0.02985
626.75231,0.03667
628.68078,0.04456
630.60925,0.04651
632.53772,0.05428
634.46619,0.06589
636.39466,0.06982
638.32313,0.06802
640.25159,0.06710
642.18006,0.07128
644.10853,0.07546
646.03700,0.07265
647.96547,0.06402
649.89394,0.05556
651.82241,0.05010
653.75088,0.04993
655.67934,0.05497
657.60781,0.05059
659.53628,0.03206
661.46475,0.02422
663.39322,0.04281
665.32169,0.07421
667.25016,0.09291
669.17862,0.06849
671.10709,0.04753
673.03556,0.05435
674.96403,0.05871
676.89250,0.05197
678.82097,0.05428
680.74944,0.06010
682.67791,0.05435
684.60637,0.04764
686.53484,0.04502
688.46331,0.03968
690.39178,0.03684
692.32025,0.04080
694.24872,0.04217
696.17719,0.03795
698.10565,0.03924
700.03412,0.04571
701.96259,0.04542
703.89106,0.04061
705.81953,0.03812
707.74800,0.03853
709.67647,0.04756
711.60494,0.06205
713.53340,0.06618
715.46187,0.05947
717.39034,0.05473
719.31881,0.05840
721.24728,0.06378
723.17575,0.06106
725.10422,0.05990
727.03268,0.06472
728.96115,0.06143
730.88962,0.05269
732.81809,0.05001
734.74656,0.05087
736.67503,0.05352
738.60350,0.06011
740.53197,0.06536
742.46043,0.06219
744.38890,0.05523
746.31737,0.05486
748.24584,0.06067
750.17431,0.06586
752.10278,0.06628
754.03125,0.06486
755.95971,0.06273
757.88818,0.05589
759.81665,0.05193
761.74512,0.05258
763.67359,0.04738
765.60206,0.03796
767.53053,0.03516
769.45900,0.04475
771.38746,0.05917
773.31593,0.06820
775.24440,0.06913
777.17287,0.06192
779.10134,0.05825
781.02981,0.06262
782.95828,0.06156
784.88674,0.05402
786.81521,0.04686
788.74368,0.04544
790.67215,0.05174
792.60062,0.05633
794.52909,0.05545
796.45756,0.05373
798.38602,0.05149
800.31449,0.04981
802.24296,0.05157
804.17143,0.05392
806.09990,0.05409
808.02837,0.05457
809.95684,0.05643
811.88531,0.05671
813.81377,0.05434
815.74224,0.05400
817.67071,0.05675
819.59918,0.05929
821.52765,0.06172
823.45612,0.06502
825.38459,0.06494
827.31305,0.05685
829.24152,0.04874
831.16999,0.04908
833.09846,0.05218
835.02693,0.04894
836.95540,0.04328
838.88387,0.04699
840.81234,0.06314
842.74080,0.07896
844.66927,0.07819
846.59774,0.06870
848.52621,0.06373
850.45468,0.05925
852.38315,0.05713
854.31162,0.05908
856.24008,0.05653
858.16855,0.05246
860.09702,0.05126
862.02549,0.04894
863.95396,0.04998
865.88243,0.06111
867.81090,0.08723
869.73937,0.11027
871.66783,0.09488
873.59630,0.05917
875.52477,0.04476
877.45324,0.05089
879.38171,0.05983
881.31018,0.06242
883.23865,0.06108
885.16711,0.06147
887.09558,0.06182
889.02405,0.05894
890.95252,0.05599
892.88099,0.05744
894.80946,0.05910
896.73793,0.05767
898.66640,0.05724
900.59486,0.05880
902.52333,0.06096
904.45180,0.06359
906.38027,0.06528
908.30874,0.06544
910.23721,0.06539
912.16568,0.06717
914.09414,0.07133
916.02261,0.07438
917.95108,0.07327
919.87955,0.06945
921.80802,0.06687
923.73649,0.06482
925.66496,0.06186
927.59343,0.06093
929.52189,0.06139
931.45036,0.06234
933.37883,0.06329
935.30730,0.06165
937.23577,0.05992
939.16424,0.06148
941.09271,0.06214
943.02117,0.05770
944.94964,0.05315
946.87811,0.05351
948.80658,0.05415
950.73505,0.05217
952.66352,0.05436
954.59199,0.06150
956.52045,0.06386
958.44892,0.06126
960.37739,0.06005
962.30586,0.06022
964.23433,0.06201
966.16280,0.06502
968.09127,0.06761
970.01974,0.07162
971.94820,0.07280
973.87667,0.06560
975.80514,0.05905
977.73361,0.06070
979.66208,0.06459
981.59055,0.06735
983.51902,0.06791
985.44748,0.06421
987.37595,0.06159
989.30442,0.06450
991.23289,0.06692
993.16136,0.06407
995.08983,0.06142
997.01830,0.06124
998.94677,0.06076
1000.87523,0.05921
1002.80370,0.05656
1004.73217,0.05670
1006.66064,0.06055
1008.58911,0.06417
1010.51758,0.06429
1012.44605,0.05830
1014.37451,0.05306
1016.30298,0.05730
1018.23145,0.06475
1020.15992,0.06747
1022.08839,0.06695
1024.01686,0.06550
1025.94533,0.06225
1027.87380,0.05555
1029.80226,0.05116
1031.73073,0.05350
1033.65920,0.05499
1035.58767,0.05128
1037.51614,0.04728
1039.44461,0.04901
1041.37308,0.05874
1043.30154,0.06982
1045.23001,0.07182
1047.15848,0.06609
1049.08695,0.05980
1051.01542,0.05934
1052.94389,0.06687
1054.87236,0.07162
1056.80083,0.06959
1058.72929,0.06669
1060.65776,0.06391
1062.58623,0.06316
1064.51470,0.06559
1066.44317,0.06826
1068.37164,0.06897
1070.30011,0.06670
1072.22857,0.06429
1074.15704,0.06617
1076.08551,0.06720
1078.01398,0.06405
1079.94245,0.06351
1081.87092,0.06367
1083.79939,0.06010
1085.72786,0.05977
1087.65632,0.06403
1089.58479,0.06474
1091.51326,0.06276
1093.44173,0.06538
1095.37020,0.07114
1097.29867,0.07411
1099.22714,0.07363
1101.15560,0.07031
1103.08407,0.06599
1105.01254,0.06421
1106.94101,0.06535
1108.86948,0.06863
1110.79795,0.07279
1112.72642,0.07584
1114.65489,0.07538
1116.58335,0.07267
1118.51182,0.07044
1120.44029,0.06528
1122.36876,0.05982
1124.29723,0.06054
1126.22570,0.06297
1128.15417,0.06202
1130.08263,0.05934
1132.01110,0.05761
1133.93957,0.05623
1135.86804,0.05435
1137.79651,0.05662
1139.72498,0.06267
1141.65345,0.06492
1143.58191,0.06360
1145.51038,0.06373
1147.43885,0.06552
1149.36732,0.06797
1151.29579,0.06951
1153.22426,0.07006
1155.15273,0.07235
1157.08120,0.07387
1159.00966,0.07160
1160.93813,0.06817
1162.86660,0.06708
1164.79507,0.07014
1166.72354,0.07391
1168.65201,0.07277
1170.58048,0.06896
1172.50894,0.06870
1174.43741,0.07065
1176.36588,0.07152
1178.29435,0.07236
1180.22282,0.07273
1182.15129,0.07311
1184.07976,0.07516
1186.00823,0.07728
1187.93669,0.07739
1189.86516,0.07582
1191.79363,0.07296
1193.72210,0.06905
1195.65057,0.06750
1197.57904,0.06769
1199.50751,0.06488
1201.43597,0.06197
1203.36444,0.06277
1205.29291,0.06399
1207.22138,0.06496
1209.14985,0.06730
1211.07832,0.06810
1213.00679,0.06753
1214.93526,0.06949
1216.86372,0.07226
1218.79219,0.07277
1220.72066,0.07153
1222.64913,0.06875
1224.57760,0.06525
1226.50607,0.06389
1228.43454,0.06526
1230.36300,0.06756
1232.29147,0.06934
1234.21994,0.06902
1236.14841,0.06656
1238.07688,0.06450
1240.00535,0.06471
1241.93382,0.06569
1243.86229,0.06635
1245.79075,0.06778
1247.71922,0.06905
1249.64769,0.06903
1251.57616,0.06795
1253.50463,0.06734
1255.43310,0.06857
1257.36157,0.06861
1259.29003,0.06715
1261.21850,0.06832
1263.14697,0.06987
1265.07544,0.06723
1267.00391,0.06406
1268.93238,0.06638
1270.86085,0.07147
1272.78932,0.07391
1274.71778,0.07498
1276.64625,0.07581
1278.57472,0.07423
1280.50319,0.07252
1282.43166,0.07407
1284.36013,0.07666
1286.28860,0.07696
1288.21706,0.07503
1290.14553,0.07300
1292.07400,0.07276
1294.00247,0.07282
1295.93094,0.06944
1297.85941,0.06361
1299.78788,0.06128
1301.71634,0.06343
1303.64481,0.06454
1305.57328,0.06376
1307.50175,0.06563
1309.43022,0.07111
1311.35869,0.07587
1313.28716,0.07614
1315.21563,0.07472
1317.14409,0.07475
1319.07256,0.07446
1321.00103,0.07478
1322.92950,0.07610
1324.85797,0.07498
1326.78644,0.07210
1328.71491,0.06999
1330.64337,0.06883
1332.57184,0.06964
1334.50031,0.07139
1336.42878,0.07150
1338.35725,0.07132
1340.28572,0.07173
1342.21419,0.07247
1344.14266,0.07464
1346.07112,0.07654
1347.99959,0.07687
1349.92806,0.07676
1351.85653,0.07581
1353.78500,0.07404
1355.71347,0.07377
1357.64194,0.07530
1359.57040,0.07655
1361.49887,0.07652
1363.42734,0.07523
1365.35581,0.07394
1367.28428,0.07359
1369.21275,0.07337
1371.14122,0.07356
1373.06969,0.07521
1374.99815,0.07610
1376.92662,0.07518
1378.85509,0.07534
1380.78356,0.07634
1382.71203,0.07701
1384.64050,0.07776
1386.56897,0.07722
1388.49743,0.07565
1390.42590,0.07598
1392.35437,0.07743
1394.28284,0.07880
1396.21131,0.07959
1398.13978,0.07923
1400.06825,0.07878
1401.99672,0.08025
1403.92518,0.08310
1405.85365,0.08324
1407.78212,0.08076
1409.71059,0.07827
1411.63906,0.07563
1413.56753,0.07440
1415.49600,0.07440
1417.42446,0.07371
1419.35293,0.07284
1421.28140,0.07494
1423.20987,0.07968
1425.13834,0.08266
1427.06681,0.08360
1428.99528,0.08524
1430.92375,0.08472
1432.85221,0.08186
1434.78068,0.08121
1436.70915,0.08314
1438.63762,0.08288
1440.56609,0.08014
1442.49456,0.07930
1444.42303,0.08282
1446.35149,0.08800
1448.27996,0.08870
1450.20843,0.08531
1452.13690,0.08405
1454.06537,0.08485
1455.99384,0.08589
1457.92231,0.08366
1459.85077,0.07690
1461.77924,0.07367
1463.70771,0.07489
1465.63618,0.07555
1467.56465,0.07633
1469.49312,0.08176
1471.42159,0.08821
1473.35006,0.08909
1475.27852,0.08709
1477.20699,0.08584
1479.13546,0.08557
1481.06393,0.08611
1482.99240,0.08545
1484.92087,0.08409
1486.84934,0.08402
1488.77780,0.08594
1490.70627,0.08836
1492.63474,0.08701
1494.56321,0.08304
1496.49168,0.08179
1498.42015,0.08413
1500.34862,0.08125
1502.27709,0.07594
1504.20555,0.07793
1506.13402,0.09016
1508.06249,0.09230
1509.99096,0.08546
1511.91943,0.08526
1513.84790,0.08855
1515.77637,0.09231
1517.70483,0.09478
1519.63330,0.09564
1521.56177,0.09543
1523.49024,0.09316
1525.41871,0.09080
1527.34718,0.08800
1529.27565,0.08476
1531.20412,0.08340
1533.13258,0.08313
1535.06105,0.08210
1536.98952,0.08299
1538.91799,0.09027
1540.84646,0.10260
1542.77493,0.10224
1544.70340,0.09418
1546.63186,0.08795
1548.56033,0.08565
1550.48880,0.08661
1552.41727,0.09013
1554.34574,0.09297
1556.27421,0.09448
1558.20268,0.09788
1560.13115,0.09328
1562.05961,0.08714
1563.98808,0.08579
1565.91655,0.08598
1567.84502,0.08687
1569.77349,0.08705
1571.70196,0.08524
1573.63043,0.08433
1575.55889,0.08360
1577.48736,0.08111
1579.41583,0.08059
1581.34430,0.08236
1583.27277,0.08267
1585.20124,0.08034
1587.12971,0.07971
1589.05818,0.08251
1590.98664,0.08599
1592.91511,0.08877
1594.84358,0.08858
1596.77205,0.08430
1598.70052,0.08093
1600.62899,0.08110
1602.55746,0.08206
1604.48592,0.08242
1606.41439,0.08378
1608.34286,0.08598
1610.27133,0.08582
1612.19980,0.08360
1614.12827,0.08365
1616.05674,0.08624
1617.98521,0.08548
1619.91367,0.08293
1621.84214,0.08284
1623.77061,0.08329
1625.69908,0.08419
1627.62755,0.08806
1629.55602,0.09076
1631.48449,0.08890
1633.41295,0.08721
1635.34142,0.09170
1637.26989,0.09417
1639.19836,0.08923
1641.12683,0.08598
1643.05530,0.08604
1644.98377,0.08849
1646.91223,0.09261
1648.84070,0.09431
1650.76917,0.09573
1652.69764,0.10184
1654.62611,0.10127
1656.55458,0.09357
1658.48305,0.08950
1660.41152,0.08698
1662.33998,0.08476
1664.26845,0.08661
1666.19692,0.09060
1668.12539,0.09390
1670.05386,0.09476
1671.98233,0.09263
1673.91080,0.08952
1675.83926,0.08623
1677.76773,0.08579
1679.69620,0.08915
1681.62467,0.09612
1683.55314,0.10395
1685.48161,0.10070
1687.41008,0.09232
1689.33855,0.08598
1691.26701,0.08125
1693.19548,0.07985
1695.12395,0.08231
1697.05242,0.08694
1698.98089,0.09110
1700.90936,0.09128
1702.83783,0.08775
1704.76629,0.08616
1706.69476,0.08682
1708.62323,0.08707
1710.55170,0.08652
1712.48017,0.08726
1714.40864,0.09116
1716.33711,0.09351
1718.26558,0.08685
1720.19404,0.08078
1722.12251,0.07886
1724.05098,0.07788
1725.97945,0.07862
1727.90792,0.08244
1729.83639,0.08749
1731.76486,0.09156
1733.69332,0.09271
1735.62179,0.08999
1737.55026,0.08779
1739.47873,0.08652
1741.40720,0.08523
1743.33567,0.08327
1745.26414,0.08276
1747.19261,0.08631
1749.12107,0.09068
1751.04954,0.09006
1752.97801,0.08661
1754.90648,0.08577
1756.83495,0.08678
1758.76342,0.08640
1760.69189,0.08396
1762.62035,0.08122
1764.54882,0.08107
1766.47729,0.08268
1768.40576,0.08519
1770.33423,0.08991
1772.26270,0.09356
1774.19117,0.09046
1776.11964,0.08709
1778.04810,0.08848
1779.97657,0.09075
1781.90504,0.08855
1783.83351,0.08430
1785.76198,0.08218
1787.69045,0.08265
1789.61892,0.08538
1791.54738,0.08911
1793.47585,0.08987
1795.40432,0.08726
1797.33279,0.08468
1799.26126,0.08446
1801.18973,0.08496
1803.11820,0.08276
1805.04666,0.07993
1806.97513,0.07976
1808.90360,0.08182
1810.83207,0.08348
1812.76054,0.08369
1814.68901,0.08223
1816.61748,0.07908
1818.54595,0.07833
1820.47441,0.08286
1822.40288,0.08719
1824.33135,0.08611
1826.25982,0.08314
1828.18829,0.08356
1830.11676,0.08574
1832.04523,0.08534
1833.97369,0.08297
1835.90216,0.08175
1837.83063,0.08204
1839.75910,0.08192
1841.68757,0.08173
1843.61604,0.08254
1845.54451,0.08263
1847.47298,0.08143
1849.40144,0.08096
1851.32991,0.08165
1853.25838,0.08232
1855.18685,0.08275
1857.11532,0.08276
1859.04379,0.08150
1860.97226,0.08007
1862.90072,0.08058
1864.82919,0.08307
1866.75766,0.08633
1868.68613,0.08819
1870.61460,0.08657
1872.54307,0.08433
1874.47154,0.08420
1876.40001,0.08461
1878.32847,0.08379
1880.25694,0.08297
1882.18541,0.08316
1884.11388,0.08430
1886.04235,0.08587
1887.97082,0.08717
1889.89929,0.08736
1891.82775,0.08556
1893.75622,0.08386
1895.68469,0.08381
1897.61316,0.08332
1899.54163,0.08273
1901.47010,0.08413
1903.39857,0.08574
1905.32704,0.08582
1907.25550,0.08563
1909.18397,0.08483
1911.11244,0.08273
1913.04091,0.08222
1914.96938,0.08471
1916.89785,0.08613
1918.82632,0.08354
1920.75478,0.08157
1922.68325,0.08293
1924.61172,0.08338
1926.54019,0.08054
1928.46866,0.07778
1930.39713,0.07812
1932.32560,0.08088
1934.25407,0.08316
1936.18253,0.08371
1938.11100,0.08423
1940.03947,0.08556
1941.96794,0.08675
1943.89641,0.08675
1945.82488,0.08539
1947.75335,0.08435
1949.68181,0.08496
1951.61028,0.08601
1953.53875,0.08625
1955.46722,0.08597
1957.39569,0.08556
1959.32416,0.08596
1961.25263,0.08701
1963.18110,0.08675
1965.10956,0.08515
1967.03803,0.08355
1968.96650,0.08270
1970.89497,0.08225
1972.82344,0.08161
1974.75191,0.08041
1976.68038,0.07847
1978.60884,0.07787
1980.53731,0.07977
1982.46578,0.08261
1984.39425,0.08485
1986.32272,0.08472
1988.25119,0.08188
1990.17966,0.07957
1992.10812,0.08109
1994.03659,0.08433
1995.96506,0.08540
1997.89353,0.08492
1999.82200,0.08442
2001.75047,0.08414
2003.67894,0.08384
2005.60741,0.08297
2007.53587,0.08171
2009.46434,0.08117
2011.39281,0.08186
2013.32128,0.08312
2015.24975,0.08472
2017.17822,0.08608
2019.10669,0.08616
2021.03515,0.08522
2022.96362,0.08367
2024.89209,0.08224
2026.82056,0.08203
2028.74903,0.08283
2030.67750,0.08352
2032.60597,0.08407
2034.53444,0.08488
2036.46290,0.08576
2038.39137,0.08647
2040.31984,0.08589
2042.24831,0.08441
2044.17678,0.08420
2046.10525,0.08478
2048.03372,0.08507
2049.96218,0.08508
2051.89065,0.08415
2053.81912,0.08220
2055.74759,0.08043
2057.67606,0.08023
2059.60453,0.08152
2061.53300,0.08317
2063.46147,0.08461
2065.38993,0.08535
2067.31840,0.08562
2069.24687,0.08631
2071.17534,0.08682
2073.10381,0.08610
2075.03228,0.08479
2076.96075,0.08435
2078.88921,0.08594
2080.81768,0.08865
2082.74615,0.08927
2084.67462,0.08710
2086.60309,0.08397
2088.53156,0.08186
2090.46003,0.08179
2092.38850,0.08282
2094.31696,0.08394
2096.24543,0.08450
2098.17390,0.08482
2100.10237,0.08538
2102.03084,0.08555
2103.95931,0.08532
2105.88778,0.08501
2107.81624,0.08490
2109.74471,0.08492
2111.67318,0.08495
2113.60165,0.08524
2115.53012,0.08491
2117.45859,0.08453
2119.38706,0.08518
2121.31553,0.08481
2123.24399,0.08320
2125.17246,0.08285
2127.10093,0.08321
2129.02940,0.08265
2130.95787,0.08270
2132.88634,0.08451
2134.81481,0.08610
2136.74327,0.08552
2138.67174,0.08324
2140.60021,0.08070
2142.52868,0.07880
2144.45715,0.07793
2146.38562,0.07861
2148.31409,0.08095
2150.24255,0.08309
2152.17102,0.08371
2154.09949,0.08444
2156.02796,0.08632
2157.95643,0.08821
2159.88490,0.08888
2161.81337,0.08815
2163.74184,0.08744
2165.67030,0.08761
2167.59877,0.08810
2169.52724,0.08872
2171.45571,0.08906
2173.38418,0.08816
2175.31265,0.08638
2177.24112,0.08483
2179.16958,0.08415
2181.09805,0.08410
2183.02652,0.08357
2184.95499,0.08287
2186.88346,0.08325
2188.81193,0.08349
2190.74040,0.08177
2192.66887,0.07973
2194.59733,0.08008
2196.52580,0.08192
2198.45427,0.08328
2200.38274,0.08378
2202.31121,0.08296
2204.23968,0.08165
2206.16815,0.08196
2208.09661,0.08342
2210.02508,0.08371
2211.95355,0.08258
2213.88202,0.08237
2215.81049,0.08427
2217.73896,0.08617
2219.66743,0.08680
2221.59590,0.08704
2223.52436,0.08722
2225.45283,0.08699
2227.38130,0.08647
2229.30977,0.08580
2231.23824,0.08473
2233.16671,0.08381
2235.09518,0.08406
2237.02364,0.08503
2238.95211,0.08465
2240.88058,0.08276
2242.80905,0.08176
2244.73752,0.08230
2246.66599,0.08303
2248.59446,0.08330
2250.52293,0.08489
2252.45139,0.08787
2254.37986,0.08896
2256.30833,0.08804
2258.23680,0.08758
2260.16527,0.08700
2262.09374,0.08502
2264.02221,0.08345
2265.95067,0.08340
2267.87914,0.08299
2269.80761,0.08098
2271.73608,0.07933
2273.66455,0.08074
2275.59302,0.08379
2277.52149,0.08463
2279.44996,0.08296
2281.37842,0.08196
2283.30689,0.08334
2285.23536,0.08565
2287.16383,0.08606
2289.09230,0.08375
2291.02077,0.08218
2292.94924,0.08348
2294.87770,0.08490
2296.80617,0.08421
2298.73464,0.08237
2300.66311,0.08049
2302.59158,0.07873
2304.52005,0.07939
2306.44852,0.08301
2308.37699,0.08481
2310.30545,0.08362
2312.23392,0.08355
2314.16239,0.08509
2316.09086,0.08618
2318.01933,0.08536
2319.94780,0.08143
2321.87627,0.07770
2323.80473,0.07778
2325.73320,0.08026
2327.66167,0.08573
2329.59014,0.09067
2331.51861,0.08731
2333.44708,0.07822
2335.37555,0.06663
2337.30401,0.05682
2339.23248,0.06121
2341.16095,0.07538
2343.08942,0.08024
2345.01789,0.07755
2346.94636,0.08050
2348.87483,0.08624
2350.80330,0.08868
2352.73176,0.08493
2354.66023,0.07616
2356.58870,0.06935
2358.51717,0.06802
2360.44564,0.07436
2362.37411,0.08961
2364.30258,0.09964
2366.23104,0.09795
2368.15951,0.09306
2370.08798,0.08643
2372.01645,0.07956
2373.94492,0.07678
2375.87339,0.07777
2377.80186,0.07857
2379.73033,0.07817
2381.65879,0.07907
2383.58726,0.08112
2385.51573,0.08232
2387.44420,0.08325
2389.37267,0.08480
2391.30114,0.08595
2393.22961,0.08629
2395.15807,0.08658
2397.08654,0.08759
2399.01501,0.08866
2400.94348,0.08788
2402.87195,0.08564
2404.80042,0.08395
2406.72889,0.08387
2408.65736,0.08464
2410.58582,0.08505
2412.51429,0.08517
2414.44276,0.08463
2416.37123,0.08393
2418.29970,0.08519
2420.22817,0.08745
2422.15664,0.08822
2424.08510,0.08814
2426.01357,0.08815
2427.94204,0.08779
2429.87051,0.08784
2431.79898,0.08849
2433.72745,0.08921
2435.65592,0.08933
2437.58439,0.08788
2439.51285,0.08534
2441.44132,0.08297
2443.36979,0.08231
2445.29826,0.08433
2447.22673,0.08784
2449.15520,0.08916
2451.08367,0.08639
2453.01213,0.08430
2454.94060,0.08533
2456.86907,0.08558
2458.79754,0.08512
2460.72601,0.08612
2462.65448,0.08723
2464.58295,0.08740
2466.51142,0.08722
2468.43988,0.08719
2470.36835,0.08723
2472.29682,0.08763
2474.22529,0.08878
2476.15376,0.09019
2478.08223,0.09092
2480.01070,0.09052
2481.93916,0.08992
2483.86763,0.09023
2485.79610,0.09068
2487.72457,0.08942
2489.65304,0.08715
2491.58151,0.08656
2493.50998,0.08717
2495.43844,0.08723
2497.36691,0.08685
2499.29538,0.08558
2501.22385,0.08399
2503.15232,0.08422
2505.08079,0.08551
2507.00926,0.08626
2508.93773,0.08746
2510.86619,0.08908
2512.79466,0.08819
2514.72313,0.08490
2516.65160,0.08363
2518.58007,0.08505
2520.50854,0.08716
2522.43701,0.08905
2524.36547,0.08889
2526.29394,0.08696
2528.22241,0.08578
2530.15088,0.08687
2532.07935,0.08941
2534.00782,0.09060
2535.93629,0.08977
2537.86476,0.08853
2539.79322,0.08774
2541.72169,0.08697
2543.65016,0.08650
2545.57863,0.08729
2547.50710,0.08841
2549.43557,0.08823
2551.36404,0.08665
2553.29250,0.08555
2555.22097,0.08655
2557.14944,0.08723
2559.07791,0.08470
2561.00638,0.08155
2562.93485,0.08224
2564.86332,0.08544
2566.79179,0.08690
2568.72025,0.08708
2570.64872,0.08833
2572.57719,0.08918
2574.50566,0.08800
2576.43413,0.08572
2578.36260,0.08361
2580.29107,0.08363
2582.21953,0.08542
2584.14800,0.08640
2586.07647,0.08736
2588.00494,0.08866
2589.93341,0.08922
2591.86188,0.08956
2593.79035,0.08942
2595.71882,0.08879
2597.64728,0.08893
2599.57575,0.08877
2601.50422,0.08666
2603.43269,0.08451
2605.36116,0.08398
2607.28963,0.08469
2609.21810,0.08644
2611.14656,0.08835
2613.07503,0.09004
2615.00350,0.09152
2616.93197,0.09099
2618.86044,0.08939
2620.78891,0.09062
2622.71738,0.09299
2624.64585,0.09165
2626.57431,0.08872
2628.50278,0.08860
2630.43125,0.08992
2632.35972,0.09031
2634.28819,0.08977
2636.21666,0.08817
2638.14513,0.08684
2640.07359,0.08766
2642.00206,0.08976
2643.93053,0.09118
2645.85900,0.09117
2647.78747,0.09080
2649.71594,0.09148
2651.64441,0.09193
2653.57288,0.09039
2655.50134,0.08841
2657.42981,0.08713
2659.35828,0.08582
2661.28675,0.08550
2663.21522,0.08724
2665.14369,0.08904
2667.07216,0.08876
2669.00062,0.08730
2670.92909,0.08699
2672.85756,0.08903
2674.78603,0.09129
2676.71450,0.09085
2678.64297,0.08962
2680.57144,0.09021
2682.49990,0.09125
2684.42837,0.09138
2686.35684,0.09103
2688.28531,0.09071
2690.21378,0.08954
2692.14225,0.08803
2694.07072,0.08823
2695.99919,0.08883
2697.92765,0.08911
2699.85612,0.08999
2701.78459,0.09048
2703.71306,0.09011
2705.64153,0.08936
2707.57000,0.08919
2709.49847,0.08904
2711.42693,0.08817
2713.35540,0.08781
2715.28387,0.08727
2717.21234,0.08617
2719.14081,0.08648
2721.06928,0.08846
2722.99775,0.09136
2724.92622,0.09377
2726.85468,0.09288
2728.78315,0.08986
2730.71162,0.08902
2732.64009,0.09026
2734.56856,0.09146
2736.49703,0.09256
2738.42550,0.09341
2740.35396,0.09384
2742.28243,0.09417
2744.21090,0.09336
2746.13937,0.09113
2748.06784,0.09016
2749.99631,0.09158
2751.92478,0.09395
2753.85325,0.09598
2755.78171,0.09621
2757.71018,0.09432
2759.63865,0.09233
2761.56712,0.09321
2763.49559,0.09589
2765.42406,0.09588
2767.35253,0.09408
2769.28099,0.09402
2771.20946,0.09507
2773.13793,0.09601
2775.06640,0.09626
2776.99487,0.09509
2778.92334,0.09339
2780.85181,0.09257
2782.78028,0.09330
2784.70874,0.09506
2786.63721,0.09568
2788.56568,0.09416
2790.49415,0.09290
2792.42262,0.09324
2794.35109,0.09289
2796.27956,0.09164
2798.20802,0.09212
2800.13649,0.09468
2802.06496,0.09736
2803.99343,0.09821
2805.92190,0.09661
2807.85037,0.09395
2809.77884,0.09297
2811.70731,0.09434
2813.63577,0.09492
2815.56424,0.09353
2817.49271,0.09225
2819.42118,0.09134
2821.34965,0.09072
2823.27812,0.09234
2825.20659,0.09692
2827.13505,0.10053
2829.06352,0.09856
2830.99199,0.09339
2832.92046,0.09070
2834.84893,0.09100
2836.77740,0.09197
2838.70587,0.09345
2840.63433,0.09600
2842.56280,0.09873
2844.49127,0.09968
2846.41974,0.09779
2848.34821,0.09463
2850.27668,0.09334
2852.20515,0.09520
2854.13362,0.09703
2856.06208,0.09582
2857.99055,0.09438
2859.91902,0.09513
2861.84749,0.09553
2863.77596,0.09482
2865.70443,0.09537
2867.63290,0.09557
2869.56136,0.09322
2871.48983,0.09137
2873.41830,0.09183
2875.34677,0.09221
2877.27524,0.09115
2879.20371,0.09069
2881.13218,0.09220
2883.06065,0.09342
2884.98911,0.09285
2886.91758,0.09134
2888.84605,0.09095
2890.77452,0.09253
2892.70299,0.09409
2894.63146,0.09402
2896.55993,0.09235
2898.48839,0.08995
2900.41686,0.08842
2902.34533,0.08952
2904.27380,0.09249
2906.20227,0.09462
2908.13074,0.09629
2910.05921,0.09781
2911.98768,0.09769
2913.91614,0.09637
2915.84461,0.09506
2917.77308,0.09477
2919.70155,0.09529
2921.63002,0.09633
2923.55849,0.09878
2925.48696,0.09883
2927.41542,0.09427
2929.34389,0.09174
2931.27236,0.09352
2933.20083,0.09530
2935.12930,0.09474
2937.05777,0.09271
2938.98624,0.09338
2940.91471,0.09661
2942.84317,0.09711
2944.77164,0.09422
2946.70011,0.09138
2948.62858,0.09106
2950.55705,0.09283
2952.48552,0.09454
2954.41399,0.09434
2956.34245,0.09171
2958.27092,0.08992
2960.19939,0.09183
2962.12786,0.09471
2964.05633,0.09632
2965.98480,0.09662
2967.91327,0.09540
2969.84174,0.09498
2971.77020,0.09651
2973.69867,0.09745
2975.62714,0.09558
2977.55561,0.09246
2979.48408,0.09190
2981.41255,0.09439
2983.34102,0.09757
2985.26948,0.09867
2987.19795,0.09647
2989.12642,0.09464
2991.05489,0.09692
2992.98336,0.10017
2994.91183,0.09967
2996.84030,0.09682
2998.76877,0.09609
3000.69723,0.09816
3002.62570,0.09990
3004.55417,0.09973
3006.48264,0.09860
3008.41111,0.09903
3010.33958,0.09975
3012.26805,0.09373
3014.19651,0.08029
3016.12498,0.07123
3018.05345,0.07751
3019.98192,0.09129
3021.91039,0.09682
3023.83886,0.09492
3025.76733,0.09363
3027.69579,0.09302
3029.62426,0.09264
3031.55273,0.09481
3033.48120,0.09771
3035.40967,0.09877
3037.33814,0.09952
3039.26661,0.10060
3041.19508,0.09976
3043.12354,0.09642
3045.05201,0.09251
3046.98048,0.08980
3048.90895,0.09041
3050.83742,0.09436
3052.76589,0.09887
3054.69436,0.10094
3056.62282,0.09759
3058.55129,0.09211
3060.47976,0.09105
3062.40823,0.09347
3064.33670,0.09493
3066.26517,0.09458
3068.19364,0.09430
3070.12211,0.09667
3072.05057,0.10098
3073.97904,0.10066
3075.90751,0.09481
3077.83598,0.09189
3079.76445,0.09321
3081.69292,0.09332
3083.62139,0.09042
3085.54985,0.08601
3087.47832,0.08422
3089.40679,0.08799
3091.33526,0.09304
3093.26373,0.09233
3095.19220,0.08929
3097.12067,0.09116
3099.04914,0.09647
3100.97760,0.10066
3102.90607,0.09976
3104.83454,0.09642
3106.76301,0.09523
3108.69148,0.09462
3110.61995,0.09474
3112.54842,0.09666
3114.47688,0.09980
3116.40535,0.10193
3118.33382,0.10075
3120.26229,0.09901
3122.19076,0.09857
3124.11923,0.09699
3126.04770,0.09473
3127.97617,0.09359
3129.90463,0.09190
3131.83310,0.09018
3133.76157,0.09156
3135.69004,0.09548
3137.61851,0.09768
3139.54698,0.09570
3141.47545,0.09180
3143.40391,0.09029
3145.33238,0.09269
3147.26085,0.09548
3149.18932,0.09627
3151.11779,0.09643
3153.04626,0.09767
3154.97473,0.09973
3156.90320,0.10008
3158.83166,0.09775
3160.76013,0.09404
3162.68860,0.09224
3164.61707,0.09468
3166.54554,0.09844
3168.47401,0.09944
3170.40248,0.09821
3172.33094,0.09869
3174.25941,0.10269
3176.18788,0.10744
3178.11635,0.10899
3180.04482,0.10582
3181.97329,0.09980
3183.90176,0.09564
3185.83022,0.09551
3187.75869,0.09708
3189.68716,0.09932
3191.61563,0.10147
3193.54410,0.10170
3195.47257,0.10011
3197.40104,0.09784
3199.32951,0.09579
3201.25797,0.09627
3203.18644,0.09903
3205.11491,0.09944
3207.04338,0.09756
3208.97185,0.09787
3210.90032,0.09970
3212.82879,0.09906
3214.75725,0.09582
3216.68572,0.09446
3218.61419,0.09785
3220.54266,0.10178
3222.47113,0.10093
3224.39960,0.09706
3226.32807,0.09575
3228.25654,0.09827
3230.18500,0.10186
3232.11347,0.10433
3234.04194,0.10483
3235.97041,0.10594
3237.89888,0.10928
3239.82735,0.11036
3241.75582,0.10646
3243.68428,0.10181
3245.61275,0.10188
3247.54122,0.10348
3249.46969,0.09972
3251.39816,0.09431
3253.32663,0.09592
3255.25510,0.10243
3257.18357,0.10720
3259.11203,0.10832
3261.04050,0.10484
3262.96897,0.10006
3264.89744,0.09947
3266.82591,0.10299
3268.75438,0.10527
3270.68285,0.10315
3272.61131,0.10067
3274.53978,0.10082
3276.46825,0.10244
3278.39672,0.10281
3280.32519,0.09932
3282.25366,0.09494
3284.18213,0.09437
3286.11060,0.09828
3288.03906,0.10268
3289.96753,0.10291
3291.89600,0.10240
3293.82447,0.10394
3295.75294,0.10249
3297.68141,0.09989
3299.60988,0.10026
3301.53834,0.09946
3303.46681,0.09710
3305.39528,0.09753
3307.32375,0.10017
3309.25222,0.10196
3311.18069,0.10123
3313.10916,0.09920
3315.03763,0.09876
3316.96609,0.09926
3318.89456,0.09954
3320.82303,0.10137
3322.75150,0.10336
3324.67997,0.10239
3326.60844,0.10138
3328.53691,0.10361
3330.46537,0.10610
3332.39384,0.10644
3334.32231,0.10474
3336.25078,0.10207
3338.17925,0.10113
3340.10772,0.10105
3342.03619,0.10086
3343.96466,0.10237
3345.89312,0.10402
3347.82159,0.10525
3349.75006,0.10530
3351.67853,0.10125
3353.60700,0.09736
3355.53547,0.09760
3357.46394,0.09866
3359.39240,0.09769
3361.32087,0.09611
3363.24934,0.09769
3365.17781,0.10140
3367.10628,0.10352
3369.03475,0.10423
3370.96322,0.10546
3372.89168,0.10726
3374.82015,0.10651
3376.74862,0.10352
3378.67709,0.10303
3380.60556,0.10461
3382.53403,0.10450
3384.46250,0.10191
3386.39097,0.09710
3388.31943,0.09222
3390.24790,0.09149
3392.17637,0.09450
3394.10484,0.09629
3396.03331,0.09693
3397.96178,0.09792
3399.89025,0.09462
3401.81871,0.08905
3403.74718,0.08994
3405.67565,0.09505
3407.60412,0.09593
3409.53259,0.09326
3411.46106,0.09253
3413.38953,0.09493
3415.31800,0.09896
3417.24646,0.10173
3419.17493,0.10261
3421.10340,0.10282
3423.03187,0.10019
3424.96034,0.09592
3426.88881,0.09467
3428.81728,0.09419
3430.74574,0.09320
3432.67421,0.09758
3434.60268,0.10377
3436.53115,0.10103
3438.45962,0.09140
3440.38809,0.08692
3442.31656,0.09093
3444.24503,0.09527
3446.17349,0.09618
3448.10196,0.09711
3450.03043,0.09964
3451.95890,0.10063
3453.88737,0.09721
3455.81584,0.09230
3457.74431,0.09151
3459.67277,0.09603
3461.60124,0.09937
3463.52971,0.09584
3465.45818,0.08974
3467.38665,0.08777
3469.31512,0.08975
3471.24359,0.09059
3473.17206,0.08898
3475.10052,0.08936
3477.02899,0.09285
3478.95746,0.09539
3480.88593,0.09577
3482.81440,0.09432
3484.74287,0.08989
3486.67134,0.08364
3488.59980,0.07989
3490.52827,0.08187
3492.45674,0.08643
3494.38521,0.08696
3496.31368,0.08413
3498.24215,0.08480
3500.17062,0.08928
3502.09909,0.09256
3504.02755,0.09144
3505.95602,0.08853
3507.88449,0.08869
3509.81296,0.08970
3511.74143,0.08713
3513.66990,0.08359
3515.59837,0.08127
3517.52683,0.07942
3519.45530,0.08010
3521.38377,0.08432
3523.31224,0.08816
3525.24071,0.08930
3527.16918,0.08906
3529.09765,0.08735
3531.02611,0.08405
3532.95458,0.08096
3534.88305,0.08027
3536.81152,0.08139
3538.73999,0.08160
3540.66846,0.08037
3542.59693,0.07768
3544.52540,0.07578
3546.45386,0.07670
3548.38233,0.07602
3550.31080,0.07394
3552.23927,0.07402
3554.16774,0.07403
3556.09621,0.07283
3558.02468,0.07254
3559.95314,0.07324
3561.88161,0.07477
3563.81008,0.07671
3565.73855,0.07743
3567.66702,0.07810
3569.59549,0.08071
3571.52396,0.08234
3573.45243,0.08090
3575.38089,0.07756
3577.30936,0.07401
3579.23783,0.07090
3581.16630,0.06834
3583.09477,0.06702
3585.02324,0.06961
3586.95171,0.07369
3588.88017,0.07232
3590.80864,0.07054
3592.73711,0.07205
3594.66558,0.07356
3596.59405,0.07514
3598.52252,0.07870
3600.45099,0.08061
3602.37946,0.07751
3604.30792,0.07264
3606.23639,0.07050
3608.16486,0.07234
3610.09333,0.07361
3612.02180,0.06970
3613.95027,0.06502
3615.87874,0.06591
3617.80720,0.06745
3619.73567,0.06343
3621.66414,0.06021
3623.59261,0.06293
3625.52108,0.06903
3627.44955,0.07604
3629.37802,0.07932
3631.30649,0.07543
3633.23495,0.07028
3635.16342,0.06643
3637.09189,0.06503
3639.02036,0.06639
3640.94883,0.06882
3642.87730,0.06953
3644.80577,0.06864
3646.73423,0.07033
3648.66270,0.07888
3650.59117,0.08243
3652.51964,0.07734
3654.44811,0.07465
3656.37658,0.07204
3658.30505,0.06658
3660.23352,0.06266
3662.16198,0.06082
3664.09045,0.05957
3666.01892,0.05936
3667.94739,0.06240
3669.87586,0.06555
3671.80433,0.06338
3673.73280,0.06303
3675.66126,0.06638
3677.58973,0.06721
3679.51820,0.06504
3681.44667,0.06270
3683.37514,0.06163
3685.30361,0.06067
3687.23208,0.06035
3689.16055,0.06222
3691.08901,0.06294
3693.01748,0.06343
3694.94595,0.06390
3696.87442,0.06085
3698.80289,0.05625
3700.73136,0.05418
3702.65983,0.05587
3704.58829,0.06108
3706.51676,0.06713
3708.44523,0.07148
3710.37370,0.07198
3712.30217,0.06645
3714.23064,0.06086
3716.15911,0.05924
3718.08757,0.05978
3720.01604,0.06009
3721.94451,0.05976
3723.87298,0.06087
3725.80145,0.06107
3727.72992,0.05906
3729.65839,0.06032
3731.58686,0.06700
3733.51532,0.07314
3735.44379,0.07136
3737.37226,0.06812
3739.30073,0.06591
3741.22920,0.06280
3743.15767,0.06429
3745.08614,0.07255
3747.01460,0.07479
3748.94307,0.07223
3750.87154,0.07181
3752.80001,0.07120
3754.72848,0.06766
3756.65695,0.06352
3758.58542,0.06105
3760.51389,0.05986
3762.44235,0.05779
3764.37082,0.05536
3766.29929,0.05421
3768.22776,0.05654
3770.15623,0.06101
3772.08470,0.06174
3774.01317,0.05860
3775.94163,0.05641
3777.87010,0.05851
3779.79857,0.06199
3781.72704,0.06174
3783.65551,0.06049
3785.58398,0.05971
3787.51245,0.05737
3789.44092,0.05539
3791.36938,0.05613
3793.29785,0.05851
3795.22632,0.05993
3797.15479,0.05836
3799.08326,0.05721
3801.01173,0.06182
3802.94020,0.06718
3804.86866,0.06672
3806.79713,0.06393
3808.72560,0.05916
3810.65407,0.05463
3812.58254,0.05399
3814.51101,0.05750
3816.43948,0.06315
3818.36795,0.06636
3820.29641,0.06656
3822.22488,0.06671
3824.15335,0.06672
3826.08182,0.06509
3828.01029,0.06257
3829.93876,0.06141
3831.86723,0.05985
3833.79569,0.05500
3835.72416,0.05157
3837.65263,0.05357
3839.58110,0.05606
3841.50957,0.05701
3843.43804,0.05720
3845.36651,0.05708
3847.29498,0.05903
3849.22344,0.06079
3851.15191,0.05874
3853.08038,0.05804
3855.00885,0.06495
3856.93732,0.06507
3858.86579,0.05849
3860.79426,0.05289
3862.72272,0.05456
3864.65119,0.05947
3866.57966,0.05900
3868.50813,0.05646
3870.43660,0.05361
3872.36507,0.05035
3874.29354,0.05215
3876.22200,0.05836
3878.15047,0.06255
3880.07894,0.06224
3882.00741,0.05782
3883.93588,0.05433
3885.86435,0.05539
3887.79282,0.05667
3889.72129,0.05422
3891.64975,0.05160
3893.57822,0.05265
3895.50669,0.05443
3897.43516,0.05539
3899.36363,0.05773
3901.29210,0.06120
3903.22057,0.06097
3905.14903,0.05433
3907.07750,0.04617
3909.00597,0.04285
3910.93444,0.04398
3912.86291,0.04643
3914.79138,0.05113
3916.71985,0.05704
3918.64832,0.05963
3920.57678,0.05986
3922.50525,0.05920
3924.43372,0.05728
3926.36219,0.05514
3928.29066,0.05443
3930.21913,0.05523
3932.14760,0.05488
3934.07606,0.05221
3936.00453,0.05050
3937.93300,0.05228
3939.86147,0.05659
3941.78994,0.05919
3943.71841,0.05679
3945.64688,0.05366
3947.57535,0.05362
3949.50381,0.05385
3951.43228,0.05296
3953.36075,0.05266
3955.28922,0.05268
3957.21769,0.05193
3959.14616,0.05078
3961.07463,0.05108
3963.00309,0.05333
3964.93156,0.05364
3966.86003,0.05093
3968.78850,0.05000
3970.71697,0.05200
3972.64544,0.05192
3974.57391,0.04732
3976.50238,0.04398
3978.43084,0.04551
3980.35931,0.04833
3982.28778,0.05038
3984.21625,0.05031
3986.14472,0.04731
3988.07319,0.04355
3990.00166,0.04182
3991.93012,0.04343
3993.85859,0.04618
3995.78706,0.04796
3997.71553,0.04811
3999.64400,0.04625
4001.57247,0.04548
4003.50094,0.04722
4005.42941,0.04794
4007.35787,0.04811
4009.28634,0.05057
4011.21481,0.05253
4013.14328,0.05167
4015.07175,0.05160
4017.00022,0.05304
4018.92869,0.05217
4020.85715,0.04996
4022.78562,0.04837
4024.71409,0.04715
4026.64256,0.04809
4028.57103,0.05206
4030.49950,0.05462
4032.42797,0.05089
4034.35644,0.04466
4036.28490,0.04090
4038.21337,0.03826
4040.14184,0.03742
4042.07031,0.04005
4043.99878,0.04302
4045.92725,0.04434
4047.85572,0.04570
4049.78418,0.04545
4051.71265,0.04311
4053.64112,0.04154
4055.56959,0.03864
4057.49806,0.03494
4059.42653,0.03800
4061.35500,0.04692
4063.28346,0.05109
4065.21193,0.04732
4067.14040,0.04170
4069.06887,0.03893
4070.99734,0.03980
4072.92581,0.04321
4074.85428,0.04544
4076.78275,0.04527
4078.71121,0.04534
4080.63968,0.04447
4082.56815,0.04249
4084.49662,0.04265
4086.42509,0.04320
4088.35356,0.04178
4090.28203,0.04069
4092.21049,0.04029
4094.13896,0.04014
4096.06743,0.04179
4097.99590,0.04283
4099.92437,0.04005
4101.85284,0.03622
4103.78131,0.03511
4105.70978,0.03601
4107.63824,0.03748
4109.56671,0.03852
4111.49518,0.03820
4113.42365,0.03847
4115.35212,0.04123
4117.28059,0.04550
4119.20906,0.04732
4121.13752,0.04444
4123.06599,0.04004
4124.99446,0.03596
4126.92293,0.03265
4128.85140,0.03231
4130.77987,0.03404
4132.70834,0.03504
4134.63681,0.03548
4136.56527,0.03607
4138.49374,0.03652
4140.42221,0.03783
4142.35068,0.04061
4144.27915,0.04201
4146.20762,0.03924
4148.13609,0.03577
4150.06455,0.03693
4151.99302,0.04056
4153.92149,0.04175
4155.84996,0.04228
4157.77843,0.04239
4159.70690,0.03881
4161.63537,0.03508
4163.56384,0.03409
4165.49230,0.03331
4167.42077,0.03196
4169.34924,0.03296
4171.27771,0.03763
4173.20618,0.04156
4175.13465,0.04214
4177.06312,0.03971
4178.99158,0.03645
4180.92005,0.03535
4182.84852,0.03495
4184.77699,0.03522
4186.70546,0.03597
4188.63393,0.03405
4190.56240,0.03164
4192.49087,0.03159
4194.41933,0.03404
4196.34780,0.03928
4198.27627,0.04327
4200.20474,0.04204
4202.13321,0.03885
4204.06168,0.03741
4205.99015,0.03701
4207.91861,0.03672
4209.84708,0.03681
4211.77555,0.03567
4213.70402,0.03139
4215.63249,0.02885
4217.56096,0.03278
4219.48943,0.03792
4221.41789,0.04095
4223.34636,0.04216
4225.27483,0.03918
4227.20330,0.03484
4229.13177,0.03339
4231.06024,0.03445
4232.98871,0.03492
4234.91718,0.03193
4236.84564,0.02762
4238.77411,0.02621
4240.70258,0.02796
4242.63105,0.02852
4244.55952,0.02756
4246.48799,0.02884
4248.41646,0.03326
4250.34492,0.03954
4252.27339,0.04264
4254.20186,0.04007
4256.13033,0.03463
4258.05880,0.02909
4259.98727,0.02761
4261.91574,0.03190
4263.84421,0.03812
4265.77267,0.04043
4267.70114,0.03836
4269.62961,0.03666
4271.55808,0.03551
4273.48655,0.03450
4275.41502,0.03432
4277.34349,0.03209
4279.27195,0.02784
4281.20042,0.02539
4283.12889,0.02421
4285.05736,0.01985
4286.98583,0.01450
4288.91430,0.01596
4290.84277,0.02277
4292.77124,0.02887
4294.69970,0.03132
4296.62817,0.02923
4298.55664,0.02964
4300.48511,0.03512
4302.41358,0.03639
4304.34205,0.02983
4306.27052,0.02161
4308.19898,0.01924
4310.12745,0.02162
4312.05592,0.02109
4313.98439,0.01656
4315.91286,0.01290
4317.84133,0.01364
4319.76980,0.01667
4321.69827,0.01848
4323.62673,0.02097
4325.55520,0.02573
4327.48367,0.02911
4329.41214,0.02873
4331.34061,0.02773
4333.26908,0.02742
4335.19755,0.02529
4337.12601,0.02214
4339.05448,0.01989
4340.98295,0.01813
4342.91142,0.01928
4344.83989,0.02456
4346.76836,0.02821
4348.69683,0.02599
4350.62530,0.02184
4352.55376,0.02196
4354.48223,0.02476
4356.41070,0.02496
4358.33917,0.02325
4360.26764,0.02119
4362.19611,0.01911
4364.12458,0.01897
4366.05304,0.02151
4367.98151,0.02530
4369.90998,0.02748
4371.83845,0.02621
4373.76692,0.02469
4375.69539,0.02551
4377.62386,0.02489
4379.55232,0.01869
4381.48079,0.01013
4383.40926,0.00745
4385.33773,0.01077
4387.26620,0.01269
4389.19467,0.01277
4391.12314,0.01277
4393.05161,0.01136
4394.98007,0.01234
4396.90854,0.01691
4398.83701,0.02074
4400.76548,0.02237
4402.69395,0.01937
4404.62242,0.01334
4406.55089,0.01024
4408.47935,0.01210
4410.40782,0.01741
4412.33629,0.01919
4414.26476,0.01596
4416.19323,0.01625
4418.12170,0.02173
4420.05017,0.02562
4421.97864,0.02486
4423.90710,0.02133
4425.83557,0.01603
4427.76404,0.01037
4429.69251,0.00856
4431.62098,0.00995
4433.54945,0.01038
4435.47792,0.01244
4437.40638,0.01532
4439.33485,0.01284
4441.26332,0.00626
4443.19179,0.00105
4445.12026,0.00108
4447.04873,0.00339
4448.97720,0.00373
4450.90567,0.00398
4452.83413,0.00513
4454.76260,0.00762
4456.69107,0.00971
4458.61954,0.00814
4460.54801,0.00732
4462.47648,0.01019
4464.40495,0.01144
4466.33341,0.00841
4468.26188,0.00357
4470.19035,0.00353
4472.11882,0.01037
4474.04729,0.01438
4475.97576,0.01249
4477.90423,0.01149
4479.83270,0.01155
4481.76116,0.01157
4483.68963,0.01320
4485.61810,0.01413
4487.54657,0.01360
4489.47504,0.01282
4491.40351,0.01037
4493.33198,0.00987
4495.26044,0.01579
4497.18891,0.02005
4499.11738,0.01464
4501.04585,0.00693
4502.97432,0.00426
4504.90279,0.00479
4506.83126,0.00495
4508.75973,0.00313
4510.68819,0.00179
4512.61666,0.00227
4514.54513,0.00311
4516.47360,0.00326
4518.40207,0.00196
4520.33054,0.00101
4522.25901,0.00137
4524.18747,0.00203
4526.11594,0.00597
4528.04441,0.01377
4529.97288,0.01946
4531.90135,0.02085
4533.82982,0.01940
4535.75829,0.01640
4537.68676,0.01370
4539.61522,0.01195
4541.54369,0.00972
4543.47216,0.00510
4545.40063,0.00186
4547.32910,0.00321
4549.25757,0.00689
4551.18604,0.01013
4553.11450,0.00903
4555.04297,0.00458
4556.97144,0.00192
4558.89991,0.00233
4560.82838,0.00612
4562.75685,0.01071
4564.68532,0.00856
4566.61378,0.00282
4568.54225,0.00397
4570.47072,0.00861
4572.39919,0.00910
4574.32766,0.00628
4576.25613,0.00412
4578.18460,0.00322
4580.11307,0.00184
4582.04153,0.00065
4583.97000,0.00087
4585.89847,0.00538
4587.82694,0.01319
4589.75541,0.01645
4591.68388,0.01370
4593.61235,0.01099
4595.54081,0.01077
4597.46928,0.00718
4599.39775,0.00036
4601.32622,0.00132
4603.25469,0.01082
4605.18316,0.01582
4607.11163,0.00962
4609.04010,0.00187
4610.96856,0.00170
4612.89703,0.00648
4614.82550,0.01151
4616.75397,0.01310
4618.68244,0.01041
4620.61091,0.00822
4622.53938,0.00783
4624.46784,0.00843
4626.39631,0.00955
4628.32478,0.00978
4630.25325,0.01363
4632.18172,0.02056
4634.11019,0.02089
4636.03866,0.01432
4637.96713,0.00618
4639.89559,-0.00336
4641.82406,-0.01029
4643.75253,-0.00594
4645.68100,0.00677
4647.60947,0.01407
4649.53794,0.00980
4651.46641,0.00038
4653.39487,-0.00569
4655.32334,-0.00632
4657.25181,-0.00339
4659.18028,0.00094
4661.10875,0.00440
4663.03722,0.00665
4664.96569,0.00569
4666.89416,-0.00107
4668.82262,-0.00723
4670.75109,-0.00410
4672.67956,0.00308
4674.60803,0.00858
4676.53650,0.01209
4678.46497,0.00967
4680.39344,0.00472
4682.32190,0.00494
4684.25037,0.00696
4686.17884,0.00475
4688.10731,0.00165
4690.03578,0.00191
4691.96425,0.00327
4693.89272,0.00239
4695.82119,-0.00084
4697.74965,-0.00218
4699.67812,0.00021
4701.60659,0.00260
4703.53506,0.00155
4705.46353,-0.00259
4707.39200,-0.00496
4709.32047,-0.00095
4711.24893,0.00885
4713.17740,0.01392
4715.10587,0.00592
4717.03434,-0.00215
4718.96281,0.00236
4720.89128,0.01007
4722.81975,0.01146
4724.74821,0.00992
4726.67668,0.00793
4728.60515,0.00360
4730.53362,0.00116
4732.46209,0.00356
4734.39056,0.00542
4736.31903,0.00565
4738.24750,0.00457
4740.17596,-0.00008
4742.10443,-0.00408
4744.03290,-0.00314
4745.96137,0.00057
4747.88984,0.00167
4749.81831,-0.00136
4751.74678,-0.00123
4753.67524,0.00617
4755.60371,0.01173
4757.53218,0.00817
4759.46065,0.00429
4761.38912,0.00758
4763.31759,0.01093
4765.24606,0.01145
4767.17453,0.01422
4769.10299,0.01676
4771.03146,0.01436
4772.95993,0.00783
4774.88840,0.00113
4776.81687,0.00228
4778.74534,0.00941
4780.67381,0.01141
4782.60227,0.00887
4784.53074,0.00599
4786.45921,0.00371
4788.38768,0.00304
4790.31615,0.00097
4792.24462,-0.00217
4794.17309,-0.00249
4796.10156,-0.00041
4798.03002,-0.00213
4799.95849,-0.00776
4801.88696,-0.00931
4803.81543,-0.00575
4805.74390,0.00106
4807.67237,0.00783
4809.60084,0.00586
4811.52930,-0.00066
4813.45777,-0.00073
4815.38624,0.00367
4817.31471,0.00624
4819.24318,0.00294
4821.17165,-0.00430
4823.10012,-0.00634
4825.02859,-0.00265
4826.95705,0.00112
4828.88552,0.00291
4830.81399,0.00088
4832.74246,-0.00424
4834.67093,-0.01138
4836.59940,-0.01805
4838.52787,-0.01642
4840.45633,-0.00676
4842.38480,-0.00129
4844.31327,-0.00457
4846.24174,-0.00770
4848.17021,-0.00282
4850.09868,0.00528
4852.02715,0.01005
4853.95562,0.01002
4855.88408,0.00767
4857.81255,0.01181
4859.74102,0.02303
4861.66949,0.02658
4863.59796,0.01700
4865.52643,0.00552
4867.45490,0.00145
4869.38336,0.00359
4871.31183,0.00733
4873.24030,0.00718
4875.16877,0.00197
4877.09724,-0.00050
4879.02571,0.00320
4880.95418,0.00741
4882.88265,0.00458
4884.81111,-0.00311
4886.73958,-0.00699
4888.66805,-0.00516
4890.59652,0.00290
4892.52499,0.01247
4894.45346,0.00767
4896.38193,-0.00713
4898.31039,-0.00569
4900.23886,0.01114
4902.16733,0.02059
4904.09580,0.02056
4906.02427,0.01939
4907.95274,0.01507
4909.88121,0.00685
4911.80967,0.00299
4913.73814,0.00541
4915.66661,0.00472
4917.59508,0.00203
4919.52355,0.00307
4921.45202,0.00165
4923.38049,-0.00043
4925.30896,0.00376
4927.23742,0.00849
4929.16589,0.01102
4931.09436,0.01559
4933.02283,0.01602
4934.95130,0.00821
4936.87977,0.00600
4938.80824,0.01161
4940.73670,0.01070
4942.66517,0.00561
4944.59364,0.00868
4946.52211,0.01795
4948.45058,0.02104
4950.37905,0.01327
4952.30752,0.00256
4954.23599,-0.00271
4956.16445,0.00017
4958.09292,0.00456
4960.02139,0.00046
4961.94986,-0.00373
4963.87833,0.00184
4965.80680,0.00331
4967.73527,-0.00816
4969.66373,-0.01474
4971.59220,-0.00339
4973.52067,0.01024
4975.44914,0.01319
4977.37761,0.01304
4979.30608,0.00971
4981.23455,0.00166
4983.16302,0.00364
4985.09148,0.01785
4987.01995,0.02613
4988.94842,0.01981
4990.87689,0.00775
4992.80536,0.00165
4994.73383,0.00743
4996.66230,0.01530
4998.59076,0.00789
5000.51923,-0.00808
5002.44770,-0.01581
5004.37617,-0.01436
5006.30464,-0.00814
5008.23311,0.00038
5010.16158,0.00625
5012.09005,0.00879
5014.01851,0.01410
5015.94698,0.02157
5017.87545,0.02548
5019.80392,0.02462
5021.73239,0.01898
5023.66086,0.00802
5025.58933,-0.00492
5027.51779,-0.00887
5029.44626,-0.00089
5031.37473,0.00620
5033.30320,0.00569
5035.23167,0.00427
5037.16014,0.00977
5039.08861,0.01951
5041.01708,0.01944
5042.94554,0.01259
5044.87401,0.01415
5046.80248,0.02149
5048.73095,0.02625
5050.65942,0.02267
5052.58789,0.01207
5054.51636,0.00534
5056.44482,0.00371
5058.37329,0.00133
5060.30176,0.00322
5062.23023,0.01657
5064.15870,0.03027
5066.08717,0.03106
5068.01564,0.02132
5069.94410,0.01292
5071.87257,0.01115
5073.80104,0.00956
5075.72951,0.00606
5077.65798,0.00402
5079.58645,0.00511
5081.51492,0.00544
5083.44339,0.00355
5085.37185,0.00881
5087.30032,0.01869
5089.22879,0.02046
5091.15726,0.01631
5093.08573,0.01353
5095.01420,0.01544
5096.94267,0.01822
5098.87113,0.00850
5100.79960,-0.00295
5102.72807,0.00307
5104.65654,0.01159
5106.58501,0.01048
5108.51348,0.00973
5110.44195,0.01365
5112.37042,0.01668
5114.29888,0.01575
5116.22735,0.01496
5118.15582,0.01532
5120.08429,0.01363
5122.01276,0.01266
5123.94123,0.01500
5125.86970,0.01830
5127.79816,0.01950
5129.72663,0.01765
5131.65510,0.01344
5133.58357,0.00605
5135.51204,0.00352
5137.44051,0.00977
5139.36898,0.01016
5141.29745,0.00893
5143.22591,0.01890
5145.15438,0.02599
5147.08285,0.02033
5149.01132,0.01242
5150.93979,0.01412
5152.86826,0.02194
5154.79673,0.02198
5156.72519,0.01849
5158.65366,0.02150
5160.58213,0.03045
5162.51060,0.04460
5164.43907,0.04975
5166.36754,0.03923
5168.29601,0.02848
5170.22448,0.02363
5172.15294,0.02296
5174.08141,0.02410
5176.00988,0.02203
5177.93835,0.01593
5179.86682,0.01136
5181.79529,0.01609
5183.72376,0.02300
5185.65222,0.01884
5187.58069,0.01468
5189.50916,0.02079
5191.43763,0.02656
5193.36610,0.02540
5195.29457,0.02009
5197.22304,0.01552
5199.15151,0.01185
5201.07997,0.00609
5203.00844,0.00447
5204.93691,0.00750
5206.86538,0.00842
5208.79385,0.01662
5210.72232,0.03122
5212.65079,0.03608
5214.57925,0.03170
5216.50772,0.02753
5218.43619,0.02701
5220.36466,0.02792
5222.29313,0.02664
5224.22160,0.02262
5226.15007,0.01997
5228.07854,0.02217
5230.00700,0.02437
5231.93547,0.02206
5233.86394,0.01766
5235.79241,0.01987
5237.72088,0.02881
5239.64935,0.03092
5241.57782,0.02573
5243.50628,0.02018
5245.43475,0.01090
5247.36322,0.00468
5249.29169,0.01134
5251.22016,0.02383
5253.14863,0.03611
5255.07710,0.04404
5257.00556,0.04352
5258.93403,0.03826
5260.86250,0.02959
5262.79097,0.02121
5264.71944,0.01940
5266.64791,0.01720
5268.57638,0.00745
5270.50485,-0.00100
5272.43331,0.00121
5274.36178,0.01120
5276.29025,0.02467
5278.21872,0.03392
5280.14719,0.03061
5282.07566,0.02289
5284.00413,0.02506
5285.93259,0.03396
5287.86106,0.02778
5289.78953,0.01209
5291.71800,0.01823
5293.64647,0.03083
5295.57494,0.03215
5297.50341,0.03814
5299.43188,0.04671
5301.36034,0.04205
5303.28881,0.02712
5305.21728,0.01663
5307.14575,0.01241
5309.07422,0.01250
5311.00269,0.01650
5312.93116,0.02282
5314.85962,0.02341
5316.78809,0.00651
5318.71656,-0.00420
5320.64503,0.00509
5322.57350,0.01544
5324.50197,0.02866
5326.43044,0.04174
5328.35891,0.03750
5330.28737,0.02385
5332.21584,0.01699
5334.14431,0.01915
5336.07278,0.02504
5338.00125,0.02701
5339.92972,0.02552
5341.85819,0.02751
5343.78665,0.02350
5345.71512,0.01238
5347.64359,0.00537
5349.57206,0.00105
5351.50053,0.00437
5353.42900,0.01949
5355.35747,0.03118
5357.28594,0.02030
5359.21440,0.00086
5361.14287,-0.00035
5363.07134,0.00863
5364.99981,0.00943
5366.92828,0.00696
5368.85675,0.01144
5370.78522,0.02556
5372.71368,0.03455
5374.64215,0.02355
5376.57062,0.00606
5378.49909,0.00103
5380.42756,0.00754
5382.35603,0.01665
5384.28450,0.01661
5386.21297,0.01327
5388.14143,0.02833
5390.06990,0.04895
5391.99837,0.04759
5393.92684,0.03343
5395.85531,0.02901
5397.78378,0.02885
5399.71225,0.03068
5401.64071,0.03062
5403.56918,0.02509
5405.49765,0.02487
5407.42612,0.02918
5409.35459,0.02523
5411.28306,0.01606
5413.21153,0.01527
5415.13999,0.02226
5417.06846,0.02952
5418.99693,0.03192
5420.92540,0.02995
5422.85387,0.02578
5424.78234,0.01705
5426.71081,0.01163
5428.63928,0.01854
5430.56774,0.03251
5432.49621,0.04615
5434.42468,0.05598
5436.35315,0.05848
5438.28162,0.05421
5440.21009,0.04755
5442.13856,0.04283
5444.06702,0.04482
5445.99549,0.05302
5447.92396,0.05357
5449.85243,0.05083
5451.78090,0.06381
5453.70937,0.07811
5455.63784,0.07395
5457.56631,0.06482
5459.49477,0.07012
5461.42324,0.07390
5463.35171,0.06220
5465.28018,0.04942
5467.20865,0.04184
5469.13712,0.03737
5471.06559,0.03349
5472.99405,0.02561
5474.92252,0.01444
5476.85099,0.01081
5478.77946,0.03023
5480.70793,0.05616
5482.63640,0.06359
5484.56487,0.05677
5486.49334,0.04644
5488.42180,0.04018
5490.35027,0.03670
5492.27874,0.02697
5494.20721,0.02179
5496.13568,0.03085
5498.06415,0.04080
5499.99262,0.03906
5501.92108,0.02458
5503.84955,0.01034
5505.77802,0.01272
5507.70649,0.02404
5509.63496,0.03296
5511.56343,0.04487
5513.49190,0.04933
5515.42037,0.03524
5517.34883,0.01984
5519.27730,0.01574
5521.20577,0.01426
5523.13424,0.01644
5525.06271,0.02659
5526.99118,0.03560
5528.91965,0.03879
5530.84811,0.03234
5532.77658,0.02459
5534.70505,0.03033
5536.63352,0.03587
5538.56199,0.03163
5540.49046,0.03046
5542.41893,0.03627
5544.34740,0.04318
5546.27586,0.03995
5548.20433,0.02870
5550.13280,0.03045
5552.06127,0.04989
5553.98974,0.06606
5555.91821,0.06328
5557.84668,0.05525
5559.77514,0.05692
5561.70361,0.06248
5563.63208,0.06140
5565.56055,0.05494
5567.48902,0.04498
5569.41749,0.02370
5571.34596,0.00967
5573.27443,0.01918
5575.20289,0.02393
5577.13136,0.01885
5579.05983,0.02755
5580.98830,0.04385
5582.91677,0.04884
5584.84524,0.04967
5586.77371,0.05883
5588.70217,0.06088
5590.63064,0.04573
5592.55911,0.03640
5594.48758,0.04836
5596.41605,0.06593
5598.34452,0.06212
5600.27299,0.03263
5602.20145,0.00976
5604.12992,0.01744
5606.05839,0.02791
5607.98686,0.02238
5609.91533,0.02177
5611.84380,0.02525
5613.77227,0.02094
5615.70074,0.01766
5617.62920,0.02185
5619.55767,0.02467
5621.48614,0.02400
5623.41461,0.03741
5625.34308,0.05708
5627.27155,0.05840
5629.20002,0.05173
5631.12848,0.04704
5633.05695,0.03980
5634.98542,0.04417
5636.91389,0.06134
5638.84236,0.06101
5640.77083,0.03938
5642.69930,0.02786
5644.62777,0.03470
5646.55623,0.03788
5648.48470,0.03554
5650.41317,0.04307
5652.34164,0.05435
5654.27011,0.06108
5656.19858,0.06702
5658.12705,0.07021
5660.05551,0.06720
5661.98398,0.05824
5663.91245,0.04344
5665.84092,0.03153
5667.76939,0.02893
5669.69786,0.02864
5671.62633,0.02584
5673.55480,0.02447
5675.48326,0.02649
5677.41173,0.02932
5679.34020,0.03390
5681.26867,0.04692
5683.19714,0.08002
5685.12561,0.11963
5687.05408,0.12974
5688.98254,0.10840
5690.91101,0.07843
5692.83948,0.05019
5694.76795,0.03856
5696.69642,0.04747
5698.62489,0.05097
5700.55336,0.04394
5702.48183,0.04016
5704.41029,0.03218
5706.33876,0.01610
5708.26723,0.00075
5710.19570,-0.00604
5712.12417,-0.00537
5714.05264,-0.00153
5715.98111,0.00483
5717.90957,0.01323
5719.83804,0.02983
5721.76651,0.05657
5723.69498,0.08594
5725.62345,0.10196
5727.55192,0.08729
5729.48039,0.05931
5731.40886,0.05089
5733.33732,0.05631
5735.26579,0.05662
5737.19426,0.04972
5739.12273,0.03412
5741.05120,0.01017
5742.97967,-0.00547
5744.90814,-0.00352
5746.83660,0.01531
5748.76507,0.05646
5750.69354,0.10256
5752.62201,0.11204
5754.55048,0.08758
5756.47895,0.05955
5758.40742,0.04827
5760.33588,0.05678
5762.26435,0.05690
5764.19282,0.04159
5766.12129,0.04050
5768.04976,0.04387
5769.97823,0.03380
5771.90670,0.02600
5773.83517,0.01474
5775.76363,-0.00351
5777.69210,-0.00183
5779.62057,0.01806
5781.54904,0.04148
5783.47751,0.06536
5785.40598,0.06410
5787.33445,0.03730
5789.26291,0.02841
5791.19138,0.05088
5793.11985,0.08278
5795.04832,0.09132
5796.97679,0.06941
5798.90526,0.04361
5800.83373,0.02176
5802.76220,0.00699
5804.69066,0.00691
5806.61913,0.01575
5808.54760,0.02615
5810.47607,0.02164
5812.40454,0.00441
5814.33301,0.01380
5816.26148,0.04154
5818.18994,0.04814
5820.11841,0.05263
5822.04688,0.06048
5823.97535,0.04206
5825.90382,0.02875
5827.83229,0.04753
5829.76076,0.05991
5831.68923,0.04381
5833.61769,0.02667
5835.54616,0.02838
5837.47463,0.03464
5839.40310,0.03624
5841.33157,0.04219
5843.26004,0.04130
5845.18851,0.04070
5847.11697,0.06765
5849.04544,0.10211
5850.97391,0.10496
5852.90238,0.08827
5854.83085,0.07934
5856.75932,0.06588
5858.68779,0.04656
5860.61626,0.04458
5862.54472,0.04187
5864.47319,0.02154
5866.40166,0.00631
5868.33013,0.01112
5870.25860,0.03714
5872.18707,0.06926
5874.11554,0.06641
5876.04400,0.02859
5877.97247,0.00961
5879.90094,0.02834
5881.82941,0.05384
5883.75788,0.04484
5885.68635,0.01827
5887.61482,0.01756
5889.54329,0.02460
5891.47175,0.02566
5893.40022,0.04355
5895.32869,0.06495
5897.25716,0.06685
5899.18563,0.06236
5901.11410,0.05993
5903.04257,0.05557
5904.97103,0.05225
5906.89950,0.04929
5908.82797,0.04938
5910.75644,0.05236
5912.68491,0.04635
5914.61338,0.03480
5916.54185,0.03875
5918.47032,0.05652
5920.39878,0.06101
5922.32725,0.05108
5924.25572,0.05168
5926.18419,0.06223
5928.11266,0.06684
5930.04113,0.05599
5931.96960,0.02920
5933.89806,0.01830
5935.82653,0.04387
5937.75500,0.06486
5939.68347,0.05061
5941.61194,0.02921
5943.54041,0.02486
5945.46888,0.02624
5947.39734,0.03818
5949.32581,0.05392
5951.25428,0.04525
5953.18275,0.02821
5955.11122,0.01377
5957.03969,-0.00149
5958.96816,0.01705
5960.89663,0.05671
5962.82509,0.06698
5964.75356,0.06388
5966.68203,0.06895
5968.61050,0.07563
5970.53897,0.07543
5972.46744,0.05990
5974.39591,0.03734
5976.32437,0.02802
5978.25284,0.03038
5980.18131,0.03347
5982.10978,0.03946
5984.03825,0.04221
5985.96672,0.02836
5987.89519,0.00382
5989.82366,-0.00693
5991.75212,0.00918
5993.68059,0.02751
5995.60906,0.02559
5997.53753,0.01366
5999.46600,0.01166
6001.39447,0.03909
6003.32294,0.07850
6005.25140,0.07430
6007.17987,0.03703
6009.10834,0.03186
6011.03681,0.06489
6012.96528,0.09922
6014.89375,0.11120
6016.82222,0.09416
6018.75069,0.05562
6020.67915,0.01405
6022.60762,-0.00077
6024.53609,0.01981
6026.46456,0.03620
6028.39303,0.02355
6030.32150,0.00790
6032.24997,0.00533
6034.17843,0.00751
6036.10690,0.01963
6038.03537,0.04140
6039.96384,0.05761
6041.89231,0.06326
6043.82078,0.05428
6045.74925,0.02829
6047.67772,-0.00504
6049.60618,-0.03623
6051.53465,-0.05315
6053.46312,-0.03304
6055.39159,0.01982
6057.32006,0.04417
6059.24853,0.00955
6061.17700,-0.01653
6063.10546,0.01335
6065.03393,0.03656
6066.96240,0.02694
6068.89087,0.02877
6070.81934,0.03934
6072.74781,0.02994
6074.67628,0.01710
6076.60475,0.03494
6078.53321,0.06709
6080.46168,0.07501
6082.39015,0.06469
6084.31862,0.05241
6086.24709,0.04303
6088.17556,0.03980
6090.10403,0.03480
6092.03249,0.02351
6093.96096,0.00646
6095.88943,-0.01438
6097.81790,-0.02341
6099.74637,0.00254
6101.67484,0.05166
6103.60331,0.07494
6105.53177,0.05153
6107.46024,0.01423
6109.38871,0.02527
6111.31718,0.07390
6113.24565,0.07395
6115.17412,0.01460
6117.10259,-0.03735
6119.03106,-0.01849
6120.95952,0.05441
6122.88799,0.09325
6124.81646,0.07167
6126.74493,0.04306
6128.67340,0.04130
6130.60187,0.04586
6132.53034,0.04938
6134.45880,0.05386
6136.38727,0.04947
6138.31574,0.02771
6140.24421,-0.01003
6142.17268,-0.03226
6144.10115,-0.01283
6146.02962,0.02464
6147.95809,0.04302
6149.88655,0.03497
6151.81502,0.02880
6153.74349,0.02970
6155.67196,0.01550
6157.60043,-0.01453
6159.52890,-0.05341
6161.45737,-0.06236
6163.38583,-0.01024
6165.31430,0.05203
6167.24277,0.08124
6169.17124,0.09595
6171.09971,0.09245
6173.02818,0.06135
6174.95665,0.03331
6176.88512,0.02303
6178.81358,0.01167
6180.74205,-0.02000
6182.67052,-0.04562
6184.59899,-0.02965
6186.52746,-0.00149
6188.45593,0.01243
6190.38440,0.03711
6192.31286,0.07256
6194.24133,0.09070
6196.16980,0.08284
6198.09827,0.06158
6200.02674,0.04643
6201.95521,0.05303
6203.88368,0.06626
6205.81215,0.05226
6207.74061,0.02919
6209.66908,0.03961
6211.59755,0.05381
6213.52602,0.03055
6215.45449,0.02549
6217.38296,0.06408
6219.31143,0.08514
6221.23989,0.06936
6223.16836,0.05068
6225.09683,0.04500
6227.02530,0.04584
6228.95377,0.05674
6230.88224,0.07039
6232.81071,0.08096
6234.73918,0.09121
6236.66764,0.08649
6238.59611,0.06786
6240.52458,0.04315
6242.45305,0.03642
6244.38152,0.06991
6246.30999,0.10829
6248.23846,0.12655
6250.16692,0.11816
6252.09539,0.07508
6254.02386,0.03019
6255.95233,0.02072
6257.88080,0.04127
6259.80927,0.04928
6261.73774,0.03828
6263.66621,0.05350
6265.59467,0.09368
6267.52314,0.08449
6269.45161,0.02895
6271.38008,0.01025
6273.30855,0.05495
6275.23702,0.09771
6277.16549,0.09114
6279.09395,0.07383
6281.02242,0.06591
6282.95089,0.05487
6284.87936,0.04670
6286.80783,0.05428
6288.73630,0.06650
6290.66477,0.06452
6292.59323,0.04892
6294.52170,0.04222
6296.45017,0.05507
6298.37864,0.05297
6300.30711,0.00787
6302.23558,-0.04942
6304.16405,-0.06130
6306.09252,-0.01972
6308.02098,0.04034
6309.94945,0.07753
6311.87792,0.06808
6313.80639,0.02554
6315.73486,-0.00635
6317.66333,0.00194
6319.59180,0.01432
6321.52026,0.01231
6323.44873,0.03225
6325.37720,0.02801
6327.30567,-0.01387
6329.23414,0.00506
6331.16261,0.08154
6333.09108,0.09393
6335.01955,0.03666
6336.94801,0.00778
6338.87648,0.02024
6340.80495,0.03251
6342.73342,0.04137
6344.66189,0.03483
6346.59036,0.02804
6348.51883,0.05269
6350.44729,0.07040
6352.37576,0.06397
6354.30423,0.04360
6356.23270,0.01060
6358.16117,-0.00124
6360.08964,0.01015
6362.01811,0.01010
6363.94658,0.01627
6365.87504,0.04502
6367.80351,0.03610
6369.73198,-0.01112
6371.66045,-0.01038
6373.58892,0.03893
6375.51739,0.06083
6377.44586,0.02855
6379.37432,-0.01330
6381.30279,-0.01219
6383.23126,0.01025
6385.15973,0.01090
6387.08820,0.01964
6389.01667,0.03353
6390.94514,0.00558
6392.87361,-0.03954
6394.80207,-0.03499
6396.73054,0.00887
6398.65901,0.04103
6400.58748,0.02545
6402.51595,-0.02288
6404.44442,-0.05146
6406.37289,-0.03149
6408.30135,0.02681
6410.22982,0.08231
6412.15829,0.09648
6414.08676,0.07672
6416.01523,0.06461
6417.94370,0.08647
6419.87217,0.12863
6421.80064,0.13793
6423.72910,0.10896
6425.65757,0.07924
6427.58604,0.06066
6429.51451,0.04679
6431.44298,0.02125
6433.37145,-0.01885
6435.29992,-0.04695
6437.22838,-0.02447
6439.15685,0.03830
6441.08532,0.05507
6443.01379,0.02359
6444.94226,0.02238
6446.87073,0.04561
6448.79920,0.06783
6450.72766,0.11399
6452.65613,0.14809
6454.58460,0.12996
6456.51307,0.10980
6458.44154,0.11747
6460.37001,0.10957
6462.29848,0.09027
6464.22695,0.09918
6466.15541,0.10563
6468.08388,0.06765
6470.01235,0.01718
6471.94082,-0.01130
6473.86929,-0.04710
6475.79776,-0.07109
6477.72623,-0.03854
6479.65469,0.00967
6481.58316,0.03044
6483.51163,0.03199
6485.44010,0.03917
6487.36857,0.04867
6489.29704,0.05867
6491.22551,0.08711
6493.15398,0.12070
6495.08244,0.12852
6497.01091,0.11279
6498.93938,0.10588
6500.86785,0.09875
6502.79632,0.04627
6504.72479,-0.01101
6506.65326,-0.02597
6508.58172,-0.01861
6510.51019,-0.01093
6512.43866,0.01145
6514.36713,0.06476
6516.29560,0.12434
6518.22407,0.15281
6520.15254,0.13625
6522.08101,0.09833
6524.00947,0.07192
6525.93794,0.03493
6527.86641,-0.02057
6529.79488,-0.04626
6531.72335,-0.03353
6533.65182,-0.01546
6535.58029,-0.00108
6537.50875,0.01349
6539.43722,-0.00406
6541.36569,-0.03363
6543.29416,-0.00297
6545.22263,0.06138
6547.15110,0.08843
6549.07957,0.09001
6551.00804,0.11132
6552.93650,0.11950
6554.86497,0.06704
6556.79344,0.02695
6558.72191,0.04810
6560.65038,0.07575
6562.57885,0.08659
6564.50732,0.08106
6566.43578,0.06333
6568.36425,0.05233
6570.29272,0.05287
6572.22119,0.07366
6574.14966,0.08120
6576.07813,0.07698
6578.00660,0.10991
6579.93507,0.14038
6581.86353,0.10452
6583.79200,0.03429
6585.72047,0.02251
6587.64894,0.06868
6589.57741,0.07688
6591.50588,0.03102
6593.43435,0.00651
6595.36281,0.01083
6597.29128,0.00006
6599.21975,-0.01355
6601.14822,-0.01361
6603.07669,-0.00741
6605.00516,0.00361
6606.93363,0.03144
6608.86210,0.06895
6610.79056,0.06925
6612.71903,0.00215
6614.64750,-0.05189
6616.57597,-0.01255
6618.50444,0.06138
6620.43291,0.10049
6622.36138,0.11201
6624.28984,0.10406
6626.21831,0.06752
6628.14678,0.01603
6630.07525,-0.00384
6632.00372,0.02510
6633.93219,0.05052
6635.86066,0.04473
6637.78912,0.05293
6639.71759,0.05059
6641.64606,0.02428
6643.57453,0.02738
6645.50300,0.03967
6647.43147,0.05288
6649.35994,0.08638
6651.28841,0.08291
6653.21687,0.05745
6655.14534,0.08169
6657.07381,0.09907
6659.00228,0.06560
6660.93075,0.06152
6662.85922,0.08558
6664.78769,0.07750
6666.71615,0.03827
6668.64462,0.02471
6670.57309,0.03350
6672.50156,0.03572
6674.43003,0.05868
6676.35850,0.06563
6678.28697,0.03419
6680.21544,0.01468
6682.14390,0.00926
6684.07237,0.02787
6686.00084,0.09648
6687.92931,0.16206
6689.85778,0.15672
6691.78625,0.11723
6693.71472,0.11437
6695.64318,0.12183
6697.57165,0.07369
6699.50012,0.00199
6701.42859,-0.04507
6703.35706,-0.03990
6705.28553,0.03319
6707.21400,0.08788
6709.14247,0.05612
6711.07093,-0.00264
6712.99940,-0.03874
6714.92787,-0.02920
6716.85634,0.01534
6718.78481,0.04736
6720.71328,0.05807
6722.64175,0.04153
6724.57021,0.02097
6726.49868,0.04096
6728.42715,0.05457
6730.35562,0.00592
6732.28409,-0.04285
6734.21256,-0.02927
6736.14103,0.00801
6738.06950,0.03679
6739.99796,0.06162
6741.92643,0.08291
6743.85490,0.09307
6745.78337,0.08722
6747.71184,0.07260
6749.64031,0.03860
6751.56878,0.00056
6753.49724,0.00013
6755.42571,0.02564
6757.35418,0.04180
6759.28265,0.02570
6761.21112,0.00043
6763.13959,0.02443
6765.06806,0.05999
6766.99653,0.05161
6768.92499,0.02433
6770.85346,0.03580
6772.78193,0.10915
6774.71040,0.16773
6776.63887,0.11386
6778.56734,0.02186
6780.49581,0.00116
6782.42427,0.04021
6784.35274,0.08619
6786.28121,0.11158
6788.20968,0.10271
6790.13815,0.06095
6792.06662,0.00515
6793.99509,0.00016
6795.92355,0.07002
6797.85202,0.12674
6799.78049,0.12716
6801.70896,0.07138
6803.63743,-0.01129
6805.56590,-0.01918
6807.49437,0.04249
6809.42284,0.10418
6811.35130,0.13859
6813.27977,0.12948
6815.20824,0.08839
6817.13671,0.03114
6819.06518,-0.01345
6820.99365,-0.00698
6822.92212,0.03072
6824.85058,0.02510
6826.77905,0.01744
6828.70752,0.06190
6830.63599,0.10443
6832.56446,0.10255
6834.49293,0.07145
6836.42140,0.03455
6838.34987,0.04929
6840.27833,0.12063
6842.20680,0.15375
6844.13527,0.10202
6846.06374,0.04209
6847.99221,0.04037
6849.92068,0.05030
6851.84915,0.01492
6853.77761,-0.01413
6855.70608,-0.02140
6857.63455,-0.06388
6859.56302,-0.10544
6861.49149,-0.10095
6863.41996,-0.08606
6865.34843,-0.07781
6867.27690,-0.05000
6869.20536,0.00737
6871.13383,0.05921
6873.06230,0.06844
6874.99077,0.06490
6876.91924,0.07577
6878.84771,0.07341
6880.77618,0.04426
6882.70464,0.04181
6884.63311,0.08673
6886.56158,0.10276
6888.49005,0.04703
6890.41852,0.00214
6892.34699,0.04299
6894.27546,0.10582
6896.20393,0.09967
6898.13239,0.03998
6900.06086,0.00882
6901.98933,0.00238
6903.91780,-0.03613
6905.84627,-0.07247
6907.77474,-0.05222
6909.70321,-0.02603
6911.63167,-0.01092
6913.56014,-0.00833
6915.48861,-0.03624
6917.41708,-0.07590
6919.34555,-0.12326
6921.27402,-0.14537
6923.20249,-0.09695
6925.13096,-0.01217
6927.05942,0.05688
6928.98789,0.08289
6930.91636,0.05808
6932.84483,0.01505
6934.77330,0.02570
6936.70177,0.05958
6938.63024,0.03954
6940.55870,0.02093
6942.48717,0.05838
6944.41564,0.07053
6946.34411,0.09940
6948.27258,0.17358
6950.20105,0.19654
6952.12952,0.16880
6954.05799,0.14252
6955.98645,0.08789
6957.91492,0.02694
6959.84339,0.01347
6961.77186,0.01835
6963.70033,0.02275
6965.62880,0.06839
6967.55727,0.12828
6969.48573,0.10152
6971.41420,0.03365
6973.34267,0.00836
6975.27114,0.01242
6977.19961,0.07435
6979.12808,0.13499
6981.05655,0.11154
6982.98501,0.05247
6984.91348,0.01357
6986.84195,-0.02846
6988.77042,-0.06075
6990.69889,-0.08006
6992.62736,-0.10898
6994.55583,-0.10675
6996.48430,-0.07217
6998.41276,-0.08083
7000.34123,-0.11616
7002.26970,-0.06668
7004.19817,0.04933
7006.12664,0.09687
7008.05511,0.04391
7009.98358,0.02039
7011.91204,0.06289
7013.84051,0.09289
7015.76898,0.04993
7017.69745,-0.00551
7019.62592,-0.01221
7021.55439,0.00018
7023.48286,-0.00563
7025.41133,-0.01590
7027.33979,0.02539
7029.26826,0.09178
7031.19673,0.10404
7033.12520,0.11231
7035.05367,0.10080
7036.98214,0.06121
7038.91061,0.06290
7040.83907,0.07450
7042.76754,0.06979
7044.69601,0.08877
7046.62448,0.10326
7048.55295,0.09185
7050.48142,0.09642
7052.40989,0.08722
7054.33836,0.03207
7056.26682,-0.00516
7058.19529,-0.00432
7060.12376,0.00348
7062.05223,0.04660
7063.98070,0.08852
7065.90917,0.05794
7067.83764,-0.03985
7069.76610,-0.15150
7071.69457,-0.17655
7073.62304,-0.14006
7075.55151,-0.09561
7077.47998,-0.01687
7079.40845,0.09148
7081.33692,0.16296
7083.26539,0.18676
7085.19385,0.18898
7087.12232,0.11694
7089.05079,0.02210
7090.97926,-0.00663
7092.90773,-0.01252
7094.83620,-0.00753
7096.76467,0.05939
7098.69313,0.16974
7100.62160,0.24224
7102.55007,0.28001
7104.47854,0.26859
7106.40701,0.18571
7108.33548,0.10417
7110.26395,0.02992
7112.19242,-0.06335
7114.12088,-0.10703
7116.04935,-0.06647
7117.97782,0.00019
7119.90629,0.02198
7121.83476,0.03360
7123.76323,0.06295
7125.69170,0.06250
7127.62016,0.01613
7129.54863,-0.01585
7131.47710,-0.02330
7133.40557,-0.05819
7135.33404,-0.05897
7137.26251,0.01429
7139.19098,0.05861
7141.11944,0.08257
7143.04791,0.13265
7144.97638,0.13044
7146.90485,0.08699
7148.83332,0.07763
7150.76179,0.05203
7152.69026,-0.05769
7154.61873,-0.14861
7156.54719,-0.10738
7158.47566,-0.04457
7160.40413,-0.04133
7162.33260,-0.05746
7164.26107,-0.07778
7166.18954,-0.07420
7168.11801,0.01388
7170.04647,0.16638
7171.97494,0.29094
7173.90341,0.30525
7175.83188,0.26709
7177.76035,0.25458
7179.68882,0.20934
7181.61729,0.08068
7183.54576,-0.07016
7185.47422,-0.13085
7187.40269,-0.08557
7189.33116,0.04029
7191.25963,0.12003
7193.18810,0.08064
7195.11657,0.05338
7197.04504,0.04749
7198.97350,0.02337
7200.90197,-0.04942
7202.83044,-0.14094
7204.75891,-0.07802
7206.68738,0.07868
7208.61585,0.10800
7210.54432,0.06679
7212.47279,0.04681
7214.40125,0.07738
7216.32972,0.13214
7218.25819,0.13538
7220.18666,0.07200
7222.11513,0.05829
7224.04360,0.10395
7225.97207,0.09358
7227.90053,-0.01177
7229.82900,-0.08258
7231.75747,-0.02484
7233.68594,0.06460
7235.61441,0.10492
7237.54288,0.06563
7239.47135,-0.04769
7241.39982,-0.07781
7243.32828,0.07402
7245.25675,0.21320
7247.18522,0.21409
7249.11369,0.14578
7251.04216,0.13506
7252.97063,0.22654
7254.89910,0.21859
7256.82756,0.10812
7258.75603,0.03739
7260.68450,0.02398
7262.61297,-0.00586
7264.54144,-0.02537
7266.46991,0.02687
7268.39838,0.04912
7270.32685,-0.01802
7272.25531,-0.09127
7274.18378,-0.09466
7276.11225,-0.09367
7278.04072,-0.09208
7279.96919,-0.00547
7281.89766,0.10991
7283.82613,0.08305
7285.75459,-0.01647
7287.68306,-0.02173
7289.61153,0.05092
7291.54000,0.09168
7293.46847,0.08397
7295.39694,0.07913
7297.32541,0.07835
7299.25387,0.06498
7301.18234,0.07622
7303.11081,0.10906
7305.03928,0.11634
7306.96775,0.06389
7308.89622,-0.06363
7310.82469,-0.12574
7312.75316,-0.09852
7314.68162,-0.10286
7316.61009,-0.12645
7318.53856,-0.13944
7320.46703,-0.14439
7322.39550,-0.05272
7324.32397,0.11946
7326.25244,0.24027
7328.18090,0.29420
7330.10937,0.26648
7332.03784,0.19695
7333.96631,0.19585
7335.89478,0.22059
7337.82325,0.16600
7339.75172,0.03047
7341.68019,-0.01857
7343.60865,0.03005
7345.53712,0.11123
7347.46559,0.16483
7349.39406,0.15103
7351.32253,0.14199
7353.25100,0.13759
7355.17947,0.04587
7357.10793,-0.15771
7359.03640,-0.27116
7360.96487,-0.19716
7362.89334,-0.14622
7364.82181,-0.09531
7366.75028,0.04167
7368.67875,0.13163
7370.60722,0.16982
7372.53568,0.27528
7374.46415,0.31809
7376.39262,0.18338
7378.32109,0.11775
7380.24956,0.15039
7382.17803,0.16901
7384.10650,0.09868
7386.03496,0.01725
7387.96343,0.00783
7389.89190,0.00625
7391.82037,-0.01578
7393.74884,-0.00714
7395.67731,0.01196
7397.60578,0.01475
7399.53425,0.03389
7401.46271,0.04211
7403.39118,0.04108
7405.31965,0.07625
7407.24812,0.13458
7409.17659,0.16512
7411.10506,0.12557
7413.03353,0.06051
7414.96199,0.06074
7416.89046,0.10931
7418.81893,0.07194
7420.74740,0.01067
7422.67587,-0.00631
7424.60434,-0.06993
7426.53281,-0.08652
7428.46128,0.02696
7430.38974,0.08187
7432.31821,-0.02568
7434.24668,-0.01908
7436.17515,0.12533
7438.10362,0.21738
7440.03209,0.21126
7441.96056,0.17126
7443.88902,0.16495
7445.81749,0.21283
7447.74596,0.23943
7449.67443,0.18946
7451.60290,0.13264
7453.53137,0.09154
7455.45984,0.00648
7457.38831,-0.08583
7459.31677,-0.08079
7461.24524,0.01486
7463.17371,0.00520
7465.10218,-0.13106
7467.03065,-0.19861
7468.95912,-0.16651
7470.88759,-0.15330
7472.81605,-0.13337
7474.74452,-0.09754
7476.67299,-0.11027
7478.60146,-0.10670
7480.52993,0.04785
7482.45840,0.27390
7484.38687,0.39733
7486.31533,0.33636
7488.24380,0.09165
7490.17227,-0.07831
7492.10074,-0.01540
7494.02921,0.07763
7495.95768,0.04903
7497.88615,-0.08143
