399.19301,0.85778
401.12148,0.40065
403.04995,0.12793
404.97842,-0.05651
406.90689,-0.16469
408.83536,-0.11800
410.76382,0.02891
412.69229,0.05262
414.62076,0.02168
416.54923,0.05891
418.47770,0.05058
420.40617,-0.01069
422.33464,0.02479
424.26311,0.08488
426.19157,0.09855
428.12004,0.09128
430.04851,0.07888
431.97698,0.05537
433.90545,0.04861
435.83392,0.06918
437.76239,0.08397
439.69085,0.07511
441.61932,0.05134
443.54779,0.01119
445.47626,-0.02505
447.40473,-0.01652
449.33320,0.02623
451.26167,0.04250
453.19013,0.02547
455.11860,0.02300
457.04707,0.04902
458.97554,0.06129
460.90401,0.05619
462.83248,0.05885
464.76095,0.03490
466.68942,-0.00197
468.61788,0.01604
470.54635,0.08146
472.47482,0.15238
474.40329,0.15569
476.33176,0.08686
478.26023,0.03915
480.18870,0.01489
482.11716,-0.00178
484.04563,-0.01178
485.97410,-0.00976
487.90257,0.00326
489.83104,-0.00010
491.75951,-0.01433
493.68798,-0.00196
495.61645,0.02864
497.54491,0.04487
499.47338,0.04262
501.40185,0.04071
503.33032,0.03332
505.25879,0.02167
507.18726,0.03326
509.11573,0.05364
511.04419,0.04851
512.97266,0.04201
514.90113,0.05971
516.82960,0.05587
518.75807,0.01852
520.68654,0.01298
522.61501,0.04978
524.54348,0.07495
526.47194,0.06943
528.40041,0.08141
530.32888,0.10104
532.25735,0.09231
534.18582,0.06658
536.11429,0.03646
538.04276,0.01265
539.97122,0.00915
541.89969,0.01406
543.82816,0.01916
545.75663,0.02908
547.68510,0.03702
549.61357,0.04062
551.54204,0.06029
553.47051,0.09014
555.39897,0.08761
557.32744,0.06316
559.25591,0.05197
561.18438,0.04244
563.11285,0.02831
565.04132,0.03112
566.96979,0.05645
568.89825,0.07043
570.82672,0.06176
572.75519,0.05058
574.68366,0.04380
576.61213,0.03707
578.54060,0.02720
580.46907,0.02565
582.39754,0.03912
584.32600,0.04987
586.25447,0.04826
588.18294,0.04622
590.11141,0.05008
592.03988,0.05854
593.96835,0.06032
595.89682,0.04184
597.82528,0.02016
599.75375,0.01365
601.68222,0.01545
603.61069,0.02101
605.53916,0.03403
607.46763,0.04732
609.39610,0.04971
611.32456,0.04519
613.25303,0.05033
615.18150,0.06477
617.10997,0.06631
619.03844,0.05223
620.96691,0.04026
622.89538,0.03498
624.82385,0.03331
626.75231,0.03992
628.68078,0.05718
630.60925,0.07370
632.53772,0.07732
634.46619,0.06949
636.39466,0.06297
638.32313,0.06503
640.25159,0.06454
642.18006,0.05073
644.10853,0.03859
646.03700,0.04439
647.96547,0.05647
649.89394,0.05478
651.82241,0.04618
653.75088,0.04077
655.67934,0.03688
657.60781,0.04167
659.53628,0.05531
661.46475,0.06501
663.39322,0.06186
665.32169,0.04771
667.25016,0.03576
669.17862,0.04746
671.10709,0.06402
673.03556,0.06614
674.96403,0.06090
676.89250,0.05658
678.82097,0.05173
680.74944,0.04918
682.67791,0.05596
684.60637,0.05829
686.53484,0.04352
688.46331,0.03086
690.39178,0.03996
692.32025,0.05422
694.24872,0.05627
696.17719,0.05722
698.10565,0.06291
700.03412,0.06090
701.96259,0.04760
703.89106,0.03760
705.81953,0.04329
707.74800,0.04940
709.67647,0.03378
711.60494,0.01832
713.53340,0.03498
715.46187,0.05874
717.39034,0.05782
719.31881,0.04673
721.24728,0.04797
723.17575,0.05865
725.10422,0.06447
727.03268,0.06533
728.96115,0.06543
730.88962,0.06094
732.81809,0.05131
734.74656,0.04519
736.67503,0.04731
738.60350,0.05043
740.53197,0.05293
742.46043,0.05972
744.38890,0.06665
746.31737,0.06670
748.24584,0.06303
750.17431,0.06714
752.10278,0.07635
754.03125,0.07379
755.95971,0.06076
757.88818,0.05475
759.81665,0.05769
761.74512,0.05728
763.67359,0.05416
765.60206,0.05849
767.53053,0.06493
769.45900,0.06358
771.38746,0.06039
773.31593,0.05995
775.24440,0.05850
777.17287,0.05666
779.10134,0.05607
781.02981,0.05767
782.95828,0.06360
784.88674,0.07190
786.81521,0.07239
788.74368,0.06195
790.67215,0.05325
792.60062,0.05119
794.52909,0.05099
796.45756,0.05286
798.38602,0.05391
800.31449,0.04960
802.24296,0.04854
804.17143,0.05230
806.09990,0.04874
808.02837,0.04198
809.95684,0.04453
811.88531,0.05205
813.81377,0.05352
815.74224,0.04999
817.67071,0.05107
819.59918,0.05965
821.52765,0.06639
823.45612,0.06379
825.38459,0.05791
827.31305,0.05616
829.24152,0.05643
831.16999,0.05618
833.09846,0.05798
835.02693,0.06198
836.95540,0.06257
838.88387,0.05620
840.81234,0.05121
842.74080,0.05132
844.66927,0.04826
846.59774,0.04675
848.52621,0.05344
850.45468,0.05991
852.38315,0.06063
854.31162,0.05972
856.24008,0.06022
858.16855,0.06115
860.09702,0.06190
862.02549,0.06380
863.95396,0.06504
865.88243,0.06550
867.81090,0.07816
869.73937,0.09578
871.66783,0.09023
873.59630,0.06907
875.52477,0.05785
877.45324,0.05980
879.38171,0.06569
881.31018,0.06839
883.23865,0.06754
885.16711,0.06683
887.09558,0.06705
889.02405,0.06487
890.95252,0.06322
892.88099,0.06607
894.80946,0.06547
896.73793,0.05624
898.66640,0.04933
900.59486,0.05272
902.52333,0.05640
904.45180,0.05151
906.38027,0.04696
908.30874,0.05476
910.23721,0.07100
912.16568,0.08107
914.09414,0.08133
916.02261,0.07886
917.95108,0.07521
919.87955,0.06921
921.80802,0.06484
923.73649,0.06498
925.66496,0.06595
927.59343,0.06284
929.52189,0.05881
931.45036,0.06050
933.37883,0.06434
935.30730,0.06273
937.23577,0.05859
939.16424,0.05857
941.09271,0.05941
943.02117,0.05668
944.94964,0.05603
946.87811,0.05796
948.80658,0.05514
950.73505,0.05167
952.66352,0.05081
954.59199,0.04604
956.52045,0.04200
958.44892,0.04731
960.37739,0.05696
962.30586,0.06336
964.23433,0.06692
966.16280,0.06997
968.09127,0.07081
970.01974,0.06757
971.94820,0.06229
973.87667,0.06152
975.80514,0.06555
977.73361,0.06487
979.66208,0.06044
981.59055,0.06268
983.51902,0.06919
985.44748,0.07066
987.37595,0.06669
989.30442,0.06188
991.23289,0.05892
993.16136,0.05873
995.08983,0.06073
997.01830,0.06275
998.94677,0.06373
1000.87523,0.06373
1002.80370,0.06373
1004.73217,0.06559
1006.66064,0.06837
1008.58911,0.06855
1010.51758,0.06560
1012.44605,0.06213
1014.37451,0.06063
1016.30298,0.06550
1018.23145,0.07545
1020.15992,0.08037
1022.08839,0.07589
1024.01686,0.06696
1025.94533,0.06216
1027.87380,0.06849
1029.80226,0.07953
1031.73073,0.07804
1033.65920,0.06568
1035.58767,0.05937
1037.51614,0.06195
1039.44461,0.06739
1041.37308,0.07336
1043.30154,0.07747
1045.23001,0.07825
1047.15848,0.07952
1049.08695,0.08050
1051.01542,0.07495
1052.94389,0.06602
1054.87236,0.05917
1056.80083,0.05543
1058.72929,0.05650
1060.65776,0.05992
1062.58623,0.06036
1064.51470,0.05539
1066.44317,0.04809
1068.37164,0.04742
1070.30011,0.05502
1072.22857,0.06326
1074.15704,0.06744
1076.08551,0.06555
1078.01398,0.06157
1079.94245,0.06485
1081.87092,0.07146
1083.79939,0.07084
1085.72786,0.06973
1087.65632,0.07537
1089.58479,0.07720
1091.51326,0.07152
1093.44173,0.06791
1095.37020,0.06687
1097.29867,0.06292
1099.22714,0.06140
1101.15560,0.06535
1103.08407,0.06739
1105.01254,0.06745
1106.94101,0.06925
1108.86948,0.06975
1110.79795,0.06862
1112.72642,0.06807
1114.65489,0.06881
1116.58335,0.07408
1118.51182,0.08115
1120.44029,0.08210
1122.36876,0.07595
1124.29723,0.06973
1126.22570,0.06955
1128.15417,0.07085
1130.08263,0.06907
1132.01110,0.06601
1133.93957,0.06572
1135.86804,0.07236
1137.79651,0.07820
1139.72498,0.07471
1141.65345,0.06980
1143.58191,0.06945
1145.51038,0.07015
1147.43885,0.07324
1149.36732,0.07649
1151.29579,0.07251
1153.22426,0.06711
1155.15273,0.06696
1157.08120,0.06853
1159.00966,0.07088
1160.93813,0.07357
1162.86660,0.07427
1164.79507,0.07447
1166.72354,0.07396
1168.65201,0.07113
1170.58048,0.06867
1172.50894,0.06851
1174.43741,0.06909
1176.36588,0.06958
1178.29435,0.07080
1180.22282,0.07180
1182.15129,0.07196
1184.07976,0.07357
1186.00823,0.07524
1187.93669,0.07440
1189.86516,0.07341
1191.79363,0.07342
1193.72210,0.07274
1195.65057,0.07076
1197.57904,0.06919
1199.50751,0.06982
1201.43597,0.07054
1203.36444,0.06938
1205.29291,0.06856
1207.22138,0.06940
1209.14985,0.06919
1211.07832,0.06774
1213.00679,0.06873
1214.93526,0.07045
1216.86372,0.07029
1218.79219,0.07219
1220.72066,0.07454
1222.64913,0.07177
1224.57760,0.06874
1226.50607,0.07008
1228.43454,0.07085
1230.36300,0.06981
1232.29147,0.07056
1234.21994,0.07230
1236.14841,0.07362
1238.07688,0.07484
1240.00535,0.07475
1241.93382,0.07330
1243.86229,0.07201
1245.79075,0.07203
1247.71922,0.07287
1249.64769,0.07227
1251.57616,0.07028
1253.50463,0.06976
1255.43310,0.07145
1257.36157,0.07285
1259.29003,0.07168
1261.21850,0.06935
1263.14697,0.06841
1265.07544,0.06772
1267.00391,0.06664
1268.93238,0.06778
1270.86085,0.06951
1272.78932,0.06881
1274.71778,0.06851
1276.64625,0.07035
1278.57472,0.07205
1280.50319,0.07169
1282.43166,0.07001
1284.36013,0.06963
1286.28860,0.07038
1288.21706,0.07047
1290.14553,0.07022
1292.07400,0.07000
1294.00247,0.06966
1295.93094,0.07016
1297.85941,0.07133
1299.78788,0.07121
1301.71634,0.06849
1303.64481,0.06321
1305.57328,0.05946
1307.50175,0.06085
1309.43022,0.06456
1311.35869,0.06849
1313.28716,0.07271
1315.21563,0.07449
1317.14409,0.07363
1319.07256,0.07324
1321.00103,0.07294
1322.92950,0.07213
1324.85797,0.07232
1326.78644,0.07268
1328.71491,0.07168
1330.64337,0.06974
1332.57184,0.06976
1334.50031,0.07361
1336.42878,0.07805
1338.35725,0.07872
1340.28572,0.07383
1342.21419,0.06839
1344.14266,0.06816
1346.07112,0.07005
1347.99959,0.07050
1349.92806,0.07173
1351.85653,0.07368
1353.78500,0.07383
1355.71347,0.07340
1357.64194,0.07458
1359.57040,0.07578
1361.49887,0.07523
1363.42734,0.07418
1365.35581,0.07471
1367.28428,0.07695
1369.21275,0.07885
1371.14122,0.07950
1373.06969,0.08061
1374.99815,0.08084
1376.92662,0.07813
1378.85509,0.07559
1380.78356,0.07513
1382.71203,0.07575
1384.64050,0.07795
1386.56897,0.08053
1388.49743,0.07950
1390.42590,0.07746
1392.35437,0.07857
1394.28284,0.08119
1396.21131,0.08222
1398.13978,0.08165
1400.06825,0.07965
1401.99672,0.07798
1403.92518,0.07720
1405.85365,0.07624
1407.78212,0.07643
1409.71059,0.07740
1411.63906,0.07806
1413.56753,0.07799
1415.49600,0.07681
1417.42446,0.07713
1419.35293,0.08025
1421.28140,0.08225
1423.20987,0.08238
1425.13834,0.08075
1427.06681,0.07951
1428.99528,0.07965
1430.92375,0.07759
1432.85221,0.07572
1434.78068,0.07983
1436.70915,0.08544
1438.63762,0.08387
1440.56609,0.08052
1442.49456,0.07841
1444.42303,0.07729
1446.35149,0.07827
1448.27996,0.08140
1450.20843,0.08402
1452.13690,0.08311
1454.06537,0.08024
1455.99384,0.08036
1457.92231,0.08469
1459.85077,0.08623
1461.77924,0.08768
1463.70771,0.08982
1465.63618,0.08661
1467.56465,0.07894
1469.49312,0.07454
1471.42159,0.07679
1473.35006,0.08250
1475.27852,0.08327
1477.20699,0.08050
1479.13546,0.07787
1481.06393,0.07723
1482.99240,0.07664
1484.92087,0.07645
1486.84934,0.08111
1488.77780,0.08902
1490.70627,0.09024
1492.63474,0.08643
1494.56321,0.08564
1496.49168,0.08746
1498.42015,0.08443
1500.34862,0.07831
1502.27709,0.07782
1504.20555,0.08342
1506.13402,0.09068
1508.06249,0.09174
1509.99096,0.09080
1511.91943,0.09049
1513.84790,0.08926
1515.77637,0.08897
1517.70483,0.09189
1519.63330,0.09616
1521.56177,0.09603
1523.49024,0.08856
1525.41871,0.08364
1527.34718,0.08490
1529.27565,0.08656
1531.20412,0.08667
1533.13258,0.08639
1535.06105,0.08514
1536.98952,0.08740
1538.91799,0.09800
1540.84646,0.10755
1542.77493,0.10078
1544.70340,0.09268
1546.63186,0.08839
1548.56033,0.08664
1550.48880,0.08628
1552.41727,0.08699
1554.34574,0.08700
1556.27421,0.08843
1558.20268,0.09673
1560.13115,0.09549
1562.05961,0.08674
1563.98808,0.08402
1565.91655,0.08697
1567.84502,0.09357
1569.77349,0.09756
1571.70196,0.09470
1573.63043,0.09126
1575.55889,0.08883
1577.48736,0.08606
1579.41583,0.08559
1581.34430,0.08592
1583.27277,0.08394
1585.20124,0.08125
1587.12971,0.07999
1589.05818,0.07945
1590.98664,0.08006
1592.91511,0.08182
1594.84358,0.08266
1596.77205,0.08217
1598.70052,0.08173
1600.62899,0.08142
1602.55746,0.08123
1604.48592,0.08183
1606.41439,0.08294
1608.34286,0.08406
1610.27133,0.08367
1612.19980,0.08101
1614.12827,0.07995
1616.05674,0.08436
1617.98521,0.08850
1619.91367,0.08699
1621.84214,0.08414
1623.77061,0.08203
1625.69908,0.08237
1627.62755,0.08460
1629.55602,0.08663
1631.48449,0.08790
1633.41295,0.08923
1635.34142,0.09244
1637.26989,0.09404
1639.19836,0.09014
1641.12683,0.08504
1643.05530,0.08181
1644.98377,0.08366
1646.91223,0.09145
1648.84070,0.09569
1650.76917,0.09781
1652.69764,0.10104
1654.62611,0.09330
1656.55458,0.08666
1658.48305,0.08640
1660.41152,0.08774
1662.33998,0.08901
1664.26845,0.08857
1666.19692,0.08645
1668.12539,0.08677
1670.05386,0.09093
1671.98233,0.09371
1673.91080,0.09246
1675.83926,0.08765
1677.76773,0.08431
1679.69620,0.08433
1681.62467,0.08510
1683.55314,0.08617
1685.48161,0.08833
1687.41008,0.08936
1689.33855,0.08898
1691.26701,0.08794
1693.19548,0.08863
1695.12395,0.09109
1697.05242,0.09102
1698.98089,0.08799
1700.90936,0.08459
1702.83783,0.08346
1704.76629,0.08608
1706.69476,0.08935
1708.62323,0.08798
1710.55170,0.08474
1712.48017,0.08548
1714.40864,0.09201
1716.33711,0.09796
1718.26558,0.09168
1720.19404,0.08315
1722.12251,0.08047
1724.05098,0.07927
1725.97945,0.07768
1727.90792,0.07793
1729.83639,0.07990
1731.76486,0.08288
1733.69332,0.08778
1735.62179,0.08874
1737.55026,0.08666
1739.47873,0.08623
1741.40720,0.08614
1743.33567,0.08426
1745.26414,0.08140
1747.19261,0.08131
1749.12107,0.08542
1751.04954,0.08689
1752.97801,0.08475
1754.90648,0.08428
1756.83495,0.08412
1758.76342,0.08344
1760.69189,0.08407
1762.62035,0.08429
1764.54882,0.08324
1766.47729,0.08330
1768.40576,0.08620
1770.33423,0.09041
1772.26270,0.09020
1774.19117,0.08566
1776.11964,0.08376
1778.04810,0.08437
1779.97657,0.08453
1781.90504,0.08402
1783.83351,0.08445
1785.76198,0.08434
1787.69045,0.08338
1789.61892,0.08507
1791.54738,0.08938
1793.47585,0.09067
1795.40432,0.08865
1797.33279,0.08667
1799.26126,0.08518
1801.18973,0.08345
1803.11820,0.08180
1805.04666,0.08147
1806.97513,0.08234
1808.90360,0.08290
1810.83207,0.08229
1812.76054,0.08190
1814.68901,0.08323
1816.61748,0.08561
1818.54595,0.08707
1820.47441,0.08750
1822.40288,0.08839
1824.33135,0.08890
1826.25982,0.08868
1828.18829,0.08920
1830.11676,0.08809
1832.04523,0.08450
1833.97369,0.08226
1835.90216,0.08158
1837.83063,0.08159
1839.75910,0.08179
1841.68757,0.08138
1843.61604,0.08159
1845.54451,0.08338
1847.47298,0.08409
1849.40144,0.08325
1851.32991,0.08241
1853.25838,0.08292
1855.18685,0.08441
1857.11532,0.08473
1859.04379,0.08412
1860.97226,0.08464
1862.90072,0.08632
1864.82919,0.08837
1866.75766,0.08927
1868.68613,0.08853
1870.61460,0.08609
1872.54307,0.08191
1874.47154,0.08013
1876.40001,0.08223
1878.32847,0.08340
1880.25694,0.08237
1882.18541,0.08217
1884.11388,0.08284
1886.04235,0.08362
1887.97082,0.08555
1889.89929,0.08724
1891.82775,0.08681
1893.75622,0.08508
1895.68469,0.08289
1897.61316,0.08237
1899.54163,0.08474
1901.47010,0.08682
1903.39857,0.08585
1905.32704,0.08348
1907.25550,0.08224
1909.18397,0.08306
1911.11244,0.08529
1913.04091,0.08656
1914.96938,0.08546
1916.89785,0.08361
1918.82632,0.08307
1920.75478,0.08304
1922.68325,0.08210
1924.61172,0.07996
1926.54019,0.07779
1928.46866,0.07754
1930.39713,0.07900
1932.32560,0.07991
1934.25407,0.08054
1936.18253,0.08219
1938.11100,0.08397
1940.03947,0.08542
1941.96794,0.08629
1943.89641,0.08609
1945.82488,0.08580
1947.75335,0.08585
1949.68181,0.08553
1951.61028,0.08451
1953.53875,0.08334
1955.46722,0.08227
1957.39569,0.08219
1959.32416,0.08349
1961.25263,0.08458
1963.18110,0.08477
1965.10956,0.08494
1967.03803,0.08518
1968.96650,0.08465
1970.89497,0.08406
1972.82344,0.08359
1974.75191,0.08270
1976.68038,0.08222
1978.60884,0.08246
1980.53731,0.08337
1982.46578,0.08421
1984.39425,0.08412
1986.32272,0.08388
1988.25119,0.08337
1990.17966,0.08185
1992.10812,0.08107
1994.03659,0.08179
1995.96506,0.08162
1997.89353,0.08069
1999.82200,0.08039
2001.75047,0.08059
2003.67894,0.08122
2005.60741,0.08147
2007.53587,0.08109
2009.46434,0.08201
2011.39281,0.08434
2013.32128,0.08599
2015.24975,0.08762
2017.17822,0.08965
2019.10669,0.08866
2021.03515,0.08477
2022.96362,0.08248
2024.89209,0.08306
2026.82056,0.08439
2028.74903,0.08592
2030.67750,0.08761
2032.60597,0.08721
2034.53444,0.08505
2036.46290,0.08432
2038.39137,0.08440
2040.31984,0.08405
2042.24831,0.08407
2044.17678,0.08357
2046.10525,0.08230
2048.03372,0.08181
2049.96218,0.08236
2051.89065,0.08304
2053.81912,0.08370
2055.74759,0.08402
2057.67606,0.08267
2059.60453,0.08090
2061.53300,0.08126
2063.46147,0.08300
2065.38993,0.08447
2067.31840,0.08513
2069.24687,0.08487
2071.17534,0.08498
2073.10381,0.08616
2075.03228,0.08731
2076.96075,0.08724
2078.88921,0.08597
2080.81768,0.08516
2082.74615,0.08474
2084.67462,0.08329
2086.60309,0.08259
2088.53156,0.08367
2090.46003,0.08397
2092.38850,0.08372
2094.31696,0.08451
2096.24543,0.08482
2098.17390,0.08444
2100.10237,0.08425
2102.03084,0.08406
2103.95931,0.08387
2105.88778,0.08371
2107.81624,0.08438
2109.74471,0.08580
2111.67318,0.08627
2113.60165,0.08528
2115.53012,0.08343
2117.45859,0.08252
2119.38706,0.08383
2121.31553,0.08570
2123.24399,0.08645
2125.17246,0.08562
2127.10093,0.08389
2129.02940,0.08291
2130.95787,0.08214
2132.88634,0.07971
2134.81481,0.07746
2136.74327,0.07876
2138.67174,0.08210
2140.60021,0.08350
2142.52868,0.08281
2144.45715,0.08205
2146.38562,0.08319
2148.31409,0.08713
2150.24255,0.09013
2152.17102,0.08863
2154.09949,0.08523
2156.02796,0.08386
2157.95643,0.08537
2159.88490,0.08728
2161.81337,0.08687
2163.74184,0.08542
2165.67030,0.08548
2167.59877,0.08695
2169.52724,0.08871
2171.45571,0.09002
2173.38418,0.08951
2175.31265,0.08728
2177.24112,0.08558
2179.16958,0.08512
2181.09805,0.08457
2183.02652,0.08276
2184.95499,0.08077
2186.88346,0.08101
2188.81193,0.08237
2190.74040,0.08202
2192.66887,0.08069
2194.59733,0.07989
2196.52580,0.07934
2198.45427,0.07892
2200.38274,0.07904
2202.31121,0.07953
2204.23968,0.07939
2206.16815,0.07950
2208.09661,0.08196
2210.02508,0.08548
2211.95355,0.08706
2213.88202,0.08651
2215.81049,0.08575
2217.73896,0.08528
2219.66743,0.08445
2221.59590,0.08431
2223.52436,0.08501
2225.45283,0.08458
2227.38130,0.08366
2229.30977,0.08407
2231.23824,0.08500
2233.16671,0.08499
2235.09518,0.08457
2237.02364,0.08521
2238.95211,0.08611
2240.88058,0.08617
2242.80905,0.08552
2244.73752,0.08390
2246.66599,0.08236
2248.59446,0.08238
2250.52293,0.08275
2252.45139,0.08227
2254.37986,0.08264
2256.30833,0.08376
2258.23680,0.08332
2260.16527,0.08230
2262.09374,0.08191
2264.02221,0.08191
2265.95067,0.08316
2267.87914,0.08474
2269.80761,0.08449
2271.73608,0.08356
2273.66455,0.08466
2275.59302,0.08725
2277.52149,0.08731
2279.44996,0.08358
2281.37842,0.08054
2283.30689,0.08070
2285.23536,0.08165
2287.16383,0.08242
2289.09230,0.08442
2291.02077,0.08785
2292.94924,0.08954
2294.87770,0.08724
2296.80617,0.08519
2298.73464,0.08640
2300.66311,0.08801
2302.59158,0.08837
2304.52005,0.08681
2306.44852,0.08348
2308.37699,0.08171
2310.30545,0.08159
2312.23392,0.08024
2314.16239,0.07894
2316.09086,0.07866
2318.01933,0.07660
2319.94780,0.07372
2321.87627,0.07433
2323.80473,0.07717
2325.73320,0.07863
2327.66167,0.07895
2329.59014,0.07974
2331.51861,0.08504
2333.44708,0.09711
2335.37555,0.10368
2337.30401,0.09451
2339.23248,0.08069
2341.16095,0.07616
2343.08942,0.08130
2345.01789,0.08568
2346.94636,0.08490
2348.87483,0.08392
2350.80330,0.08437
2352.73176,0.08776
2354.66023,0.09282
2356.58870,0.09130
2358.51717,0.07890
2360.44564,0.06573
2362.37411,0.06389
2364.30258,0.06601
2366.23104,0.06711
2368.15951,0.06973
2370.08798,0.07379
2372.01645,0.07808
2373.94492,0.07939
2375.87339,0.07843
2377.80186,0.07825
2379.73033,0.07999
2381.65879,0.08269
2383.58726,0.08468
2385.51573,0.08522
2387.44420,0.08484
2389.37267,0.08504
2391.30114,0.08602
2393.22961,0.08562
2395.15807,0.08409
2397.08654,0.08369
2399.01501,0.08406
2400.94348,0.08466
2402.87195,0.08542
2404.80042,0.08507
2406.72889,0.08326
2408.65736,0.08170
2410.58582,0.08202
2412.51429,0.08328
2414.44276,0.08431
2416.37123,0.08472
2418.29970,0.08425
2420.22817,0.08405
2422.15664,0.08443
2424.08510,0.08438
2426.01357,0.08419
2427.94204,0.08435
2429.87051,0.08448
2431.79898,0.08512
2433.72745,0.08661
2435.65592,0.08748
2437.58439,0.08677
2439.51285,0.08552
2441.44132,0.08437
2443.36979,0.08369
2445.29826,0.08419
2447.22673,0.08527
2449.15520,0.08601
2451.08367,0.08624
2453.01213,0.08625
2454.94060,0.08587
2456.86907,0.08523
2458.79754,0.08510
2460.72601,0.08529
2462.65448,0.08553
2464.58295,0.08559
2466.51142,0.08525
2468.43988,0.08548
2470.36835,0.08599
2472.29682,0.08562
2474.22529,0.08541
2476.15376,0.08575
2478.08223,0.08564
2480.01070,0.08607
2481.93916,0.08744
2483.86763,0.08842
2485.79610,0.08881
2487.72457,0.08870
2489.65304,0.08800
2491.58151,0.08751
2493.50998,0.08759
2495.43844,0.08743
2497.36691,0.08617
2499.29538,0.08381
2501.22385,0.08229
2503.15232,0.08358
2505.08079,0.08686
2507.00926,0.08863
2508.93773,0.08728
2510.86619,0.08604
2512.79466,0.08628
2514.72313,0.08646
2516.65160,0.08685
2518.58007,0.08726
2520.50854,0.08689
2522.43701,0.08671
2524.36547,0.08801
2526.29394,0.08986
2528.22241,0.08966
2530.15088,0.08724
2532.07935,0.08486
2534.00782,0.08399
2535.93629,0.08462
2537.86476,0.08586
2539.79322,0.08750
2541.72169,0.08922
2543.65016,0.08992
2545.57863,0.08898
2547.50710,0.08657
2549.43557,0.08511
2551.36404,0.08593
2553.29250,0.08750
2555.22097,0.08933
2557.14944,0.09057
2559.07791,0.08966
2561.00638,0.08887
2562.93485,0.09026
2564.86332,0.09109
2566.79179,0.08998
2568.72025,0.08831
2570.64872,0.08686
2572.57719,0.08710
2574.50566,0.08950
2576.43413,0.09142
2578.36260,0.09081
2580.29107,0.08920
2582.21953,0.08849
2584.14800,0.08896
2586.07647,0.09025
2588.00494,0.09129
2589.93341,0.09132
2591.86188,0.09010
2593.79035,0.08858
2595.71882,0.08801
2597.64728,0.08743
2599.57575,0.08616
2601.50422,0.08553
2603.43269,0.08603
2605.36116,0.08644
2607.28963,0.08631
2609.21810,0.08669
2611.14656,0.08774
2613.07503,0.08799
2615.00350,0.08748
2616.93197,0.08732
2618.86044,0.08748
2620.78891,0.08830
2622.71738,0.08908
2624.64585,0.08875
2626.57431,0.08907
2628.50278,0.08974
2630.43125,0.08819
2632.35972,0.08631
2634.28819,0.08750
2636.21666,0.09021
2638.14513,0.09114
2640.07359,0.09023
2642.00206,0.08991
2643.93053,0.09124
2645.85900,0.09132
2647.78747,0.08934
2649.71594,0.08845
2651.64441,0.08811
2653.57288,0.08722
2655.50134,0.08730
2657.42981,0.08822
2659.35828,0.08905
2661.28675,0.08883
2663.21522,0.08752
2665.14369,0.08711
2667.07216,0.08854
2669.00062,0.09023
2670.92909,0.09051
2672.85756,0.08935
2674.78603,0.08821
2676.71450,0.08919
2678.64297,0.09132
2680.57144,0.09199
2682.49990,0.09175
2684.42837,0.09154
2686.35684,0.09125
2688.28531,0.09108
2690.21378,0.09084
2692.14225,0.09036
2694.07072,0.09011
2695.99919,0.09101
2697.92765,0.09244
2699.85612,0.09282
2701.78459,0.09240
2703.71306,0.09216
2705.64153,0.09154
2707.57000,0.09007
2709.49847,0.08928
2711.42693,0.08955
2713.35540,0.09004
2715.28387,0.09110
2717.21234,0.09192
2719.14081,0.09229
2721.06928,0.09293
2722.99775,0.09249
2724.92622,0.09135
2726.85468,0.09161
2728.78315,0.09269
2730.71162,0.09339
2732.64009,0.09394
2734.56856,0.09415
2736.49703,0.09464
2738.42550,0.09592
2740.35396,0.09540
2742.28243,0.09312
2744.21090,0.09223
2746.13937,0.09271
2748.06784,0.09210
2749.99631,0.08996
2751.92478,0.08953
2753.85325,0.09141
2755.78171,0.09252
2757.71018,0.09266
2759.63865,0.09271
2761.56712,0.09248
2763.49559,0.09196
2765.42406,0.09179
2767.35253,0.09231
2769.28099,0.09176
2771.20946,0.08985
2773.13793,0.08833
2775.06640,0.08824
2776.99487,0.09036
2778.92334,0.09307
2780.85181,0.09360
2782.78028,0.09203
2784.70874,0.09016
2786.63721,0.08906
2788.56568,0.08930
2790.49415,0.09168
2792.42262,0.09403
2794.35109,0.09382
2796.27956,0.09269
2798.20802,0.09160
2800.13649,0.09051
2802.06496,0.09202
2803.99343,0.09634
2805.92190,0.09819
2807.85037,0.09594
2809.77884,0.09483
2811.70731,0.09613
2813.63577,0.09658
2815.56424,0.09618
2817.49271,0.09526
2819.42118,0.09360
2821.34965,0.09300
2823.27812,0.09244
2825.20659,0.09089
2827.13505,0.09184
2829.06352,0.09682
2830.99199,0.10188
2832.92046,0.10264
2834.84893,0.09939
2836.77740,0.09430
2838.70587,0.08989
2840.63433,0.08924
2842.56280,0.09147
2844.49127,0.09398
2846.41974,0.09480
2848.34821,0.09363
2850.27668,0.09454
2852.20515,0.09778
2854.13362,0.09731
2856.06208,0.09304
2857.99055,0.09078
2859.91902,0.09294
2861.84749,0.09711
2863.77596,0.09831
2865.70443,0.09646
2867.63290,0.09581
2869.56136,0.09635
2871.48983,0.09670
2873.41830,0.09582
2875.34677,0.09318
2877.27524,0.09156
2879.20371,0.09222
2881.13218,0.09211
2883.06065,0.09125
2884.98911,0.09210
2886.91758,0.09329
2888.84605,0.09394
2890.77452,0.09467
2892.70299,0.09467
2894.63146,0.09425
2896.55993,0.09410
2898.48839,0.09287
2900.41686,0.09205
2902.34533,0.09463
2904.27380,0.09644
2906.20227,0.09425
2908.13074,0.09182
2910.05921,0.09134
2911.98768,0.09200
2913.91614,0.09216
2915.84461,0.09087
2917.77308,0.08969
2919.70155,0.09043
2921.63002,0.09387
2923.55849,0.09797
2925.48696,0.09823
2927.41542,0.09573
2929.34389,0.09389
2931.27236,0.09219
2933.20083,0.09179
2935.12930,0.09219
2937.05777,0.09073
2938.98624,0.09061
2940.91471,0.09465
2942.84317,0.09845
2944.77164,0.09607
2946.70011,0.08966
2948.62858,0.08855
2950.55705,0.09310
2952.48552,0.09513
2954.41399,0.09376
2956.34245,0.09188
2958.27092,0.09091
2960.19939,0.09203
2962.12786,0.09315
2964.05633,0.09337
2965.98480,0.09403
2967.91327,0.09332
2969.84174,0.09175
2971.77020,0.09312
2973.69867,0.09677
2975.62714,0.09840
2977.55561,0.09673
2979.48408,0.09589
2981.41255,0.09874
2983.34102,0.10208
2985.26948,0.10174
2987.19795,0.09784
2989.12642,0.09482
2991.05489,0.09520
2992.98336,0.09699
2994.91183,0.09831
2996.84030,0.09982
2998.76877,0.10165
3000.69723,0.10176
3002.62570,0.09957
3004.55417,0.09690
3006.48264,0.09661
3008.41111,0.09848
3010.33958,0.09861
3012.26805,0.09309
3014.19651,0.08009
3016.12498,0.06893
3018.05345,0.07320
3019.98192,0.08664
3021.91039,0.09492
3023.83886,0.09897
3025.76733,0.10211
3027.69579,0.10256
3029.62426,0.10170
3031.55273,0.10157
3033.48120,0.10211
3035.40967,0.10192
3037.33814,0.10120
3039.26661,0.10113
3041.19508,0.10001
3043.12354,0.09858
3045.05201,0.09911
3046.98048,0.09990
3048.90895,0.10131
3050.83742,0.10409
3052.76589,0.10430
3054.69436,0.10007
3056.62282,0.09403
3058.55129,0.09110
3060.47976,0.09267
3062.40823,0.09373
3064.33670,0.09237
3066.26517,0.09198
3068.19364,0.09416
3070.12211,0.09735
3072.05057,0.10027
3073.97904,0.10144
3075.90751,0.10057
3077.83598,0.10129
3079.76445,0.10260
3081.69292,0.09833
3083.62139,0.08955
3085.54985,0.08519
3087.47832,0.08874
3089.40679,0.09409
3091.33526,0.09520
3093.26373,0.08969
3095.19220,0.08454
3097.12067,0.08855
3099.04914,0.09523
3100.97760,0.09589
3102.90607,0.09127
3104.83454,0.08731
3106.76301,0.08880
3108.69148,0.09332
3110.61995,0.09536
3112.54842,0.09468
3114.47688,0.09542
3116.40535,0.09681
3118.33382,0.09565
3120.26229,0.09301
3122.19076,0.09350
3124.11923,0.10079
3126.04770,0.10760
3127.97617,0.10427
3129.90463,0.09571
3131.83310,0.09277
3133.76157,0.09621
3135.69004,0.09898
3137.61851,0.09789
3139.54698,0.09712
3141.47545,0.09946
3143.40391,0.10025
3145.33238,0.09812
3147.26085,0.09871
3149.18932,0.10178
3151.11779,0.10152
3153.04626,0.09917
3154.97473,0.09871
3156.90320,0.09983
3158.83166,0.10220
3160.76013,0.10369
3162.68860,0.10107
3164.61707,0.09721
3166.54554,0.09618
3168.47401,0.09685
3170.40248,0.09883
3172.33094,0.10162
3174.25941,0.10216
3176.18788,0.10215
3178.11635,0.10238
3180.04482,0.10005
3181.97329,0.09821
3183.90176,0.09981
3185.83022,0.10153
3187.75869,0.10066
3189.68716,0.09801
3191.61563,0.09610
3193.54410,0.09741
3195.47257,0.09981
3197.40104,0.10008
3199.32951,0.10018
3201.25797,0.10064
3203.18644,0.09963
3205.11491,0.09860
3207.04338,0.09933
3208.97185,0.09976
3210.90032,0.09727
3212.82879,0.09583
3214.75725,0.09922
3216.68572,0.10206
3218.61419,0.10101
3220.54266,0.10010
3222.47113,0.10136
3224.39960,0.10246
3226.32807,0.10153
3228.25654,0.09993
3230.18500,0.09984
3232.11347,0.10054
3234.04194,0.10035
3235.97041,0.10085
3237.89888,0.10337
3239.82735,0.10445
3241.75582,0.10206
3243.68428,0.10000
3245.61275,0.10028
3247.54122,0.10200
3249.46969,0.10482
3251.39816,0.10505
3253.32663,0.10176
3255.25510,0.09997
3257.18357,0.10141
3259.11203,0.10264
3261.04050,0.10166
3262.96897,0.10090
3264.89744,0.10065
3266.82591,0.09951
3268.75438,0.09905
3270.68285,0.10048
3272.61131,0.10306
3274.53978,0.10493
3276.46825,0.10424
3278.39672,0.10254
3280.32519,0.10354
3282.25366,0.10556
3284.18213,0.10410
3286.11060,0.10068
3288.03906,0.09806
3289.96753,0.09536
3291.89600,0.09485
3293.82447,0.09853
3295.75294,0.09942
3297.68141,0.09506
3299.60988,0.09367
3301.53834,0.09680
3303.46681,0.09936
3305.39528,0.10167
3307.32375,0.10463
3309.25222,0.10607
3311.18069,0.10577
3313.10916,0.10326
3315.03763,0.09933
3316.96609,0.09684
3318.89456,0.09465
3320.82303,0.09262
3322.75150,0.09450
3324.67997,0.09941
3326.60844,0.10127
3328.53691,0.09880
3330.46537,0.09695
3332.39384,0.09756
3334.32231,0.09940
3336.25078,0.10207
3338.17925,0.10235
3340.10772,0.09893
3342.03619,0.09623
3343.96466,0.09648
3345.89312,0.09791
3347.82159,0.09835
3349.75006,0.09771
3351.67853,0.09694
3353.60700,0.09675
3355.53547,0.09826
3357.46394,0.09935
3359.39240,0.09947
3361.32087,0.10004
3363.24934,0.09910
3365.17781,0.09900
3367.10628,0.10237
3369.03475,0.10339
3370.96322,0.09972
3372.89168,0.09716
3374.82015,0.09630
3376.74862,0.09404
3378.67709,0.09367
3380.60556,0.09675
3382.53403,0.10056
3384.46250,0.10497
3386.39097,0.10776
3388.31943,0.10633
3390.24790,0.10428
3392.17637,0.10435
3394.10484,0.10433
3396.03331,0.10401
3397.96178,0.10555
3399.89025,0.10707
3401.81871,0.10532
3403.74718,0.09979
3405.67565,0.09483
3407.60412,0.09610
3409.53259,0.09861
3411.46106,0.09633
3413.38953,0.09348
3415.31800,0.09334
3417.24646,0.09500
3419.17493,0.09489
3421.10340,0.09216
3423.03187,0.09201
3424.96034,0.09518
3426.88881,0.09916
3428.81728,0.10320
3430.74574,0.10448
3432.67421,0.10067
3434.60268,0.09477
3436.53115,0.09209
3438.45962,0.09412
3440.38809,0.09826
3442.31656,0.10221
3444.24503,0.10413
3446.17349,0.10200
3448.10196,0.09740
3450.03043,0.09375
3451.95890,0.09196
3453.88737,0.09374
3455.81584,0.09726
3457.74431,0.09538
3459.67277,0.08974
3461.60124,0.08925
3463.52971,0.09270
3465.45818,0.09289
3467.38665,0.09085
3469.31512,0.09049
3471.24359,0.09144
3473.17206,0.09193
3475.10052,0.09038
3477.02899,0.08891
3478.95746,0.08980
3480.88593,0.08990
3482.81440,0.08818
3484.74287,0.08705
3486.67134,0.08674
3488.59980,0.08689
3490.52827,0.08695
3492.45674,0.08634
3494.38521,0.08741
3496.31368,0.09010
3498.24215,0.08943
3500.17062,0.08777
3502.09909,0.08971
3504.02755,0.09037
3505.95602,0.08728
3507.88449,0.08618
3509.81296,0.08769
3511.74143,0.08697
3513.66990,0.08489
3515.59837,0.08507
3517.52683,0.08756
3519.45530,0.08886
3521.38377,0.08748
3523.31224,0.08663
3525.24071,0.08671
3527.16918,0.08534
3529.09765,0.08389
3531.02611,0.08422
3532.95458,0.08357
3534.88305,0.08153
3536.81152,0.08002
3538.73999,0.07653
3540.66846,0.07207
3542.59693,0.07103
3544.52540,0.07283
3546.45386,0.07653
3548.38233,0.08381
3550.31080,0.08950
3552.23927,0.08672
3554.16774,0.08002
3556.09621,0.07753
3558.02468,0.07885
3559.95314,0.07975
3561.88161,0.07905
3563.81008,0.07952
3565.73855,0.08117
3567.66702,0.08201
3569.59549,0.08125
3571.52396,0.07732
3573.45243,0.07258
3575.38089,0.07327
3577.30936,0.07618
3579.23783,0.07303
3581.16630,0.06749
3583.09477,0.06731
3585.02324,0.07138
3586.95171,0.07335
3588.88017,0.07085
3590.80864,0.06966
3592.73711,0.07162
3594.66558,0.07505
3596.59405,0.07755
3598.52252,0.07480
3600.45099,0.06774
3602.37946,0.06418
3604.30792,0.06332
3606.23639,0.06233
3608.16486,0.06575
3610.09333,0.07041
3612.02180,0.06993
3613.95027,0.06993
3615.87874,0.07543
3617.80720,0.08033
3619.73567,0.07761
3621.66414,0.07423
3623.59261,0.07466
3625.52108,0.07499
3627.44955,0.07565
3629.37802,0.07459
3631.30649,0.06907
3633.23495,0.06571
3635.16342,0.06525
3637.09189,0.06543
3639.02036,0.06569
3640.94883,0.06607
3642.87730,0.06649
3644.80577,0.06883
3646.73423,0.07536
3648.66270,0.07837
3650.59117,0.06933
3652.51964,0.06564
3654.44811,0.06803
3656.37658,0.06919
3658.30505,0.06831
3660.23352,0.06808
3662.16198,0.06707
3664.09045,0.06543
3666.01892,0.06561
3667.94739,0.06654
3669.87586,0.06456
3671.80433,0.06086
3673.73280,0.06035
3675.66126,0.06075
3677.58973,0.05825
3679.51820,0.05810
3681.44667,0.06060
3683.37514,0.06157
3685.30361,0.06024
3687.23208,0.06098
3689.16055,0.06714
3691.08901,0.06842
3693.01748,0.06353
3694.94595,0.06075
3696.87442,0.06026
3698.80289,0.06062
3700.73136,0.06072
3702.65983,0.05943
3704.58829,0.05829
3706.51676,0.05988
3708.44523,0.06430
3710.37370,0.06739
3712.30217,0.06583
3714.23064,0.06298
3716.15911,0.05906
3718.08757,0.05431
3720.01604,0.05342
3721.94451,0.05636
3723.87298,0.05729
3725.80145,0.05712
3727.72992,0.05857
3729.65839,0.06086
3731.58686,0.06552
3733.51532,0.07331
3735.44379,0.07406
3737.37226,0.06291
3739.30073,0.05676
3741.22920,0.06105
3743.15767,0.07023
3745.08614,0.07600
3747.01460,0.07738
3748.94307,0.08157
3750.87154,0.08386
3752.80001,0.07699
3754.72848,0.07099
3756.65695,0.06752
3758.58542,0.06260
3760.51389,0.05807
3762.44235,0.05763
3764.37082,0.05919
3766.29929,0.05879
3768.22776,0.05520
3770.15623,0.05170
3772.08470,0.05081
3774.01317,0.05196
3775.94163,0.05552
3777.87010,0.06003
3779.79857,0.06101
3781.72704,0.05981
3783.65551,0.06107
3785.58398,0.06305
3787.51245,0.06199
3789.44092,0.05885
3791.36938,0.05724
3793.29785,0.05848
3795.22632,0.06138
3797.15479,0.06461
3799.08326,0.06710
3801.01173,0.06876
3802.94020,0.06928
3804.86866,0.07022
3806.79713,0.06874
3808.72560,0.06117
3810.65407,0.05506
3812.58254,0.05449
3814.51101,0.05907
3816.43948,0.06445
3818.36795,0.06461
3820.29641,0.06506
3822.22488,0.06772
3824.15335,0.06933
3826.08182,0.07070
3828.01029,0.06985
3829.93876,0.06597
3831.86723,0.06214
3833.79569,0.06051
3835.72416,0.05832
3837.65263,0.05575
3839.58110,0.05925
3841.50957,0.06574
3843.43804,0.06623
3845.36651,0.05832
3847.29498,0.04904
3849.22344,0.04588
3851.15191,0.05259
3853.08038,0.06650
3855.00885,0.06833
3856.93732,0.06372
3858.86579,0.06239
3860.79426,0.06265
3862.72272,0.06204
3864.65119,0.05798
3866.57966,0.05363
3868.50813,0.05295
3870.43660,0.05568
3872.36507,0.05776
3874.29354,0.05466
3876.22200,0.04918
3878.15047,0.04863
3880.07894,0.05444
3882.00741,0.05951
3883.93588,0.05914
3885.86435,0.05619
3887.79282,0.05314
3889.72129,0.05082
3891.64975,0.05064
3893.57822,0.05446
3895.50669,0.05809
3897.43516,0.05775
3899.36363,0.05488
3901.29210,0.05341
3903.22057,0.05569
3905.14903,0.05986
3907.07750,0.05987
3909.00597,0.05731
3910.93444,0.05483
3912.86291,0.05294
3914.79138,0.05394
3916.71985,0.05600
3918.64832,0.05681
3920.57678,0.05742
3922.50525,0.05579
3924.43372,0.05219
3926.36219,0.04899
3928.29066,0.04730
3930.21913,0.04669
3932.14760,0.04591
3934.07606,0.04867
3936.00453,0.05445
3937.93300,0.05510
3939.86147,0.04997
3941.78994,0.04606
3943.71841,0.04638
3945.64688,0.04900
3947.57535,0.05145
3949.50381,0.05187
3951.43228,0.05104
3953.36075,0.05090
3955.28922,0.05119
3957.21769,0.05208
3959.14616,0.05332
3961.07463,0.05293
3963.00309,0.05223
3964.93156,0.05252
3966.86003,0.05094
3968.78850,0.04827
3970.71697,0.04909
3972.64544,0.05230
3974.57391,0.05414
3976.50238,0.05473
3978.43084,0.05371
3980.35931,0.05259
3982.28778,0.05465
3984.21625,0.05610
3986.14472,0.05402
3988.07319,0.05123
3990.00166,0.04852
3991.93012,0.04620
3993.85859,0.04443
3995.78706,0.04418
3997.71553,0.04707
3999.64400,0.04981
4001.57247,0.04987
4003.50094,0.04921
4005.42941,0.04965
4007.35787,0.05158
4009.28634,0.05298
4011.21481,0.05112
4013.14328,0.04724
4015.07175,0.04447
4017.00022,0.04413
4018.92869,0.04591
4020.85715,0.04808
4022.78562,0.04803
4024.71409,0.04500
4026.64256,0.04161
4028.57103,0.04162
4030.49950,0.04632
4032.42797,0.05145
4034.35644,0.05220
4036.28490,0.05063
4038.21337,0.04928
4040.14184,0.04726
4042.07031,0.04497
4043.99878,0.04303
4045.92725,0.04168
4047.85572,0.04155
4049.78418,0.04233
4051.71265,0.04376
4053.64112,0.04532
4055.56959,0.04591
4057.49806,0.04644
4059.42653,0.04873
4061.35500,0.05267
4063.28346,0.05406
4065.21193,0.05043
4067.14040,0.04569
4069.06887,0.04237
4070.99734,0.04176
4072.92581,0.04476
4074.85428,0.04659
4076.78275,0.04405
4078.71121,0.04166
4080.63968,0.04280
4082.56815,0.04453
4084.49662,0.04493
4086.42509,0.04425
4088.35356,0.04107
4090.28203,0.03783
4092.21049,0.03879
4094.13896,0.04181
4096.06743,0.04287
4097.99590,0.04171
4099.92437,0.04095
4101.85284,0.04202
4103.78131,0.04219
4105.70978,0.03872
4107.63824,0.03501
4109.56671,0.03620
4111.49518,0.04063
4113.42365,0.04327
4115.35212,0.04336
4117.28059,0.04332
4119.20906,0.04312
4121.13752,0.04160
4123.06599,0.04061
4124.99446,0.04183
4126.92293,0.04375
4128.85140,0.04486
4130.77987,0.04559
4132.70834,0.04372
4134.63681,0.03910
4136.56527,0.03798
4138.49374,0.04081
4140.42221,0.04252
4142.35068,0.04144
4144.27915,0.04003
4146.20762,0.04165
4148.13609,0.04369
4150.06455,0.04280
4151.99302,0.04238
4153.92149,0.04272
4155.84996,0.03965
4157.77843,0.03553
4159.70690,0.03385
4161.63537,0.03119
4163.56384,0.02703
4165.49230,0.02706
4167.42077,0.03092
4169.34924,0.03352
4171.27771,0.03537
4173.20618,0.03768
4175.13465,0.03759
4177.06312,0.03277
4178.99158,0.02732
4180.92005,0.02673
4182.84852,0.02998
4184.77699,0.03463
4186.70546,0.03693
4188.63393,0.03555
4190.56240,0.03421
4192.49087,0.03169
4194.41933,0.02872
4196.34780,0.03114
4198.27627,0.03659
4200.20474,0.03612
4202.13321,0.03117
4204.06168,0.03097
4205.99015,0.03376
4207.91861,0.03342
4209.84708,0.03248
4211.77555,0.03339
4213.70402,0.03330
4215.63249,0.03096
4217.56096,0.02739
4219.48943,0.02525
4221.41789,0.02808
4223.34636,0.03327
4225.27483,0.03594
4227.20330,0.03518
4229.13177,0.03316
4231.06024,0.03087
4232.98871,0.02570
4234.91718,0.02071
4236.84564,0.02209
4238.77411,0.02811
4240.70258,0.03198
4242.63105,0.03200
4244.55952,0.03200
4246.48799,0.03162
4248.41646,0.02850
4250.34492,0.02365
4252.27339,0.01932
4254.20186,0.01881
4256.13033,0.02311
4258.05880,0.02693
4259.98727,0.02705
4261.91574,0.02705
4263.84421,0.02788
4265.77267,0.02931
4267.70114,0.03286
4269.62961,0.03575
4271.55808,0.03481
4273.48655,0.03014
4275.41502,0.02490
4277.34349,0.02482
4279.27195,0.02987
4281.20042,0.03169
4283.12889,0.02699
4285.05736,0.02295
4286.98583,0.02335
4288.91430,0.02406
4290.84277,0.02286
4292.77124,0.01998
4294.69970,0.01834
4296.62817,0.02199
4298.55664,0.02680
4300.48511,0.02807
4302.41358,0.02805
4304.34205,0.02749
4306.27052,0.02464
4308.19898,0.01998
4310.12745,0.01760
4312.05592,0.01970
4313.98439,0.02349
4315.91286,0.02637
4317.84133,0.02628
4319.76980,0.02391
4321.69827,0.02315
4323.62673,0.02385
4325.55520,0.02488
4327.48367,0.02597
4329.41214,0.02531
4331.34061,0.02270
4333.26908,0.02047
4335.19755,0.01967
4337.12601,0.01861
4339.05448,0.01883
4340.98295,0.02187
4342.91142,0.02443
4344.83989,0.02279
4346.76836,0.01738
4348.69683,0.01509
4350.62530,0.01919
4352.55376,0.02383
4354.48223,0.02441
4356.41070,0.02178
4358.33917,0.01782
4360.26764,0.01472
4362.19611,0.01558
4364.12458,0.02014
4366.05304,0.02503
4367.98151,0.02586
4369.90998,0.02102
4371.83845,0.01615
4373.76692,0.01549
4375.69539,0.01756
4377.62386,0.02072
4379.55232,0.02137
4381.48079,0.01736
4383.40926,0.01460
4385.33773,0.01652
4387.26620,0.01996
4389.19467,0.02142
4391.12314,0.01872
4393.05161,0.01674
4394.98007,0.02008
4396.90854,0.02399
4398.83701,0.02750
4400.76548,0.03292
4402.69395,0.03375
4404.62242,0.02759
4406.55089,0.02222
4408.47935,0.02024
4410.40782,0.01978
4412.33629,0.02148
4414.26476,0.02298
4416.19323,0.02132
4418.12170,0.01942
4420.05017,0.01799
4421.97864,0.01508
4423.90710,0.01192
4425.83557,0.00926
4427.76404,0.00862
4429.69251,0.01120
4431.62098,0.01517
4433.54945,0.01762
4435.47792,0.01449
4437.40638,0.00758
4439.33485,0.00528
4441.26332,0.00732
4443.19179,0.00672
4445.12026,0.00621
4447.04873,0.00948
4448.97720,0.01152
4450.90567,0.01210
4452.83413,0.01296
4454.76260,0.00770
4456.69107,-0.00077
4458.61954,0.00008
4460.54801,0.00792
4462.47648,0.01229
4464.40495,0.01322
4466.33341,0.01341
4468.26188,0.01073
4470.19035,0.00807
4472.11882,0.01019
4474.04729,0.01153
4475.97576,0.00953
4477.90423,0.01089
4479.83270,0.01589
4481.76116,0.01868
4483.68963,0.01480
4485.61810,0.00622
4487.54657,0.00225
4489.47504,0.00397
4491.40351,0.00326
4493.33198,0.00197
4495.26044,0.00599
4497.18891,0.00968
4499.11738,0.00772
4501.04585,0.00521
4502.97432,0.00509
4504.90279,0.00487
4506.83126,0.00181
4508.75973,-0.00144
4510.68819,0.00185
4512.61666,0.00711
4514.54513,0.00883
4516.47360,0.00920
4518.40207,0.00768
4520.33054,0.00763
4522.25901,0.01274
4524.18747,0.01673
4526.11594,0.01319
4528.04441,0.00669
4529.97288,0.00567
4531.90135,0.00829
4533.82982,0.00777
4535.75829,0.00576
4537.68676,0.00467
4539.61522,0.00257
4541.54369,0.00410
4543.47216,0.00877
4545.40063,0.00526
4547.32910,-0.00246
4549.25757,-0.00139
4551.18604,0.00414
4553.11450,0.00660
4555.04297,0.00693
4556.97144,0.00401
4558.89991,-0.00102
4560.82838,-0.00360
4562.75685,-0.00187
4564.68532,0.00501
4566.61378,0.01004
4568.54225,0.00519
4570.47072,-0.00064
4572.39919,0.00039
4574.32766,0.00196
4576.25613,0.00078
4578.18460,-0.00086
4580.11307,-0.00136
4582.04153,0.00065
4583.97000,0.00588
4585.89847,0.00815
4587.82694,0.00186
4589.75541,-0.00458
4591.68388,-0.00277
4593.61235,0.00306
4595.54081,0.00854
4597.46928,0.01434
4599.39775,0.01460
4601.32622,0.00876
4603.25469,0.00659
4605.18316,0.00837
4607.11163,0.01142
4609.04010,0.01407
4610.96856,0.01132
4612.89703,0.00735
4614.82550,0.00759
4616.75397,0.00830
4618.68244,0.00768
4620.61091,0.00611
4622.53938,0.00317
4624.46784,0.00171
4626.39631,0.00263
4628.32478,0.00602
4630.25325,0.01158
4632.18172,0.01370
4634.11019,0.00900
4636.03866,0.00197
4637.96713,0.00028
4639.89559,0.00655
4641.82406,0.01305
4643.75253,0.00942
4645.68100,-0.00136
4647.60947,-0.00355
4649.53794,0.00842
4651.46641,0.01982
4653.39487,0.02057
4655.32334,0.01742
4657.25181,0.01395
4659.18028,0.00943
4661.10875,0.00552
4663.03722,0.00103
4664.96569,-0.00065
4666.89416,0.00328
4668.82262,0.00601
4670.75109,0.00483
4672.67956,0.00270
4674.60803,0.00460
4676.53650,0.01300
4678.46497,0.01770
4680.39344,0.01215
4682.32190,0.00367
4684.25037,-0.00286
4686.17884,-0.00491
4688.10731,-0.00162
4690.03578,-0.00058
4691.96425,-0.00106
4693.89272,0.00662
4695.82119,0.01405
4697.74965,0.00899
4699.67812,0.00088
4701.60659,0.00086
4703.53506,0.00526
4705.46353,0.00784
4707.39200,0.00862
4709.32047,0.00834
4711.24893,0.00544
4713.17740,0.00407
4715.10587,0.00654
4717.03434,0.00584
4718.96281,0.00172
4720.89128,-0.00148
4722.81975,-0.00400
4724.74821,-0.00122
4726.67668,0.00795
4728.60515,0.01217
4730.53362,0.00860
4732.46209,0.00627
4734.39056,0.00476
4736.31903,0.00045
4738.24750,-0.00072
4740.17596,0.00291
4742.10443,0.00656
4744.03290,0.01015
4745.96137,0.01307
4747.88984,0.01294
4749.81831,0.01189
4751.74678,0.01108
4753.67524,0.01051
4755.60371,0.01121
4757.53218,0.00978
4759.46065,0.00451
4761.38912,0.00014
4763.31759,-0.00225
4765.24606,-0.00174
4767.17453,0.00168
4769.10299,-0.00156
4771.03146,-0.00676
4772.95993,-0.00053
4774.88840,0.00734
4776.81687,0.00576
4778.74534,0.00035
4780.67381,-0.00100
4782.60227,0.00377
4784.53074,0.00998
4786.45921,0.00943
4788.38768,-0.00061
4790.31615,-0.00615
4792.24462,0.00385
4794.17309,0.01525
4796.10156,0.01335
4798.03002,0.00284
4799.95849,-0.00501
4801.88696,-0.00468
4803.81543,0.00021
4805.74390,0.00197
4807.67237,-0.00386
4809.60084,-0.01001
4811.52930,-0.00921
4813.45777,-0.00919
4815.38624,-0.01291
4817.31471,-0.01323
4819.24318,-0.00814
4821.17165,0.00096
4823.10012,0.01064
4825.02859,0.01779
4826.95705,0.01900
4828.88552,0.01270
4830.81399,0.00277
4832.74246,-0.00560
4834.67093,-0.00937
4836.59940,-0.01033
4838.52787,-0.00975
4840.45633,-0.00524
4842.38480,0.00063
4844.31327,0.00154
4846.24174,-0.00133
4848.17021,-0.00193
4850.09868,0.00016
4852.02715,0.00241
4853.95562,0.00385
4855.88408,0.00306
4857.81255,0.00116
4859.74102,0.00427
4861.66949,0.01346
4863.59796,0.01899
4865.52643,0.01782
4867.45490,0.01464
4869.38336,0.01198
4871.31183,0.01042
4873.24030,0.00729
4875.16877,0.00313
4877.09724,-0.00223
4879.02571,-0.00723
4880.95418,-0.00207
4882.88265,0.00911
4884.81111,0.01267
4886.73958,0.01011
4888.66805,0.00939
4890.59652,0.01101
4892.52499,0.00970
4894.45346,0.00607
4896.38193,0.00443
4898.31039,0.00003
4900.23886,-0.00867
4902.16733,-0.01321
4904.09580,-0.01133
4906.02427,-0.00520
4907.95274,0.00408
4909.88121,0.01120
4911.80967,0.01270
4913.73814,0.01171
4915.66661,0.00759
4917.59508,0.00229
4919.52355,0.00407
4921.45202,0.01185
4923.38049,0.01990
4925.30896,0.02253
4927.23742,0.01684
4929.16589,0.00943
4931.09436,0.00155
4933.02283,-0.00629
4934.95130,-0.00695
4936.87977,-0.00283
4938.80824,-0.00125
4940.73670,-0.00155
4942.66517,0.00098
4944.59364,0.00637
4946.52211,0.00644
4948.45058,-0.00375
4950.37905,-0.02026
4952.30752,-0.03118
4954.23599,-0.02189
4956.16445,0.00050
4958.09292,0.01403
4960.02139,0.01653
4961.94986,0.01841
4963.87833,0.01859
4965.80680,0.01536
4967.73527,0.01363
4969.66373,0.01411
4971.59220,0.01603
4973.52067,0.01647
4975.44914,0.01153
4977.37761,0.00928
4979.30608,0.01264
4981.23455,0.00899
4983.16302,0.00057
4985.09148,0.00177
4987.01995,0.01152
4988.94842,0.01517
4990.87689,0.00745
4992.80536,0.00041
4994.73383,-0.00239
4996.66230,-0.00580
4998.59076,-0.00045
5000.51923,0.01654
5002.44770,0.02698
5004.37617,0.02134
5006.30464,0.01450
5008.23311,0.01542
5010.16158,0.01278
5012.09005,0.00335
5014.01851,0.00133
5015.94698,0.00577
5017.87545,0.00406
5019.80392,0.00189
5021.73239,0.00869
5023.66086,0.01681
5025.58933,0.01346
5027.51779,0.00291
5029.44626,0.00146
5031.37473,0.00542
5033.30320,0.00206
5035.23167,-0.00017
5037.16014,0.00628
5039.08861,0.01126
5041.01708,0.00683
5042.94554,-0.00033
5044.87401,-0.00447
5046.80248,-0.01061
5048.73095,-0.01594
5050.65942,-0.01002
5052.58789,0.00468
5054.51636,0.01423
5056.44482,0.01039
5058.37329,-0.00233
5060.30176,-0.01394
5062.23023,-0.01495
5064.15870,-0.00394
5066.08717,0.00814
5068.01564,0.01253
5069.94410,0.01456
5071.87257,0.01755
5073.80104,0.01612
5075.72951,0.01113
5077.65798,0.00978
5079.58645,0.01551
5081.51492,0.02633
5083.44339,0.03496
5085.37185,0.03347
5087.30032,0.02587
5089.22879,0.02022
5091.15726,0.01510
5093.08573,0.01584
5095.01420,0.02561
5096.94267,0.02616
5098.87113,0.00874
5100.79960,-0.00964
5102.72807,-0.01477
5104.65654,-0.00542
5106.58501,0.00697
5108.51348,0.00582
5110.44195,-0.00557
5112.37042,-0.00666
5114.29888,0.00931
5116.22735,0.02397
5118.15582,0.02444
5120.08429,0.01803
5122.01276,0.01094
5123.94123,0.00512
5125.86970,0.00620
5127.79816,0.01550
5129.72663,0.01955
5131.65510,0.00827
5133.58357,-0.00473
5135.51204,-0.00728
5137.44051,-0.00202
5139.36898,0.00748
5141.29745,0.01446
5143.22591,0.01782
5145.15438,0.02068
5147.08285,0.01038
5149.01132,-0.01180
5150.93979,-0.01368
5152.86826,0.00735
5154.79673,0.02623
5156.72519,0.03741
5158.65366,0.04247
5160.58213,0.04274
5162.51060,0.03391
5164.43907,0.01587
5166.36754,0.00285
5168.29601,0.00004
5170.22448,0.00472
5172.15294,0.01115
5174.08141,0.01452
5176.00988,0.01205
5177.93835,0.00765
5179.86682,0.00819
5181.79529,0.00707
5183.72376,0.00224
5185.65222,0.00521
5187.58069,0.01595
5189.50916,0.01929
5191.43763,0.01761
5193.36610,0.02015
5195.29457,0.02564
5197.22304,0.03950
5199.15151,0.05519
5201.07997,0.05733
5203.00844,0.04616
5204.93691,0.03165
5206.86538,0.02364
5208.79385,0.01767
5210.72232,0.01267
5212.65079,0.00943
5214.57925,0.00333
5216.50772,0.00083
5218.43619,-0.00190
5220.36466,-0.01041
5222.29313,-0.00362
5224.22160,0.02289
5226.15007,0.03923
5228.07854,0.03151
5230.00700,0.02634
5231.93547,0.03334
5233.86394,0.03404
5235.79241,0.02974
5237.72088,0.02395
5239.64935,0.01070
5241.57782,0.00855
5243.50628,0.02446
5245.43475,0.03086
5247.36322,0.02051
5249.29169,0.01251
5251.22016,0.01736
5253.14863,0.02910
5255.07710,0.03323
5257.00556,0.03001
5258.93403,0.03108
5260.86250,0.03346
5262.79097,0.03085
5264.71944,0.02736
5266.64791,0.02960
5268.57638,0.03389
5270.50485,0.02652
5272.43331,0.01058
5274.36178,0.00936
5276.29025,0.02211
5278.21872,0.02730
5280.14719,0.02085
5282.07566,0.01224
5284.00413,0.00792
5285.93259,0.01053
5287.86106,0.01519
5289.78953,0.01458
5291.71800,0.01220
5293.64647,0.01796
5295.57494,0.03541
5297.50341,0.05010
5299.43188,0.03924
5301.36034,0.02147
5303.28881,0.02632
5305.21728,0.03596
5307.14575,0.03860
5309.07422,0.04406
5311.00269,0.04884
5312.93116,0.05221
5314.85962,0.05831
5316.78809,0.06671
5318.71656,0.06281
5320.64503,0.03585
5322.57350,0.01349
5324.50197,0.01849
5326.43044,0.02625
5328.35891,0.01925
5330.28737,0.02295
5332.21584,0.03856
5334.14431,0.03816
5336.07278,0.02966
5338.00125,0.03433
5339.92972,0.04677
5341.85819,0.05515
5343.78665,0.05395
5345.71512,0.03735
5347.64359,0.01915
5349.57206,0.01920
5351.50053,0.02883
5353.42900,0.02852
5355.35747,0.02155
5357.28594,0.01794
5359.21440,0.02000
5361.14287,0.02319
5363.07134,0.01970
5364.99981,0.01641
5366.92828,0.02221
5368.85675,0.02957
5370.78522,0.02785
5372.71368,0.01849
5374.64215,0.01627
5376.57062,0.02962
5378.49909,0.04426
5380.42756,0.05018
5382.35603,0.05274
5384.28450,0.05358
5386.21297,0.04404
5388.14143,0.02693
5390.06990,0.01351
5391.99837,0.01077
5393.92684,0.02033
5395.85531,0.02019
5397.78378,0.00371
5399.71225,-0.00403
5401.64071,0.00727
5403.56918,0.01700
5405.49765,0.01099
5407.42612,0.01244
5409.35459,0.03776
5411.28306,0.06645
5413.21153,0.06860
5415.13999,0.05338
5417.06846,0.04902
5418.99693,0.04986
5420.92540,0.04774
5422.85387,0.04284
5424.78234,0.03260
5426.71081,0.02323
5428.63928,0.02738
5430.56774,0.04272
5432.49621,0.05063
5434.42468,0.04457
5436.35315,0.03190
5438.28162,0.02767
5440.21009,0.03673
5442.13856,0.04275
5444.06702,0.03703
5445.99549,0.03015
5447.92396,0.02987
5449.85243,0.03388
5451.78090,0.03711
5453.70937,0.03874
5455.63784,0.03859
5457.56631,0.03710
5459.49477,0.03815
5461.42324,0.04613
5463.35171,0.05635
5465.28018,0.05431
5467.20865,0.03538
5469.13712,0.01377
5471.06559,0.00597
5472.99405,0.01428
5474.92252,0.02876
5476.85099,0.02879
5478.77946,0.01448
5480.70793,0.00909
5482.63640,0.02104
5484.56487,0.03470
5486.49334,0.03878
5488.42180,0.03312
5490.35027,0.02141
5492.27874,0.02085
5494.20721,0.03520
5496.13568,0.04749
5498.06415,0.04947
5499.99262,0.04182
5501.92108,0.03282
5503.84955,0.02715
5505.77802,0.02586
5507.70649,0.02510
5509.63496,0.02193
5511.56343,0.02178
5513.49190,0.02841
5515.42037,0.04222
5517.34883,0.05044
5519.27730,0.04562
5521.20577,0.03983
5523.13424,0.04104
5525.06271,0.04312
5526.99118,0.03876
5528.91965,0.03821
5530.84811,0.03975
5532.77658,0.02933
5534.70505,0.01924
5536.63352,0.02324
5538.56199,0.03742
5540.49046,0.04663
5542.41893,0.04039
5544.34740,0.03138
5546.27586,0.02988
5548.20433,0.02616
5550.13280,0.01367
5552.06127,0.00333
5553.98974,0.00775
5555.91821,0.02263
5557.84668,0.03149
5559.77514,0.03199
5561.70361,0.03601
5563.63208,0.04078
5565.56055,0.03859
5567.48902,0.03091
5569.41749,0.02865
5571.34596,0.03643
5573.27443,0.04143
5575.20289,0.04257
5577.13136,0.04592
5579.05983,0.05104
5580.98830,0.05582
5582.91677,0.04947
5584.84524,0.03586
5586.77371,0.02940
5588.70217,0.03311
5590.63064,0.04228
5592.55911,0.04403
5594.48758,0.03793
5596.41605,0.03698
5598.34452,0.03581
5600.27299,0.03141
5602.20145,0.03383
5604.12992,0.03999
5606.05839,0.04903
5607.98686,0.06066
5609.91533,0.06604
5611.84380,0.06298
5613.77227,0.05571
5615.70074,0.04653
5617.62920,0.03053
5619.55767,0.02084
5621.48614,0.03128
5623.41461,0.03773
5625.34308,0.03174
5627.27155,0.02294
5629.20002,0.01508
5631.12848,0.01618
5633.05695,0.01520
5634.98542,0.01336
5636.91389,0.01845
5638.84236,0.01521
5640.77083,0.01554
5642.69930,0.03513
5644.62777,0.05491
5646.55623,0.06611
5648.48470,0.07522
5650.41317,0.07583
5652.34164,0.06971
5654.27011,0.05428
5656.19858,0.02383
5658.12705,0.00234
5660.05551,-0.00044
5661.98398,-0.00245
5663.91245,-0.00402
5665.84092,0.01209
5667.76939,0.03823
5669.69786,0.04901
5671.62633,0.05292
5673.55480,0.06630
5675.48326,0.07903
5677.41173,0.09071
5679.34020,0.09657
5681.26867,0.07280
5683.19714,0.03446
5685.12561,0.01774
5687.05408,0.01675
5688.98254,0.02026
5690.91101,0.03422
5692.83948,0.04732
5694.76795,0.05334
5696.69642,0.05891
5698.62489,0.06262
5700.55336,0.05830
5702.48183,0.04262
5704.41029,0.03109
5706.33876,0.02963
5708.26723,0.02543
5710.19570,0.01929
5712.12417,0.00862
5714.05264,-0.00292
5715.98111,0.00984
5717.90957,0.05182
5719.83804,0.09407
5721.76651,0.10661
5723.69498,0.09171
5725.62345,0.07755
5727.55192,0.07578
5729.48039,0.06441
5731.40886,0.03936
5733.33732,0.02535
5735.26579,0.03129
5737.19426,0.04109
5739.12273,0.03670
5741.05120,0.02634
5742.97967,0.01864
5744.90814,0.00499
5746.83660,-0.00026
5748.76507,0.01595
5750.69354,0.03147
5752.62201,0.02959
5754.55048,0.01555
5756.47895,0.00810
5758.40742,0.02446
5760.33588,0.03986
5762.26435,0.02645
5764.19282,0.01205
5766.12129,0.02052
5768.04976,0.03345
5769.97823,0.03723
5771.90670,0.03239
5773.83517,0.02619
5775.76363,0.02745
5777.69210,0.03465
5779.62057,0.04186
5781.54904,0.03861
5783.47751,0.01406
5785.40598,-0.01009
5787.33445,0.00061
5789.26291,0.02659
5791.19138,0.02386
5793.11985,0.00143
5795.04832,-0.00892
5796.97679,-0.00357
5798.90526,0.00752
5800.83373,0.02256
5802.76220,0.04962
5804.69066,0.06580
5806.61913,0.04463
5808.54760,0.02879
5810.47607,0.04234
5812.40454,0.05397
5814.33301,0.05383
5816.26148,0.05121
5818.18994,0.05633
5820.11841,0.07107
5822.04688,0.07078
5823.97535,0.06540
5825.90382,0.08389
5827.83229,0.09935
5829.76076,0.08097
5831.68923,0.04384
5833.61769,0.02278
5835.54616,0.04328
5837.47463,0.07400
5839.40310,0.06864
5841.33157,0.03784
5843.26004,0.02195
5845.18851,0.03926
5847.11697,0.06358
5849.04544,0.06096
5850.97391,0.03935
5852.90238,0.02702
5854.83085,0.03617
5856.75932,0.05705
5858.68779,0.07011
5860.61626,0.07013
5862.54472,0.07212
5864.47319,0.07263
5866.40166,0.05164
5868.33013,0.03699
5870.25860,0.05954
5872.18707,0.09300
5874.11554,0.09297
5876.04400,0.06490
5877.97247,0.05269
5879.90094,0.06144
5881.82941,0.07639
5883.75788,0.08932
5885.68635,0.10224
5887.61482,0.11373
5889.54329,0.10842
5891.47175,0.09071
5893.40022,0.07645
5895.32869,0.06492
5897.25716,0.05239
5899.18563,0.04548
5901.11410,0.03689
5903.04257,0.02476
5904.97103,0.03253
5906.89950,0.05085
5908.82797,0.04346
5910.75644,0.02528
5912.68491,0.03262
5914.61338,0.05312
5916.54185,0.06729
5918.47032,0.07630
5920.39878,0.08525
5922.32725,0.08740
5924.25572,0.06637
5926.18419,0.02881
5928.11266,0.00269
5930.04113,0.00453
5931.96960,0.03845
5933.89806,0.07852
5935.82653,0.07208
5937.75500,0.03817
5939.68347,0.01446
5941.61194,0.00528
5943.54041,0.02329
5945.46888,0.04607
5947.39734,0.05884
5949.32581,0.08257
5951.25428,0.10636
5953.18275,0.09360
5955.11122,0.05314
5957.03969,0.03080
5958.96816,0.04362
5960.89663,0.06503
5962.82509,0.06177
5964.75356,0.04399
5966.68203,0.03556
5968.61050,0.04202
5970.53897,0.04222
5972.46744,0.02571
5974.39591,0.02839
5976.32437,0.03364
5978.25284,0.01714
5980.18131,0.03027
5982.10978,0.06079
5984.03825,0.03855
5985.96672,-0.00606
5987.89519,-0.01240
5989.82366,-0.00321
5991.75212,-0.00189
5993.68059,0.00146
5995.60906,0.01271
5997.53753,0.04304
5999.46600,0.08061
6001.39447,0.08617
6003.32294,0.07060
6005.25140,0.06939
6007.17987,0.06788
6009.10834,0.05515
6011.03681,0.05227
6012.96528,0.05966
6014.89375,0.06655
6016.82222,0.07957
6018.75069,0.08274
6020.67915,0.05841
6022.60762,0.01963
6024.53609,-0.01015
6026.46456,-0.00006
6028.39303,0.03189
6030.32150,0.04173
6032.24997,0.04673
6034.17843,0.06946
6036.10690,0.07549
6038.03537,0.04817
6039.96384,0.02561
6041.89231,0.02795
6043.82078,0.03967
6045.74925,0.03504
6047.67772,0.01291
6049.60618,-0.01024
6051.53465,-0.01761
6053.46312,0.00542
6055.39159,0.04963
6057.32006,0.07908
6059.24853,0.07823
6061.17700,0.06368
6063.10546,0.05800
6065.03393,0.07981
6066.96240,0.11928
6068.89087,0.13448
6070.81934,0.09544
6072.74781,0.03748
6074.67628,0.02263
6076.60475,0.03732
6078.53321,0.03245
6080.46168,0.01978
6082.39015,0.02479
6084.31862,0.04023
6086.24709,0.06008
6088.17556,0.08378
6090.10403,0.08735
6092.03249,0.06007
6093.96096,0.02837
6095.88943,0.01051
6097.81790,0.00439
6099.74637,0.01223
6101.67484,0.02682
6103.60331,0.02854
6105.53177,0.00980
6107.46024,-0.00755
6109.38871,0.01303
6111.31718,0.04368
6113.24565,0.04007
6115.17412,0.01742
6117.10259,-0.00942
6119.03106,-0.02310
6120.95952,-0.01869
6122.88799,-0.02397
6124.81646,-0.03771
6126.74493,-0.03310
6128.67340,0.01109
6130.60187,0.07954
6132.53034,0.11488
6134.45880,0.09461
6136.38727,0.07865
6138.31574,0.09886
6140.24421,0.09913
6142.17268,0.06146
6144.10115,0.02940
6146.02962,0.00894
6147.95809,-0.01109
6149.88655,-0.00057
6151.81502,0.06272
6153.74349,0.11649
6155.67196,0.10312
6157.60043,0.06665
6159.52890,0.06269
6161.45737,0.07537
6163.38583,0.06985
6165.31430,0.04344
6167.24277,0.01334
6169.17124,0.00487
6171.09971,0.02438
6173.02818,0.04251
6174.95665,0.03848
6176.88512,0.05406
6178.81358,0.09424
6180.74205,0.06880
6182.67052,-0.01076
6184.59899,-0.03954
6186.52746,-0.01366
6188.45593,0.00179
6190.38440,-0.00097
6192.31286,0.02518
6194.24133,0.07278
6196.16980,0.09771
6198.09827,0.09487
6200.02674,0.07347
6201.95521,0.04471
6203.88368,0.03631
6205.81215,0.05827
6207.74061,0.07528
6209.66908,0.04952
6211.59755,0.00358
6213.52602,-0.00546
6215.45449,0.02774
6217.38296,0.05803
6219.31143,0.03598
6221.23989,-0.00342
6223.16836,-0.00581
6225.09683,-0.00862
6227.02530,-0.01600
6228.95377,0.01619
6230.88224,0.04843
6232.81071,0.05321
6234.73918,0.05311
6236.66764,0.04574
6238.59611,0.03286
6240.52458,0.02413
6242.45305,0.01087
6244.38152,0.00161
6246.30999,0.02101
6248.23846,0.04390
6250.16692,0.05273
6252.09539,0.06532
6254.02386,0.04432
6255.95233,-0.00970
6257.88080,-0.01307
6259.80927,0.04750
6261.73774,0.10881
6263.66621,0.13130
6265.59467,0.12455
6267.52314,0.10974
6269.45161,0.08193
6271.38008,0.06489
6273.30855,0.08327
6275.23702,0.09323
6277.16549,0.06355
6279.09395,0.04721
6281.02242,0.06866
6282.95089,0.07255
6284.87936,0.05097
6286.80783,0.05232
6288.73630,0.05932
6290.66477,0.06685
6292.59323,0.07587
6294.52170,0.05585
6296.45017,0.05332
6298.37864,0.08586
6300.30711,0.08590
6302.23558,0.04835
6304.16405,0.04499
6306.09252,0.08811
6308.02098,0.12555
6309.94945,0.13801
6311.87792,0.13535
6313.80639,0.11364
6315.73486,0.07601
6317.66333,0.03483
6319.59180,0.02872
6321.52026,0.07689
6323.44873,0.10000
6325.37720,0.05105
6327.30567,0.00535
6329.23414,0.01551
6331.16261,0.05066
6333.09108,0.06864
6335.01955,0.05905
6336.94801,0.05355
6338.87648,0.06256
6340.80495,0.04613
6342.73342,0.00830
6344.66189,-0.00014
6346.59036,0.02411
6348.51883,0.03459
6350.44729,0.02888
6352.37576,0.03983
6354.30423,0.05486
6356.23270,0.04615
6358.16117,0.01567
6360.08964,-0.01378
6362.01811,-0.01734
6363.94658,0.01019
6365.87504,0.04397
6367.80351,0.04782
6369.73198,0.02394
6371.66045,0.01868
6373.58892,0.06066
6375.51739,0.10604
6377.44586,0.10876
6379.37432,0.09671
6381.30279,0.09124
6383.23126,0.06680
6385.15973,0.04085
6387.08820,0.03824
6389.01667,0.04389
6390.94514,0.03696
6392.87361,-0.00130
6394.80207,-0.02092
6396.73054,0.01851
6398.65901,0.06265
6400.58748,0.05167
6402.51595,0.00714
6404.44442,-0.00183
6406.37289,0.00814
6408.30135,-0.00941
6410.22982,-0.00586
6412.15829,0.05840
6414.08676,0.11076
6416.01523,0.10521
6417.94370,0.07822
6419.87217,0.07500
6421.80064,0.09536
6423.72910,0.10561
6425.65757,0.09106
6427.58604,0.05915
6429.51451,0.01334
6431.44298,-0.01375
6433.37145,0.00070
6435.29992,0.01804
6437.22838,0.02750
6439.15685,0.05315
6441.08532,0.09942
6443.01379,0.12874
6444.94226,0.08728
6446.87073,0.02889
6448.79920,0.01595
6450.72766,0.02642
6452.65613,0.03580
6454.58460,0.04308
6456.51307,0.06140
6458.44154,0.08209
6460.37001,0.07648
6462.29848,0.05083
6464.22695,0.01513
6466.15541,-0.01052
6468.08388,0.01248
6470.01235,0.04355
6471.94082,0.03252
6473.86929,0.02570
6475.79776,0.04698
6477.72623,0.08592
6479.65469,0.09513
6481.58316,0.05461
6483.51163,0.05658
6485.44010,0.09035
6487.36857,0.05176
6489.29704,-0.03833
6491.22551,-0.07090
6493.15398,-0.02685
6495.08244,0.01688
6497.01091,0.01447
6498.93938,-0.01024
6500.86785,-0.00759
6502.79632,0.01293
6504.72479,0.03058
6506.65326,0.05475
6508.58172,0.06744
6510.51019,0.04133
6512.43866,-0.01446
6514.36713,-0.03008
6516.29560,0.00882
6518.22407,0.03963
6520.15254,0.04583
6522.08101,0.06244
6524.00947,0.11551
6525.93794,0.17605
6527.86641,0.18433
6529.79488,0.16281
6531.72335,0.16297
6533.65182,0.14950
6535.58029,0.09405
6537.50875,0.03190
6539.43722,-0.00865
6541.36569,0.01105
6543.29416,0.07237
6545.22263,0.07529
6547.15110,0.03263
6549.07957,0.03021
6551.00804,0.05783
6552.93650,0.04217
6554.86497,-0.03449
6556.79344,-0.10206
6558.72191,-0.07514
6560.65038,0.00423
6562.57885,0.05949
6564.50732,0.09523
6566.43578,0.10324
6568.36425,0.09500
6570.29272,0.10111
6572.22119,0.10555
6574.14966,0.10630
6576.07813,0.11885
6578.00660,0.13160
6579.93507,0.12538
6581.86353,0.10515
6583.79200,0.09279
6585.72047,0.07203
6587.64894,0.01679
6589.57741,-0.03339
6591.50588,-0.03683
6593.43435,-0.00041
6595.36281,0.04618
6597.29128,0.07101
6599.21975,0.06085
6601.14822,0.02057
6603.07669,-0.00664
6605.00516,0.00078
6606.93363,0.01897
6608.86210,0.02265
6610.79056,-0.01426
6612.71903,-0.04515
6614.64750,-0.00693
6616.57597,0.02590
6618.50444,0.00785
6620.43291,0.02479
6622.36138,0.09503
6624.28984,0.12751
6626.21831,0.07505
6628.14678,-0.00293
6630.07525,-0.01979
6632.00372,0.00510
6633.93219,-0.00061
6635.86066,-0.01549
6637.78912,-0.01270
6639.71759,-0.00215
6641.64606,0.01933
6643.57453,0.01297
6645.50300,-0.01960
6647.43147,0.00434
6649.35994,0.07654
6651.28841,0.11123
6653.21687,0.10568
6655.14534,0.11169
6657.07381,0.09266
6659.00228,-0.01019
6660.93075,-0.09232
6662.85922,-0.06131
6664.78769,0.02157
6666.71615,0.07453
6668.64462,0.05932
6670.57309,0.02668
6672.50156,0.03856
6674.43003,0.04132
6676.35850,0.02460
6678.28697,0.02922
6680.21544,0.02232
6682.14390,-0.01695
6684.07237,-0.03069
6686.00084,0.03605
6687.92931,0.12381
6689.85778,0.10129
6691.78625,0.00198
6693.71472,-0.04344
6695.64318,-0.00843
6697.57165,0.05336
6699.50012,0.06901
6701.42859,0.03775
6703.35706,0.01906
6705.28553,0.04113
6707.21400,0.06638
6709.14247,0.05382
6711.07093,0.04693
6712.99940,0.05050
6714.92787,0.02217
6716.85634,0.01511
6718.78481,0.05428
6720.71328,0.06741
6722.64175,0.06665
6724.57021,0.07341
6726.49868,0.04631
6728.42715,-0.00291
6730.35562,-0.03441
6732.28409,-0.00662
6734.21256,0.08959
6736.14103,0.16343
6738.06950,0.17044
6739.99796,0.15310
6741.92643,0.10244
6743.85490,0.03388
6745.78337,0.01327
6747.71184,0.03600
6749.64031,0.04977
6751.56878,0.05094
6753.49724,0.04546
6755.42571,0.04165
6757.35418,0.06860
6759.28265,0.09318
6761.21112,0.06735
6763.13959,0.04370
6765.06806,0.08928
6766.99653,0.18406
6768.92499,0.23115
6770.85346,0.16589
6772.78193,0.04966
6774.71040,-0.02979
6776.63887,-0.06516
6778.56734,-0.07264
6780.49581,-0.05598
6782.42427,-0.03109
6784.35274,-0.00415
6786.28121,0.00904
6788.20968,-0.00626
6790.13815,0.00064
6792.06662,0.03386
6793.99509,0.01024
6795.92355,-0.03575
6797.85202,-0.01475
6799.78049,0.05257
6801.70896,0.06820
6803.63743,0.01609
6805.56590,0.01283
6807.49437,0.06684
6809.42284,0.09305
6811.35130,0.07936
6813.27977,0.07533
6815.20824,0.08545
6817.13671,0.06291
6819.06518,0.03458
6820.99365,0.05483
6822.92212,0.09978
6824.85058,0.11081
6826.77905,0.10259
6828.70752,0.09355
6830.63599,0.07751
6832.56446,0.06954
6834.49293,0.07560
6836.42140,0.07896
6838.34987,0.08200
6840.27833,0.08416
6842.20680,0.07856
6844.13527,0.03977
6846.06374,-0.03409
6847.99221,-0.05618
6849.92068,-0.01881
6851.84915,-0.02018
6853.77761,-0.02220
6855.70608,0.01595
6857.63455,0.03113
6859.56302,0.01985
6861.49149,0.03864
6863.41996,0.07742
6865.34843,0.09492
6867.27690,0.08618
6869.20536,0.08120
6871.13383,0.08881
6873.06230,0.07330
6874.99077,0.05578
6876.91924,0.08280
6878.84771,0.12791
6880.77618,0.13283
6882.70464,0.07874
6884.63311,-0.00533
6886.56158,-0.08087
6888.49005,-0.09548
6890.41852,-0.01558
6892.34699,0.07710
6894.27546,0.08165
6896.20393,0.05460
6898.13239,0.03956
6900.06086,0.02141
6901.98933,0.02663
6903.91780,0.04849
6905.84627,0.08030
6907.77474,0.11548
6909.70321,0.11702
6911.63167,0.09731
6913.56014,0.07009
6915.48861,0.03650
6917.41708,-0.00648
6919.34555,-0.07168
6921.27402,-0.08724
6923.20249,-0.03880
6925.13096,-0.02593
6927.05942,-0.03117
6928.98789,0.00709
6930.91636,0.05380
6932.84483,0.08450
6934.77330,0.11593
6936.70177,0.12974
6938.63024,0.08535
6940.55870,-0.01269
6942.48717,-0.05134
6944.41564,0.00813
6946.34411,0.09320
6948.27258,0.12475
6950.20105,0.09270
6952.12952,0.05319
6954.05799,0.05099
6955.98645,0.09858
6957.91492,0.13502
6959.84339,0.09135
6961.77186,0.01183
6963.70033,-0.02342
6965.62880,0.01470
6967.55727,0.09870
6969.48573,0.09348
6971.41420,-0.00891
6973.34267,-0.05522
6975.27114,-0.01854
6977.19961,0.05667
6979.12808,0.11754
6981.05655,0.08606
6982.98501,-0.00250
6984.91348,-0.02067
6986.84195,0.02859
6988.77042,0.08800
6990.69889,0.14186
6992.62736,0.14045
6994.55583,0.09259
6996.48430,0.06158
6998.41276,0.05944
7000.34123,0.07137
7002.26970,0.06650
7004.19817,-0.00110
7006.12664,-0.09159
7008.05511,-0.10526
7009.98358,-0.04757
7011.91204,-0.02735
7013.84051,-0.10787
7015.76898,-0.17174
7017.69745,-0.16517
7019.62592,-0.13790
7021.55439,-0.06829
7023.48286,0.02200
7025.41133,0.06821
7027.33979,0.07453
7029.26826,0.04744
7031.19673,0.01334
7033.12520,0.03871
7035.05367,0.10386
7036.98214,0.07505
7038.91061,-0.01816
7040.83907,-0.01716
7042.76754,0.11044
7044.69601,0.17264
7046.62448,0.09143
7048.55295,0.01431
7050.48142,0.03566
7052.40989,0.11445
7054.33836,0.15717
7056.26682,0.08809
7058.19529,-0.00297
7060.12376,0.02033
7062.05223,0.06501
7063.98070,0.04339
7065.90917,0.00624
7067.83764,-0.01565
7069.76610,-0.02406
7071.69457,-0.05119
7073.62304,-0.08231
7075.55151,-0.09582
7077.47998,-0.06693
7079.40845,-0.01562
7081.33692,0.01919
7083.26539,0.05411
7085.19385,0.10795
7087.12232,0.14747
7089.05079,0.09836
7090.97926,0.00928
7092.90773,0.00441
7094.83620,0.08377
7096.76467,0.16538
7098.69313,0.18182
7100.62160,0.09622
7102.55007,0.01970
7104.47854,-0.01883
7106.40701,-0.03801
7108.33548,-0.02764
7110.26395,0.01203
7112.19242,0.05495
7114.12088,0.06509
7116.04935,0.06014
7117.97782,0.05830
7119.90629,0.05395
7121.83476,0.06582
7123.76323,0.06955
7125.69170,0.01552
7127.62016,-0.06618
7129.54863,-0.11670
7131.47710,-0.12338
7133.40557,-0.08195
7135.33404,0.01627
7137.26251,0.16800
7139.19098,0.28736
7141.11944,0.29286
7143.04791,0.23006
7144.97638,0.13648
7146.90485,0.09104
7148.83332,0.10258
7150.76179,0.05333
7152.69026,-0.10576
7154.61873,-0.26215
7156.54719,-0.24336
7158.47566,-0.10455
7160.40413,-0.01520
7162.33260,-0.04064
7164.26107,-0.06350
7166.18954,0.01952
7168.11801,0.13679
7170.04647,0.14006
7171.97494,0.04921
7173.90341,-0.00089
7175.83188,0.01955
7177.76035,0.04338
7179.68882,0.04897
7181.61729,0.08086
7183.54576,0.09010
7185.47422,0.07519
7187.40269,0.08809
7189.33116,0.06589
7191.25963,0.00809
7193.18810,0.00934
7195.11657,0.06921
7197.04504,0.06722
7198.97350,-0.04476
7200.90197,-0.16691
7202.83044,-0.17840
7204.75891,-0.02717
7206.68738,0.08181
7208.61585,0.07774
7210.54432,0.08801
7212.47279,0.10910
7214.40125,0.10407
7216.32972,0.07714
7218.25819,0.03635
7220.18666,0.01055
7222.11513,-0.01051
7224.04360,-0.02749
7225.97207,-0.00216
7227.90053,0.00896
7229.82900,-0.01782
7231.75747,-0.03727
7233.68594,-0.04640
7235.61441,0.02210
7237.54288,0.14681
7239.47135,0.21122
7241.39982,0.20705
7243.32828,0.08512
7245.25675,-0.06355
7247.18522,-0.06007
7249.11369,0.02664
7251.04216,0.12350
7252.97063,0.22178
7254.89910,0.18082
7256.82756,0.08466
7258.75603,0.05797
7260.68450,0.03644
7262.61297,-0.06332
7264.54144,-0.17329
7266.46991,-0.17328
7268.39838,-0.06591
7270.32685,0.06643
7272.25531,0.14417
7274.18378,0.14950
7276.11225,0.12771
7278.04072,0.10875
7279.96919,0.13445
7281.89766,0.14597
7283.82613,0.07883
7285.75459,-0.02267
7287.68306,-0.12897
7289.61153,-0.15678
7291.54000,-0.08090
7293.46847,-0.06891
7295.39694,-0.08475
7297.32541,0.02265
7299.25387,0.16522
7301.18234,0.23221
7303.11081,0.21784
7305.03928,0.11603
7306.96775,-0.02956
7308.89622,-0.03874
7310.82469,0.05955
7312.75316,0.11157
7314.68162,0.19785
7316.61009,0.24974
7318.53856,0.16091
7320.46703,0.09541
7322.39550,0.07717
7324.32397,0.09770
7326.25244,0.14177
7328.18090,0.04507
7330.10937,-0.10842
7332.03784,-0.05425
7333.96631,0.00175
7335.89478,-0.05453
7337.82325,-0.04853
7339.75172,0.08779
7341.68019,0.10542
7343.60865,0.02973
7345.53712,0.02702
7347.46559,0.13557
7349.39406,0.27222
7351.32253,0.26067
7353.25100,0.14389
7355.17947,0.08244
7357.10793,0.06423
7359.03640,0.05423
7360.96487,0.07106
7362.89334,0.08021
7364.82181,0.08116
7366.75028,0.02716
7368.67875,-0.06810
7370.60722,-0.05933
7372.53568,0.03485
7374.46415,0.12185
7376.39262,0.14319
7378.32109,0.12213
7380.24956,0.10511
7382.17803,0.07590
7384.10650,0.08321
7386.03496,0.20221
7387.96343,0.30646
7389.89190,0.32292
7391.82037,0.32920
7393.74884,0.29493
7395.67731,0.18710
7397.60578,0.06419
7399.53425,-0.00876
7401.46271,-0.02560
7403.39118,-0.01066
7405.31965,0.01911
7407.24812,0.05650
7409.17659,0.14324
7411.10506,0.26431
7413.03353,0.28559
7414.96199,0.14915
7416.89046,-0.01033
7418.81893,-0.03127
7420.74740,0.00628
7422.67587,-0.00883
7424.60434,-0.07280
7426.53281,-0.14975
7428.46128,-0.13926
7430.38974,0.04277
7432.31821,0.20153
7434.24668,0.23057
7436.17515,0.25534
7438.10362,0.24273
7440.03209,0.12143
7441.96056,0.06546
7443.88902,0.11751
7445.81749,0.13946
7447.74596,0.10946
7449.67443,0.08748
7451.60290,0.09760
7453.53137,0.06027
7455.45984,-0.02358
7457.38831,-0.07045
7459.31677,-0.06064
7461.24524,0.00167
7463.17371,0.05580
7465.10218,0.04574
7467.03065,0.01164
7468.95912,-0.01941
7470.88759,-0.06412
7472.81605,-0.11443
7474.74452,-0.10139
7476.67299,-0.01592
7478.60146,0.08108
7480.52993,0.10028
7482.45840,0.04609
7484.38687,0.01513
7486.31533,0.04189
7488.24380,0.12809
7490.17227,0.23714
7492.10074,0.30005
7494.02921,0.31783
7495.95768,0.32449
7497.88615,0.25782
