399.19301,-0.10176
401.12148,0.20498
403.04995,0.36336
404.97842,0.23996
406.90689,0.13290
408.83536,0.08986
410.76382,-0.02468
412.69229,-0.15604
414.62076,-0.16462
416.54923,-0.07229
418.47770,0.01106
420.40617,-0.03504
422.33464,-0.06593
424.26311,-0.00910
426.19157,0.03270
428.12004,0.04777
430.04851,0.06953
431.97698,0.01958
433.90545,-0.06831
435.83392,-0.07465
437.76239,-0.00518
439.69085,0.06922
441.61932,0.07907
443.54779,0.02508
445.47626,0.00055
447.40473,0.01467
449.33320,0.02325
451.26167,0.00600
453.19013,-0.03310
455.11860,-0.06235
457.04707,-0.05949
458.97554,-0.04831
460.90401,-0.08521
462.83248,-0.13583
464.76095,-0.11831
466.68942,-0.04615
468.61788,0.01645
470.54635,0.04962
472.47482,0.05658
474.40329,0.05108
476.33176,0.06078
478.26023,0.07261
480.18870,0.07331
482.11716,0.05747
484.04563,0.01714
485.97410,-0.00580
487.90257,0.03017
489.83104,0.07455
491.75951,0.06608
493.68798,0.03196
495.61645,0.02776
497.54491,0.03392
499.47338,0.01070
501.40185,-0.01891
503.33032,-0.02224
505.25879,-0.01533
507.18726,-0.01839
509.11573,-0.02631
511.04419,-0.02173
512.97266,0.00342
514.90113,0.03905
516.82960,0.06444
518.75807,0.07533
520.68654,0.08725
522.61501,0.09996
524.54348,0.10075
526.47194,0.07985
528.40041,0.06112
530.32888,0.06131
532.25735,0.05665
534.18582,0.04751
536.11429,0.06065
538.04276,0.08010
539.97122,0.07305
541.89969,0.04764
543.82816,0.03566
545.75663,0.04333
547.68510,0.04725
549.61357,0.02357
551.54204,-0.06860
553.47051,-0.15036
555.39897,-0.08345
557.32744,0.02496
559.25591,0.03500
561.18438,0.01180
563.11285,0.02047
565.04132,0.05252
566.96979,0.06086
568.89825,0.02961
570.82672,0.00634
572.75519,0.01049
574.68366,0.02058
576.61213,0.02679
578.54060,0.03414
580.46907,0.03844
582.39754,0.04371
584.32600,0.06303
586.25447,0.08605
588.18294,0.08393
590.11141,0.06125
592.03988,0.04505
593.96835,0.04360
595.89682,0.05100
597.82528,0.05579
599.75375,0.05712
601.68222,0.06350
603.61069,0.06710
605.53916,0.05979
607.46763,0.06151
609.39610,0.07247
611.32456,0.06751
613.25303,0.05449
615.18150,0.05242
617.10997,0.05909
619.03844,0.06974
620.96691,0.08136
622.89538,0.08259
624.82385,0.06504
626.75231,0.03723
628.68078,0.02464
630.60925,0.04361
632.53772,0.06142
634.46619,0.04832
636.39466,0.03087
638.32313,0.02325
640.25159,0.01769
642.18006,0.02037
644.10853,0.02665
646.03700,0.03326
647.96547,0.05211
649.89394,0.06798
651.82241,0.06431
653.75088,0.06070
655.67934,0.06625
657.60781,0.06217
659.53628,0.04731
661.46475,0.04110
663.39322,0.04194
665.32169,0.04011
667.25016,0.03280
669.17862,0.03386
671.10709,0.05260
673.03556,0.06693
674.96403,0.06925
676.89250,0.05559
678.82097,0.03571
680.74944,0.03340
682.67791,0.04486
684.60637,0.04861
686.53484,0.04207
688.46331,0.03836
690.39178,0.04763
692.32025,0.05807
694.24872,0.05961
696.17719,0.06450
698.10565,0.07222
700.03412,0.07385
701.96259,0.07397
703.89106,0.07123
705.81953,0.06372
707.74800,0.06062
709.67647,0.06546
711.60494,0.06896
713.53340,0.06571
715.46187,0.06068
717.39034,0.05522
719.31881,0.04841
721.24728,0.04559
723.17575,0.04878
725.10422,0.05409
727.03268,0.05893
728.96115,0.06250
730.88962,0.06543
732.81809,0.06383
734.74656,0.05424
736.67503,0.04446
738.60350,0.04235
740.53197,0.04748
742.46043,0.05333
744.38890,0.05651
746.31737,0.05627
748.24584,0.04999
750.17431,0.04602
752.10278,0.05255
754.03125,0.05827
755.95971,0.05424
757.88818,0.05304
759.81665,0.06154
761.74512,0.06447
763.67359,0.05756
765.60206,0.05191
767.53053,0.04888
769.45900,0.04729
771.38746,0.04666
773.31593,0.04639
775.24440,0.05161
777.17287,0.05980
779.10134,0.06114
781.02981,0.05557
782.95828,0.05410
784.88674,0.06350
786.81521,0.07332
788.74368,0.07008
790.67215,0.05622
792.60062,0.04710
794.52909,0.04999
796.45756,0.05196
798.38602,0.04527
800.31449,0.03929
802.24296,0.04032
804.17143,0.04267
806.09990,0.04332
808.02837,0.04637
809.95684,0.05207
811.88531,0.05667
813.81377,0.06123
815.74224,0.06815
817.67071,0.06693
819.59918,0.05299
821.52765,0.04024
823.45612,0.03509
825.38459,0.03699
827.31305,0.05079
829.24152,0.07259
831.16999,0.08454
833.09846,0.08092
835.02693,0.07479
836.95540,0.07001
838.88387,0.06333
840.81234,0.05704
842.74080,0.05176
844.66927,0.05067
846.59774,0.05523
848.52621,0.05921
850.45468,0.06118
852.38315,0.06187
854.31162,0.05939
856.24008,0.05703
858.16855,0.06002
860.09702,0.06532
862.02549,0.06504
863.95396,0.06241
865.88243,0.06372
867.81090,0.06439
869.73937,0.05971
871.66783,0.05389
873.59630,0.05282
875.52477,0.05238
877.45324,0.04986
879.38171,0.05144
881.31018,0.05750
883.23865,0.06202
885.16711,0.06019
887.09558,0.05477
889.02405,0.05242
890.95252,0.05198
892.88099,0.04975
894.80946,0.04957
896.73793,0.05361
898.66640,0.05506
900.59486,0.05281
902.52333,0.05325
904.45180,0.05733
906.38027,0.05896
908.30874,0.05775
910.23721,0.06144
912.16568,0.06639
914.09414,0.06577
916.02261,0.06306
917.95108,0.06031
919.87955,0.05948
921.80802,0.06174
923.73649,0.06328
925.66496,0.06429
927.59343,0.06676
929.52189,0.06571
931.45036,0.05941
933.37883,0.05599
935.30730,0.06042
937.23577,0.06773
939.16424,0.07037
941.09271,0.06842
943.02117,0.06792
944.94964,0.06792
946.87811,0.06161
948.80658,0.05234
950.73505,0.04954
952.66352,0.05334
954.59199,0.05995
956.52045,0.06590
958.44892,0.06570
960.37739,0.05971
962.30586,0.05745
964.23433,0.06373
966.16280,0.06977
968.09127,0.07009
970.01974,0.06950
971.94820,0.06874
973.87667,0.06584
975.80514,0.06439
977.73361,0.06602
979.66208,0.06629
981.59055,0.06198
983.51902,0.05502
985.44748,0.05069
987.37595,0.05029
989.30442,0.05207
991.23289,0.05636
993.16136,0.06065
995.08983,0.06205
997.01830,0.06280
998.94677,0.06591
1000.87523,0.06816
1002.80370,0.06538
1004.73217,0.06259
1006.66064,0.06457
1008.58911,0.06686
1010.51758,0.06616
1012.44605,0.06645
1014.37451,0.06815
1016.30298,0.06657
1018.23145,0.06275
1020.15992,0.06167
1022.08839,0.06515
1024.01686,0.06852
1025.94533,0.06486
1027.87380,0.05873
1029.80226,0.06034
1031.73073,0.06617
1033.65920,0.06903
1035.58767,0.06690
1037.51614,0.05818
1039.44461,0.05268
1041.37308,0.05728
1043.30154,0.06128
1045.23001,0.06112
1047.15848,0.06340
1049.08695,0.06708
1051.01542,0.06849
1052.94389,0.06728
1054.87236,0.06251
1056.80083,0.05844
1058.72929,0.06087
1060.65776,0.06620
1062.58623,0.07020
1064.51470,0.07001
1066.44317,0.06309
1068.37164,0.05741
1070.30011,0.06194
1072.22857,0.07211
1074.15704,0.07620
1076.08551,0.07185
1078.01398,0.06689
1079.94245,0.06611
1081.87092,0.06910
1083.79939,0.07158
1085.72786,0.07171
1087.65632,0.07452
1089.58479,0.07588
1091.51326,0.07079
1093.44173,0.06630
1095.37020,0.06451
1097.29867,0.06198
1099.22714,0.06308
1101.15560,0.07153
1103.08407,0.07773
1105.01254,0.07618
1106.94101,0.07465
1108.86948,0.07614
1110.79795,0.07745
1112.72642,0.07510
1114.65489,0.06873
1116.58335,0.06282
1118.51182,0.06104
1120.44029,0.06262
1122.36876,0.06471
1124.29723,0.06590
1126.22570,0.06677
1128.15417,0.06758
1130.08263,0.06750
1132.01110,0.06826
1133.93957,0.06948
1135.86804,0.06778
1137.79651,0.06527
1139.72498,0.06711
1141.65345,0.07256
1143.58191,0.07303
1145.51038,0.06834
1147.43885,0.06852
1149.36732,0.07320
1151.29579,0.07700
1153.22426,0.07920
1155.15273,0.07866
1157.08120,0.07513
1159.00966,0.07111
1160.93813,0.06995
1162.86660,0.07118
1164.79507,0.07136
1166.72354,0.07028
1168.65201,0.06962
1170.58048,0.07122
1172.50894,0.07457
1174.43741,0.07670
1176.36588,0.07753
1178.29435,0.07729
1180.22282,0.07649
1182.15129,0.07781
1184.07976,0.08068
1186.00823,0.07993
1187.93669,0.07400
1189.86516,0.06936
1191.79363,0.06903
1193.72210,0.07033
1195.65057,0.07248
1197.57904,0.07325
1199.50751,0.07071
1201.43597,0.06668
1203.36444,0.06386
1205.29291,0.06431
1207.22138,0.06559
1209.14985,0.06382
1211.07832,0.06223
1213.00679,0.06389
1214.93526,0.06453
1216.86372,0.06404
1218.79219,0.06745
1220.72066,0.07192
1222.64913,0.07314
1224.57760,0.07258
1226.50607,0.07176
1228.43454,0.07242
1230.36300,0.07332
1232.29147,0.07181
1234.21994,0.07082
1236.14841,0.07168
1238.07688,0.07178
1240.00535,0.07014
1241.93382,0.06814
1243.86229,0.06789
1245.79075,0.07044
1247.71922,0.07323
1249.64769,0.07207
1251.57616,0.06786
1253.50463,0.06527
1255.43310,0.06623
1257.36157,0.06846
1259.29003,0.06891
1261.21850,0.06812
1263.14697,0.06951
1265.07544,0.07327
1267.00391,0.07549
1268.93238,0.07578
1270.86085,0.07672
1272.78932,0.07643
1274.71778,0.07373
1276.64625,0.07246
1278.57472,0.07348
1280.50319,0.07352
1282.43166,0.07236
1284.36013,0.07183
1286.28860,0.07077
1288.21706,0.06998
1290.14553,0.07147
1292.07400,0.07091
1294.00247,0.06750
1295.93094,0.06702
1297.85941,0.06938
1299.78788,0.06889
1301.71634,0.06349
1303.64481,0.05747
1305.57328,0.05701
1307.50175,0.06338
1309.43022,0.07081
1311.35869,0.07503
1313.28716,0.07635
1315.21563,0.07369
1317.14409,0.06975
1319.07256,0.07139
1321.00103,0.07572
1322.92950,0.07510
1324.85797,0.07143
1326.78644,0.07017
1328.71491,0.07077
1330.64337,0.06966
1332.57184,0.06890
1334.50031,0.07075
1336.42878,0.07167
1338.35725,0.07075
1340.28572,0.06926
1342.21419,0.06772
1344.14266,0.06787
1346.07112,0.06951
1347.99959,0.07046
1349.92806,0.07031
1351.85653,0.07024
1353.78500,0.07053
1355.71347,0.07201
1357.64194,0.07420
1359.57040,0.07469
1361.49887,0.07515
1363.42734,0.07733
1365.35581,0.07720
1367.28428,0.07436
1369.21275,0.07231
1371.14122,0.07325
1373.06969,0.07615
1374.99815,0.07535
1376.92662,0.07134
1378.85509,0.07199
1380.78356,0.07519
1382.71203,0.07450
1384.64050,0.07292
1386.56897,0.07588
1388.49743,0.07879
1390.42590,0.07698
1392.35437,0.07625
1394.28284,0.08013
1396.21131,0.08330
1398.13978,0.08047
1400.06825,0.07564
1401.99672,0.07524
1403.92518,0.07768
1405.85365,0.07842
1407.78212,0.07957
1409.71059,0.08065
1411.63906,0.07697
1413.56753,0.07364
1415.49600,0.07646
1417.42446,0.08063
1419.35293,0.08042
1421.28140,0.07968
1423.20987,0.08004
1425.13834,0.07914
1427.06681,0.07856
1428.99528,0.07959
1430.92375,0.07944
1432.85221,0.07746
1434.78068,0.07744
1436.70915,0.08006
1438.63762,0.08010
1440.56609,0.07805
1442.49456,0.07690
1444.42303,0.07693
1446.35149,0.07882
1448.27996,0.08084
1450.20843,0.08062
1452.13690,0.08116
1454.06537,0.08438
1455.99384,0.08836
1457.92231,0.08395
1459.85077,0.07632
1461.77924,0.07556
1463.70771,0.07809
1465.63618,0.08019
1467.56465,0.08032
1469.49312,0.08009
1471.42159,0.08277
1473.35006,0.08849
1475.27852,0.08871
1477.20699,0.08370
1479.13546,0.08000
1481.06393,0.08008
1482.99240,0.08170
1484.92087,0.08289
1486.84934,0.08466
1488.77780,0.08542
1490.70627,0.08156
1492.63474,0.07678
1494.56321,0.07464
1496.49168,0.07711
1498.42015,0.08351
1500.34862,0.08774
1502.27709,0.08976
1504.20555,0.09385
1506.13402,0.10242
1508.06249,0.10421
1509.99096,0.09789
1511.91943,0.09191
1513.84790,0.08723
1515.77637,0.08523
1517.70483,0.08380
1519.63330,0.08290
1521.56177,0.08759
1523.49024,0.09282
1525.41871,0.09137
1527.34718,0.08612
1529.27565,0.08329
1531.20412,0.08462
1533.13258,0.08683
1535.06105,0.08896
1536.98952,0.09398
1538.91799,0.10184
1540.84646,0.10296
1542.77493,0.09810
1544.70340,0.09487
1546.63186,0.08982
1548.56033,0.08641
1550.48880,0.08745
1552.41727,0.09107
1554.34574,0.09337
1556.27421,0.09184
1558.20268,0.08703
1560.13115,0.08232
1562.05961,0.07993
1563.98808,0.07878
1565.91655,0.08014
1567.84502,0.08361
1569.77349,0.08523
1571.70196,0.08368
1573.63043,0.08394
1575.55889,0.08679
1577.48736,0.08822
1579.41583,0.08752
1581.34430,0.08518
1583.27277,0.08184
1585.20124,0.08116
1587.12971,0.08367
1589.05818,0.08596
1590.98664,0.08588
1592.91511,0.08427
1594.84358,0.08278
1596.77205,0.08261
1598.70052,0.08379
1600.62899,0.08480
1602.55746,0.08430
1604.48592,0.08326
1606.41439,0.08334
1608.34286,0.08333
1610.27133,0.08281
1612.19980,0.08462
1614.12827,0.08857
1616.05674,0.09027
1617.98521,0.08689
1619.91367,0.08440
1621.84214,0.08491
1623.77061,0.08565
1625.69908,0.08553
1627.62755,0.08550
1629.55602,0.08433
1631.48449,0.08303
1633.41295,0.08399
1635.34142,0.08745
1637.26989,0.08930
1639.19836,0.08845
1641.12683,0.08801
1643.05530,0.08965
1644.98377,0.09358
1646.91223,0.09598
1648.84070,0.09234
1650.76917,0.08916
1652.69764,0.09265
1654.62611,0.09546
1656.55458,0.08973
1658.48305,0.08379
1660.41152,0.08017
1662.33998,0.08087
1664.26845,0.08368
1666.19692,0.08542
1668.12539,0.08877
1670.05386,0.09310
1671.98233,0.09478
1673.91080,0.09516
1675.83926,0.09325
1677.76773,0.09122
1679.69620,0.09214
1681.62467,0.09523
1683.55314,0.09615
1685.48161,0.09130
1687.41008,0.08900
1689.33855,0.08766
1691.26701,0.08511
1693.19548,0.08515
1695.12395,0.08889
1697.05242,0.09084
1698.98089,0.08857
1700.90936,0.08736
1702.83783,0.08840
1704.76629,0.08922
1706.69476,0.08782
1708.62323,0.08481
1710.55170,0.08252
1712.48017,0.08329
1714.40864,0.08785
1716.33711,0.09134
1718.26558,0.08799
1720.19404,0.08371
1722.12251,0.08181
1724.05098,0.08033
1725.97945,0.07893
1727.90792,0.07893
1729.83639,0.07982
1731.76486,0.08062
1733.69332,0.08275
1735.62179,0.08488
1737.55026,0.08500
1739.47873,0.08551
1741.40720,0.08645
1743.33567,0.08608
1745.26414,0.08483
1747.19261,0.08470
1749.12107,0.08725
1751.04954,0.08833
1752.97801,0.08522
1754.90648,0.08334
1756.83495,0.08500
1758.76342,0.08696
1760.69189,0.08688
1762.62035,0.08534
1764.54882,0.08369
1766.47729,0.08376
1768.40576,0.08586
1770.33423,0.08806
1772.26270,0.08826
1774.19117,0.08714
1776.11964,0.08648
1778.04810,0.08666
1779.97657,0.08680
1781.90504,0.08529
1783.83351,0.08404
1785.76198,0.08392
1787.69045,0.08361
1789.61892,0.08444
1791.54738,0.08600
1793.47585,0.08603
1795.40432,0.08556
1797.33279,0.08417
1799.26126,0.08181
1801.18973,0.08096
1803.11820,0.08197
1805.04666,0.08310
1806.97513,0.08330
1808.90360,0.08305
1810.83207,0.08280
1812.76054,0.08125
1814.68901,0.07878
1816.61748,0.07866
1818.54595,0.08256
1820.47441,0.08479
1822.40288,0.08305
1824.33135,0.08353
1826.25982,0.08613
1828.18829,0.08627
1830.11676,0.08423
1832.04523,0.08270
1833.97369,0.08324
1835.90216,0.08419
1837.83063,0.08465
1839.75910,0.08528
1841.68757,0.08641
1843.61604,0.08759
1845.54451,0.08770
1847.47298,0.08659
1849.40144,0.08479
1851.32991,0.08338
1853.25838,0.08249
1855.18685,0.08205
1857.11532,0.08330
1859.04379,0.08530
1860.97226,0.08524
1862.90072,0.08337
1864.82919,0.08267
1866.75766,0.08369
1868.68613,0.08316
1870.61460,0.08026
1872.54307,0.07872
1874.47154,0.07976
1876.40001,0.08177
1878.32847,0.08262
1880.25694,0.08301
1882.18541,0.08413
1884.11388,0.08468
1886.04235,0.08435
1887.97082,0.08462
1889.89929,0.08479
1891.82775,0.08402
1893.75622,0.08482
1895.68469,0.08642
1897.61316,0.08589
1899.54163,0.08514
1901.47010,0.08609
1903.39857,0.08690
1905.32704,0.08534
1907.25550,0.08308
1909.18397,0.08322
1911.11244,0.08394
1913.04091,0.08230
1914.96938,0.08071
1916.89785,0.08189
1918.82632,0.08365
1920.75478,0.08405
1922.68325,0.08406
1924.61172,0.08328
1926.54019,0.08260
1928.46866,0.08362
1930.39713,0.08473
1932.32560,0.08456
1934.25407,0.08373
1936.18253,0.08191
1938.11100,0.08032
1940.03947,0.08104
1941.96794,0.08346
1943.89641,0.08613
1945.82488,0.08791
1947.75335,0.08748
1949.68181,0.08469
1951.61028,0.08231
1953.53875,0.08258
1955.46722,0.08423
1957.39569,0.08562
1959.32416,0.08613
1961.25263,0.08559
1963.18110,0.08486
1965.10956,0.08384
1967.03803,0.08188
1968.96650,0.08094
1970.89497,0.08164
1972.82344,0.08101
1974.75191,0.07857
1976.68038,0.07719
1978.60884,0.07846
1980.53731,0.08085
1982.46578,0.08150
1984.39425,0.08046
1986.32272,0.07981
1988.25119,0.07983
1990.17966,0.08069
1992.10812,0.08242
1994.03659,0.08294
1995.96506,0.08223
1997.89353,0.08320
1999.82200,0.08638
2001.75047,0.08886
2003.67894,0.08795
2005.60741,0.08394
2007.53587,0.08087
2009.46434,0.08156
2011.39281,0.08331
2013.32128,0.08417
2015.24975,0.08519
2017.17822,0.08600
2019.10669,0.08561
2021.03515,0.08444
2022.96362,0.08417
2024.89209,0.08562
2026.82056,0.08772
2028.74903,0.08860
2030.67750,0.08725
2032.60597,0.08533
2034.53444,0.08381
2036.46290,0.08297
2038.39137,0.08377
2040.31984,0.08441
2042.24831,0.08398
2044.17678,0.08389
2046.10525,0.08293
2048.03372,0.08099
2049.96218,0.07967
2051.89065,0.07855
2053.81912,0.07916
2055.74759,0.08249
2057.67606,0.08537
2059.60453,0.08584
2061.53300,0.08448
2063.46147,0.08249
2065.38993,0.08156
2067.31840,0.08260
2069.24687,0.08383
2071.17534,0.08427
2073.10381,0.08474
2075.03228,0.08517
2076.96075,0.08587
2078.88921,0.08656
2080.81768,0.08696
2082.74615,0.08657
2084.67462,0.08443
2086.60309,0.08313
2088.53156,0.08476
2090.46003,0.08692
2092.38850,0.08712
2094.31696,0.08599
2096.24543,0.08565
2098.17390,0.08618
2100.10237,0.08627
2102.03084,0.08551
2103.95931,0.08445
2105.88778,0.08426
2107.81624,0.08394
2109.74471,0.08280
2111.67318,0.08377
2113.60165,0.08691
2115.53012,0.08832
2117.45859,0.08663
2119.38706,0.08381
2121.31553,0.08195
2123.24399,0.08175
2125.17246,0.08252
2127.10093,0.08295
2129.02940,0.08231
2130.95787,0.08117
2132.88634,0.08104
2134.81481,0.08087
2136.74327,0.07927
2138.67174,0.07802
2140.60021,0.07844
2142.52868,0.07940
2144.45715,0.07898
2146.38562,0.07890
2148.31409,0.08140
2150.24255,0.08381
2152.17102,0.08484
2154.09949,0.08541
2156.02796,0.08438
2157.95643,0.08259
2159.88490,0.08397
2161.81337,0.08813
2163.74184,0.09009
2165.67030,0.08899
2167.59877,0.08699
2169.52724,0.08524
2171.45571,0.08565
2173.38418,0.08764
2175.31265,0.08819
2177.24112,0.08710
2179.16958,0.08546
2181.09805,0.08417
2183.02652,0.08360
2184.95499,0.08224
2186.88346,0.08047
2188.81193,0.08031
2190.74040,0.08059
2192.66887,0.07992
2194.59733,0.07955
2196.52580,0.08016
2198.45427,0.08138
2200.38274,0.08291
2202.31121,0.08418
2204.23968,0.08437
2206.16815,0.08386
2208.09661,0.08344
2210.02508,0.08272
2211.95355,0.08207
2213.88202,0.08262
2215.81049,0.08393
2217.73896,0.08491
2219.66743,0.08588
2221.59590,0.08685
2223.52436,0.08712
2225.45283,0.08730
2227.38130,0.08751
2229.30977,0.08628
2231.23824,0.08377
2233.16671,0.08276
2235.09518,0.08379
2237.02364,0.08409
2238.95211,0.08363
2240.88058,0.08364
2242.80905,0.08389
2244.73752,0.08483
2246.66599,0.08578
2248.59446,0.08560
2250.52293,0.08516
2252.45139,0.08507
2254.37986,0.08504
2256.30833,0.08552
2258.23680,0.08676
2260.16527,0.08768
2262.09374,0.08759
2264.02221,0.08700
2265.95067,0.08555
2267.87914,0.08377
2269.80761,0.08438
2271.73608,0.08650
2273.66455,0.08679
2275.59302,0.08555
2277.52149,0.08444
2279.44996,0.08351
2281.37842,0.08272
2283.30689,0.08317
2285.23536,0.08468
2287.16383,0.08481
2289.09230,0.08427
2291.02077,0.08447
2292.94924,0.08317
2294.87770,0.08132
2296.80617,0.08163
2298.73464,0.08228
2300.66311,0.08226
2302.59158,0.08292
2304.52005,0.08350
2306.44852,0.08317
2308.37699,0.08228
2310.30545,0.07976
2312.23392,0.07745
2314.16239,0.08031
2316.09086,0.08655
2318.01933,0.08934
2319.94780,0.08759
2321.87627,0.08504
2323.80473,0.08149
2325.73320,0.07700
2327.66167,0.07600
2329.59014,0.08231
2331.51861,0.09355
2333.44708,0.09791
2335.37555,0.09044
2337.30401,0.07783
2339.23248,0.07153
2341.16095,0.07813
2343.08942,0.08503
2345.01789,0.07933
2346.94636,0.07157
2348.87483,0.07351
2350.80330,0.08239
2352.73176,0.08800
2354.66023,0.08416
2356.58870,0.07849
2358.51717,0.07916
2360.44564,0.09087
2362.37411,0.10229
2364.30258,0.09770
2366.23104,0.08244
2368.15951,0.07215
2370.08798,0.07408
2372.01645,0.07987
2373.94492,0.08209
2375.87339,0.08218
2377.80186,0.08147
2379.73033,0.08135
2381.65879,0.08287
2383.58726,0.08463
2385.51573,0.08601
2387.44420,0.08704
2389.37267,0.08692
2391.30114,0.08582
2393.22961,0.08448
2395.15807,0.08309
2397.08654,0.08239
2399.01501,0.08285
2400.94348,0.08370
2402.87195,0.08448
2404.80042,0.08467
2406.72889,0.08375
2408.65736,0.08373
2410.58582,0.08507
2412.51429,0.08589
2414.44276,0.08708
2416.37123,0.08796
2418.29970,0.08652
2420.22817,0.08484
2422.15664,0.08448
2424.08510,0.08475
2426.01357,0.08498
2427.94204,0.08498
2429.87051,0.08557
2431.79898,0.08685
2433.72745,0.08745
2435.65592,0.08705
2437.58439,0.08639
2439.51285,0.08561
2441.44132,0.08446
2443.36979,0.08334
2445.29826,0.08339
2447.22673,0.08425
2449.15520,0.08448
2451.08367,0.08340
2453.01213,0.08209
2454.94060,0.08274
2456.86907,0.08604
2458.79754,0.09066
2460.72601,0.09215
2462.65448,0.08938
2464.58295,0.08719
2466.51142,0.08685
2468.43988,0.08700
2470.36835,0.08731
2472.29682,0.08794
2474.22529,0.08936
2476.15376,0.09022
2478.08223,0.08957
2480.01070,0.08793
2481.93916,0.08637
2483.86763,0.08626
2485.79610,0.08731
2487.72457,0.08744
2489.65304,0.08592
2491.58151,0.08515
2493.50998,0.08641
2495.43844,0.08708
2497.36691,0.08636
2499.29538,0.08676
2501.22385,0.08749
2503.15232,0.08666
2505.08079,0.08613
2507.00926,0.08673
2508.93773,0.08718
2510.86619,0.08760
2512.79466,0.08826
2514.72313,0.08860
2516.65160,0.08869
2518.58007,0.08945
2520.50854,0.09031
2522.43701,0.08949
2524.36547,0.08693
2526.29394,0.08514
2528.22241,0.08645
2530.15088,0.08855
2532.07935,0.08863
2534.00782,0.08836
2535.93629,0.08885
2537.86476,0.08996
2539.79322,0.09127
2541.72169,0.09043
2543.65016,0.08819
2545.57863,0.08841
2547.50710,0.09090
2549.43557,0.09137
2551.36404,0.08896
2553.29250,0.08738
2555.22097,0.08825
2557.14944,0.08923
2559.07791,0.08863
2561.00638,0.08758
2562.93485,0.08711
2564.86332,0.08635
2566.79179,0.08513
2568.72025,0.08449
2570.64872,0.08403
2572.57719,0.08428
2574.50566,0.08619
2576.43413,0.08757
2578.36260,0.08749
2580.29107,0.08604
2582.21953,0.08369
2584.14800,0.08406
2586.07647,0.08707
2588.00494,0.08886
2589.93341,0.08946
2591.86188,0.09044
2593.79035,0.09092
2595.71882,0.08993
2597.64728,0.08823
2599.57575,0.08772
2601.50422,0.08937
2603.43269,0.09094
2605.36116,0.08931
2607.28963,0.08615
2609.21810,0.08483
2611.14656,0.08451
2613.07503,0.08470
2615.00350,0.08755
2616.93197,0.09132
2618.86044,0.09193
2620.78891,0.09076
2622.71738,0.09031
2624.64585,0.08968
2626.57431,0.08879
2628.50278,0.08804
2630.43125,0.08784
2632.35972,0.08831
2634.28819,0.08913
2636.21666,0.09054
2638.14513,0.09127
2640.07359,0.09053
2642.00206,0.08996
2643.93053,0.09011
2645.85900,0.08961
2647.78747,0.08855
2649.71594,0.08900
2651.64441,0.09111
2653.57288,0.09209
2655.50134,0.09021
2657.42981,0.08760
2659.35828,0.08719
2661.28675,0.08839
2663.21522,0.08903
2665.14369,0.08878
2667.07216,0.08886
2669.00062,0.08945
2670.92909,0.08934
2672.85756,0.08916
2674.78603,0.09032
2676.71450,0.09184
2678.64297,0.09233
2680.57144,0.09274
2682.49990,0.09280
2684.42837,0.09102
2686.35684,0.09077
2688.28531,0.09259
2690.21378,0.09173
2692.14225,0.08920
2694.07072,0.08847
2695.99919,0.08938
2697.92765,0.08997
2699.85612,0.09018
2701.78459,0.09084
2703.71306,0.09074
2705.64153,0.08977
2707.57000,0.08856
2709.49847,0.08761
2711.42693,0.08761
2713.35540,0.08874
2715.28387,0.09121
2717.21234,0.09358
2719.14081,0.09417
2721.06928,0.09303
2722.99775,0.09244
2724.92622,0.09404
2726.85468,0.09458
2728.78315,0.09238
2730.71162,0.09085
2732.64009,0.09119
2734.56856,0.09153
2736.49703,0.09043
2738.42550,0.08823
2740.35396,0.08749
2742.28243,0.08874
2744.21090,0.08970
2746.13937,0.09047
2748.06784,0.09138
2749.99631,0.09170
2751.92478,0.09275
2753.85325,0.09535
2755.78171,0.09778
2757.71018,0.09798
2759.63865,0.09642
2761.56712,0.09451
2763.49559,0.09321
2765.42406,0.09302
2767.35253,0.09211
2769.28099,0.08967
2771.20946,0.08872
2773.13793,0.09117
2775.06640,0.09415
2776.99487,0.09475
2778.92334,0.09367
2780.85181,0.09221
2782.78028,0.09208
2784.70874,0.09462
2786.63721,0.09735
2788.56568,0.09614
2790.49415,0.09152
2792.42262,0.08848
2794.35109,0.08895
2796.27956,0.08994
2798.20802,0.09045
2800.13649,0.09209
2802.06496,0.09402
2803.99343,0.09440
2805.92190,0.09324
2807.85037,0.09292
2809.77884,0.09472
2811.70731,0.09615
2813.63577,0.09501
2815.56424,0.09323
2817.49271,0.09417
2819.42118,0.09625
2821.34965,0.09568
2823.27812,0.09352
2825.20659,0.09319
2827.13505,0.09501
2829.06352,0.09651
2830.99199,0.09630
2832.92046,0.09433
2834.84893,0.09274
2836.77740,0.09367
2838.70587,0.09511
2840.63433,0.09511
2842.56280,0.09412
2844.49127,0.09304
2846.41974,0.09254
2848.34821,0.09179
2850.27668,0.09149
2852.20515,0.09325
2854.13362,0.09500
2856.06208,0.09458
2857.99055,0.09373
2859.91902,0.09550
2861.84749,0.09833
2863.77596,0.09795
2865.70443,0.09501
2867.63290,0.09270
2869.56136,0.09245
2871.48983,0.09445
2873.41830,0.09648
2875.34677,0.09648
2877.27524,0.09595
2879.20371,0.09571
2881.13218,0.09385
2883.06065,0.09101
2884.98911,0.08989
2886.91758,0.09027
2888.84605,0.09161
2890.77452,0.09379
2892.70299,0.09459
2894.63146,0.09335
2896.55993,0.09259
2898.48839,0.09372
2900.41686,0.09365
2902.34533,0.08907
2904.27380,0.08309
2906.20227,0.08176
2908.13074,0.08664
2910.05921,0.09328
2911.98768,0.09565
2913.91614,0.09200
2915.84461,0.08650
2917.77308,0.08483
2919.70155,0.08692
2921.63002,0.08903
2923.55849,0.09045
2925.48696,0.09201
2927.41542,0.09415
2929.34389,0.09667
2931.27236,0.09788
2933.20083,0.09636
2935.12930,0.09224
2937.05777,0.08965
2938.98624,0.09175
2940.91471,0.09363
2942.84317,0.09228
2944.77164,0.09099
2946.70011,0.09050
2948.62858,0.09163
2950.55705,0.09531
2952.48552,0.09745
2954.41399,0.09531
2956.34245,0.08975
2958.27092,0.08655
2960.19939,0.09168
2962.12786,0.09842
2964.05633,0.09792
2965.98480,0.09216
2967.91327,0.08725
2969.84174,0.08733
2971.77020,0.09089
2973.69867,0.09332
2975.62714,0.09276
2977.55561,0.09072
2979.48408,0.09181
2981.41255,0.09812
2983.34102,0.10295
2985.26948,0.10036
2987.19795,0.09360
2989.12642,0.09044
2991.05489,0.09377
2992.98336,0.09768
2994.91183,0.09833
2996.84030,0.09783
2998.76877,0.09805
3000.69723,0.09977
3002.62570,0.10218
3004.55417,0.10288
3006.48264,0.09962
3008.41111,0.09449
3010.33958,0.09053
3012.26805,0.08548
3014.19651,0.07610
3016.12498,0.06661
3018.05345,0.06902
3019.98192,0.08314
3021.91039,0.09372
3023.83886,0.09642
3025.76733,0.09633
3027.69579,0.09658
3029.62426,0.09928
3031.55273,0.10195
3033.48120,0.10252
3035.40967,0.10245
3037.33814,0.10164
3039.26661,0.10112
3041.19508,0.10053
3043.12354,0.09867
3045.05201,0.09704
3046.98048,0.09508
3048.90895,0.09428
3050.83742,0.09720
3052.76589,0.10063
3054.69436,0.10005
3056.62282,0.09496
3058.55129,0.09223
3060.47976,0.09542
3062.40823,0.09889
3064.33670,0.09701
3066.26517,0.09008
3068.19364,0.08685
3070.12211,0.09005
3072.05057,0.09232
3073.97904,0.09059
3075.90751,0.08901
3077.83598,0.09312
3079.76445,0.09821
3081.69292,0.09724
3083.62139,0.09275
3085.54985,0.09036
3087.47832,0.09325
3089.40679,0.09672
3091.33526,0.09679
3093.26373,0.09408
3095.19220,0.08992
3097.12067,0.08951
3099.04914,0.09277
3100.97760,0.09304
3102.90607,0.08927
3104.83454,0.08814
3106.76301,0.09133
3108.69148,0.09315
3110.61995,0.09203
3112.54842,0.09053
3114.47688,0.09165
3116.40535,0.09476
3118.33382,0.09708
3120.26229,0.09778
3122.19076,0.09635
3124.11923,0.09525
3126.04770,0.09605
3127.97617,0.09633
3129.90463,0.09574
3131.83310,0.09657
3133.76157,0.09896
3135.69004,0.09964
3137.61851,0.09605
3139.54698,0.09106
3141.47545,0.09005
3143.40391,0.09236
3145.33238,0.09418
3147.26085,0.09498
3149.18932,0.09599
3151.11779,0.09829
3153.04626,0.10172
3154.97473,0.10476
3156.90320,0.10600
3158.83166,0.10459
3160.76013,0.10075
3162.68860,0.09784
3164.61707,0.09802
3166.54554,0.09797
3168.47401,0.09639
3170.40248,0.09711
3172.33094,0.09982
3174.25941,0.09995
3176.18788,0.09831
3178.11635,0.09888
3180.04482,0.10194
3181.97329,0.10478
3183.90176,0.10497
3185.83022,0.10352
3187.75869,0.10208
3189.68716,0.09897
3191.61563,0.09596
3193.54410,0.09768
3195.47257,0.10175
3197.40104,0.10220
3199.32951,0.09867
3201.25797,0.09587
3203.18644,0.09774
3205.11491,0.10331
3207.04338,0.10614
3208.97185,0.10262
3210.90032,0.09977
3212.82879,0.10237
3214.75725,0.10385
3216.68572,0.10019
3218.61419,0.09450
3220.54266,0.09034
3222.47113,0.08971
3224.39960,0.09037
3226.32807,0.09110
3228.25654,0.09364
3230.18500,0.09700
3232.11347,0.09972
3234.04194,0.10187
3235.97041,0.10369
3237.89888,0.10474
3239.82735,0.10348
3241.75582,0.09988
3243.68428,0.09655
3245.61275,0.09481
3247.54122,0.09390
3249.46969,0.09291
3251.39816,0.09156
3253.32663,0.09271
3255.25510,0.09760
3257.18357,0.10231
3259.11203,0.10373
3261.04050,0.10198
3262.96897,0.09870
3264.89744,0.09625
3266.82591,0.09601
3268.75438,0.09714
3270.68285,0.09822
3272.61131,0.09822
3274.53978,0.09906
3276.46825,0.10136
3278.39672,0.10202
3280.32519,0.10213
3282.25366,0.10356
3284.18213,0.10341
3286.11060,0.09946
3288.03906,0.09554
3289.96753,0.09585
3291.89600,0.09822
3293.82447,0.10043
3295.75294,0.10291
3297.68141,0.10269
3299.60988,0.09856
3301.53834,0.09655
3303.46681,0.09860
3305.39528,0.10026
3307.32375,0.10056
3309.25222,0.10251
3311.18069,0.10577
3313.10916,0.10568
3315.03763,0.10143
3316.96609,0.09699
3318.89456,0.09508
3320.82303,0.09548
3322.75150,0.09652
3324.67997,0.09717
3326.60844,0.09920
3328.53691,0.10186
3330.46537,0.10032
3332.39384,0.09538
3334.32231,0.09224
3336.25078,0.09315
3338.17925,0.09661
3340.10772,0.09956
3342.03619,0.10044
3343.96466,0.10020
3345.89312,0.10011
3347.82159,0.10012
3349.75006,0.10035
3351.67853,0.10032
3353.60700,0.09914
3355.53547,0.09859
3357.46394,0.10001
3359.39240,0.10142
3361.32087,0.10293
3363.24934,0.10526
3365.17781,0.10519
3367.10628,0.10264
3369.03475,0.10186
3370.96322,0.10221
3372.89168,0.10002
3374.82015,0.09799
3376.74862,0.09934
3378.67709,0.10033
3380.60556,0.09948
3382.53403,0.10022
3384.46250,0.10172
3386.39097,0.09972
3388.31943,0.09501
3390.24790,0.09206
3392.17637,0.09329
3394.10484,0.09663
3396.03331,0.09808
3397.96178,0.09724
3399.89025,0.09568
3401.81871,0.09586
3403.74718,0.09870
3405.67565,0.10200
3407.60412,0.10486
3409.53259,0.10544
3411.46106,0.10039
3413.38953,0.09200
3415.31800,0.08802
3417.24646,0.09087
3419.17493,0.09417
3421.10340,0.09482
3423.03187,0.09577
3424.96034,0.09724
3426.88881,0.09796
3428.81728,0.09787
3430.74574,0.09837
3432.67421,0.09998
3434.60268,0.09814
3436.53115,0.09253
3438.45962,0.09024
3440.38809,0.09190
3442.31656,0.09298
3444.24503,0.09341
3446.17349,0.09366
3448.10196,0.09382
3450.03043,0.09372
3451.95890,0.09237
3453.88737,0.09140
3455.81584,0.09039
3457.74431,0.08778
3459.67277,0.08794
3461.60124,0.09218
3463.52971,0.09407
3465.45818,0.09095
3467.38665,0.08762
3469.31512,0.08885
3471.24359,0.09392
3473.17206,0.09803
3475.10052,0.09607
3477.02899,0.08845
3478.95746,0.08356
3480.88593,0.08619
3482.81440,0.09025
3484.74287,0.08896
3486.67134,0.08413
3488.59980,0.08220
3490.52827,0.08560
3492.45674,0.09099
3494.38521,0.09357
3496.31368,0.09064
3498.24215,0.08694
3500.17062,0.08680
3502.09909,0.08692
3504.02755,0.08661
3505.95602,0.08709
3507.88449,0.08498
3509.81296,0.08071
3511.74143,0.08014
3513.66990,0.08226
3515.59837,0.08124
3517.52683,0.07856
3519.45530,0.07893
3521.38377,0.08046
3523.31224,0.07999
3525.24071,0.08048
3527.16918,0.08260
3529.09765,0.08177
3531.02611,0.07924
3532.95458,0.07886
3534.88305,0.08006
3536.81152,0.08078
3538.73999,0.07966
3540.66846,0.07851
3542.59693,0.07942
3544.52540,0.07956
3546.45386,0.07766
3548.38233,0.07731
3550.31080,0.07821
3552.23927,0.07859
3554.16774,0.07865
3556.09621,0.07888
3558.02468,0.07953
3559.95314,0.07948
3561.88161,0.07799
3563.81008,0.07841
3565.73855,0.08066
3567.66702,0.07717
3569.59549,0.07140
3571.52396,0.07100
3573.45243,0.07357
3575.38089,0.07350
3577.30936,0.06913
3579.23783,0.06591
3581.16630,0.06734
3583.09477,0.07080
3585.02324,0.07370
3586.95171,0.07547
3588.88017,0.07506
3590.80864,0.07326
3592.73711,0.07239
3594.66558,0.07276
3596.59405,0.07244
3598.52252,0.07228
3600.45099,0.07281
3602.37946,0.07073
3604.30792,0.06809
3606.23639,0.06843
3608.16486,0.07047
3610.09333,0.07114
3612.02180,0.07042
3613.95027,0.07088
3615.87874,0.07340
3617.80720,0.07468
3619.73567,0.07065
3621.66414,0.06634
3623.59261,0.06724
3625.52108,0.06950
3627.44955,0.06749
3629.37802,0.06255
3631.30649,0.06364
3633.23495,0.06651
3635.16342,0.06705
3637.09189,0.06625
3639.02036,0.06598
3640.94883,0.06690
3642.87730,0.06925
3644.80577,0.07239
3646.73423,0.07582
3648.66270,0.08014
3650.59117,0.07825
3652.51964,0.07194
3654.44811,0.06914
3656.37658,0.06850
3658.30505,0.06743
3660.23352,0.06601
3662.16198,0.06420
3664.09045,0.06307
3666.01892,0.06436
3667.94739,0.06699
3669.87586,0.06776
3671.80433,0.06793
3673.73280,0.07208
3675.66126,0.07667
3677.58973,0.07359
3679.51820,0.06769
3681.44667,0.06346
3683.37514,0.06167
3685.30361,0.06220
3687.23208,0.06763
3689.16055,0.07509
3691.08901,0.07126
3693.01748,0.06418
3694.94595,0.06195
3696.87442,0.06110
3698.80289,0.05946
3700.73136,0.05781
3702.65983,0.05817
3704.58829,0.06149
3706.51676,0.06578
3708.44523,0.06957
3710.37370,0.07227
3712.30217,0.06926
3714.23064,0.06349
3716.15911,0.06005
3718.08757,0.05617
3720.01604,0.05268
3721.94451,0.05413
3723.87298,0.06006
3725.80145,0.06342
3727.72992,0.06102
3729.65839,0.05917
3731.58686,0.06109
3733.51532,0.06492
3735.44379,0.06833
3737.37226,0.06636
3739.30073,0.06110
3741.22920,0.05850
3743.15767,0.05813
3745.08614,0.05921
3747.01460,0.06402
3748.94307,0.07007
3750.87154,0.07001
3752.80001,0.06358
3754.72848,0.06350
3756.65695,0.06826
3758.58542,0.06986
3760.51389,0.06509
3762.44235,0.06128
3764.37082,0.06094
3766.29929,0.05981
3768.22776,0.05883
3770.15623,0.06025
3772.08470,0.06035
3774.01317,0.06052
3775.94163,0.06295
3777.87010,0.06496
3779.79857,0.06334
3781.72704,0.05858
3783.65551,0.05555
3785.58398,0.05757
3787.51245,0.06046
3789.44092,0.06023
3791.36938,0.05970
3793.29785,0.06056
3795.22632,0.06097
3797.15479,0.06046
3799.08326,0.06024
3801.01173,0.06141
3802.94020,0.06251
3804.86866,0.06147
3806.79713,0.06040
3808.72560,0.05813
3810.65407,0.05365
3812.58254,0.04991
3814.51101,0.04975
3816.43948,0.05449
3818.36795,0.05920
3820.29641,0.06146
3822.22488,0.06128
3824.15335,0.06016
3826.08182,0.05997
3828.01029,0.05899
3829.93876,0.05822
3831.86723,0.05730
3833.79569,0.05543
3835.72416,0.05909
3837.65263,0.06742
3839.58110,0.06572
3841.50957,0.05626
3843.43804,0.05193
3845.36651,0.05345
3847.29498,0.05548
3849.22344,0.05697
3851.15191,0.06011
3853.08038,0.06493
3855.00885,0.06325
3856.93732,0.05790
3858.86579,0.05818
3860.79426,0.06383
3862.72272,0.06727
3864.65119,0.06340
3866.57966,0.05836
3868.50813,0.05912
3870.43660,0.06243
3872.36507,0.06300
3874.29354,0.06245
3876.22200,0.05907
3878.15047,0.05437
3880.07894,0.05223
3882.00741,0.05423
3883.93588,0.05770
3885.86435,0.05829
3887.79282,0.05635
3889.72129,0.05646
3891.64975,0.05662
3893.57822,0.05296
3895.50669,0.05128
3897.43516,0.05413
3899.36363,0.05853
3901.29210,0.06164
3903.22057,0.05933
3905.14903,0.05311
3907.07750,0.05159
3909.00597,0.05386
3910.93444,0.05467
3912.86291,0.05421
3914.79138,0.05603
3916.71985,0.05869
3918.64832,0.05711
3920.57678,0.05357
3922.50525,0.05116
3924.43372,0.04848
3926.36219,0.04939
3928.29066,0.05349
3930.21913,0.05336
3932.14760,0.04905
3934.07606,0.04629
3936.00453,0.04772
3937.93300,0.05095
3939.86147,0.05028
3941.78994,0.04696
3943.71841,0.04850
3945.64688,0.05285
3947.57535,0.05449
3949.50381,0.05531
3951.43228,0.05599
3953.36075,0.05460
3955.28922,0.05288
3957.21769,0.05346
3959.14616,0.05480
3961.07463,0.05359
3963.00309,0.05072
3964.93156,0.04944
3966.86003,0.05002
3968.78850,0.05064
3970.71697,0.05101
3972.64544,0.05240
3974.57391,0.05374
3976.50238,0.05192
3978.43084,0.04823
3980.35931,0.04711
3982.28778,0.04844
3984.21625,0.04939
3986.14472,0.04918
3988.07319,0.04817
3990.00166,0.04691
3991.93012,0.04671
3993.85859,0.04946
3995.78706,0.05355
3997.71553,0.05444
3999.64400,0.05070
4001.57247,0.04556
4003.50094,0.04383
4005.42941,0.04712
4007.35787,0.05144
4009.28634,0.05039
4011.21481,0.04529
4013.14328,0.04344
4015.07175,0.04591
4017.00022,0.04924
4018.92869,0.04962
4020.85715,0.04619
4022.78562,0.04484
4024.71409,0.04767
4026.64256,0.04925
4028.57103,0.04856
4030.49950,0.04792
4032.42797,0.04742
4034.35644,0.04847
4036.28490,0.04884
4038.21337,0.04416
4040.14184,0.03836
4042.07031,0.03677
4043.99878,0.04018
4045.92725,0.04684
4047.85572,0.05071
4049.78418,0.04972
4051.71265,0.04881
4053.64112,0.04846
4055.56959,0.04681
4057.49806,0.04526
4059.42653,0.04501
4061.35500,0.04691
4063.28346,0.04907
4065.21193,0.04944
4067.14040,0.04915
4069.06887,0.04644
4070.99734,0.04065
4072.92581,0.03664
4074.85428,0.03775
4076.78275,0.04193
4078.71121,0.04533
4080.63968,0.04635
4082.56815,0.04475
4084.49662,0.04214
4086.42509,0.04273
4088.35356,0.04532
4090.28203,0.04431
4092.21049,0.04252
4094.13896,0.04308
4096.06743,0.04353
4097.99590,0.04422
4099.92437,0.04318
4101.85284,0.03934
4103.78131,0.03885
4105.70978,0.04333
4107.63824,0.04578
4109.56671,0.04250
4111.49518,0.03922
4113.42365,0.04113
4115.35212,0.04590
4117.28059,0.04723
4119.20906,0.04390
4121.13752,0.04257
4123.06599,0.04379
4124.99446,0.04289
4126.92293,0.04011
4128.85140,0.03749
4130.77987,0.03747
4132.70834,0.03950
4134.63681,0.04072
4136.56527,0.04239
4138.49374,0.04329
4140.42221,0.03894
4142.35068,0.03348
4144.27915,0.03343
4146.20762,0.03567
4148.13609,0.03636
4150.06455,0.03779
4151.99302,0.03940
4153.92149,0.03877
4155.84996,0.03868
4157.77843,0.03988
4159.70690,0.04078
4161.63537,0.04325
4163.56384,0.04478
4165.49230,0.04160
4167.42077,0.03913
4169.34924,0.04007
4171.27771,0.04048
4173.20618,0.04092
4175.13465,0.04097
4177.06312,0.03882
4178.99158,0.03793
4180.92005,0.03972
4182.84852,0.04112
4184.77699,0.04098
4186.70546,0.03840
4188.63393,0.03352
4190.56240,0.03033
4192.49087,0.02950
4194.41933,0.02997
4196.34780,0.03062
4198.27627,0.02948
4200.20474,0.03162
4202.13321,0.03714
4204.06168,0.03660
4205.99015,0.03170
4207.91861,0.02971
4209.84708,0.03047
4211.77555,0.03267
4213.70402,0.03437
4215.63249,0.03447
4217.56096,0.03528
4219.48943,0.03522
4221.41789,0.03298
4223.34636,0.03360
4225.27483,0.03846
4227.20330,0.04100
4229.13177,0.03855
4231.06024,0.03615
4232.98871,0.03512
4234.91718,0.03220
4236.84564,0.02922
4238.77411,0.02844
4240.70258,0.02854
4242.63105,0.03046
4244.55952,0.03483
4246.48799,0.03861
4248.41646,0.03834
4250.34492,0.03634
4252.27339,0.03576
4254.20186,0.03350
4256.13033,0.02975
4258.05880,0.02779
4259.98727,0.02668
4261.91574,0.02586
4263.84421,0.02636
4265.77267,0.02852
4267.70114,0.03189
4269.62961,0.03319
4271.55808,0.03063
4273.48655,0.02741
4275.41502,0.02606
4277.34349,0.02634
4279.27195,0.02554
4281.20042,0.02231
4283.12889,0.01861
4285.05736,0.01711
4286.98583,0.01909
4288.91430,0.01976
4290.84277,0.01640
4292.77124,0.01437
4294.69970,0.01624
4296.62817,0.01888
4298.55664,0.02150
4300.48511,0.02437
4302.41358,0.02378
4304.34205,0.01879
4306.27052,0.01435
4308.19898,0.01493
4310.12745,0.01832
4312.05592,0.01925
4313.98439,0.01857
4315.91286,0.01859
4317.84133,0.01898
4319.76980,0.02187
4321.69827,0.02633
4323.62673,0.02836
4325.55520,0.02957
4327.48367,0.02980
4329.41214,0.02844
4331.34061,0.02886
4333.26908,0.02956
4335.19755,0.02842
4337.12601,0.02762
4339.05448,0.02723
4340.98295,0.02412
4342.91142,0.02002
4344.83989,0.01970
4346.76836,0.02220
4348.69683,0.02348
4350.62530,0.02207
4352.55376,0.02376
4354.48223,0.02970
4356.41070,0.02728
4358.33917,0.01785
4360.26764,0.01769
4362.19611,0.02237
4364.12458,0.02097
4366.05304,0.02183
4367.98151,0.02841
4369.90998,0.03146
4371.83845,0.02808
4373.76692,0.02054
4375.69539,0.01351
4377.62386,0.01289
4379.55232,0.01569
4381.48079,0.01626
4383.40926,0.01628
4385.33773,0.01764
4387.26620,0.01682
4389.19467,0.01209
4391.12314,0.00915
4393.05161,0.00993
4394.98007,0.01072
4396.90854,0.01135
4398.83701,0.01154
4400.76548,0.01241
4402.69395,0.01526
4404.62242,0.01629
4406.55089,0.01638
4408.47935,0.01652
4410.40782,0.01146
4412.33629,0.00594
4414.26476,0.00743
4416.19323,0.01220
4418.12170,0.01668
4420.05017,0.01963
4421.97864,0.01884
4423.90710,0.01653
4425.83557,0.01790
4427.76404,0.01968
4429.69251,0.01459
4431.62098,0.00754
4433.54945,0.00466
4435.47792,0.00478
4437.40638,0.00910
4439.33485,0.01434
4441.26332,0.01092
4443.19179,0.00275
4445.12026,0.00343
4447.04873,0.00832
4448.97720,0.00752
4450.90567,0.00887
4452.83413,0.01632
4454.76260,0.02066
4456.69107,0.01715
4458.61954,0.00992
4460.54801,0.00503
4462.47648,0.00533
4464.40495,0.01043
4466.33341,0.01406
4468.26188,0.01116
4470.19035,0.01074
4472.11882,0.01841
4474.04729,0.02114
4475.97576,0.01212
4477.90423,0.00127
4479.83270,-0.00260
4481.76116,-0.00295
4483.68963,-0.00836
4485.61810,-0.01247
4487.54657,-0.00741
4489.47504,-0.00144
4491.40351,0.00147
4493.33198,0.00409
4495.26044,0.00618
4497.18891,0.00824
4499.11738,0.01019
4501.04585,0.00989
4502.97432,0.00725
4504.90279,0.00367
4506.83126,0.00134
4508.75973,0.00379
4510.68819,0.00717
4512.61666,0.00443
4514.54513,0.00044
4516.47360,0.00228
4518.40207,0.00440
4520.33054,0.00233
4522.25901,0.00178
4524.18747,0.00238
4526.11594,0.00080
4528.04441,0.00139
4529.97288,0.00535
4531.90135,0.00963
4533.82982,0.00993
4535.75829,0.00427
4537.68676,0.00074
4539.61522,0.00580
4541.54369,0.01417
4543.47216,0.01961
4545.40063,0.02273
4547.32910,0.02274
4549.25757,0.01650
4551.18604,0.00945
4553.11450,0.00857
4555.04297,0.00981
4556.97144,0.00766
4558.89991,0.00395
4560.82838,0.00126
4562.75685,0.00159
4564.68532,0.00754
4566.61378,0.01242
4568.54225,0.01064
4570.47072,0.00987
4572.39919,0.01092
4574.32766,0.00833
4576.25613,0.00460
4578.18460,0.00195
4580.11307,-0.00108
4582.04153,-0.00241
4583.97000,0.00097
4585.89847,0.00583
4587.82694,0.00635
4589.75541,0.00056
4591.68388,-0.00662
4593.61235,-0.00774
4595.54081,-0.00300
4597.46928,0.00120
4599.39775,0.00277
4601.32622,0.00380
4603.25469,0.00245
4605.18316,0.00159
4607.11163,0.00681
4609.04010,0.01059
4610.96856,0.00733
4612.89703,0.00361
4614.82550,0.00395
4616.75397,0.00340
4618.68244,0.00053
4620.61091,0.00196
4622.53938,0.00686
4624.46784,0.01039
4626.39631,0.00939
4628.32478,0.00265
4630.25325,-0.00312
4632.18172,-0.00125
4634.11019,0.00319
4636.03866,0.00056
4637.96713,-0.00376
4639.89559,0.00117
4641.82406,0.00728
4643.75253,0.00587
4645.68100,0.00281
4647.60947,-0.00272
4649.53794,-0.01068
4651.46641,-0.01166
4653.39487,-0.00444
4655.32334,0.00510
4657.25181,0.01079
4659.18028,0.01195
4661.10875,0.01146
4663.03722,0.00986
4664.96569,0.00767
4666.89416,0.00306
4668.82262,0.00103
4670.75109,0.00582
4672.67956,0.00541
4674.60803,-0.00324
4676.53650,-0.00597
4678.46497,0.00265
4680.39344,0.01269
4682.32190,0.01671
4684.25037,0.01676
4686.17884,0.01543
4688.10731,0.01148
4690.03578,0.00557
4691.96425,0.00192
4693.89272,-0.00265
4695.82119,-0.00988
4697.74965,-0.01018
4699.67812,-0.00294
4701.60659,0.00424
4703.53506,0.01260
4705.46353,0.02008
4707.39200,0.01865
4709.32047,0.01074
4711.24893,0.00319
4713.17740,-0.00162
4715.10587,-0.00032
4717.03434,0.00569
4718.96281,0.00865
4720.89128,0.00838
4722.81975,0.01035
4724.74821,0.01515
4726.67668,0.01585
4728.60515,0.01028
4730.53362,0.00713
4732.46209,0.00778
4734.39056,0.00909
4736.31903,0.01210
4738.24750,0.01060
4740.17596,0.00403
4742.10443,0.00194
4744.03290,0.00429
4745.96137,0.00594
4747.88984,0.00560
4749.81831,0.00494
4751.74678,0.00546
4753.67524,0.00485
4755.60371,0.00371
4757.53218,0.00864
4759.46065,0.01423
4761.38912,0.01014
4763.31759,0.00538
4765.24606,0.00541
4767.17453,0.00346
4769.10299,0.00384
4771.03146,0.00580
4772.95993,0.00262
4774.88840,-0.00182
4776.81687,-0.00196
4778.74534,0.00148
4780.67381,0.00412
4782.60227,0.00829
4784.53074,0.01484
4786.45921,0.01629
4788.38768,0.01178
4790.31615,0.00728
4792.24462,0.00729
4794.17309,0.01087
4796.10156,0.01196
4798.03002,0.00849
4799.95849,0.00460
4801.88696,0.00256
4803.81543,-0.00069
4805.74390,-0.00736
4807.67237,-0.01033
4809.60084,-0.00309
4811.52930,0.00434
4813.45777,0.00440
4815.38624,0.00548
4817.31471,0.00707
4819.24318,0.00306
4821.17165,-0.00264
4823.10012,-0.00850
4825.02859,-0.01208
4826.95705,-0.00910
4828.88552,-0.00240
4830.81399,0.00241
4832.74246,0.00308
4834.67093,0.00576
4836.59940,0.01175
4838.52787,0.00980
4840.45633,0.00165
4842.38480,0.00516
4844.31327,0.01826
4846.24174,0.02118
4848.17021,0.01630
4850.09868,0.01575
4852.02715,0.01427
4853.95562,0.00737
4855.88408,0.00065
4857.81255,0.00097
4859.74102,0.01021
4861.66949,0.01413
4863.59796,0.00311
4865.52643,-0.00875
4867.45490,-0.01101
4869.38336,-0.00827
4871.31183,-0.00771
4873.24030,-0.00889
4875.16877,-0.00799
4877.09724,-0.00647
4879.02571,-0.00163
4880.95418,0.00871
4882.88265,0.01612
4884.81111,0.01288
4886.73958,0.00687
4888.66805,0.00795
4890.59652,0.01050
4892.52499,0.00823
4894.45346,0.00218
4896.38193,-0.00556
4898.31039,-0.01077
4900.23886,-0.00805
4902.16733,0.00423
4904.09580,0.01762
4906.02427,0.02095
4907.95274,0.01447
4909.88121,0.00611
4911.80967,0.00203
4913.73814,-0.00218
4915.66661,-0.01079
4917.59508,-0.01562
4919.52355,-0.01018
4921.45202,0.00408
4923.38049,0.01546
4925.30896,0.01452
4927.23742,0.00849
4929.16589,0.00420
4931.09436,0.00101
4933.02283,-0.00297
4934.95130,-0.00430
4936.87977,0.00135
4938.80824,0.01072
4940.73670,0.01771
4942.66517,0.01582
4944.59364,0.00479
4946.52211,-0.00358
4948.45058,0.00204
4950.37905,0.01478
4952.30752,0.01865
4954.23599,0.01055
4956.16445,0.00415
4958.09292,0.00612
4960.02139,0.00223
4961.94986,-0.00815
4963.87833,-0.00919
4965.80680,-0.00333
4967.73527,0.00255
4969.66373,0.01303
4971.59220,0.02028
4973.52067,0.01104
4975.44914,-0.00326
4977.37761,-0.00657
4979.30608,-0.00450
4981.23455,-0.00451
4983.16302,-0.00014
4985.09148,0.00838
4987.01995,0.01095
4988.94842,0.00991
4990.87689,0.01110
4992.80536,0.01030
4994.73383,0.00427
4996.66230,-0.00063
4998.59076,0.00144
5000.51923,0.00727
5002.44770,0.01230
5004.37617,0.01312
5006.30464,0.01130
5008.23311,0.01404
5010.16158,0.01863
5012.09005,0.01399
5014.01851,0.00504
5015.94698,0.00074
5017.87545,-0.00114
5019.80392,0.00237
5021.73239,0.00558
5023.66086,-0.00261
5025.58933,-0.01020
5027.51779,-0.00611
5029.44626,0.00078
5031.37473,0.00556
5033.30320,0.00844
5035.23167,0.00568
5037.16014,-0.00014
5039.08861,-0.00243
5041.01708,-0.00052
5042.94554,0.00046
5044.87401,0.00042
5046.80248,0.00216
5048.73095,0.00142
5050.65942,-0.00027
5052.58789,0.00077
5054.51636,0.00313
5056.44482,0.00721
5058.37329,0.00779
5060.30176,0.00462
5062.23023,0.00850
5064.15870,0.01253
5066.08717,0.00604
5068.01564,0.00135
5069.94410,0.00098
5071.87257,-0.00433
5073.80104,-0.00944
5075.72951,-0.00605
5077.65798,0.00341
5079.58645,0.01030
5081.51492,0.01586
5083.44339,0.02413
5085.37185,0.02892
5087.30032,0.02802
5089.22879,0.02572
5091.15726,0.02035
5093.08573,0.01269
5095.01420,0.01337
5096.94267,0.02246
5098.87113,0.02391
5100.79960,0.01392
5102.72807,0.00675
5104.65654,0.01112
5106.58501,0.02495
5108.51348,0.03520
5110.44195,0.03071
5112.37042,0.02289
5114.29888,0.02213
5116.22735,0.02388
5118.15582,0.02691
5120.08429,0.03044
5122.01276,0.02909
5123.94123,0.01996
5125.86970,0.01009
5127.79816,0.00625
5129.72663,0.00305
5131.65510,-0.00128
5133.58357,-0.00178
5135.51204,-0.00044
5137.44051,0.00215
5139.36898,0.00899
5141.29745,0.01960
5143.22591,0.02944
5145.15438,0.02942
5147.08285,0.02125
5149.01132,0.01644
5150.93979,0.01237
5152.86826,0.00455
5154.79673,0.00483
5156.72519,0.01123
5158.65366,0.00611
5160.58213,-0.00123
5162.51060,0.00228
5164.43907,0.01015
5166.36754,0.01646
5168.29601,0.01739
5170.22448,0.01399
5172.15294,0.01255
5174.08141,0.00829
5176.00988,0.00126
5177.93835,0.00361
5179.86682,0.01429
5181.79529,0.02243
5183.72376,0.02197
5185.65222,0.01540
5187.58069,0.00869
5189.50916,0.00737
5191.43763,0.01766
5193.36610,0.02972
5195.29457,0.03537
5197.22304,0.04144
5199.15151,0.04442
5201.07997,0.04138
5203.00844,0.03983
5204.93691,0.03900
5206.86538,0.03086
5208.79385,0.02160
5210.72232,0.01575
5212.65079,0.00869
5214.57925,0.00728
5216.50772,0.01594
5218.43619,0.02638
5220.36466,0.02639
5222.29313,0.01734
5224.22160,0.01534
5226.15007,0.02796
5228.07854,0.04021
5230.00700,0.03446
5231.93547,0.01895
5233.86394,0.01540
5235.79241,0.01994
5237.72088,0.01904
5239.64935,0.01423
5241.57782,0.00496
5243.50628,-0.00350
5245.43475,0.00155
5247.36322,0.01665
5249.29169,0.03253
5251.22016,0.04133
5253.14863,0.04082
5255.07710,0.03485
5257.00556,0.02151
5258.93403,0.00159
5260.86250,-0.01214
5262.79097,-0.00479
5264.71944,0.02089
5266.64791,0.03726
5268.57638,0.03017
5270.50485,0.01512
5272.43331,0.00982
5274.36178,0.01485
5276.29025,0.02190
5278.21872,0.02284
5280.14719,0.01629
5282.07566,0.01034
5284.00413,0.01360
5285.93259,0.02761
5287.86106,0.04200
5289.78953,0.04351
5291.71800,0.03440
5293.64647,0.03208
5295.57494,0.04082
5297.50341,0.04878
5299.43188,0.05054
5301.36034,0.05038
5303.28881,0.05168
5305.21728,0.04914
5307.14575,0.03644
5309.07422,0.02585
5311.00269,0.02329
5312.93116,0.02084
5314.85962,0.02004
5316.78809,0.02767
5318.71656,0.04178
5320.64503,0.04860
5322.57350,0.04787
5324.50197,0.04462
5326.43044,0.03491
5328.35891,0.02583
5330.28737,0.02130
5332.21584,0.01503
5334.14431,0.00900
5336.07278,0.00868
5338.00125,0.01993
5339.92972,0.03774
5341.85819,0.04569
5343.78665,0.03962
5345.71512,0.02116
5347.64359,0.00193
5349.57206,0.00090
5351.50053,0.01644
5353.42900,0.01741
5355.35747,0.00284
5357.28594,0.00819
5359.21440,0.02626
5361.14287,0.03606
5363.07134,0.04225
5364.99981,0.04755
5366.92828,0.04320
5368.85675,0.03252
5370.78522,0.03107
5372.71368,0.04062
5374.64215,0.04366
5376.57062,0.03610
5378.49909,0.03145
5380.42756,0.02884
5382.35603,0.02538
5384.28450,0.02142
5386.21297,0.00811
5388.14143,-0.00978
5390.06990,-0.00875
5391.99837,0.01277
5393.92684,0.03616
5395.85531,0.04276
5397.78378,0.02188
5399.71225,-0.00507
5401.64071,-0.00997
5403.56918,-0.00422
5405.49765,0.00053
5407.42612,0.01736
5409.35459,0.04229
5411.28306,0.05035
5413.21153,0.04468
5415.13999,0.04713
5417.06846,0.05301
5418.99693,0.05016
5420.92540,0.03277
5422.85387,0.01442
5424.78234,0.01694
5426.71081,0.03237
5428.63928,0.03224
5430.56774,0.01725
5432.49621,0.01295
5434.42468,0.01800
5436.35315,0.01646
5438.28162,0.01433
5440.21009,0.01750
5442.13856,0.01517
5444.06702,0.01136
5445.99549,0.01440
5447.92396,0.01680
5449.85243,0.01914
5451.78090,0.03051
5453.70937,0.04589
5455.63784,0.05389
5457.56631,0.05529
5459.49477,0.04944
5461.42324,0.03195
5463.35171,0.01783
5465.28018,0.02088
5467.20865,0.02719
5469.13712,0.02546
5471.06559,0.02859
5472.99405,0.03485
5474.92252,0.03162
5476.85099,0.02367
5478.77946,0.02032
5480.70793,0.02052
5482.63640,0.01902
5484.56487,0.01904
5486.49334,0.02513
5488.42180,0.02931
5490.35027,0.02851
5492.27874,0.03721
5494.20721,0.05369
5496.13568,0.05432
5498.06415,0.03764
5499.99262,0.01977
5501.92108,0.01206
5503.84955,0.01467
5505.77802,0.01395
5507.70649,0.00337
5509.63496,0.00327
5511.56343,0.01948
5513.49190,0.03937
5515.42037,0.05301
5517.34883,0.04604
5519.27730,0.02226
5521.20577,0.01533
5523.13424,0.04234
5525.06271,0.06817
5526.99118,0.06276
5528.91965,0.05222
5530.84811,0.05767
5532.77658,0.05601
5534.70505,0.03521
5536.63352,0.01946
5538.56199,0.01892
5540.49046,0.02118
5542.41893,0.02945
5544.34740,0.04182
5546.27586,0.03933
5548.20433,0.02519
5550.13280,0.01944
5552.06127,0.02240
5553.98974,0.02108
5555.91821,0.01790
5557.84668,0.02269
5559.77514,0.02891
5561.70361,0.03220
5563.63208,0.03110
5565.56055,0.02972
5567.48902,0.03528
5569.41749,0.03906
5571.34596,0.04394
5573.27443,0.05193
5575.20289,0.04665
5577.13136,0.03235
5579.05983,0.02439
5580.98830,0.02406
5582.91677,0.03030
5584.84524,0.03450
5586.77371,0.02265
5588.70217,0.00136
5590.63064,-0.00824
5592.55911,0.00650
5594.48758,0.03289
5596.41605,0.04839
5598.34452,0.04587
5600.27299,0.03290
5602.20145,0.02680
5604.12992,0.02611
5606.05839,0.02478
5607.98686,0.02789
5609.91533,0.03385
5611.84380,0.04039
5613.77227,0.03851
5615.70074,0.02526
5617.62920,0.01491
5619.55767,0.01906
5621.48614,0.02803
5623.41461,0.03091
5625.34308,0.03238
5627.27155,0.03449
5629.20002,0.04514
5631.12848,0.05697
5633.05695,0.05688
5634.98542,0.05546
5636.91389,0.05053
5638.84236,0.03644
5640.77083,0.02267
5642.69930,0.01200
5644.62777,0.01113
5646.55623,0.02739
5648.48470,0.04925
5650.41317,0.05597
5652.34164,0.03904
5654.27011,0.02608
5656.19858,0.03847
5658.12705,0.05339
5660.05551,0.05277
5661.98398,0.03747
5663.91245,0.02847
5665.84092,0.04410
5667.76939,0.05770
5669.69786,0.05227
5671.62633,0.04668
5673.55480,0.05461
5675.48326,0.06392
5677.41173,0.05916
5679.34020,0.05664
5681.26867,0.06921
5683.19714,0.07824
5685.12561,0.06850
5687.05408,0.05206
5688.98254,0.04898
5690.91101,0.05450
5692.83948,0.05157
5694.76795,0.04528
5696.69642,0.04502
5698.62489,0.04311
5700.55336,0.03869
5702.48183,0.03085
5704.41029,0.01616
5706.33876,0.00233
5708.26723,-0.00543
5710.19570,0.00166
5712.12417,0.02329
5714.05264,0.03923
5715.98111,0.03693
5717.90957,0.02592
5719.83804,0.02663
5721.76651,0.03874
5723.69498,0.05189
5725.62345,0.06760
5727.55192,0.07117
5729.48039,0.04797
5731.40886,0.02781
5733.33732,0.04480
5735.26579,0.09334
5737.19426,0.12663
5739.12273,0.10483
5741.05120,0.04978
5742.97967,0.01572
5744.90814,0.01810
5746.83660,0.04593
5748.76507,0.08462
5750.69354,0.09944
5752.62201,0.07647
5754.55048,0.04092
5756.47895,0.01276
5758.40742,0.01239
5760.33588,0.04379
5762.26435,0.06785
5764.19282,0.05532
5766.12129,0.03646
5768.04976,0.04062
5769.97823,0.05046
5771.90670,0.04573
5773.83517,0.03203
5775.76363,0.02419
5777.69210,0.03717
5779.62057,0.06436
5781.54904,0.07215
5783.47751,0.05214
5785.40598,0.02801
5787.33445,0.02476
5789.26291,0.03612
5791.19138,0.03433
5793.11985,0.02513
5795.04832,0.02493
5796.97679,0.03007
5798.90526,0.03833
5800.83373,0.04589
5802.76220,0.03964
5804.69066,0.02359
5806.61913,0.01910
5808.54760,0.02852
5810.47607,0.04221
5812.40454,0.04449
5814.33301,0.02687
5816.26148,0.00687
5818.18994,-0.00355
5820.11841,-0.00742
5822.04688,-0.00697
5823.97535,0.00255
5825.90382,0.01770
5827.83229,0.03347
5829.76076,0.06080
5831.68923,0.08525
5833.61769,0.07869
5835.54616,0.05549
5837.47463,0.05008
5839.40310,0.05861
5841.33157,0.04979
5843.26004,0.03320
5845.18851,0.03007
5847.11697,0.02380
5849.04544,0.01234
5850.97391,0.01340
5852.90238,0.02429
5854.83085,0.02945
5856.75932,0.03341
5858.68779,0.04921
5860.61626,0.05768
5862.54472,0.05827
5864.47319,0.07139
5866.40166,0.07357
5868.33013,0.05751
5870.25860,0.05532
5872.18707,0.07055
5874.11554,0.08406
5876.04400,0.08172
5877.97247,0.06482
5879.90094,0.05164
5881.82941,0.05306
5883.75788,0.05093
5885.68635,0.03265
5887.61482,0.02967
5889.54329,0.05864
5891.47175,0.08407
5893.40022,0.08803
5895.32869,0.08346
5897.25716,0.06702
5899.18563,0.02652
5901.11410,-0.01708
5903.04257,-0.02713
5904.97103,-0.00507
5906.89950,0.01301
5908.82797,0.01614
5910.75644,0.03508
5912.68491,0.06121
5914.61338,0.05549
5916.54185,0.03828
5918.47032,0.03286
5920.39878,0.01718
5922.32725,-0.01342
5924.25572,-0.02866
5926.18419,-0.01970
5928.11266,-0.00322
5930.04113,0.01362
5931.96960,0.02781
5933.89806,0.04383
5935.82653,0.05777
5937.75500,0.05364
5939.68347,0.03684
5941.61194,0.02717
5943.54041,0.03368
5945.46888,0.03379
5947.39734,0.01405
5949.32581,0.00628
5951.25428,0.02550
5953.18275,0.02538
5955.11122,-0.01286
5957.03969,-0.03777
5958.96816,-0.01782
5960.89663,0.01022
5962.82509,0.01333
5964.75356,0.00994
5966.68203,0.03012
5968.61050,0.06943
5970.53897,0.09185
5972.46744,0.08551
5974.39591,0.05775
5976.32437,0.02661
5978.25284,0.01718
5980.18131,0.01004
5982.10978,-0.02107
5984.03825,-0.04306
5985.96672,-0.01523
5987.89519,0.02877
5989.82366,0.03356
5991.75212,0.02087
5993.68059,0.03072
5995.60906,0.05120
5997.53753,0.06837
5999.46600,0.08180
6001.39447,0.07294
6003.32294,0.04256
6005.25140,0.02442
6007.17987,0.02408
6009.10834,0.02267
6011.03681,0.02953
6012.96528,0.05353
6014.89375,0.08142
6016.82222,0.09450
6018.75069,0.06780
6020.67915,0.02754
6022.60762,0.02979
6024.53609,0.04878
6026.46456,0.04690
6028.39303,0.03467
6030.32150,0.02016
6032.24997,0.01279
6034.17843,0.00898
6036.10690,0.00516
6038.03537,0.01808
6039.96384,0.02169
6041.89231,0.00607
6043.82078,0.00788
6045.74925,0.02222
6047.67772,0.02724
6049.60618,0.03505
6051.53465,0.04425
6053.46312,0.04892
6055.39159,0.07024
6057.32006,0.09184
6059.24853,0.07831
6061.17700,0.04729
6063.10546,0.04122
6065.03393,0.04764
6066.96240,0.01027
6068.89087,-0.03390
6070.81934,-0.02087
6072.74781,0.00241
6074.67628,-0.00778
6076.60475,-0.01802
6078.53321,-0.00481
6080.46168,0.03295
6082.39015,0.07838
6084.31862,0.08556
6086.24709,0.03871
6088.17556,-0.00784
6090.10403,-0.00358
6092.03249,0.02810
6093.96096,0.03834
6095.88943,0.02134
6097.81790,0.00286
6099.74637,0.00387
6101.67484,0.01183
6103.60331,0.00573
6105.53177,-0.00688
6107.46024,-0.01423
6109.38871,0.00433
6111.31718,0.04439
6113.24565,0.04352
6115.17412,-0.00284
6117.10259,-0.02308
6119.03106,0.01983
6120.95952,0.07267
6122.88799,0.08051
6124.81646,0.08271
6126.74493,0.11979
6128.67340,0.13864
6130.60187,0.11584
6132.53034,0.09908
6134.45880,0.09488
6136.38727,0.08679
6138.31574,0.06957
6140.24421,0.04532
6142.17268,0.03129
6144.10115,0.03489
6146.02962,0.05097
6147.95809,0.08745
6149.88655,0.10618
6151.81502,0.05875
6153.74349,0.00113
6155.67196,-0.01955
6157.60043,-0.01846
6159.52890,0.00906
6161.45737,0.04034
6163.38583,0.04641
6165.31430,0.04412
6167.24277,0.04199
6169.17124,0.03611
6171.09971,0.04265
6173.02818,0.05980
6174.95665,0.06869
6176.88512,0.07270
6178.81358,0.08199
6180.74205,0.08984
6182.67052,0.07101
6184.59899,0.03589
6186.52746,0.01483
6188.45593,0.02537
6190.38440,0.06574
6192.31286,0.09296
6194.24133,0.09119
6196.16980,0.07729
6198.09827,0.04646
6200.02674,0.02472
6201.95521,0.04488
6203.88368,0.06029
6205.81215,0.05119
6207.74061,0.06687
6209.66908,0.08065
6211.59755,0.04982
6213.52602,0.02318
6215.45449,0.02391
6217.38296,0.01476
6219.31143,0.00250
6221.23989,0.00850
6223.16836,0.01045
6225.09683,0.00597
6227.02530,0.00926
6228.95377,0.01999
6230.88224,0.02373
6232.81071,0.00137
6234.73918,-0.03030
6236.66764,-0.05221
6238.59611,-0.05486
6240.52458,-0.02916
6242.45305,-0.00302
6244.38152,0.02060
6246.30999,0.07320
6248.23846,0.12009
6250.16692,0.13223
6252.09539,0.12700
6254.02386,0.10222
6255.95233,0.05766
6257.88080,0.01454
6259.80927,0.02294
6261.73774,0.08234
6263.66621,0.10421
6265.59467,0.06580
6267.52314,0.03795
6269.45161,0.02699
6271.38008,0.01673
6273.30855,0.02291
6275.23702,0.03766
6277.16549,0.03855
6279.09395,0.02612
6281.02242,0.01363
6282.95089,0.01544
6284.87936,0.01323
6286.80783,-0.01328
6288.73630,-0.01728
6290.66477,0.01335
6292.59323,0.01425
6294.52170,0.00689
6296.45017,0.02883
6298.37864,0.04069
6300.30711,0.02871
6302.23558,0.01766
6304.16405,0.02469
6306.09252,0.03588
6308.02098,0.03394
6309.94945,0.03661
6311.87792,0.06725
6313.80639,0.10214
6315.73486,0.10942
6317.66333,0.09215
6319.59180,0.07510
6321.52026,0.07938
6323.44873,0.08152
6325.37720,0.06858
6327.30567,0.04494
6329.23414,0.00805
6331.16261,0.00321
6333.09108,0.04128
6335.01955,0.05049
6336.94801,0.01873
6338.87648,0.00526
6340.80495,0.01748
6342.73342,0.02602
6344.66189,0.01431
6346.59036,0.00606
6348.51883,0.05083
6350.44729,0.09554
6352.37576,0.08246
6354.30423,0.04884
6356.23270,0.00645
6358.16117,-0.02948
6360.08964,-0.02256
6362.01811,0.00587
6363.94658,0.02344
6365.87504,0.04696
6367.80351,0.06900
6369.73198,0.05877
6371.66045,0.03398
6373.58892,0.01964
6375.51739,0.00321
6377.44586,-0.00083
6379.37432,0.01709
6381.30279,0.01363
6383.23126,0.00327
6385.15973,0.02599
6387.08820,0.04803
6389.01667,0.06375
6390.94514,0.08408
6392.87361,0.09078
6394.80207,0.06641
6396.73054,0.05117
6398.65901,0.07528
6400.58748,0.09639
6402.51595,0.09611
6404.44442,0.09912
6406.37289,0.07214
6408.30135,0.00403
6410.22982,-0.02827
6412.15829,0.02433
6414.08676,0.09710
6416.01523,0.10242
6417.94370,0.05678
6419.87217,0.03785
6421.80064,0.04955
6423.72910,0.04082
6425.65757,0.01589
6427.58604,0.02522
6429.51451,0.05925
6431.44298,0.07658
6433.37145,0.05899
6435.29992,0.02252
6437.22838,0.00623
6439.15685,0.01234
6441.08532,0.02603
6443.01379,0.05414
6444.94226,0.08606
6446.87073,0.10291
6448.79920,0.10165
6450.72766,0.09369
6452.65613,0.06937
6454.58460,0.01801
6456.51307,-0.03536
6458.44154,-0.07510
6460.37001,-0.09791
6462.29848,-0.09235
6464.22695,-0.06857
6466.15541,-0.03478
6468.08388,0.01946
6470.01235,0.09159
6471.94082,0.13787
6473.86929,0.11728
6475.79776,0.05804
6477.72623,0.03169
6479.65469,0.05325
6481.58316,0.08674
6483.51163,0.09718
6485.44010,0.06737
6487.36857,0.02371
6489.29704,-0.01070
6491.22551,-0.03412
6493.15398,-0.04239
6495.08244,-0.02836
6497.01091,0.02551
6498.93938,0.10346
6500.86785,0.14279
6502.79632,0.09610
6504.72479,0.02342
6506.65326,-0.00319
6508.58172,-0.00317
6510.51019,-0.00474
6512.43866,-0.00840
6514.36713,-0.00725
6516.29560,0.00775
6518.22407,0.02615
6520.15254,0.02801
6522.08101,0.02257
6524.00947,0.03943
6525.93794,0.04768
6527.86641,0.03410
6529.79488,0.05471
6531.72335,0.09056
6533.65182,0.09155
6535.58029,0.06539
6537.50875,0.03814
6539.43722,0.01951
6541.36569,0.02887
6543.29416,0.05415
6545.22263,0.03578
6547.15110,0.00293
6549.07957,0.02748
6551.00804,0.06829
6552.93650,0.02044
6554.86497,-0.06113
6556.79344,-0.06637
6558.72191,-0.02944
6560.65038,-0.02148
6562.57885,-0.02438
6564.50732,0.01331
6566.43578,0.05934
6568.36425,0.05786
6570.29272,0.04988
6572.22119,0.06088
6574.14966,0.04991
6576.07813,0.01289
6578.00660,-0.01564
6579.93507,-0.01891
6581.86353,-0.00563
6583.79200,0.00404
6585.72047,0.00505
6587.64894,0.01459
6589.57741,0.03523
6591.50588,0.04865
6593.43435,0.04407
6595.36281,0.03265
6597.29128,0.03787
6599.21975,0.07413
6601.14822,0.12324
6603.07669,0.14802
6605.00516,0.15638
6606.93363,0.15882
6608.86210,0.13248
6610.79056,0.08918
6612.71903,0.07884
6614.64750,0.09066
6616.57597,0.08476
6618.50444,0.08142
6620.43291,0.10168
6622.36138,0.11603
6624.28984,0.10773
6626.21831,0.11645
6628.14678,0.13421
6630.07525,0.08294
6632.00372,-0.00685
6633.93219,-0.04110
6635.86066,-0.00814
6637.78912,0.02817
6639.71759,0.01655
6641.64606,0.00214
6643.57453,0.02001
6645.50300,0.02787
6647.43147,0.01533
6649.35994,0.02895
6651.28841,0.06584
6653.21687,0.06901
6655.14534,0.01813
6657.07381,-0.02965
6659.00228,-0.02531
6660.93075,0.00064
6662.85922,0.01637
6664.78769,0.04161
6666.71615,0.07413
6668.64462,0.07107
6670.57309,0.03996
6672.50156,0.02808
6674.43003,0.03124
6676.35850,0.02744
6678.28697,0.02598
6680.21544,0.03747
6682.14390,0.05120
6684.07237,0.04093
6686.00084,0.01159
6687.92931,-0.01373
6689.85778,-0.03607
6691.78625,-0.03991
6693.71472,-0.01978
6695.64318,0.00161
6697.57165,-0.00850
6699.50012,-0.05898
6701.42859,-0.08679
6703.35706,-0.04909
6705.28553,0.01904
6707.21400,0.05225
6709.14247,-0.00472
6711.07093,-0.07905
6712.99940,-0.07899
6714.92787,-0.02507
6716.85634,0.03152
6718.78481,0.08289
6720.71328,0.12705
6722.64175,0.14417
6724.57021,0.12837
6726.49868,0.09468
6728.42715,0.06570
6730.35562,0.03980
6732.28409,0.01093
6734.21256,-0.01311
6736.14103,-0.01016
6738.06950,0.04147
6739.99796,0.07865
6741.92643,0.06676
6743.85490,0.05977
6745.78337,0.02572
6747.71184,-0.02655
6749.64031,-0.01550
6751.56878,0.01340
6753.49724,-0.00307
6755.42571,-0.01914
6757.35418,0.00176
6759.28265,0.03379
6761.21112,0.05145
6763.13959,0.05131
6765.06806,0.03165
6766.99653,0.02074
6768.92499,0.03415
6770.85346,0.03785
6772.78193,0.03540
6774.71040,0.04560
6776.63887,0.05056
6778.56734,0.04905
6780.49581,0.04611
6782.42427,0.01879
6784.35274,-0.02224
6786.28121,-0.03227
6788.20968,-0.00814
6790.13815,0.03356
6792.06662,0.06893
6793.99509,0.08201
6795.92355,0.07526
6797.85202,0.04422
6799.78049,0.02544
6801.70896,0.04984
6803.63743,0.09756
6805.56590,0.10299
6807.49437,0.04135
6809.42284,-0.02230
6811.35130,-0.06087
6813.27977,-0.06578
6815.20824,-0.00866
6817.13671,0.05080
6819.06518,0.03830
6820.99365,-0.03440
6822.92212,-0.09230
6824.85058,-0.05745
6826.77905,-0.01493
6828.70752,-0.03988
6830.63599,-0.06386
6832.56446,-0.00453
6834.49293,0.08200
6836.42140,0.07179
6838.34987,-0.00549
6840.27833,-0.03452
6842.20680,-0.01256
6844.13527,0.02102
6846.06374,0.01766
6847.99221,-0.02390
6849.92068,-0.02597
6851.84915,0.01269
6853.77761,0.03261
6855.70608,0.03238
6857.63455,0.02999
6859.56302,0.04345
6861.49149,0.05002
6863.41996,0.00663
6865.34843,-0.01603
6867.27690,0.01899
6869.20536,0.04590
6871.13383,0.06630
6873.06230,0.06050
6874.99077,0.01949
6876.91924,0.01921
6878.84771,0.04242
6880.77618,0.06983
6882.70464,0.11098
6884.63311,0.05537
6886.56158,-0.08470
6888.49005,-0.12736
6890.41852,-0.05198
6892.34699,0.01696
6894.27546,0.03823
6896.20393,0.03987
6898.13239,0.02994
6900.06086,0.04452
6901.98933,0.09311
6903.91780,0.08204
6905.84627,-0.01652
6907.77474,-0.07092
6909.70321,-0.03114
6911.63167,0.04940
6913.56014,0.08938
6915.48861,0.06343
6917.41708,0.06691
6919.34555,0.14820
6921.27402,0.20460
6923.20249,0.14814
6925.13096,0.05660
6927.05942,0.02677
6928.98789,0.01850
6930.91636,-0.02186
6932.84483,-0.05711
6934.77330,-0.05903
6936.70177,-0.04365
6938.63024,-0.02370
6940.55870,0.00773
6942.48717,0.00770
6944.41564,-0.05661
6946.34411,-0.09427
6948.27258,-0.03460
6950.20105,0.06892
6952.12952,0.14783
6954.05799,0.16915
6955.98645,0.12075
6957.91492,0.05801
6959.84339,0.01449
6961.77186,-0.02115
6963.70033,-0.02021
6965.62880,0.02935
6967.55727,0.06454
6969.48573,0.04279
6971.41420,0.05238
6973.34267,0.16221
6975.27114,0.26169
6977.19961,0.23024
6979.12808,0.14703
6981.05655,0.08810
6982.98501,0.01377
6984.91348,-0.08304
6986.84195,-0.11071
6988.77042,-0.01979
6990.69889,0.14096
6992.62736,0.27209
6994.55583,0.29418
6996.48430,0.21039
6998.41276,0.10125
7000.34123,0.02355
7002.26970,0.01243
7004.19817,0.05675
7006.12664,0.08245
7008.05511,0.03141
7009.98358,-0.05184
7011.91204,-0.06646
7013.84051,0.00116
7015.76898,0.04708
7017.69745,0.06845
7019.62592,0.11321
7021.55439,0.13643
7023.48286,0.10479
7025.41133,0.06695
7027.33979,0.03589
7029.26826,-0.02412
7031.19673,-0.04702
7033.12520,-0.01272
7035.05367,-0.01024
7036.98214,-0.01375
7038.91061,0.04880
7040.83907,0.11754
7042.76754,0.10463
7044.69601,0.04281
7046.62448,0.01624
7048.55295,0.02764
7050.48142,0.03691
7052.40989,0.01459
7054.33836,-0.00296
7056.26682,0.03506
7058.19529,0.07328
7060.12376,0.05416
7062.05223,0.06331
7063.98070,0.15237
7065.90917,0.20821
7067.83764,0.15991
7069.76610,0.07728
7071.69457,0.04179
7073.62304,0.05112
7075.55151,0.08188
7077.47998,0.08202
7079.40845,0.03207
7081.33692,-0.01664
7083.26539,-0.04196
7085.19385,-0.04481
7087.12232,0.00750
7089.05079,0.09131
7090.97926,0.13345
7092.90773,0.11023
7094.83620,0.05344
7096.76467,0.04158
7098.69313,0.06533
7100.62160,0.03463
7102.55007,-0.01604
7104.47854,-0.01566
7106.40701,0.01027
7108.33548,-0.02104
7110.26395,-0.07609
7112.19242,-0.07863
7114.12088,-0.03724
7116.04935,0.01041
7117.97782,0.01046
7119.90629,-0.04972
7121.83476,-0.06133
7123.76323,-0.01674
7125.69170,-0.00227
7127.62016,-0.02512
7129.54863,-0.04377
7131.47710,-0.04736
7133.40557,-0.03674
7135.33404,-0.01681
7137.26251,0.01442
7139.19098,0.02641
7141.11944,-0.03758
7143.04791,-0.09098
7144.97638,0.00551
7146.90485,0.11881
7148.83332,0.08682
7150.76179,0.04453
7152.69026,0.07426
7154.61873,0.07421
7156.54719,0.04630
7158.47566,0.10408
7160.40413,0.18572
7162.33260,0.17237
7164.26107,0.09451
7166.18954,0.01343
7168.11801,-0.03482
7170.04647,-0.01287
7171.97494,0.04100
7173.90341,0.05792
7175.83188,-0.01309
7177.76035,-0.08922
7179.68882,-0.06134
7181.61729,-0.02423
7183.54576,0.01347
7185.47422,0.10143
7187.40269,0.12554
7189.33116,0.05640
7191.25963,-0.01257
7193.18810,-0.01362
7195.11657,0.01012
7197.04504,0.07569
7198.97350,0.14824
7200.90197,0.11690
7202.83044,0.02841
7204.75891,0.00592
7206.68738,0.06273
7208.61585,0.13903
7210.54432,0.20540
7212.47279,0.21287
7214.40125,0.16273
7216.32972,0.14329
7218.25819,0.18425
7220.18666,0.17721
7222.11513,0.10372
7224.04360,-0.00429
7225.97207,-0.03461
7227.90053,0.07486
7229.82900,0.17663
7231.75747,0.17661
7233.68594,0.13808
7235.61441,0.10102
7237.54288,0.04557
7239.47135,-0.02017
7241.39982,-0.06903
7243.32828,-0.09431
7245.25675,-0.12763
7247.18522,-0.14130
7249.11369,-0.06635
7251.04216,0.02787
7252.97063,0.01724
7254.89910,-0.04388
7256.82756,-0.08427
7258.75603,-0.09371
7260.68450,0.00421
7262.61297,0.15746
7264.54144,0.12922
7266.46991,0.00401
7268.39838,0.00727
7270.32685,0.06076
7272.25531,0.00270
7274.18378,-0.08926
7276.11225,-0.10616
7278.04072,-0.07906
7279.96919,-0.02476
7281.89766,-0.00635
7283.82613,-0.03529
7285.75459,-0.04030
7287.68306,-0.05015
7289.61153,-0.13572
7291.54000,-0.18328
7293.46847,-0.05178
7295.39694,0.10739
7297.32541,0.11094
7299.25387,0.05123
7301.18234,0.04266
7303.11081,0.06655
7305.03928,0.12570
7306.96775,0.15988
7308.89622,0.08753
7310.82469,0.07136
7312.75316,0.15626
7314.68162,0.24216
7316.61009,0.26372
7318.53856,0.17974
7320.46703,0.08016
7322.39550,0.03060
7324.32397,-0.02219
7326.25244,-0.11685
7328.18090,-0.15849
7330.10937,-0.16726
7332.03784,-0.24984
7333.96631,-0.26336
7335.89478,-0.17477
7337.82325,-0.03928
7339.75172,0.10084
7341.68019,0.08624
7343.60865,0.04436
7345.53712,0.12450
7347.46559,0.23710
7349.39406,0.21148
7351.32253,0.09967
7353.25100,0.05607
7355.17947,0.07997
7357.10793,0.10970
7359.03640,0.12003
7360.96487,0.06803
7362.89334,-0.01465
7364.82181,-0.04568
7366.75028,-0.06736
7368.67875,-0.05504
7370.60722,0.00082
7372.53568,-0.03595
7374.46415,-0.14201
7376.39262,-0.08273
7378.32109,0.08652
7380.24956,0.20218
7382.17803,0.20587
7384.10650,0.11785
7386.03496,0.07498
7387.96343,0.13721
7389.89190,0.17125
7391.82037,0.13219
7393.74884,0.06758
7395.67731,-0.00192
7397.60578,-0.00580
7399.53425,0.04463
7401.46271,0.07602
7403.39118,0.12281
7405.31965,0.18025
7407.24812,0.14264
7409.17659,0.06669
7411.10506,0.00997
7413.03353,-0.00347
7414.96199,0.03990
7416.89046,0.14502
7418.81893,0.27722
7420.74740,0.29637
7422.67587,0.20077
7424.60434,0.13493
7426.53281,0.14140
7428.46128,0.13188
7430.38974,0.08652
7432.31821,0.16098
7434.24668,0.31174
7436.17515,0.29959
7438.10362,0.07923
7440.03209,-0.09007
7441.96056,-0.01195
7443.88902,0.18613
7445.81749,0.29775
7447.74596,0.28555
7449.67443,0.18130
7451.60290,0.01860
7453.53137,-0.08091
7455.45984,-0.09413
7457.38831,-0.07635
7459.31677,-0.04893
7461.24524,-0.07268
7463.17371,-0.13976
7465.10218,-0.09649
7467.03065,0.03639
7468.95912,0.02523
7470.88759,-0.07102
7472.81605,-0.02019
7474.74452,0.07253
7476.67299,0.02960
7478.60146,-0.05428
7480.52993,-0.00705
7482.45840,0.07070
7484.38687,0.05396
7486.31533,-0.03280
7488.24380,-0.14002
7490.17227,-0.20877
7492.10074,-0.22557
7494.02921,-0.18160
7495.95768,-0.08544
7497.88615,0.01755
