399.19301,-1.36285
401.12148,-0.36526
403.04995,0.13375
404.97842,0.15498
406.90689,0.02452
408.83536,-0.07087
410.76382,-0.09990
412.69229,0.01206
414.62076,0.14494
416.54923,0.11708
418.47770,-0.00078
420.40617,0.08794
422.33464,0.24726
424.26311,0.25843
426.19157,0.17928
428.12004,0.12946
430.04851,0.09791
431.97698,0.08812
433.90545,0.15073
435.83392,0.24419
437.76239,0.32133
439.69085,0.36701
441.61932,0.34642
443.54779,0.24508
445.47626,0.12352
447.40473,0.07668
449.33320,0.15401
451.26167,0.23406
453.19013,0.24961
455.11860,0.26909
457.04707,0.26061
458.97554,0.20078
460.90401,0.15867
462.83248,0.13162
464.76095,0.11506
466.68942,0.08089
468.61788,0.03689
470.54635,0.06241
472.47482,0.18502
474.40329,0.27375
476.33176,0.19738
478.26023,0.13086
480.18870,0.13076
482.11716,0.14417
484.04563,0.14361
485.97410,0.14329
487.90257,0.14497
489.83104,0.15259
491.75951,0.13978
493.68798,0.10203
495.61645,0.10036
497.54491,0.13754
499.47338,0.15171
501.40185,0.12716
503.33032,0.08410
505.25879,0.05618
507.18726,0.08086
509.11573,0.12937
511.04419,0.15237
512.97266,0.17029
514.90113,0.18601
516.82960,0.17943
518.75807,0.15414
520.68654,0.11324
522.61501,0.08389
524.54348,0.09249
526.47194,0.10435
528.40041,0.10092
530.32888,0.10567
532.25735,0.11246
534.18582,0.11004
536.11429,0.10208
538.04276,0.09696
539.97122,0.12045
541.89969,0.14227
543.82816,0.11068
545.75663,0.07678
547.68510,0.08050
549.61357,0.05852
551.54204,-0.04369
553.47051,-0.12009
555.39897,-0.04697
557.32744,0.08553
559.25591,0.13997
561.18438,0.12620
563.11285,0.09703
565.04132,0.08439
566.96979,0.11570
568.89825,0.17989
570.82672,0.23529
572.75519,0.24215
574.68366,0.19484
576.61213,0.14889
578.54060,0.12226
580.46907,0.09847
582.39754,0.10463
584.32600,0.13608
586.25447,0.14298
588.18294,0.12640
590.11141,0.12196
592.03988,0.12522
593.96835,0.11351
595.89682,0.09777
597.82528,0.10483
599.75375,0.12085
601.68222,0.12586
603.61069,0.12407
605.53916,0.11321
607.46763,0.10868
609.39610,0.11664
611.32456,0.11752
613.25303,0.11221
615.18150,0.11193
617.10997,0.11583
619.03844,0.11942
620.96691,0.11988
622.89538,0.12123
624.82385,0.13044
626.75231,0.14118
628.68078,0.15214
630.60925,0.19012
632.53772,0.23776
634.46619,0.22040
636.39466,0.15764
638.32313,0.12228
640.25159,0.11414
642.18006,0.11232
644.10853,0.11452
646.03700,0.11149
647.96547,0.10771
649.89394,0.10766
651.82241,0.09795
653.75088,0.09109
655.67934,0.09556
657.60781,0.10889
659.53628,0.13579
661.46475,0.14612
663.39322,0.12408
665.32169,0.09835
667.25016,0.09219
669.17862,0.10665
671.10709,0.12048
673.03556,0.13591
674.96403,0.14921
676.89250,0.14836
678.82097,0.14456
680.74944,0.14540
682.67791,0.13565
684.60637,0.12122
686.53484,0.11284
688.46331,0.11056
690.39178,0.12388
692.32025,0.14579
694.24872,0.15528
696.17719,0.14533
698.10565,0.13077
700.03412,0.13139
701.96259,0.13753
703.89106,0.13122
705.81953,0.11613
707.74800,0.12523
709.67647,0.22803
711.60494,0.34510
713.53340,0.29106
715.46187,0.15511
717.39034,0.10954
719.31881,0.12031
721.24728,0.13452
723.17575,0.14594
725.10422,0.15654
727.03268,0.16607
728.96115,0.16856
730.88962,0.17257
732.81809,0.17939
734.74656,0.17573
736.67503,0.15839
738.60350,0.13577
740.53197,0.12005
742.46043,0.12245
744.38890,0.13134
746.31737,0.13541
748.24584,0.13857
750.17431,0.13726
752.10278,0.13204
754.03125,0.13414
755.95971,0.15103
757.88818,0.16516
759.81665,0.15904
761.74512,0.14419
763.67359,0.12932
765.60206,0.11214
767.53053,0.10585
769.45900,0.12088
771.38746,0.13551
773.31593,0.13240
775.24440,0.12510
777.17287,0.12424
779.10134,0.12579
781.02981,0.13317
782.95828,0.13932
784.88674,0.12928
786.81521,0.11344
788.74368,0.10245
790.67215,0.09362
792.60062,0.08929
794.52909,0.09532
796.45756,0.10857
798.38602,0.11926
800.31449,0.12303
802.24296,0.12154
804.17143,0.12257
806.09990,0.12777
808.02837,0.13131
809.95684,0.13765
811.88531,0.14803
813.81377,0.14718
815.74224,0.13563
817.67071,0.12738
819.59918,0.12699
821.52765,0.13195
823.45612,0.13238
825.38459,0.13121
827.31305,0.13713
829.24152,0.14420
831.16999,0.14377
833.09846,0.13595
835.02693,0.12882
836.95540,0.12860
838.88387,0.13680
840.81234,0.14522
842.74080,0.14453
844.66927,0.13979
846.59774,0.13843
848.52621,0.14113
850.45468,0.14606
852.38315,0.14621
854.31162,0.14164
856.24008,0.13907
858.16855,0.13927
860.09702,0.14009
862.02549,0.13823
863.95396,0.13696
865.88243,0.13777
867.81090,0.14852
869.73937,0.16084
871.66783,0.14716
873.59630,0.13386
875.52477,0.14102
877.45324,0.14336
879.38171,0.14037
881.31018,0.14350
883.23865,0.14581
885.16711,0.13979
887.09558,0.14033
889.02405,0.14946
890.95252,0.14897
892.88099,0.14188
894.80946,0.13920
896.73793,0.13958
898.66640,0.13858
900.59486,0.13845
902.52333,0.14086
904.45180,0.14278
906.38027,0.13928
908.30874,0.13192
910.23721,0.13483
912.16568,0.14830
914.09414,0.15270
916.02261,0.14762
917.95108,0.14518
919.87955,0.14118
921.80802,0.13634
923.73649,0.13400
925.66496,0.13251
927.59343,0.13855
929.52189,0.14957
931.45036,0.15592
933.37883,0.15607
935.30730,0.15043
937.23577,0.14094
939.16424,0.13545
941.09271,0.13792
943.02117,0.14052
944.94964,0.13843
946.87811,0.13764
948.80658,0.14073
950.73505,0.14391
952.66352,0.15070
954.59199,0.15887
956.52045,0.15512
958.44892,0.14303
960.37739,0.13561
962.30586,0.13714
964.23433,0.14770
966.16280,0.15909
968.09127,0.15989
970.01974,0.15387
971.94820,0.15177
973.87667,0.14958
975.80514,0.14442
977.73361,0.14822
979.66208,0.15372
981.59055,0.14638
983.51902,0.14157
985.44748,0.14905
987.37595,0.15684
989.30442,0.15798
991.23289,0.15588
993.16136,0.15533
995.08983,0.15695
997.01830,0.15652
998.94677,0.15216
1000.87523,0.15096
1002.80370,0.15318
1004.73217,0.15280
1006.66064,0.15357
1008.58911,0.15907
1010.51758,0.16291
1012.44605,0.15903
1014.37451,0.15256
1016.30298,0.15402
1018.23145,0.16027
1020.15992,0.15834
1022.08839,0.14956
1024.01686,0.14358
1025.94533,0.15619
1027.87380,0.17998
1029.80226,0.17501
1031.73073,0.15098
1033.65920,0.14512
1035.58767,0.15350
1037.51614,0.15979
1039.44461,0.15861
1041.37308,0.15350
1043.30154,0.14999
1045.23001,0.15211
1047.15848,0.15576
1049.08695,0.15177
1051.01542,0.14642
1052.94389,0.14936
1054.87236,0.15343
1056.80083,0.15364
1058.72929,0.15751
1060.65776,0.16470
1062.58623,0.16639
1064.51470,0.16149
1066.44317,0.15620
1068.37164,0.15479
1070.30011,0.15940
1072.22857,0.16674
1074.15704,0.16878
1076.08551,0.16431
1078.01398,0.16057
1079.94245,0.16443
1081.87092,0.17014
1083.79939,0.16825
1085.72786,0.16217
1087.65632,0.16183
1089.58479,0.16736
1091.51326,0.16799
1093.44173,0.16621
1095.37020,0.17355
1097.29867,0.18070
1099.22714,0.17604
1101.15560,0.16558
1103.08407,0.15954
1105.01254,0.16148
1106.94101,0.16658
1108.86948,0.17075
1110.79795,0.17130
1112.72642,0.16816
1114.65489,0.16440
1116.58335,0.16053
1118.51182,0.15941
1120.44029,0.16244
1122.36876,0.16255
1124.29723,0.15899
1126.22570,0.16075
1128.15417,0.16143
1130.08263,0.15270
1132.01110,0.14634
1133.93957,0.14637
1135.86804,0.15123
1137.79651,0.16462
1139.72498,0.17550
1141.65345,0.17223
1143.58191,0.16222
1145.51038,0.15293
1147.43885,0.14472
1149.36732,0.14442
1151.29579,0.15330
1153.22426,0.16053
1155.15273,0.16275
1157.08120,0.16096
1159.00966,0.15609
1160.93813,0.15592
1162.86660,0.16383
1164.79507,0.17231
1166.72354,0.17270
1168.65201,0.16565
1170.58048,0.15971
1172.50894,0.15821
1174.43741,0.15778
1176.36588,0.15777
1178.29435,0.16132
1180.22282,0.16561
1182.15129,0.16146
1184.07976,0.15174
1186.00823,0.15019
1187.93669,0.15765
1189.86516,0.16549
1191.79363,0.16879
1193.72210,0.16614
1195.65057,0.16265
1197.57904,0.16161
1199.50751,0.16054
1201.43597,0.16100
1203.36444,0.16355
1205.29291,0.16474
1207.22138,0.16441
1209.14985,0.16522
1211.07832,0.16688
1213.00679,0.16512
1214.93526,0.16228
1216.86372,0.16377
1218.79219,0.16680
1220.72066,0.16940
1222.64913,0.17246
1224.57760,0.17344
1226.50607,0.16953
1228.43454,0.16537
1230.36300,0.16682
1232.29147,0.16816
1234.21994,0.16273
1236.14841,0.15610
1238.07688,0.15687
1240.00535,0.16253
1241.93382,0.16349
1243.86229,0.15905
1245.79075,0.15643
1247.71922,0.15783
1249.64769,0.15889
1251.57616,0.15671
1253.50463,0.15369
1255.43310,0.15315
1257.36157,0.15354
1259.29003,0.15120
1261.21850,0.14998
1263.14697,0.15610
1265.07544,0.16397
1267.00391,0.16386
1268.93238,0.15892
1270.86085,0.15964
1272.78932,0.16442
1274.71778,0.16314
1276.64625,0.15882
1278.57472,0.16059
1280.50319,0.16428
1282.43166,0.16520
1284.36013,0.16683
1286.28860,0.16656
1288.21706,0.16248
1290.14553,0.15912
1292.07400,0.15713
1294.00247,0.15769
1295.93094,0.16068
1297.85941,0.16092
1299.78788,0.15461
1301.71634,0.13629
1303.64481,0.11134
1305.57328,0.10882
1307.50175,0.13772
1309.43022,0.16465
1311.35869,0.17130
1313.28716,0.17011
1315.21563,0.16858
1317.14409,0.16899
1319.07256,0.16995
1321.00103,0.16536
1322.92950,0.15930
1324.85797,0.15676
1326.78644,0.15623
1328.71491,0.15535
1330.64337,0.15072
1332.57184,0.15038
1334.50031,0.15875
1336.42878,0.16366
1338.35725,0.16381
1340.28572,0.16171
1342.21419,0.16113
1344.14266,0.16268
1346.07112,0.15602
1347.99959,0.15124
1349.92806,0.15613
1351.85653,0.15833
1353.78500,0.15690
1355.71347,0.15710
1357.64194,0.16184
1359.57040,0.16895
1361.49887,0.17318
1363.42734,0.17315
1365.35581,0.17328
1367.28428,0.17663
1369.21275,0.17741
1371.14122,0.17562
1373.06969,0.17613
1374.99815,0.17519
1376.92662,0.17226
1378.85509,0.17264
1380.78356,0.17489
1382.71203,0.17516
1384.64050,0.17642
1386.56897,0.18028
1388.49743,0.18048
1390.42590,0.17540
1392.35437,0.17234
1394.28284,0.17793
1396.21131,0.18571
1398.13978,0.18382
1400.06825,0.17742
1401.99672,0.17648
1403.92518,0.17996
1405.85365,0.17960
1407.78212,0.17632
1409.71059,0.17678
1411.63906,0.17817
1413.56753,0.17904
1415.49600,0.18254
1417.42446,0.18641
1419.35293,0.18423
1421.28140,0.17909
1423.20987,0.17745
1425.13834,0.17940
1427.06681,0.18416
1428.99528,0.18793
1430.92375,0.18598
1432.85221,0.18217
1434.78068,0.18193
1436.70915,0.18216
1438.63762,0.17816
1440.56609,0.17439
1442.49456,0.17426
1444.42303,0.17858
1446.35149,0.18565
1448.27996,0.19267
1450.20843,0.19675
1452.13690,0.19537
1454.06537,0.19314
1455.99384,0.19918
1457.92231,0.20121
1459.85077,0.18816
1461.77924,0.18269
1463.70771,0.18579
1465.63618,0.18764
1467.56465,0.18661
1469.49312,0.18938
1471.42159,0.19761
1473.35006,0.20548
1475.27852,0.20340
1477.20699,0.19525
1479.13546,0.18891
1481.06393,0.18739
1482.99240,0.18865
1484.92087,0.19330
1486.84934,0.20072
1488.77780,0.20302
1490.70627,0.19781
1492.63474,0.19429
1494.56321,0.19644
1496.49168,0.20017
1498.42015,0.19845
1500.34862,0.19872
1502.27709,0.20508
1504.20555,0.21605
1506.13402,0.23033
1508.06249,0.22314
1509.99096,0.20292
1511.91943,0.19128
1513.84790,0.19193
1515.77637,0.20646
1517.70483,0.22344
1519.63330,0.22847
1521.56177,0.21785
1523.49024,0.20370
1525.41871,0.20390
1527.34718,0.20583
1529.27565,0.20104
1531.20412,0.19959
1533.13258,0.19989
1535.06105,0.19637
1536.98952,0.20039
1538.91799,0.21700
1540.84646,0.23360
1542.77493,0.22853
1544.70340,0.20945
1546.63186,0.19391
1548.56033,0.19167
1550.48880,0.19486
1552.41727,0.19716
1554.34574,0.20062
1556.27421,0.20869
1558.20268,0.22497
1560.13115,0.21645
1562.05961,0.19713
1563.98808,0.19164
1565.91655,0.19333
1567.84502,0.19568
1569.77349,0.19633
1571.70196,0.19641
1573.63043,0.19796
1575.55889,0.19843
1577.48736,0.19431
1579.41583,0.19159
1581.34430,0.19144
1583.27277,0.18797
1585.20124,0.17984
1587.12971,0.17548
1589.05818,0.17830
1590.98664,0.18163
1592.91511,0.18295
1594.84358,0.18276
1596.77205,0.18046
1598.70052,0.17928
1600.62899,0.17860
1602.55746,0.17519
1604.48592,0.17388
1606.41439,0.17943
1608.34286,0.18637
1610.27133,0.18805
1612.19980,0.18720
1614.12827,0.18936
1616.05674,0.19597
1617.98521,0.19920
1619.91367,0.19677
1621.84214,0.19589
1623.77061,0.19576
1625.69908,0.19526
1627.62755,0.19646
1629.55602,0.19673
1631.48449,0.19764
1633.41295,0.20533
1635.34142,0.21676
1637.26989,0.21196
1639.19836,0.19993
1641.12683,0.19419
1643.05530,0.19632
1644.98377,0.20749
1646.91223,0.21992
1648.84070,0.21953
1650.76917,0.22079
1652.69764,0.22977
1654.62611,0.22316
1656.55458,0.20647
1658.48305,0.18946
1660.41152,0.17703
1662.33998,0.18412
1664.26845,0.20025
1666.19692,0.20669
1668.12539,0.21399
1670.05386,0.21990
1671.98233,0.21469
1673.91080,0.20884
1675.83926,0.20139
1677.76773,0.19598
1679.69620,0.19727
1681.62467,0.20085
1683.55314,0.20401
1685.48161,0.20382
1687.41008,0.20106
1689.33855,0.19735
1691.26701,0.19347
1693.19548,0.19470
1695.12395,0.20400
1697.05242,0.21651
1698.98089,0.22424
1700.90936,0.21862
1702.83783,0.20730
1704.76629,0.20427
1706.69476,0.20183
1708.62323,0.19457
1710.55170,0.19129
1712.48017,0.19495
1714.40864,0.20491
1716.33711,0.22095
1718.26558,0.21902
1720.19404,0.19806
1722.12251,0.18754
1724.05098,0.18866
1725.97945,0.19020
1727.90792,0.18806
1729.83639,0.18690
1731.76486,0.19239
1733.69332,0.19855
1735.62179,0.19332
1737.55026,0.19141
1739.47873,0.19668
1741.40720,0.19991
1743.33567,0.20043
1745.26414,0.20261
1747.19261,0.20660
1749.12107,0.20950
1751.04954,0.20297
1752.97801,0.19191
1754.90648,0.18804
1756.83495,0.19010
1758.76342,0.19358
1760.69189,0.19628
1762.62035,0.19453
1764.54882,0.19092
1766.47729,0.19105
1768.40576,0.19588
1770.33423,0.20499
1772.26270,0.21060
1774.19117,0.20379
1776.11964,0.19493
1778.04810,0.19178
1779.97657,0.19345
1781.90504,0.19279
1783.83351,0.18674
1785.76198,0.18291
1787.69045,0.18676
1789.61892,0.19666
1791.54738,0.20594
1793.47585,0.20345
1795.40432,0.19624
1797.33279,0.19396
1799.26126,0.19379
1801.18973,0.19279
1803.11820,0.19164
1805.04666,0.19089
1806.97513,0.19161
1808.90360,0.19359
1810.83207,0.19263
1812.76054,0.18895
1814.68901,0.18842
1816.61748,0.18800
1818.54595,0.18452
1820.47441,0.18548
1822.40288,0.19065
1824.33135,0.19290
1826.25982,0.19462
1828.18829,0.19921
1830.11676,0.20177
1832.04523,0.19867
1833.97369,0.19455
1835.90216,0.19117
1837.83063,0.18838
1839.75910,0.18910
1841.68757,0.19263
1843.61604,0.19520
1845.54451,0.19542
1847.47298,0.19377
1849.40144,0.19137
1851.32991,0.18956
1853.25838,0.18750
1855.18685,0.18476
1857.11532,0.18344
1859.04379,0.18577
1860.97226,0.19021
1862.90072,0.19195
1864.82919,0.19103
1866.75766,0.19195
1868.68613,0.19331
1870.61460,0.18927
1872.54307,0.18382
1874.47154,0.18174
1876.40001,0.18215
1878.32847,0.18321
1880.25694,0.18394
1882.18541,0.18508
1884.11388,0.18718
1886.04235,0.18931
1887.97082,0.19122
1889.89929,0.19110
1891.82775,0.18991
1893.75622,0.19027
1895.68469,0.18896
1897.61316,0.18582
1899.54163,0.18530
1901.47010,0.18688
1903.39857,0.18735
1905.32704,0.18630
1907.25550,0.18620
1909.18397,0.18770
1911.11244,0.18888
1913.04091,0.18911
1914.96938,0.18892
1916.89785,0.18971
1918.82632,0.19217
1920.75478,0.19515
1922.68325,0.19678
1924.61172,0.19504
1926.54019,0.19218
1928.46866,0.19069
1930.39713,0.18950
1932.32560,0.18923
1934.25407,0.19065
1936.18253,0.18992
1938.11100,0.18701
1940.03947,0.18725
1941.96794,0.19062
1943.89641,0.19324
1945.82488,0.19442
1947.75335,0.19394
1949.68181,0.19094
1951.61028,0.18775
1953.53875,0.18720
1955.46722,0.18825
1957.39569,0.18826
1959.32416,0.18609
1961.25263,0.18456
1963.18110,0.18693
1965.10956,0.18895
1967.03803,0.18688
1968.96650,0.18567
1970.89497,0.18732
1972.82344,0.18753
1974.75191,0.18637
1976.68038,0.18707
1978.60884,0.18920
1980.53731,0.19114
1982.46578,0.19156
1984.39425,0.19086
1986.32272,0.19149
1988.25119,0.19318
1990.17966,0.19352
1992.10812,0.19113
1994.03659,0.18820
1995.96506,0.18675
1997.89353,0.18613
1999.82200,0.18760
2001.75047,0.18958
2003.67894,0.18900
2005.60741,0.18794
2007.53587,0.18794
2009.46434,0.18724
2011.39281,0.18573
2013.32128,0.18539
2015.24975,0.18695
2017.17822,0.18891
2019.10669,0.19008
2021.03515,0.19056
2022.96362,0.18989
2024.89209,0.18835
2026.82056,0.18746
2028.74903,0.18770
2030.67750,0.18820
2032.60597,0.18821
2034.53444,0.18979
2036.46290,0.19442
2038.39137,0.19883
2040.31984,0.19826
2042.24831,0.19337
2044.17678,0.19026
2046.10525,0.18960
2048.03372,0.18814
2049.96218,0.18697
2051.89065,0.18835
2053.81912,0.19146
2055.74759,0.19271
2057.67606,0.19056
2059.60453,0.18849
2061.53300,0.18916
2063.46147,0.19050
2065.38993,0.19080
2067.31840,0.19071
2069.24687,0.19121
2071.17534,0.19234
2073.10381,0.19178
2075.03228,0.18911
2076.96075,0.18713
2078.88921,0.18641
2080.81768,0.18620
2082.74615,0.18746
2084.67462,0.19002
2086.60309,0.19124
2088.53156,0.19027
2090.46003,0.18967
2092.38850,0.19048
2094.31696,0.19177
2096.24543,0.19380
2098.17390,0.19454
2100.10237,0.19178
2102.03084,0.18961
2103.95931,0.19168
2105.88778,0.19447
2107.81624,0.19407
2109.74471,0.19182
2111.67318,0.19087
2113.60165,0.19189
2115.53012,0.19137
2117.45859,0.18759
2119.38706,0.18473
2121.31553,0.18582
2123.24399,0.18961
2125.17246,0.19274
2127.10093,0.19261
2129.02940,0.19070
2130.95787,0.18926
2132.88634,0.18973
2134.81481,0.19215
2136.74327,0.19210
2138.67174,0.19002
2140.60021,0.19075
2142.52868,0.19076
2144.45715,0.18763
2146.38562,0.18560
2148.31409,0.18576
2150.24255,0.18504
2152.17102,0.18340
2154.09949,0.18479
2156.02796,0.18902
2157.95643,0.19226
2159.88490,0.19303
2161.81337,0.19202
2163.74184,0.19040
2165.67030,0.19066
2167.59877,0.19262
2169.52724,0.19255
2171.45571,0.19169
2173.38418,0.19246
2175.31265,0.19237
2177.24112,0.19095
2179.16958,0.19087
2181.09805,0.19153
2183.02652,0.19099
2184.95499,0.19028
2186.88346,0.18869
2188.81193,0.18556
2190.74040,0.18440
2192.66887,0.18625
2194.59733,0.18739
2196.52580,0.18634
2198.45427,0.18604
2200.38274,0.18819
2202.31121,0.19139
2204.23968,0.19379
2206.16815,0.19340
2208.09661,0.19048
2210.02508,0.18856
2211.95355,0.18796
2213.88202,0.18685
2215.81049,0.18617
2217.73896,0.18653
2219.66743,0.18832
2221.59590,0.19039
2223.52436,0.19009
2225.45283,0.18865
2227.38130,0.18816
2229.30977,0.18822
2231.23824,0.18874
2233.16671,0.18873
2235.09518,0.18692
2237.02364,0.18641
2238.95211,0.18869
2240.88058,0.19126
2242.80905,0.19284
2244.73752,0.19280
2246.66599,0.19120
2248.59446,0.18872
2250.52293,0.18761
2252.45139,0.18952
2254.37986,0.19157
2256.30833,0.19123
2258.23680,0.18927
2260.16527,0.18841
2262.09374,0.18829
2264.02221,0.18732
2265.95067,0.18890
2267.87914,0.19298
2269.80761,0.19460
2271.73608,0.19506
2273.66455,0.19642
2275.59302,0.19496
2277.52149,0.19110
2279.44996,0.18941
2281.37842,0.19016
2283.30689,0.19198
2285.23536,0.19434
2287.16383,0.19525
2289.09230,0.19414
2291.02077,0.19362
2292.94924,0.19385
2294.87770,0.19333
2296.80617,0.19198
2298.73464,0.18888
2300.66311,0.18529
2302.59158,0.18449
2304.52005,0.18565
2306.44852,0.18581
2308.37699,0.18462
2310.30545,0.18247
2312.23392,0.17985
2314.16239,0.17970
2316.09086,0.18238
2318.01933,0.18139
2319.94780,0.17348
2321.87627,0.16795
2323.80473,0.17180
2325.73320,0.17688
2327.66167,0.17869
2329.59014,0.18098
2331.51861,0.17908
2333.44708,0.17172
2335.37555,0.16917
2337.30401,0.17078
2339.23248,0.16832
2341.16095,0.16534
2343.08942,0.16817
2345.01789,0.17441
2346.94636,0.17918
2348.87483,0.18042
2350.80330,0.17913
2352.73176,0.17576
2354.66023,0.16821
2356.58870,0.16338
2358.51717,0.17512
2360.44564,0.19115
2362.37411,0.19334
2364.30258,0.19287
2366.23104,0.19650
2368.15951,0.19677
2370.08798,0.20046
2372.01645,0.20538
2373.94492,0.19685
2375.87339,0.18293
2377.80186,0.17953
2379.73033,0.18370
2381.65879,0.18675
2383.58726,0.18727
2385.51573,0.18771
2387.44420,0.18950
2389.37267,0.19067
2391.30114,0.18965
2393.22961,0.18867
2395.15807,0.19001
2397.08654,0.19304
2399.01501,0.19451
2400.94348,0.19280
2402.87195,0.19111
2404.80042,0.19105
2406.72889,0.19131
2408.65736,0.19133
2410.58582,0.19022
2412.51429,0.18908
2414.44276,0.18932
2416.37123,0.18791
2418.29970,0.18353
2420.22817,0.18033
2422.15664,0.18156
2424.08510,0.18605
2426.01357,0.18875
2427.94204,0.18709
2429.87051,0.18658
2431.79898,0.18901
2433.72745,0.18874
2435.65592,0.18813
2437.58439,0.19200
2439.51285,0.19482
2441.44132,0.19434
2443.36979,0.19468
2445.29826,0.19463
2447.22673,0.19222
2449.15520,0.18963
2451.08367,0.18906
2453.01213,0.19084
2454.94060,0.19342
2456.86907,0.19456
2458.79754,0.19382
2460.72601,0.19251
2462.65448,0.19154
2464.58295,0.19193
2466.51142,0.19371
2468.43988,0.19472
2470.36835,0.19398
2472.29682,0.19294
2474.22529,0.19226
2476.15376,0.19088
2478.08223,0.18993
2480.01070,0.19134
2481.93916,0.19336
2483.86763,0.19418
2485.79610,0.19399
2487.72457,0.19327
2489.65304,0.19290
2491.58151,0.19331
2493.50998,0.19307
2495.43844,0.19060
2497.36691,0.18802
2499.29538,0.18722
2501.22385,0.18778
2503.15232,0.18986
2505.08079,0.19125
2507.00926,0.19022
2508.93773,0.18903
2510.86619,0.18944
2512.79466,0.19029
2514.72313,0.19014
2516.65160,0.18980
2518.58007,0.19076
2520.50854,0.19180
2522.43701,0.19158
2524.36547,0.19331
2526.29394,0.19674
2528.22241,0.19669
2530.15088,0.19389
2532.07935,0.19135
2534.00782,0.18998
2535.93629,0.19178
2537.86476,0.19552
2539.79322,0.19687
2541.72169,0.19533
2543.65016,0.19280
2545.57863,0.19171
2547.50710,0.19363
2549.43557,0.19420
2551.36404,0.19166
2553.29250,0.19104
2555.22097,0.19192
2557.14944,0.19086
2559.07791,0.19118
2561.00638,0.19560
2562.93485,0.19788
2564.86332,0.19432
2566.79179,0.19121
2568.72025,0.19235
2570.64872,0.19542
2572.57719,0.19735
2574.50566,0.19614
2576.43413,0.19332
2578.36260,0.19148
2580.29107,0.19145
2582.21953,0.19276
2584.14800,0.19476
2586.07647,0.19705
2588.00494,0.19826
2589.93341,0.19815
2591.86188,0.19762
2593.79035,0.19783
2595.71882,0.19885
2597.64728,0.19790
2599.57575,0.19496
2601.50422,0.19235
2603.43269,0.19004
2605.36116,0.18824
2607.28963,0.18737
2609.21810,0.18884
2611.14656,0.19408
2613.07503,0.19947
2615.00350,0.20001
2616.93197,0.19645
2618.86044,0.19415
2620.78891,0.19504
2622.71738,0.19629
2624.64585,0.19703
2626.57431,0.19720
2628.50278,0.19607
2630.43125,0.19531
2632.35972,0.19634
2634.28819,0.19852
2636.21666,0.19947
2638.14513,0.19826
2640.07359,0.19760
2642.00206,0.19793
2643.93053,0.19621
2645.85900,0.19340
2647.78747,0.19343
2649.71594,0.19509
2651.64441,0.19502
2653.57288,0.19412
2655.50134,0.19570
2657.42981,0.20027
2659.35828,0.20235
2661.28675,0.19974
2663.21522,0.19838
2665.14369,0.19997
2667.07216,0.20014
2669.00062,0.19726
2670.92909,0.19405
2672.85756,0.19484
2674.78603,0.19934
2676.71450,0.20107
2678.64297,0.19852
2680.57144,0.19750
2682.49990,0.19811
2684.42837,0.19720
2686.35684,0.19642
2688.28531,0.19541
2690.21378,0.19329
2692.14225,0.19348
2694.07072,0.19651
2695.99919,0.19811
2697.92765,0.19772
2699.85612,0.19921
2701.78459,0.20260
2703.71306,0.20467
2705.64153,0.20402
2707.57000,0.20217
2709.49847,0.20122
2711.42693,0.20054
2713.35540,0.19861
2715.28387,0.19606
2717.21234,0.19541
2719.14081,0.19597
2721.06928,0.19538
2722.99775,0.19591
2724.92622,0.19805
2726.85468,0.19849
2728.78315,0.19788
2730.71162,0.19928
2732.64009,0.20225
2734.56856,0.20334
2736.49703,0.20156
2738.42550,0.19881
2740.35396,0.19664
2742.28243,0.19834
2744.21090,0.20386
2746.13937,0.20623
2748.06784,0.20469
2749.99631,0.20439
2751.92478,0.20463
2753.85325,0.20296
2755.78171,0.20100
2757.71018,0.19959
2759.63865,0.19895
2761.56712,0.20022
2763.49559,0.20180
2765.42406,0.20364
2767.35253,0.20732
2769.28099,0.21058
2771.20946,0.21151
2773.13793,0.21003
2775.06640,0.20635
2776.99487,0.20247
2778.92334,0.20095
2780.85181,0.20166
2782.78028,0.20342
2784.70874,0.20649
2786.63721,0.20759
2788.56568,0.20408
2790.49415,0.20037
2792.42262,0.19896
2794.35109,0.19877
2796.27956,0.20009
2798.20802,0.20282
2800.13649,0.20585
2802.06496,0.20882
2803.99343,0.21211
2805.92190,0.21313
2807.85037,0.20996
2809.77884,0.20645
2811.70731,0.20591
2813.63577,0.20783
2815.56424,0.21060
2817.49271,0.21280
2819.42118,0.21279
2821.34965,0.20962
2823.27812,0.20686
2825.20659,0.20795
2827.13505,0.20996
2829.06352,0.21053
2830.99199,0.21137
2832.92046,0.21219
2834.84893,0.21071
2836.77740,0.20748
2838.70587,0.20495
2840.63433,0.20321
2842.56280,0.20323
2844.49127,0.20725
2846.41974,0.21193
2848.34821,0.21088
2850.27668,0.20471
2852.20515,0.20064
2854.13362,0.20170
2856.06208,0.20419
2857.99055,0.20414
2859.91902,0.20276
2861.84749,0.20416
2863.77596,0.20578
2865.70443,0.20353
2867.63290,0.20161
2869.56136,0.20517
2871.48983,0.21026
2873.41830,0.20829
2875.34677,0.20121
2877.27524,0.19840
2879.20371,0.20155
2881.13218,0.20622
2883.06065,0.20766
2884.98911,0.20726
2886.91758,0.21010
2888.84605,0.21279
2890.77452,0.21026
2892.70299,0.20481
2894.63146,0.20061
2896.55993,0.19865
2898.48839,0.19695
2900.41686,0.19526
2902.34533,0.19553
2904.27380,0.19557
2906.20227,0.19368
2908.13074,0.19366
2910.05921,0.19537
2911.98768,0.19668
2913.91614,0.19772
2915.84461,0.19647
2917.77308,0.19489
2919.70155,0.19918
2921.63002,0.20594
2923.55849,0.19909
2925.48696,0.17961
2927.41542,0.17643
2929.34389,0.19399
2931.27236,0.20543
2933.20083,0.20273
2935.12930,0.19350
2937.05777,0.18547
2938.98624,0.19010
2940.91471,0.20210
2942.84317,0.20711
2944.77164,0.20385
2946.70011,0.19525
2948.62858,0.18934
2950.55705,0.19230
2952.48552,0.19715
2954.41399,0.19548
2956.34245,0.18460
2958.27092,0.17829
2960.19939,0.18973
2962.12786,0.20308
2964.05633,0.20413
2965.98480,0.19834
2967.91327,0.19375
2969.84174,0.19743
2971.77020,0.20529
2973.69867,0.20976
2975.62714,0.20828
2977.55561,0.19941
2979.48408,0.19471
2981.41255,0.20144
2983.34102,0.20752
2985.26948,0.20502
2987.19795,0.19843
2989.12642,0.19846
2991.05489,0.20733
2992.98336,0.21338
2994.91183,0.21212
2996.84030,0.20614
2998.76877,0.20014
3000.69723,0.20189
3002.62570,0.20717
3004.55417,0.20735
3006.48264,0.20414
3008.41111,0.19962
3010.33958,0.18806
3012.26805,0.16308
3014.19651,0.12493
3016.12498,0.09372
3018.05345,0.10646
3019.98192,0.15668
3021.91039,0.19528
3023.83886,0.20955
3025.76733,0.21488
3027.69579,0.21309
3029.62426,0.20868
3031.55273,0.21228
3033.48120,0.21987
3035.40967,0.22040
3037.33814,0.21514
3039.26661,0.21327
3041.19508,0.21597
3043.12354,0.21756
3045.05201,0.21263
3046.98048,0.20231
3048.90895,0.19750
3050.83742,0.19983
3052.76589,0.20144
3054.69436,0.19694
3056.62282,0.18753
3058.55129,0.18905
3060.47976,0.20322
3062.40823,0.21127
3064.33670,0.20546
3066.26517,0.19514
3068.19364,0.19712
3070.12211,0.20749
3072.05057,0.20629
3073.97904,0.19284
3075.90751,0.18306
3077.83598,0.18905
3079.76445,0.20259
3081.69292,0.20632
3083.62139,0.19467
3085.54985,0.18220
3087.47832,0.19052
3089.40679,0.20903
3091.33526,0.21065
3093.26373,0.19441
3095.19220,0.18399
3097.12067,0.19385
3099.04914,0.20749
3100.97760,0.20658
3102.90607,0.19294
3104.83454,0.18733
3106.76301,0.19943
3108.69148,0.21077
3110.61995,0.20700
3112.54842,0.19604
3114.47688,0.19728
3116.40535,0.20886
3118.33382,0.21021
3120.26229,0.19862
3122.19076,0.19174
3124.11923,0.20130
3126.04770,0.21299
3127.97617,0.21271
3129.90463,0.20519
3131.83310,0.20276
3133.76157,0.21032
3135.69004,0.21632
3137.61851,0.21118
3139.54698,0.20245
3141.47545,0.20239
3143.40391,0.20923
3145.33238,0.21445
3147.26085,0.21494
3149.18932,0.21398
3151.11779,0.21651
3153.04626,0.21714
3154.97473,0.21172
3156.90320,0.20968
3158.83166,0.21562
3160.76013,0.22039
3162.68860,0.22010
3164.61707,0.22081
3166.54554,0.22402
3168.47401,0.22445
3170.40248,0.21835
3172.33094,0.21061
3174.25941,0.20905
3176.18788,0.21301
3178.11635,0.21758
3180.04482,0.22134
3181.97329,0.22255
3183.90176,0.22093
3185.83022,0.21997
3187.75869,0.22039
3189.68716,0.22160
3191.61563,0.22252
3193.54410,0.22093
3195.47257,0.21817
3197.40104,0.21690
3199.32951,0.21560
3201.25797,0.21249
3203.18644,0.21221
3205.11491,0.21583
3207.04338,0.21632
3208.97185,0.21432
3210.90032,0.21551
3212.82879,0.21816
3214.75725,0.21876
3216.68572,0.21844
3218.61419,0.22088
3220.54266,0.22456
3222.47113,0.22489
3224.39960,0.22434
3226.32807,0.22606
3228.25654,0.22615
3230.18500,0.22193
3232.11347,0.21774
3234.04194,0.21703
3235.97041,0.21736
3237.89888,0.21440
3239.82735,0.20967
3241.75582,0.21049
3243.68428,0.21708
3245.61275,0.22130
3247.54122,0.21879
3249.46969,0.21507
3251.39816,0.21497
3253.32663,0.21518
3255.25510,0.21526
3257.18357,0.21735
3259.11203,0.21767
3261.04050,0.21530
3262.96897,0.21537
3264.89744,0.21708
3266.82591,0.21573
3268.75438,0.21154
3270.68285,0.20782
3272.61131,0.20695
3274.53978,0.20788
3276.46825,0.20983
3278.39672,0.21337
3280.32519,0.21746
3282.25366,0.21952
3284.18213,0.21638
3286.11060,0.21038
3288.03906,0.20706
3289.96753,0.20777
3291.89600,0.21072
3293.82447,0.21128
3295.75294,0.20939
3297.68141,0.20992
3299.60988,0.21142
3301.53834,0.21204
3303.46681,0.21242
3305.39528,0.21174
3307.32375,0.21145
3309.25222,0.21342
3311.18069,0.21701
3313.10916,0.21863
3315.03763,0.21658
3316.96609,0.21366
3318.89456,0.21399
3320.82303,0.21716
3322.75150,0.21646
3324.67997,0.21309
3326.60844,0.21122
3328.53691,0.20866
3330.46537,0.20964
3332.39384,0.21678
3334.32231,0.22344
3336.25078,0.22690
3338.17925,0.22675
3340.10772,0.22220
3342.03619,0.21605
3343.96466,0.20984
3345.89312,0.20633
3347.82159,0.20998
3349.75006,0.21611
3351.67853,0.21771
3353.60700,0.21791
3355.53547,0.21948
3357.46394,0.21933
3359.39240,0.21614
3361.32087,0.21229
3363.24934,0.21262
3365.17781,0.21661
3367.10628,0.21818
3369.03475,0.21575
3370.96322,0.21412
3372.89168,0.21642
3374.82015,0.21801
3376.74862,0.21620
3378.67709,0.21373
3380.60556,0.21233
3382.53403,0.21188
3384.46250,0.21247
3386.39097,0.21398
3388.31943,0.21270
3390.24790,0.20780
3392.17637,0.20369
3394.10484,0.20568
3396.03331,0.21467
3397.96178,0.22071
3399.89025,0.21925
3401.81871,0.21746
3403.74718,0.21496
3405.67565,0.20814
3407.60412,0.20241
3409.53259,0.20277
3411.46106,0.20784
3413.38953,0.21507
3415.31800,0.21850
3417.24646,0.21497
3419.17493,0.21077
3421.10340,0.20906
3423.03187,0.20642
3424.96034,0.20081
3426.88881,0.19602
3428.81728,0.19743
3430.74574,0.20346
3432.67421,0.20785
3434.60268,0.20784
3436.53115,0.20577
3438.45962,0.20196
3440.38809,0.19854
3442.31656,0.20144
3444.24503,0.20907
3446.17349,0.21561
3448.10196,0.21737
3450.03043,0.21421
3451.95890,0.20837
3453.88737,0.20146
3455.81584,0.19604
3457.74431,0.19101
3459.67277,0.18335
3461.60124,0.17978
3463.52971,0.18844
3465.45818,0.20051
3467.38665,0.20522
3469.31512,0.20426
3471.24359,0.19890
3473.17206,0.18985
3475.10052,0.18349
3477.02899,0.18244
3478.95746,0.18280
3480.88593,0.18350
3482.81440,0.18586
3484.74287,0.18601
3486.67134,0.18341
3488.59980,0.18452
3490.52827,0.18753
3492.45674,0.18711
3494.38521,0.18605
3496.31368,0.18455
3498.24215,0.18045
3500.17062,0.17808
3502.09909,0.18093
3504.02755,0.18633
3505.95602,0.18798
3507.88449,0.18494
3509.81296,0.18336
3511.74143,0.18389
3513.66990,0.18431
3515.59837,0.18682
3517.52683,0.18893
3519.45530,0.18701
3521.38377,0.18293
3523.31224,0.18102
3525.24071,0.18245
3527.16918,0.18290
3529.09765,0.17939
3531.02611,0.17428
3532.95458,0.17126
3534.88305,0.16941
3536.81152,0.16777
3538.73999,0.16779
3540.66846,0.16778
3542.59693,0.16898
3544.52540,0.17512
3546.45386,0.18142
3548.38233,0.18114
3550.31080,0.17644
3552.23927,0.17055
3554.16774,0.16543
3556.09621,0.16314
3558.02468,0.16409
3559.95314,0.16539
3561.88161,0.16535
3563.81008,0.16785
3565.73855,0.17252
3567.66702,0.17213
3569.59549,0.16830
3571.52396,0.16598
3573.45243,0.16342
3575.38089,0.16037
3577.30936,0.15765
3579.23783,0.15487
3581.16630,0.15528
3583.09477,0.16105
3585.02324,0.16814
3586.95171,0.17161
3588.88017,0.17012
3590.80864,0.16814
3592.73711,0.16851
3594.66558,0.16715
3596.59405,0.16077
3598.52252,0.15785
3600.45099,0.16082
3602.37946,0.15960
3604.30792,0.15333
3606.23639,0.15345
3608.16486,0.16390
3610.09333,0.17081
3612.02180,0.16816
3613.95027,0.16321
3615.87874,0.16309
3617.80720,0.16813
3619.73567,0.16732
3621.66414,0.15722
3623.59261,0.14946
3625.52108,0.14820
3627.44955,0.15189
3629.37802,0.15456
3631.30649,0.15230
3633.23495,0.14834
3635.16342,0.14192
3637.09189,0.13593
3639.02036,0.13394
3640.94883,0.13361
3642.87730,0.13572
3644.80577,0.14398
3646.73423,0.15489
3648.66270,0.16151
3650.59117,0.15618
3652.51964,0.14574
3654.44811,0.13939
3656.37658,0.13610
3658.30505,0.13537
3660.23352,0.13528
3662.16198,0.13297
3664.09045,0.13112
3666.01892,0.13348
3667.94739,0.13987
3669.87586,0.14627
3671.80433,0.15182
3673.73280,0.15851
3675.66126,0.15582
3677.58973,0.14337
3679.51820,0.13676
3681.44667,0.13396
3683.37514,0.13307
3685.30361,0.13379
3687.23208,0.13540
3689.16055,0.14010
3691.08901,0.14031
3693.01748,0.13431
3694.94595,0.13295
3696.87442,0.13472
3698.80289,0.13753
3700.73136,0.14028
3702.65983,0.13490
3704.58829,0.12730
3706.51676,0.12791
3708.44523,0.13339
3710.37370,0.13529
3712.30217,0.13102
3714.23064,0.12723
3716.15911,0.12573
3718.08757,0.12665
3720.01604,0.13122
3721.94451,0.13752
3723.87298,0.14163
3725.80145,0.14237
3727.72992,0.14051
3729.65839,0.14021
3731.58686,0.14246
3733.51532,0.14182
3735.44379,0.13888
3737.37226,0.13756
3739.30073,0.13405
3741.22920,0.12930
3743.15767,0.12813
3745.08614,0.13582
3747.01460,0.14490
3748.94307,0.15066
3750.87154,0.15217
3752.80001,0.14682
3754.72848,0.14423
3756.65695,0.14350
3758.58542,0.13872
3760.51389,0.13360
3762.44235,0.13302
3764.37082,0.13345
3766.29929,0.13204
3768.22776,0.13044
3770.15623,0.12927
3772.08470,0.12411
3774.01317,0.11708
3775.94163,0.11387
3777.87010,0.11633
3779.79857,0.12193
3781.72704,0.12733
3783.65551,0.13336
3785.58398,0.13757
3787.51245,0.13572
3789.44092,0.13055
3791.36938,0.12662
3793.29785,0.12690
3795.22632,0.13004
3797.15479,0.13192
3799.08326,0.13350
3801.01173,0.13693
3802.94020,0.13650
3804.86866,0.13282
3806.79713,0.12868
3808.72560,0.12434
3810.65407,0.12408
3812.58254,0.12745
3814.51101,0.13020
3816.43948,0.13022
3818.36795,0.13201
3820.29641,0.13586
3822.22488,0.13352
3824.15335,0.12873
3826.08182,0.12701
3828.01029,0.12883
3829.93876,0.13320
3831.86723,0.13239
3833.79569,0.12718
3835.72416,0.12963
3837.65263,0.13987
3839.58110,0.14591
3841.50957,0.14367
3843.43804,0.13690
3845.36651,0.12715
3847.29498,0.11790
3849.22344,0.11347
3851.15191,0.11872
3853.08038,0.13728
3855.00885,0.14323
3856.93732,0.13378
3858.86579,0.12781
3860.79426,0.12656
3862.72272,0.12667
3864.65119,0.12466
3866.57966,0.12684
3868.50813,0.13694
3870.43660,0.14386
3872.36507,0.14062
3874.29354,0.13019
3876.22200,0.11717
3878.15047,0.11533
3880.07894,0.12556
3882.00741,0.13326
3883.93588,0.13201
3885.86435,0.12477
3887.79282,0.11972
3889.72129,0.12205
3891.64975,0.12592
3893.57822,0.12308
3895.50669,0.11846
3897.43516,0.11867
3899.36363,0.12043
3901.29210,0.11847
3903.22057,0.11777
3905.14903,0.12193
3907.07750,0.12491
3909.00597,0.12200
3910.93444,0.11558
3912.86291,0.11336
3914.79138,0.11644
3916.71985,0.11777
3918.64832,0.11403
3920.57678,0.11148
3922.50525,0.11491
3924.43372,0.11976
3926.36219,0.12224
3928.29066,0.12286
3930.21913,0.11963
3932.14760,0.11544
3934.07606,0.11619
3936.00453,0.11661
3937.93300,0.11386
3939.86147,0.11402
3941.78994,0.11558
3943.71841,0.11322
3945.64688,0.11105
3947.57535,0.11171
3949.50381,0.11154
3951.43228,0.10846
3953.36075,0.10711
3955.28922,0.10983
3957.21769,0.11162
3959.14616,0.11082
3961.07463,0.10916
3963.00309,0.10558
3964.93156,0.10384
3966.86003,0.10779
3968.78850,0.11143
3970.71697,0.10833
3972.64544,0.10435
3974.57391,0.10783
3976.50238,0.11218
3978.43084,0.11141
3980.35931,0.10925
3982.28778,0.10561
3984.21625,0.10084
3986.14472,0.09944
3988.07319,0.10336
3990.00166,0.10778
3991.93012,0.10663
3993.85859,0.10451
3995.78706,0.10862
3997.71553,0.11407
3999.64400,0.11444
4001.57247,0.11152
4003.50094,0.10638
4005.42941,0.10021
4007.35787,0.09540
4009.28634,0.09201
4011.21481,0.09284
4013.14328,0.09739
4015.07175,0.09893
4017.00022,0.09607
4018.92869,0.09323
4020.85715,0.09350
4022.78562,0.09765
4024.71409,0.10249
4026.64256,0.10260
4028.57103,0.10033
4030.49950,0.10066
4032.42797,0.10183
4034.35644,0.10316
4036.28490,0.10502
4038.21337,0.10468
4040.14184,0.10221
4042.07031,0.10143
4043.99878,0.10463
4045.92725,0.10752
4047.85572,0.10403
4049.78418,0.09813
4051.71265,0.09543
4053.64112,0.09418
4055.56959,0.09593
4057.49806,0.10103
4059.42653,0.10354
4061.35500,0.10277
4063.28346,0.10117
4065.21193,0.09817
4067.14040,0.09559
4069.06887,0.09745
4070.99734,0.10144
4072.92581,0.10165
4074.85428,0.09822
4076.78275,0.09334
4078.71121,0.08713
4080.63968,0.08262
4082.56815,0.08319
4084.49662,0.08743
4086.42509,0.09192
4088.35356,0.09365
4090.28203,0.09214
4092.21049,0.09034
4094.13896,0.08933
4096.06743,0.08878
4097.99590,0.08985
4099.92437,0.09114
4101.85284,0.09099
4103.78131,0.09033
4105.70978,0.09051
4107.63824,0.09412
4109.56671,0.09771
4111.49518,0.09630
4113.42365,0.09552
4115.35212,0.09911
4117.28059,0.10173
4119.20906,0.10103
4121.13752,0.09978
4123.06599,0.09778
4124.99446,0.09263
4126.92293,0.08523
4128.85140,0.07833
4130.77987,0.07320
4132.70834,0.07207
4134.63681,0.07979
4136.56527,0.09175
4138.49374,0.09518
4140.42221,0.08730
4142.35068,0.07799
4144.27915,0.07909
4146.20762,0.08896
4148.13609,0.09480
4150.06455,0.09111
4151.99302,0.08175
4153.92149,0.07327
4155.84996,0.07075
4157.77843,0.07666
4159.70690,0.08475
4161.63537,0.08686
4163.56384,0.08757
4165.49230,0.08937
4167.42077,0.08889
4169.34924,0.08627
4171.27771,0.08210
4173.20618,0.08130
4175.13465,0.08377
4177.06312,0.08141
4178.99158,0.07828
4180.92005,0.07976
4182.84852,0.08086
4184.77699,0.08158
4186.70546,0.08201
4188.63393,0.08397
4190.56240,0.09366
4192.49087,0.10026
4194.41933,0.09442
4196.34780,0.08541
4198.27627,0.08130
4200.20474,0.08374
4202.13321,0.08698
4204.06168,0.08713
4205.99015,0.08565
4207.91861,0.08038
4209.84708,0.07383
4211.77555,0.06996
4213.70402,0.06853
4215.63249,0.07054
4217.56096,0.07347
4219.48943,0.07485
4221.41789,0.07755
4223.34636,0.08156
4225.27483,0.08380
4227.20330,0.08296
4229.13177,0.07810
4231.06024,0.07154
4232.98871,0.06887
4234.91718,0.07155
4236.84564,0.07576
4238.77411,0.07496
4240.70258,0.06664
4242.63105,0.06007
4244.55952,0.06409
4246.48799,0.07171
4248.41646,0.07093
4250.34492,0.06509
4252.27339,0.06535
4254.20186,0.06936
4256.13033,0.06888
4258.05880,0.06519
4259.98727,0.06480
4261.91574,0.06678
4263.84421,0.06302
4265.77267,0.05887
4267.70114,0.06410
4269.62961,0.06812
4271.55808,0.06350
4273.48655,0.06128
4275.41502,0.06396
4277.34349,0.06359
4279.27195,0.06133
4281.20042,0.06018
4283.12889,0.05948
4285.05736,0.06085
4286.98583,0.06111
4288.91430,0.05853
4290.84277,0.06047
4292.77124,0.06375
4294.69970,0.05643
4296.62817,0.04541
4298.55664,0.04404
4300.48511,0.04870
4302.41358,0.05478
4304.34205,0.05986
4306.27052,0.05967
4308.19898,0.05826
4310.12745,0.05840
4312.05592,0.05875
4313.98439,0.05910
4315.91286,0.05822
4317.84133,0.05623
4319.76980,0.05418
4321.69827,0.05210
4323.62673,0.04995
4325.55520,0.04905
4327.48367,0.05118
4329.41214,0.05626
4331.34061,0.05861
4333.26908,0.05387
4335.19755,0.04967
4337.12601,0.05105
4339.05448,0.05120
4340.98295,0.04849
4342.91142,0.04822
4344.83989,0.04841
4346.76836,0.04258
4348.69683,0.03224
4350.62530,0.02478
4352.55376,0.02180
4354.48223,0.02371
4356.41070,0.03134
4358.33917,0.03682
4360.26764,0.03911
4362.19611,0.04348
4364.12458,0.04802
4366.05304,0.05059
4367.98151,0.05044
4369.90998,0.04841
4371.83845,0.04383
4373.76692,0.03609
4375.69539,0.03156
4377.62386,0.03429
4379.55232,0.03795
4381.48079,0.03716
4383.40926,0.03652
4385.33773,0.03903
4387.26620,0.04099
4389.19467,0.04080
4391.12314,0.04006
4393.05161,0.03993
4394.98007,0.04100
4396.90854,0.04266
4398.83701,0.04375
4400.76548,0.04606
4402.69395,0.04772
4404.62242,0.04426
4406.55089,0.04151
4408.47935,0.04190
4410.40782,0.03787
4412.33629,0.03328
4414.26476,0.03408
4416.19323,0.03447
4418.12170,0.03168
4420.05017,0.02980
4421.97864,0.03047
4423.90710,0.02887
4425.83557,0.02554
4427.76404,0.02573
4429.69251,0.02490
4431.62098,0.02287
4433.54945,0.02859
4435.47792,0.03797
4437.40638,0.04007
4439.33485,0.03672
4441.26332,0.03092
4443.19179,0.02797
4445.12026,0.03711
4447.04873,0.04559
4448.97720,0.04096
4450.90567,0.03436
4452.83413,0.03244
4454.76260,0.03341
4456.69107,0.03668
4458.61954,0.03660
4460.54801,0.03021
4462.47648,0.02239
4464.40495,0.01740
4466.33341,0.02040
4468.26188,0.02929
4470.19035,0.03115
4472.11882,0.02330
4474.04729,0.01487
4475.97576,0.01719
4477.90423,0.03059
4479.83270,0.03483
4481.76116,0.02532
4483.68963,0.02296
4485.61810,0.02637
4487.54657,0.01903
4489.47504,0.00760
4491.40351,0.00204
4493.33198,0.00213
4495.26044,0.00783
4497.18891,0.01818
4499.11738,0.03052
4501.04585,0.03789
4502.97432,0.03229
4504.90279,0.01866
4506.83126,0.01227
4508.75973,0.01456
4510.68819,0.01365
4512.61666,0.00812
4514.54513,0.00486
4516.47360,0.00504
4518.40207,0.00718
4520.33054,0.01099
4522.25901,0.01106
4524.18747,0.00755
4526.11594,0.01155
4528.04441,0.02374
4529.97288,0.03125
4531.90135,0.02574
4533.82982,0.01329
4535.75829,0.00538
4537.68676,0.01018
4539.61522,0.02265
4541.54369,0.02693
4543.47216,0.02355
4545.40063,0.01950
4547.32910,0.01438
4549.25757,0.01602
4551.18604,0.02240
4553.11450,0.02053
4555.04297,0.01566
4556.97144,0.01739
4558.89991,0.02106
4560.82838,0.01941
4562.75685,0.01623
4564.68532,0.01690
4566.61378,0.01690
4568.54225,0.01808
4570.47072,0.02289
4572.39919,0.02175
4574.32766,0.01255
4576.25613,0.00411
4578.18460,-0.00079
4580.11307,-0.00089
4582.04153,0.00835
4583.97000,0.01871
4585.89847,0.02086
4587.82694,0.01717
4589.75541,0.00628
4591.68388,-0.00568
4593.61235,-0.00529
4595.54081,0.00038
4597.46928,0.00177
4599.39775,0.00297
4601.32622,0.00537
4603.25469,0.00753
4605.18316,0.00655
4607.11163,0.00212
4609.04010,-0.00038
4610.96856,0.00117
4612.89703,0.00914
4614.82550,0.02255
4616.75397,0.02760
4618.68244,0.01829
4620.61091,0.00726
4622.53938,0.00203
4624.46784,0.00385
4626.39631,0.01032
4628.32478,0.01067
4630.25325,0.00776
4632.18172,0.01178
4634.11019,0.01587
4636.03866,0.01170
4637.96713,0.00678
4639.89559,0.00801
4641.82406,0.01200
4643.75253,0.01392
4645.68100,0.01340
4647.60947,0.01587
4649.53794,0.02056
4651.46641,0.01927
4653.39487,0.01138
4655.32334,0.00183
4657.25181,-0.00161
4659.18028,0.00238
4661.10875,0.00415
4663.03722,0.00259
4664.96569,0.00532
4666.89416,0.01459
4668.82262,0.02354
4670.75109,0.01940
4672.67956,0.00584
4674.60803,0.00360
4676.53650,0.01180
4678.46497,0.01343
4680.39344,0.01402
4682.32190,0.02149
4684.25037,0.02170
4686.17884,0.00869
4688.10731,-0.00309
4690.03578,-0.00594
4691.96425,-0.00509
4693.89272,-0.00455
4695.82119,-0.00241
4697.74965,0.01139
4699.67812,0.03024
4701.60659,0.03226
4703.53506,0.02389
4705.46353,0.01869
4707.39200,0.01679
4709.32047,0.01707
4711.24893,0.01444
4713.17740,0.01122
4715.10587,0.00911
4717.03434,0.00325
4718.96281,-0.00304
4720.89128,-0.00590
4722.81975,-0.00728
4724.74821,-0.00622
4726.67668,0.00007
4728.60515,0.00390
4730.53362,0.00138
4732.46209,0.00061
4734.39056,0.00317
4736.31903,0.01067
4738.24750,0.02003
4740.17596,0.01759
4742.10443,0.00835
4744.03290,0.00495
4745.96137,0.00378
4747.88984,0.00205
4749.81831,-0.00086
4751.74678,-0.00877
4753.67524,-0.01214
4755.60371,0.00001
4757.53218,0.01549
4759.46065,0.01788
4761.38912,0.01080
4763.31759,0.00670
4765.24606,0.00959
4767.17453,0.01298
4769.10299,0.00853
4771.03146,-0.00343
4772.95993,-0.01126
4774.88840,-0.00524
4776.81687,0.00799
4778.74534,0.01863
4780.67381,0.02109
4782.60227,0.00962
4784.53074,-0.00319
4786.45921,0.00039
4788.38768,0.01153
4790.31615,0.01204
4792.24462,-0.00004
4794.17309,-0.01360
4796.10156,-0.01801
4798.03002,-0.01302
4799.95849,-0.00141
4801.88696,0.01468
4803.81543,0.02395
4805.74390,0.01974
4807.67237,0.01275
4809.60084,0.00840
4811.52930,0.00542
4813.45777,0.00652
4815.38624,0.01100
4817.31471,0.01334
4819.24318,0.01062
4821.17165,0.00910
4823.10012,0.01558
4825.02859,0.02657
4826.95705,0.03673
4828.88552,0.03533
4830.81399,0.01534
4832.74246,-0.00434
4834.67093,-0.00489
4836.59940,0.00537
4838.52787,0.01055
4840.45633,0.00765
4842.38480,0.00770
4844.31327,0.01435
4846.24174,0.01464
4848.17021,0.01061
4850.09868,0.01783
4852.02715,0.02968
4853.95562,0.02309
4855.88408,0.00307
4857.81255,0.00458
4859.74102,0.02719
4861.66949,0.03554
4863.59796,0.02793
4865.52643,0.01619
4867.45490,0.00004
4869.38336,-0.01002
4871.31183,-0.00672
4873.24030,0.00295
4875.16877,0.01135
4877.09724,0.01551
4879.02571,0.01373
4880.95418,0.00555
4882.88265,-0.00503
4884.81111,-0.00925
4886.73958,0.00249
4888.66805,0.02230
4890.59652,0.02753
4892.52499,0.01511
4894.45346,-0.00105
4896.38193,-0.01012
4898.31039,-0.00639
4900.23886,0.00340
4902.16733,0.01089
4904.09580,0.01562
4906.02427,0.01796
4907.95274,0.01473
4909.88121,0.00475
4911.80967,0.00031
4913.73814,0.00984
4915.66661,0.02483
4917.59508,0.03462
4919.52355,0.03236
4921.45202,0.01975
4923.38049,0.00981
4925.30896,0.00832
4927.23742,0.01207
4929.16589,0.01904
4931.09436,0.01769
4933.02283,0.01046
4934.95130,0.01904
4936.87977,0.03472
4938.80824,0.03096
4940.73670,0.00616
4942.66517,-0.01723
4944.59364,-0.01993
4946.52211,-0.01173
4948.45058,-0.00553
4950.37905,0.00876
4952.30752,0.02679
4954.23599,0.03628
4956.16445,0.04088
4958.09292,0.03601
4960.02139,0.02404
4961.94986,0.02233
4963.87833,0.02904
4965.80680,0.02396
4967.73527,0.01110
4969.66373,0.01080
4971.59220,0.01095
4973.52067,-0.00512
4975.44914,-0.01967
4977.37761,-0.01403
4979.30608,0.00269
4981.23455,0.01318
4983.16302,0.01017
4985.09148,-0.00070
4987.01995,-0.00101
4988.94842,0.01590
4990.87689,0.02479
4992.80536,0.00957
4994.73383,-0.00574
4996.66230,-0.00590
4998.59076,-0.00237
5000.51923,0.00304
5002.44770,0.01013
5004.37617,0.01015
5006.30464,0.00650
5008.23311,0.01122
5010.16158,0.02270
5012.09005,0.02507
5014.01851,0.01089
5015.94698,-0.00298
5017.87545,0.00230
5019.80392,0.02423
5021.73239,0.03705
5023.66086,0.02038
5025.58933,-0.00272
5027.51779,-0.00637
5029.44626,0.00121
5031.37473,0.00894
5033.30320,0.01275
5035.23167,0.01452
5037.16014,0.02078
5039.08861,0.02792
5041.01708,0.02658
5042.94554,0.01705
5044.87401,0.00351
5046.80248,-0.00175
5048.73095,0.00925
5050.65942,0.02135
5052.58789,0.02864
5054.51636,0.03355
5056.44482,0.02917
5058.37329,0.02488
5060.30176,0.03089
5062.23023,0.02894
5064.15870,0.01604
5066.08717,0.01434
5068.01564,0.01924
5069.94410,0.01718
5071.87257,0.01474
5073.80104,0.01683
5075.72951,0.02419
5077.65798,0.03553
5079.58645,0.04070
5081.51492,0.03202
5083.44339,0.01737
5085.37185,0.00681
5087.30032,0.00054
5089.22879,-0.00209
5091.15726,-0.00224
5093.08573,-0.00141
5095.01420,0.00963
5096.94267,0.03084
5098.87113,0.03811
5100.79960,0.02595
5102.72807,0.02050
5104.65654,0.03060
5106.58501,0.04008
5108.51348,0.03894
5110.44195,0.02873
5112.37042,0.02302
5114.29888,0.02636
5116.22735,0.02065
5118.15582,0.01244
5120.08429,0.01538
5122.01276,0.02307
5123.94123,0.04021
5125.86970,0.05726
5127.79816,0.05531
5129.72663,0.05278
5131.65510,0.06217
5133.58357,0.06566
5135.51204,0.06023
5137.44051,0.04353
5139.36898,0.00658
5141.29745,-0.01702
5143.22591,0.00436
5145.15438,0.03895
5147.08285,0.04466
5149.01132,0.02917
5150.93979,0.02878
5152.86826,0.05060
5154.79673,0.06828
5156.72519,0.07100
5158.65366,0.06102
5160.58213,0.03302
5162.51060,0.00550
5164.43907,0.00419
5166.36754,0.02071
5168.29601,0.02911
5170.22448,0.01048
5172.15294,-0.00972
5174.08141,0.00758
5176.00988,0.04092
5177.93835,0.04666
5179.86682,0.02044
5181.79529,-0.00584
5183.72376,0.00026
5185.65222,0.02786
5187.58069,0.03403
5189.50916,0.02491
5191.43763,0.04060
5193.36610,0.07013
5195.29457,0.06876
5197.22304,0.03455
5199.15151,0.00736
5201.07997,0.00901
5203.00844,0.02918
5204.93691,0.03778
5206.86538,0.00914
5208.79385,-0.00960
5210.72232,0.02175
5212.65079,0.05333
5214.57925,0.04846
5216.50772,0.03726
5218.43619,0.04666
5220.36466,0.05575
5222.29313,0.04920
5224.22160,0.04428
5226.15007,0.05106
5228.07854,0.05303
5230.00700,0.03819
5231.93547,0.02099
5233.86394,0.01593
5235.79241,0.01603
5237.72088,0.01500
5239.64935,0.01613
5241.57782,0.02313
5243.50628,0.04086
5245.43475,0.05725
5247.36322,0.05604
5249.29169,0.05554
5251.22016,0.06439
5253.14863,0.05850
5255.07710,0.03557
5257.00556,0.02245
5258.93403,0.03019
5260.86250,0.04670
5262.79097,0.05230
5264.71944,0.04656
5266.64791,0.05519
5268.57638,0.06826
5270.50485,0.06864
5272.43331,0.07786
5274.36178,0.09045
5276.29025,0.07971
5278.21872,0.06008
5280.14719,0.05176
5282.07566,0.04805
5284.00413,0.03938
5285.93259,0.02906
5287.86106,0.03107
5289.78953,0.03467
5291.71800,0.02321
5293.64647,0.01669
5295.57494,0.02328
5297.50341,0.03247
5299.43188,0.03039
5301.36034,0.01927
5303.28881,0.03054
5305.21728,0.05932
5307.14575,0.07387
5309.07422,0.07567
5311.00269,0.07205
5312.93116,0.06102
5314.85962,0.05103
5316.78809,0.05365
5318.71656,0.07349
5320.64503,0.09137
5322.57350,0.08896
5324.50197,0.08415
5326.43044,0.08449
5328.35891,0.07009
5330.28737,0.05038
5332.21584,0.04952
5334.14431,0.06027
5336.07278,0.06715
5338.00125,0.06524
5339.92972,0.05054
5341.85819,0.05002
5343.78665,0.07047
5345.71512,0.07142
5347.64359,0.05308
5349.57206,0.03985
5351.50053,0.03050
5353.42900,0.02272
5355.35747,0.02574
5357.28594,0.03893
5359.21440,0.04472
5361.14287,0.03788
5363.07134,0.03037
5364.99981,0.04251
5366.92828,0.06978
5368.85675,0.08307
5370.78522,0.08628
5372.71368,0.09205
5374.64215,0.08706
5376.57062,0.05612
5378.49909,0.01573
5380.42756,0.01270
5382.35603,0.04716
5384.28450,0.06776
5386.21297,0.06138
5388.14143,0.05975
5390.06990,0.05659
5391.99837,0.03514
5393.92684,0.01670
5395.85531,0.03388
5397.78378,0.06231
5399.71225,0.07291
5401.64071,0.07049
5403.56918,0.05985
5405.49765,0.04640
5407.42612,0.04023
5409.35459,0.04630
5411.28306,0.06104
5413.21153,0.07001
5415.13999,0.06920
5417.06846,0.07416
5418.99693,0.08720
5420.92540,0.10177
5422.85387,0.11237
5424.78234,0.10290
5426.71081,0.07226
5428.63928,0.05374
5430.56774,0.06602
5432.49621,0.08560
5434.42468,0.09571
5436.35315,0.09870
5438.28162,0.10224
5440.21009,0.10339
5442.13856,0.09820
5444.06702,0.09840
5445.99549,0.10269
5447.92396,0.09006
5449.85243,0.06877
5451.78090,0.06904
5453.70937,0.08453
5455.63784,0.09223
5457.56631,0.08944
5459.49477,0.07790
5461.42324,0.06268
5463.35171,0.05285
5465.28018,0.04876
5467.20865,0.05718
5469.13712,0.07299
5471.06559,0.07618
5472.99405,0.06610
5474.92252,0.05202
5476.85099,0.03828
5478.77946,0.02616
5480.70793,0.02280
5482.63640,0.03296
5484.56487,0.04898
5486.49334,0.06568
5488.42180,0.08792
5490.35027,0.11411
5492.27874,0.12302
5494.20721,0.10031
5496.13568,0.07206
5498.06415,0.06701
5499.99262,0.08065
5501.92108,0.09256
5503.84955,0.09882
5505.77802,0.09649
5507.70649,0.08340
5509.63496,0.07612
5511.56343,0.08241
5513.49190,0.09238
5515.42037,0.09025
5517.34883,0.07119
5519.27730,0.04896
5521.20577,0.03293
5523.13424,0.03072
5525.06271,0.04367
5526.99118,0.06804
5528.91965,0.08990
5530.84811,0.07649
5532.77658,0.04636
5534.70505,0.04113
5536.63352,0.06081
5538.56199,0.07891
5540.49046,0.07630
5542.41893,0.07708
5544.34740,0.09648
5546.27586,0.10283
5548.20433,0.07537
5550.13280,0.03746
5552.06127,0.02934
5553.98974,0.06043
5555.91821,0.09418
5557.84668,0.08879
5559.77514,0.04777
5561.70361,0.01966
5563.63208,0.03043
5565.56055,0.04194
5567.48902,0.03839
5569.41749,0.04739
5571.34596,0.06480
5573.27443,0.07099
5575.20289,0.06250
5577.13136,0.05043
5579.05983,0.03747
5580.98830,0.02340
5582.91677,0.02081
5584.84524,0.02945
5586.77371,0.04107
5588.70217,0.05286
5590.63064,0.06301
5592.55911,0.07207
5594.48758,0.07011
5596.41605,0.05115
5598.34452,0.04331
5600.27299,0.05084
5602.20145,0.04224
5604.12992,0.03123
5606.05839,0.03105
5607.98686,0.01434
5609.91533,-0.00589
5611.84380,0.01273
5613.77227,0.05532
5615.70074,0.08664
5617.62920,0.10326
5619.55767,0.10481
5621.48614,0.09370
5623.41461,0.07474
5625.34308,0.04337
5627.27155,0.01588
5629.20002,0.02522
5631.12848,0.05107
5633.05695,0.06832
5634.98542,0.08930
5636.91389,0.09312
5638.84236,0.07015
5640.77083,0.06517
5642.69930,0.08633
5644.62777,0.11708
5646.55623,0.14651
5648.48470,0.14532
5650.41317,0.12240
5652.34164,0.12057
5654.27011,0.13154
5656.19858,0.12356
5658.12705,0.11348
5660.05551,0.11937
5661.98398,0.11053
5663.91245,0.08277
5665.84092,0.07106
5667.76939,0.07700
5669.69786,0.07609
5671.62633,0.06515
5673.55480,0.06219
5675.48326,0.06433
5677.41173,0.05441
5679.34020,0.04611
5681.26867,0.06848
5683.19714,0.09600
5685.12561,0.08762
5687.05408,0.06486
5688.98254,0.05170
5690.91101,0.03918
5692.83948,0.03591
5694.76795,0.05711
5696.69642,0.07832
5698.62489,0.06892
5700.55336,0.04263
5702.48183,0.02424
5704.41029,0.03038
5706.33876,0.05996
5708.26723,0.08459
5710.19570,0.08717
5712.12417,0.09105
5714.05264,0.11669
5715.98111,0.12718
5717.90957,0.09079
5719.83804,0.05013
5721.76651,0.05836
5723.69498,0.09466
5725.62345,0.10540
5727.55192,0.09272
5729.48039,0.09027
5731.40886,0.09175
5733.33732,0.07348
5735.26579,0.03940
5737.19426,0.00932
5739.12273,-0.00717
5741.05120,0.00571
5742.97967,0.04609
5744.90814,0.06058
5746.83660,0.03407
5748.76507,0.03233
5750.69354,0.07887
5752.62201,0.10984
5754.55048,0.09941
5756.47895,0.09069
5758.40742,0.10453
5760.33588,0.12184
5762.26435,0.12569
5764.19282,0.11489
5766.12129,0.09670
5768.04976,0.07752
5769.97823,0.07194
5771.90670,0.07759
5773.83517,0.06897
5775.76363,0.05819
5777.69210,0.06534
5779.62057,0.07652
5781.54904,0.08280
5783.47751,0.08635
5785.40598,0.08198
5787.33445,0.07922
5789.26291,0.08863
5791.19138,0.09442
5793.11985,0.08892
5795.04832,0.07371
5796.97679,0.04850
5798.90526,0.03447
5800.83373,0.04009
5802.76220,0.03762
5804.69066,0.02794
5806.61913,0.03876
5808.54760,0.06685
5810.47607,0.09592
5812.40454,0.10550
5814.33301,0.09424
5816.26148,0.08673
5818.18994,0.09256
5820.11841,0.10390
5822.04688,0.10269
5823.97535,0.07949
5825.90382,0.06316
5827.83229,0.07152
5829.76076,0.07612
5831.68923,0.07651
5833.61769,0.10473
5835.54616,0.14926
5837.47463,0.16845
5839.40310,0.15429
5841.33157,0.13129
5843.26004,0.11516
5845.18851,0.11797
5847.11697,0.13907
5849.04544,0.14825
5850.97391,0.13615
5852.90238,0.12258
5854.83085,0.10765
5856.75932,0.08465
5858.68779,0.05092
5860.61626,0.02087
5862.54472,0.02305
5864.47319,0.05264
5866.40166,0.08629
5868.33013,0.10529
5870.25860,0.09688
5872.18707,0.06549
5874.11554,0.02819
5876.04400,0.01125
5877.97247,0.03098
5879.90094,0.06520
5881.82941,0.07317
5883.75788,0.06525
5885.68635,0.05961
5887.61482,0.04386
5889.54329,0.03939
5891.47175,0.05322
5893.40022,0.06362
5895.32869,0.06751
5897.25716,0.06213
5899.18563,0.07169
5901.11410,0.11052
5903.04257,0.14041
5904.97103,0.16126
5906.89950,0.18327
5908.82797,0.17121
5910.75644,0.13722
5912.68491,0.12558
5914.61338,0.13083
5916.54185,0.13491
5918.47032,0.12566
5920.39878,0.09003
5922.32725,0.06858
5924.25572,0.08757
5926.18419,0.10308
5928.11266,0.09940
5930.04113,0.07488
5931.96960,0.01945
5933.89806,-0.01596
5935.82653,0.00811
5937.75500,0.03532
5939.68347,0.04175
5941.61194,0.05972
5943.54041,0.08686
5945.46888,0.11332
5947.39734,0.13255
5949.32581,0.11957
5951.25428,0.08218
5953.18275,0.07165
5955.11122,0.11417
5957.03969,0.16138
5958.96816,0.12860
5960.89663,0.04818
5962.82509,0.04012
5964.75356,0.08741
5966.68203,0.10593
5968.61050,0.07080
5970.53897,0.01360
5972.46744,-0.00926
5974.39591,0.02217
5976.32437,0.06461
5978.25284,0.06909
5980.18131,0.05054
5982.10978,0.06122
5984.03825,0.08549
5985.96672,0.08211
5987.89519,0.07726
5989.82366,0.07353
5991.75212,0.06129
5993.68059,0.07997
5995.60906,0.09949
5997.53753,0.06823
5999.46600,0.04292
6001.39447,0.05554
6003.32294,0.06346
6005.25140,0.05438
6007.17987,0.05642
6009.10834,0.07035
6011.03681,0.07589
6012.96528,0.07861
6014.89375,0.08647
6016.82222,0.06903
6018.75069,0.02907
6020.67915,0.00641
6022.60762,0.01277
6024.53609,0.05120
6026.46456,0.07526
6028.39303,0.03996
6030.32150,-0.00512
6032.24997,-0.00322
6034.17843,0.03594
6036.10690,0.07746
6038.03537,0.10080
6039.96384,0.10167
6041.89231,0.08025
6043.82078,0.05571
6045.74925,0.05829
6047.67772,0.08645
6049.60618,0.10523
6051.53465,0.09101
6053.46312,0.06377
6055.39159,0.05355
6057.32006,0.06940
6059.24853,0.09933
6061.17700,0.12527
6063.10546,0.11990
6065.03393,0.07120
6066.96240,0.01608
6068.89087,-0.00373
6070.81934,0.02230
6072.74781,0.05423
6074.67628,0.05046
6076.60475,0.04342
6078.53321,0.06449
6080.46168,0.08497
6082.39015,0.07781
6084.31862,0.06608
6086.24709,0.08600
6088.17556,0.11129
6090.10403,0.10802
6092.03249,0.10746
6093.96096,0.14825
6095.88943,0.18700
6097.81790,0.16994
6099.74637,0.11742
6101.67484,0.05565
6103.60331,0.01992
6105.53177,0.04613
6107.46024,0.10017
6109.38871,0.11697
6111.31718,0.10146
6113.24565,0.09294
6115.17412,0.10423
6117.10259,0.15741
6119.03106,0.21990
6120.95952,0.20751
6122.88799,0.16273
6124.81646,0.14513
6126.74493,0.10586
6128.67340,0.04763
6130.60187,0.03977
6132.53034,0.06496
6134.45880,0.09235
6136.38727,0.11427
6138.31574,0.10744
6140.24421,0.07498
6142.17268,0.06041
6144.10115,0.05072
6146.02962,0.01398
6147.95809,0.01063
6149.88655,0.05704
6151.81502,0.09775
6153.74349,0.12516
6155.67196,0.12802
6157.60043,0.08999
6159.52890,0.05748
6161.45737,0.05799
6163.38583,0.07277
6165.31430,0.08445
6167.24277,0.08446
6169.17124,0.10235
6171.09971,0.13771
6173.02818,0.13996
6174.95665,0.11538
6176.88512,0.09231
6178.81358,0.06773
6180.74205,0.05846
6182.67052,0.08902
6184.59899,0.13565
6186.52746,0.16318
6188.45593,0.15430
6190.38440,0.10715
6192.31286,0.08593
6194.24133,0.14115
6196.16980,0.19858
6198.09827,0.19636
6200.02674,0.16860
6201.95521,0.12263
6203.88368,0.05059
6205.81215,0.01011
6207.74061,0.04610
6209.66908,0.09193
6211.59755,0.05226
6213.52602,0.00232
6215.45449,0.03069
6217.38296,0.07079
6219.31143,0.07705
6221.23989,0.07579
6223.16836,0.03956
6225.09683,-0.01654
6227.02530,0.01504
6228.95377,0.09880
6230.88224,0.10616
6232.81071,0.05338
6234.73918,0.01440
6236.66764,0.00504
6238.59611,0.01792
6240.52458,0.01964
6242.45305,0.03021
6244.38152,0.07382
6246.30999,0.09848
6248.23846,0.10138
6250.16692,0.10218
6252.09539,0.07121
6254.02386,0.02120
6255.95233,0.02253
6257.88080,0.08837
6259.80927,0.13413
6261.73774,0.12847
6263.66621,0.11672
6265.59467,0.09520
6267.52314,0.03491
6269.45161,-0.01342
6271.38008,0.01249
6273.30855,0.07000
6275.23702,0.05444
6277.16549,-0.00016
6279.09395,0.02100
6281.02242,0.08661
6282.95089,0.10245
6284.87936,0.08946
6286.80783,0.09520
6288.73630,0.08402
6290.66477,0.04956
6292.59323,0.02968
6294.52170,0.01943
6296.45017,0.00970
6298.37864,0.02575
6300.30711,0.05815
6302.23558,0.07152
6304.16405,0.07939
6306.09252,0.10126
6308.02098,0.13918
6309.94945,0.16264
6311.87792,0.13897
6313.80639,0.11647
6315.73486,0.11681
6317.66333,0.10797
6319.59180,0.12811
6321.52026,0.15788
6323.44873,0.10177
6325.37720,0.03125
6327.30567,0.00101
6329.23414,-0.02362
6331.16261,-0.00303
6333.09108,0.06988
6335.01955,0.14545
6336.94801,0.16433
6338.87648,0.11989
6340.80495,0.06179
6342.73342,0.00023
6344.66189,-0.02602
6346.59036,0.03224
6348.51883,0.12795
6350.44729,0.19061
6352.37576,0.20225
6354.30423,0.18610
6356.23270,0.18299
6358.16117,0.21044
6360.08964,0.20575
6362.01811,0.12015
6363.94658,0.01544
6365.87504,0.00558
6367.80351,0.10035
6369.73198,0.15928
6371.66045,0.13470
6373.58892,0.07610
6375.51739,-0.00780
6377.44586,-0.06205
6379.37432,-0.01461
6381.30279,0.08611
6383.23126,0.14763
6385.15973,0.12993
6387.08820,0.08373
6389.01667,0.08734
6390.94514,0.14350
6392.87361,0.18110
6394.80207,0.15064
6396.73054,0.08861
6398.65901,0.03545
6400.58748,0.01864
6402.51595,0.08517
6404.44442,0.20688
6406.37289,0.25501
6408.30135,0.18420
6410.22982,0.11572
6412.15829,0.08858
6414.08676,0.04871
6416.01523,0.03184
6417.94370,0.05623
6419.87217,0.06388
6421.80064,0.04614
6423.72910,0.04310
6425.65757,0.09921
6427.58604,0.19718
6429.51451,0.24865
6431.44298,0.22504
6433.37145,0.18902
6435.29992,0.17311
6437.22838,0.15413
6439.15685,0.11028
6441.08532,0.06919
6443.01379,0.08584
6444.94226,0.14066
6446.87073,0.14765
6448.79920,0.10692
6450.72766,0.07194
6452.65613,0.04142
6454.58460,0.01296
6456.51307,0.03298
6458.44154,0.08342
6460.37001,0.09354
6462.29848,0.07465
6464.22695,0.09673
6466.15541,0.17182
6468.08388,0.22833
6470.01235,0.22223
6471.94082,0.18925
6473.86929,0.18549
6475.79776,0.22894
6477.72623,0.25990
6479.65469,0.22400
6481.58316,0.16459
6483.51163,0.13107
6485.44010,0.11584
6487.36857,0.10630
6489.29704,0.09550
6491.22551,0.07120
6493.15398,0.04525
6495.08244,0.03995
6497.01091,0.05755
6498.93938,0.10177
6500.86785,0.14015
6502.79632,0.11079
6504.72479,0.06331
6506.65326,0.09707
6508.58172,0.16666
6510.51019,0.15052
6512.43866,0.07468
6514.36713,0.01672
6516.29560,-0.00579
6518.22407,0.02977
6520.15254,0.07615
6522.08101,0.06798
6524.00947,0.02441
6525.93794,0.03459
6527.86641,0.09406
6529.79488,0.11261
6531.72335,0.10356
6533.65182,0.12023
6535.58029,0.14256
6537.50875,0.11608
6539.43722,0.07409
6541.36569,0.08760
6543.29416,0.09325
6545.22263,0.05794
6547.15110,0.06475
6549.07957,0.14673
6551.00804,0.24207
6552.93650,0.25721
6554.86497,0.19398
6556.79344,0.13163
6558.72191,0.11350
6560.65038,0.12623
6562.57885,0.15308
6564.50732,0.16398
6566.43578,0.16021
6568.36425,0.17877
6570.29272,0.19256
6572.22119,0.18892
6574.14966,0.17207
6576.07813,0.14079
6578.00660,0.14000
6579.93507,0.18292
6581.86353,0.22245
6583.79200,0.20751
6585.72047,0.14699
6587.64894,0.12642
6589.57741,0.14606
6591.50588,0.11236
6593.43435,0.03750
6595.36281,-0.02156
6597.29128,-0.04903
6599.21975,-0.00732
6601.14822,0.04575
6603.07669,0.05196
6605.00516,0.07855
6606.93363,0.12955
6608.86210,0.15158
6610.79056,0.14003
6612.71903,0.14133
6614.64750,0.17770
6616.57597,0.19562
6618.50444,0.13409
6620.43291,0.06782
6622.36138,0.07481
6624.28984,0.12085
6626.21831,0.18293
6628.14678,0.23965
6630.07525,0.23145
6632.00372,0.16683
6633.93219,0.09205
6635.86066,0.03677
6637.78912,0.02556
6639.71759,0.03286
6641.64606,0.02677
6643.57453,0.02824
6645.50300,0.05284
6647.43147,0.07013
6649.35994,0.04334
6651.28841,-0.01179
6653.21687,-0.04429
6655.14534,-0.05590
6657.07381,-0.03914
6659.00228,0.02103
6660.93075,0.06250
6662.85922,0.08146
6664.78769,0.09890
6666.71615,0.10803
6668.64462,0.12263
6670.57309,0.12328
6672.50156,0.08724
6674.43003,0.06283
6676.35850,0.06655
6678.28697,0.05427
6680.21544,0.03653
6682.14390,0.08972
6684.07237,0.19510
6686.00084,0.21766
6687.92931,0.13394
6689.85778,0.07244
6691.78625,0.10344
6693.71472,0.14864
6695.64318,0.15080
6697.57165,0.14671
6699.50012,0.14014
6701.42859,0.09555
6703.35706,0.07578
6705.28553,0.08832
6707.21400,0.05823
6709.14247,0.00739
6711.07093,-0.01382
6712.99940,-0.02413
6714.92787,-0.04419
6716.85634,-0.05088
6718.78481,-0.03080
6720.71328,0.01528
6722.64175,0.06568
6724.57021,0.02775
6726.49868,-0.05363
6728.42715,-0.04623
6730.35562,0.00379
6732.28409,-0.00141
6734.21256,-0.01112
6736.14103,0.04035
6738.06950,0.08407
6739.99796,0.04431
6741.92643,-0.00388
6743.85490,0.01521
6745.78337,0.03709
6747.71184,0.01586
6749.64031,-0.02605
6751.56878,-0.02747
6753.49724,0.00044
6755.42571,-0.02616
6757.35418,-0.07494
6759.28265,-0.09313
6761.21112,-0.10860
6763.13959,-0.10045
6765.06806,-0.06264
6766.99653,-0.06154
6768.92499,-0.08042
6770.85346,-0.02410
6772.78193,0.09292
6774.71040,0.14515
6776.63887,0.07441
6778.56734,-0.00370
6780.49581,0.01100
6782.42427,0.08674
6784.35274,0.15841
6786.28121,0.21945
6788.20968,0.27030
6790.13815,0.26462
6792.06662,0.15245
6793.99509,0.01141
6795.92355,-0.03058
6797.85202,0.01058
6799.78049,0.06889
6801.70896,0.13021
6803.63743,0.14211
6805.56590,0.11589
6807.49437,0.09056
6809.42284,0.06055
6811.35130,0.06704
6813.27977,0.09597
6815.20824,0.09911
6817.13671,0.07602
6819.06518,0.03076
6820.99365,0.01860
6822.92212,0.09343
6824.85058,0.19694
6826.77905,0.21570
6828.70752,0.10897
6830.63599,-0.01119
6832.56446,-0.01823
6834.49293,0.03676
6836.42140,0.09000
6838.34987,0.15329
6840.27833,0.18819
6842.20680,0.11871
6844.13527,-0.00181
6846.06374,-0.06657
6847.99221,-0.06420
6849.92068,-0.02169
6851.84915,0.02540
6853.77761,0.05161
6855.70608,0.05776
6857.63455,0.01144
6859.56302,-0.04121
6861.49149,-0.02485
6863.41996,0.01950
6865.34843,0.03535
6867.27690,0.01522
6869.20536,-0.01455
6871.13383,-0.02370
6873.06230,-0.00549
6874.99077,0.06351
6876.91924,0.10991
6878.84771,0.03001
6880.77618,-0.06821
6882.70464,-0.07191
6884.63311,-0.00432
6886.56158,0.10668
6888.49005,0.22724
6890.41852,0.24117
6892.34699,0.16116
6894.27546,0.12176
6896.20393,0.12330
6898.13239,0.09691
6900.06086,0.05935
6901.98933,0.08055
6903.91780,0.17388
6905.84627,0.23636
6907.77474,0.15945
6909.70321,0.01431
6911.63167,-0.03862
6913.56014,-0.01031
6915.48861,-0.02490
6917.41708,-0.02306
6919.34555,0.05043
6921.27402,0.06304
6923.20249,-0.01439
6925.13096,-0.07958
6927.05942,-0.08509
6928.98789,-0.05807
6930.91636,-0.03304
6932.84483,0.00259
6934.77330,0.05429
6936.70177,0.09606
6938.63024,0.08171
6940.55870,0.00505
6942.48717,-0.00613
6944.41564,0.03498
6946.34411,-0.01568
6948.27258,-0.08768
6950.20105,-0.05268
6952.12952,0.01950
6954.05799,0.08436
6955.98645,0.14210
6957.91492,0.20042
6959.84339,0.25510
6961.77186,0.20295
6963.70033,0.09909
6965.62880,0.07935
6967.55727,0.09482
6969.48573,0.05151
6971.41420,-0.00075
6973.34267,0.00161
6975.27114,0.05613
6977.19961,0.15600
6979.12808,0.22485
6981.05655,0.17653
6982.98501,0.04371
6984.91348,0.01262
6986.84195,0.13599
6988.77042,0.17953
6990.69889,0.05107
6992.62736,-0.08133
6994.55583,-0.12459
6996.48430,-0.08534
6998.41276,0.00360
7000.34123,0.07379
7002.26970,0.04984
7004.19817,-0.04156
7006.12664,-0.09702
7008.05511,-0.05061
7009.98358,0.07781
7011.91204,0.18003
7013.84051,0.13262
7015.76898,-0.02934
7017.69745,-0.17160
7019.62592,-0.17154
7021.55439,-0.03864
7023.48286,0.05544
7025.41133,0.04879
7027.33979,0.05345
7029.26826,0.15667
7031.19673,0.30035
7033.12520,0.40376
7035.05367,0.42470
7036.98214,0.35225
7038.91061,0.25590
7040.83907,0.17462
7042.76754,0.06377
7044.69601,-0.02362
7046.62448,0.01631
7048.55295,0.10363
7050.48142,0.16890
7052.40989,0.18348
7054.33836,0.11941
7056.26682,0.05743
7058.19529,0.04536
7060.12376,0.06124
7062.05223,0.11969
7063.98070,0.18654
7065.90917,0.21446
7067.83764,0.23076
7069.76610,0.23049
7071.69457,0.14226
7073.62304,-0.02278
7075.55151,-0.10679
7077.47998,-0.12106
7079.40845,-0.19238
7081.33692,-0.19625
7083.26539,-0.03385
7085.19385,0.07375
7087.12232,0.06546
7089.05079,0.06230
7090.97926,0.10820
7092.90773,0.08848
7094.83620,0.03430
7096.76467,0.05283
7098.69313,0.04462
7100.62160,-0.00440
7102.55007,0.07048
7104.47854,0.20043
7106.40701,0.23118
7108.33548,0.19582
7110.26395,0.13007
7112.19242,0.06530
7114.12088,0.06640
7116.04935,0.08248
7117.97782,-0.00621
7119.90629,-0.12829
7121.83476,-0.14512
7123.76323,-0.11999
7125.69170,-0.11123
7127.62016,-0.11093
7129.54863,-0.05960
7131.47710,0.05233
7133.40557,0.13271
7135.33404,0.11513
7137.26251,-0.01192
7139.19098,-0.07959
7141.11944,0.05867
7143.04791,0.13372
7144.97638,0.01778
7146.90485,-0.00610
7148.83332,0.07201
7150.76179,0.08510
7152.69026,0.03354
7154.61873,-0.05668
7156.54719,-0.09487
7158.47566,-0.02340
7160.40413,0.06788
7162.33260,0.08167
7164.26107,0.04556
7166.18954,0.02692
7168.11801,-0.00935
7170.04647,-0.05291
7171.97494,-0.04227
7173.90341,-0.03732
7175.83188,-0.05634
7177.76035,-0.08602
7179.68882,-0.13343
7181.61729,-0.09028
7183.54576,0.08590
7185.47422,0.13767
7187.40269,0.08189
7189.33116,0.16057
7191.25963,0.24026
7193.18810,0.06085
7195.11657,-0.12255
7197.04504,-0.05841
7198.97350,0.10445
7200.90197,0.10592
7202.83044,-0.05386
7204.75891,-0.06294
7206.68738,0.19152
7208.61585,0.38010
7210.54432,0.43891
7212.47279,0.36695
7214.40125,0.22176
7216.32972,0.17663
7218.25819,0.20338
7220.18666,0.09554
7222.11513,-0.05732
7224.04360,-0.16458
7225.97207,-0.16240
7227.90053,-0.13368
7229.82900,-0.21722
7231.75747,-0.29069
7233.68594,-0.29242
7235.61441,-0.26037
7237.54288,-0.09296
7239.47135,0.16506
7241.39982,0.36882
7243.32828,0.34828
7245.25675,0.06276
7247.18522,-0.13867
7249.11369,-0.13191
7251.04216,-0.11254
7252.97063,-0.16983
7254.89910,-0.09485
7256.82756,0.14722
7258.75603,0.42617
7260.68450,0.54269
7262.61297,0.38114
7264.54144,0.08951
7266.46991,-0.11465
7268.39838,-0.14199
7270.32685,-0.03717
7272.25531,0.14430
7274.18378,0.19097
7276.11225,0.11074
7278.04072,0.06790
7279.96919,0.03747
7281.89766,0.03303
7283.82613,0.13355
7285.75459,0.22588
7287.68306,0.19762
7289.61153,0.08507
7291.54000,0.03814
7293.46847,0.08233
7295.39694,0.13705
7297.32541,0.20460
7299.25387,0.26960
7301.18234,0.28118
7303.11081,0.22739
7305.03928,0.19069
7306.96775,0.22717
7308.89622,0.20384
7310.82469,-0.03886
7312.75316,-0.24545
7314.68162,-0.18435
7316.61009,0.05154
7318.53856,0.14029
7320.46703,-0.01401
7322.39550,-0.16670
7324.32397,-0.07059
7326.25244,0.10463
7328.18090,0.16023
7330.10937,0.17346
7332.03784,0.22424
7333.96631,0.21265
7335.89478,0.17566
7337.82325,0.22543
7339.75172,0.30272
7341.68019,0.23602
7343.60865,0.16831
7345.53712,0.12153
7347.46559,-0.02468
7349.39406,-0.15987
7351.32253,-0.15025
7353.25100,-0.04657
7355.17947,0.09462
7357.10793,0.22345
7359.03640,0.26229
7360.96487,0.16796
7362.89334,0.03942
7364.82181,0.07365
7366.75028,0.17186
7368.67875,0.13207
7370.60722,0.03865
7372.53568,-0.03537
7374.46415,-0.18579
7376.39262,-0.37979
7378.32109,-0.35124
7380.24956,-0.10771
7382.17803,0.18541
7384.10650,0.33780
7386.03496,0.28267
7387.96343,0.19132
7389.89190,0.15736
7391.82037,0.07585
7393.74884,0.08322
7395.67731,0.15080
7397.60578,0.01032
7399.53425,-0.19607
7401.46271,-0.30028
7403.39118,-0.31648
7405.31965,-0.25966
7407.24812,-0.15685
7409.17659,-0.03282
7411.10506,-0.01610
7413.03353,-0.03641
7414.96199,0.02845
7416.89046,0.06738
7418.81893,-0.01065
7420.74740,-0.10657
7422.67587,-0.08509
7424.60434,0.04250
7426.53281,0.23564
7428.46128,0.45035
7430.38974,0.45717
7432.31821,0.21681
7434.24668,0.05062
7436.17515,0.02157
7438.10362,-0.03608
7440.03209,-0.06198
7441.96056,0.02149
7443.88902,0.00634
7445.81749,-0.06109
7447.74596,0.00056
7449.67443,0.12505
7451.60290,0.19658
7453.53137,0.20413
7455.45984,0.13773
7457.38831,0.00986
7459.31677,-0.04424
7461.24524,0.12489
7463.17371,0.28349
7465.10218,0.23293
7467.03065,0.11675
7468.95912,0.08984
7470.88759,0.15252
7472.81605,0.23510
7474.74452,0.17633
7476.67299,0.05723
7478.60146,0.21659
7480.52993,0.55247
7482.45840,0.56182
7484.38687,0.36413
7486.31533,0.29021
7488.24380,0.30040
7490.17227,0.27617
7492.10074,0.24951
7494.02921,0.22422
7495.95768,0.16275
7497.88615,0.03507
