399.19301,2.88349
401.12148,1.45633
403.04995,0.69224
404.97842,0.40643
406.90689,0.30722
408.83536,0.34573
410.76382,0.46523
412.69229,0.45013
414.62076,0.34088
416.54923,0.28517
418.47770,0.23668
420.40617,0.14947
422.33464,-0.00785
424.26311,-0.24378
426.19157,-0.35445
428.12004,-0.28811
430.04851,-0.17105
431.97698,-0.07295
433.90545,-0.01999
435.83392,0.01035
437.76239,0.05111
439.69085,0.07437
441.61932,0.02734
443.54779,-0.02074
445.47626,0.05549
447.40473,0.16373
449.33320,0.16352
451.26167,0.11426
453.19013,0.11702
455.11860,0.19218
457.04707,0.26505
458.97554,0.21514
460.90401,0.12542
462.83248,0.11977
464.76095,0.15337
466.68942,0.14055
468.61788,0.07678
470.54635,0.03144
472.47482,0.22500
474.40329,0.52406
476.33176,0.33366
478.26023,0.11760
480.18870,0.06331
482.11716,0.02573
484.04563,0.00888
485.97410,0.07167
487.90257,0.13347
489.83104,0.13305
491.75951,0.12548
493.68798,0.15149
495.61645,0.16527
497.54491,0.11711
499.47338,0.05445
501.40185,0.03407
503.33032,0.04105
505.25879,0.05967
507.18726,0.07263
509.11573,0.08227
511.04419,0.12596
512.97266,0.15882
514.90113,0.14357
516.82960,0.15666
518.75807,0.19650
520.68654,0.16259
522.61501,0.09203
524.54348,0.06865
526.47194,0.04870
528.40041,-0.01807
530.32888,-0.05230
532.25735,0.01059
534.18582,0.12204
536.11429,0.18576
538.04276,0.18676
539.97122,0.18142
541.89969,0.18188
543.82816,0.16869
545.75663,0.13291
547.68510,0.09015
549.61357,0.14622
551.54204,0.48421
553.47051,0.83220
555.39897,0.67113
557.32744,0.25032
559.25591,0.07998
561.18438,0.06973
563.11285,0.08111
565.04132,0.13009
566.96979,0.16498
568.89825,0.14508
570.82672,0.11200
572.75519,0.11760
574.68366,0.14236
576.61213,0.14217
578.54060,0.12571
580.46907,0.11709
582.39754,0.11277
584.32600,0.10582
586.25447,0.10265
588.18294,0.12222
590.11141,0.14887
592.03988,0.13041
593.96835,0.08444
595.89682,0.07754
597.82528,0.11087
599.75375,0.13220
601.68222,0.12921
603.61069,0.12247
605.53916,0.10967
607.46763,0.08789
609.39610,0.05878
611.32456,0.04082
613.25303,0.05459
615.18150,0.07539
617.10997,0.08345
619.03844,0.09398
620.96691,0.10012
622.89538,0.08980
624.82385,0.09039
626.75231,0.11953
628.68078,0.14147
630.60925,0.14541
632.53772,0.15516
634.46619,0.14901
636.39466,0.13362
638.32313,0.14042
640.25159,0.14847
642.18006,0.14092
644.10853,0.14183
646.03700,0.16024
647.96547,0.16154
649.89394,0.13545
651.82241,0.11695
653.75088,0.10832
655.67934,0.09334
657.60781,0.08438
659.53628,0.09018
661.46475,0.09220
663.39322,0.08179
665.32169,0.06747
667.25016,0.05885
669.17862,0.06311
671.10709,0.07901
673.03556,0.11131
674.96403,0.14497
676.89250,0.15004
678.82097,0.13426
680.74944,0.12628
682.67791,0.12986
684.60637,0.13289
686.53484,0.12823
688.46331,0.11772
690.39178,0.11131
692.32025,0.10955
694.24872,0.11084
696.17719,0.12111
698.10565,0.13120
700.03412,0.13041
701.96259,0.13071
703.89106,0.13805
705.81953,0.14688
707.74800,0.15865
709.67647,0.16702
711.60494,0.15531
713.53340,0.12931
715.46187,0.11747
717.39034,0.11705
719.31881,0.11183
721.24728,0.11746
723.17575,0.13166
725.10422,0.12847
727.03268,0.11752
728.96115,0.12231
730.88962,0.14012
732.81809,0.14986
734.74656,0.13754
736.67503,0.11854
738.60350,0.11200
740.53197,0.11562
742.46043,0.12238
744.38890,0.12892
746.31737,0.12869
748.24584,0.11959
750.17431,0.11235
752.10278,0.11909
754.03125,0.13578
755.95971,0.14155
757.88818,0.12898
759.81665,0.11591
761.74512,0.11595
763.67359,0.11935
765.60206,0.11484
767.53053,0.12121
769.45900,0.14099
771.38746,0.14279
773.31593,0.13292
775.24440,0.14116
777.17287,0.15447
779.10134,0.15257
781.02981,0.15068
782.95828,0.15269
784.88674,0.14821
786.81521,0.14252
788.74368,0.13711
790.67215,0.13137
792.60062,0.13291
794.52909,0.14044
796.45756,0.13882
798.38602,0.12995
800.31449,0.13196
802.24296,0.13959
804.17143,0.13919
806.09990,0.13552
808.02837,0.13578
809.95684,0.13925
811.88531,0.13719
813.81377,0.13126
815.74224,0.13432
817.67071,0.13657
819.59918,0.13040
821.52765,0.13486
823.45612,0.14616
825.38459,0.14449
827.31305,0.13885
829.24152,0.13976
831.16999,0.14188
833.09846,0.14300
835.02693,0.14024
836.95540,0.13583
838.88387,0.13495
840.81234,0.13137
842.74080,0.12620
844.66927,0.13159
846.59774,0.14407
848.52621,0.14934
850.45468,0.14066
852.38315,0.12424
854.31162,0.12250
856.24008,0.14180
858.16855,0.15290
860.09702,0.14636
862.02549,0.14776
863.95396,0.15578
865.88243,0.14687
867.81090,0.12918
869.73937,0.12443
871.66783,0.13284
873.59630,0.14064
875.52477,0.14178
877.45324,0.14724
879.38171,0.16212
881.31018,0.16892
883.23865,0.15239
885.16711,0.12257
887.09558,0.10707
889.02405,0.11692
890.95252,0.12930
892.88099,0.12816
894.80946,0.12832
896.73793,0.13392
898.66640,0.13217
900.59486,0.12880
902.52333,0.13326
904.45180,0.14157
906.38027,0.14569
908.30874,0.14146
910.23721,0.13658
912.16568,0.13641
914.09414,0.13567
916.02261,0.13544
917.95108,0.14065
919.87955,0.14627
921.80802,0.14648
923.73649,0.14227
925.66496,0.13624
927.59343,0.13582
929.52189,0.14245
931.45036,0.14545
933.37883,0.14337
935.30730,0.14101
937.23577,0.13666
939.16424,0.13372
941.09271,0.13903
943.02117,0.14942
944.94964,0.15358
946.87811,0.13942
948.80658,0.11564
950.73505,0.11003
952.66352,0.12383
954.59199,0.13379
956.52045,0.13909
958.44892,0.14962
960.37739,0.15341
962.30586,0.14202
964.23433,0.12794
966.16280,0.12398
968.09127,0.13019
970.01974,0.14210
971.94820,0.15351
973.87667,0.15660
975.80514,0.15389
977.73361,0.15444
979.66208,0.15948
981.59055,0.16145
983.51902,0.15553
985.44748,0.14698
987.37595,0.14047
989.30442,0.13628
991.23289,0.13801
993.16136,0.14403
995.08983,0.14745
997.01830,0.14880
998.94677,0.14749
1000.87523,0.14228
1002.80370,0.13959
1004.73217,0.14290
1006.66064,0.14652
1008.58911,0.14605
1010.51758,0.14466
1012.44605,0.14618
1014.37451,0.15092
1016.30298,0.15439
1018.23145,0.15216
1020.15992,0.14561
1022.08839,0.13640
1024.01686,0.12904
1025.94533,0.13379
1027.87380,0.14830
1029.80226,0.15434
1031.73073,0.14849
1033.65920,0.14247
1035.58767,0.14255
1037.51614,0.14626
1039.44461,0.14564
1041.37308,0.14338
1043.30154,0.14710
1045.23001,0.14814
1047.15848,0.13724
1049.08695,0.12961
1051.01542,0.13926
1052.94389,0.15314
1054.87236,0.15824
1056.80083,0.15567
1058.72929,0.15324
1060.65776,0.15560
1062.58623,0.15610
1064.51470,0.15479
1066.44317,0.15791
1068.37164,0.16413
1070.30011,0.16742
1072.22857,0.16061
1074.15704,0.15259
1076.08551,0.15788
1078.01398,0.16849
1079.94245,0.17283
1081.87092,0.17625
1083.79939,0.18186
1085.72786,0.18029
1087.65632,0.17071
1089.58479,0.16066
1091.51326,0.15485
1093.44173,0.15586
1095.37020,0.15860
1097.29867,0.15933
1099.22714,0.16266
1101.15560,0.17174
1103.08407,0.17772
1105.01254,0.17047
1106.94101,0.15803
1108.86948,0.15308
1110.79795,0.15448
1112.72642,0.15781
1114.65489,0.16564
1116.58335,0.16957
1118.51182,0.16078
1120.44029,0.15085
1122.36876,0.14634
1124.29723,0.14365
1126.22570,0.14401
1128.15417,0.14695
1130.08263,0.14822
1132.01110,0.14692
1133.93957,0.14383
1135.86804,0.14046
1137.79651,0.14043
1139.72498,0.14528
1141.65345,0.15247
1143.58191,0.15517
1145.51038,0.15144
1147.43885,0.14837
1149.36732,0.14701
1151.29579,0.14451
1153.22426,0.14714
1155.15273,0.15777
1157.08120,0.16732
1159.00966,0.17071
1160.93813,0.17022
1162.86660,0.16760
1164.79507,0.16465
1166.72354,0.16318
1168.65201,0.16505
1170.58048,0.16681
1172.50894,0.16089
1174.43741,0.15163
1176.36588,0.14900
1178.29435,0.15207
1180.22282,0.15579
1182.15129,0.15785
1184.07976,0.15615
1186.00823,0.15253
1187.93669,0.15408
1189.86516,0.15972
1191.79363,0.16272
1193.72210,0.16365
1195.65057,0.16225
1197.57904,0.15833
1199.50751,0.15527
1201.43597,0.15219
1203.36444,0.15001
1205.29291,0.15226
1207.22138,0.15451
1209.14985,0.15302
1211.07832,0.15297
1213.00679,0.15721
1214.93526,0.16380
1216.86372,0.16909
1218.79219,0.16977
1220.72066,0.16685
1222.64913,0.16138
1224.57760,0.15644
1226.50607,0.15615
1228.43454,0.15805
1230.36300,0.15877
1232.29147,0.15825
1234.21994,0.15583
1236.14841,0.15283
1238.07688,0.15216
1240.00535,0.15276
1241.93382,0.15442
1243.86229,0.15763
1245.79075,0.15914
1247.71922,0.15968
1249.64769,0.15969
1251.57616,0.15379
1253.50463,0.14578
1255.43310,0.14659
1257.36157,0.15352
1259.29003,0.15552
1261.21850,0.15360
1263.14697,0.15452
1265.07544,0.15646
1267.00391,0.15613
1268.93238,0.15243
1270.86085,0.14933
1272.78932,0.15228
1274.71778,0.15495
1276.64625,0.15403
1278.57472,0.15417
1280.50319,0.15188
1282.43166,0.14902
1284.36013,0.15177
1286.28860,0.15245
1288.21706,0.15075
1290.14553,0.15353
1292.07400,0.15240
1294.00247,0.14496
1295.93094,0.14037
1297.85941,0.13806
1299.78788,0.12960
1301.71634,0.10969
1303.64481,0.08817
1305.57328,0.09349
1307.50175,0.12876
1309.43022,0.15666
1311.35869,0.16405
1313.28716,0.16505
1315.21563,0.16269
1317.14409,0.16072
1319.07256,0.16126
1321.00103,0.15824
1322.92950,0.15245
1324.85797,0.14763
1326.78644,0.14698
1328.71491,0.15117
1330.64337,0.14875
1332.57184,0.14242
1334.50031,0.14378
1336.42878,0.14627
1338.35725,0.14878
1340.28572,0.15036
1342.21419,0.14630
1344.14266,0.13833
1346.07112,0.13280
1347.99959,0.14133
1349.92806,0.15206
1351.85653,0.15035
1353.78500,0.14571
1355.71347,0.14552
1357.64194,0.14772
1359.57040,0.14967
1361.49887,0.15406
1363.42734,0.16120
1365.35581,0.16506
1367.28428,0.16666
1369.21275,0.16692
1371.14122,0.16508
1373.06969,0.16552
1374.99815,0.16804
1376.92662,0.16749
1378.85509,0.16732
1380.78356,0.16862
1382.71203,0.16727
1384.64050,0.16522
1386.56897,0.16801
1388.49743,0.17531
1390.42590,0.18111
1392.35437,0.18287
1394.28284,0.18307
1396.21131,0.18589
1398.13978,0.18504
1400.06825,0.17594
1401.99672,0.16955
1403.92518,0.16989
1405.85365,0.17062
1407.78212,0.17013
1409.71059,0.16943
1411.63906,0.16593
1413.56753,0.16337
1415.49600,0.16953
1417.42446,0.18253
1419.35293,0.18914
1421.28140,0.18600
1423.20987,0.18220
1425.13834,0.17856
1427.06681,0.17721
1428.99528,0.17799
1430.92375,0.17457
1432.85221,0.17032
1434.78068,0.17665
1436.70915,0.19010
1438.63762,0.18871
1440.56609,0.17755
1442.49456,0.17225
1444.42303,0.17655
1446.35149,0.18442
1448.27996,0.18671
1450.20843,0.18165
1452.13690,0.17747
1454.06537,0.18173
1455.99384,0.19612
1457.92231,0.20254
1459.85077,0.19077
1461.77924,0.18283
1463.70771,0.18191
1465.63618,0.18249
1467.56465,0.18342
1469.49312,0.18980
1471.42159,0.20057
1473.35006,0.20585
1475.27852,0.20254
1477.20699,0.19657
1479.13546,0.18927
1481.06393,0.18498
1482.99240,0.18541
1484.92087,0.18807
1486.84934,0.19246
1488.77780,0.19511
1490.70627,0.18979
1492.63474,0.18560
1494.56321,0.18975
1496.49168,0.19666
1498.42015,0.19167
1500.34862,0.17391
1502.27709,0.15800
1504.20555,0.15219
1506.13402,0.16724
1508.06249,0.19836
1509.99096,0.20073
1511.91943,0.19311
1513.84790,0.19045
1515.77637,0.19196
1517.70483,0.19467
1519.63330,0.20063
1521.56177,0.20770
1523.49024,0.20921
1525.41871,0.20899
1527.34718,0.20371
1529.27565,0.19312
1531.20412,0.18752
1533.13258,0.19023
1535.06105,0.19602
1536.98952,0.20465
1538.91799,0.21997
1540.84646,0.22198
1542.77493,0.20518
1544.70340,0.19377
1546.63186,0.18630
1548.56033,0.18496
1550.48880,0.18751
1552.41727,0.18943
1554.34574,0.19488
1556.27421,0.20442
1558.20268,0.20760
1560.13115,0.19360
1562.05961,0.18561
1563.98808,0.18473
1565.91655,0.18521
1567.84502,0.18455
1569.77349,0.18334
1571.70196,0.18447
1573.63043,0.18720
1575.55889,0.18781
1577.48736,0.18404
1579.41583,0.18004
1581.34430,0.17644
1583.27277,0.17172
1585.20124,0.16869
1587.12971,0.17056
1589.05818,0.17436
1590.98664,0.17637
1592.91511,0.17720
1594.84358,0.17719
1596.77205,0.17505
1598.70052,0.17250
1600.62899,0.17216
1602.55746,0.17326
1604.48592,0.17318
1606.41439,0.17325
1608.34286,0.17535
1610.27133,0.17742
1612.19980,0.17867
1614.12827,0.18041
1616.05674,0.18314
1617.98521,0.18343
1619.91367,0.18272
1621.84214,0.18589
1623.77061,0.19106
1625.69908,0.19385
1627.62755,0.19299
1629.55602,0.18784
1631.48449,0.18401
1633.41295,0.18840
1635.34142,0.20190
1637.26989,0.20704
1639.19836,0.19780
1641.12683,0.18666
1643.05530,0.18323
1644.98377,0.19302
1646.91223,0.20829
1648.84070,0.21050
1650.76917,0.21176
1652.69764,0.22145
1654.62611,0.21213
1656.55458,0.19695
1658.48305,0.19258
1660.41152,0.19038
1662.33998,0.18714
1664.26845,0.18748
1666.19692,0.18899
1668.12539,0.19059
1670.05386,0.19276
1671.98233,0.19534
1673.91080,0.20015
1675.83926,0.19928
1677.76773,0.19134
1679.69620,0.18819
1681.62467,0.19527
1683.55314,0.20911
1685.48161,0.20772
1687.41008,0.19571
1689.33855,0.18954
1691.26701,0.18996
1693.19548,0.19590
1695.12395,0.20736
1697.05242,0.21772
1698.98089,0.21961
1700.90936,0.21254
1702.83783,0.20111
1704.76629,0.19148
1706.69476,0.18602
1708.62323,0.18429
1710.55170,0.18378
1712.48017,0.18636
1714.40864,0.19100
1716.33711,0.19413
1718.26558,0.19230
1720.19404,0.18574
1722.12251,0.18193
1724.05098,0.18200
1725.97945,0.18273
1727.90792,0.18375
1729.83639,0.18562
1731.76486,0.18952
1733.69332,0.19321
1735.62179,0.18853
1737.55026,0.18343
1739.47873,0.18147
1741.40720,0.17992
1743.33567,0.18107
1745.26414,0.18667
1747.19261,0.19399
1749.12107,0.19662
1751.04954,0.19039
1752.97801,0.18474
1754.90648,0.18461
1756.83495,0.18591
1758.76342,0.18706
1760.69189,0.18988
1762.62035,0.19082
1764.54882,0.18668
1766.47729,0.18297
1768.40576,0.18397
1770.33423,0.18982
1772.26270,0.19640
1774.19117,0.19680
1776.11964,0.19298
1778.04810,0.19044
1779.97657,0.19038
1781.90504,0.18824
1783.83351,0.18289
1785.76198,0.17889
1787.69045,0.17913
1789.61892,0.18407
1791.54738,0.19077
1793.47585,0.19206
1795.40432,0.18750
1797.33279,0.18274
1799.26126,0.18158
1801.18973,0.18325
1803.11820,0.18405
1805.04666,0.18426
1806.97513,0.18533
1808.90360,0.18645
1810.83207,0.18594
1812.76054,0.18361
1814.68901,0.18229
1816.61748,0.18396
1818.54595,0.18799
1820.47441,0.19154
1822.40288,0.19188
1824.33135,0.19011
1826.25982,0.18963
1828.18829,0.19216
1830.11676,0.19313
1832.04523,0.18879
1833.97369,0.18571
1835.90216,0.18610
1837.83063,0.18597
1839.75910,0.18399
1841.68757,0.18332
1843.61604,0.18601
1845.54451,0.18825
1847.47298,0.18595
1849.40144,0.18196
1851.32991,0.18022
1853.25838,0.18095
1855.18685,0.18258
1857.11532,0.18276
1859.04379,0.18019
1860.97226,0.17956
1862.90072,0.18310
1864.82919,0.18541
1866.75766,0.18405
1868.68613,0.18235
1870.61460,0.18171
1872.54307,0.18050
1874.47154,0.17983
1876.40001,0.18081
1878.32847,0.18297
1880.25694,0.18617
1882.18541,0.18861
1884.11388,0.18771
1886.04235,0.18565
1887.97082,0.18691
1889.89929,0.18889
1891.82775,0.18561
1893.75622,0.18140
1895.68469,0.18158
1897.61316,0.18156
1899.54163,0.17925
1901.47010,0.17919
1903.39857,0.18111
1905.32704,0.18199
1907.25550,0.18361
1909.18397,0.18811
1911.11244,0.19080
1913.04091,0.18840
1914.96938,0.18541
1916.89785,0.18357
1918.82632,0.18062
1920.75478,0.17930
1922.68325,0.18256
1924.61172,0.18628
1926.54019,0.18609
1928.46866,0.18464
1930.39713,0.18430
1932.32560,0.18489
1934.25407,0.18571
1936.18253,0.18407
1938.11100,0.18156
1940.03947,0.18298
1941.96794,0.18553
1943.89641,0.18449
1945.82488,0.18256
1947.75335,0.18153
1949.68181,0.18080
1951.61028,0.18218
1953.53875,0.18649
1955.46722,0.18931
1957.39569,0.18658
1959.32416,0.18310
1961.25263,0.18395
1963.18110,0.18611
1965.10956,0.18697
1967.03803,0.18737
1968.96650,0.18712
1970.89497,0.18552
1972.82344,0.18368
1974.75191,0.18382
1976.68038,0.18630
1978.60884,0.18922
1980.53731,0.18950
1982.46578,0.18667
1984.39425,0.18422
1986.32272,0.18285
1988.25119,0.18225
1990.17966,0.18351
1992.10812,0.18396
1994.03659,0.18208
1995.96506,0.18113
1997.89353,0.18232
1999.82200,0.18394
2001.75047,0.18447
2003.67894,0.18236
2005.60741,0.17862
2007.53587,0.17764
2009.46434,0.18019
2011.39281,0.18273
2013.32128,0.18370
2015.24975,0.18489
2017.17822,0.18555
2019.10669,0.18371
2021.03515,0.18213
2022.96362,0.18169
2024.89209,0.18123
2026.82056,0.18271
2028.74903,0.18550
2030.67750,0.18592
2032.60597,0.18425
2034.53444,0.18226
2036.46290,0.18071
2038.39137,0.18086
2040.31984,0.18308
2042.24831,0.18634
2044.17678,0.18700
2046.10525,0.18450
2048.03372,0.18397
2049.96218,0.18570
2051.89065,0.18640
2053.81912,0.18734
2055.74759,0.18926
2057.67606,0.18984
2059.60453,0.18821
2061.53300,0.18677
2063.46147,0.18786
2065.38993,0.18897
2067.31840,0.18780
2069.24687,0.18578
2071.17534,0.18402
2073.10381,0.18487
2075.03228,0.18718
2076.96075,0.18557
2078.88921,0.18175
2080.81768,0.18102
2082.74615,0.18314
2084.67462,0.18495
2086.60309,0.18410
2088.53156,0.18240
2090.46003,0.18353
2092.38850,0.18619
2094.31696,0.18809
2096.24543,0.18888
2098.17390,0.18786
2100.10237,0.18684
2102.03084,0.18711
2103.95931,0.18674
2105.88778,0.18519
2107.81624,0.18292
2109.74471,0.18131
2111.67318,0.18247
2113.60165,0.18439
2115.53012,0.18455
2117.45859,0.18480
2119.38706,0.18701
2121.31553,0.18944
2123.24399,0.18895
2125.17246,0.18606
2127.10093,0.18361
2129.02940,0.18320
2130.95787,0.18522
2132.88634,0.18314
2134.81481,0.17319
2136.74327,0.16659
2138.67174,0.17081
2140.60021,0.17998
2142.52868,0.18510
2144.45715,0.18411
2146.38562,0.18276
2148.31409,0.18316
2150.24255,0.18428
2152.17102,0.18626
2154.09949,0.18866
2156.02796,0.19044
2157.95643,0.18976
2159.88490,0.18703
2161.81337,0.18550
2163.74184,0.18636
2165.67030,0.18705
2167.59877,0.18575
2169.52724,0.18375
2171.45571,0.18278
2173.38418,0.18260
2175.31265,0.18201
2177.24112,0.18137
2179.16958,0.18215
2181.09805,0.18576
2183.02652,0.18956
2184.95499,0.18914
2186.88346,0.18548
2188.81193,0.18287
2190.74040,0.18460
2192.66887,0.18941
2194.59733,0.19165
2196.52580,0.18971
2198.45427,0.18871
2200.38274,0.18927
2202.31121,0.18723
2204.23968,0.18479
2206.16815,0.18511
2208.09661,0.18618
2210.02508,0.18511
2211.95355,0.18302
2213.88202,0.18316
2215.81049,0.18566
2217.73896,0.18967
2219.66743,0.19228
2221.59590,0.19077
2223.52436,0.18817
2225.45283,0.18718
2227.38130,0.18740
2229.30977,0.18761
2231.23824,0.18635
2233.16671,0.18378
2235.09518,0.18313
2237.02364,0.18629
2238.95211,0.18869
2240.88058,0.18582
2242.80905,0.18199
2244.73752,0.18324
2246.66599,0.18796
2248.59446,0.19136
2250.52293,0.19140
2252.45139,0.18781
2254.37986,0.18199
2256.30833,0.17827
2258.23680,0.17936
2260.16527,0.18173
2262.09374,0.18146
2264.02221,0.18159
2265.95067,0.18525
2267.87914,0.18720
2269.80761,0.18413
2271.73608,0.18043
2273.66455,0.17952
2275.59302,0.18118
2277.52149,0.18298
2279.44996,0.18310
2281.37842,0.18196
2283.30689,0.18061
2285.23536,0.17974
2287.16383,0.17943
2289.09230,0.17888
2291.02077,0.17722
2292.94924,0.17766
2294.87770,0.18220
2296.80617,0.18287
2298.73464,0.17619
2300.66311,0.17003
2302.59158,0.16632
2304.52005,0.16422
2306.44852,0.16581
2308.37699,0.16736
2310.30545,0.16488
2312.23392,0.16190
2314.16239,0.16194
2316.09086,0.16129
2318.01933,0.15613
2319.94780,0.15096
2321.87627,0.15224
2323.80473,0.15327
2325.73320,0.14439
2327.66167,0.13511
2329.59014,0.13322
2331.51861,0.12952
2333.44708,0.12596
2335.37555,0.13264
2337.30401,0.13523
2339.23248,0.12325
2341.16095,0.11426
2343.08942,0.11444
2345.01789,0.12249
2346.94636,0.13817
2348.87483,0.14795
2350.80330,0.14665
2352.73176,0.14259
2354.66023,0.14288
2356.58870,0.13494
2358.51717,0.12031
2360.44564,0.11458
2362.37411,0.11101
2364.30258,0.11224
2366.23104,0.12455
2368.15951,0.13881
2370.08798,0.15106
2372.01645,0.15646
2373.94492,0.15563
2375.87339,0.15819
2377.80186,0.16575
2379.73033,0.17342
2381.65879,0.17764
2383.58726,0.17948
2385.51573,0.18285
2387.44420,0.18717
2389.37267,0.18845
2391.30114,0.18769
2393.22961,0.18758
2395.15807,0.18755
2397.08654,0.18720
2399.01501,0.18617
2400.94348,0.18518
2402.87195,0.18492
2404.80042,0.18400
2406.72889,0.18386
2408.65736,0.18573
2410.58582,0.18749
2412.51429,0.18859
2414.44276,0.18968
2416.37123,0.19005
2418.29970,0.19078
2420.22817,0.19315
2422.15664,0.19394
2424.08510,0.19118
2426.01357,0.18806
2427.94204,0.18715
2429.87051,0.18694
2431.79898,0.18454
2433.72745,0.17982
2435.65592,0.17713
2437.58439,0.17961
2439.51285,0.18332
2441.44132,0.18448
2443.36979,0.18465
2445.29826,0.18446
2447.22673,0.18442
2449.15520,0.18638
2451.08367,0.18751
2453.01213,0.18581
2454.94060,0.18461
2456.86907,0.18523
2458.79754,0.18566
2460.72601,0.18459
2462.65448,0.18344
2464.58295,0.18343
2466.51142,0.18309
2468.43988,0.18189
2470.36835,0.18256
2472.29682,0.18680
2474.22529,0.19093
2476.15376,0.19191
2478.08223,0.19049
2480.01070,0.18731
2481.93916,0.18412
2483.86763,0.18157
2485.79610,0.17946
2487.72457,0.18160
2489.65304,0.18802
2491.58151,0.19200
2493.50998,0.19207
2495.43844,0.19190
2497.36691,0.19124
2499.29538,0.18841
2501.22385,0.18543
2503.15232,0.18621
2505.08079,0.18994
2507.00926,0.19063
2508.93773,0.18761
2510.86619,0.18649
2512.79466,0.18780
2514.72313,0.18764
2516.65160,0.18596
2518.58007,0.18442
2520.50854,0.18352
2522.43701,0.18352
2524.36547,0.18372
2526.29394,0.18392
2528.22241,0.18516
2530.15088,0.18669
2532.07935,0.18643
2534.00782,0.18498
2535.93629,0.18492
2537.86476,0.18761
2539.79322,0.19038
2541.72169,0.18944
2543.65016,0.18731
2545.57863,0.18705
2547.50710,0.18690
2549.43557,0.18656
2551.36404,0.18706
2553.29250,0.18871
2555.22097,0.19150
2557.14944,0.19208
2559.07791,0.18887
2561.00638,0.18674
2562.93485,0.18814
2564.86332,0.18988
2566.79179,0.18861
2568.72025,0.18581
2570.64872,0.18641
2572.57719,0.19028
2574.50566,0.19299
2576.43413,0.19264
2578.36260,0.19063
2580.29107,0.18867
2582.21953,0.18724
2584.14800,0.18659
2586.07647,0.18665
2588.00494,0.18693
2589.93341,0.18667
2591.86188,0.18528
2593.79035,0.18428
2595.71882,0.18639
2597.64728,0.19116
2599.57575,0.19476
2601.50422,0.19552
2603.43269,0.19477
2605.36116,0.19307
2607.28963,0.19277
2609.21810,0.19602
2611.14656,0.19726
2613.07503,0.19291
2615.00350,0.18764
2616.93197,0.18485
2618.86044,0.18567
2620.78891,0.18899
2622.71738,0.19069
2624.64585,0.18971
2626.57431,0.18788
2628.50278,0.18645
2630.43125,0.18664
2632.35972,0.18803
2634.28819,0.18891
2636.21666,0.18945
2638.14513,0.19007
2640.07359,0.19020
2642.00206,0.18982
2643.93053,0.18988
2645.85900,0.19087
2647.78747,0.19264
2649.71594,0.19459
2651.64441,0.19574
2653.57288,0.19697
2655.50134,0.19823
2657.42981,0.19749
2659.35828,0.19405
2661.28675,0.18819
2663.21522,0.18286
2665.14369,0.18331
2667.07216,0.18852
2669.00062,0.19102
2670.92909,0.18999
2672.85756,0.19039
2674.78603,0.19252
2676.71450,0.19473
2678.64297,0.19535
2680.57144,0.19323
2682.49990,0.19165
2684.42837,0.19224
2686.35684,0.19114
2688.28531,0.18832
2690.21378,0.18892
2692.14225,0.19286
2694.07072,0.19453
2695.99919,0.19301
2697.92765,0.19266
2699.85612,0.19414
2701.78459,0.19387
2703.71306,0.19178
2705.64153,0.19102
2707.57000,0.19095
2709.49847,0.18937
2711.42693,0.18882
2713.35540,0.19185
2715.28387,0.19429
2717.21234,0.19142
2719.14081,0.18892
2721.06928,0.19341
2722.99775,0.19972
2724.92622,0.20160
2726.85468,0.19889
2728.78315,0.19406
2730.71162,0.19247
2732.64009,0.19661
2734.56856,0.19922
2736.49703,0.19524
2738.42550,0.19105
2740.35396,0.19110
2742.28243,0.19504
2744.21090,0.20213
2746.13937,0.20729
2748.06784,0.20631
2749.99631,0.20183
2751.92478,0.19905
2753.85325,0.19957
2755.78171,0.20059
2757.71018,0.19970
2759.63865,0.19875
2761.56712,0.19961
2763.49559,0.19851
2765.42406,0.19356
2767.35253,0.19191
2769.28099,0.19748
2771.20946,0.20332
2773.13793,0.20441
2775.06640,0.20273
2776.99487,0.20108
2778.92334,0.20168
2780.85181,0.20305
2782.78028,0.20215
2784.70874,0.19985
2786.63721,0.19773
2788.56568,0.19804
2790.49415,0.20053
2792.42262,0.20049
2794.35109,0.19898
2796.27956,0.19928
2798.20802,0.19899
2800.13649,0.19768
2802.06496,0.19913
2803.99343,0.20302
2805.92190,0.20588
2807.85037,0.20696
2809.77884,0.20637
2811.70731,0.20489
2813.63577,0.20409
2815.56424,0.20410
2817.49271,0.20455
2819.42118,0.20524
2821.34965,0.20365
2823.27812,0.19959
2825.20659,0.19900
2827.13505,0.20319
2829.06352,0.20750
2830.99199,0.20831
2832.92046,0.20548
2834.84893,0.20270
2836.77740,0.20188
2838.70587,0.20286
2840.63433,0.20433
2842.56280,0.20437
2844.49127,0.20317
2846.41974,0.20251
2848.34821,0.20321
2850.27668,0.20291
2852.20515,0.20205
2854.13362,0.20249
2856.06208,0.20251
2857.99055,0.20317
2859.91902,0.20631
2861.84749,0.20826
2863.77596,0.20638
2865.70443,0.20658
2867.63290,0.21109
2869.56136,0.21313
2871.48983,0.21076
2873.41830,0.20629
2875.34677,0.20207
2877.27524,0.20016
2879.20371,0.19885
2881.13218,0.19680
2883.06065,0.19653
2884.98911,0.19975
2886.91758,0.20443
2888.84605,0.20733
2890.77452,0.20586
2892.70299,0.19796
2894.63146,0.18849
2896.55993,0.18745
2898.48839,0.19140
2900.41686,0.19259
2902.34533,0.19298
2904.27380,0.18836
2906.20227,0.18067
2908.13074,0.18299
2910.05921,0.19273
2911.98768,0.19872
2913.91614,0.19538
2915.84461,0.18566
2917.77308,0.18349
2919.70155,0.19117
2921.63002,0.19552
2923.55849,0.19017
2925.48696,0.17470
2927.41542,0.16087
2929.34389,0.16723
2931.27236,0.18769
2933.20083,0.19962
2935.12930,0.19183
2937.05777,0.17741
2938.98624,0.17817
2940.91471,0.19069
2942.84317,0.19775
2944.77164,0.19231
2946.70011,0.17952
2948.62858,0.17646
2950.55705,0.18587
2952.48552,0.19235
2954.41399,0.18889
2956.34245,0.17468
2958.27092,0.16623
2960.19939,0.18134
2962.12786,0.20135
2964.05633,0.20459
2965.98480,0.19367
2967.91327,0.18323
2969.84174,0.18691
2971.77020,0.19902
2973.69867,0.20774
2975.62714,0.20624
2977.55561,0.19366
2979.48408,0.18915
2981.41255,0.20069
2983.34102,0.20926
2985.26948,0.20426
2987.19795,0.19206
2989.12642,0.18881
2991.05489,0.19972
2992.98336,0.20947
2994.91183,0.20988
2996.84030,0.20512
2998.76877,0.20326
3000.69723,0.20779
3002.62570,0.20944
3004.55417,0.20354
3006.48264,0.19508
3008.41111,0.18696
3010.33958,0.17371
3012.26805,0.14471
3014.19651,0.10292
3016.12498,0.07314
3018.05345,0.08715
3019.98192,0.14092
3021.91039,0.18964
3023.83886,0.20950
3025.76733,0.20930
3027.69579,0.20277
3029.62426,0.20056
3031.55273,0.20357
3033.48120,0.20737
3035.40967,0.21020
3037.33814,0.21114
3039.26661,0.21200
3041.19508,0.21441
3043.12354,0.21508
3045.05201,0.20809
3046.98048,0.19509
3048.90895,0.19080
3050.83742,0.19583
3052.76589,0.19695
3054.69436,0.19197
3056.62282,0.18528
3058.55129,0.18987
3060.47976,0.20428
3062.40823,0.20770
3064.33670,0.19608
3066.26517,0.18265
3068.19364,0.18355
3070.12211,0.19599
3072.05057,0.20096
3073.97904,0.19025
3075.90751,0.17751
3077.83598,0.18293
3079.76445,0.19773
3081.69292,0.19783
3083.62139,0.17839
3085.54985,0.16092
3087.47832,0.16802
3089.40679,0.18752
3091.33526,0.19556
3093.26373,0.18752
3095.19220,0.17962
3097.12067,0.18701
3099.04914,0.19839
3100.97760,0.19765
3102.90607,0.18616
3104.83454,0.18286
3106.76301,0.19389
3108.69148,0.20044
3110.61995,0.19397
3112.54842,0.18459
3114.47688,0.18697
3116.40535,0.19970
3118.33382,0.20468
3120.26229,0.19716
3122.19076,0.19219
3124.11923,0.20014
3126.04770,0.20848
3127.97617,0.20448
3129.90463,0.19433
3131.83310,0.19176
3133.76157,0.20047
3135.69004,0.20687
3137.61851,0.20045
3139.54698,0.19143
3141.47545,0.19349
3143.40391,0.20274
3145.33238,0.20999
3147.26085,0.21207
3149.18932,0.21061
3151.11779,0.21023
3153.04626,0.20856
3154.97473,0.20146
3156.90320,0.19395
3158.83166,0.19486
3160.76013,0.20356
3162.68860,0.21080
3164.61707,0.21384
3166.54554,0.21685
3168.47401,0.21870
3170.40248,0.21398
3172.33094,0.20561
3174.25941,0.20208
3176.18788,0.20481
3178.11635,0.20857
3180.04482,0.20863
3181.97329,0.20637
3183.90176,0.20539
3185.83022,0.20450
3187.75869,0.20240
3189.68716,0.20176
3191.61563,0.20426
3193.54410,0.20745
3195.47257,0.20859
3197.40104,0.20873
3199.32951,0.20974
3201.25797,0.21327
3203.18644,0.21613
3205.11491,0.21402
3207.04338,0.21278
3208.97185,0.21312
3210.90032,0.20919
3212.82879,0.20504
3214.75725,0.20422
3216.68572,0.20481
3218.61419,0.20603
3220.54266,0.20758
3222.47113,0.20913
3224.39960,0.20927
3226.32807,0.20874
3228.25654,0.20753
3230.18500,0.20428
3232.11347,0.20547
3234.04194,0.21159
3235.97041,0.21258
3237.89888,0.20936
3239.82735,0.21059
3241.75582,0.21367
3243.68428,0.21043
3245.61275,0.20210
3247.54122,0.19558
3249.46969,0.19431
3251.39816,0.19606
3253.32663,0.19948
3255.25510,0.20427
3257.18357,0.20541
3259.11203,0.20145
3261.04050,0.19697
3262.96897,0.19685
3264.89744,0.20215
3266.82591,0.20861
3268.75438,0.21010
3270.68285,0.20584
3272.61131,0.20058
3274.53978,0.19783
3276.46825,0.19880
3278.39672,0.20155
3280.32519,0.20410
3282.25366,0.20430
3284.18213,0.20200
3286.11060,0.20233
3288.03906,0.20516
3289.96753,0.20424
3291.89600,0.19992
3293.82447,0.19996
3295.75294,0.20382
3297.68141,0.20590
3299.60988,0.20576
3301.53834,0.20297
3303.46681,0.19872
3305.39528,0.19694
3307.32375,0.19827
3309.25222,0.20075
3311.18069,0.20522
3313.10916,0.20935
3315.03763,0.20944
3316.96609,0.20885
3318.89456,0.20985
3320.82303,0.20815
3322.75150,0.20239
3324.67997,0.19885
3326.60844,0.19916
3328.53691,0.20169
3330.46537,0.20551
3332.39384,0.20629
3334.32231,0.20524
3336.25078,0.20644
3338.17925,0.20697
3340.10772,0.20409
3342.03619,0.20233
3343.96466,0.20341
3345.89312,0.20422
3347.82159,0.20510
3349.75006,0.20572
3351.67853,0.20531
3353.60700,0.20537
3355.53547,0.20241
3357.46394,0.19432
3359.39240,0.19103
3361.32087,0.19689
3363.24934,0.20346
3365.17781,0.20568
3367.10628,0.20646
3369.03475,0.20896
3370.96322,0.20923
3372.89168,0.20411
3374.82015,0.19969
3376.74862,0.20099
3378.67709,0.20389
3380.60556,0.20394
3382.53403,0.20244
3384.46250,0.20023
3386.39097,0.19904
3388.31943,0.20272
3390.24790,0.20922
3392.17637,0.21294
3394.10484,0.21390
3396.03331,0.21355
3397.96178,0.20993
3399.89025,0.20386
3401.81871,0.19907
3403.74718,0.19737
3405.67565,0.20000
3407.60412,0.20455
3409.53259,0.20369
3411.46106,0.19749
3413.38953,0.19352
3415.31800,0.19452
3417.24646,0.19841
3419.17493,0.20182
3421.10340,0.20192
3423.03187,0.20136
3424.96034,0.20247
3426.88881,0.20201
3428.81728,0.20072
3430.74574,0.20141
3432.67421,0.19832
3434.60268,0.18891
3436.53115,0.18519
3438.45962,0.19088
3440.38809,0.19464
3442.31656,0.19355
3444.24503,0.19293
3446.17349,0.19486
3448.10196,0.19617
3450.03043,0.19483
3451.95890,0.19412
3453.88737,0.19340
3455.81584,0.19010
3457.74431,0.18749
3459.67277,0.18858
3461.60124,0.18977
3463.52971,0.18858
3465.45818,0.18701
3467.38665,0.18718
3469.31512,0.18961
3471.24359,0.19198
3473.17206,0.19163
3475.10052,0.18846
3477.02899,0.18451
3478.95746,0.18081
3480.88593,0.17852
3482.81440,0.17828
3484.74287,0.17958
3486.67134,0.18259
3488.59980,0.18239
3490.52827,0.17721
3492.45674,0.17377
3494.38521,0.17251
3496.31368,0.17087
3498.24215,0.17085
3500.17062,0.17286
3502.09909,0.17801
3504.02755,0.18276
3505.95602,0.17845
3507.88449,0.16869
3509.81296,0.16283
3511.74143,0.16292
3513.66990,0.16343
3515.59837,0.16391
3517.52683,0.16857
3519.45530,0.17480
3521.38377,0.17896
3523.31224,0.18114
3525.24071,0.18073
3527.16918,0.17760
3529.09765,0.17417
3531.02611,0.17328
3532.95458,0.17398
3534.88305,0.17375
3536.81152,0.17225
3538.73999,0.16951
3540.66846,0.16598
3542.59693,0.16636
3544.52540,0.17024
3546.45386,0.16854
3548.38233,0.16467
3550.31080,0.16718
3552.23927,0.16926
3554.16774,0.16400
3556.09621,0.15755
3558.02468,0.15579
3559.95314,0.15725
3561.88161,0.15887
3563.81008,0.16317
3565.73855,0.17113
3567.66702,0.17219
3569.59549,0.16496
3571.52396,0.16054
3573.45243,0.16037
3575.38089,0.16074
3577.30936,0.15873
3579.23783,0.15631
3581.16630,0.15553
3583.09477,0.15598
3585.02324,0.16025
3586.95171,0.16750
3588.88017,0.16475
3590.80864,0.15481
3592.73711,0.15181
3594.66558,0.15508
3596.59405,0.15596
3598.52252,0.15581
3600.45099,0.15465
3602.37946,0.14799
3604.30792,0.14256
3606.23639,0.14440
3608.16486,0.14699
3610.09333,0.14543
3612.02180,0.14782
3613.95027,0.15355
3615.87874,0.15580
3617.80720,0.15625
3619.73567,0.15351
3621.66414,0.14806
3623.59261,0.14574
3625.52108,0.14586
3627.44955,0.14702
3629.37802,0.14475
3631.30649,0.13791
3633.23495,0.13328
3635.16342,0.12971
3637.09189,0.12819
3639.02036,0.13079
3640.94883,0.13259
3642.87730,0.13086
3644.80577,0.13382
3646.73423,0.14917
3648.66270,0.16646
3650.59117,0.15838
3652.51964,0.14250
3654.44811,0.13728
3656.37658,0.13784
3658.30505,0.13566
3660.23352,0.13292
3662.16198,0.13200
3664.09045,0.13150
3666.01892,0.13286
3667.94739,0.13884
3669.87586,0.14678
3671.80433,0.14612
3673.73280,0.14562
3675.66126,0.15375
3677.58973,0.15315
3679.51820,0.14394
3681.44667,0.13714
3683.37514,0.13398
3685.30361,0.13363
3687.23208,0.13692
3689.16055,0.14462
3691.08901,0.14204
3693.01748,0.12858
3694.94595,0.12245
3696.87442,0.12412
3698.80289,0.12567
3700.73136,0.12418
3702.65983,0.11907
3704.58829,0.11650
3706.51676,0.12238
3708.44523,0.13281
3710.37370,0.14062
3712.30217,0.14048
3714.23064,0.13272
3716.15911,0.12639
3718.08757,0.12603
3720.01604,0.12877
3721.94451,0.12960
3723.87298,0.12664
3725.80145,0.12283
3727.72992,0.12369
3729.65839,0.12882
3731.58686,0.13371
3733.51532,0.13682
3735.44379,0.13653
3737.37226,0.13271
3739.30073,0.13064
3741.22920,0.13205
3743.15767,0.13941
3745.08614,0.14853
3747.01460,0.15019
3748.94307,0.14952
3750.87154,0.14287
3752.80001,0.13264
3754.72848,0.12910
3756.65695,0.13099
3758.58542,0.13578
3760.51389,0.13667
3762.44235,0.13208
3764.37082,0.12679
3766.29929,0.12386
3768.22776,0.12505
3770.15623,0.12542
3772.08470,0.12109
3774.01317,0.12026
3775.94163,0.12587
3777.87010,0.13074
3779.79857,0.12913
3781.72704,0.12610
3783.65551,0.12392
3785.58398,0.11882
3787.51245,0.11516
3789.44092,0.11588
3791.36938,0.11771
3793.29785,0.12125
3795.22632,0.12542
3797.15479,0.12308
3799.08326,0.11702
3801.01173,0.11919
3802.94020,0.12483
3804.86866,0.12606
3806.79713,0.12845
3808.72560,0.12605
3810.65407,0.11805
3812.58254,0.11414
3814.51101,0.11787
3816.43948,0.12097
3818.36795,0.11810
3820.29641,0.12102
3822.22488,0.12926
3824.15335,0.13005
3826.08182,0.12658
3828.01029,0.12418
3829.93876,0.12385
3831.86723,0.12642
3833.79569,0.12977
3835.72416,0.12858
3837.65263,0.12967
3839.58110,0.13496
3841.50957,0.12986
3843.43804,0.11963
3845.36651,0.11656
3847.29498,0.11933
3849.22344,0.12200
3851.15191,0.12245
3853.08038,0.11947
3855.00885,0.12006
3856.93732,0.12493
3858.86579,0.12746
3860.79426,0.12842
3862.72272,0.12956
3864.65119,0.12728
3866.57966,0.12126
3868.50813,0.11905
3870.43660,0.12109
3872.36507,0.11916
3874.29354,0.11460
3876.22200,0.11482
3878.15047,0.12178
3880.07894,0.13048
3882.00741,0.12806
3883.93588,0.11937
3885.86435,0.11935
3887.79282,0.12356
3889.72129,0.12550
3891.64975,0.12880
3893.57822,0.13036
3895.50669,0.12904
3897.43516,0.12779
3899.36363,0.12482
3901.29210,0.12249
3903.22057,0.12514
3905.14903,0.12314
3907.07750,0.11595
3909.00597,0.11263
3910.93444,0.11306
3912.86291,0.11497
3914.79138,0.11764
3916.71985,0.11852
3918.64832,0.11714
3920.57678,0.11830
3922.50525,0.11815
3924.43372,0.11062
3926.36219,0.10559
3928.29066,0.10845
3930.21913,0.11142
3932.14760,0.11136
3934.07606,0.11084
3936.00453,0.11192
3937.93300,0.11338
3939.86147,0.11467
3941.78994,0.11765
3943.71841,0.11926
3945.64688,0.11684
3947.57535,0.11477
3949.50381,0.11662
3951.43228,0.11964
3953.36075,0.11653
3955.28922,0.10876
3957.21769,0.10660
3959.14616,0.11126
3961.07463,0.11310
3963.00309,0.11065
3964.93156,0.11068
3966.86003,0.10892
3968.78850,0.10340
3970.71697,0.10364
3972.64544,0.10953
3974.57391,0.11300
3976.50238,0.11170
3978.43084,0.10847
3980.35931,0.10440
3982.28778,0.10007
3984.21625,0.09860
3986.14472,0.09986
3988.07319,0.10152
3990.00166,0.10368
3991.93012,0.10503
3993.85859,0.10333
3995.78706,0.10162
3997.71553,0.10125
3999.64400,0.10054
4001.57247,0.10318
4003.50094,0.11065
4005.42941,0.11498
4007.35787,0.10902
4009.28634,0.09710
4011.21481,0.09019
4013.14328,0.09309
4015.07175,0.10000
4017.00022,0.10326
4018.92869,0.10375
4020.85715,0.10569
4022.78562,0.10588
4024.71409,0.10159
4026.64256,0.09893
4028.57103,0.10063
4030.49950,0.10211
4032.42797,0.10026
4034.35644,0.09627
4036.28490,0.09411
4038.21337,0.09549
4040.14184,0.09907
4042.07031,0.10166
4043.99878,0.10058
4045.92725,0.09716
4047.85572,0.09355
4049.78418,0.09278
4051.71265,0.09849
4053.64112,0.10471
4055.56959,0.10238
4057.49806,0.09552
4059.42653,0.09291
4061.35500,0.09380
4063.28346,0.09286
4065.21193,0.08942
4067.14040,0.08657
4069.06887,0.08677
4070.99734,0.09009
4072.92581,0.09567
4074.85428,0.09943
4076.78275,0.09709
4078.71121,0.09327
4080.63968,0.09335
4082.56815,0.09306
4084.49662,0.08942
4086.42509,0.08905
4088.35356,0.09422
4090.28203,0.09765
4092.21049,0.09607
4094.13896,0.09141
4096.06743,0.08753
4097.99590,0.08647
4099.92437,0.08453
4101.85284,0.08431
4103.78131,0.08947
4105.70978,0.09124
4107.63824,0.08844
4109.56671,0.08852
4111.49518,0.08894
4113.42365,0.08796
4115.35212,0.08816
4117.28059,0.08606
4119.20906,0.08093
4121.13752,0.08058
4123.06599,0.08364
4124.99446,0.08079
4126.92293,0.07684
4128.85140,0.08042
4130.77987,0.08373
4132.70834,0.08055
4134.63681,0.07931
4136.56527,0.08273
4138.49374,0.08452
4140.42221,0.08106
4142.35068,0.07689
4144.27915,0.07931
4146.20762,0.08471
4148.13609,0.08740
4150.06455,0.08707
4151.99302,0.08421
4153.92149,0.08311
4155.84996,0.08545
4157.77843,0.08631
4159.70690,0.08564
4161.63537,0.08838
4163.56384,0.09170
4165.49230,0.09054
4167.42077,0.08729
4169.34924,0.08494
4171.27771,0.08344
4173.20618,0.08401
4175.13465,0.08532
4177.06312,0.08287
4178.99158,0.07934
4180.92005,0.07901
4182.84852,0.07736
4184.77699,0.07217
4186.70546,0.07158
4188.63393,0.07771
4190.56240,0.07883
4192.49087,0.07380
4194.41933,0.07170
4196.34780,0.06881
4198.27627,0.06576
4200.20474,0.06731
4202.13321,0.06533
4204.06168,0.06400
4205.99015,0.07129
4207.91861,0.07731
4209.84708,0.07650
4211.77555,0.07300
4213.70402,0.07037
4215.63249,0.06991
4217.56096,0.07230
4219.48943,0.07681
4221.41789,0.07892
4223.34636,0.07869
4225.27483,0.08259
4227.20330,0.08827
4229.13177,0.08464
4231.06024,0.07205
4232.98871,0.06332
4234.91718,0.06513
4236.84564,0.07122
4238.77411,0.07422
4240.70258,0.07392
4242.63105,0.07368
4244.55952,0.07504
4246.48799,0.07238
4248.41646,0.06354
4250.34492,0.05746
4252.27339,0.06071
4254.20186,0.07104
4256.13033,0.07973
4258.05880,0.07871
4259.98727,0.07136
4261.91574,0.06719
4263.84421,0.06359
4265.77267,0.05639
4267.70114,0.05364
4269.62961,0.05919
4271.55808,0.06470
4273.48655,0.06072
4275.41502,0.05048
4277.34349,0.04432
4279.27195,0.04512
4281.20042,0.05081
4283.12889,0.05769
4285.05736,0.06238
4286.98583,0.06416
4288.91430,0.06166
4290.84277,0.05384
4292.77124,0.04707
4294.69970,0.04698
4296.62817,0.05006
4298.55664,0.05502
4300.48511,0.06175
4302.41358,0.06501
4304.34205,0.06131
4306.27052,0.05434
4308.19898,0.05339
4310.12745,0.05886
4312.05592,0.05862
4313.98439,0.05265
4315.91286,0.05145
4317.84133,0.05293
4319.76980,0.05337
4321.69827,0.05615
4323.62673,0.05924
4325.55520,0.05922
4327.48367,0.05628
4329.41214,0.05235
4331.34061,0.04972
4333.26908,0.04675
4335.19755,0.04604
4337.12601,0.04979
4339.05448,0.04926
4340.98295,0.04691
4342.91142,0.05273
4344.83989,0.06099
4346.76836,0.06374
4348.69683,0.06213
4350.62530,0.06065
4352.55376,0.06019
4354.48223,0.05786
4356.41070,0.05503
4358.33917,0.05311
4360.26764,0.05112
4362.19611,0.04878
4364.12458,0.04454
4366.05304,0.04071
4367.98151,0.04149
4369.90998,0.04509
4371.83845,0.04540
4373.76692,0.04019
4375.69539,0.03497
4377.62386,0.03516
4379.55232,0.03931
4381.48079,0.04025
4383.40926,0.03559
4385.33773,0.03266
4387.26620,0.03392
4389.19467,0.03273
4391.12314,0.02754
4393.05161,0.02681
4394.98007,0.03025
4396.90854,0.02873
4398.83701,0.02682
4400.76548,0.03058
4402.69395,0.03370
4404.62242,0.03032
4406.55089,0.02324
4408.47935,0.02390
4410.40782,0.03249
4412.33629,0.03315
4414.26476,0.02756
4416.19323,0.02733
4418.12170,0.02536
4420.05017,0.01813
4421.97864,0.01653
4423.90710,0.02098
4425.83557,0.02824
4427.76404,0.03917
4429.69251,0.04423
4431.62098,0.03783
4433.54945,0.03075
4435.47792,0.03250
4437.40638,0.03585
4439.33485,0.02978
4441.26332,0.02267
4443.19179,0.02561
4445.12026,0.03002
4447.04873,0.02761
4448.97720,0.02560
4450.90567,0.02892
4452.83413,0.03388
4454.76260,0.03608
4456.69107,0.03557
4458.61954,0.03470
4460.54801,0.02961
4462.47648,0.02372
4464.40495,0.02683
4466.33341,0.03364
4468.26188,0.03482
4470.19035,0.02952
4472.11882,0.02313
4474.04729,0.02103
4475.97576,0.02229
4477.90423,0.02572
4479.83270,0.03027
4481.76116,0.03001
4483.68963,0.02423
4485.61810,0.01808
4487.54657,0.01548
4489.47504,0.01959
4491.40351,0.02628
4493.33198,0.02739
4495.26044,0.02497
4497.18891,0.02467
4499.11738,0.02270
4501.04585,0.01967
4502.97432,0.02237
4504.90279,0.02499
4506.83126,0.02107
4508.75973,0.01723
4510.68819,0.02103
4512.61666,0.02515
4514.54513,0.01872
4516.47360,0.00760
4518.40207,0.00599
4520.33054,0.01688
4522.25901,0.02572
4524.18747,0.02651
4526.11594,0.02915
4528.04441,0.03380
4529.97288,0.03066
4531.90135,0.01931
4533.82982,0.00915
4535.75829,0.00072
4537.68676,-0.00398
4539.61522,0.00452
4541.54369,0.01554
4543.47216,0.01244
4545.40063,0.00445
4547.32910,0.00488
4549.25757,0.00931
4551.18604,0.01361
4553.11450,0.01902
4555.04297,0.02289
4556.97144,0.02334
4558.89991,0.02134
4560.82838,0.01540
4562.75685,0.00966
4564.68532,0.01522
4566.61378,0.02413
4568.54225,0.02063
4570.47072,0.01274
4572.39919,0.01068
4574.32766,0.01031
4576.25613,0.01030
4578.18460,0.01216
4580.11307,0.01427
4582.04153,0.01478
4583.97000,0.01521
4585.89847,0.01805
4587.82694,0.01814
4589.75541,0.01391
4591.68388,0.00899
4593.61235,0.00248
4595.54081,-0.00002
4597.46928,0.00325
4599.39775,0.00617
4601.32622,0.01096
4603.25469,0.01631
4605.18316,0.01742
4607.11163,0.01531
4609.04010,0.00793
4610.96856,-0.00177
4612.89703,-0.00193
4614.82550,0.00925
4616.75397,0.01717
4618.68244,0.01154
4620.61091,0.00325
4622.53938,0.00420
4624.46784,0.00900
4626.39631,0.00916
4628.32478,0.00543
4630.25325,0.00214
4632.18172,0.00244
4634.11019,0.00605
4636.03866,0.01265
4637.96713,0.02130
4639.89559,0.02262
4641.82406,0.01299
4643.75253,0.00233
4645.68100,-0.00363
4647.60947,-0.00538
4649.53794,-0.00111
4651.46641,0.00697
4653.39487,0.01423
4655.32334,0.01651
4657.25181,0.00510
4659.18028,-0.00809
4661.10875,-0.00021
4663.03722,0.01666
4664.96569,0.01952
4666.89416,0.01041
4668.82262,0.00011
4670.75109,-0.00521
4672.67956,-0.00447
4674.60803,-0.00196
4676.53650,-0.00252
4678.46497,-0.00305
4680.39344,0.00133
4682.32190,0.00619
4684.25037,0.00582
4686.17884,0.00385
4688.10731,0.00270
4690.03578,0.00100
4691.96425,0.00269
4693.89272,0.00689
4695.82119,0.00693
4697.74965,0.00693
4699.67812,0.00651
4701.60659,0.00412
4703.53506,0.01033
4705.46353,0.02103
4707.39200,0.02244
4709.32047,0.01390
4711.24893,-0.00245
4713.17740,-0.01198
4715.10587,-0.00054
4717.03434,0.01168
4718.96281,0.00967
4720.89128,0.00350
4722.81975,-0.00117
4724.74821,-0.00088
4726.67668,0.00679
4728.60515,0.01874
4730.53362,0.02291
4732.46209,0.01506
4734.39056,0.01042
4736.31903,0.01151
4738.24750,0.00942
4740.17596,0.01060
4742.10443,0.01543
4744.03290,0.01416
4745.96137,0.00834
4747.88984,-0.00136
4749.81831,-0.01637
4751.74678,-0.02769
4753.67524,-0.02628
4755.60371,-0.01583
4757.53218,-0.00523
4759.46065,0.00527
4761.38912,0.01405
4763.31759,0.01476
4765.24606,0.00768
4767.17453,0.00597
4769.10299,0.00808
4771.03146,0.00362
4772.95993,-0.00285
4774.88840,-0.00784
4776.81687,-0.00904
4778.74534,-0.00822
4780.67381,-0.00398
4782.60227,0.00685
4784.53074,0.00631
4786.45921,-0.00503
4788.38768,-0.00927
4790.31615,-0.01030
4792.24462,-0.01307
4794.17309,-0.00970
4796.10156,-0.00446
4798.03002,0.00324
4799.95849,0.01638
4801.88696,0.02335
4803.81543,0.01773
4805.74390,0.00928
4807.67237,0.01149
4809.60084,0.01612
4811.52930,0.00970
4813.45777,0.00190
4815.38624,-0.00079
4817.31471,-0.00035
4819.24318,0.00129
4821.17165,-0.00070
4823.10012,-0.00262
4825.02859,0.00026
4826.95705,0.00409
4828.88552,0.00162
4830.81399,-0.00695
4832.74246,-0.00930
4834.67093,0.00249
4836.59940,0.01690
4838.52787,0.02099
4840.45633,0.01876
4842.38480,0.01695
4844.31327,0.01767
4846.24174,0.01544
4848.17021,0.00611
4850.09868,0.00215
4852.02715,0.00300
4853.95562,0.00277
4855.88408,0.00731
4857.81255,0.01315
4859.74102,0.01787
4861.66949,0.02363
4863.59796,0.02265
4865.52643,0.01519
4867.45490,0.01414
4869.38336,0.01289
4871.31183,0.00359
4873.24030,0.00304
4875.16877,0.01164
4877.09724,0.01076
4879.02571,0.00283
4880.95418,0.00088
4882.88265,0.00983
4884.81111,0.01802
4886.73958,0.00854
4888.66805,-0.00684
4890.59652,-0.00646
4892.52499,0.00260
4894.45346,0.00751
4896.38193,0.00728
4898.31039,0.00383
4900.23886,0.00468
4902.16733,0.01292
4904.09580,0.01969
4906.02427,0.01749
4907.95274,0.01362
4909.88121,0.01660
4911.80967,0.01851
4913.73814,0.01051
4915.66661,-0.00221
4917.59508,-0.01117
4919.52355,-0.01610
4921.45202,-0.01543
4923.38049,-0.00210
4925.30896,0.01676
4927.23742,0.02862
4929.16589,0.03374
4931.09436,0.03209
4933.02283,0.02197
4934.95130,0.00854
4936.87977,0.00101
4938.80824,0.00296
4940.73670,0.00833
4942.66517,0.00933
4944.59364,0.00800
4946.52211,0.01708
4948.45058,0.02955
4950.37905,0.02887
4952.30752,0.02527
4954.23599,0.01968
4956.16445,0.00113
4958.09292,-0.01079
4960.02139,-0.00280
4961.94986,0.00206
4963.87833,-0.00634
4965.80680,-0.00664
4967.73527,0.00003
4969.66373,-0.00860
4971.59220,-0.02452
4973.52067,-0.02343
4975.44914,-0.00411
4977.37761,0.01716
4979.30608,0.03180
4981.23455,0.03788
4983.16302,0.03351
4985.09148,0.02218
4987.01995,0.01228
4988.94842,0.01196
4990.87689,0.01925
4992.80536,0.02592
4994.73383,0.01969
4996.66230,0.00110
4998.59076,-0.00081
5000.51923,0.01999
5002.44770,0.03371
5004.37617,0.02387
5006.30464,0.00995
5008.23311,0.00613
5010.16158,0.00045
5012.09005,-0.00245
5014.01851,0.00936
5015.94698,0.02005
5017.87545,0.01093
5019.80392,-0.00198
5021.73239,0.00627
5023.66086,0.02214
5025.58933,0.02841
5027.51779,0.03143
5029.44626,0.02969
5031.37473,0.02003
5033.30320,0.01518
5035.23167,0.01820
5037.16014,0.02229
5039.08861,0.02948
5041.01708,0.02970
5042.94554,0.01883
5044.87401,0.01639
5046.80248,0.02511
5048.73095,0.03017
5050.65942,0.03082
5052.58789,0.03074
5054.51636,0.02467
5056.44482,0.01959
5058.37329,0.02252
5060.30176,0.02091
5062.23023,0.01082
5064.15870,0.00300
5066.08717,0.00560
5068.01564,0.01473
5069.94410,0.01936
5071.87257,0.02208
5073.80104,0.02693
5075.72951,0.02456
5077.65798,0.01785
5079.58645,0.02312
5081.51492,0.04053
5083.44339,0.05204
5085.37185,0.04911
5087.30032,0.04146
5089.22879,0.03197
5091.15726,0.01967
5093.08573,0.01411
5095.01420,0.01727
5096.94267,0.02299
5098.87113,0.02654
5100.79960,0.02795
5102.72807,0.03129
5104.65654,0.03479
5106.58501,0.03529
5108.51348,0.03607
5110.44195,0.03284
5112.37042,0.03091
5114.29888,0.05230
5116.22735,0.07351
5118.15582,0.06184
5120.08429,0.03929
5122.01276,0.02164
5123.94123,0.00828
5125.86970,0.01032
5127.79816,0.02150
5129.72663,0.02414
5131.65510,0.01476
5133.58357,0.00977
5135.51204,0.02449
5137.44051,0.03617
5139.36898,0.02288
5141.29745,0.00483
5143.22591,-0.00055
5145.15438,-0.00252
5147.08285,-0.00117
5149.01132,0.01423
5150.93979,0.03523
5152.86826,0.04925
5154.79673,0.05338
5156.72519,0.04744
5158.65366,0.04334
5160.58213,0.05235
5162.51060,0.06292
5164.43907,0.05360
5166.36754,0.02746
5168.29601,0.00418
5170.22448,-0.00676
5172.15294,0.00226
5174.08141,0.02707
5176.00988,0.04134
5177.93835,0.03686
5179.86682,0.03474
5181.79529,0.03451
5183.72376,0.02646
5185.65222,0.02721
5187.58069,0.04001
5189.50916,0.04838
5191.43763,0.04805
5193.36610,0.04292
5195.29457,0.04092
5197.22304,0.05314
5199.15151,0.06609
5201.07997,0.04848
5203.00844,0.02261
5204.93691,0.03416
5206.86538,0.06612
5208.79385,0.06218
5210.72232,0.02784
5212.65079,0.00879
5214.57925,0.02071
5216.50772,0.04428
5218.43619,0.05203
5220.36466,0.03702
5222.29313,0.02559
5224.22160,0.02876
5226.15007,0.03277
5228.07854,0.03432
5230.00700,0.03110
5231.93547,0.02052
5233.86394,0.02453
5235.79241,0.04712
5237.72088,0.05365
5239.64935,0.03680
5241.57782,0.02587
5243.50628,0.04161
5245.43475,0.07544
5247.36322,0.09176
5249.29169,0.07432
5251.22016,0.04940
5253.14863,0.03576
5255.07710,0.03637
5257.00556,0.05240
5258.93403,0.06210
5260.86250,0.04784
5262.79097,0.01807
5264.71944,-0.00055
5266.64791,0.00510
5268.57638,0.01565
5270.50485,0.02551
5272.43331,0.03431
5274.36178,0.03177
5276.29025,0.02307
5278.21872,0.02224
5280.14719,0.03555
5282.07566,0.04990
5284.00413,0.04758
5285.93259,0.03936
5287.86106,0.04627
5289.78953,0.05839
5291.71800,0.05962
5293.64647,0.05415
5295.57494,0.04869
5297.50341,0.05043
5299.43188,0.05525
5301.36034,0.05706
5303.28881,0.05624
5305.21728,0.04489
5307.14575,0.03262
5309.07422,0.03882
5311.00269,0.05644
5312.93116,0.07063
5314.85962,0.07757
5316.78809,0.07167
5318.71656,0.05376
5320.64503,0.04487
5322.57350,0.04950
5324.50197,0.05239
5326.43044,0.05191
5328.35891,0.04832
5330.28737,0.04459
5332.21584,0.05140
5334.14431,0.05745
5336.07278,0.05379
5338.00125,0.05263
5339.92972,0.05245
5341.85819,0.04822
5343.78665,0.04804
5345.71512,0.05453
5347.64359,0.05689
5349.57206,0.05244
5351.50053,0.05116
5353.42900,0.06013
5355.35747,0.06852
5357.28594,0.06731
5359.21440,0.05850
5361.14287,0.04211
5363.07134,0.03656
5364.99981,0.05023
5366.92828,0.05756
5368.85675,0.05263
5370.78522,0.05102
5372.71368,0.05841
5374.64215,0.06112
5376.57062,0.05202
5378.49909,0.06190
5380.42756,0.09105
5382.35603,0.09717
5384.28450,0.07050
5386.21297,0.04350
5388.14143,0.03469
5390.06990,0.04362
5391.99837,0.06770
5393.92684,0.08211
5395.85531,0.06041
5397.78378,0.03710
5399.71225,0.03677
5401.64071,0.03115
5403.56918,0.01636
5405.49765,0.01026
5407.42612,0.01813
5409.35459,0.03966
5411.28306,0.06366
5413.21153,0.07603
5415.13999,0.06884
5417.06846,0.05076
5418.99693,0.04342
5420.92540,0.05307
5422.85387,0.06578
5424.78234,0.08058
5426.71081,0.08722
5428.63928,0.06026
5430.56774,0.03212
5432.49621,0.03805
5434.42468,0.05866
5436.35315,0.07797
5438.28162,0.08332
5440.21009,0.07292
5442.13856,0.07219
5444.06702,0.07845
5445.99549,0.07477
5447.92396,0.07437
5449.85243,0.07603
5451.78090,0.07160
5453.70937,0.07196
5455.63784,0.07381
5457.56631,0.05800
5459.49477,0.03366
5461.42324,0.03289
5463.35171,0.05795
5465.28018,0.07842
5467.20865,0.07493
5469.13712,0.05826
5471.06559,0.04617
5472.99405,0.03377
5474.92252,0.02826
5476.85099,0.05164
5478.77946,0.07696
5480.70793,0.07117
5482.63640,0.04828
5484.56487,0.04275
5486.49334,0.03949
5488.42180,0.00940
5490.35027,-0.01363
5492.27874,-0.00009
5494.20721,0.02516
5496.13568,0.03647
5498.06415,0.04591
5499.99262,0.06706
5501.92108,0.08043
5503.84955,0.08273
5505.77802,0.09170
5507.70649,0.09264
5509.63496,0.07274
5511.56343,0.05807
5513.49190,0.05769
5515.42037,0.06016
5517.34883,0.06806
5519.27730,0.07424
5521.20577,0.07399
5523.13424,0.08769
5525.06271,0.11336
5526.99118,0.11350
5528.91965,0.08586
5530.84811,0.07867
5532.77658,0.08971
5534.70505,0.07465
5536.63352,0.05870
5538.56199,0.07486
5540.49046,0.08920
5542.41893,0.07455
5544.34740,0.05189
5546.27586,0.05095
5548.20433,0.05840
5550.13280,0.04730
5552.06127,0.03296
5553.98974,0.03722
5555.91821,0.05820
5557.84668,0.08213
5559.77514,0.08410
5561.70361,0.06341
5563.63208,0.05770
5565.56055,0.07556
5567.48902,0.09713
5569.41749,0.11047
5571.34596,0.09870
5573.27443,0.07023
5575.20289,0.04793
5577.13136,0.02977
5579.05983,0.02155
5580.98830,0.03615
5582.91677,0.06305
5584.84524,0.06797
5586.77371,0.04072
5588.70217,0.02353
5590.63064,0.04298
5592.55911,0.06727
5594.48758,0.06441
5596.41605,0.04221
5598.34452,0.03182
5600.27299,0.05187
5602.20145,0.07720
5604.12992,0.07536
5606.05839,0.07871
5607.98686,0.10279
5609.91533,0.09764
5611.84380,0.06961
5613.77227,0.05788
5615.70074,0.05320
5617.62920,0.06534
5619.55767,0.08688
5621.48614,0.07791
5623.41461,0.06910
5625.34308,0.08594
5627.27155,0.08618
5629.20002,0.06291
5631.12848,0.04929
5633.05695,0.04901
5634.98542,0.04469
5636.91389,0.03404
5638.84236,0.03571
5640.77083,0.05447
5642.69930,0.07213
5644.62777,0.08118
5646.55623,0.08203
5648.48470,0.08222
5650.41317,0.09234
5652.34164,0.08848
5654.27011,0.05864
5656.19858,0.03144
5658.12705,0.01912
5660.05551,0.01535
5661.98398,0.01815
5663.91245,0.02482
5665.84092,0.03565
5667.76939,0.04693
5669.69786,0.06160
5671.62633,0.08559
5673.55480,0.10560
5675.48326,0.12210
5677.41173,0.12196
5679.34020,0.09039
5681.26867,0.06272
5683.19714,0.04608
5685.12561,0.03629
5687.05408,0.04715
5688.98254,0.04689
5690.91101,0.02331
5692.83948,0.01676
5694.76795,0.03280
5696.69642,0.07254
5698.62489,0.12298
5700.55336,0.13695
5702.48183,0.12405
5704.41029,0.10416
5706.33876,0.07664
5708.26723,0.06289
5710.19570,0.06139
5712.12417,0.04997
5714.05264,0.04708
5715.98111,0.06911
5717.90957,0.07768
5719.83804,0.06394
5721.76651,0.06324
5723.69498,0.07074
5725.62345,0.06647
5727.55192,0.05838
5729.48039,0.05239
5731.40886,0.05125
5733.33732,0.07261
5735.26579,0.10250
5737.19426,0.08753
5739.12273,0.04511
5741.05120,0.04068
5742.97967,0.06129
5744.90814,0.07451
5746.83660,0.09469
5748.76507,0.11727
5750.69354,0.11331
5752.62201,0.09935
5754.55048,0.09961
5756.47895,0.09206
5758.40742,0.07809
5760.33588,0.08375
5762.26435,0.10899
5764.19282,0.13298
5766.12129,0.13329
5768.04976,0.11340
5769.97823,0.09917
5771.90670,0.08401
5773.83517,0.05475
5775.76363,0.04030
5777.69210,0.03697
5779.62057,0.02857
5781.54904,0.04603
5783.47751,0.07568
5785.40598,0.06334
5787.33445,0.03359
5789.26291,0.03979
5791.19138,0.04911
5793.11985,0.04181
5795.04832,0.05158
5796.97679,0.07934
5798.90526,0.09966
5800.83373,0.09764
5802.76220,0.09502
5804.69066,0.10579
5806.61913,0.09277
5808.54760,0.05990
5810.47607,0.05885
5812.40454,0.08056
5814.33301,0.07667
5816.26148,0.06555
5818.18994,0.08590
5820.11841,0.09245
5822.04688,0.04701
5823.97535,0.03489
5825.90382,0.08252
5827.83229,0.10991
5829.76076,0.10404
5831.68923,0.10021
5833.61769,0.09546
5835.54616,0.08471
5837.47463,0.07557
5839.40310,0.05706
5841.33157,0.04319
5843.26004,0.06513
5845.18851,0.07748
5847.11697,0.04421
5849.04544,0.01974
5850.97391,0.05184
5852.90238,0.10018
5854.83085,0.10167
5856.75932,0.06244
5858.68779,0.04286
5860.61626,0.05964
5862.54472,0.08792
5864.47319,0.09873
5866.40166,0.08054
5868.33013,0.06984
5870.25860,0.07454
5872.18707,0.06943
5874.11554,0.07639
5876.04400,0.10532
5877.97247,0.11830
5879.90094,0.09162
5881.82941,0.05541
5883.75788,0.05569
5885.68635,0.08341
5887.61482,0.10672
5889.54329,0.10562
5891.47175,0.08166
5893.40022,0.06312
5895.32869,0.05781
5897.25716,0.05543
5899.18563,0.06742
5901.11410,0.10203
5903.04257,0.11821
5904.97103,0.08811
5906.89950,0.05366
5908.82797,0.05541
5910.75644,0.08938
5912.68491,0.11594
5914.61338,0.10590
5916.54185,0.09068
5918.47032,0.11246
5920.39878,0.12972
5922.32725,0.10880
5924.25572,0.11442
5926.18419,0.12880
5928.11266,0.08491
5930.04113,0.05084
5931.96960,0.08630
5933.89806,0.13999
5935.82653,0.14432
5937.75500,0.11163
5939.68347,0.09497
5941.61194,0.11257
5943.54041,0.15079
5945.46888,0.16170
5947.39734,0.10332
5949.32581,0.03446
5951.25428,0.04598
5953.18275,0.09370
5955.11122,0.12447
5957.03969,0.15343
5958.96816,0.16243
5960.89663,0.11392
5962.82509,0.05134
5964.75356,0.05646
5966.68203,0.08396
5968.61050,0.06028
5970.53897,0.04833
5972.46744,0.09502
5974.39591,0.13057
5976.32437,0.11156
5978.25284,0.08755
5980.18131,0.07088
5982.10978,0.04325
5984.03825,0.02972
5985.96672,0.04245
5987.89519,0.05467
5989.82366,0.05924
5991.75212,0.08456
5993.68059,0.11816
5995.60906,0.11926
5997.53753,0.08326
5999.46600,0.03498
6001.39447,0.01484
6003.32294,0.02470
6005.25140,0.02351
6007.17987,0.00886
6009.10834,0.01490
6011.03681,0.05907
6012.96528,0.10582
6014.89375,0.10495
6016.82222,0.05842
6018.75069,0.01513
6020.67915,0.02606
6022.60762,0.06638
6024.53609,0.08758
6026.46456,0.10791
6028.39303,0.13466
6030.32150,0.13982
6032.24997,0.12647
6034.17843,0.10475
6036.10690,0.09064
6038.03537,0.11338
6039.96384,0.14551
6041.89231,0.14644
6043.82078,0.12852
6045.74925,0.11191
6047.67772,0.10783
6049.60618,0.11657
6051.53465,0.13439
6053.46312,0.17036
6055.39159,0.18096
6057.32006,0.11666
6059.24853,0.04423
6061.17700,0.02490
6063.10546,0.03793
6065.03393,0.06835
6066.96240,0.09714
6068.89087,0.11429
6070.81934,0.12336
6072.74781,0.11904
6074.67628,0.12032
6076.60475,0.14310
6078.53321,0.18588
6080.46168,0.21438
6082.39015,0.19777
6084.31862,0.17400
6086.24709,0.15236
6088.17556,0.09895
6090.10403,0.05508
6092.03249,0.08482
6093.96096,0.15351
6095.88943,0.19431
6097.81790,0.20716
6099.74637,0.18638
6101.67484,0.11922
6103.60331,0.06736
6105.53177,0.07016
6107.46024,0.07589
6109.38871,0.05304
6111.31718,0.03498
6113.24565,0.02503
6115.17412,0.00943
6117.10259,0.03489
6119.03106,0.10408
6120.95952,0.12372
6122.88799,0.10433
6124.81646,0.11506
6126.74493,0.12859
6128.67340,0.10030
6130.60187,0.09757
6132.53034,0.14687
6134.45880,0.14569
6136.38727,0.06469
6138.31574,-0.00972
6140.24421,-0.01844
6142.17268,0.02757
6144.10115,0.08436
6146.02962,0.10100
6147.95809,0.07419
6149.88655,0.03729
6151.81502,0.03283
6153.74349,0.05305
6155.67196,0.03550
6157.60043,0.00453
6159.52890,0.00101
6161.45737,0.01805
6163.38583,0.05907
6165.31430,0.08216
6167.24277,0.06594
6169.17124,0.04242
6171.09971,0.01316
6173.02818,-0.01132
6174.95665,-0.00983
6176.88512,0.01922
6178.81358,0.08264
6180.74205,0.13751
6182.67052,0.11867
6184.59899,0.06973
6186.52746,0.06045
6188.45593,0.08966
6190.38440,0.08502
6192.31286,0.01132
6194.24133,-0.02756
6196.16980,0.02274
6198.09827,0.07763
6200.02674,0.09242
6201.95521,0.07658
6203.88368,0.06017
6205.81215,0.08155
6207.74061,0.10909
6209.66908,0.09255
6211.59755,0.04077
6213.52602,0.00488
6215.45449,0.01897
6217.38296,0.08170
6219.31143,0.12907
6221.23989,0.10024
6223.16836,0.02599
6225.09683,-0.01778
6227.02530,-0.00420
6228.95377,0.03858
6230.88224,0.05634
6232.81071,0.05076
6234.73918,0.06861
6236.66764,0.11056
6238.59611,0.14748
6240.52458,0.12789
6242.45305,0.04607
6244.38152,-0.01311
6246.30999,0.00949
6248.23846,0.07691
6250.16692,0.12193
6252.09539,0.11815
6254.02386,0.10627
6255.95233,0.12127
6257.88080,0.13409
6259.80927,0.12464
6261.73774,0.08646
6263.66621,0.03828
6265.59467,0.04449
6267.52314,0.07352
6269.45161,0.06035
6271.38008,0.02615
6273.30855,0.01569
6275.23702,0.06046
6277.16549,0.10024
6279.09395,0.07240
6281.02242,0.03872
6282.95089,0.06170
6284.87936,0.10183
6286.80783,0.10008
6288.73630,0.04746
6290.66477,0.02179
6292.59323,0.06641
6294.52170,0.06031
6296.45017,-0.01280
6298.37864,-0.01841
6300.30711,0.05088
6302.23558,0.09671
6304.16405,0.10619
6306.09252,0.10226
6308.02098,0.06626
6309.94945,-0.00174
6311.87792,-0.06082
6313.80639,-0.03424
6315.73486,0.06010
6317.66333,0.13087
6319.59180,0.14805
6321.52026,0.09270
6323.44873,0.01957
6325.37720,0.03504
6327.30567,0.08989
6329.23414,0.12435
6331.16261,0.16660
6333.09108,0.17085
6335.01955,0.11117
6336.94801,0.06825
6338.87648,0.05596
6340.80495,0.02097
6342.73342,0.00130
6344.66189,0.05862
6346.59036,0.10486
6348.51883,0.05948
6350.44729,0.04830
6352.37576,0.13842
6354.30423,0.18957
6356.23270,0.16464
6358.16117,0.14215
6360.08964,0.11111
6362.01811,0.05296
6363.94658,0.04813
6365.87504,0.09707
6367.80351,0.10187
6369.73198,0.08247
6371.66045,0.10116
6373.58892,0.12039
6375.51739,0.07953
6377.44586,0.01038
6379.37432,0.00524
6381.30279,0.07973
6383.23126,0.14790
6385.15973,0.14076
6387.08820,0.10514
6389.01667,0.06917
6390.94514,-0.00890
6392.87361,-0.08679
6394.80207,-0.05758
6396.73054,0.02602
6398.65901,0.07124
6400.58748,0.05732
6402.51595,0.02099
6404.44442,0.00994
6406.37289,0.00420
6408.30135,-0.01555
6410.22982,-0.02582
6412.15829,-0.01944
6414.08676,-0.00942
6416.01523,0.00523
6417.94370,0.04357
6419.87217,0.09350
6421.80064,0.11575
6423.72910,0.12346
6425.65757,0.15461
6427.58604,0.17195
6429.51451,0.13392
6431.44298,0.08633
6433.37145,0.05470
6435.29992,0.03297
6437.22838,0.04730
6439.15685,0.06845
6441.08532,0.04279
6443.01379,0.00104
6444.94226,0.00376
6446.87073,0.05392
6448.79920,0.08861
6450.72766,0.04044
6452.65613,-0.03109
6454.58460,-0.01717
6456.51307,0.05832
6458.44154,0.11949
6460.37001,0.14572
6462.29848,0.13955
6464.22695,0.14451
6466.15541,0.18490
6468.08388,0.20139
6470.01235,0.15060
6471.94082,0.08049
6473.86929,0.03283
6475.79776,0.01808
6477.72623,0.08357
6479.65469,0.15610
6481.58316,0.14745
6483.51163,0.11766
6485.44010,0.09965
6487.36857,0.07151
6489.29704,0.03101
6491.22551,-0.00052
6493.15398,0.01618
6495.08244,0.08310
6497.01091,0.12985
6498.93938,0.10907
6500.86785,0.08868
6502.79632,0.11840
6504.72479,0.12360
6506.65326,0.06717
6508.58172,0.00353
6510.51019,-0.01564
6512.43866,-0.00281
6514.36713,0.01742
6516.29560,0.02174
6518.22407,0.00147
6520.15254,-0.00613
6522.08101,0.00528
6524.00947,0.00063
6525.93794,-0.00817
6527.86641,0.03029
6529.79488,0.09966
6531.72335,0.12139
6533.65182,0.04916
6535.58029,-0.03570
6537.50875,-0.02875
6539.43722,0.06825
6541.36569,0.19071
6543.29416,0.23452
6545.22263,0.17488
6547.15110,0.09017
6549.07957,0.02285
6551.00804,0.03845
6552.93650,0.08924
6554.86497,0.05538
6556.79344,-0.02323
6558.72191,-0.05836
6560.65038,-0.01144
6562.57885,0.07664
6564.50732,0.11979
6566.43578,0.10728
6568.36425,0.09450
6570.29272,0.08917
6572.22119,0.06346
6574.14966,0.05384
6576.07813,0.10546
6578.00660,0.14635
6579.93507,0.11839
6581.86353,0.09741
6583.79200,0.10661
6585.72047,0.08273
6587.64894,0.06050
6589.57741,0.08745
6591.50588,0.09691
6593.43435,0.04372
6595.36281,-0.01435
6597.29128,-0.03770
6599.21975,-0.01854
6601.14822,0.07257
6603.07669,0.17758
6605.00516,0.22499
6606.93363,0.24034
6608.86210,0.23202
6610.79056,0.17740
6612.71903,0.08884
6614.64750,0.02025
6616.57597,-0.00711
6618.50444,-0.03418
6620.43291,-0.06445
6622.36138,-0.05467
6624.28984,-0.00003
6626.21831,0.05180
6628.14678,0.07043
6630.07525,0.06942
6632.00372,0.05264
6633.93219,0.02184
6635.86066,0.03662
6637.78912,0.10371
6639.71759,0.14216
6641.64606,0.14923
6643.57453,0.14091
6645.50300,0.10647
6647.43147,0.07371
6649.35994,0.09337
6651.28841,0.09343
6653.21687,0.01482
6655.14534,-0.00502
6657.07381,0.10089
6659.00228,0.17564
6660.93075,0.14111
6662.85922,0.10439
6664.78769,0.12493
6666.71615,0.13234
6668.64462,0.14108
6670.57309,0.17549
6672.50156,0.14332
6674.43003,0.05867
6676.35850,-0.00096
6678.28697,-0.06505
6680.21544,-0.12232
6682.14390,-0.13165
6684.07237,-0.10620
6686.00084,-0.02075
6687.92931,0.11410
6689.85778,0.17532
6691.78625,0.13823
6693.71472,0.10948
6695.64318,0.14296
6697.57165,0.16962
6699.50012,0.15390
6701.42859,0.16163
6703.35706,0.15570
6705.28553,0.07546
6707.21400,0.00464
6709.14247,0.01697
6711.07093,0.05827
6712.99940,0.06523
6714.92787,0.02587
6716.85634,0.00281
6718.78481,0.03888
6720.71328,0.07820
6722.64175,0.07754
6724.57021,0.07218
6726.49868,0.09906
6728.42715,0.12979
6730.35562,0.14188
6732.28409,0.15574
6734.21256,0.15566
6736.14103,0.11560
6738.06950,0.04540
6739.99796,-0.01029
6741.92643,-0.01779
6743.85490,-0.02543
6745.78337,-0.03261
6747.71184,-0.01776
6749.64031,-0.02696
6751.56878,-0.05240
6753.49724,-0.06038
6755.42571,-0.05735
6757.35418,-0.03176
6759.28265,0.05462
6761.21112,0.14928
6763.13959,0.14849
6765.06806,0.09490
6766.99653,0.06390
6768.92499,0.04719
6770.85346,-0.00534
6772.78193,-0.04961
6774.71040,-0.01139
6776.63887,0.05929
6778.56734,0.08121
6780.49581,0.05922
6782.42427,0.05757
6784.35274,0.11216
6786.28121,0.13774
6788.20968,0.09293
6790.13815,0.01948
6792.06662,-0.06034
6793.99509,-0.09154
6795.92355,-0.03219
6797.85202,0.07654
6799.78049,0.17077
6801.70896,0.22075
6803.63743,0.21056
6805.56590,0.15246
6807.49437,0.11427
6809.42284,0.08830
6811.35130,0.05669
6813.27977,0.05319
6815.20824,0.01750
6817.13671,-0.04579
6819.06518,-0.04769
6820.99365,-0.00678
6822.92212,0.04265
6824.85058,0.05523
6826.77905,0.03358
6828.70752,0.04191
6830.63599,0.02510
6832.56446,-0.07307
6834.49293,-0.11337
6836.42140,-0.02047
6838.34987,0.06483
6840.27833,0.04870
6842.20680,-0.01836
6844.13527,-0.03297
6846.06374,0.01347
6847.99221,0.05494
6849.92068,0.07406
6851.84915,0.06829
6853.77761,0.09396
6855.70608,0.15538
6857.63455,0.14612
6859.56302,0.07812
6861.49149,-0.00706
6863.41996,-0.08608
6865.34843,-0.08713
6867.27690,-0.00039
6869.20536,0.08744
6871.13383,0.12559
6873.06230,0.14643
6874.99077,0.16958
6876.91924,0.15845
6878.84771,0.10385
6880.77618,0.01345
6882.70464,-0.04106
6884.63311,0.00057
6886.56158,0.02711
6888.49005,-0.03349
6890.41852,-0.06876
6892.34699,-0.00740
6894.27546,0.10947
6896.20393,0.17658
6898.13239,0.10867
6900.06086,-0.02551
6901.98933,-0.15272
6903.91780,-0.18954
6905.84627,-0.04437
6907.77474,0.09980
6909.70321,0.10369
6911.63167,0.08240
6913.56014,0.07500
6915.48861,0.01389
6917.41708,-0.11312
6919.34555,-0.21042
6921.27402,-0.11277
6923.20249,0.05829
6925.13096,0.10065
6927.05942,0.05375
6928.98789,0.04147
6930.91636,0.06887
6932.84483,0.04487
6934.77330,0.02029
6936.70177,0.03324
6938.63024,0.03985
6940.55870,0.06179
6942.48717,0.05526
6944.41564,-0.03877
6946.34411,-0.10042
6948.27258,-0.02907
6950.20105,0.05290
6952.12952,0.02740
6954.05799,-0.00696
6955.98645,0.09923
6957.91492,0.21343
6959.84339,0.25092
6961.77186,0.23707
6963.70033,0.12633
6965.62880,0.02494
6967.55727,-0.01444
6969.48573,-0.04580
6971.41420,-0.00684
6973.34267,0.02064
6975.27114,-0.02922
6977.19961,0.03726
6979.12808,0.16717
6981.05655,0.19365
6982.98501,0.09634
6984.91348,-0.02465
6986.84195,-0.06570
6988.77042,-0.06085
6990.69889,0.01123
6992.62736,0.15319
6994.55583,0.21254
6996.48430,0.15948
6998.41276,0.14027
7000.34123,0.20798
7002.26970,0.23234
7004.19817,0.15083
7006.12664,0.04068
7008.05511,-0.02971
7009.98358,-0.04440
7011.91204,0.04675
7013.84051,0.19593
7015.76898,0.19005
7017.69745,0.08170
7019.62592,0.02735
7021.55439,-0.00144
7023.48286,-0.01986
7025.41133,0.02461
7027.33979,0.05545
7029.26826,0.02165
7031.19673,0.06327
7033.12520,0.16517
7035.05367,0.19904
7036.98214,0.16339
7038.91061,0.10312
7040.83907,0.03941
7042.76754,-0.02389
7044.69601,-0.06952
7046.62448,-0.07716
7048.55295,-0.03495
7050.48142,0.02838
7052.40989,0.06328
7054.33836,0.00008
7056.26682,-0.09133
7058.19529,-0.00489
7060.12376,0.15662
7062.05223,0.23015
7063.98070,0.21513
7065.90917,0.14356
7067.83764,0.08043
7069.76610,0.02896
7071.69457,-0.01211
7073.62304,-0.02301
7075.55151,-0.03810
7077.47998,-0.08605
7079.40845,-0.13283
7081.33692,-0.09341
7083.26539,-0.03221
7085.19385,-0.10291
7087.12232,-0.19857
7089.05079,-0.08924
7090.97926,0.09625
7092.90773,0.14585
7094.83620,0.09967
7096.76467,0.04109
7098.69313,0.04622
7100.62160,0.13287
7102.55007,0.18502
7104.47854,0.15460
7106.40701,0.04021
7108.33548,-0.08862
7110.26395,-0.18230
7112.19242,-0.24860
7114.12088,-0.18667
7116.04935,-0.01342
7117.97782,0.02678
7119.90629,-0.04677
7121.83476,-0.02550
7123.76323,0.05111
7125.69170,0.13248
7127.62016,0.14302
7129.54863,0.06106
7131.47710,0.00548
7133.40557,0.05802
7135.33404,0.18175
7137.26251,0.22073
7139.19098,0.05629
7141.11944,-0.12995
7143.04791,-0.04050
7144.97638,0.22340
7146.90485,0.30924
7148.83332,0.20703
7150.76179,0.07807
7152.69026,-0.04334
7154.61873,-0.11342
7156.54719,-0.06684
7158.47566,-0.00224
7160.40413,-0.04744
7162.33260,-0.18014
7164.26107,-0.25787
7166.18954,-0.19346
7168.11801,-0.05717
7170.04647,0.10036
7171.97494,0.21152
7173.90341,0.18690
7175.83188,0.15743
7177.76035,0.20796
7179.68882,0.20148
7181.61729,0.11490
7183.54576,0.09573
7185.47422,0.12389
7187.40269,0.03902
7189.33116,-0.10447
7191.25963,-0.13489
7193.18810,0.02578
7195.11657,0.20243
7197.04504,0.18322
7198.97350,0.04569
7200.90197,0.00553
7202.83044,0.08806
7204.75891,0.19730
7206.68738,0.19054
7208.61585,0.12664
7210.54432,0.14353
7212.47279,0.17869
7214.40125,0.10198
7216.32972,0.01910
7218.25819,0.05476
7220.18666,-0.00717
7222.11513,-0.08887
7224.04360,0.00233
7225.97207,0.11747
7227.90053,0.08818
7229.82900,0.01046
7231.75747,-0.06198
7233.68594,-0.04827
7235.61441,0.08954
7237.54288,0.20017
7239.47135,0.15289
7241.39982,0.08537
7243.32828,0.09347
7245.25675,0.03101
7247.18522,-0.06070
7249.11369,-0.06803
7251.04216,-0.05448
7252.97063,-0.06318
7254.89910,-0.02390
7256.82756,0.05090
7258.75603,0.12816
7260.68450,0.13573
7262.61297,0.11208
7264.54144,0.10706
7266.46991,0.04188
7268.39838,0.06047
7270.32685,0.19462
7272.25531,0.22736
7274.18378,0.17653
7276.11225,0.18837
7278.04072,0.18270
7279.96919,0.11098
7281.89766,0.05727
7283.82613,0.08612
7285.75459,0.12387
7287.68306,0.05932
7289.61153,-0.07105
7291.54000,-0.10556
7293.46847,0.01047
7295.39694,0.14319
7297.32541,0.16532
7299.25387,0.11826
7301.18234,0.07339
7303.11081,0.07410
7305.03928,0.16271
7306.96775,0.24551
7308.89622,0.12408
7310.82469,-0.13103
7312.75316,-0.23790
7314.68162,-0.12226
7316.61009,0.12397
7318.53856,0.26970
7320.46703,0.33797
7322.39550,0.41694
7324.32397,0.43373
7326.25244,0.40858
7328.18090,0.40599
7330.10937,0.33439
7332.03784,0.19701
7333.96631,0.14709
7335.89478,0.20485
7337.82325,0.20986
7339.75172,0.00788
7341.68019,-0.04350
7343.60865,0.18712
7345.53712,0.31917
7347.46559,0.21460
7349.39406,0.07273
7351.32253,-0.01518
7353.25100,-0.14646
7355.17947,-0.23472
7357.10793,-0.16262
7359.03640,0.03413
7360.96487,0.25412
7362.89334,0.29859
7364.82181,0.10475
7366.75028,-0.07683
7368.67875,-0.06312
7370.60722,0.06870
7372.53568,0.19975
7374.46415,0.33576
7376.39262,0.32738
7378.32109,0.12646
7380.24956,0.02807
7382.17803,0.23319
7384.10650,0.48169
7386.03496,0.33514
7387.96343,-0.09389
7389.89190,-0.28222
7391.82037,-0.15089
7393.74884,0.06678
7395.67731,0.14262
7397.60578,0.08923
7399.53425,0.07978
7401.46271,0.13314
7403.39118,0.17271
7405.31965,0.09944
7407.24812,-0.04731
7409.17659,-0.10531
7411.10506,-0.03578
7413.03353,0.01113
7414.96199,-0.06279
7416.89046,-0.18991
7418.81893,-0.23066
7420.74740,-0.09956
7422.67587,0.04406
7424.60434,0.03295
7426.53281,-0.05599
7428.46128,-0.06276
7430.38974,0.00590
7432.31821,-0.00004
7434.24668,-0.04577
7436.17515,0.01810
7438.10362,0.15816
7440.03209,0.15633
7441.96056,0.03954
7443.88902,0.01805
7445.81749,0.10095
7447.74596,0.16994
7449.67443,0.15695
7451.60290,0.08402
7453.53137,0.00789
7455.45984,-0.01297
7457.38831,-0.00721
7459.31677,0.02921
7461.24524,0.10816
7463.17371,0.16475
7465.10218,0.13368
7467.03065,-0.06217
7468.95912,-0.21832
7470.88759,-0.09541
7472.81605,0.09434
7474.74452,0.08515
7476.67299,0.09337
7478.60146,0.22824
7480.52993,0.38593
7482.45840,0.47317
7484.38687,0.36303
7486.31533,0.23208
7488.24380,0.20316
7490.17227,0.13268
7492.10074,0.05056
7494.02921,0.04419
7495.95768,0.06936
7497.88615,0.07270
