399.19301,3.67054
401.12148,0.38988
403.04995,0.20450
404.97842,0.05460
406.90689,-0.03243
408.83536,-0.08474
410.76382,-0.22042
412.69229,-0.24851
414.62076,-0.01960
416.54923,0.17459
418.47770,0.08782
420.40617,0.04165
422.33464,0.18228
424.26311,0.20394
426.19157,0.14454
428.12004,0.14019
430.04851,0.18447
431.97698,0.24133
433.90545,0.22004
435.83392,0.10337
437.76239,-0.00687
439.69085,-0.02182
441.61932,0.06458
443.54779,0.14674
445.47626,0.11422
447.40473,0.03245
449.33320,0.01021
451.26167,0.05073
453.19013,0.08596
455.11860,0.08029
457.04707,0.06230
458.97554,0.03713
460.90401,-0.01156
462.83248,-0.02543
464.76095,0.06565
466.68942,0.17427
468.61788,0.15526
470.54635,0.19129
472.47482,1.18776
474.40329,2.71526
476.33176,1.91577
478.26023,0.59711
480.18870,0.09335
482.11716,0.01748
484.04563,0.01919
485.97410,0.04415
487.90257,0.05075
489.83104,0.05732
491.75951,0.06268
493.68798,0.05412
495.61645,0.07552
497.54491,0.12519
499.47338,0.15401
501.40185,0.16261
503.33032,0.12609
505.25879,0.06293
507.18726,0.03414
509.11573,0.03126
511.04419,0.02137
512.97266,0.02119
514.90113,0.04035
516.82960,0.04651
518.75807,0.03823
520.68654,0.04900
522.61501,0.07451
524.54348,0.08352
526.47194,0.08209
528.40041,0.07993
530.32888,0.07688
532.25735,0.09393
534.18582,0.12120
536.11429,0.11681
538.04276,0.07907
539.97122,0.06241
541.89969,0.06315
543.82816,0.04985
545.75663,0.04201
547.68510,0.06452
549.61357,0.09340
551.54204,0.09577
553.47051,0.10397
555.39897,0.11729
557.32744,0.10854
559.25591,0.09427
561.18438,0.08909
563.11285,0.10657
565.04132,0.13382
566.96979,0.12900
568.89825,0.10855
570.82672,0.12101
572.75519,0.16495
574.68366,0.19314
576.61213,0.16483
578.54060,0.10802
580.46907,0.07294
582.39754,0.07734
584.32600,0.09299
586.25447,0.09136
588.18294,0.09301
590.11141,0.10134
592.03988,0.09882
593.96835,0.10462
595.89682,0.11997
597.82528,0.12606
599.75375,0.12871
601.68222,0.13771
603.61069,0.14354
605.53916,0.12770
607.46763,0.10656
609.39610,0.10645
611.32456,0.10877
613.25303,0.09414
615.18150,0.08032
617.10997,0.08641
619.03844,0.10111
620.96691,0.10933
622.89538,0.11132
624.82385,0.11050
626.75231,0.11686
628.68078,0.12813
630.60925,0.12942
632.53772,0.12142
634.46619,0.11731
636.39466,0.12187
638.32313,0.12626
640.25159,0.13135
642.18006,0.14411
644.10853,0.15243
646.03700,0.14460
647.96547,0.13290
649.89394,0.13345
651.82241,0.13825
653.75088,0.13116
655.67934,0.11713
657.60781,0.11308
659.53628,0.11312
661.46475,0.10908
663.39322,0.11393
665.32169,0.11982
667.25016,0.11047
669.17862,0.10350
671.10709,0.11336
673.03556,0.12103
674.96403,0.12450
676.89250,0.13015
678.82097,0.13387
680.74944,0.12854
682.67791,0.12656
684.60637,0.13184
686.53484,0.12519
688.46331,0.11069
690.39178,0.11376
692.32025,0.12434
694.24872,0.12451
696.17719,0.12373
698.10565,0.13038
700.03412,0.13538
701.96259,0.13196
703.89106,0.12946
705.81953,0.13032
707.74800,0.12253
709.67647,0.11700
711.60494,0.12861
713.53340,0.13893
715.46187,0.13896
717.39034,0.13991
719.31881,0.14381
721.24728,0.14658
723.17575,0.14393
725.10422,0.13573
727.03268,0.12612
728.96115,0.12269
730.88962,0.12542
732.81809,0.12723
734.74656,0.12368
736.67503,0.11608
738.60350,0.11217
740.53197,0.11715
742.46043,0.13314
744.38890,0.15156
746.31737,0.15788
748.24584,0.15387
750.17431,0.14855
752.10278,0.14282
754.03125,0.13780
755.95971,0.13620
757.88818,0.13316
759.81665,0.12789
761.74512,0.12458
763.67359,0.12462
765.60206,0.13233
767.53053,0.14154
769.45900,0.13479
771.38746,0.12290
773.31593,0.13070
775.24440,0.15171
777.17287,0.16345
779.10134,0.15529
781.02981,0.14280
782.95828,0.14216
784.88674,0.14705
786.81521,0.15205
788.74368,0.14768
790.67215,0.13055
792.60062,0.11964
794.52909,0.12115
796.45756,0.12919
798.38602,0.14487
800.31449,0.15669
802.24296,0.15376
804.17143,0.14483
806.09990,0.13985
808.02837,0.13753
809.95684,0.12959
811.88531,0.12122
813.81377,0.12378
815.74224,0.13910
817.67071,0.15644
819.59918,0.15555
821.52765,0.14209
823.45612,0.13651
825.38459,0.13803
827.31305,0.13735
829.24152,0.13182
831.16999,0.12687
833.09846,0.12744
835.02693,0.12976
836.95540,0.13142
838.88387,0.13617
840.81234,0.14013
842.74080,0.13703
844.66927,0.13075
846.59774,0.13068
848.52621,0.14238
850.45468,0.15840
852.38315,0.16775
854.31162,0.16841
856.24008,0.16322
858.16855,0.15758
860.09702,0.15778
862.02549,0.15852
863.95396,0.14895
865.88243,0.13970
867.81090,0.14219
869.73937,0.14590
871.66783,0.14407
873.59630,0.14716
875.52477,0.15762
877.45324,0.15954
879.38171,0.14808
881.31018,0.13488
883.23865,0.12894
885.16711,0.13070
887.09558,0.13568
889.02405,0.13986
890.95252,0.14242
892.88099,0.14331
894.80946,0.14524
896.73793,0.15064
898.66640,0.15338
900.59486,0.15252
902.52333,0.15221
904.45180,0.15011
906.38027,0.14328
908.30874,0.13402
910.23721,0.12942
912.16568,0.13045
914.09414,0.13203
916.02261,0.13277
917.95108,0.13316
919.87955,0.13096
921.80802,0.12694
923.73649,0.12736
925.66496,0.13262
927.59343,0.14118
929.52189,0.14920
931.45036,0.14816
933.37883,0.14169
935.30730,0.13782
937.23577,0.13738
939.16424,0.13915
941.09271,0.14094
943.02117,0.14290
944.94964,0.14509
946.87811,0.14708
948.80658,0.14868
950.73505,0.14857
952.66352,0.14664
954.59199,0.14460
956.52045,0.14754
958.44892,0.15221
960.37739,0.15032
962.30586,0.14518
964.23433,0.14234
966.16280,0.14251
968.09127,0.14520
970.01974,0.14954
971.94820,0.15117
973.87667,0.14725
975.80514,0.14738
977.73361,0.15630
979.66208,0.15988
981.59055,0.15267
983.51902,0.14776
985.44748,0.14844
987.37595,0.14417
989.30442,0.13376
991.23289,0.13023
993.16136,0.13917
995.08983,0.15238
997.01830,0.16199
998.94677,0.16330
1000.87523,0.15662
1002.80370,0.14999
1004.73217,0.15021
1006.66064,0.15707
1008.58911,0.16263
1010.51758,0.15981
1012.44605,0.15646
1014.37451,0.15699
1016.30298,0.15480
1018.23145,0.15231
1020.15992,0.15273
1022.08839,0.15191
1024.01686,0.14775
1025.94533,0.13895
1027.87380,0.12705
1029.80226,0.12329
1031.73073,0.13283
1033.65920,0.14420
1035.58767,0.15105
1037.51614,0.15636
1039.44461,0.15665
1041.37308,0.14996
1043.30154,0.14406
1045.23001,0.14422
1047.15848,0.14804
1049.08695,0.15319
1051.01542,0.16025
1052.94389,0.16531
1054.87236,0.16126
1056.80083,0.14876
1058.72929,0.13974
1060.65776,0.14366
1062.58623,0.15064
1064.51470,0.15309
1066.44317,0.16218
1068.37164,0.17530
1070.30011,0.17795
1072.22857,0.17580
1074.15704,0.17470
1076.08551,0.17076
1078.01398,0.16607
1079.94245,0.15938
1081.87092,0.15293
1083.79939,0.15341
1085.72786,0.15870
1087.65632,0.16360
1089.58479,0.16449
1091.51326,0.16415
1093.44173,0.16735
1095.37020,0.17121
1097.29867,0.17066
1099.22714,0.16711
1101.15560,0.16872
1103.08407,0.17685
1105.01254,0.18245
1106.94101,0.17889
1108.86948,0.17004
1110.79795,0.16419
1112.72642,0.16078
1114.65489,0.15875
1116.58335,0.16048
1118.51182,0.16102
1120.44029,0.15915
1122.36876,0.16035
1124.29723,0.16107
1126.22570,0.15575
1128.15417,0.15255
1130.08263,0.15940
1132.01110,0.16470
1133.93957,0.15562
1135.86804,0.14325
1137.79651,0.14371
1139.72498,0.15072
1141.65345,0.15188
1143.58191,0.14694
1145.51038,0.14271
1147.43885,0.14423
1149.36732,0.14911
1151.29579,0.15487
1153.22426,0.16033
1155.15273,0.16061
1157.08120,0.15791
1159.00966,0.15870
1160.93813,0.16474
1162.86660,0.17393
1164.79507,0.17671
1166.72354,0.16834
1168.65201,0.15847
1170.58048,0.15753
1172.50894,0.16405
1174.43741,0.16842
1176.36588,0.16685
1178.29435,0.16393
1180.22282,0.16296
1182.15129,0.16110
1184.07976,0.15824
1186.00823,0.15883
1187.93669,0.16079
1189.86516,0.16063
1191.79363,0.15925
1193.72210,0.15630
1195.65057,0.15443
1197.57904,0.15718
1199.50751,0.15929
1201.43597,0.15925
1203.36444,0.16426
1205.29291,0.17147
1207.22138,0.17300
1209.14985,0.16961
1211.07832,0.16401
1213.00679,0.16135
1214.93526,0.16485
1216.86372,0.16625
1218.79219,0.16104
1220.72066,0.15497
1222.64913,0.15285
1224.57760,0.15561
1226.50607,0.15866
1228.43454,0.15857
1230.36300,0.15895
1232.29147,0.15992
1234.21994,0.15682
1236.14841,0.15257
1238.07688,0.15403
1240.00535,0.16079
1241.93382,0.16592
1243.86229,0.16291
1245.79075,0.15512
1247.71922,0.15242
1249.64769,0.15536
1251.57616,0.15484
1253.50463,0.14959
1255.43310,0.14906
1257.36157,0.15370
1259.29003,0.15378
1261.21850,0.14836
1263.14697,0.14592
1265.07544,0.14783
1267.00391,0.14809
1268.93238,0.14745
1270.86085,0.15035
1272.78932,0.15440
1274.71778,0.15380
1276.64625,0.15271
1278.57472,0.15831
1280.50319,0.16084
1282.43166,0.15588
1284.36013,0.15357
1286.28860,0.15157
1288.21706,0.14733
1290.14553,0.14745
1292.07400,0.14822
1294.00247,0.14404
1295.93094,0.13893
1297.85941,0.13307
1299.78788,0.12033
1301.71634,0.09855
1303.64481,0.07879
1305.57328,0.08659
1307.50175,0.12249
1309.43022,0.15207
1311.35869,0.16372
1313.28716,0.16917
1315.21563,0.16854
1317.14409,0.16372
1319.07256,0.15998
1321.00103,0.15821
1322.92950,0.15893
1324.85797,0.15454
1326.78644,0.14657
1328.71491,0.14700
1330.64337,0.14788
1332.57184,0.14399
1334.50031,0.14353
1336.42878,0.14587
1338.35725,0.14934
1340.28572,0.13717
1342.21419,0.04579
1344.14266,-0.13756
1346.07112,-0.24446
1347.99959,-0.11886
1349.92806,0.07885
1351.85653,0.14882
1353.78500,0.14185
1355.71347,0.13969
1357.64194,0.14460
1359.57040,0.15335
1361.49887,0.16258
1363.42734,0.16500
1365.35581,0.16405
1367.28428,0.16646
1369.21275,0.17004
1371.14122,0.17285
1373.06969,0.17526
1374.99815,0.17619
1376.92662,0.17702
1378.85509,0.17788
1380.78356,0.17735
1382.71203,0.17602
1384.64050,0.17750
1386.56897,0.18257
1388.49743,0.18496
1390.42590,0.18289
1392.35437,0.18156
1394.28284,0.18249
1396.21131,0.18200
1398.13978,0.18048
1400.06825,0.17867
1401.99672,0.17583
1403.92518,0.17743
1405.85365,0.18196
1407.78212,0.18151
1409.71059,0.17885
1411.63906,0.17743
1413.56753,0.17603
1415.49600,0.17517
1417.42446,0.17819
1419.35293,0.18416
1421.28140,0.18358
1423.20987,0.17821
1425.13834,0.17483
1427.06681,0.17630
1428.99528,0.18027
1430.92375,0.18206
1432.85221,0.18307
1434.78068,0.18891
1436.70915,0.19501
1438.63762,0.18976
1440.56609,0.18147
1442.49456,0.17827
1444.42303,0.17904
1446.35149,0.18168
1448.27996,0.18390
1450.20843,0.18333
1452.13690,0.18448
1454.06537,0.19318
1455.99384,0.21027
1457.92231,0.21552
1459.85077,0.19913
1461.77924,0.18994
1463.70771,0.19011
1465.63618,0.18819
1467.56465,0.18217
1469.49312,0.18107
1471.42159,0.19189
1473.35006,0.20732
1475.27852,0.20365
1477.20699,0.19202
1479.13546,0.18483
1481.06393,0.18300
1482.99240,0.18507
1484.92087,0.18886
1486.84934,0.19505
1488.77780,0.19963
1490.70627,0.19402
1492.63474,0.18951
1494.56321,0.19232
1496.49168,0.19301
1498.42015,0.18743
1500.34862,0.18218
1502.27709,0.17722
1504.20555,0.17477
1506.13402,0.18643
1508.06249,0.20804
1509.99096,0.20450
1511.91943,0.19435
1513.84790,0.19051
1515.77637,0.19264
1517.70483,0.19873
1519.63330,0.20821
1521.56177,0.21661
1523.49024,0.21510
1525.41871,0.20973
1527.34718,0.20411
1529.27565,0.19867
1531.20412,0.19725
1533.13258,0.19869
1535.06105,0.19910
1536.98952,0.20472
1538.91799,0.22062
1540.84646,0.22972
1542.77493,0.22181
1544.70340,0.21149
1546.63186,0.19850
1548.56033,0.18874
1550.48880,0.18539
1552.41727,0.19052
1554.34574,0.20088
1556.27421,0.21041
1558.20268,0.22211
1560.13115,0.21724
1562.05961,0.20131
1563.98808,0.19381
1565.91655,0.19161
1567.84502,0.19057
1569.77349,0.18765
1571.70196,0.18507
1573.63043,0.18982
1575.55889,0.20000
1577.48736,0.20008
1579.41583,0.19161
1581.34430,0.18545
1583.27277,0.17973
1585.20124,0.17307
1587.12971,0.17089
1589.05818,0.17485
1590.98664,0.17915
1592.91511,0.18114
1594.84358,0.17969
1596.77205,0.17437
1598.70052,0.17148
1600.62899,0.17384
1602.55746,0.17658
1604.48592,0.17651
1606.41439,0.17497
1608.34286,0.17427
1610.27133,0.17809
1612.19980,0.18778
1614.12827,0.19955
1616.05674,0.20860
1617.98521,0.20641
1619.91367,0.19925
1621.84214,0.19616
1623.77061,0.19352
1625.69908,0.19185
1627.62755,0.19402
1629.55602,0.19396
1631.48449,0.19365
1633.41295,0.20160
1635.34142,0.21432
1637.26989,0.20919
1639.19836,0.19598
1641.12683,0.18846
1643.05530,0.18848
1644.98377,0.19877
1646.91223,0.21301
1648.84070,0.21565
1650.76917,0.21909
1652.69764,0.23223
1654.62611,0.22521
1656.55458,0.20805
1658.48305,0.20066
1660.41152,0.19934
1662.33998,0.19988
1664.26845,0.19983
1666.19692,0.20262
1668.12539,0.20838
1670.05386,0.20697
1671.98233,0.20131
1673.91080,0.20126
1675.83926,0.19993
1677.76773,0.19670
1679.69620,0.19876
1681.62467,0.20892
1683.55314,0.22290
1685.48161,0.21945
1687.41008,0.20637
1689.33855,0.19830
1691.26701,0.19699
1693.19548,0.20250
1695.12395,0.21070
1697.05242,0.21458
1698.98089,0.21294
1700.90936,0.20858
1702.83783,0.20650
1704.76629,0.20561
1706.69476,0.19995
1708.62323,0.19331
1710.55170,0.19111
1712.48017,0.19219
1714.40864,0.19560
1716.33711,0.20215
1718.26558,0.20410
1720.19404,0.19662
1722.12251,0.19152
1724.05098,0.19289
1725.97945,0.19428
1727.90792,0.19195
1729.83639,0.19195
1731.76486,0.19916
1733.69332,0.20573
1735.62179,0.20005
1737.55026,0.19464
1739.47873,0.19478
1741.40720,0.19570
1743.33567,0.19595
1745.26414,0.19787
1747.19261,0.19963
1749.12107,0.19611
1751.04954,0.18930
1752.97801,0.18653
1754.90648,0.18736
1756.83495,0.18918
1758.76342,0.18978
1760.69189,0.18913
1762.62035,0.18787
1764.54882,0.18793
1766.47729,0.19196
1768.40576,0.19808
1770.33423,0.20234
1772.26270,0.20218
1774.19117,0.19641
1776.11964,0.19160
1778.04810,0.19051
1779.97657,0.19060
1781.90504,0.19040
1783.83351,0.18979
1785.76198,0.18816
1787.69045,0.18735
1789.61892,0.18898
1791.54738,0.19250
1793.47585,0.19574
1795.40432,0.19584
1797.33279,0.19491
1799.26126,0.19537
1801.18973,0.19287
1803.11820,0.18738
1805.04666,0.18614
1806.97513,0.18842
1808.90360,0.18958
1810.83207,0.18793
1812.76054,0.18541
1814.68901,0.18506
1816.61748,0.17977
1818.54595,0.15028
1820.47441,0.11425
1822.40288,0.12499
1824.33135,0.17362
1826.25982,0.19889
1828.18829,0.20051
1830.11676,0.19946
1832.04523,0.19088
1833.97369,0.18209
1835.90216,0.18005
1837.83063,0.18273
1839.75910,0.18608
1841.68757,0.19165
1843.61604,0.19857
1845.54451,0.19840
1847.47298,0.19339
1849.40144,0.18920
1851.32991,0.18582
1853.25838,0.18405
1855.18685,0.18363
1857.11532,0.18420
1859.04379,0.18743
1860.97226,0.18974
1862.90072,0.18713
1864.82919,0.18544
1866.75766,0.18919
1868.68613,0.19262
1870.61460,0.19119
1872.54307,0.18843
1874.47154,0.18596
1876.40001,0.18421
1878.32847,0.18413
1880.25694,0.18484
1882.18541,0.18444
1884.11388,0.18439
1886.04235,0.18599
1887.97082,0.18817
1889.89929,0.18988
1891.82775,0.19091
1893.75622,0.19111
1895.68469,0.18917
1897.61316,0.18748
1899.54163,0.18759
1901.47010,0.18722
1903.39857,0.18706
1905.32704,0.18758
1907.25550,0.18672
1909.18397,0.18356
1911.11244,0.18071
1913.04091,0.18150
1914.96938,0.18493
1916.89785,0.18712
1918.82632,0.18656
1920.75478,0.18650
1922.68325,0.18916
1924.61172,0.19048
1926.54019,0.18787
1928.46866,0.18541
1930.39713,0.18440
1932.32560,0.18389
1934.25407,0.18414
1936.18253,0.18460
1938.11100,0.18656
1940.03947,0.19065
1941.96794,0.19355
1943.89641,0.19295
1945.82488,0.19171
1947.75335,0.19028
1949.68181,0.18798
1951.61028,0.18833
1953.53875,0.19092
1955.46722,0.19072
1957.39569,0.18921
1959.32416,0.18997
1961.25263,0.18952
1963.18110,0.18799
1965.10956,0.18914
1967.03803,0.19014
1968.96650,0.18964
1970.89497,0.18898
1972.82344,0.18851
1974.75191,0.18874
1976.68038,0.18852
1978.60884,0.18827
1980.53731,0.18806
1982.46578,0.18703
1984.39425,0.18692
1986.32272,0.18676
1988.25119,0.18532
1990.17966,0.18611
1992.10812,0.18828
1994.03659,0.18766
1995.96506,0.18581
1997.89353,0.18551
1999.82200,0.18656
2001.75047,0.18780
2003.67894,0.18924
2005.60741,0.18886
2007.53587,0.18419
2009.46434,0.17918
2011.39281,0.17890
2013.32128,0.18314
2015.24975,0.18868
2017.17822,0.19271
2019.10669,0.19319
2021.03515,0.18941
2022.96362,0.18390
2024.89209,0.18011
2026.82056,0.18059
2028.74903,0.18429
2030.67750,0.18595
2032.60597,0.18533
2034.53444,0.18634
2036.46290,0.18849
2038.39137,0.19066
2040.31984,0.19286
2042.24831,0.19336
2044.17678,0.19252
2046.10525,0.19174
2048.03372,0.19017
2049.96218,0.18823
2051.89065,0.18669
2053.81912,0.18594
2055.74759,0.18775
2057.67606,0.19092
2059.60453,0.19064
2061.53300,0.18750
2063.46147,0.18657
2065.38993,0.18701
2067.31840,0.18610
2069.24687,0.18574
2071.17534,0.18580
2073.10381,0.18479
2075.03228,0.18518
2076.96075,0.18722
2078.88921,0.18796
2080.81768,0.18755
2082.74615,0.18669
2084.67462,0.18582
2086.60309,0.18551
2088.53156,0.18519
2090.46003,0.18576
2092.38850,0.18803
2094.31696,0.19002
2096.24543,0.19057
2098.17390,0.19041
2100.10237,0.18980
2102.03084,0.18869
2103.95931,0.18732
2105.88778,0.18693
2107.81624,0.18750
2109.74471,0.18735
2111.67318,0.18771
2113.60165,0.18939
2115.53012,0.18979
2117.45859,0.18791
2119.38706,0.18709
2121.31553,0.18839
2123.24399,0.18858
2125.17246,0.18885
2127.10093,0.19108
2129.02940,0.19227
2130.95787,0.19197
2132.88634,0.19147
2134.81481,0.18976
2136.74327,0.18711
2138.67174,0.18649
2140.60021,0.18776
2142.52868,0.18747
2144.45715,0.18606
2146.38562,0.18514
2148.31409,0.18526
2150.24255,0.18700
2152.17102,0.18824
2154.09949,0.18863
2156.02796,0.18893
2157.95643,0.18669
2159.88490,0.18270
2161.81337,0.18227
2163.74184,0.18705
2165.67030,0.19257
2167.59877,0.19349
2169.52724,0.19004
2171.45571,0.18717
2173.38418,0.18637
2175.31265,0.18661
2177.24112,0.18851
2179.16958,0.19145
2181.09805,0.19229
2183.02652,0.19021
2184.95499,0.18874
2186.88346,0.18892
2188.81193,0.18923
2190.74040,0.18960
2192.66887,0.18969
2194.59733,0.18932
2196.52580,0.18787
2198.45427,0.18509
2200.38274,0.18393
2202.31121,0.18478
2204.23968,0.18537
2206.16815,0.18639
2208.09661,0.18825
2210.02508,0.18938
2211.95355,0.18856
2213.88202,0.18779
2215.81049,0.18886
2217.73896,0.18968
2219.66743,0.18836
2221.59590,0.18549
2223.52436,0.18353
2225.45283,0.18264
2227.38130,0.18246
2229.30977,0.18494
2231.23824,0.18826
2233.16671,0.18973
2235.09518,0.19043
2237.02364,0.19093
2238.95211,0.18975
2240.88058,0.18812
2242.80905,0.18848
2244.73752,0.18911
2246.66599,0.18850
2248.59446,0.18790
2250.52293,0.18794
2252.45139,0.18906
2254.37986,0.19040
2256.30833,0.18915
2258.23680,0.18632
2260.16527,0.18575
2262.09374,0.18781
2264.02221,0.19037
2265.95067,0.19079
2267.87914,0.18826
2269.80761,0.18621
2271.73608,0.18737
2273.66455,0.18986
2275.59302,0.19122
2277.52149,0.19165
2279.44996,0.19122
2281.37842,0.18981
2283.30689,0.18880
2285.23536,0.18755
2287.16383,0.18492
2289.09230,0.18310
2291.02077,0.18331
2292.94924,0.18421
2294.87770,0.18557
2296.80617,0.18623
2298.73464,0.18473
2300.66311,0.18261
2302.59158,0.18111
2304.52005,0.18041
2306.44852,0.18044
2308.37699,0.18032
2310.30545,0.18016
2312.23392,0.18207
2314.16239,0.18365
2316.09086,0.17977
2318.01933,0.17613
2319.94780,0.17747
2321.87627,0.17818
2323.80473,0.17737
2325.73320,0.17528
2327.66167,0.17032
2329.59014,0.16676
2331.51861,0.16939
2333.44708,0.17766
2335.37555,0.18452
2337.30401,0.18375
2339.23248,0.17732
2341.16095,0.16982
2343.08942,0.17110
2345.01789,0.18255
2346.94636,0.18727
2348.87483,0.18346
2350.80330,0.17733
2352.73176,0.17424
2354.66023,0.17639
2356.58870,0.17064
2358.51717,0.15792
2360.44564,0.16053
2362.37411,0.17376
2364.30258,0.18272
2366.23104,0.18387
2368.15951,0.17714
2370.08798,0.17642
2372.01645,0.18345
2373.94492,0.18646
2375.87339,0.18449
2377.80186,0.18208
2379.73033,0.18178
2381.65879,0.18311
2383.58726,0.18457
2385.51573,0.18558
2387.44420,0.18651
2389.37267,0.18760
2391.30114,0.18832
2393.22961,0.18905
2395.15807,0.18982
2397.08654,0.18973
2399.01501,0.18880
2400.94348,0.18804
2402.87195,0.18902
2404.80042,0.19155
2406.72889,0.19233
2408.65736,0.19140
2410.58582,0.19187
2412.51429,0.19206
2414.44276,0.19131
2416.37123,0.19156
2418.29970,0.19036
2420.22817,0.18740
2422.15664,0.18593
2424.08510,0.18511
2426.01357,0.18389
2427.94204,0.18439
2429.87051,0.18644
2431.79898,0.18775
2433.72745,0.18879
2435.65592,0.19114
2437.58439,0.19299
2439.51285,0.19231
2441.44132,0.19137
2443.36979,0.19225
2445.29826,0.19305
2447.22673,0.19333
2449.15520,0.19469
2451.08367,0.19483
2453.01213,0.19196
2454.94060,0.18922
2456.86907,0.18765
2458.79754,0.18590
2460.72601,0.18506
2462.65448,0.18640
2464.58295,0.18879
2466.51142,0.19012
2468.43988,0.18997
2470.36835,0.18966
2472.29682,0.18935
2474.22529,0.18901
2476.15376,0.18961
2478.08223,0.19000
2480.01070,0.18850
2481.93916,0.18608
2483.86763,0.18502
2485.79610,0.18623
2487.72457,0.18846
2489.65304,0.19009
2491.58151,0.18888
2493.50998,0.18523
2495.43844,0.18473
2497.36691,0.18877
2499.29538,0.19359
2501.22385,0.19579
2503.15232,0.19367
2505.08079,0.19056
2507.00926,0.18862
2508.93773,0.18702
2510.86619,0.18733
2512.79466,0.18762
2514.72313,0.18494
2516.65160,0.18215
2518.58007,0.18189
2520.50854,0.18332
2522.43701,0.18532
2524.36547,0.18691
2526.29394,0.18801
2528.22241,0.18973
2530.15088,0.19132
2532.07935,0.19185
2534.00782,0.19314
2535.93629,0.19692
2537.86476,0.20026
2539.79322,0.19856
2541.72169,0.19321
2543.65016,0.18936
2545.57863,0.18896
2547.50710,0.18913
2549.43557,0.18857
2551.36404,0.19013
2553.29250,0.19253
2555.22097,0.19230
2557.14944,0.19089
2559.07791,0.19075
2561.00638,0.19187
2562.93485,0.19246
2564.86332,0.18987
2566.79179,0.18599
2568.72025,0.18662
2570.64872,0.19124
2572.57719,0.19427
2574.50566,0.19305
2576.43413,0.18829
2578.36260,0.18571
2580.29107,0.18926
2582.21953,0.19317
2584.14800,0.19387
2586.07647,0.19374
2588.00494,0.19285
2589.93341,0.19138
2591.86188,0.19025
2593.79035,0.18958
2595.71882,0.19085
2597.64728,0.19230
2599.57575,0.18963
2601.50422,0.18590
2603.43269,0.18752
2605.36116,0.19219
2607.28963,0.19375
2609.21810,0.19394
2611.14656,0.19686
2613.07503,0.19887
2615.00350,0.19673
2616.93197,0.19381
2618.86044,0.19264
2620.78891,0.19310
2622.71738,0.19402
2624.64585,0.19324
2626.57431,0.19108
2628.50278,0.19112
2630.43125,0.19270
2632.35972,0.19117
2634.28819,0.18911
2636.21666,0.19065
2638.14513,0.19307
2640.07359,0.19382
2642.00206,0.19333
2643.93053,0.19420
2645.85900,0.19678
2647.78747,0.19581
2649.71594,0.19117
2651.64441,0.18953
2653.57288,0.19090
2655.50134,0.19192
2657.42981,0.19351
2659.35828,0.19505
2661.28675,0.19492
2663.21522,0.19399
2665.14369,0.19301
2667.07216,0.19247
2669.00062,0.19519
2670.92909,0.20008
2672.85756,0.20015
2674.78603,0.19507
2676.71450,0.19275
2678.64297,0.19569
2680.57144,0.19755
2682.49990,0.19556
2684.42837,0.19277
2686.35684,0.19141
2688.28531,0.19148
2690.21378,0.19118
2692.14225,0.19027
2694.07072,0.19070
2695.99919,0.19307
2697.92765,0.19530
2699.85612,0.19683
2701.78459,0.19858
2703.71306,0.20010
2705.64153,0.20095
2707.57000,0.20010
2709.49847,0.19771
2711.42693,0.19636
2713.35540,0.19758
2715.28387,0.19826
2717.21234,0.19536
2719.14081,0.19143
2721.06928,0.18922
2722.99775,0.18969
2724.92622,0.19376
2726.85468,0.19981
2728.78315,0.20321
2730.71162,0.20209
2732.64009,0.20036
2734.56856,0.20092
2736.49703,0.20066
2738.42550,0.19741
2740.35396,0.19419
2742.28243,0.19435
2744.21090,0.19885
2746.13937,0.20294
2748.06784,0.20331
2749.99631,0.20259
2751.92478,0.20225
2753.85325,0.20325
2755.78171,0.20507
2757.71018,0.20582
2759.63865,0.20490
2761.56712,0.20322
2763.49559,0.20280
2765.42406,0.20235
2767.35253,0.19754
2769.28099,0.18907
2771.20946,0.18520
2773.13793,0.19071
2775.06640,0.19931
2776.99487,0.20285
2778.92334,0.20125
2780.85181,0.20029
2782.78028,0.20423
2784.70874,0.20922
2786.63721,0.20797
2788.56568,0.20245
2790.49415,0.19900
2792.42262,0.19900
2794.35109,0.20123
2796.27956,0.20301
2798.20802,0.20206
2800.13649,0.20068
2802.06496,0.20100
2803.99343,0.20154
2805.92190,0.20241
2807.85037,0.20428
2809.77884,0.20689
2811.70731,0.20872
2813.63577,0.20829
2815.56424,0.20885
2817.49271,0.21139
2819.42118,0.21134
2821.34965,0.20720
2823.27812,0.20121
2825.20659,0.19698
2827.13505,0.19788
2829.06352,0.20122
2830.99199,0.20181
2832.92046,0.20059
2834.84893,0.20103
2836.77740,0.20284
2838.70587,0.20397
2840.63433,0.20435
2842.56280,0.20396
2844.49127,0.20228
2846.41974,0.20125
2848.34821,0.20333
2850.27668,0.20668
2852.20515,0.20704
2854.13362,0.20369
2856.06208,0.20126
2857.99055,0.20285
2859.91902,0.20340
2861.84749,0.20025
2863.77596,0.19859
2865.70443,0.20126
2867.63290,0.20591
2869.56136,0.20891
2871.48983,0.20920
2873.41830,0.20853
2875.34677,0.20776
2877.27524,0.20657
2879.20371,0.20597
2881.13218,0.20432
2883.06065,0.19809
2884.98911,0.19308
2886.91758,0.19708
2888.84605,0.20531
2890.77452,0.20807
2892.70299,0.20318
2894.63146,0.19512
2896.55993,0.19204
2898.48839,0.19665
2900.41686,0.20092
2902.34533,0.19732
2904.27380,0.18684
2906.20227,0.18057
2908.13074,0.18650
2910.05921,0.19632
2911.98768,0.20058
2913.91614,0.19523
2915.84461,0.18313
2917.77308,0.18101
2919.70155,0.19341
2921.63002,0.20325
2923.55849,0.19785
2925.48696,0.18053
2927.41542,0.17276
2929.34389,0.18465
2931.27236,0.19645
2933.20083,0.19420
2935.12930,0.17972
2937.05777,0.16725
2938.98624,0.17653
2940.91471,0.19670
2942.84317,0.20415
2944.77164,0.19374
2946.70011,0.17175
2948.62858,0.16257
2950.55705,0.17883
2952.48552,0.19686
2954.41399,0.19474
2956.34245,0.17222
2958.27092,0.15684
2960.19939,0.17128
2962.12786,0.19362
2964.05633,0.19999
2965.98480,0.19176
2967.91327,0.18180
2969.84174,0.18678
2971.77020,0.20022
2973.69867,0.20439
2975.62714,0.19695
2977.55561,0.18436
2979.48408,0.18353
2981.41255,0.19753
2983.34102,0.20740
2985.26948,0.20562
2987.19795,0.19722
2989.12642,0.19370
2991.05489,0.20175
2992.98336,0.21156
2994.91183,0.21434
2996.84030,0.20861
2998.76877,0.20054
3000.69723,0.19931
3002.62570,0.20064
3004.55417,0.19734
3006.48264,0.19168
3008.41111,0.18487
3010.33958,0.16755
3012.26805,0.12938
3014.19651,0.08128
3016.12498,0.05625
3018.05345,0.08385
3019.98192,0.14535
3021.91039,0.18915
3023.83886,0.20509
3025.76733,0.20919
3027.69579,0.20557
3029.62426,0.20432
3031.55273,0.20949
3033.48120,0.21214
3035.40967,0.21092
3037.33814,0.20742
3039.26661,0.20491
3041.19508,0.20712
3043.12354,0.20987
3045.05201,0.20645
3046.98048,0.19762
3048.90895,0.19483
3050.83742,0.19954
3052.76589,0.20242
3054.69436,0.19847
3056.62282,0.18684
3058.55129,0.18176
3060.47976,0.19073
3062.40823,0.20105
3064.33670,0.20040
3066.26517,0.18839
3068.19364,0.18464
3070.12211,0.19611
3072.05057,0.20402
3073.97904,0.19529
3075.90751,0.17945
3077.83598,0.18069
3079.76445,0.19846
3081.69292,0.20646
3083.62139,0.19063
3085.54985,0.17092
3087.47832,0.17252
3089.40679,0.18402
3091.33526,0.18737
3093.26373,0.18093
3095.19220,0.17840
3097.12067,0.19234
3099.04914,0.20583
3100.97760,0.20287
3102.90607,0.19034
3104.83454,0.18869
3106.76301,0.20224
3108.69148,0.20956
3110.61995,0.19898
3112.54842,0.18267
3114.47688,0.18390
3116.40535,0.20128
3118.33382,0.21016
3120.26229,0.20132
3122.19076,0.18951
3124.11923,0.19229
3126.04770,0.20126
3127.97617,0.20079
3129.90463,0.19453
3131.83310,0.19478
3133.76157,0.20331
3135.69004,0.21032
3137.61851,0.20781
3139.54698,0.19843
3141.47545,0.19749
3143.40391,0.20842
3145.33238,0.21568
3147.26085,0.21142
3149.18932,0.20403
3151.11779,0.20272
3153.04626,0.20554
3154.97473,0.20619
3156.90320,0.20367
3158.83166,0.20317
3160.76013,0.20642
3162.68860,0.20815
3164.61707,0.20587
3166.54554,0.20515
3168.47401,0.20858
3170.40248,0.20916
3172.33094,0.20596
3174.25941,0.20645
3176.18788,0.21113
3178.11635,0.21481
3180.04482,0.21583
3181.97329,0.21370
3183.90176,0.21186
3185.83022,0.21470
3187.75869,0.21546
3189.68716,0.21074
3191.61563,0.20786
3193.54410,0.20901
3195.47257,0.21236
3197.40104,0.21721
3199.32951,0.21878
3201.25797,0.21660
3203.18644,0.21740
3205.11491,0.22110
3207.04338,0.22172
3208.97185,0.21768
3210.90032,0.21269
3212.82879,0.21219
3214.75725,0.21555
3216.68572,0.21540
3218.61419,0.21194
3220.54266,0.21067
3222.47113,0.21037
3224.39960,0.20802
3226.32807,0.20646
3228.25654,0.20980
3230.18500,0.21114
3232.11347,0.20433
3234.04194,0.20034
3235.97041,0.20603
3237.89888,0.21220
3239.82735,0.21419
3241.75582,0.21460
3243.68428,0.21443
3245.61275,0.21488
3247.54122,0.21331
3249.46969,0.20946
3251.39816,0.20820
3253.32663,0.20819
3255.25510,0.20937
3257.18357,0.21419
3259.11203,0.21834
3261.04050,0.21925
3262.96897,0.21764
3264.89744,0.21178
3266.82591,0.20735
3268.75438,0.21083
3270.68285,0.21316
3272.61131,0.20981
3274.53978,0.20995
3276.46825,0.21366
3278.39672,0.21569
3280.32519,0.21648
3282.25366,0.21558
3284.18213,0.21448
3286.11060,0.21694
3288.03906,0.22133
3289.96753,0.22217
3291.89600,0.21728
3293.82447,0.21053
3295.75294,0.20676
3297.68141,0.20722
3299.60988,0.21285
3301.53834,0.21981
3303.46681,0.22072
3305.39528,0.21841
3307.32375,0.21957
3309.25222,0.22256
3311.18069,0.22134
3313.10916,0.21626
3315.03763,0.21375
3316.96609,0.21487
3318.89456,0.21683
3320.82303,0.21843
3322.75150,0.21742
3324.67997,0.21249
3326.60844,0.21061
3328.53691,0.21627
3330.46537,0.22210
3332.39384,0.22293
3334.32231,0.21965
3336.25078,0.21632
3338.17925,0.21577
3340.10772,0.21612
3342.03619,0.21683
3343.96466,0.21613
3345.89312,0.21170
3347.82159,0.20785
3349.75006,0.20945
3351.67853,0.21357
3353.60700,0.21615
3355.53547,0.21682
3357.46394,0.21643
3359.39240,0.21933
3361.32087,0.22737
3363.24934,0.23163
3365.17781,0.22410
3367.10628,0.21331
3369.03475,0.21104
3370.96322,0.21333
3372.89168,0.21409
3374.82015,0.21705
3376.74862,0.21948
3378.67709,0.21398
3380.60556,0.20718
3382.53403,0.20864
3384.46250,0.21506
3386.39097,0.21746
3388.31943,0.21499
3390.24790,0.21392
3392.17637,0.21565
3394.10484,0.21719
3396.03331,0.21626
3397.96178,0.21346
3399.89025,0.21148
3401.81871,0.21014
3403.74718,0.20823
3405.67565,0.20691
3407.60412,0.20940
3409.53259,0.21323
3411.46106,0.21091
3413.38953,0.20524
3415.31800,0.20397
3417.24646,0.20588
3419.17493,0.20665
3421.10340,0.20656
3423.03187,0.20706
3424.96034,0.20854
3426.88881,0.20880
3428.81728,0.20505
3430.74574,0.20133
3432.67421,0.20149
3434.60268,0.20334
3436.53115,0.20404
3438.45962,0.20112
3440.38809,0.19634
3442.31656,0.19676
3444.24503,0.20408
3446.17349,0.20876
3448.10196,0.20498
3450.03043,0.19909
3451.95890,0.19571
3453.88737,0.19620
3455.81584,0.19771
3457.74431,0.19626
3459.67277,0.19550
3461.60124,0.19550
3463.52971,0.19424
3465.45818,0.19272
3467.38665,0.19093
3469.31512,0.19134
3471.24359,0.19318
3473.17206,0.19596
3475.10052,0.20020
3477.02899,0.19962
3478.95746,0.19536
3480.88593,0.19372
3482.81440,0.19402
3484.74287,0.19682
3486.67134,0.20077
3488.59980,0.20055
3490.52827,0.19625
3492.45674,0.18927
3494.38521,0.18171
3496.31368,0.17796
3498.24215,0.17712
3500.17062,0.17661
3502.09909,0.17947
3504.02755,0.18665
3505.95602,0.19173
3507.88449,0.19170
3509.81296,0.18927
3511.74143,0.18843
3513.66990,0.18775
3515.59837,0.18428
3517.52683,0.18095
3519.45530,0.17964
3521.38377,0.18046
3523.31224,0.18125
3525.24071,0.18030
3527.16918,0.18048
3529.09765,0.17795
3531.02611,0.17137
3532.95458,0.16772
3534.88305,0.16766
3536.81152,0.16822
3538.73999,0.16823
3540.66846,0.16828
3542.59693,0.17086
3544.52540,0.17469
3546.45386,0.17374
3548.38233,0.16822
3550.31080,0.16464
3552.23927,0.16526
3554.16774,0.16710
3556.09621,0.16583
3558.02468,0.16184
3559.95314,0.15967
3561.88161,0.16130
3563.81008,0.16667
3565.73855,0.17331
3567.66702,0.17158
3569.59549,0.16351
3571.52396,0.16107
3573.45243,0.16189
3575.38089,0.15969
3577.30936,0.15799
3579.23783,0.16047
3581.16630,0.16276
3583.09477,0.16352
3585.02324,0.16706
3586.95171,0.17363
3588.88017,0.17279
3590.80864,0.16553
3592.73711,0.16096
3594.66558,0.15817
3596.59405,0.15389
3598.52252,0.15081
3600.45099,0.15223
3602.37946,0.15643
3604.30792,0.15893
3606.23639,0.15804
3608.16486,0.15503
3610.09333,0.15385
3612.02180,0.15602
3613.95027,0.15759
3615.87874,0.15847
3617.80720,0.15981
3619.73567,0.15424
3621.66414,0.14429
3623.59261,0.14314
3625.52108,0.15104
3627.44955,0.15864
3629.37802,0.15701
3631.30649,0.15333
3633.23495,0.15317
3635.16342,0.15251
3637.09189,0.14955
3639.02036,0.14602
3640.94883,0.14312
3642.87730,0.13979
3644.80577,0.13764
3646.73423,0.14092
3648.66270,0.14903
3650.59117,0.15039
3652.51964,0.14347
3654.44811,0.13811
3656.37658,0.13758
3658.30505,0.13730
3660.23352,0.13561
3662.16198,0.13567
3664.09045,0.13749
3666.01892,0.13965
3667.94739,0.14212
3669.87586,0.14605
3671.80433,0.14905
3673.73280,0.15057
3675.66126,0.15098
3677.58973,0.14445
3679.51820,0.13433
3681.44667,0.12918
3683.37514,0.13164
3685.30361,0.13584
3687.23208,0.13680
3689.16055,0.13727
3691.08901,0.14110
3693.01748,0.14193
3694.94595,0.13880
3696.87442,0.13547
3698.80289,0.13402
3700.73136,0.13432
3702.65983,0.13324
3704.58829,0.13048
3706.51676,0.13057
3708.44523,0.13371
3710.37370,0.13975
3712.30217,0.14606
3714.23064,0.14341
3716.15911,0.13814
3718.08757,0.13764
3720.01604,0.14028
3721.94451,0.13965
3723.87298,0.13424
3725.80145,0.12913
3727.72992,0.13011
3729.65839,0.13650
3731.58686,0.14229
3733.51532,0.14704
3735.44379,0.15267
3737.37226,0.15078
3739.30073,0.14374
3741.22920,0.13722
3743.15767,0.13049
3745.08614,0.12795
3747.01460,0.13328
3748.94307,0.13800
3750.87154,0.13786
3752.80001,0.13251
3754.72848,0.12645
3756.65695,0.12216
3758.58542,0.12046
3760.51389,0.12205
3762.44235,0.12564
3764.37082,0.12929
3766.29929,0.13332
3768.22776,0.13873
3770.15623,0.13664
3772.08470,0.12493
3774.01317,0.11937
3775.94163,0.12280
3777.87010,0.12706
3779.79857,0.12702
3781.72704,0.12702
3783.65551,0.12999
3785.58398,0.13055
3787.51245,0.12651
3789.44092,0.12539
3791.36938,0.12704
3793.29785,0.12539
3795.22632,0.12567
3797.15479,0.13262
3799.08326,0.14306
3801.01173,0.15208
3802.94020,0.14692
3804.86866,0.13758
3806.79713,0.13329
3808.72560,0.12998
3810.65407,0.12722
3812.58254,0.12614
3814.51101,0.12764
3816.43948,0.12868
3818.36795,0.12734
3820.29641,0.12849
3822.22488,0.12984
3824.15335,0.12970
3826.08182,0.12950
3828.01029,0.13034
3829.93876,0.13484
3831.86723,0.13739
3833.79569,0.13378
3835.72416,0.13102
3837.65263,0.13340
3839.58110,0.13524
3841.50957,0.13030
3843.43804,0.12308
3845.36651,0.12021
3847.29498,0.12299
3849.22344,0.12659
3851.15191,0.12436
3853.08038,0.11980
3855.00885,0.12348
3856.93732,0.12148
3858.86579,0.11910
3860.79426,0.12569
3862.72272,0.13201
3864.65119,0.12578
3866.57966,0.11785
3868.50813,0.11562
3870.43660,0.11804
3872.36507,0.12532
3874.29354,0.13015
3876.22200,0.12920
3878.15047,0.12956
3880.07894,0.13344
3882.00741,0.13463
3883.93588,0.13138
3885.86435,0.12563
3887.79282,0.12271
3889.72129,0.12514
3891.64975,0.12712
3893.57822,0.12602
3895.50669,0.12762
3897.43516,0.13070
3899.36363,0.12741
3901.29210,0.11916
3903.22057,0.11891
3905.14903,0.12293
3907.07750,0.12229
3909.00597,0.12090
3910.93444,0.11830
3912.86291,0.11115
3914.79138,0.10518
3916.71985,0.10841
3918.64832,0.11507
3920.57678,0.11501
3922.50525,0.11143
3924.43372,0.11075
3926.36219,0.11320
3928.29066,0.11446
3930.21913,0.11282
3932.14760,0.11005
3934.07606,0.10996
3936.00453,0.11225
3937.93300,0.11292
3939.86147,0.11098
3941.78994,0.10971
3943.71841,0.11052
3945.64688,0.10874
3947.57535,0.10501
3949.50381,0.10534
3951.43228,0.10742
3953.36075,0.10634
3955.28922,0.10530
3957.21769,0.10765
3959.14616,0.11100
3961.07463,0.11282
3963.00309,0.11266
3964.93156,0.11206
3966.86003,0.11329
3968.78850,0.11573
3970.71697,0.11650
3972.64544,0.11376
3974.57391,0.10803
3976.50238,0.10168
3978.43084,0.09891
3980.35931,0.09836
3982.28778,0.09622
3984.21625,0.09598
3986.14472,0.09993
3988.07319,0.10362
3990.00166,0.10556
3991.93012,0.10787
3993.85859,0.10591
3995.78706,0.09896
3997.71553,0.09599
3999.64400,0.09915
4001.57247,0.10630
4003.50094,0.11276
4005.42941,0.10996
4007.35787,0.10161
4009.28634,0.09967
4011.21481,0.10389
4013.14328,0.10844
4015.07175,0.11197
4017.00022,0.11075
4018.92869,0.10552
4020.85715,0.10241
4022.78562,0.10177
4024.71409,0.10103
4026.64256,0.09828
4028.57103,0.09573
4030.49950,0.09644
4032.42797,0.09642
4034.35644,0.09260
4036.28490,0.09065
4038.21337,0.09421
4040.14184,0.09783
4042.07031,0.10094
4043.99878,0.10614
4045.92725,0.10768
4047.85572,0.10359
4049.78418,0.09811
4051.71265,0.09494
4053.64112,0.09654
4055.56959,0.10020
4057.49806,0.10091
4059.42653,0.09716
4061.35500,0.09273
4063.28346,0.09074
4065.21193,0.09086
4067.14040,0.09227
4069.06887,0.09156
4070.99734,0.08926
4072.92581,0.09020
4074.85428,0.09316
4076.78275,0.09563
4078.71121,0.09791
4080.63968,0.09777
4082.56815,0.09507
4084.49662,0.09219
4086.42509,0.08905
4088.35356,0.08895
4090.28203,0.09273
4092.21049,0.09287
4094.13896,0.08969
4096.06743,0.08857
4097.99590,0.08822
4099.92437,0.09039
4101.85284,0.09612
4103.78131,0.09729
4105.70978,0.09253
4107.63824,0.09060
4109.56671,0.09295
4111.49518,0.09310
4113.42365,0.08955
4115.35212,0.08878
4117.28059,0.09481
4119.20906,0.09925
4121.13752,0.09498
4123.06599,0.08896
4124.99446,0.08548
4126.92293,0.08150
4128.85140,0.07878
4130.77987,0.08010
4132.70834,0.08096
4134.63681,0.07790
4136.56527,0.07607
4138.49374,0.07609
4140.42221,0.07584
4142.35068,0.07911
4144.27915,0.08338
4146.20762,0.08375
4148.13609,0.08435
4150.06455,0.08666
4151.99302,0.08800
4153.92149,0.08878
4155.84996,0.08625
4157.77843,0.08427
4159.70690,0.09006
4161.63537,0.09291
4163.56384,0.08653
4165.49230,0.08207
4167.42077,0.08252
4169.34924,0.08221
4171.27771,0.08447
4173.20618,0.09057
4175.13465,0.09236
4177.06312,0.08998
4178.99158,0.08712
4180.92005,0.08026
4182.84852,0.07109
4184.77699,0.06816
4186.70546,0.07007
4188.63393,0.06912
4190.56240,0.06888
4192.49087,0.07575
4194.41933,0.08236
4196.34780,0.08089
4198.27627,0.07845
4200.20474,0.08103
4202.13321,0.08388
4204.06168,0.08236
4205.99015,0.07705
4207.91861,0.07280
4209.84708,0.07317
4211.77555,0.07557
4213.70402,0.07276
4215.63249,0.06714
4217.56096,0.06602
4219.48943,0.06639
4221.41789,0.06761
4223.34636,0.07102
4225.27483,0.07387
4227.20330,0.07512
4229.13177,0.07491
4231.06024,0.07404
4232.98871,0.07438
4234.91718,0.07705
4236.84564,0.07889
4238.77411,0.07918
4240.70258,0.07926
4242.63105,0.07532
4244.55952,0.06604
4246.48799,0.05710
4248.41646,0.05775
4250.34492,0.06564
4252.27339,0.06934
4254.20186,0.06873
4256.13033,0.06423
4258.05880,0.05504
4259.98727,0.05124
4261.91574,0.05484
4263.84421,0.05712
4265.77267,0.05614
4267.70114,0.05310
4269.62961,0.05259
4271.55808,0.05971
4273.48655,0.06632
4275.41502,0.06104
4277.34349,0.05216
4279.27195,0.05732
4281.20042,0.06994
4283.12889,0.07191
4285.05736,0.06418
4286.98583,0.05828
4288.91430,0.06059
4290.84277,0.06589
4292.77124,0.06492
4294.69970,0.06002
4296.62817,0.05850
4298.55664,0.05627
4300.48511,0.05314
4302.41358,0.05769
4304.34205,0.06425
4306.27052,0.06392
4308.19898,0.05855
4310.12745,0.05281
4312.05592,0.05126
4313.98439,0.05298
4315.91286,0.05314
4317.84133,0.05158
4319.76980,0.04850
4321.69827,0.04604
4323.62673,0.05119
4325.55520,0.05749
4327.48367,0.05438
4329.41214,0.04742
4331.34061,0.04527
4333.26908,0.04933
4335.19755,0.05656
4337.12601,0.06349
4339.05448,0.06520
4340.98295,0.06232
4342.91142,0.05872
4344.83989,0.04993
4346.76836,0.03836
4348.69683,0.03338
4350.62530,0.03581
4352.55376,0.04248
4354.48223,0.04897
4356.41070,0.04948
4358.33917,0.04638
4360.26764,0.04638
4362.19611,0.04845
4364.12458,0.05215
4366.05304,0.05582
4367.98151,0.05164
4369.90998,0.04202
4371.83845,0.03578
4373.76692,0.03603
4375.69539,0.03861
4377.62386,0.03503
4379.55232,0.03056
4381.48079,0.03607
4383.40926,0.04642
4385.33773,0.05135
4387.26620,0.04690
4389.19467,0.03658
4391.12314,0.03113
4393.05161,0.03404
4394.98007,0.03667
4396.90854,0.03736
4398.83701,0.03826
4400.76548,0.03751
4402.69395,0.03962
4404.62242,0.04331
4406.55089,0.04200
4408.47935,0.03804
4410.40782,0.03543
4412.33629,0.03604
4414.26476,0.03477
4416.19323,0.02818
4418.12170,0.02737
4420.05017,0.03477
4421.97864,0.04007
4423.90710,0.04156
4425.83557,0.03862
4427.76404,0.02927
4429.69251,0.02170
4431.62098,0.02375
4433.54945,0.02714
4435.47792,0.02062
4437.40638,0.01074
4439.33485,0.00751
4441.26332,0.00982
4443.19179,0.01367
4445.12026,0.01988
4447.04873,0.02943
4448.97720,0.03615
4450.90567,0.03723
4452.83413,0.03509
4454.76260,0.03336
4456.69107,0.03770
4458.61954,0.04252
4460.54801,0.03735
4462.47648,0.02679
4464.40495,0.02172
4466.33341,0.01981
4468.26188,0.01442
4470.19035,0.01385
4472.11882,0.02175
4474.04729,0.02503
4475.97576,0.02003
4477.90423,0.01451
4479.83270,0.01368
4481.76116,0.01983
4483.68963,0.02750
4485.61810,0.02462
4487.54657,0.01322
4489.47504,0.00911
4491.40351,0.01633
4493.33198,0.02650
4495.26044,0.03162
4497.18891,0.02986
4499.11738,0.02528
4501.04585,0.02143
4502.97432,0.01887
4504.90279,0.01464
4506.83126,0.00717
4508.75973,0.00418
4510.68819,0.01257
4512.61666,0.02323
4514.54513,0.02444
4516.47360,0.02036
4518.40207,0.01654
4520.33054,0.01420
4522.25901,0.01545
4524.18747,0.01555
4526.11594,0.01153
4528.04441,0.01046
4529.97288,0.01690
4531.90135,0.02212
4533.82982,0.01949
4535.75829,0.01993
4537.68676,0.02940
4539.61522,0.03813
4541.54369,0.03673
4543.47216,0.02219
4545.40063,0.00270
4547.32910,-0.00592
4549.25757,-0.00057
4551.18604,0.00520
4553.11450,0.00483
4555.04297,0.00796
4556.97144,0.02247
4558.89991,0.03906
4560.82838,0.04108
4562.75685,0.03231
4564.68532,0.02554
4566.61378,0.01905
4568.54225,0.01096
4570.47072,0.00529
4572.39919,0.00388
4574.32766,0.00649
4576.25613,0.01226
4578.18460,0.01732
4580.11307,0.01694
4582.04153,0.01596
4583.97000,0.02150
4585.89847,0.02646
4587.82694,0.02408
4589.75541,0.01970
4591.68388,0.01776
4593.61235,0.02116
4595.54081,0.02540
4597.46928,0.02042
4599.39775,0.00801
4601.32622,-0.00564
4603.25469,-0.01097
4605.18316,0.00060
4607.11163,0.01591
4609.04010,0.01872
4610.96856,0.01397
4612.89703,0.01056
4614.82550,0.00542
4616.75397,-0.00147
4618.68244,-0.00146
4620.61091,0.00653
4622.53938,0.01378
4624.46784,0.01628
4626.39631,0.01986
4628.32478,0.02365
4630.25325,0.01720
4632.18172,0.00740
4634.11019,0.00583
4636.03866,0.00133
4637.96713,-0.00736
4639.89559,-0.00359
4641.82406,0.00907
4643.75253,0.01475
4645.68100,0.01337
4647.60947,0.00744
4649.53794,-0.00480
4651.46641,-0.01449
4653.39487,-0.01381
4655.32334,-0.00487
4657.25181,0.00713
4659.18028,0.01151
4661.10875,0.00411
4663.03722,-0.00340
4664.96569,-0.00277
4666.89416,-0.00220
4668.82262,-0.01148
4670.75109,-0.01995
4672.67956,-0.01368
4674.60803,0.00441
4676.53650,0.02073
4678.46497,0.02169
4680.39344,0.00773
4682.32190,-0.00525
4684.25037,-0.00281
4686.17884,0.00750
4688.10731,0.01148
4690.03578,0.01153
4691.96425,0.01164
4693.89272,0.01343
4695.82119,0.01119
4697.74965,0.00335
4699.67812,-0.00133
4701.60659,-0.00373
4703.53506,-0.00923
4705.46353,-0.01506
4707.39200,-0.02034
4709.32047,-0.02128
4711.24893,-0.01152
4713.17740,-0.00038
4715.10587,0.00460
4717.03434,0.01012
4718.96281,0.01171
4720.89128,0.00771
4722.81975,0.00594
4724.74821,0.00413
4726.67668,0.00231
4728.60515,0.00403
4730.53362,0.00932
4732.46209,0.01498
4734.39056,0.01506
4736.31903,0.01368
4738.24750,0.01649
4740.17596,0.01636
4742.10443,0.00856
4744.03290,0.00101
4745.96137,0.00508
4747.88984,0.01923
4749.81831,0.02205
4751.74678,0.00938
4753.67524,-0.00105
4755.60371,0.00214
4757.53218,0.01884
4759.46065,0.02724
4761.38912,0.01867
4763.31759,0.01414
4765.24606,0.01476
4767.17453,0.00716
4769.10299,0.00060
4771.03146,0.00859
4772.95993,0.01596
4774.88840,0.01164
4776.81687,0.01163
4778.74534,0.01497
4780.67381,0.00963
4782.60227,0.00452
4784.53074,0.00596
4786.45921,0.00777
4788.38768,0.00532
4790.31615,0.00124
4792.24462,0.00167
4794.17309,0.00259
4796.10156,0.00154
4798.03002,0.00208
4799.95849,-0.00082
4801.88696,-0.00828
4803.81543,-0.00818
4805.74390,0.00417
4807.67237,0.01299
4809.60084,0.00931
4811.52930,0.00200
4813.45777,-0.00425
4815.38624,-0.00346
4817.31471,0.00628
4819.24318,0.00921
4821.17165,0.00142
4823.10012,-0.00843
4825.02859,-0.01665
4826.95705,-0.01754
4828.88552,-0.00806
4830.81399,0.00496
4832.74246,0.00565
4834.67093,-0.00476
4836.59940,0.00167
4838.52787,0.02651
4840.45633,0.04073
4842.38480,0.02996
4844.31327,0.00789
4846.24174,-0.00041
4848.17021,0.00385
4850.09868,0.00532
4852.02715,0.00633
4853.95562,0.00834
4855.88408,0.01022
4857.81255,0.01368
4859.74102,0.01793
4861.66949,0.02424
4863.59796,0.02542
4865.52643,0.01592
4867.45490,0.00519
4869.38336,-0.00382
4871.31183,-0.01205
4873.24030,-0.01114
4875.16877,0.00408
4877.09724,0.02419
4879.02571,0.03105
4880.95418,0.01581
4882.88265,-0.00490
4884.81111,-0.00966
4886.73958,-0.00659
4888.66805,-0.00507
4890.59652,-0.00064
4892.52499,0.00113
4894.45346,0.00341
4896.38193,0.01060
4898.31039,0.01382
4900.23886,0.02149
4902.16733,0.03940
4904.09580,0.04415
4906.02427,0.02955
4907.95274,0.01589
4909.88121,0.01096
4911.80967,0.01256
4913.73814,0.01038
4915.66661,0.00271
4917.59508,0.00829
4919.52355,0.02966
4921.45202,0.04183
4923.38049,0.03114
4925.30896,0.01100
4927.23742,-0.00177
4929.16589,-0.00194
4931.09436,0.00435
4933.02283,0.00578
4934.95130,0.00304
4936.87977,0.00588
4938.80824,0.00792
4940.73670,0.00115
4942.66517,0.00038
4944.59364,0.01559
4946.52211,0.03630
4948.45058,0.04804
4950.37905,0.04606
4952.30752,0.03743
4954.23599,0.03256
4956.16445,0.03232
4958.09292,0.02568
4960.02139,0.01040
4961.94986,0.00101
4963.87833,0.00854
4965.80680,0.02437
4967.73527,0.03185
4969.66373,0.02905
4971.59220,0.02053
4973.52067,0.00915
4975.44914,0.00456
4977.37761,0.00372
4979.30608,-0.00160
4981.23455,-0.00268
4983.16302,-0.00009
4985.09148,0.00142
4987.01995,0.00864
4988.94842,0.02085
4990.87689,0.02951
4992.80536,0.02770
4994.73383,0.01090
4996.66230,-0.00573
4998.59076,0.00199
5000.51923,0.02153
5002.44770,0.02883
5004.37617,0.02134
5006.30464,0.01272
5008.23311,0.01702
5010.16158,0.03401
5012.09005,0.05297
5014.01851,0.05694
5015.94698,0.04390
5017.87545,0.02260
5019.80392,-0.00376
5021.73239,-0.02050
5023.66086,-0.01709
5025.58933,0.00096
5027.51779,0.02210
5029.44626,0.03409
5031.37473,0.03460
5033.30320,0.02544
5035.23167,0.01545
5037.16014,0.01640
5039.08861,0.02353
5041.01708,0.03417
5042.94554,0.04729
5044.87401,0.04621
5046.80248,0.03024
5048.73095,0.01729
5050.65942,0.01252
5052.58789,0.00917
5054.51636,0.00308
5056.44482,-0.00095
5058.37329,0.00103
5060.30176,-0.00072
5062.23023,-0.01173
5064.15870,-0.01373
5066.08717,0.00430
5068.01564,0.02208
5069.94410,0.01667
5071.87257,0.00061
5073.80104,0.00232
5075.72951,0.01342
5077.65798,0.00789
5079.58645,-0.00195
5081.51492,0.00865
5083.44339,0.02312
5085.37185,0.02228
5087.30032,0.01656
5089.22879,0.01677
5091.15726,0.03161
5093.08573,0.05520
5095.01420,0.05701
5096.94267,0.03022
5098.87113,0.00347
5100.79960,-0.00206
5102.72807,0.01042
5104.65654,0.02298
5106.58501,0.02421
5108.51348,0.02020
5110.44195,0.01845
5112.37042,0.02135
5114.29888,0.02511
5116.22735,0.02794
5118.15582,0.03839
5120.08429,0.04969
5122.01276,0.04652
5123.94123,0.03724
5125.86970,0.03264
5127.79816,0.03313
5129.72663,0.04467
5131.65510,0.05740
5133.58357,0.04638
5135.51204,0.02328
5137.44051,0.02047
5139.36898,0.02576
5141.29745,0.02044
5143.22591,0.02482
5145.15438,0.04186
5147.08285,0.04274
5149.01132,0.01994
5150.93979,0.00275
5152.86826,0.01075
5154.79673,0.03015
5156.72519,0.04660
5158.65366,0.04698
5160.58213,0.03129
5162.51060,0.01675
5164.43907,0.00347
5166.36754,-0.00507
5168.29601,0.00385
5170.22448,0.01878
5172.15294,0.02496
5174.08141,0.02904
5176.00988,0.03974
5177.93835,0.05187
5179.86682,0.05677
5181.79529,0.05510
5183.72376,0.04794
5185.65222,0.03383
5187.58069,0.02380
5189.50916,0.03248
5191.43763,0.05149
5193.36610,0.05651
5195.29457,0.04829
5197.22304,0.04296
5199.15151,0.03886
5201.07997,0.03588
5203.00844,0.04025
5204.93691,0.05042
5206.86538,0.05579
5208.79385,0.03751
5210.72232,0.00558
5212.65079,-0.00231
5214.57925,0.02414
5216.50772,0.06220
5218.43619,0.09441
5220.36466,0.10467
5222.29313,0.09223
5224.22160,0.08852
5226.15007,0.09890
5228.07854,0.09399
5230.00700,0.07988
5231.93547,0.07245
5233.86394,0.06822
5235.79241,0.06564
5237.72088,0.05910
5239.64935,0.04501
5241.57782,0.03926
5243.50628,0.05672
5245.43475,0.07696
5247.36322,0.07929
5249.29169,0.07701
5251.22016,0.07275
5253.14863,0.06282
5255.07710,0.05744
5257.00556,0.05950
5258.93403,0.05408
5260.86250,0.04388
5262.79097,0.05076
5264.71944,0.06608
5266.64791,0.07144
5268.57638,0.06871
5270.50485,0.05691
5272.43331,0.03913
5274.36178,0.03005
5276.29025,0.03762
5278.21872,0.05393
5280.14719,0.07092
5282.07566,0.08919
5284.00413,0.10470
5285.93259,0.10169
5287.86106,0.08574
5289.78953,0.07309
5291.71800,0.05040
5293.64647,0.02124
5295.57494,0.02034
5297.50341,0.03990
5299.43188,0.04745
5301.36034,0.05428
5303.28881,0.06169
5305.21728,0.05434
5307.14575,0.05237
5309.07422,0.05984
5311.00269,0.06050
5312.93116,0.06087
5314.85962,0.06657
5316.78809,0.05815
5318.71656,0.03343
5320.64503,0.03433
5322.57350,0.06621
5324.50197,0.08678
5326.43044,0.08213
5328.35891,0.06428
5330.28737,0.05040
5332.21584,0.04944
5334.14431,0.04044
5336.07278,0.02787
5338.00125,0.03894
5339.92972,0.04573
5341.85819,0.03457
5343.78665,0.04866
5345.71512,0.08925
5347.64359,0.10339
5349.57206,0.09320
5351.50053,0.08966
5353.42900,0.08065
5355.35747,0.04924
5357.28594,0.03272
5359.21440,0.04070
5361.14287,0.04831
5363.07134,0.05110
5364.99981,0.05206
5366.92828,0.05246
5368.85675,0.05833
5370.78522,0.06695
5372.71368,0.06934
5374.64215,0.05878
5376.57062,0.04919
5378.49909,0.05559
5380.42756,0.06551
5382.35603,0.07381
5384.28450,0.06735
5386.21297,0.03491
5388.14143,0.02679
5390.06990,0.05773
5391.99837,0.07438
5393.92684,0.06200
5395.85531,0.05341
5397.78378,0.05638
5399.71225,0.06506
5401.64071,0.07126
5403.56918,0.06419
5405.49765,0.05241
5407.42612,0.04959
5409.35459,0.04977
5411.28306,0.03975
5413.21153,0.02675
5415.13999,0.02666
5417.06846,0.03340
5418.99693,0.03730
5420.92540,0.03819
5422.85387,0.04377
5424.78234,0.05670
5426.71081,0.06403
5428.63928,0.06551
5430.56774,0.07392
5432.49621,0.08486
5434.42468,0.08949
5436.35315,0.08120
5438.28162,0.07163
5440.21009,0.07450
5442.13856,0.07126
5444.06702,0.04072
5445.99549,0.00972
5447.92396,0.02209
5449.85243,0.06321
5451.78090,0.09383
5453.70937,0.11091
5455.63784,0.10991
5457.56631,0.07965
5459.49477,0.04667
5461.42324,0.03581
5463.35171,0.04034
5465.28018,0.05515
5467.20865,0.07805
5469.13712,0.09760
5471.06559,0.09970
5472.99405,0.09028
5474.92252,0.08899
5476.85099,0.10077
5478.77946,0.10982
5480.70793,0.09804
5482.63640,0.06220
5484.56487,0.02941
5486.49334,0.03814
5488.42180,0.07813
5490.35027,0.08866
5492.27874,0.06307
5494.20721,0.04281
5496.13568,0.03452
5498.06415,0.04410
5499.99262,0.07279
5501.92108,0.09133
5503.84955,0.08876
5505.77802,0.08583
5507.70649,0.09880
5509.63496,0.10339
5511.56343,0.07747
5513.49190,0.04512
5515.42037,0.03588
5517.34883,0.05161
5519.27730,0.07612
5521.20577,0.09163
5523.13424,0.08764
5525.06271,0.07295
5526.99118,0.07392
5528.91965,0.08637
5530.84811,0.08882
5532.77658,0.08952
5534.70505,0.09633
5536.63352,0.11252
5538.56199,0.13607
5540.49046,0.13439
5542.41893,0.10136
5544.34740,0.07743
5546.27586,0.07024
5548.20433,0.06326
5550.13280,0.06520
5552.06127,0.07419
5553.98974,0.07572
5555.91821,0.07525
5557.84668,0.07879
5559.77514,0.09090
5561.70361,0.10516
5563.63208,0.09746
5565.56055,0.08654
5567.48902,0.10197
5569.41749,0.12078
5571.34596,0.11715
5573.27443,0.08703
5575.20289,0.05446
5577.13136,0.04501
5579.05983,0.04897
5580.98830,0.06312
5582.91677,0.07328
5584.84524,0.06165
5586.77371,0.05378
5588.70217,0.06719
5590.63064,0.09814
5592.55911,0.13008
5594.48758,0.12574
5596.41605,0.08268
5598.34452,0.04404
5600.27299,0.04093
5602.20145,0.06350
5604.12992,0.08263
5606.05839,0.09373
5607.98686,0.10886
5609.91533,0.11809
5611.84380,0.09571
5613.77227,0.06186
5615.70074,0.07077
5617.62920,0.11031
5619.55767,0.12956
5621.48614,0.12518
5623.41461,0.12113
5625.34308,0.12413
5627.27155,0.12776
5629.20002,0.12439
5631.12848,0.11685
5633.05695,0.10861
5634.98542,0.08940
5636.91389,0.06079
5638.84236,0.02903
5640.77083,-0.00827
5642.69930,-0.02450
5644.62777,0.01440
5646.55623,0.08216
5648.48470,0.10464
5650.41317,0.06758
5652.34164,0.03582
5654.27011,0.05536
5656.19858,0.09226
5658.12705,0.10573
5660.05551,0.10900
5661.98398,0.10666
5663.91245,0.08521
5665.84092,0.05694
5667.76939,0.03764
5669.69786,0.04262
5671.62633,0.07133
5673.55480,0.08944
5675.48326,0.08587
5677.41173,0.08559
5679.34020,0.09725
5681.26867,0.10120
5683.19714,0.08131
5685.12561,0.06207
5687.05408,0.08059
5688.98254,0.11518
5690.91101,0.12555
5692.83948,0.12410
5694.76795,0.11976
5696.69642,0.10324
5698.62489,0.08838
5700.55336,0.08526
5702.48183,0.08845
5704.41029,0.10076
5706.33876,0.11649
5708.26723,0.12090
5710.19570,0.11911
5712.12417,0.11767
5714.05264,0.09600
5715.98111,0.04571
5717.90957,0.00676
5719.83804,0.01179
5721.76651,0.04052
5723.69498,0.07490
5725.62345,0.10447
5727.55192,0.11060
5729.48039,0.11199
5731.40886,0.11762
5733.33732,0.09190
5735.26579,0.05379
5737.19426,0.04771
5739.12273,0.03376
5741.05120,-0.00152
5742.97967,-0.01027
5744.90814,0.01105
5746.83660,0.03682
5748.76507,0.04252
5750.69354,0.04124
5752.62201,0.05879
5754.55048,0.06634
5756.47895,0.06548
5758.40742,0.08511
5760.33588,0.10871
5762.26435,0.10881
5764.19282,0.09069
5766.12129,0.09367
5768.04976,0.12372
5769.97823,0.14334
5771.90670,0.13832
5773.83517,0.12286
5775.76363,0.10344
5777.69210,0.07427
5779.62057,0.05566
5781.54904,0.08219
5783.47751,0.13927
5785.40598,0.18094
5787.33445,0.18803
5789.26291,0.16944
5791.19138,0.13605
5793.11985,0.10215
5795.04832,0.07428
5796.97679,0.05245
5798.90526,0.04639
5800.83373,0.05732
5802.76220,0.07636
5804.69066,0.09315
5806.61913,0.10187
5808.54760,0.10593
5810.47607,0.10345
5812.40454,0.09321
5814.33301,0.08013
5816.26148,0.06579
5818.18994,0.04396
5820.11841,0.00862
5822.04688,-0.01659
5823.97535,-0.00299
5825.90382,0.04992
5827.83229,0.12027
5829.76076,0.16787
5831.68923,0.17431
5833.61769,0.13654
5835.54616,0.06215
5837.47463,0.00787
5839.40310,0.00698
5841.33157,0.03499
5843.26004,0.06864
5845.18851,0.07976
5847.11697,0.05049
5849.04544,0.03108
5850.97391,0.06983
5852.90238,0.10001
5854.83085,0.06592
5856.75932,0.03979
5858.68779,0.07725
5860.61626,0.12083
5862.54472,0.11427
5864.47319,0.08116
5866.40166,0.07437
5868.33013,0.07107
5870.25860,0.04354
5872.18707,0.04565
5874.11554,0.08950
5876.04400,0.12090
5877.97247,0.13283
5879.90094,0.14208
5881.82941,0.13622
5883.75788,0.12607
5885.68635,0.12829
5887.61482,0.11898
5889.54329,0.07718
5891.47175,0.03714
5893.40022,0.04193
5895.32869,0.07884
5897.25716,0.10314
5899.18563,0.12088
5901.11410,0.13949
5903.04257,0.10858
5904.97103,0.05315
5906.89950,0.03343
5908.82797,0.03649
5910.75644,0.03651
5912.68491,0.02268
5914.61338,0.00960
5916.54185,0.01262
5918.47032,0.01190
5920.39878,-0.00580
5922.32725,-0.00366
5924.25572,0.04887
5926.18419,0.10044
5928.11266,0.10194
5930.04113,0.08526
5931.96960,0.08608
5933.89806,0.09496
5935.82653,0.08244
5937.75500,0.06862
5939.68347,0.09931
5941.61194,0.13144
5943.54041,0.10349
5945.46888,0.06867
5947.39734,0.08845
5949.32581,0.13566
5951.25428,0.15734
5953.18275,0.14220
5955.11122,0.10850
5957.03969,0.08005
5958.96816,0.07858
5960.89663,0.10151
5962.82509,0.11232
5964.75356,0.10550
5966.68203,0.10450
5968.61050,0.09889
5970.53897,0.08530
5972.46744,0.08460
5974.39591,0.09470
5976.32437,0.11663
5978.25284,0.14220
5980.18131,0.14172
5982.10978,0.12466
5984.03825,0.12654
5985.96672,0.16031
5987.89519,0.18913
5989.82366,0.14197
5991.75212,0.06529
5993.68059,0.07369
5995.60906,0.13598
5997.53753,0.15939
5999.46600,0.15338
6001.39447,0.14967
6003.32294,0.14352
6005.25140,0.11530
6007.17987,0.05570
6009.10834,0.00879
6011.03681,0.03613
6012.96528,0.10632
6014.89375,0.14419
6016.82222,0.14970
6018.75069,0.14438
6020.67915,0.10972
6022.60762,0.06473
6024.53609,0.04482
6026.46456,0.06503
6028.39303,0.11734
6030.32150,0.14088
6032.24997,0.11699
6034.17843,0.08602
6036.10690,0.07573
6038.03537,0.08809
6039.96384,0.11077
6041.89231,0.11974
6043.82078,0.09232
6045.74925,0.05497
6047.67772,0.04676
6049.60618,0.08217
6051.53465,0.11865
6053.46312,0.10866
6055.39159,0.08531
6057.32006,0.08336
6059.24853,0.09590
6061.17700,0.10797
6063.10546,0.08761
6065.03393,0.04804
6066.96240,0.06199
6068.89087,0.12702
6070.81934,0.14072
6072.74781,0.10121
6074.67628,0.10660
6076.60475,0.12981
6078.53321,0.10432
6080.46168,0.07114
6082.39015,0.06204
6084.31862,0.07873
6086.24709,0.11866
6088.17556,0.11926
6090.10403,0.07847
6092.03249,0.06452
6093.96096,0.04467
6095.88943,0.00055
6097.81790,0.01554
6099.74637,0.08438
6101.67484,0.11961
6103.60331,0.10779
6105.53177,0.10265
6107.46024,0.10871
6109.38871,0.06954
6111.31718,0.00257
6113.24565,0.00771
6115.17412,0.09169
6117.10259,0.13741
6119.03106,0.09668
6120.95952,0.07533
6122.88799,0.09121
6124.81646,0.08205
6126.74493,0.06571
6128.67340,0.07027
6130.60187,0.10307
6132.53034,0.13803
6134.45880,0.10336
6136.38727,0.03900
6138.31574,0.05531
6140.24421,0.12016
6142.17268,0.13440
6144.10115,0.11900
6146.02962,0.10215
6147.95809,0.05196
6149.88655,0.00394
6151.81502,0.02411
6153.74349,0.08589
6155.67196,0.10755
6157.60043,0.09184
6159.52890,0.08455
6161.45737,0.07202
6163.38583,0.04727
6165.31430,0.03615
6167.24277,0.04940
6169.17124,0.09871
6171.09971,0.14782
6173.02818,0.15890
6174.95665,0.18415
6176.88512,0.20577
6178.81358,0.17425
6180.74205,0.15230
6182.67052,0.15782
6184.59899,0.16296
6186.52746,0.16717
6188.45593,0.15078
6190.38440,0.14057
6192.31286,0.15996
6194.24133,0.16406
6196.16980,0.14167
6198.09827,0.09884
6200.02674,0.06815
6201.95521,0.11537
6203.88368,0.18940
6205.81215,0.18343
6207.74061,0.11771
6209.66908,0.05866
6211.59755,0.06166
6213.52602,0.11080
6215.45449,0.12639
6217.38296,0.10071
6219.31143,0.08388
6221.23989,0.06784
6223.16836,0.04295
6225.09683,0.06367
6227.02530,0.11785
6228.95377,0.11972
6230.88224,0.09393
6232.81071,0.11276
6234.73918,0.12996
6236.66764,0.09887
6238.59611,0.06379
6240.52458,0.04577
6242.45305,0.01462
6244.38152,-0.02793
6246.30999,-0.04921
6248.23846,-0.02513
6250.16692,0.01669
6252.09539,0.03437
6254.02386,0.04937
6255.95233,0.04406
6257.88080,0.01681
6259.80927,0.03526
6261.73774,0.07018
6263.66621,0.06674
6265.59467,0.05325
6267.52314,0.03924
6269.45161,0.03129
6271.38008,0.05619
6273.30855,0.08299
6275.23702,0.07599
6277.16549,0.04580
6279.09395,0.02347
6281.02242,0.03370
6282.95089,0.05129
6284.87936,0.06048
6286.80783,0.07091
6288.73630,0.06552
6290.66477,0.04749
6292.59323,0.03920
6294.52170,0.04025
6296.45017,0.05082
6298.37864,0.08038
6300.30711,0.11176
6302.23558,0.10308
6304.16405,0.08600
6306.09252,0.10795
6308.02098,0.12863
6309.94945,0.11708
6311.87792,0.08480
6313.80639,0.04140
6315.73486,0.00177
6317.66333,0.00191
6319.59180,0.07122
6321.52026,0.15029
6323.44873,0.15337
6325.37720,0.11859
6327.30567,0.09774
6329.23414,0.07277
6331.16261,0.06444
6333.09108,0.08299
6335.01955,0.06354
6336.94801,0.00701
6338.87648,-0.01894
6340.80495,0.00701
6342.73342,0.05516
6344.66189,0.10333
6346.59036,0.13889
6348.51883,0.14113
6350.44729,0.10290
6352.37576,0.04362
6354.30423,-0.01105
6356.23270,-0.04093
6358.16117,-0.03225
6360.08964,-0.01069
6362.01811,0.00628
6363.94658,0.02419
6365.87504,0.01069
6367.80351,-0.02962
6369.73198,-0.01906
6371.66045,0.05124
6373.58892,0.09634
6375.51739,0.08570
6377.44586,0.06357
6379.37432,0.04590
6381.30279,0.04452
6383.23126,0.04908
6385.15973,0.03085
6387.08820,0.00868
6389.01667,-0.01367
6390.94514,-0.01528
6392.87361,0.03779
6394.80207,0.10898
6396.73054,0.14120
6398.65901,0.12215
6400.58748,0.09516
6402.51595,0.06672
6404.44442,0.02230
6406.37289,0.00963
6408.30135,0.02276
6410.22982,0.03768
6412.15829,0.05161
6414.08676,0.06304
6416.01523,0.08383
6417.94370,0.07942
6419.87217,0.05590
6421.80064,0.08411
6423.72910,0.12376
6425.65757,0.07130
6427.58604,-0.03479
6429.51451,-0.07696
6431.44298,-0.06147
6433.37145,-0.06842
6435.29992,-0.06168
6437.22838,0.00970
6439.15685,0.06574
6441.08532,0.07420
6443.01379,0.08303
6444.94226,0.07684
6446.87073,0.04585
6448.79920,0.04711
6450.72766,0.08122
6452.65613,0.08065
6454.58460,0.06018
6456.51307,0.06214
6458.44154,0.08315
6460.37001,0.11102
6462.29848,0.12663
6464.22695,0.12305
6466.15541,0.11339
6468.08388,0.08951
6470.01235,0.06352
6471.94082,0.04445
6473.86929,0.01956
6475.79776,0.02202
6477.72623,0.04149
6479.65469,0.04955
6481.58316,0.05745
6483.51163,0.05035
6485.44010,0.00748
6487.36857,-0.04955
6489.29704,-0.06589
6491.22551,-0.02378
6493.15398,0.03550
6495.08244,0.06009
6497.01091,0.09093
6498.93938,0.15313
6500.86785,0.15367
6502.79632,0.09864
6504.72479,0.08454
6506.65326,0.07654
6508.58172,0.04550
6510.51019,0.07708
6512.43866,0.17792
6514.36713,0.21191
6516.29560,0.13235
6518.22407,0.03718
6520.15254,0.02878
6522.08101,0.09059
6524.00947,0.12507
6525.93794,0.06179
6527.86641,-0.00496
6529.79488,0.04330
6531.72335,0.15974
6533.65182,0.20189
6535.58029,0.12880
6537.50875,0.03669
6539.43722,-0.01267
6541.36569,-0.00360
6543.29416,0.03924
6545.22263,0.03337
6547.15110,-0.03062
6549.07957,-0.09865
6551.00804,-0.11997
6552.93650,-0.10671
6554.86497,-0.07207
6556.79344,0.00996
6558.72191,0.09600
6560.65038,0.09330
6562.57885,0.03386
6564.50732,0.03286
6566.43578,0.08300
6568.36425,0.11451
6570.29272,0.09567
6572.22119,-0.00698
6574.14966,-0.13273
6576.07813,-0.14385
6578.00660,-0.01908
6579.93507,0.12225
6581.86353,0.20295
6583.79200,0.21955
6585.72047,0.18383
6587.64894,0.13454
6589.57741,0.13635
6591.50588,0.18008
6593.43435,0.18990
6595.36281,0.19121
6597.29128,0.22963
6599.21975,0.24852
6601.14822,0.22436
6603.07669,0.19231
6605.00516,0.16512
6606.93363,0.11830
6608.86210,0.06128
6610.79056,0.09177
6612.71903,0.20663
6614.64750,0.26003
6616.57597,0.21019
6618.50444,0.11212
6620.43291,0.04187
6622.36138,0.01888
6624.28984,-0.03108
6626.21831,-0.10006
6628.14678,-0.08595
6630.07525,-0.00901
6632.00372,0.04703
6633.93219,0.07114
6635.86066,0.02572
6637.78912,-0.05985
6639.71759,-0.08443
6641.64606,-0.04042
6643.57453,0.01613
6645.50300,0.03373
6647.43147,0.04845
6649.35994,0.10678
6651.28841,0.14846
6653.21687,0.12627
6655.14534,0.05814
6657.07381,-0.00653
6659.00228,-0.00419
6660.93075,-0.00809
6662.85922,-0.06717
6664.78769,-0.11030
6666.71615,-0.13408
6668.64462,-0.12208
6670.57309,-0.02971
6672.50156,0.08832
6674.43003,0.12586
6676.35850,0.09258
6678.28697,0.08002
6680.21544,0.10840
6682.14390,0.11117
6684.07237,0.05250
6686.00084,0.01522
6687.92931,0.05595
6689.85778,0.06859
6691.78625,0.00700
6693.71472,0.00331
6695.64318,0.09170
6697.57165,0.13350
6699.50012,0.09236
6701.42859,0.06892
6703.35706,0.11890
6705.28553,0.24318
6707.21400,0.31601
6709.14247,0.23125
6711.07093,0.09751
6712.99940,0.05901
6714.92787,0.11704
6716.85634,0.13506
6718.78481,0.05656
6720.71328,-0.01339
6722.64175,0.01503
6724.57021,0.10972
6726.49868,0.16908
6728.42715,0.17334
6730.35562,0.19450
6732.28409,0.23682
6734.21256,0.20732
6736.14103,0.08798
6738.06950,-0.02288
6739.99796,-0.06363
6741.92643,-0.04104
6743.85490,0.00538
6745.78337,0.05516
6747.71184,0.13135
6749.64031,0.20187
6751.56878,0.17043
6753.49724,0.07370
6755.42571,0.01517
6757.35418,-0.02109
6759.28265,-0.05424
6761.21112,-0.07342
6763.13959,-0.08835
6765.06806,-0.06646
6766.99653,-0.00814
6768.92499,0.03697
6770.85346,0.05604
6772.78193,0.06533
6774.71040,0.06303
6776.63887,0.00544
6778.56734,-0.08378
6780.49581,-0.06940
6782.42427,0.06297
6784.35274,0.13181
6786.28121,0.07267
6788.20968,-0.01174
6790.13815,-0.04745
6792.06662,0.00780
6793.99509,0.10696
6795.92355,0.14705
6797.85202,0.11224
6799.78049,0.04858
6801.70896,-0.01586
6803.63743,-0.03113
6805.56590,0.00703
6807.49437,0.01769
6809.42284,0.03608
6811.35130,0.13441
6813.27977,0.22494
6815.20824,0.20799
6817.13671,0.13011
6819.06518,0.09776
6820.99365,0.09578
6822.92212,0.04561
6824.85058,-0.02418
6826.77905,-0.04977
6828.70752,0.00858
6830.63599,0.13914
6832.56446,0.17537
6834.49293,0.04736
6836.42140,-0.06214
6838.34987,0.01868
6840.27833,0.14438
6842.20680,0.19266
6844.13527,0.19986
6846.06374,0.16394
6847.99221,0.02914
6849.92068,-0.10532
6851.84915,-0.06647
6853.77761,0.04611
6855.70608,0.08711
6857.63455,0.09136
6859.56302,0.10406
6861.49149,0.08490
6863.41996,0.07005
6865.34843,0.08103
6867.27690,0.06237
6869.20536,0.05963
6871.13383,0.11733
6873.06230,0.15714
6874.99077,0.11783
6876.91924,0.04809
6878.84771,0.01093
6880.77618,0.04534
6882.70464,0.10817
6884.63311,0.12474
6886.56158,0.09882
6888.49005,0.06122
6890.41852,0.00504
6892.34699,-0.03703
6894.27546,-0.03603
6896.20393,-0.05197
6898.13239,-0.10148
6900.06086,-0.07214
6901.98933,0.03177
6903.91780,0.07736
6905.84627,0.04294
6907.77474,0.00298
6909.70321,0.00572
6911.63167,0.07579
6913.56014,0.15555
6915.48861,0.18699
6917.41708,0.18185
6919.34555,0.15179
6921.27402,0.12694
6923.20249,0.10647
6925.13096,0.07908
6927.05942,0.09824
6928.98789,0.20065
6930.91636,0.28209
6932.84483,0.22129
6934.77330,0.13325
6936.70177,0.12783
6938.63024,0.15872
6940.55870,0.18343
6942.48717,0.18060
6944.41564,0.13840
6946.34411,0.11677
6948.27258,0.14241
6950.20105,0.15846
6952.12952,0.16817
6954.05799,0.16976
6955.98645,0.14610
6957.91492,0.10624
6959.84339,0.01430
6961.77186,-0.06567
6963.70033,-0.01777
6965.62880,0.08316
6967.55727,0.12916
6969.48573,0.05279
6971.41420,-0.12474
6973.34267,-0.18770
6975.27114,-0.08930
6977.19961,-0.05988
6979.12808,-0.14081
6981.05655,-0.19450
6982.98501,-0.07753
6984.91348,0.11289
6986.84195,0.15593
6988.77042,0.08885
6990.69889,0.05495
6992.62736,0.02670
6994.55583,-0.05248
6996.48430,-0.10585
6998.41276,-0.08449
7000.34123,-0.06009
7002.26970,-0.06545
7004.19817,-0.11982
7006.12664,-0.20039
7008.05511,-0.18713
7009.98358,-0.09666
7011.91204,-0.01670
7013.84051,0.05451
7015.76898,0.12964
7017.69745,0.20129
7019.62592,0.23327
7021.55439,0.22689
7023.48286,0.25422
7025.41133,0.31133
7027.33979,0.31555
7029.26826,0.24715
7031.19673,0.13828
7033.12520,0.00740
7035.05367,-0.08167
7036.98214,-0.12910
7038.91061,-0.17921
7040.83907,-0.14985
7042.76754,0.00718
7044.69601,0.12880
7046.62448,0.13899
7048.55295,0.11835
7050.48142,0.07169
7052.40989,-0.00035
7054.33836,-0.06791
7056.26682,-0.08462
7058.19529,-0.01159
7060.12376,0.05587
7062.05223,0.07948
7063.98070,0.13553
7065.90917,0.22473
7067.83764,0.26262
7069.76610,0.21061
7071.69457,0.13668
7073.62304,0.09693
7075.55151,0.10308
7077.47998,0.13743
7079.40845,0.21246
7081.33692,0.33192
7083.26539,0.29475
7085.19385,0.17552
7087.12232,0.17212
7089.05079,0.16746
7090.97926,0.09835
7092.90773,0.06186
7094.83620,0.00825
7096.76467,-0.08270
7098.69313,-0.05597
7100.62160,0.10457
7102.55007,0.17243
7104.47854,0.12951
7106.40701,0.13588
7108.33548,0.14724
7110.26395,0.04542
7112.19242,-0.08629
7114.12088,-0.14937
7116.04935,-0.14213
7117.97782,-0.07874
7119.90629,-0.00118
7121.83476,0.02727
7123.76323,0.00132
7125.69170,0.01088
7127.62016,0.04750
7129.54863,0.04709
7131.47710,0.05744
7133.40557,0.06541
7135.33404,0.04195
7137.26251,0.06109
7139.19098,0.12859
7141.11944,0.11785
7143.04791,-0.03622
7144.97638,-0.15503
7146.90485,-0.09422
7148.83332,-0.07772
7150.76179,-0.14754
7152.69026,-0.14873
7154.61873,-0.11525
7156.54719,-0.12548
7158.47566,-0.12803
7160.40413,-0.07919
7162.33260,-0.01656
7164.26107,-0.04050
7166.18954,-0.13612
7168.11801,-0.14450
7170.04647,-0.04151
7171.97494,0.04857
7173.90341,0.06872
7175.83188,0.08727
7177.76035,0.19944
7179.68882,0.30677
7181.61729,0.22367
7183.54576,0.04998
7185.47422,0.06937
7187.40269,0.16630
7189.33116,0.14662
7191.25963,0.05076
7193.18810,0.01498
7195.11657,0.05732
7197.04504,0.14924
7198.97350,0.22136
7200.90197,0.23316
7202.83044,0.19921
7204.75891,0.15392
7206.68738,0.17465
7208.61585,0.16862
7210.54432,0.06004
7212.47279,-0.05919
7214.40125,-0.15642
7216.32972,-0.23518
7218.25819,-0.18927
7220.18666,-0.09682
7222.11513,-0.07545
7224.04360,-0.05981
7225.97207,0.03583
7227.90053,0.17745
7229.82900,0.24267
7231.75747,0.22055
7233.68594,0.14029
7235.61441,0.05328
7237.54288,0.08672
7239.47135,0.23546
7241.39982,0.40302
7243.32828,0.43326
7245.25675,0.19187
7247.18522,-0.01979
7249.11369,0.01947
7251.04216,0.18424
7252.97063,0.23216
7254.89910,0.15266
7256.82756,0.07455
7258.75603,-0.03016
7260.68450,-0.15242
7262.61297,-0.08983
7264.54144,0.08149
7266.46991,0.05241
7268.39838,-0.08016
7270.32685,-0.15319
7272.25531,-0.17797
7274.18378,-0.13358
7276.11225,0.01982
7278.04072,0.21192
7279.96919,0.36030
7281.89766,0.42042
7283.82613,0.36170
7285.75459,0.21852
7287.68306,0.11752
7289.61153,0.04391
7291.54000,-0.07152
7293.46847,-0.12084
7295.39694,-0.09958
7297.32541,-0.10255
7299.25387,-0.11459
7301.18234,-0.17687
7303.11081,-0.26959
7305.03928,-0.19888
7306.96775,0.04638
7308.89622,0.25656
7310.82469,0.25627
7312.75316,0.09474
7314.68162,-0.01415
7316.61009,0.02495
7318.53856,0.05043
7320.46703,0.04478
7322.39550,0.15385
7324.32397,0.34450
7326.25244,0.47020
7328.18090,0.52415
7330.10937,0.42534
7332.03784,0.18581
7333.96631,-0.00078
7335.89478,-0.09433
7337.82325,-0.10698
7339.75172,0.02817
7341.68019,0.19459
7343.60865,0.24555
7345.53712,0.21755
7347.46559,0.11195
7349.39406,0.02610
7351.32253,0.01814
7353.25100,0.01271
7355.17947,0.01128
7357.10793,0.05014
7359.03640,0.05700
7360.96487,0.07682
7362.89334,0.18109
7364.82181,0.14469
7366.75028,-0.00380
7368.67875,0.06865
7370.60722,0.28133
7372.53568,0.31443
7374.46415,0.08562
7376.39262,-0.11598
7378.32109,-0.04304
7380.24956,0.08869
7382.17803,0.19594
7384.10650,0.18542
7386.03496,0.02026
7387.96343,-0.05110
7389.89190,0.03928
7391.82037,0.17697
7393.74884,0.37531
7395.67731,0.50182
7397.60578,0.39009
7399.53425,0.23861
7401.46271,0.26000
7403.39118,0.33351
7405.31965,0.24943
7407.24812,0.08716
7409.17659,0.01661
7411.10506,0.07969
7413.03353,0.14903
7414.96199,0.09489
7416.89046,-0.05483
7418.81893,-0.16928
7420.74740,-0.13291
7422.67587,-0.00946
7424.60434,0.06043
7426.53281,0.01619
7428.46128,-0.03024
7430.38974,0.12304
7432.31821,0.31896
7434.24668,0.28805
7436.17515,0.13766
7438.10362,0.06997
7440.03209,0.07813
7441.96056,0.08626
7443.88902,0.07179
7445.81749,0.05473
7447.74596,0.08948
7449.67443,0.11770
7451.60290,0.03645
7453.53137,-0.00838
7455.45984,0.06486
7457.38831,0.19228
7459.31677,0.28419
7461.24524,0.20240
7463.17371,0.05407
7465.10218,-0.01176
7467.03065,0.07595
7468.95912,0.17019
7470.88759,0.01954
7472.81605,-0.27904
7474.74452,-0.43258
7476.67299,-0.36523
7478.60146,-0.01373
7480.52993,0.43763
7482.45840,0.54296
7484.38687,0.33127
7486.31533,0.19535
7488.24380,0.21448
7490.17227,0.24407
7492.10074,0.24405
7494.02921,0.20648
7495.95768,0.14731
7497.88615,0.15417
