399.19301,0.92562
401.12148,0.22946
403.04995,0.34381
404.97842,0.17142
406.90689,0.03004
408.83536,0.04221
410.76382,0.05951
412.69229,-0.00623
414.62076,-0.01273
416.54923,0.00072
418.47770,-0.06921
420.40617,-0.08996
422.33464,-0.00198
424.26311,0.07773
426.19157,0.10814
428.12004,0.10089
430.04851,0.08664
431.97698,0.09111
433.90545,0.11368
435.83392,0.10509
437.76239,0.04062
439.69085,0.00612
441.61932,0.08063
443.54779,0.16171
445.47626,0.14240
447.40473,0.11842
449.33320,0.15174
451.26167,0.18904
453.19013,0.17212
455.11860,0.10550
457.04707,0.04452
458.97554,0.05036
460.90401,0.08203
462.83248,0.01658
464.76095,-0.09936
466.68942,-0.08684
468.61788,0.01373
470.54635,0.09661
472.47482,0.28205
474.40329,0.50281
476.33176,0.37033
478.26023,0.20644
480.18870,0.15632
482.11716,0.14979
484.04563,0.13237
485.97410,0.11788
487.90257,0.15559
489.83104,0.18023
491.75951,0.14088
493.68798,0.08398
495.61645,0.05015
497.54491,0.03078
499.47338,0.01354
501.40185,0.03698
503.33032,0.07640
505.25879,0.05554
507.18726,0.00079
509.11573,-0.00048
511.04419,0.04309
512.97266,0.07052
514.90113,0.07839
516.82960,0.10556
518.75807,0.16665
520.68654,0.20242
522.61501,0.17878
524.54348,0.13920
526.47194,0.12920
528.40041,0.13286
530.32888,0.12052
532.25735,0.10844
534.18582,0.11300
536.11429,0.10776
538.04276,0.09338
539.97122,0.10677
541.89969,0.12712
543.82816,0.11064
545.75663,0.09796
547.68510,0.13329
549.61357,0.18940
551.54204,0.26318
553.47051,0.32276
555.39897,0.28556
557.32744,0.19104
559.25591,0.12347
561.18438,0.07925
563.11285,0.06104
565.04132,0.07798
566.96979,0.11253
568.89825,0.14251
570.82672,0.14874
572.75519,0.12954
574.68366,0.11828
576.61213,0.12367
578.54060,0.12168
580.46907,0.12144
582.39754,0.11937
584.32600,0.10834
586.25447,0.10953
588.18294,0.12916
590.11141,0.14464
592.03988,0.13841
593.96835,0.13202
595.89682,0.12839
597.82528,0.10619
599.75375,0.09023
601.68222,0.10605
603.61069,0.12137
605.53916,0.10789
607.46763,0.08452
609.39610,0.07125
611.32456,0.06995
613.25303,0.08625
615.18150,0.11312
617.10997,0.12020
619.03844,0.10894
620.96691,0.09666
622.89538,0.08776
624.82385,0.09303
626.75231,0.10674
628.68078,0.12073
630.60925,0.14060
632.53772,0.15482
634.46619,0.14772
636.39466,0.13477
638.32313,0.12868
640.25159,0.12457
642.18006,0.11814
644.10853,0.10916
646.03700,0.10383
647.96547,0.10197
649.89394,0.09806
651.82241,0.09487
653.75088,0.10046
655.67934,0.10527
657.60781,0.09700
659.53628,0.09040
661.46475,0.09466
663.39322,0.09987
665.32169,0.10347
667.25016,0.11417
669.17862,0.12255
671.10709,0.11212
673.03556,0.10430
674.96403,0.10549
676.89250,0.10603
678.82097,0.11054
680.74944,0.11753
682.67791,0.10700
684.60637,0.09507
686.53484,0.09761
688.46331,0.10332
690.39178,0.10930
692.32025,0.11244
694.24872,0.10755
696.17719,0.10140
698.10565,0.10123
700.03412,0.10623
701.96259,0.10869
703.89106,0.11183
705.81953,0.12177
707.74800,0.20513
709.67647,0.53177
711.60494,0.86822
713.53340,0.71575
715.46187,0.31047
717.39034,0.13194
719.31881,0.11316
721.24728,0.11124
723.17575,0.11242
725.10422,0.11286
727.03268,0.12135
728.96115,0.13337
730.88962,0.13902
732.81809,0.14151
734.74656,0.14318
736.67503,0.13894
738.60350,0.13800
740.53197,0.14532
742.46043,0.14922
744.38890,0.13945
746.31737,0.12625
748.24584,0.12432
750.17431,0.13029
752.10278,0.13536
754.03125,0.13018
755.95971,0.11672
757.88818,0.10985
759.81665,0.11604
761.74512,0.12272
763.67359,0.12232
765.60206,0.12693
767.53053,0.13522
769.45900,0.13272
771.38746,0.12642
773.31593,0.12822
775.24440,0.13268
777.17287,0.13506
779.10134,0.13759
781.02981,0.14031
782.95828,0.13550
784.88674,0.12232
786.81521,0.10965
788.74368,0.10440
790.67215,0.11002
792.60062,0.11993
794.52909,0.12745
796.45756,0.12900
798.38602,0.12444
800.31449,0.12429
802.24296,0.13250
804.17143,0.13235
806.09990,0.11377
808.02837,0.10122
809.95684,0.11378
811.88531,0.13231
813.81377,0.13261
815.74224,0.11846
817.67071,0.11336
819.59918,0.11611
821.52765,0.11310
823.45612,0.11502
825.38459,0.12542
827.31305,0.13180
829.24152,0.13646
831.16999,0.13761
833.09846,0.12684
835.02693,0.12079
836.95540,0.13052
838.88387,0.13643
840.81234,0.13058
842.74080,0.12665
844.66927,0.12737
846.59774,0.12615
848.52621,0.12960
850.45468,0.13818
852.38315,0.14289
854.31162,0.14462
856.24008,0.14300
858.16855,0.14121
860.09702,0.14068
862.02549,0.13259
863.95396,0.12553
865.88243,0.13582
867.81090,0.16251
869.73937,0.18232
871.66783,0.17140
873.59630,0.15260
875.52477,0.15170
877.45324,0.15113
879.38171,0.14421
881.31018,0.14123
883.23865,0.13536
885.16711,0.12641
887.09558,0.12988
889.02405,0.13492
890.95252,0.12795
892.88099,0.12953
894.80946,0.13962
896.73793,0.13911
898.66640,0.13818
900.59486,0.14555
902.52333,0.14863
904.45180,0.14164
906.38027,0.13272
908.30874,0.13193
910.23721,0.14012
912.16568,0.14583
914.09414,0.14248
916.02261,0.13635
917.95108,0.13723
919.87955,0.14446
921.80802,0.14748
923.73649,0.14771
925.66496,0.14988
927.59343,0.14912
929.52189,0.14187
931.45036,0.12703
933.37883,0.11517
935.30730,0.11916
937.23577,0.12409
939.16424,0.11862
941.09271,0.11987
943.02117,0.13047
944.94964,0.13618
946.87811,0.14061
948.80658,0.14861
950.73505,0.15145
952.66352,0.14868
954.59199,0.14556
956.52045,0.14181
958.44892,0.13769
960.37739,0.13396
962.30586,0.13168
964.23433,0.12836
966.16280,0.12542
968.09127,0.13125
970.01974,0.13770
971.94820,0.13447
973.87667,0.12784
975.80514,0.11976
977.73361,0.11254
979.66208,0.11879
981.59055,0.13617
983.51902,0.14382
985.44748,0.13812
987.37595,0.13602
989.30442,0.14034
991.23289,0.13795
993.16136,0.13153
995.08983,0.13386
997.01830,0.14257
998.94677,0.14950
1000.87523,0.14965
1002.80370,0.14184
1004.73217,0.13541
1006.66064,0.13642
1008.58911,0.13946
1010.51758,0.14377
1012.44605,0.14850
1014.37451,0.14764
1016.30298,0.14279
1018.23145,0.13595
1020.15992,0.12889
1022.08839,0.12876
1024.01686,0.13737
1025.94533,0.14938
1027.87380,0.15561
1029.80226,0.15349
1031.73073,0.15258
1033.65920,0.15372
1035.58767,0.14864
1037.51614,0.13800
1039.44461,0.12997
1041.37308,0.13338
1043.30154,0.14834
1045.23001,0.15912
1047.15848,0.15305
1049.08695,0.13972
1051.01542,0.13494
1052.94389,0.13782
1054.87236,0.13945
1056.80083,0.13831
1058.72929,0.14044
1060.65776,0.14809
1062.58623,0.15210
1064.51470,0.14857
1066.44317,0.14750
1068.37164,0.15131
1070.30011,0.15182
1072.22857,0.15373
1074.15704,0.16060
1076.08551,0.15826
1078.01398,0.14722
1079.94245,0.14038
1081.87092,0.13806
1083.79939,0.14077
1085.72786,0.14921
1087.65632,0.15676
1089.58479,0.15808
1091.51326,0.15452
1093.44173,0.15347
1095.37020,0.15393
1097.29867,0.15092
1099.22714,0.15259
1101.15560,0.16036
1103.08407,0.16047
1105.01254,0.15207
1106.94101,0.14734
1108.86948,0.14600
1110.79795,0.14614
1112.72642,0.15396
1114.65489,0.16455
1116.58335,0.16937
1118.51182,0.16596
1120.44029,0.15391
1122.36876,0.14380
1124.29723,0.14565
1126.22570,0.15207
1128.15417,0.15479
1130.08263,0.15420
1132.01110,0.15154
1133.93957,0.14780
1135.86804,0.14289
1137.79651,0.13906
1139.72498,0.14155
1141.65345,0.14884
1143.58191,0.15194
1145.51038,0.14733
1147.43885,0.14178
1149.36732,0.14265
1151.29579,0.14873
1153.22426,0.15320
1155.15273,0.15500
1157.08120,0.15852
1159.00966,0.16236
1160.93813,0.16080
1162.86660,0.15634
1164.79507,0.15407
1166.72354,0.15279
1168.65201,0.15366
1170.58048,0.15755
1172.50894,0.15827
1174.43741,0.15530
1176.36588,0.15595
1178.29435,0.15968
1180.22282,0.15997
1182.15129,0.15595
1184.07976,0.15499
1186.00823,0.15944
1187.93669,0.16018
1189.86516,0.15469
1191.79363,0.14982
1193.72210,0.14986
1195.65057,0.15217
1197.57904,0.15387
1199.50751,0.15547
1201.43597,0.15548
1203.36444,0.15641
1205.29291,0.15964
1207.22138,0.15867
1209.14985,0.15411
1211.07832,0.15337
1213.00679,0.15487
1214.93526,0.15322
1216.86372,0.15201
1218.79219,0.15489
1220.72066,0.15824
1222.64913,0.16012
1224.57760,0.16234
1226.50607,0.16406
1228.43454,0.16399
1230.36300,0.16273
1232.29147,0.15904
1234.21994,0.15379
1236.14841,0.15010
1238.07688,0.14735
1240.00535,0.14766
1241.93382,0.15516
1243.86229,0.16300
1245.79075,0.16252
1247.71922,0.15907
1249.64769,0.15884
1251.57616,0.15691
1253.50463,0.15357
1255.43310,0.15506
1257.36157,0.15723
1259.29003,0.15619
1261.21850,0.15544
1263.14697,0.15423
1265.07544,0.15040
1267.00391,0.14806
1268.93238,0.15125
1270.86085,0.15810
1272.78932,0.16418
1274.71778,0.16597
1276.64625,0.16467
1278.57472,0.16164
1280.50319,0.15613
1282.43166,0.15296
1284.36013,0.15637
1286.28860,0.16098
1288.21706,0.16153
1290.14553,0.15978
1292.07400,0.15838
1294.00247,0.15857
1295.93094,0.15904
1297.85941,0.15816
1299.78788,0.15697
1301.71634,0.15549
1303.64481,0.15384
1305.57328,0.15433
1307.50175,0.15666
1309.43022,0.15819
1311.35869,0.15912
1313.28716,0.15970
1315.21563,0.16057
1317.14409,0.16292
1319.07256,0.16169
1321.00103,0.15619
1322.92950,0.15450
1324.85797,0.15647
1326.78644,0.15595
1328.71491,0.15338
1330.64337,0.15208
1332.57184,0.15465
1334.50031,0.15926
1336.42878,0.15976
1338.35725,0.15730
1340.28572,0.15785
1342.21419,0.16747
1344.14266,0.18142
1346.07112,0.18245
1347.99959,0.17101
1349.92806,0.16237
1351.85653,0.15699
1353.78500,0.15234
1355.71347,0.15268
1357.64194,0.15727
1359.57040,0.16167
1361.49887,0.16206
1363.42734,0.15705
1365.35581,0.15358
1367.28428,0.15534
1369.21275,0.15897
1371.14122,0.16204
1373.06969,0.16508
1374.99815,0.16738
1376.92662,0.16695
1378.85509,0.16529
1380.78356,0.16452
1382.71203,0.16501
1384.64050,0.16701
1386.56897,0.16989
1388.49743,0.17063
1390.42590,0.16994
1392.35437,0.16954
1394.28284,0.16886
1396.21131,0.17010
1398.13978,0.17176
1400.06825,0.16869
1401.99672,0.16497
1403.92518,0.16541
1405.85365,0.16719
1407.78212,0.16726
1409.71059,0.16738
1411.63906,0.16720
1413.56753,0.16294
1415.49600,0.15634
1417.42446,0.15493
1419.35293,0.16271
1421.28140,0.17201
1423.20987,0.17555
1425.13834,0.17273
1427.06681,0.16850
1428.99528,0.16894
1430.92375,0.17397
1432.85221,0.17903
1434.78068,0.18313
1436.70915,0.18123
1438.63762,0.17423
1440.56609,0.17162
1442.49456,0.17104
1444.42303,0.17079
1446.35149,0.17073
1448.27996,0.17073
1450.20843,0.17185
1452.13690,0.17227
1454.06537,0.17120
1455.99384,0.16997
1457.92231,0.17016
1459.85077,0.17187
1461.77924,0.17421
1463.70771,0.17539
1465.63618,0.17180
1467.56465,0.16712
1469.49312,0.16675
1471.42159,0.17143
1473.35006,0.17791
1475.27852,0.17845
1477.20699,0.17544
1479.13546,0.17400
1481.06393,0.17505
1482.99240,0.17535
1484.92087,0.17269
1486.84934,0.16777
1488.77780,0.16120
1490.70627,0.15962
1492.63474,0.16408
1494.56321,0.16723
1496.49168,0.16845
1498.42015,0.17243
1500.34862,0.17616
1502.27709,0.17582
1504.20555,0.17623
1506.13402,0.17888
1508.06249,0.18052
1509.99096,0.18347
1511.91943,0.18332
1513.84790,0.17946
1515.77637,0.17457
1517.70483,0.17142
1519.63330,0.17338
1521.56177,0.17882
1523.49024,0.18039
1525.41871,0.17457
1527.34718,0.16846
1529.27565,0.17033
1531.20412,0.17521
1533.13258,0.17573
1535.06105,0.17280
1536.98952,0.17302
1538.91799,0.18182
1540.84646,0.19335
1542.77493,0.18633
1544.70340,0.17741
1546.63186,0.17231
1548.56033,0.16919
1550.48880,0.16894
1552.41727,0.16944
1554.34574,0.16843
1556.27421,0.16568
1558.20268,0.16086
1560.13115,0.16592
1562.05961,0.17248
1563.98808,0.17402
1565.91655,0.17497
1567.84502,0.17671
1569.77349,0.17623
1571.70196,0.17327
1573.63043,0.17260
1575.55889,0.17469
1577.48736,0.17514
1579.41583,0.17400
1581.34430,0.17333
1583.27277,0.17120
1585.20124,0.16828
1587.12971,0.16902
1589.05818,0.17274
1590.98664,0.17459
1592.91511,0.17383
1594.84358,0.17093
1596.77205,0.16702
1598.70052,0.16625
1600.62899,0.16817
1602.55746,0.16813
1604.48592,0.16559
1606.41439,0.16375
1608.34286,0.16550
1610.27133,0.17006
1612.19980,0.17310
1614.12827,0.17445
1616.05674,0.17620
1617.98521,0.17692
1619.91367,0.17782
1621.84214,0.17974
1623.77061,0.17795
1625.69908,0.17453
1627.62755,0.17582
1629.55602,0.17869
1631.48449,0.18024
1633.41295,0.18242
1635.34142,0.18474
1637.26989,0.18241
1639.19836,0.17788
1641.12683,0.17520
1643.05530,0.17542
1644.98377,0.17646
1646.91223,0.17426
1648.84070,0.17201
1650.76917,0.17222
1652.69764,0.17357
1654.62611,0.17901
1656.55458,0.18038
1658.48305,0.17672
1660.41152,0.17351
1662.33998,0.17503
1664.26845,0.17723
1666.19692,0.17803
1668.12539,0.18281
1670.05386,0.18828
1671.98233,0.18565
1673.91080,0.18230
1675.83926,0.18203
1677.76773,0.18183
1679.69620,0.18059
1681.62467,0.18047
1683.55314,0.18408
1685.48161,0.18402
1687.41008,0.17937
1689.33855,0.17897
1691.26701,0.18270
1693.19548,0.18582
1695.12395,0.18670
1697.05242,0.18533
1698.98089,0.18179
1700.90936,0.18102
1702.83783,0.18504
1704.76629,0.18741
1706.69476,0.18534
1708.62323,0.18117
1710.55170,0.17898
1712.48017,0.17964
1714.40864,0.17927
1716.33711,0.17431
1718.26558,0.17100
1720.19404,0.17315
1722.12251,0.17497
1724.05098,0.17486
1725.97945,0.17284
1727.90792,0.16947
1729.83639,0.16684
1731.76486,0.16729
1733.69332,0.17011
1735.62179,0.17072
1737.55026,0.17007
1739.47873,0.17143
1741.40720,0.17290
1743.33567,0.17256
1745.26414,0.17324
1747.19261,0.17500
1749.12107,0.17583
1751.04954,0.17645
1752.97801,0.17717
1754.90648,0.17834
1756.83495,0.17972
1758.76342,0.17978
1760.69189,0.17958
1762.62035,0.17983
1764.54882,0.17981
1766.47729,0.17923
1768.40576,0.17530
1770.33423,0.16841
1772.26270,0.16711
1774.19117,0.17239
1776.11964,0.17646
1778.04810,0.17932
1779.97657,0.18028
1781.90504,0.17934
1783.83351,0.17922
1785.76198,0.17834
1787.69045,0.17692
1789.61892,0.17751
1791.54738,0.17977
1793.47585,0.18338
1795.40432,0.18495
1797.33279,0.18278
1799.26126,0.17918
1801.18973,0.17495
1803.11820,0.17236
1805.04666,0.17392
1806.97513,0.17661
1808.90360,0.17781
1810.83207,0.17918
1812.76054,0.17945
1814.68901,0.17767
1816.61748,0.17825
1818.54595,0.18128
1820.47441,0.18263
1822.40288,0.18078
1824.33135,0.17677
1826.25982,0.17405
1828.18829,0.17366
1830.11676,0.17521
1832.04523,0.17807
1833.97369,0.17956
1835.90216,0.17926
1837.83063,0.17782
1839.75910,0.17701
1841.68757,0.17778
1843.61604,0.17855
1845.54451,0.17874
1847.47298,0.17847
1849.40144,0.17783
1851.32991,0.17720
1853.25838,0.17595
1855.18685,0.17573
1857.11532,0.17804
1859.04379,0.18003
1860.97226,0.17898
1862.90072,0.17626
1864.82919,0.17597
1866.75766,0.17968
1868.68613,0.18441
1870.61460,0.18415
1872.54307,0.17960
1874.47154,0.17705
1876.40001,0.17789
1878.32847,0.17779
1880.25694,0.17554
1882.18541,0.17442
1884.11388,0.17640
1886.04235,0.17862
1887.97082,0.17691
1889.89929,0.17280
1891.82775,0.17237
1893.75622,0.17665
1895.68469,0.18199
1897.61316,0.18461
1899.54163,0.18336
1901.47010,0.18022
1903.39857,0.17790
1905.32704,0.17747
1907.25550,0.17827
1909.18397,0.17871
1911.11244,0.17889
1913.04091,0.17878
1914.96938,0.17641
1916.89785,0.17255
1918.82632,0.17099
1920.75478,0.17149
1922.68325,0.17147
1924.61172,0.17201
1926.54019,0.17273
1928.46866,0.17364
1930.39713,0.17659
1932.32560,0.17909
1934.25407,0.17918
1936.18253,0.17800
1938.11100,0.17663
1940.03947,0.17590
1941.96794,0.17544
1943.89641,0.17571
1945.82488,0.17704
1947.75335,0.17790
1949.68181,0.17767
1951.61028,0.17661
1953.53875,0.17492
1955.46722,0.17466
1957.39569,0.17736
1959.32416,0.18050
1961.25263,0.18188
1963.18110,0.18297
1965.10956,0.18519
1967.03803,0.18602
1968.96650,0.18378
1970.89497,0.18271
1972.82344,0.18363
1974.75191,0.18236
1976.68038,0.18024
1978.60884,0.17928
1980.53731,0.17746
1982.46578,0.17537
1984.39425,0.17477
1986.32272,0.17644
1988.25119,0.17812
1990.17966,0.17591
1992.10812,0.17329
1994.03659,0.17615
1995.96506,0.18029
1997.89353,0.18014
1999.82200,0.17859
2001.75047,0.17794
2003.67894,0.17757
2005.60741,0.17921
2007.53587,0.18080
2009.46434,0.17896
2011.39281,0.17682
2013.32128,0.17782
2015.24975,0.17998
2017.17822,0.18054
2019.10669,0.18068
2021.03515,0.18208
2022.96362,0.18274
2024.89209,0.18061
2026.82056,0.17834
2028.74903,0.17820
2030.67750,0.17827
2032.60597,0.17878
2034.53444,0.18044
2036.46290,0.18081
2038.39137,0.18092
2040.31984,0.18186
2042.24831,0.18094
2044.17678,0.18032
2046.10525,0.18248
2048.03372,0.18364
2049.96218,0.18135
2051.89065,0.17795
2053.81912,0.17620
2055.74759,0.17586
2057.67606,0.17578
2059.60453,0.17615
2061.53300,0.17662
2063.46147,0.17729
2065.38993,0.17853
2067.31840,0.17890
2069.24687,0.17903
2071.17534,0.18178
2073.10381,0.18525
2075.03228,0.18564
2076.96075,0.18443
2078.88921,0.18363
2080.81768,0.18198
2082.74615,0.17967
2084.67462,0.17849
2086.60309,0.17880
2088.53156,0.17905
2090.46003,0.17774
2092.38850,0.17689
2094.31696,0.17750
2096.24543,0.17685
2098.17390,0.17602
2100.10237,0.17799
2102.03084,0.18065
2103.95931,0.18130
2105.88778,0.18091
2107.81624,0.18093
2109.74471,0.18113
2111.67318,0.18121
2113.60165,0.18143
2115.53012,0.18162
2117.45859,0.18089
2119.38706,0.17901
2121.31553,0.17712
2123.24399,0.17738
2125.17246,0.17951
2127.10093,0.18081
2129.02940,0.18112
2130.95787,0.18077
2132.88634,0.17812
2134.81481,0.17430
2136.74327,0.17427
2138.67174,0.17837
2140.60021,0.18092
2142.52868,0.18015
2144.45715,0.17839
2146.38562,0.17722
2148.31409,0.17733
2150.24255,0.17805
2152.17102,0.17819
2154.09949,0.17733
2156.02796,0.17652
2157.95643,0.17794
2159.88490,0.18253
2161.81337,0.18746
2163.74184,0.18920
2165.67030,0.18817
2167.59877,0.18599
2169.52724,0.18407
2171.45571,0.18406
2173.38418,0.18409
2175.31265,0.18287
2177.24112,0.18272
2179.16958,0.18321
2181.09805,0.18185
2183.02652,0.17822
2184.95499,0.17430
2186.88346,0.17385
2188.81193,0.17792
2190.74040,0.18230
2192.66887,0.18265
2194.59733,0.17981
2196.52580,0.17779
2198.45427,0.17786
2200.38274,0.17791
2202.31121,0.17770
2204.23968,0.17907
2206.16815,0.18105
2208.09661,0.18240
2210.02508,0.18208
2211.95355,0.17731
2213.88202,0.17187
2215.81049,0.17119
2217.73896,0.17267
2219.66743,0.17433
2221.59590,0.17676
2223.52436,0.17858
2225.45283,0.17931
2227.38130,0.17931
2229.30977,0.17866
2231.23824,0.17857
2233.16671,0.17976
2235.09518,0.18085
2237.02364,0.18040
2238.95211,0.17874
2240.88058,0.17865
2242.80905,0.18147
2244.73752,0.18453
2246.66599,0.18487
2248.59446,0.18237
2250.52293,0.17930
2252.45139,0.17791
2254.37986,0.17838
2256.30833,0.17921
2258.23680,0.18013
2260.16527,0.18142
2262.09374,0.18103
2264.02221,0.17812
2265.95067,0.17544
2267.87914,0.17636
2269.80761,0.17948
2271.73608,0.17886
2273.66455,0.17525
2275.59302,0.17403
2277.52149,0.17473
2279.44996,0.17565
2281.37842,0.17692
2283.30689,0.17732
2285.23536,0.17597
2287.16383,0.17361
2289.09230,0.17076
2291.02077,0.16721
2292.94924,0.16365
2294.87770,0.16260
2296.80617,0.16507
2298.73464,0.16708
2300.66311,0.16521
2302.59158,0.16228
2304.52005,0.16116
2306.44852,0.15939
2308.37699,0.15488
2310.30545,0.14870
2312.23392,0.14276
2314.16239,0.13887
2316.09086,0.13454
2318.01933,0.12897
2319.94780,0.12651
2321.87627,0.12369
2323.80473,0.11667
2325.73320,0.11066
2327.66167,0.10843
2329.59014,0.10883
2331.51861,0.10813
2333.44708,0.10409
2335.37555,0.09942
2337.30401,0.09974
2339.23248,0.10144
2341.16095,0.09451
2343.08942,0.09340
2345.01789,0.10877
2346.94636,0.11948
2348.87483,0.11789
2350.80330,0.11146
2352.73176,0.10623
2354.66023,0.09895
2356.58870,0.08178
2358.51717,0.06247
2360.44564,0.04763
2362.37411,0.05062
2364.30258,0.08102
2366.23104,0.10822
2368.15951,0.11403
2370.08798,0.11841
2372.01645,0.13043
2373.94492,0.13826
2375.87339,0.14109
2377.80186,0.14875
2379.73033,0.15866
2381.65879,0.16495
2383.58726,0.16951
2385.51573,0.17488
2387.44420,0.18052
2389.37267,0.18369
2391.30114,0.18368
2393.22961,0.18206
2395.15807,0.18033
2397.08654,0.18051
2399.01501,0.18252
2400.94348,0.18431
2402.87195,0.18540
2404.80042,0.18688
2406.72889,0.18735
2408.65736,0.18500
2410.58582,0.18141
2412.51429,0.17923
2414.44276,0.17988
2416.37123,0.18149
2418.29970,0.18216
2420.22817,0.18151
2422.15664,0.17962
2424.08510,0.17895
2426.01357,0.18021
2427.94204,0.18179
2429.87051,0.18357
2431.79898,0.18508
2433.72745,0.18477
2435.65592,0.18275
2437.58439,0.18164
2439.51285,0.18287
2441.44132,0.18384
2443.36979,0.18325
2445.29826,0.18412
2447.22673,0.18692
2449.15520,0.18871
2451.08367,0.18847
2453.01213,0.18677
2454.94060,0.18408
2456.86907,0.18230
2458.79754,0.18299
2460.72601,0.18328
2462.65448,0.18108
2464.58295,0.17981
2466.51142,0.18155
2468.43988,0.18309
2470.36835,0.18129
2472.29682,0.17809
2474.22529,0.17667
2476.15376,0.17632
2478.08223,0.17604
2480.01070,0.17710
2481.93916,0.17813
2483.86763,0.17802
2485.79610,0.17893
2487.72457,0.18027
2489.65304,0.18033
2491.58151,0.17938
2493.50998,0.17910
2495.43844,0.18059
2497.36691,0.18213
2499.29538,0.18475
2501.22385,0.18825
2503.15232,0.18823
2505.08079,0.18588
2507.00926,0.18418
2508.93773,0.18267
2510.86619,0.18209
2512.79466,0.18317
2514.72313,0.18440
2516.65160,0.18461
2518.58007,0.18419
2520.50854,0.18434
2522.43701,0.18459
2524.36547,0.18344
2526.29394,0.18122
2528.22241,0.17983
2530.15088,0.18166
2532.07935,0.18458
2534.00782,0.18575
2535.93629,0.18746
2537.86476,0.18879
2539.79322,0.18774
2541.72169,0.18659
2543.65016,0.18654
2545.57863,0.18633
2547.50710,0.18424
2549.43557,0.18068
2551.36404,0.17850
2553.29250,0.17969
2555.22097,0.18316
2557.14944,0.18650
2559.07791,0.18785
2561.00638,0.18658
2562.93485,0.18431
2564.86332,0.18206
2566.79179,0.18036
2568.72025,0.18135
2570.64872,0.18347
2572.57719,0.18279
2574.50566,0.18105
2576.43413,0.18197
2578.36260,0.18435
2580.29107,0.18483
2582.21953,0.18323
2584.14800,0.18165
2586.07647,0.18135
2588.00494,0.18205
2589.93341,0.18236
2591.86188,0.18267
2593.79035,0.18335
2595.71882,0.18308
2597.64728,0.18370
2599.57575,0.18664
2601.50422,0.18915
2603.43269,0.18991
2605.36116,0.18793
2607.28963,0.18196
2609.21810,0.17814
2611.14656,0.18076
2613.07503,0.18448
2615.00350,0.18569
2616.93197,0.18513
2618.86044,0.18435
2620.78891,0.18398
2622.71738,0.18377
2624.64585,0.18483
2626.57431,0.18782
2628.50278,0.19043
2630.43125,0.18935
2632.35972,0.18648
2634.28819,0.18583
2636.21666,0.18645
2638.14513,0.18554
2640.07359,0.18288
2642.00206,0.18150
2643.93053,0.18232
2645.85900,0.18212
2647.78747,0.18109
2649.71594,0.18152
2651.64441,0.18334
2653.57288,0.18571
2655.50134,0.18661
2657.42981,0.18620
2659.35828,0.18618
2661.28675,0.18691
2663.21522,0.18854
2665.14369,0.18896
2667.07216,0.18910
2669.00062,0.19047
2670.92909,0.18993
2672.85756,0.18865
2674.78603,0.18976
2676.71450,0.19138
2678.64297,0.18927
2680.57144,0.18432
2682.49990,0.18414
2684.42837,0.19005
2686.35684,0.19462
2688.28531,0.19357
2690.21378,0.18857
2692.14225,0.18474
2694.07072,0.18586
2695.99919,0.18924
2697.92765,0.19184
2699.85612,0.19368
2701.78459,0.19241
2703.71306,0.18854
2705.64153,0.18759
2707.57000,0.18930
2709.49847,0.18930
2711.42693,0.18889
2713.35540,0.19133
2715.28387,0.19427
2717.21234,0.19479
2719.14081,0.19482
2721.06928,0.19537
2722.99775,0.19531
2724.92622,0.19551
2726.85468,0.19637
2728.78315,0.19683
2730.71162,0.19703
2732.64009,0.19687
2734.56856,0.19493
2736.49703,0.19242
2738.42550,0.19237
2740.35396,0.19300
2742.28243,0.19112
2744.21090,0.19006
2746.13937,0.19216
2748.06784,0.19351
2749.99631,0.19208
2751.92478,0.18987
2753.85325,0.18900
2755.78171,0.18937
2757.71018,0.19037
2759.63865,0.19120
2761.56712,0.19176
2763.49559,0.19456
2765.42406,0.19804
2767.35253,0.20021
2769.28099,0.20304
2771.20946,0.20298
2773.13793,0.19803
2775.06640,0.19447
2776.99487,0.19432
2778.92334,0.19474
2780.85181,0.19649
2782.78028,0.19951
2784.70874,0.19909
2786.63721,0.19525
2788.56568,0.19369
2790.49415,0.19546
2792.42262,0.19722
2794.35109,0.19612
2796.27956,0.19369
2798.20802,0.19423
2800.13649,0.19627
2802.06496,0.19529
2803.99343,0.19228
2805.92190,0.19249
2807.85037,0.19647
2809.77884,0.19986
2811.70731,0.20217
2813.63577,0.20493
2815.56424,0.20620
2817.49271,0.20301
2819.42118,0.19679
2821.34965,0.19254
2823.27812,0.19205
2825.20659,0.19369
2827.13505,0.19462
2829.06352,0.19396
2830.99199,0.19501
2832.92046,0.19830
2834.84893,0.20033
2836.77740,0.19993
2838.70587,0.19810
2840.63433,0.19510
2842.56280,0.19230
2844.49127,0.19128
2846.41974,0.19247
2848.34821,0.19596
2850.27668,0.19885
2852.20515,0.19826
2854.13362,0.19591
2856.06208,0.19560
2857.99055,0.19784
2859.91902,0.19883
2861.84749,0.19778
2863.77596,0.19745
2865.70443,0.19763
2867.63290,0.19647
2869.56136,0.19447
2871.48983,0.19348
2873.41830,0.19365
2875.34677,0.19382
2877.27524,0.19442
2879.20371,0.19748
2881.13218,0.20135
2883.06065,0.20168
2884.98911,0.20005
2886.91758,0.19919
2888.84605,0.19763
2890.77452,0.19592
2892.70299,0.19539
2894.63146,0.19608
2896.55993,0.19759
2898.48839,0.19794
2900.41686,0.19674
2902.34533,0.19597
2904.27380,0.19644
2906.20227,0.19706
2908.13074,0.19667
2910.05921,0.19446
2911.98768,0.19161
2913.91614,0.18904
2915.84461,0.18768
2917.77308,0.19160
2919.70155,0.19779
2921.63002,0.19924
2923.55849,0.19406
2925.48696,0.18404
2927.41542,0.18237
2929.34389,0.19348
2931.27236,0.19961
2933.20083,0.19757
2935.12930,0.19800
2937.05777,0.19936
2938.98624,0.19891
2940.91471,0.19754
2942.84317,0.19574
2944.77164,0.19444
2946.70011,0.19241
2948.62858,0.19022
2950.55705,0.19064
2952.48552,0.19299
2954.41399,0.19419
2956.34245,0.19343
2958.27092,0.19382
2960.19939,0.19718
2962.12786,0.19853
2964.05633,0.19445
2965.98480,0.19043
2967.91327,0.19126
2969.84174,0.19568
2971.77020,0.20020
2973.69867,0.20181
2975.62714,0.19819
2977.55561,0.19221
2979.48408,0.19112
2981.41255,0.19428
2983.34102,0.19664
2985.26948,0.19795
2987.19795,0.19814
2989.12642,0.19907
2991.05489,0.20399
2992.98336,0.20820
2994.91183,0.20664
2996.84030,0.20186
2998.76877,0.19909
3000.69723,0.20073
3002.62570,0.20146
3004.55417,0.19855
3006.48264,0.19635
3008.41111,0.19493
3010.33958,0.19161
3012.26805,0.18536
3014.19651,0.17443
3016.12498,0.16357
3018.05345,0.16715
3019.98192,0.18618
3021.91039,0.20305
3023.83886,0.20814
3025.76733,0.20556
3027.69579,0.20087
3029.62426,0.19878
3031.55273,0.20128
3033.48120,0.20338
3035.40967,0.20269
3037.33814,0.20300
3039.26661,0.20426
3041.19508,0.20202
3043.12354,0.19848
3045.05201,0.19956
3046.98048,0.20188
3048.90895,0.20101
3050.83742,0.19877
3052.76589,0.19828
3054.69436,0.19743
3056.62282,0.19383
3058.55129,0.19547
3060.47976,0.20223
3062.40823,0.20378
3064.33670,0.19903
3066.26517,0.19369
3068.19364,0.19437
3070.12211,0.20006
3072.05057,0.20347
3073.97904,0.20137
3075.90751,0.19629
3077.83598,0.19590
3079.76445,0.20070
3081.69292,0.20049
3083.62139,0.19164
3085.54985,0.18600
3087.47832,0.19361
3089.40679,0.20365
3091.33526,0.20131
3093.26373,0.18877
3095.19220,0.18094
3097.12067,0.18638
3099.04914,0.19522
3100.97760,0.19851
3102.90607,0.19663
3104.83454,0.19244
3106.76301,0.18928
3108.69148,0.18705
3110.61995,0.18570
3112.54842,0.18833
3114.47688,0.19760
3116.40535,0.20652
3118.33382,0.20519
3120.26229,0.19866
3122.19076,0.19719
3124.11923,0.19964
3126.04770,0.20172
3127.97617,0.20372
3129.90463,0.20222
3131.83310,0.19786
3133.76157,0.19791
3135.69004,0.20208
3137.61851,0.20558
3139.54698,0.20629
3141.47545,0.20335
3143.40391,0.19706
3145.33238,0.19180
3147.26085,0.19159
3149.18932,0.19646
3151.11779,0.20383
3153.04626,0.20740
3154.97473,0.20451
3156.90320,0.20165
3158.83166,0.20415
3160.76013,0.20878
3162.68860,0.21240
3164.61707,0.21308
3166.54554,0.20873
3168.47401,0.20477
3170.40248,0.20553
3172.33094,0.20739
3174.25941,0.20847
3176.18788,0.20908
3178.11635,0.20901
3180.04482,0.21029
3181.97329,0.21111
3183.90176,0.20720
3185.83022,0.20193
3187.75869,0.19851
3189.68716,0.19717
3191.61563,0.20089
3193.54410,0.20719
3195.47257,0.21189
3197.40104,0.21421
3199.32951,0.21082
3201.25797,0.20489
3203.18644,0.20352
3205.11491,0.20495
3207.04338,0.20455
3208.97185,0.20266
3210.90032,0.20259
3212.82879,0.20364
3214.75725,0.20441
3216.68572,0.20837
3218.61419,0.21459
3220.54266,0.21523
3222.47113,0.20923
3224.39960,0.20393
3226.32807,0.20049
3228.25654,0.19737
3230.18500,0.19717
3232.11347,0.19986
3234.04194,0.20357
3235.97041,0.20666
3237.89888,0.20799
3239.82735,0.20713
3241.75582,0.20359
3243.68428,0.19891
3245.61275,0.19529
3247.54122,0.19398
3249.46969,0.19408
3251.39816,0.19332
3253.32663,0.19350
3255.25510,0.19545
3257.18357,0.19494
3259.11203,0.19366
3261.04050,0.19494
3262.96897,0.19339
3264.89744,0.18983
3266.82591,0.19273
3268.75438,0.19828
3270.68285,0.19638
3272.61131,0.18925
3274.53978,0.18797
3276.46825,0.19460
3278.39672,0.19905
3280.32519,0.19742
3282.25366,0.19719
3284.18213,0.20214
3286.11060,0.20548
3288.03906,0.20239
3289.96753,0.19756
3291.89600,0.19584
3293.82447,0.19559
3295.75294,0.19254
3297.68141,0.18805
3299.60988,0.18783
3301.53834,0.19225
3303.46681,0.19417
3305.39528,0.19069
3307.32375,0.19012
3309.25222,0.19594
3311.18069,0.20257
3313.10916,0.20569
3315.03763,0.20104
3316.96609,0.18986
3318.89456,0.18310
3320.82303,0.18691
3322.75150,0.19525
3324.67997,0.20055
3326.60844,0.20280
3328.53691,0.20374
3330.46537,0.20095
3332.39384,0.19501
3334.32231,0.19047
3336.25078,0.18875
3338.17925,0.18974
3340.10772,0.19251
3342.03619,0.19606
3343.96466,0.20099
3345.89312,0.20315
3347.82159,0.19788
3349.75006,0.18992
3351.67853,0.18909
3353.60700,0.19691
3355.53547,0.20277
3357.46394,0.20076
3359.39240,0.19625
3361.32087,0.19157
3363.24934,0.18669
3365.17781,0.18386
3367.10628,0.18380
3369.03475,0.18980
3370.96322,0.20136
3372.89168,0.20611
3374.82015,0.20027
3376.74862,0.19769
3378.67709,0.20313
3380.60556,0.20746
3382.53403,0.20799
3384.46250,0.20708
3386.39097,0.20643
3388.31943,0.20716
3390.24790,0.20669
3392.17637,0.20301
3394.10484,0.19845
3396.03331,0.19909
3397.96178,0.20656
3399.89025,0.21350
3401.81871,0.21431
3403.74718,0.20823
3405.67565,0.19894
3407.60412,0.19605
3409.53259,0.19811
3411.46106,0.19707
3413.38953,0.19818
3415.31800,0.19979
3417.24646,0.19538
3419.17493,0.19103
3421.10340,0.19146
3423.03187,0.19524
3424.96034,0.19566
3426.88881,0.19018
3428.81728,0.18605
3430.74574,0.18806
3432.67421,0.19067
3434.60268,0.18579
3436.53115,0.18150
3438.45962,0.18632
3440.38809,0.19093
3442.31656,0.18801
3444.24503,0.18123
3446.17349,0.17780
3448.10196,0.18158
3450.03043,0.18790
3451.95890,0.19097
3453.88737,0.18830
3455.81584,0.18168
3457.74431,0.17750
3459.67277,0.17806
3461.60124,0.17857
3463.52971,0.17628
3465.45818,0.17551
3467.38665,0.17549
3469.31512,0.17197
3471.24359,0.17029
3473.17206,0.17237
3475.10052,0.17309
3477.02899,0.17256
3478.95746,0.17155
3480.88593,0.16969
3482.81440,0.16867
3484.74287,0.17076
3486.67134,0.17425
3488.59980,0.17420
3490.52827,0.17234
3492.45674,0.17216
3494.38521,0.17179
3496.31368,0.17305
3498.24215,0.17635
3500.17062,0.17553
3502.09909,0.17141
3504.02755,0.17136
3505.95602,0.17658
3507.88449,0.18135
3509.81296,0.18059
3511.74143,0.17595
3513.66990,0.17182
3515.59837,0.16796
3517.52683,0.16346
3519.45530,0.16105
3521.38377,0.16519
3523.31224,0.17294
3525.24071,0.17313
3527.16918,0.16529
3529.09765,0.16085
3531.02611,0.16207
3532.95458,0.16175
3534.88305,0.16030
3536.81152,0.16184
3538.73999,0.16273
3540.66846,0.15947
3542.59693,0.15627
3544.52540,0.15670
3546.45386,0.15846
3548.38233,0.16075
3550.31080,0.16501
3552.23927,0.16732
3554.16774,0.16475
3556.09621,0.16279
3558.02468,0.16347
3559.95314,0.16312
3561.88161,0.16236
3563.81008,0.16194
3565.73855,0.15733
3567.66702,0.15011
3569.59549,0.15182
3571.52396,0.15868
3573.45243,0.15854
3575.38089,0.15026
3577.30936,0.14260
3579.23783,0.13810
3581.16630,0.13698
3583.09477,0.14048
3585.02324,0.14750
3586.95171,0.15380
3588.88017,0.14881
3590.80864,0.13952
3592.73711,0.13644
3594.66558,0.13538
3596.59405,0.13501
3598.52252,0.13779
3600.45099,0.13931
3602.37946,0.13982
3604.30792,0.14247
3606.23639,0.14277
3608.16486,0.13966
3610.09333,0.14134
3612.02180,0.14643
3613.95027,0.14654
3615.87874,0.14104
3617.80720,0.13616
3619.73567,0.13617
3621.66414,0.13663
3623.59261,0.13412
3625.52108,0.13062
3627.44955,0.12620
3629.37802,0.12337
3631.30649,0.12674
3633.23495,0.13170
3635.16342,0.13525
3637.09189,0.13676
3639.02036,0.13673
3640.94883,0.13522
3642.87730,0.13328
3644.80577,0.13317
3646.73423,0.13773
3648.66270,0.14820
3650.59117,0.14644
3652.51964,0.13464
3654.44811,0.12947
3656.37658,0.13056
3658.30505,0.13250
3660.23352,0.13177
3662.16198,0.13016
3664.09045,0.13002
3666.01892,0.13193
3667.94739,0.13551
3669.87586,0.13628
3671.80433,0.13142
3673.73280,0.12530
3675.66126,0.12009
3677.58973,0.12204
3679.51820,0.12732
3681.44667,0.12958
3683.37514,0.12822
3685.30361,0.12336
3687.23208,0.11529
3689.16055,0.11266
3691.08901,0.11674
3693.01748,0.11672
3694.94595,0.11716
3696.87442,0.12047
3698.80289,0.12303
3700.73136,0.12446
3702.65983,0.12619
3704.58829,0.12826
3706.51676,0.13049
3708.44523,0.12965
3710.37370,0.12448
3712.30217,0.12261
3714.23064,0.12524
3716.15911,0.12458
3718.08757,0.11917
3720.01604,0.11363
3721.94451,0.10925
3723.87298,0.10679
3725.80145,0.10836
3727.72992,0.10963
3729.65839,0.11350
3731.58686,0.12477
3733.51532,0.13135
3735.44379,0.12000
3737.37226,0.11099
3739.30073,0.11154
3741.22920,0.11293
3743.15767,0.11183
3745.08614,0.10753
3747.01460,0.10798
3748.94307,0.11196
3750.87154,0.11629
3752.80001,0.11556
3754.72848,0.10910
3756.65695,0.10844
3758.58542,0.11719
3760.51389,0.12534
3762.44235,0.12733
3764.37082,0.12488
3766.29929,0.12034
3768.22776,0.11962
3770.15623,0.12107
3772.08470,0.11889
3774.01317,0.11833
3775.94163,0.12319
3777.87010,0.12806
3779.79857,0.12714
3781.72704,0.12330
3783.65551,0.12275
3785.58398,0.12399
3787.51245,0.12176
3789.44092,0.11781
3791.36938,0.11669
3793.29785,0.11789
3795.22632,0.11487
3797.15479,0.10567
3799.08326,0.09986
3801.01173,0.10631
3802.94020,0.11916
3804.86866,0.11912
3806.79713,0.11217
3808.72560,0.11303
3810.65407,0.11851
3812.58254,0.12114
3814.51101,0.11952
3816.43948,0.11660
3818.36795,0.11421
3820.29641,0.10956
3822.22488,0.10913
3824.15335,0.11195
3826.08182,0.11045
3828.01029,0.10795
3829.93876,0.10705
3831.86723,0.10586
3833.79569,0.10464
3835.72416,0.10478
3837.65263,0.11013
3839.58110,0.11982
3841.50957,0.12541
3843.43804,0.12543
3845.36651,0.11973
3847.29498,0.11376
3849.22344,0.11241
3851.15191,0.11281
3853.08038,0.11289
3855.00885,0.11277
3856.93732,0.11349
3858.86579,0.11615
3860.79426,0.11718
3862.72272,0.11189
3864.65119,0.10369
3866.57966,0.10373
3868.50813,0.10921
3870.43660,0.11171
3872.36507,0.10940
3874.29354,0.10695
3876.22200,0.10914
3878.15047,0.11434
3880.07894,0.11943
3882.00741,0.12233
3883.93588,0.12152
3885.86435,0.11650
3887.79282,0.11184
3889.72129,0.11292
3891.64975,0.11674
3893.57822,0.11885
3895.50669,0.12242
3897.43516,0.12739
3899.36363,0.12754
3901.29210,0.12343
3903.22057,0.12472
3905.14903,0.12697
3907.07750,0.11915
3909.00597,0.10672
3910.93444,0.09882
3912.86291,0.09650
3914.79138,0.09816
3916.71985,0.10213
3918.64832,0.10310
3920.57678,0.10205
3922.50525,0.10197
3924.43372,0.10248
3926.36219,0.10327
3928.29066,0.10261
3930.21913,0.10162
3932.14760,0.10368
3934.07606,0.10805
3936.00453,0.11079
3937.93300,0.10979
3939.86147,0.10840
3941.78994,0.11145
3943.71841,0.11359
3945.64688,0.10975
3947.57535,0.10660
3949.50381,0.10603
3951.43228,0.10461
3953.36075,0.10375
3955.28922,0.10271
3957.21769,0.09945
3959.14616,0.09747
3961.07463,0.10032
3963.00309,0.10627
3964.93156,0.11046
3966.86003,0.11106
3968.78850,0.10919
3970.71697,0.10724
3972.64544,0.10878
3974.57391,0.11047
3976.50238,0.10780
3978.43084,0.10377
3980.35931,0.09996
3982.28778,0.09767
3984.21625,0.10049
3986.14472,0.10360
3988.07319,0.10187
3990.00166,0.10268
3991.93012,0.10747
3993.85859,0.10703
3995.78706,0.10129
3997.71553,0.09804
3999.64400,0.10112
4001.57247,0.10466
4003.50094,0.10135
4005.42941,0.09574
4007.35787,0.09743
4009.28634,0.10236
4011.21481,0.10068
4013.14328,0.09635
4015.07175,0.09565
4017.00022,0.09743
4018.92869,0.09994
4020.85715,0.10241
4022.78562,0.10281
4024.71409,0.10036
4026.64256,0.09851
4028.57103,0.09583
4030.49950,0.08747
4032.42797,0.08158
4034.35644,0.08743
4036.28490,0.09613
4038.21337,0.09887
4040.14184,0.09873
4042.07031,0.09732
4043.99878,0.09597
4045.92725,0.09746
4047.85572,0.09910
4049.78418,0.09934
4051.71265,0.10167
4053.64112,0.10595
4055.56959,0.10712
4057.49806,0.10263
4059.42653,0.09672
4061.35500,0.09507
4063.28346,0.09645
4065.21193,0.09775
4067.14040,0.09926
4069.06887,0.09994
4070.99734,0.09961
4072.92581,0.10021
4074.85428,0.10150
4076.78275,0.10189
4078.71121,0.09794
4080.63968,0.09024
4082.56815,0.08602
4084.49662,0.08780
4086.42509,0.09202
4088.35356,0.09459
4090.28203,0.09160
4092.21049,0.08483
4094.13896,0.08083
4096.06743,0.08009
4097.99590,0.07990
4099.92437,0.07976
4101.85284,0.07924
4103.78131,0.07897
4105.70978,0.08022
4107.63824,0.08515
4109.56671,0.09079
4111.49518,0.09268
4113.42365,0.09283
4115.35212,0.09102
4117.28059,0.08683
4119.20906,0.08391
4121.13752,0.08236
4123.06599,0.07818
4124.99446,0.07377
4126.92293,0.07678
4128.85140,0.08575
4130.77987,0.09129
4132.70834,0.08856
4134.63681,0.08257
4136.56527,0.07719
4138.49374,0.07338
4140.42221,0.07655
4142.35068,0.08258
4144.27915,0.08117
4146.20762,0.07449
4148.13609,0.07003
4150.06455,0.06897
4151.99302,0.07031
4153.92149,0.07370
4155.84996,0.07792
4157.77843,0.08202
4159.70690,0.08401
4161.63537,0.08543
4163.56384,0.08763
4165.49230,0.08349
4167.42077,0.07290
4169.34924,0.06677
4171.27771,0.06935
4173.20618,0.07643
4175.13465,0.08153
4177.06312,0.08158
4178.99158,0.08124
4180.92005,0.08355
4182.84852,0.08428
4184.77699,0.07927
4186.70546,0.07291
4188.63393,0.07373
4190.56240,0.07879
4192.49087,0.07825
4194.41933,0.07217
4196.34780,0.06946
4198.27627,0.07428
4200.20474,0.07956
4202.13321,0.08085
4204.06168,0.08157
4205.99015,0.08116
4207.91861,0.07842
4209.84708,0.07778
4211.77555,0.08094
4213.70402,0.08356
4215.63249,0.08301
4217.56096,0.08005
4219.48943,0.07512
4221.41789,0.07123
4223.34636,0.07186
4225.27483,0.07390
4227.20330,0.07401
4229.13177,0.06957
4231.06024,0.05953
4232.98871,0.05538
4234.91718,0.06196
4236.84564,0.06606
4238.77411,0.06724
4240.70258,0.07443
4242.63105,0.08011
4244.55952,0.07545
4246.48799,0.06580
4248.41646,0.06066
4250.34492,0.06313
4252.27339,0.07009
4254.20186,0.07481
4256.13033,0.07071
4258.05880,0.06173
4259.98727,0.05718
4261.91574,0.05673
4263.84421,0.05656
4265.77267,0.05916
4267.70114,0.06390
4269.62961,0.06449
4271.55808,0.06019
4273.48655,0.05690
4275.41502,0.05721
4277.34349,0.05392
4279.27195,0.04999
4281.20042,0.05727
4283.12889,0.06604
4285.05736,0.06562
4286.98583,0.06149
4288.91430,0.05824
4290.84277,0.05902
4292.77124,0.06070
4294.69970,0.05844
4296.62817,0.05281
4298.55664,0.04505
4300.48511,0.04298
4302.41358,0.04857
4304.34205,0.05174
4306.27052,0.05073
4308.19898,0.05163
4310.12745,0.05457
4312.05592,0.05616
4313.98439,0.05697
4315.91286,0.05672
4317.84133,0.05590
4319.76980,0.05780
4321.69827,0.05752
4323.62673,0.05022
4325.55520,0.04204
4327.48367,0.03920
4329.41214,0.04216
4331.34061,0.04919
4333.26908,0.05526
4335.19755,0.05568
4337.12601,0.05197
4339.05448,0.04761
4340.98295,0.04474
4342.91142,0.04555
4344.83989,0.04793
4346.76836,0.04630
4348.69683,0.04303
4350.62530,0.04319
4352.55376,0.04290
4354.48223,0.03996
4356.41070,0.04003
4358.33917,0.04190
4360.26764,0.04108
4362.19611,0.04223
4364.12458,0.04757
4366.05304,0.05467
4367.98151,0.05998
4369.90998,0.05583
4371.83845,0.04607
4373.76692,0.04335
4375.69539,0.04632
4377.62386,0.04694
4379.55232,0.04492
4381.48079,0.04206
4383.40926,0.03914
4385.33773,0.03828
4387.26620,0.03741
4389.19467,0.03261
4391.12314,0.03110
4393.05161,0.03851
4394.98007,0.04415
4396.90854,0.04189
4398.83701,0.04006
4400.76548,0.04383
4402.69395,0.04814
4404.62242,0.04945
4406.55089,0.04957
4408.47935,0.04909
4410.40782,0.04877
4412.33629,0.04972
4414.26476,0.04992
4416.19323,0.04592
4418.12170,0.03705
4420.05017,0.02903
4421.97864,0.02628
4423.90710,0.02122
4425.83557,0.01390
4427.76404,0.01640
4429.69251,0.02248
4431.62098,0.02228
4433.54945,0.02329
4435.47792,0.03109
4437.40638,0.03868
4439.33485,0.03627
4441.26332,0.02479
4443.19179,0.01544
4445.12026,0.01866
4447.04873,0.02638
4448.97720,0.02425
4450.90567,0.02085
4452.83413,0.02656
4454.76260,0.03402
4456.69107,0.03533
4458.61954,0.03218
4460.54801,0.02960
4462.47648,0.02658
4464.40495,0.02274
4466.33341,0.02253
4468.26188,0.02562
4470.19035,0.02663
4472.11882,0.02303
4474.04729,0.02146
4475.97576,0.02814
4477.90423,0.03386
4479.83270,0.03066
4481.76116,0.02627
4483.68963,0.02623
4485.61810,0.02661
4487.54657,0.02476
4489.47504,0.02565
4491.40351,0.03206
4493.33198,0.03286
4495.26044,0.02298
4497.18891,0.01728
4499.11738,0.02144
4501.04585,0.02254
4502.97432,0.01911
4504.90279,0.01651
4506.83126,0.01414
4508.75973,0.01770
4510.68819,0.02581
4512.61666,0.02781
4514.54513,0.02354
4516.47360,0.01844
4518.40207,0.01714
4520.33054,0.02298
4522.25901,0.03016
4524.18747,0.02871
4526.11594,0.01729
4528.04441,0.00517
4529.97288,0.00587
4531.90135,0.01707
4533.82982,0.02070
4535.75829,0.01435
4537.68676,0.00937
4539.61522,0.00898
4541.54369,0.01008
4543.47216,0.00912
4545.40063,0.00778
4547.32910,0.00899
4549.25757,0.00643
4551.18604,-0.00000
4553.11450,0.00212
4555.04297,0.01406
4556.97144,0.02346
4558.89991,0.02669
4560.82838,0.02707
4562.75685,0.02593
4564.68532,0.02967
4566.61378,0.03666
4568.54225,0.03513
4570.47072,0.02602
4572.39919,0.01685
4574.32766,0.00951
4576.25613,0.00665
4578.18460,0.00952
4580.11307,0.01361
4582.04153,0.01671
4583.97000,0.01877
4585.89847,0.01716
4587.82694,0.01052
4589.75541,0.00489
4591.68388,0.00759
4593.61235,0.01401
4595.54081,0.01518
4597.46928,0.00887
4599.39775,-0.00106
4601.32622,-0.00852
4603.25469,-0.00985
4605.18316,-0.00363
4607.11163,0.00527
4609.04010,0.00948
4610.96856,0.00925
4612.89703,0.01044
4614.82550,0.01551
4616.75397,0.01901
4618.68244,0.01548
4620.61091,0.01180
4622.53938,0.01600
4624.46784,0.01954
4626.39631,0.01250
4628.32478,0.00432
4630.25325,0.00340
4632.18172,-0.00037
4634.11019,-0.00750
4636.03866,-0.00482
4637.96713,0.00389
4639.89559,0.00603
4641.82406,-0.00092
4643.75253,-0.01017
4645.68100,-0.01375
4647.60947,-0.00932
4649.53794,0.00260
4651.46641,0.01749
4653.39487,0.02196
4655.32334,0.00941
4657.25181,-0.00422
4659.18028,-0.00388
4661.10875,0.00553
4663.03722,0.01421
4664.96569,0.01756
4666.89416,0.01991
4668.82262,0.02586
4670.75109,0.02744
4672.67956,0.02109
4674.60803,0.01077
4676.53650,-0.00074
4678.46497,-0.00517
4680.39344,-0.00016
4682.32190,0.00542
4684.25037,0.00809
4686.17884,0.01370
4688.10731,0.02292
4690.03578,0.02214
4691.96425,0.00385
4693.89272,-0.01506
4695.82119,-0.01813
4697.74965,-0.00845
4699.67812,0.00470
4701.60659,0.01062
4703.53506,0.00686
4705.46353,0.00018
4707.39200,-0.00451
4709.32047,0.00144
4711.24893,0.01380
4713.17740,0.01696
4715.10587,0.01707
4717.03434,0.01957
4718.96281,0.01694
4720.89128,0.01484
4722.81975,0.01368
4724.74821,0.00492
4726.67668,-0.00419
4728.60515,-0.00023
4730.53362,0.01235
4732.46209,0.01381
4734.39056,0.00213
4736.31903,-0.00632
4738.24750,-0.01030
4740.17596,-0.01198
4742.10443,-0.00631
4744.03290,-0.00194
4745.96137,-0.00268
4747.88984,0.00207
4749.81831,0.00944
4751.74678,0.01230
4753.67524,0.00791
4755.60371,0.00020
4757.53218,0.00007
4759.46065,0.00514
4761.38912,0.01388
4763.31759,0.02475
4765.24606,0.02121
4767.17453,0.00473
4769.10299,0.00145
4771.03146,0.01350
4772.95993,0.01916
4774.88840,0.01662
4776.81687,0.01673
4778.74534,0.02235
4780.67381,0.02829
4782.60227,0.01877
4784.53074,-0.00481
4786.45921,-0.01404
4788.38768,-0.00884
4790.31615,-0.01106
4792.24462,-0.01656
4794.17309,-0.01600
4796.10156,-0.01066
4798.03002,-0.00506
4799.95849,-0.00103
4801.88696,0.00049
4803.81543,-0.00230
4805.74390,0.00071
4807.67237,0.01412
4809.60084,0.02033
4811.52930,0.00871
4813.45777,-0.00359
4815.38624,-0.00366
4817.31471,-0.00334
4819.24318,-0.00954
4821.17165,-0.01226
4823.10012,-0.00310
4825.02859,0.01052
4826.95705,0.01506
4828.88552,0.01770
4830.81399,0.02970
4832.74246,0.03276
4834.67093,0.01676
4836.59940,0.00197
4838.52787,-0.00265
4840.45633,-0.00138
4842.38480,0.00007
4844.31327,-0.00010
4846.24174,0.00605
4848.17021,0.01851
4850.09868,0.02704
4852.02715,0.02497
4853.95562,0.01523
4855.88408,0.00682
4857.81255,0.00442
4859.74102,-0.00190
4861.66949,-0.01699
4863.59796,-0.02408
4865.52643,-0.01727
4867.45490,-0.01101
4869.38336,-0.01332
4871.31183,-0.01312
4873.24030,-0.00018
4875.16877,0.01709
4877.09724,0.02781
4879.02571,0.02756
4880.95418,0.02209
4882.88265,0.02470
4884.81111,0.02922
4886.73958,0.02027
4888.66805,0.00374
4890.59652,-0.00475
4892.52499,-0.00215
4894.45346,0.00452
4896.38193,0.01108
4898.31039,0.01354
4900.23886,0.00848
4902.16733,0.00121
4904.09580,0.00160
4906.02427,0.00638
4907.95274,0.00159
4909.88121,-0.00388
4911.80967,0.00052
4913.73814,0.00783
4915.66661,0.00882
4917.59508,0.00579
4919.52355,0.01049
4921.45202,0.01666
4923.38049,0.01481
4925.30896,0.01435
4927.23742,0.01931
4929.16589,0.01844
4931.09436,0.00409
4933.02283,-0.01102
4934.95130,-0.01410
4936.87977,-0.01036
4938.80824,-0.00801
4940.73670,-0.00767
4942.66517,-0.00897
4944.59364,-0.01016
4946.52211,-0.00597
4948.45058,-0.00234
4950.37905,-0.00820
4952.30752,-0.01290
4954.23599,0.00104
4956.16445,0.02119
4958.09292,0.02307
4960.02139,0.01463
4961.94986,0.01546
4963.87833,0.02701
4965.80680,0.03327
4967.73527,0.02156
4969.66373,0.00767
4971.59220,0.00791
4973.52067,0.01103
4975.44914,0.00755
4977.37761,0.00687
4979.30608,0.00929
4981.23455,0.00946
4983.16302,0.01383
4985.09148,0.01822
4987.01995,0.01394
4988.94842,0.00932
4990.87689,0.00924
4992.80536,0.01118
4994.73383,0.02118
4996.66230,0.03127
4998.59076,0.02533
5000.51923,0.01330
5002.44770,0.00790
5004.37617,0.01099
5006.30464,0.01861
5008.23311,0.01724
5010.16158,0.00666
5012.09005,0.00117
5014.01851,0.00616
5015.94698,0.01809
5017.87545,0.02453
5019.80392,0.01736
5021.73239,0.00708
5023.66086,-0.00162
5025.58933,-0.01196
5027.51779,-0.01758
5029.44626,-0.01542
5031.37473,-0.00816
5033.30320,0.00260
5035.23167,0.00906
5037.16014,0.00727
5039.08861,0.01246
5041.01708,0.02675
5042.94554,0.02474
5044.87401,0.00771
5046.80248,0.00168
5048.73095,0.00580
5050.65942,0.00143
5052.58789,-0.00747
5054.51636,-0.00068
5056.44482,0.02279
5058.37329,0.04631
5060.30176,0.05737
5062.23023,0.05381
5064.15870,0.04698
5066.08717,0.04238
5068.01564,0.03648
5069.94410,0.03660
5071.87257,0.04084
5073.80104,0.03225
5075.72951,0.01450
5077.65798,0.00784
5079.58645,0.00938
5081.51492,0.00788
5083.44339,0.00710
5085.37185,0.00689
5087.30032,0.00953
5089.22879,0.02463
5091.15726,0.04971
5093.08573,0.06073
5095.01420,0.04282
5096.94267,0.01524
5098.87113,-0.00032
5100.79960,0.00119
5102.72807,0.00749
5104.65654,0.00742
5106.58501,0.01387
5108.51348,0.02815
5110.44195,0.03356
5112.37042,0.02685
5114.29888,0.01368
5116.22735,0.00780
5118.15582,0.01378
5120.08429,0.01495
5122.01276,0.01209
5123.94123,0.01589
5125.86970,0.02609
5127.79816,0.03891
5129.72663,0.04315
5131.65510,0.03730
5133.58357,0.02874
5135.51204,0.01703
5137.44051,0.00303
5139.36898,-0.00205
5141.29745,0.00691
5143.22591,0.01229
5145.15438,0.00853
5147.08285,0.01270
5149.01132,0.01727
5150.93979,0.01269
5152.86826,0.01858
5154.79673,0.03658
5156.72519,0.04890
5158.65366,0.05094
5160.58213,0.04348
5162.51060,0.03168
5164.43907,0.02487
5166.36754,0.02006
5168.29601,0.01501
5170.22448,0.01821
5172.15294,0.02826
5174.08141,0.04116
5176.00988,0.04688
5177.93835,0.02760
5179.86682,0.00178
5181.79529,-0.00074
5183.72376,0.01537
5185.65222,0.03469
5187.58069,0.04299
5189.50916,0.03697
5191.43763,0.03144
5193.36610,0.03256
5195.29457,0.04355
5197.22304,0.06723
5199.15151,0.07899
5201.07997,0.06896
5203.00844,0.05503
5204.93691,0.03944
5206.86538,0.02062
5208.79385,0.01207
5210.72232,0.01583
5212.65079,0.01684
5214.57925,0.01906
5216.50772,0.03890
5218.43619,0.06030
5220.36466,0.06013
5222.29313,0.05133
5224.22160,0.04358
5226.15007,0.02654
5228.07854,0.00636
5230.00700,-0.00421
5231.93547,-0.00549
5233.86394,0.00341
5235.79241,0.01603
5237.72088,0.02062
5239.64935,0.01741
5241.57782,0.02060
5243.50628,0.04457
5245.43475,0.06651
5247.36322,0.05946
5249.29169,0.04340
5251.22016,0.03456
5253.14863,0.03422
5255.07710,0.04686
5257.00556,0.06141
5258.93403,0.06938
5260.86250,0.06799
5262.79097,0.05881
5264.71944,0.05338
5266.64791,0.04483
5268.57638,0.03330
5270.50485,0.03626
5272.43331,0.04476
5274.36178,0.03912
5276.29025,0.02807
5278.21872,0.03004
5280.14719,0.03310
5282.07566,0.02658
5284.00413,0.02941
5285.93259,0.04562
5287.86106,0.05859
5289.78953,0.05474
5291.71800,0.03754
5293.64647,0.03429
5295.57494,0.06144
5297.50341,0.09923
5299.43188,0.11882
5301.36034,0.12345
5303.28881,0.11263
5305.21728,0.08240
5307.14575,0.05596
5309.07422,0.04360
5311.00269,0.03421
5312.93116,0.02173
5314.85962,0.01778
5316.78809,0.03499
5318.71656,0.04894
5320.64503,0.04419
5322.57350,0.04250
5324.50197,0.05313
5326.43044,0.06731
5328.35891,0.07697
5330.28737,0.07175
5332.21584,0.05341
5334.14431,0.03794
5336.07278,0.02740
5338.00125,0.02986
5339.92972,0.06023
5341.85819,0.09534
5343.78665,0.10882
5345.71512,0.08737
5347.64359,0.04769
5349.57206,0.02059
5351.50053,0.01672
5353.42900,0.01719
5355.35747,0.00571
5357.28594,-0.00010
5359.21440,0.01042
5361.14287,0.02215
5363.07134,0.02649
5364.99981,0.03916
5366.92828,0.05727
5368.85675,0.06701
5370.78522,0.07003
5372.71368,0.06457
5374.64215,0.05417
5376.57062,0.05377
5378.49909,0.06267
5380.42756,0.06094
5382.35603,0.03920
5384.28450,0.01667
5386.21297,0.03244
5388.14143,0.07176
5390.06990,0.08139
5391.99837,0.05578
5393.92684,0.02619
5395.85531,0.02443
5397.78378,0.04501
5399.71225,0.05673
5401.64071,0.04325
5403.56918,0.03002
5405.49765,0.04393
5407.42612,0.06416
5409.35459,0.07785
5411.28306,0.08509
5413.21153,0.07096
5415.13999,0.05311
5417.06846,0.04840
5418.99693,0.04794
5420.92540,0.05368
5422.85387,0.07319
5424.78234,0.09620
5426.71081,0.10024
5428.63928,0.08515
5430.56774,0.06568
5432.49621,0.04568
5434.42468,0.03710
5436.35315,0.04461
5438.28162,0.05216
5440.21009,0.05497
5442.13856,0.04937
5444.06702,0.03916
5445.99549,0.04546
5447.92396,0.05705
5449.85243,0.05869
5451.78090,0.06880
5453.70937,0.07713
5455.63784,0.06601
5457.56631,0.05147
5459.49477,0.04612
5461.42324,0.03919
5463.35171,0.02808
5465.28018,0.02103
5467.20865,0.02028
5469.13712,0.02379
5471.06559,0.02600
5472.99405,0.02016
5474.92252,0.02307
5476.85099,0.05460
5478.77946,0.07778
5480.70793,0.07440
5482.63640,0.07510
5484.56487,0.08617
5486.49334,0.09060
5488.42180,0.08837
5490.35027,0.08689
5492.27874,0.08843
5494.20721,0.08696
5496.13568,0.07245
5498.06415,0.05481
5499.99262,0.04331
5501.92108,0.03421
5503.84955,0.04139
5505.77802,0.05558
5507.70649,0.04935
5509.63496,0.04632
5511.56343,0.05844
5513.49190,0.05042
5515.42037,0.02826
5517.34883,0.03187
5519.27730,0.05319
5521.20577,0.06373
5523.13424,0.06067
5525.06271,0.05279
5526.99118,0.04975
5528.91965,0.05681
5530.84811,0.06152
5532.77658,0.04437
5534.70505,0.01269
5536.63352,-0.00268
5538.56199,0.01164
5540.49046,0.03608
5542.41893,0.05377
5544.34740,0.06042
5546.27586,0.05650
5548.20433,0.06066
5550.13280,0.08146
5552.06127,0.09461
5553.98974,0.08643
5555.91821,0.06955
5557.84668,0.06220
5559.77514,0.07261
5561.70361,0.09642
5563.63208,0.12117
5565.56055,0.12851
5567.48902,0.11942
5569.41749,0.10409
5571.34596,0.09103
5573.27443,0.09528
5575.20289,0.10463
5577.13136,0.09722
5579.05983,0.08169
5580.98830,0.07184
5582.91677,0.06449
5584.84524,0.05971
5586.77371,0.06084
5588.70217,0.05818
5590.63064,0.04709
5592.55911,0.03524
5594.48758,0.04244
5596.41605,0.06602
5598.34452,0.06922
5600.27299,0.04979
5602.20145,0.04082
5604.12992,0.05698
5606.05839,0.08384
5607.98686,0.09244
5609.91533,0.08138
5611.84380,0.06698
5613.77227,0.04285
5615.70074,0.02682
5617.62920,0.04518
5619.55767,0.06459
5621.48614,0.05875
5623.41461,0.06969
5625.34308,0.11024
5627.27155,0.11586
5629.20002,0.07254
5631.12848,0.04283
5633.05695,0.04655
5634.98542,0.05319
5636.91389,0.05240
5638.84236,0.06964
5640.77083,0.09361
5642.69930,0.08038
5644.62777,0.05207
5646.55623,0.06900
5648.48470,0.11234
5650.41317,0.13354
5652.34164,0.12410
5654.27011,0.10009
5656.19858,0.09971
5658.12705,0.12365
5660.05551,0.13388
5661.98398,0.11335
5663.91245,0.07511
5665.84092,0.04356
5667.76939,0.03540
5669.69786,0.04883
5671.62633,0.06884
5673.55480,0.08985
5675.48326,0.10128
5677.41173,0.08186
5679.34020,0.04520
5681.26867,0.03006
5683.19714,0.04706
5685.12561,0.07682
5687.05408,0.10901
5688.98254,0.12629
5690.91101,0.11049
5692.83948,0.08844
5694.76795,0.07915
5696.69642,0.06485
5698.62489,0.04319
5700.55336,0.04096
5702.48183,0.06905
5704.41029,0.10710
5706.33876,0.14142
5708.26723,0.16556
5710.19570,0.16644
5712.12417,0.13375
5714.05264,0.08759
5715.98111,0.07809
5717.90957,0.09847
5719.83804,0.09444
5721.76651,0.05555
5723.69498,0.01672
5725.62345,0.00840
5727.55192,0.03274
5729.48039,0.05843
5731.40886,0.04673
5733.33732,0.02853
5735.26579,0.05944
5737.19426,0.09960
5739.12273,0.07838
5741.05120,0.02214
5742.97967,0.00477
5744.90814,0.04277
5746.83660,0.09981
5748.76507,0.14035
5750.69354,0.14001
5752.62201,0.11700
5754.55048,0.10577
5756.47895,0.09591
5758.40742,0.08372
5760.33588,0.07689
5762.26435,0.09109
5764.19282,0.13912
5766.12129,0.17092
5768.04976,0.15556
5769.97823,0.12849
5771.90670,0.11204
5773.83517,0.10197
5775.76363,0.09340
5777.69210,0.08058
5779.62057,0.05265
5781.54904,0.01050
5783.47751,-0.01154
5785.40598,0.02752
5787.33445,0.09149
5789.26291,0.10056
5791.19138,0.06426
5793.11985,0.04911
5795.04832,0.06558
5796.97679,0.08098
5798.90526,0.08578
5800.83373,0.08923
5802.76220,0.09714
5804.69066,0.11704
5806.61913,0.14894
5808.54760,0.16797
5810.47607,0.15323
5812.40454,0.11674
5814.33301,0.09904
5816.26148,0.12508
5818.18994,0.16123
5820.11841,0.16949
5822.04688,0.15890
5823.97535,0.14181
5825.90382,0.11808
5827.83229,0.08902
5829.76076,0.07219
5831.68923,0.08378
5833.61769,0.08893
5835.54616,0.05444
5837.47463,0.02169
5839.40310,0.02527
5841.33157,0.05178
5843.26004,0.09304
5845.18851,0.11705
5847.11697,0.09018
5849.04544,0.05584
5850.97391,0.06674
5852.90238,0.10388
5854.83085,0.12276
5856.75932,0.09149
5858.68779,0.05043
5860.61626,0.06512
5862.54472,0.10665
5864.47319,0.10202
5866.40166,0.05021
5868.33013,0.01491
5870.25860,0.02639
5872.18707,0.04524
5874.11554,0.04650
5876.04400,0.06777
5877.97247,0.10891
5879.90094,0.11552
5881.82941,0.08884
5883.75788,0.06905
5885.68635,0.07452
5887.61482,0.09193
5889.54329,0.10519
5891.47175,0.10644
5893.40022,0.09433
5895.32869,0.08022
5897.25716,0.06408
5899.18563,0.05224
5901.11410,0.05762
5903.04257,0.07170
5904.97103,0.08563
5906.89950,0.08134
5908.82797,0.03480
5910.75644,-0.00820
5912.68491,0.02571
5914.61338,0.10264
5916.54185,0.11949
5918.47032,0.07045
5920.39878,0.05106
5922.32725,0.09230
5924.25572,0.11620
5926.18419,0.09315
5928.11266,0.09326
5930.04113,0.13443
5931.96960,0.15555
5933.89806,0.12078
5935.82653,0.06857
5937.75500,0.05120
5939.68347,0.05295
5941.61194,0.06695
5943.54041,0.09796
5945.46888,0.11919
5947.39734,0.13373
5949.32581,0.13643
5951.25428,0.11248
5953.18275,0.11707
5955.11122,0.16127
5957.03969,0.16635
5958.96816,0.12398
5960.89663,0.07921
5962.82509,0.04112
5964.75356,0.03464
5966.68203,0.08092
5968.61050,0.14157
5970.53897,0.15294
5972.46744,0.11523
5974.39591,0.09169
5976.32437,0.09234
5978.25284,0.06643
5980.18131,0.03903
5982.10978,0.06077
5984.03825,0.07533
5985.96672,0.05106
5987.89519,0.03963
5989.82366,0.02543
5991.75212,-0.00626
5993.68059,0.00486
5995.60906,0.04914
5997.53753,0.05891
5999.46600,0.05604
6001.39447,0.08016
6003.32294,0.11505
6005.25140,0.12131
6007.17987,0.10676
6009.10834,0.09275
6011.03681,0.07033
6012.96528,0.06417
6014.89375,0.09224
6016.82222,0.12116
6018.75069,0.12421
6020.67915,0.12627
6022.60762,0.14342
6024.53609,0.14053
6026.46456,0.10836
6028.39303,0.09332
6030.32150,0.10701
6032.24997,0.10545
6034.17843,0.09360
6036.10690,0.08605
6038.03537,0.04862
6039.96384,0.00336
6041.89231,0.01159
6043.82078,0.04273
6045.74925,0.03358
6047.67772,-0.00198
6049.60618,-0.02144
6051.53465,0.00408
6053.46312,0.07035
6055.39159,0.13447
6057.32006,0.14557
6059.24853,0.10798
6061.17700,0.06095
6063.10546,0.04854
6065.03393,0.08367
6066.96240,0.11123
6068.89087,0.10283
6070.81934,0.07481
6072.74781,0.04891
6074.67628,0.04723
6076.60475,0.07504
6078.53321,0.11464
6080.46168,0.15443
6082.39015,0.20041
6084.31862,0.22303
6086.24709,0.19455
6088.17556,0.16991
6090.10403,0.19111
6092.03249,0.21118
6093.96096,0.17653
6095.88943,0.10183
6097.81790,0.04359
6099.74637,0.03397
6101.67484,0.06147
6103.60331,0.09419
6105.53177,0.11304
6107.46024,0.13064
6109.38871,0.12595
6111.31718,0.06692
6113.24565,0.01498
6115.17412,0.00872
6117.10259,0.01904
6119.03106,0.02624
6120.95952,0.03201
6122.88799,0.05606
6124.81646,0.11039
6126.74493,0.15784
6128.67340,0.15204
6130.60187,0.13149
6132.53034,0.12758
6134.45880,0.10100
6136.38727,0.04693
6138.31574,0.00564
6140.24421,-0.01486
6142.17268,-0.01896
6144.10115,0.02188
6146.02962,0.07642
6147.95809,0.09589
6149.88655,0.09154
6151.81502,0.08543
6153.74349,0.10192
6155.67196,0.13173
6157.60043,0.14008
6159.52890,0.12254
6161.45737,0.10239
6163.38583,0.10769
6165.31430,0.13652
6167.24277,0.16129
6169.17124,0.15958
6171.09971,0.14825
6173.02818,0.14426
6174.95665,0.11176
6176.88512,0.05265
6178.81358,0.00076
6180.74205,-0.00909
6182.67052,0.03291
6184.59899,0.07099
6186.52746,0.09261
6188.45593,0.10392
6190.38440,0.09305
6192.31286,0.07524
6194.24133,0.03900
6196.16980,0.00115
6198.09827,0.00207
6200.02674,0.01053
6201.95521,-0.00301
6203.88368,0.00116
6205.81215,0.04639
6207.74061,0.07858
6209.66908,0.06970
6211.59755,0.07966
6213.52602,0.12503
6215.45449,0.14584
6217.38296,0.12641
6219.31143,0.08275
6221.23989,0.05171
6223.16836,0.06985
6225.09683,0.08163
6227.02530,0.04563
6228.95377,0.02501
6230.88224,0.03744
6232.81071,0.03040
6234.73918,0.01080
6236.66764,0.03337
6238.59611,0.08793
6240.52458,0.11984
6242.45305,0.11656
6244.38152,0.11858
6246.30999,0.13097
6248.23846,0.12534
6250.16692,0.11777
6252.09539,0.09795
6254.02386,0.04963
6255.95233,0.04105
6257.88080,0.09223
6259.80927,0.14195
6261.73774,0.16179
6263.66621,0.16941
6265.59467,0.18939
6267.52314,0.18497
6269.45161,0.12593
6271.38008,0.07082
6273.30855,0.05101
6275.23702,0.04012
6277.16549,0.03379
6279.09395,0.03765
6281.02242,0.06645
6282.95089,0.14068
6284.87936,0.21236
6286.80783,0.23775
6288.73630,0.20573
6290.66477,0.09987
6292.59323,-0.02310
6294.52170,-0.08165
6296.45017,-0.06960
6298.37864,-0.04072
6300.30711,-0.03438
6302.23558,-0.02373
6304.16405,-0.00168
6306.09252,0.01412
6308.02098,0.06157
6309.94945,0.11892
6311.87792,0.12834
6313.80639,0.11409
6315.73486,0.10141
6317.66333,0.10173
6319.59180,0.14496
6321.52026,0.18892
6323.44873,0.15828
6325.37720,0.10884
6327.30567,0.08952
6329.23414,0.07292
6331.16261,0.07077
6333.09108,0.05942
6335.01955,0.02088
6336.94801,0.00891
6338.87648,0.02903
6340.80495,0.07116
6342.73342,0.12172
6344.66189,0.11849
6346.59036,0.04111
6348.51883,-0.04993
6350.44729,-0.07496
6352.37576,0.00116
6354.30423,0.08464
6356.23270,0.09605
6358.16117,0.06733
6360.08964,0.06914
6362.01811,0.10189
6363.94658,0.11818
6365.87504,0.10697
6367.80351,0.06959
6369.73198,0.05015
6371.66045,0.07316
6373.58892,0.07068
6375.51739,0.05357
6377.44586,0.07158
6379.37432,0.08969
6381.30279,0.10182
6383.23126,0.13457
6385.15973,0.16535
6387.08820,0.16105
6389.01667,0.12747
6390.94514,0.08969
6392.87361,0.04093
6394.80207,0.02368
6396.73054,0.10305
6398.65901,0.17675
6400.58748,0.14134
6402.51595,0.04791
6404.44442,-0.00576
6406.37289,0.01378
6408.30135,0.05496
6410.22982,0.07111
6412.15829,0.08961
6414.08676,0.09663
6416.01523,0.04487
6417.94370,-0.03458
6419.87217,-0.05625
6421.80064,-0.02637
6423.72910,-0.00148
6425.65757,-0.00016
6427.58604,-0.00691
6429.51451,0.01709
6431.44298,0.06279
6433.37145,0.04164
6435.29992,-0.02821
6437.22838,-0.02686
6439.15685,0.03112
6441.08532,0.05150
6443.01379,0.07416
6444.94226,0.11915
6446.87073,0.11246
6448.79920,0.06167
6450.72766,0.04257
6452.65613,0.04819
6454.58460,0.02571
6456.51307,0.01596
6458.44154,0.04233
6460.37001,0.05434
6462.29848,0.04939
6464.22695,0.04493
6466.15541,0.03373
6468.08388,0.02791
6470.01235,0.06351
6471.94082,0.07520
6473.86929,-0.00376
6475.79776,-0.07293
6477.72623,-0.07084
6479.65469,-0.04317
6481.58316,0.01338
6483.51163,0.10504
6485.44010,0.18730
6487.36857,0.21380
6489.29704,0.15031
6491.22551,0.05116
6493.15398,0.03607
6495.08244,0.09929
6497.01091,0.12049
6498.93938,0.05833
6500.86785,0.01722
6502.79632,0.06716
6504.72479,0.09928
6506.65326,0.06386
6508.58172,0.03859
6510.51019,0.03502
6512.43866,0.03013
6514.36713,0.09285
6516.29560,0.15862
6518.22407,0.11577
6520.15254,0.05913
6522.08101,0.07316
6524.00947,0.12403
6525.93794,0.15810
6527.86641,0.15170
6529.79488,0.09612
6531.72335,0.01944
6533.65182,0.01820
6535.58029,0.12398
6537.50875,0.20627
6539.43722,0.16374
6541.36569,0.08025
6543.29416,0.06110
6545.22263,0.08039
6547.15110,0.07366
6549.07957,0.03852
6551.00804,0.01708
6552.93650,0.09322
6554.86497,0.22921
6556.79344,0.26566
6558.72191,0.19401
6560.65038,0.10619
6562.57885,0.05076
6564.50732,0.02809
6566.43578,0.02013
6568.36425,0.04297
6570.29272,0.08413
6572.22119,0.08596
6574.14966,0.05006
6576.07813,0.05075
6578.00660,0.10889
6579.93507,0.13896
6581.86353,0.09944
6583.79200,0.05863
6585.72047,0.05598
6587.64894,0.05341
6589.57741,0.03805
6591.50588,0.02622
6593.43435,0.03290
6595.36281,0.08555
6597.29128,0.15308
6599.21975,0.16505
6601.14822,0.12062
6603.07669,0.08276
6605.00516,0.06354
6606.93363,0.06735
6608.86210,0.10553
6610.79056,0.10768
6612.71903,0.04747
6614.64750,0.02814
6616.57597,0.07354
6618.50444,0.07165
6620.43291,0.03116
6622.36138,0.06832
6624.28984,0.12251
6626.21831,0.07653
6628.14678,-0.00834
6630.07525,-0.03837
6632.00372,-0.01853
6633.93219,0.02090
6635.86066,0.06693
6637.78912,0.06793
6639.71759,0.01405
6641.64606,-0.02829
6643.57453,-0.02593
6645.50300,-0.01702
6647.43147,-0.06026
6649.35994,-0.10430
6651.28841,-0.04880
6653.21687,0.08791
6655.14534,0.22548
6657.07381,0.29762
6659.00228,0.30459
6660.93075,0.28383
6662.85922,0.20783
6664.78769,0.10438
6666.71615,0.04639
6668.64462,0.04990
6670.57309,0.08292
6672.50156,0.13130
6674.43003,0.17624
6676.35850,0.15869
6678.28697,0.08828
6680.21544,0.02995
6682.14390,-0.01216
6684.07237,-0.04980
6686.00084,-0.05729
6687.92931,-0.02772
6689.85778,0.02337
6691.78625,0.11611
6693.71472,0.20670
6695.64318,0.18126
6697.57165,0.04544
6699.50012,-0.05121
6701.42859,-0.03558
6703.35706,0.04849
6705.28553,0.12110
6707.21400,0.17961
6709.14247,0.22037
6711.07093,0.19012
6712.99940,0.11414
6714.92787,0.06998
6716.85634,0.07236
6718.78481,0.04935
6720.71328,-0.01804
6722.64175,-0.06997
6724.57021,-0.09616
6726.49868,-0.07827
6728.42715,0.01072
6730.35562,0.07810
6732.28409,0.07463
6734.21256,0.08947
6736.14103,0.08009
6738.06950,0.01642
6739.99796,-0.00292
6741.92643,0.00644
6743.85490,-0.01788
6745.78337,-0.00379
6747.71184,0.08240
6749.64031,0.13433
6751.56878,0.07433
6753.49724,-0.00370
6755.42571,0.00325
6757.35418,0.03810
6759.28265,0.04632
6761.21112,0.02957
6763.13959,0.00233
6765.06806,0.04134
6766.99653,0.14186
6768.92499,0.17867
6770.85346,0.09884
6772.78193,0.00023
6774.71040,0.01472
6776.63887,0.13747
6778.56734,0.21711
6780.49581,0.18505
6782.42427,0.07663
6784.35274,-0.02687
6786.28121,-0.05381
6788.20968,-0.00162
6790.13815,0.09693
6792.06662,0.18515
6793.99509,0.20233
6795.92355,0.16211
6797.85202,0.12043
6799.78049,0.11655
6801.70896,0.14114
6803.63743,0.14764
6805.56590,0.10064
6807.49437,-0.00989
6809.42284,-0.12561
6811.35130,-0.10982
6813.27977,0.04543
6815.20824,0.12149
6817.13671,0.05047
6819.06518,0.01519
6820.99365,0.05480
6822.92212,0.09314
6824.85058,0.12883
6826.77905,0.10877
6828.70752,0.02506
6830.63599,-0.00060
6832.56446,-0.01024
6834.49293,-0.07383
6836.42140,-0.08602
6838.34987,-0.02407
6840.27833,0.00272
6842.20680,0.01656
6844.13527,0.09660
6846.06374,0.22174
6847.99221,0.27934
6849.92068,0.18263
6851.84915,0.07129
6853.77761,0.03916
6855.70608,0.02142
6857.63455,0.03008
6859.56302,0.07295
6861.49149,0.06327
6863.41996,0.01897
6865.34843,0.00898
6867.27690,0.00895
6869.20536,0.02858
6871.13383,0.07158
6873.06230,0.07296
6874.99077,0.07001
6876.91924,0.15700
6878.84771,0.29334
6880.77618,0.32121
6882.70464,0.18537
6884.63311,0.04167
6886.56158,0.03765
6888.49005,0.14392
6890.41852,0.21527
6892.34699,0.21318
6894.27546,0.18961
6896.20393,0.13154
6898.13239,0.07460
6900.06086,0.07533
6901.98933,0.04561
6903.91780,-0.03071
6905.84627,-0.07161
6907.77474,-0.09833
6909.70321,-0.12680
6911.63167,-0.10835
6913.56014,-0.04300
6915.48861,0.00851
6917.41708,0.02856
6919.34555,0.07093
6921.27402,0.13120
6923.20249,0.15964
6925.13096,0.12664
6927.05942,0.01855
6928.98789,-0.04264
6930.91636,0.06334
6932.84483,0.16452
6934.77330,0.10988
6936.70177,0.06802
6938.63024,0.11453
6940.55870,0.09653
6942.48717,0.01315
6944.41564,0.05628
6946.34411,0.19011
6948.27258,0.19673
6950.20105,0.08885
6952.12952,0.06385
6954.05799,0.07976
6955.98645,0.02921
6957.91492,-0.01038
6959.84339,-0.05172
6961.77186,-0.13100
6963.70033,-0.15026
6965.62880,-0.09004
6967.55727,-0.00544
6969.48573,0.04506
6971.41420,0.02270
6973.34267,0.03292
6975.27114,0.10951
6977.19961,0.10873
6979.12808,0.08593
6981.05655,0.13591
6982.98501,0.17826
6984.91348,0.10475
6986.84195,-0.00654
6988.77042,-0.06035
6990.69889,-0.10508
6992.62736,-0.15659
6994.55583,-0.19666
6996.48430,-0.21495
6998.41276,-0.13322
7000.34123,0.01055
7002.26970,0.09759
7004.19817,0.12836
7006.12664,0.10372
7008.05511,0.07701
7009.98358,0.10685
7011.91204,0.14850
7013.84051,0.15066
7015.76898,0.11965
7017.69745,0.11381
7019.62592,0.09798
7021.55439,0.05010
7023.48286,0.04177
7025.41133,0.05161
7027.33979,0.06626
7029.26826,0.10787
7031.19673,0.11458
7033.12520,0.10033
7035.05367,0.08001
7036.98214,0.06367
7038.91061,0.07495
7040.83907,0.13170
7042.76754,0.25971
7044.69601,0.31260
7046.62448,0.19510
7048.55295,0.03391
7050.48142,-0.10048
7052.40989,-0.17335
7054.33836,-0.11586
7056.26682,0.01823
7058.19529,0.12804
7060.12376,0.21197
7062.05223,0.22826
7063.98070,0.12985
7065.90917,0.02411
7067.83764,-0.02098
7069.76610,0.01309
7071.69457,0.11363
7073.62304,0.13060
7075.55151,0.06865
7077.47998,0.03809
7079.40845,0.03455
7081.33692,0.03666
7083.26539,0.08327
7085.19385,0.16943
7087.12232,0.20856
7089.05079,0.16660
7090.97926,0.14357
7092.90773,0.12698
7094.83620,0.10187
7096.76467,0.13058
7098.69313,0.19445
7100.62160,0.15995
7102.55007,-0.00053
7104.47854,-0.18236
7106.40701,-0.21875
7108.33548,-0.12018
7110.26395,-0.00897
7112.19242,0.06633
7114.12088,0.04731
7116.04935,0.01628
7117.97782,0.14307
7119.90629,0.23916
7121.83476,0.11940
7123.76323,-0.01378
7125.69170,-0.03520
7127.62016,-0.04050
7129.54863,-0.05139
7131.47710,0.02574
7133.40557,0.11547
7135.33404,0.03938
7137.26251,-0.08337
7139.19098,-0.07062
7141.11944,-0.01090
7143.04791,0.01079
7144.97638,0.04717
7146.90485,0.13910
7148.83332,0.21273
7150.76179,0.25822
7152.69026,0.34575
7154.61873,0.34839
7156.54719,0.23653
7158.47566,0.21393
7160.40413,0.22992
7162.33260,0.11180
7164.26107,-0.05161
7166.18954,-0.12743
7168.11801,-0.13704
7170.04647,-0.02432
7171.97494,0.22291
7173.90341,0.41171
7175.83188,0.38456
7177.76035,0.19730
7179.68882,0.04634
7181.61729,-0.02375
7183.54576,0.05334
7185.47422,0.18411
7187.40269,0.16189
7189.33116,0.10879
7191.25963,0.16908
7193.18810,0.17487
7195.11657,0.12946
7197.04504,0.15174
7198.97350,0.06050
7200.90197,-0.10434
7202.83044,-0.06587
7204.75891,0.15073
7206.68738,0.21601
7208.61585,0.17688
7210.54432,0.11217
7212.47279,0.03067
7214.40125,0.04327
7216.32972,0.07481
7218.25819,-0.03383
7220.18666,-0.07948
7222.11513,0.00431
7224.04360,0.09634
7225.97207,0.12166
7227.90053,0.08529
7229.82900,0.05402
7231.75747,0.06724
7233.68594,0.11544
7235.61441,0.06933
7237.54288,-0.12136
7239.47135,-0.23243
7241.39982,-0.07745
7243.32828,0.13720
7245.25675,0.08738
7247.18522,-0.04772
7249.11369,-0.09793
7251.04216,-0.10829
7252.97063,-0.16351
7254.89910,-0.21636
7256.82756,-0.17020
7258.75603,-0.00735
7260.68450,0.20593
7262.61297,0.23309
7264.54144,0.08551
7266.46991,0.03232
7268.39838,-0.00760
7270.32685,-0.11638
7272.25531,-0.08873
7274.18378,0.07447
7276.11225,0.11171
7278.04072,0.02741
7279.96919,-0.05978
7281.89766,-0.10568
7283.82613,-0.17137
7285.75459,-0.16526
7287.68306,-0.03239
7289.61153,0.09706
7291.54000,0.12086
7293.46847,0.11968
7295.39694,0.14949
7297.32541,0.21483
7299.25387,0.25257
7301.18234,0.16957
7303.11081,0.02122
7305.03928,-0.13193
7306.96775,-0.29632
7308.89622,-0.20768
7310.82469,0.12129
7312.75316,0.21351
7314.68162,0.11715
7316.61009,0.10270
7318.53856,0.21623
7320.46703,0.26320
7322.39550,0.12806
7324.32397,-0.01513
7326.25244,0.02725
7328.18090,0.13944
7330.10937,0.17674
7332.03784,0.08685
7333.96631,0.00638
7335.89478,0.02148
7337.82325,0.03465
7339.75172,0.11087
7341.68019,0.18441
7343.60865,0.05566
7345.53712,-0.05387
7347.46559,-0.12597
7349.39406,-0.25513
7351.32253,-0.24516
7353.25100,-0.07886
7355.17947,0.03405
7357.10793,-0.01169
7359.03640,-0.11635
7360.96487,-0.07436
7362.89334,0.04718
7364.82181,0.15066
7366.75028,0.22854
7368.67875,0.22119
7370.60722,0.18256
7372.53568,0.21888
7374.46415,0.24092
7376.39262,0.09604
7378.32109,-0.02663
7380.24956,-0.01432
7382.17803,0.08154
7384.10650,0.23509
7386.03496,0.38616
7387.96343,0.34539
7389.89190,0.18539
7391.82037,0.18730
7393.74884,0.34999
7395.67731,0.39205
7397.60578,0.25412
7399.53425,0.17291
7401.46271,0.16831
7403.39118,0.09120
7405.31965,0.01820
7407.24812,0.03929
7409.17659,0.02928
7411.10506,-0.00253
7413.03353,0.00453
7414.96199,0.00326
7416.89046,-0.02512
7418.81893,0.04693
7420.74740,0.12883
7422.67587,-0.01846
7424.60434,-0.14961
7426.53281,-0.07766
7428.46128,0.11882
7430.38974,0.25358
7432.31821,0.21228
7434.24668,0.11581
7436.17515,0.02280
7438.10362,-0.05085
7440.03209,-0.03113
7441.96056,0.12629
7443.88902,0.34071
7445.81749,0.45205
7447.74596,0.39664
7449.67443,0.22949
7451.60290,0.07072
7453.53137,-0.04154
7455.45984,-0.09743
7457.38831,-0.12644
7459.31677,-0.13958
7461.24524,-0.01614
7463.17371,0.12719
7465.10218,0.20861
7467.03065,0.25369
7468.95912,0.20171
7470.88759,0.11940
7472.81605,0.02218
7474.74452,-0.07137
7476.67299,0.02665
7478.60146,0.30439
7480.52993,0.45503
7482.45840,0.34547
7484.38687,0.15817
7486.31533,0.03317
7488.24380,0.03206
7490.17227,0.11302
7492.10074,0.09114
7494.02921,0.01102
7495.95768,0.07723
7497.88615,0.30834
