399.19301,1.69958
401.12148,0.34143
403.04995,0.64368
404.97842,0.45709
406.90689,0.31397
408.83536,0.47383
410.76382,0.51902
412.69229,0.36566
414.62076,0.29665
416.54923,0.23941
418.47770,0.12484
420.40617,0.18199
422.33464,0.26794
424.26311,0.17734
426.19157,0.15525
428.12004,0.29883
430.04851,0.34452
431.97698,0.27338
433.90545,0.25879
435.83392,0.22424
437.76239,0.17612
439.69085,0.19065
441.61932,0.24215
443.54779,0.24818
445.47626,0.29626
447.40473,0.40224
449.33320,0.36982
451.26167,0.28980
453.19013,0.28065
455.11860,0.19912
457.04707,0.10042
458.97554,0.14419
460.90401,0.20896
462.83248,0.24588
464.76095,0.27308
466.68942,0.21597
468.61788,0.09765
470.54635,0.12277
472.47482,0.72772
474.40329,1.52868
476.33176,1.05413
478.26023,0.35847
480.18870,0.12355
482.11716,0.12908
484.04563,0.15042
485.97410,0.11813
487.90257,0.04205
489.83104,-0.00734
491.75951,-0.01426
493.68798,-0.02677
495.61645,-0.02235
497.54491,0.02526
499.47338,0.01329
501.40185,-0.04212
503.33032,-0.03072
505.25879,0.02077
507.18726,0.05118
509.11573,0.05433
511.04419,0.04830
512.97266,0.03590
514.90113,0.02284
516.82960,0.02002
518.75807,0.00683
520.68654,-0.02606
522.61501,-0.03304
524.54348,0.00028
526.47194,0.04599
528.40041,0.10368
530.32888,0.13174
532.25735,0.09185
534.18582,0.07216
536.11429,0.11138
538.04276,0.10142
539.97122,0.06132
541.89969,0.08442
543.82816,0.12751
545.75663,0.13634
547.68510,0.12444
549.61357,0.11099
551.54204,0.16270
553.47051,0.26053
555.39897,0.25679
557.32744,0.16628
559.25591,0.13040
561.18438,0.16407
563.11285,0.18873
565.04132,0.14873
566.96979,0.09538
568.89825,0.09329
570.82672,0.08935
572.75519,0.07289
574.68366,0.10767
576.61213,0.15946
578.54060,0.16552
580.46907,0.15407
582.39754,0.15765
584.32600,0.17170
586.25447,0.18284
588.18294,0.18091
590.11141,0.17233
592.03988,0.17214
593.96835,0.18253
595.89682,0.19225
597.82528,0.18347
599.75375,0.17014
601.68222,0.16471
603.61069,0.13138
605.53916,0.09560
607.46763,0.10902
609.39610,0.13806
611.32456,0.15939
613.25303,0.17856
615.18150,0.15835
617.10997,0.10868
619.03844,0.10590
620.96691,0.13471
622.89538,0.13353
624.82385,0.11630
626.75231,0.10702
628.68078,0.09794
630.60925,0.08911
632.53772,0.08951
634.46619,0.10788
636.39466,0.14346
638.32313,0.16649
640.25159,0.15209
642.18006,0.12185
644.10853,0.11242
646.03700,0.11433
647.96547,0.09099
649.89394,0.06490
651.82241,0.07259
653.75088,0.07976
655.67934,0.07437
657.60781,0.09291
659.53628,0.12126
661.46475,0.11982
663.39322,0.10018
665.32169,0.07411
667.25016,0.03605
669.17862,0.03865
671.10709,0.08360
673.03556,0.09773
674.96403,0.08716
676.89250,0.08539
678.82097,0.09575
680.74944,0.09932
682.67791,0.09230
684.60637,0.08815
686.53484,0.09783
688.46331,0.11405
690.39178,0.11977
692.32025,0.11074
694.24872,0.11126
696.17719,0.13219
698.10565,0.14169
700.03412,0.12852
701.96259,0.11951
703.89106,0.12625
705.81953,0.13657
707.74800,0.14265
709.67647,0.15048
711.60494,0.15688
713.53340,0.15547
715.46187,0.15625
717.39034,0.15182
719.31881,0.13399
721.24728,0.12769
723.17575,0.13643
725.10422,0.13373
727.03268,0.12706
728.96115,0.13743
730.88962,0.14797
732.81809,0.14702
734.74656,0.14891
736.67503,0.14867
738.60350,0.14017
740.53197,0.14289
742.46043,0.15668
744.38890,0.15735
746.31737,0.15028
748.24584,0.14883
750.17431,0.14172
752.10278,0.13476
754.03125,0.14754
755.95971,0.16315
757.88818,0.16075
759.81665,0.15966
761.74512,0.16765
763.67359,0.16666
765.60206,0.16576
767.53053,0.17219
769.45900,0.16432
771.38746,0.15304
773.31593,0.15881
775.24440,0.16227
777.17287,0.15219
779.10134,0.14353
781.02981,0.14244
782.95828,0.14010
784.88674,0.13379
786.81521,0.12472
788.74368,0.10824
790.67215,0.09717
792.60062,0.10918
794.52909,0.12507
796.45756,0.12227
798.38602,0.12003
800.31449,0.12621
802.24296,0.11915
804.17143,0.10757
806.09990,0.11545
808.02837,0.12822
809.95684,0.12694
811.88531,0.12227
813.81377,0.12105
815.74224,0.11418
817.67071,0.10457
819.59918,0.10501
821.52765,0.11471
823.45612,0.12360
825.38459,0.12261
827.31305,0.11261
829.24152,0.10159
831.16999,0.09384
833.09846,0.09269
835.02693,0.10320
836.95540,0.12298
838.88387,0.13339
840.81234,0.12816
842.74080,0.12721
844.66927,0.13645
846.59774,0.13625
848.52621,0.12514
850.45468,0.12273
852.38315,0.12895
854.31162,0.13380
856.24008,0.14132
858.16855,0.14587
860.09702,0.13965
862.02549,0.13346
863.95396,0.12606
865.88243,0.11853
867.81090,0.13922
869.73937,0.18196
871.66783,0.19011
873.59630,0.15708
875.52477,0.13608
877.45324,0.13703
879.38171,0.13960
881.31018,0.14337
883.23865,0.14540
885.16711,0.14407
887.09558,0.15074
889.02405,0.16339
890.95252,0.16532
892.88099,0.16029
894.80946,0.15776
896.73793,0.15131
898.66640,0.14497
900.59486,0.15118
902.52333,0.15969
904.45180,0.15499
906.38027,0.14848
908.30874,0.15184
910.23721,0.15497
912.16568,0.15288
914.09414,0.15738
916.02261,0.16327
917.95108,0.15828
919.87955,0.15380
921.80802,0.15182
923.73649,0.14753
925.66496,0.15231
927.59343,0.16224
929.52189,0.16007
931.45036,0.15367
933.37883,0.15730
935.30730,0.15443
937.23577,0.13604
939.16424,0.12634
941.09271,0.13041
943.02117,0.13176
944.94964,0.13462
946.87811,0.13771
948.80658,0.12514
950.73505,0.11414
952.66352,0.12246
954.59199,0.13030
956.52045,0.12883
958.44892,0.13055
960.37739,0.13232
962.30586,0.12661
964.23433,0.12430
966.16280,0.13044
968.09127,0.12937
970.01974,0.12451
971.94820,0.12750
973.87667,0.12834
975.80514,0.12729
977.73361,0.12781
979.66208,0.12190
981.59055,0.11519
983.51902,0.11793
985.44748,0.12827
987.37595,0.13706
989.30442,0.13622
991.23289,0.12939
993.16136,0.12500
995.08983,0.12237
997.01830,0.12254
998.94677,0.13063
1000.87523,0.13815
1002.80370,0.13597
1004.73217,0.13057
1006.66064,0.12945
1008.58911,0.13382
1010.51758,0.14109
1012.44605,0.14544
1014.37451,0.14498
1016.30298,0.14524
1018.23145,0.15075
1020.15992,0.15844
1022.08839,0.16134
1024.01686,0.15560
1025.94533,0.14192
1027.87380,0.12816
1029.80226,0.12958
1031.73073,0.14214
1033.65920,0.14679
1035.58767,0.14988
1037.51614,0.15779
1039.44461,0.15559
1041.37308,0.15016
1043.30154,0.15556
1045.23001,0.16303
1047.15848,0.16911
1049.08695,0.17726
1051.01542,0.17735
1052.94389,0.16405
1054.87236,0.15472
1056.80083,0.15423
1058.72929,0.15344
1060.65776,0.15904
1062.58623,0.17151
1064.51470,0.18145
1066.44317,0.18595
1068.37164,0.18357
1070.30011,0.17567
1072.22857,0.17237
1074.15704,0.17881
1076.08551,0.18072
1078.01398,0.17190
1079.94245,0.16397
1081.87092,0.16076
1083.79939,0.15994
1085.72786,0.16044
1087.65632,0.15935
1089.58479,0.15256
1091.51326,0.14409
1093.44173,0.14441
1095.37020,0.14975
1097.29867,0.15479
1099.22714,0.16490
1101.15560,0.17837
1103.08407,0.18410
1105.01254,0.17496
1106.94101,0.16368
1108.86948,0.16191
1110.79795,0.16143
1112.72642,0.15849
1114.65489,0.15102
1116.58335,0.13596
1118.51182,0.12656
1120.44029,0.12834
1122.36876,0.12851
1124.29723,0.13012
1126.22570,0.13908
1128.15417,0.14340
1130.08263,0.14133
1132.01110,0.13985
1133.93957,0.13700
1135.86804,0.13099
1137.79651,0.12879
1139.72498,0.13425
1141.65345,0.13874
1143.58191,0.14295
1145.51038,0.15289
1147.43885,0.15648
1149.36732,0.14862
1151.29579,0.14476
1153.22426,0.14810
1155.15273,0.14763
1157.08120,0.14476
1159.00966,0.14795
1160.93813,0.15555
1162.86660,0.16190
1164.79507,0.16323
1166.72354,0.15831
1168.65201,0.15301
1170.58048,0.15424
1172.50894,0.15884
1174.43741,0.16041
1176.36588,0.15964
1178.29435,0.15814
1180.22282,0.15733
1182.15129,0.16058
1184.07976,0.16735
1186.00823,0.17522
1187.93669,0.17950
1189.86516,0.17653
1191.79363,0.17276
1193.72210,0.17146
1195.65057,0.16879
1197.57904,0.16466
1199.50751,0.15920
1201.43597,0.15614
1203.36444,0.16037
1205.29291,0.16452
1207.22138,0.16159
1209.14985,0.16076
1211.07832,0.16759
1213.00679,0.17358
1214.93526,0.17635
1216.86372,0.17717
1218.79219,0.17333
1220.72066,0.16983
1222.64913,0.17078
1224.57760,0.17063
1226.50607,0.16588
1228.43454,0.16234
1230.36300,0.16610
1232.29147,0.17005
1234.21994,0.16669
1236.14841,0.16145
1238.07688,0.15819
1240.00535,0.15549
1241.93382,0.15367
1243.86229,0.15259
1245.79075,0.15307
1247.71922,0.16049
1249.64769,0.16933
1251.57616,0.16433
1253.50463,0.15128
1255.43310,0.14642
1257.36157,0.14644
1259.29003,0.14442
1261.21850,0.14535
1263.14697,0.14817
1265.07544,0.14905
1267.00391,0.14997
1268.93238,0.14907
1270.86085,0.14948
1272.78932,0.15240
1274.71778,0.15052
1276.64625,0.14720
1278.57472,0.14833
1280.50319,0.14658
1282.43166,0.14240
1284.36013,0.14364
1286.28860,0.14287
1288.21706,0.13970
1290.14553,0.14416
1292.07400,0.14955
1294.00247,0.14743
1295.93094,0.14082
1297.85941,0.13134
1299.78788,0.11761
1301.71634,0.09644
1303.64481,0.07534
1305.57328,0.08237
1307.50175,0.11921
1309.43022,0.14734
1311.35869,0.15179
1313.28716,0.14927
1315.21563,0.14849
1317.14409,0.15349
1319.07256,0.16233
1321.00103,0.16347
1322.92950,0.15886
1324.85797,0.15337
1326.78644,0.14791
1328.71491,0.14587
1330.64337,0.14331
1332.57184,0.14170
1334.50031,0.14538
1336.42878,0.14634
1338.35725,0.14534
1340.28572,0.14084
1342.21419,0.16976
1344.14266,0.28136
1346.07112,0.35358
1347.99959,0.27114
1349.92806,0.17087
1351.85653,0.15042
1353.78500,0.14901
1355.71347,0.14688
1357.64194,0.15246
1359.57040,0.16050
1361.49887,0.16896
1363.42734,0.17349
1365.35581,0.17143
1367.28428,0.16947
1369.21275,0.17101
1371.14122,0.17430
1373.06969,0.17985
1374.99815,0.18318
1376.92662,0.18089
1378.85509,0.17842
1380.78356,0.17898
1382.71203,0.17973
1384.64050,0.17874
1386.56897,0.17907
1388.49743,0.18305
1390.42590,0.18789
1392.35437,0.18935
1394.28284,0.18518
1396.21131,0.17989
1398.13978,0.18044
1400.06825,0.18284
1401.99672,0.18286
1403.92518,0.18075
1405.85365,0.17788
1407.78212,0.17706
1409.71059,0.17566
1411.63906,0.17125
1413.56753,0.16888
1415.49600,0.17389
1417.42446,0.18292
1419.35293,0.18381
1421.28140,0.17689
1423.20987,0.17328
1425.13834,0.17351
1427.06681,0.17528
1428.99528,0.17612
1430.92375,0.17398
1432.85221,0.17294
1434.78068,0.17566
1436.70915,0.17697
1438.63762,0.17476
1440.56609,0.17307
1442.49456,0.17171
1444.42303,0.17191
1446.35149,0.17429
1448.27996,0.17619
1450.20843,0.17708
1452.13690,0.17901
1454.06537,0.18247
1455.99384,0.18626
1457.92231,0.18580
1459.85077,0.18014
1461.77924,0.17644
1463.70771,0.17607
1465.63618,0.17631
1467.56465,0.17614
1469.49312,0.17842
1471.42159,0.18439
1473.35006,0.18856
1475.27852,0.18670
1477.20699,0.18575
1479.13546,0.18654
1481.06393,0.18574
1482.99240,0.18451
1484.92087,0.18860
1486.84934,0.19962
1488.77780,0.21111
1490.70627,0.20933
1492.63474,0.19890
1494.56321,0.19313
1496.49168,0.19579
1498.42015,0.20000
1500.34862,0.19974
1502.27709,0.20733
1504.20555,0.22813
1506.13402,0.24813
1508.06249,0.22909
1509.99096,0.20622
1511.91943,0.19871
1513.84790,0.19726
1515.77637,0.20072
1517.70483,0.20992
1519.63330,0.22165
1521.56177,0.22820
1523.49024,0.22380
1525.41871,0.21716
1527.34718,0.20838
1529.27565,0.20020
1531.20412,0.19808
1533.13258,0.19863
1535.06105,0.19815
1536.98952,0.20378
1538.91799,0.22571
1540.84646,0.25118
1542.77493,0.23790
1544.70340,0.20892
1546.63186,0.18921
1548.56033,0.18651
1550.48880,0.19340
1552.41727,0.19866
1554.34574,0.20174
1556.27421,0.20911
1558.20268,0.21875
1560.13115,0.20527
1562.05961,0.19341
1563.98808,0.19036
1565.91655,0.18743
1567.84502,0.18820
1569.77349,0.19064
1571.70196,0.18527
1573.63043,0.18203
1575.55889,0.18661
1577.48736,0.18652
1579.41583,0.17897
1581.34430,0.17397
1583.27277,0.17183
1585.20124,0.17083
1587.12971,0.17109
1589.05818,0.17008
1590.98664,0.16759
1592.91511,0.16802
1594.84358,0.17112
1596.77205,0.17257
1598.70052,0.17276
1600.62899,0.17369
1602.55746,0.17386
1604.48592,0.17243
1606.41439,0.17185
1608.34286,0.17422
1610.27133,0.17503
1612.19980,0.17434
1614.12827,0.17922
1616.05674,0.18598
1617.98521,0.18659
1619.91367,0.18630
1621.84214,0.18654
1623.77061,0.18696
1625.69908,0.18947
1627.62755,0.19099
1629.55602,0.18790
1631.48449,0.18367
1633.41295,0.18372
1635.34142,0.18959
1637.26989,0.19199
1639.19836,0.18853
1641.12683,0.18699
1643.05530,0.19108
1644.98377,0.20395
1646.91223,0.21758
1648.84070,0.21367
1650.76917,0.21109
1652.69764,0.21971
1654.62611,0.21405
1656.55458,0.20118
1658.48305,0.19348
1660.41152,0.18674
1662.33998,0.18227
1664.26845,0.18713
1666.19692,0.19934
1668.12539,0.21198
1670.05386,0.21657
1671.98233,0.21117
1673.91080,0.20489
1675.83926,0.20215
1677.76773,0.20502
1679.69620,0.20901
1681.62467,0.21245
1683.55314,0.21814
1685.48161,0.21382
1687.41008,0.20434
1689.33855,0.20246
1691.26701,0.20217
1693.19548,0.20094
1695.12395,0.20493
1697.05242,0.21551
1698.98089,0.22361
1700.90936,0.22126
1702.83783,0.21294
1704.76629,0.20499
1706.69476,0.19603
1708.62323,0.19046
1710.55170,0.18999
1712.48017,0.19257
1714.40864,0.20006
1716.33711,0.21097
1718.26558,0.20546
1720.19404,0.19139
1722.12251,0.18743
1724.05098,0.18798
1725.97945,0.18668
1727.90792,0.18598
1729.83639,0.18874
1731.76486,0.19478
1733.69332,0.19896
1735.62179,0.19404
1737.55026,0.18876
1739.47873,0.18678
1741.40720,0.18604
1743.33567,0.18589
1745.26414,0.18641
1747.19261,0.18851
1749.12107,0.19205
1751.04954,0.19029
1752.97801,0.18410
1754.90648,0.18203
1756.83495,0.18464
1758.76342,0.18878
1760.69189,0.19296
1762.62035,0.19255
1764.54882,0.18639
1766.47729,0.18365
1768.40576,0.18907
1770.33423,0.19823
1772.26270,0.20092
1774.19117,0.19272
1776.11964,0.18392
1778.04810,0.18031
1779.97657,0.18237
1781.90504,0.18443
1783.83351,0.18324
1785.76198,0.18343
1787.69045,0.18583
1789.61892,0.18938
1791.54738,0.19236
1793.47585,0.19062
1795.40432,0.18717
1797.33279,0.18531
1799.26126,0.18565
1801.18973,0.18756
1803.11820,0.18764
1805.04666,0.18657
1806.97513,0.18606
1808.90360,0.18645
1810.83207,0.18802
1812.76054,0.18920
1814.68901,0.18950
1816.61748,0.18386
1818.54595,0.16729
1820.47441,0.15353
1822.40288,0.16100
1824.33135,0.18396
1826.25982,0.19736
1828.18829,0.19689
1830.11676,0.19445
1832.04523,0.19293
1833.97369,0.19156
1835.90216,0.19000
1837.83063,0.18812
1839.75910,0.18686
1841.68757,0.18983
1843.61604,0.19732
1845.54451,0.19928
1847.47298,0.19322
1849.40144,0.18730
1851.32991,0.18550
1853.25838,0.18652
1855.18685,0.18866
1857.11532,0.19136
1859.04379,0.19135
1860.97226,0.18692
1862.90072,0.18310
1864.82919,0.18531
1866.75766,0.19302
1868.68613,0.19900
1870.61460,0.19557
1872.54307,0.18696
1874.47154,0.18076
1876.40001,0.17966
1878.32847,0.18098
1880.25694,0.18259
1882.18541,0.18500
1884.11388,0.18673
1886.04235,0.18669
1887.97082,0.18659
1889.89929,0.18502
1891.82775,0.18176
1893.75622,0.18127
1895.68469,0.18206
1897.61316,0.18091
1899.54163,0.17935
1901.47010,0.17908
1903.39857,0.18034
1905.32704,0.18204
1907.25550,0.18312
1909.18397,0.18256
1911.11244,0.18161
1913.04091,0.18399
1914.96938,0.18817
1916.89785,0.18801
1918.82632,0.18262
1920.75478,0.18069
1922.68325,0.18567
1924.61172,0.18885
1926.54019,0.18589
1928.46866,0.18284
1930.39713,0.18088
1932.32560,0.17817
1934.25407,0.17629
1936.18253,0.17460
1938.11100,0.17330
1940.03947,0.17485
1941.96794,0.17819
1943.89641,0.18073
1945.82488,0.18210
1947.75335,0.18369
1949.68181,0.18515
1951.61028,0.18410
1953.53875,0.18254
1955.46722,0.18347
1957.39569,0.18327
1959.32416,0.18122
1961.25263,0.18011
1963.18110,0.17952
1965.10956,0.18121
1967.03803,0.18372
1968.96650,0.18301
1970.89497,0.18366
1972.82344,0.18820
1974.75191,0.19029
1976.68038,0.18765
1978.60884,0.18641
1980.53731,0.18816
1982.46578,0.18851
1984.39425,0.18853
1986.32272,0.19003
1988.25119,0.18950
1990.17966,0.18800
1992.10812,0.18852
1994.03659,0.18876
1995.96506,0.18927
1997.89353,0.19072
1999.82200,0.19074
2001.75047,0.19014
2003.67894,0.19050
2005.60741,0.19156
2007.53587,0.19221
2009.46434,0.19167
2011.39281,0.19061
2013.32128,0.18868
2015.24975,0.18666
2017.17822,0.18722
2019.10669,0.18885
2021.03515,0.18982
2022.96362,0.19149
2024.89209,0.19168
2026.82056,0.18752
2028.74903,0.18390
2030.67750,0.18623
2032.60597,0.19006
2034.53444,0.19014
2036.46290,0.18869
2038.39137,0.18820
2040.31984,0.18815
2042.24831,0.18712
2044.17678,0.18551
2046.10525,0.18543
2048.03372,0.18717
2049.96218,0.18908
2051.89065,0.18841
2053.81912,0.18444
2055.74759,0.18228
2057.67606,0.18308
2059.60453,0.18149
2061.53300,0.18027
2063.46147,0.18298
2065.38993,0.18439
2067.31840,0.18378
2069.24687,0.18349
2071.17534,0.18147
2073.10381,0.17937
2075.03228,0.18191
2076.96075,0.18651
2078.88921,0.18644
2080.81768,0.18293
2082.74615,0.18043
2084.67462,0.17930
2086.60309,0.18113
2088.53156,0.18521
2090.46003,0.18609
2092.38850,0.18411
2094.31696,0.18427
2096.24543,0.18600
2098.17390,0.18581
2100.10237,0.18457
2102.03084,0.18399
2103.95931,0.18318
2105.88778,0.18291
2107.81624,0.18437
2109.74471,0.18692
2111.67318,0.18937
2113.60165,0.19020
2115.53012,0.18995
2117.45859,0.19072
2119.38706,0.19185
2121.31553,0.19058
2123.24399,0.18822
2125.17246,0.18742
2127.10093,0.18770
2129.02940,0.18927
2130.95787,0.19111
2132.88634,0.19125
2134.81481,0.19080
2136.74327,0.19106
2138.67174,0.19155
2140.60021,0.19094
2142.52868,0.18913
2144.45715,0.18827
2146.38562,0.18940
2148.31409,0.18998
2150.24255,0.18898
2152.17102,0.18893
2154.09949,0.18932
2156.02796,0.18782
2157.95643,0.18637
2159.88490,0.18718
2161.81337,0.18903
2163.74184,0.19122
2165.67030,0.19318
2167.59877,0.19340
2169.52724,0.19329
2171.45571,0.19454
2173.38418,0.19395
2175.31265,0.19022
2177.24112,0.18736
2179.16958,0.18606
2181.09805,0.18386
2183.02652,0.18166
2184.95499,0.18188
2186.88346,0.18327
2188.81193,0.18347
2190.74040,0.18420
2192.66887,0.18592
2194.59733,0.18667
2196.52580,0.18693
2198.45427,0.18754
2200.38274,0.18944
2202.31121,0.19220
2204.23968,0.19215
2206.16815,0.18847
2208.09661,0.18550
2210.02508,0.18552
2211.95355,0.18576
2213.88202,0.18552
2215.81049,0.18663
2217.73896,0.18677
2219.66743,0.18414
2221.59590,0.18358
2223.52436,0.18608
2225.45283,0.18506
2227.38130,0.18177
2229.30977,0.18263
2231.23824,0.18439
2233.16671,0.18336
2235.09518,0.18367
2237.02364,0.18550
2238.95211,0.18368
2240.88058,0.17960
2242.80905,0.17931
2244.73752,0.18173
2246.66599,0.18320
2248.59446,0.18473
2250.52293,0.18555
2252.45139,0.18411
2254.37986,0.18327
2256.30833,0.18398
2258.23680,0.18449
2260.16527,0.18601
2262.09374,0.18829
2264.02221,0.18845
2265.95067,0.18636
2267.87914,0.18458
2269.80761,0.18480
2271.73608,0.18590
2273.66455,0.18688
2275.59302,0.18749
2277.52149,0.18803
2279.44996,0.18925
2281.37842,0.18880
2283.30689,0.18601
2285.23536,0.18449
2287.16383,0.18540
2289.09230,0.18590
2291.02077,0.18501
2292.94924,0.18604
2294.87770,0.18985
2296.80617,0.19129
2298.73464,0.18717
2300.66311,0.18199
2302.59158,0.17972
2304.52005,0.17859
2306.44852,0.17678
2308.37699,0.17359
2310.30545,0.17026
2312.23392,0.17171
2314.16239,0.17667
2316.09086,0.17702
2318.01933,0.17385
2319.94780,0.17560
2321.87627,0.18204
2323.80473,0.18579
2325.73320,0.18699
2327.66167,0.18681
2329.59014,0.18139
2331.51861,0.17753
2333.44708,0.18411
2335.37555,0.19118
2337.30401,0.18612
2339.23248,0.17807
2341.16095,0.17994
2343.08942,0.18334
2345.01789,0.18051
2346.94636,0.17328
2348.87483,0.16619
2350.80330,0.16114
2352.73176,0.15697
2354.66023,0.15861
2356.58870,0.16340
2358.51717,0.15203
2360.44564,0.14152
2362.37411,0.14934
2364.30258,0.14665
2366.23104,0.13005
2368.15951,0.13180
2370.08798,0.15425
2372.01645,0.17062
2373.94492,0.17288
2375.87339,0.17362
2377.80186,0.17680
2379.73033,0.17999
2381.65879,0.18449
2383.58726,0.18841
2385.51573,0.18888
2387.44420,0.18802
2389.37267,0.18866
2391.30114,0.18914
2393.22961,0.18701
2395.15807,0.18424
2397.08654,0.18384
2399.01501,0.18532
2400.94348,0.18604
2402.87195,0.18529
2404.80042,0.18407
2406.72889,0.18337
2408.65736,0.18379
2410.58582,0.18421
2412.51429,0.18492
2414.44276,0.18671
2416.37123,0.18717
2418.29970,0.18544
2420.22817,0.18438
2422.15664,0.18560
2424.08510,0.18707
2426.01357,0.18601
2427.94204,0.18372
2429.87051,0.18390
2431.79898,0.18650
2433.72745,0.18847
2435.65592,0.18840
2437.58439,0.18736
2439.51285,0.18635
2441.44132,0.18549
2443.36979,0.18530
2445.29826,0.18641
2447.22673,0.18834
2449.15520,0.18850
2451.08367,0.18809
2453.01213,0.19066
2454.94060,0.19345
2456.86907,0.19465
2458.79754,0.19653
2460.72601,0.19817
2462.65448,0.19685
2464.58295,0.19294
2466.51142,0.18923
2468.43988,0.18780
2470.36835,0.18906
2472.29682,0.19201
2474.22529,0.19507
2476.15376,0.19610
2478.08223,0.19382
2480.01070,0.19047
2481.93916,0.18943
2483.86763,0.19076
2485.79610,0.19296
2487.72457,0.19489
2489.65304,0.19420
2491.58151,0.19200
2493.50998,0.19187
2495.43844,0.19247
2497.36691,0.19148
2499.29538,0.18958
2501.22385,0.18791
2503.15232,0.18778
2505.08079,0.18997
2507.00926,0.19133
2508.93773,0.18790
2510.86619,0.18284
2512.79466,0.18173
2514.72313,0.18536
2516.65160,0.19007
2518.58007,0.19121
2520.50854,0.18942
2522.43701,0.18785
2524.36547,0.18690
2526.29394,0.18610
2528.22241,0.18595
2530.15088,0.18717
2532.07935,0.18766
2534.00782,0.18534
2535.93629,0.18407
2537.86476,0.18737
2539.79322,0.19016
2541.72169,0.18890
2543.65016,0.18752
2545.57863,0.18679
2547.50710,0.18653
2549.43557,0.18856
2551.36404,0.19105
2553.29250,0.19225
2555.22097,0.19290
2557.14944,0.19370
2559.07791,0.19270
2561.00638,0.18795
2562.93485,0.18320
2564.86332,0.18081
2566.79179,0.17906
2568.72025,0.17827
2570.64872,0.17952
2572.57719,0.18290
2574.50566,0.18673
2576.43413,0.18780
2578.36260,0.18623
2580.29107,0.18617
2582.21953,0.18728
2584.14800,0.18604
2586.07647,0.18437
2588.00494,0.18509
2589.93341,0.18776
2591.86188,0.19020
2593.79035,0.19104
2595.71882,0.19180
2597.64728,0.19213
2599.57575,0.19009
2601.50422,0.18736
2603.43269,0.18672
2605.36116,0.18754
2607.28963,0.18810
2609.21810,0.18940
2611.14656,0.19139
2613.07503,0.19389
2615.00350,0.19907
2616.93197,0.20316
2618.86044,0.20036
2620.78891,0.19418
2622.71738,0.19175
2624.64585,0.19422
2626.57431,0.19604
2628.50278,0.19434
2630.43125,0.19282
2632.35972,0.19318
2634.28819,0.19386
2636.21666,0.19299
2638.14513,0.19151
2640.07359,0.19258
2642.00206,0.19461
2643.93053,0.19488
2645.85900,0.19413
2647.78747,0.19273
2649.71594,0.19159
2651.64441,0.19232
2653.57288,0.19441
2655.50134,0.19647
2657.42981,0.19745
2659.35828,0.19755
2661.28675,0.19735
2663.21522,0.19549
2665.14369,0.19256
2667.07216,0.19238
2669.00062,0.19406
2670.92909,0.19391
2672.85756,0.19312
2674.78603,0.19153
2676.71450,0.18962
2678.64297,0.19189
2680.57144,0.19524
2682.49990,0.19527
2684.42837,0.19488
2686.35684,0.19401
2688.28531,0.19118
2690.21378,0.19163
2692.14225,0.19592
2694.07072,0.19462
2695.99919,0.18726
2697.92765,0.18449
2699.85612,0.18784
2701.78459,0.19053
2703.71306,0.19198
2705.64153,0.19333
2707.57000,0.19263
2709.49847,0.19173
2711.42693,0.19439
2713.35540,0.19899
2715.28387,0.20096
2717.21234,0.19971
2719.14081,0.19801
2721.06928,0.19621
2722.99775,0.19249
2724.92622,0.18835
2726.85468,0.18774
2728.78315,0.19154
2730.71162,0.19647
2732.64009,0.19914
2734.56856,0.20025
2736.49703,0.20066
2738.42550,0.19901
2740.35396,0.19727
2742.28243,0.19828
2744.21090,0.19969
2746.13937,0.19950
2748.06784,0.19806
2749.99631,0.19492
2751.92478,0.19362
2753.85325,0.19783
2755.78171,0.20210
2757.71018,0.20113
2759.63865,0.19972
2761.56712,0.20128
2763.49559,0.20256
2765.42406,0.20404
2767.35253,0.20776
2769.28099,0.21014
2771.20946,0.20627
2773.13793,0.20150
2775.06640,0.20434
2776.99487,0.20870
2778.92334,0.20701
2780.85181,0.20363
2782.78028,0.20346
2784.70874,0.20444
2786.63721,0.20363
2788.56568,0.20214
2790.49415,0.20152
2792.42262,0.20212
2794.35109,0.20293
2796.27956,0.20309
2798.20802,0.20363
2800.13649,0.20529
2802.06496,0.20793
2803.99343,0.21046
2805.92190,0.21222
2807.85037,0.21086
2809.77884,0.20575
2811.70731,0.20378
2813.63577,0.20552
2815.56424,0.20498
2817.49271,0.20266
2819.42118,0.20159
2821.34965,0.20309
2823.27812,0.20637
2825.20659,0.20980
2827.13505,0.21160
2829.06352,0.20905
2830.99199,0.20372
2832.92046,0.20160
2834.84893,0.20330
2836.77740,0.20357
2838.70587,0.20113
2840.63433,0.20036
2842.56280,0.20347
2844.49127,0.20669
2846.41974,0.20726
2848.34821,0.20577
2850.27668,0.20394
2852.20515,0.20361
2854.13362,0.20424
2856.06208,0.20595
2857.99055,0.20854
2859.91902,0.20910
2861.84749,0.20631
2863.77596,0.20094
2865.70443,0.19594
2867.63290,0.19491
2869.56136,0.19660
2871.48983,0.19831
2873.41830,0.19933
2875.34677,0.19720
2877.27524,0.19213
2879.20371,0.19040
2881.13218,0.19308
2883.06065,0.19515
2884.98911,0.19754
2886.91758,0.20156
2888.84605,0.20372
2890.77452,0.20436
2892.70299,0.20407
2894.63146,0.20135
2896.55993,0.19785
2898.48839,0.19442
2900.41686,0.19145
2902.34533,0.19053
2904.27380,0.18913
2906.20227,0.18724
2908.13074,0.19052
2910.05921,0.19733
2911.98768,0.20118
2913.91614,0.19675
2915.84461,0.18583
2917.77308,0.18375
2919.70155,0.19235
2921.63002,0.19848
2923.55849,0.19678
2925.48696,0.18654
2927.41542,0.18427
2929.34389,0.19817
2931.27236,0.20300
2933.20083,0.19279
2935.12930,0.18157
2937.05777,0.17564
2938.98624,0.18462
2940.91471,0.20208
2942.84317,0.20883
2944.77164,0.19798
2946.70011,0.17822
2948.62858,0.17489
2950.55705,0.19140
2952.48552,0.20270
2954.41399,0.19912
2956.34245,0.18241
2958.27092,0.17014
2960.19939,0.18221
2962.12786,0.20103
2964.05633,0.20461
2965.98480,0.19378
2967.91327,0.18332
2969.84174,0.18922
2971.77020,0.20146
2973.69867,0.20393
2975.62714,0.19587
2977.55561,0.18171
2979.48408,0.17720
2981.41255,0.18751
2983.34102,0.19872
2985.26948,0.20179
2987.19795,0.19279
2989.12642,0.18608
2991.05489,0.19607
2992.98336,0.20732
2994.91183,0.20836
2996.84030,0.20386
2998.76877,0.19983
3000.69723,0.20151
3002.62570,0.20368
3004.55417,0.19872
3006.48264,0.18967
3008.41111,0.17790
3010.33958,0.15582
3012.26805,0.11925
3014.19651,0.07639
3016.12498,0.05285
3018.05345,0.07901
3019.98192,0.13918
3021.91039,0.18258
3023.83886,0.19723
3025.76733,0.19952
3027.69579,0.19681
3029.62426,0.19639
3031.55273,0.20141
3033.48120,0.20440
3035.40967,0.19972
3037.33814,0.19401
3039.26661,0.19777
3041.19508,0.20744
3043.12354,0.21323
3045.05201,0.21098
3046.98048,0.20023
3048.90895,0.19189
3050.83742,0.19348
3052.76589,0.19546
3054.69436,0.19045
3056.62282,0.18058
3058.55129,0.17918
3060.47976,0.19123
3062.40823,0.20078
3064.33670,0.19477
3066.26517,0.18074
3068.19364,0.18401
3070.12211,0.20428
3072.05057,0.21173
3073.97904,0.19734
3075.90751,0.18133
3077.83598,0.18452
3079.76445,0.20014
3081.69292,0.20671
3083.62139,0.19963
3085.54985,0.19668
3087.47832,0.20967
3089.40679,0.22074
3091.33526,0.21293
3093.26373,0.19188
3095.19220,0.17853
3097.12067,0.18651
3099.04914,0.20117
3100.97760,0.20183
3102.90607,0.18888
3104.83454,0.18741
3106.76301,0.20526
3108.69148,0.21649
3110.61995,0.20646
3112.54842,0.19011
3114.47688,0.19071
3116.40535,0.20489
3118.33382,0.20846
3120.26229,0.19507
3122.19076,0.18445
3124.11923,0.19350
3126.04770,0.20731
3127.97617,0.20727
3129.90463,0.19746
3131.83310,0.19402
3133.76157,0.20528
3135.69004,0.21822
3137.61851,0.21701
3139.54698,0.20485
3141.47545,0.19846
3143.40391,0.20240
3145.33238,0.20698
3147.26085,0.20652
3149.18932,0.20578
3151.11779,0.21009
3153.04626,0.21247
3154.97473,0.20860
3156.90320,0.20514
3158.83166,0.20539
3160.76013,0.20421
3162.68860,0.19988
3164.61707,0.19773
3166.54554,0.19841
3168.47401,0.19913
3170.40248,0.19854
3172.33094,0.19775
3174.25941,0.19935
3176.18788,0.20259
3178.11635,0.20427
3180.04482,0.20371
3181.97329,0.20281
3183.90176,0.20325
3185.83022,0.20685
3187.75869,0.20996
3189.68716,0.20646
3191.61563,0.20142
3193.54410,0.20099
3195.47257,0.20149
3197.40104,0.20244
3199.32951,0.20533
3201.25797,0.20567
3203.18644,0.20521
3205.11491,0.20819
3207.04338,0.21089
3208.97185,0.21105
3210.90032,0.20895
3212.82879,0.20623
3214.75725,0.20682
3216.68572,0.20947
3218.61419,0.21226
3220.54266,0.21419
3222.47113,0.21336
3224.39960,0.21166
3226.32807,0.21004
3228.25654,0.20956
3230.18500,0.21196
3232.11347,0.21314
3234.04194,0.20963
3235.97041,0.20549
3237.89888,0.20241
3239.82735,0.20042
3241.75582,0.20359
3243.68428,0.20721
3245.61275,0.20633
3247.54122,0.20517
3249.46969,0.20363
3251.39816,0.20358
3253.32663,0.20916
3255.25510,0.21470
3257.18357,0.21461
3259.11203,0.21151
3261.04050,0.20898
3262.96897,0.20964
3264.89744,0.21274
3266.82591,0.21389
3268.75438,0.21378
3270.68285,0.21549
3272.61131,0.21690
3274.53978,0.21390
3276.46825,0.20792
3278.39672,0.20490
3280.32519,0.20410
3282.25366,0.20271
3284.18213,0.20229
3286.11060,0.20087
3288.03906,0.20113
3289.96753,0.20677
3291.89600,0.20872
3293.82447,0.20516
3295.75294,0.20430
3297.68141,0.20430
3299.60988,0.20284
3301.53834,0.20376
3303.46681,0.20542
3305.39528,0.20291
3307.32375,0.19842
3309.25222,0.19905
3311.18069,0.20366
3313.10916,0.20429
3315.03763,0.20280
3316.96609,0.20585
3318.89456,0.20956
3320.82303,0.20720
3322.75150,0.20288
3324.67997,0.20081
3326.60844,0.19747
3328.53691,0.19481
3330.46537,0.19894
3332.39384,0.20573
3334.32231,0.20628
3336.25078,0.20383
3338.17925,0.20664
3340.10772,0.21039
3342.03619,0.20908
3343.96466,0.20558
3345.89312,0.20141
3347.82159,0.19687
3349.75006,0.19708
3351.67853,0.20373
3353.60700,0.20908
3355.53547,0.20962
3357.46394,0.20815
3359.39240,0.20225
3361.32087,0.19533
3363.24934,0.19546
3365.17781,0.19942
3367.10628,0.20336
3369.03475,0.20861
3370.96322,0.21236
3372.89168,0.21357
3374.82015,0.21706
3376.74862,0.22100
3378.67709,0.21797
3380.60556,0.21146
3382.53403,0.21001
3384.46250,0.21039
3386.39097,0.20797
3388.31943,0.20603
3390.24790,0.20582
3392.17637,0.20769
3394.10484,0.21379
3396.03331,0.22038
3397.96178,0.22007
3399.89025,0.21527
3401.81871,0.21024
3403.74718,0.20418
3405.67565,0.20144
3407.60412,0.20416
3409.53259,0.20936
3411.46106,0.21449
3413.38953,0.21749
3415.31800,0.21885
3417.24646,0.21913
3419.17493,0.21799
3421.10340,0.21702
3423.03187,0.21716
3424.96034,0.21495
3426.88881,0.20876
3428.81728,0.20214
3430.74574,0.19716
3432.67421,0.19095
3434.60268,0.18478
3436.53115,0.18625
3438.45962,0.19369
3440.38809,0.19945
3442.31656,0.20419
3444.24503,0.20808
3446.17349,0.20693
3448.10196,0.20424
3450.03043,0.20421
3451.95890,0.20296
3453.88737,0.19730
3455.81584,0.18871
3457.74431,0.18270
3459.67277,0.18225
3461.60124,0.18336
3463.52971,0.18375
3465.45818,0.18389
3467.38665,0.18196
3469.31512,0.18063
3471.24359,0.18330
3473.17206,0.18682
3475.10052,0.18836
3477.02899,0.18737
3478.95746,0.18599
3480.88593,0.18557
3482.81440,0.18486
3484.74287,0.18449
3486.67134,0.18298
3488.59980,0.17924
3490.52827,0.17702
3492.45674,0.17711
3494.38521,0.17766
3496.31368,0.17817
3498.24215,0.17605
3500.17062,0.17215
3502.09909,0.16977
3504.02755,0.16760
3505.95602,0.16681
3507.88449,0.16948
3509.81296,0.17294
3511.74143,0.17590
3513.66990,0.17779
3515.59837,0.17479
3517.52683,0.16927
3519.45530,0.16870
3521.38377,0.17294
3523.31224,0.17613
3525.24071,0.17701
3527.16918,0.17827
3529.09765,0.17530
3531.02611,0.16879
3532.95458,0.16846
3534.88305,0.17328
3536.81152,0.17668
3538.73999,0.17651
3540.66846,0.17281
3542.59693,0.16749
3544.52540,0.16262
3546.45386,0.15749
3548.38233,0.15602
3550.31080,0.16065
3552.23927,0.16400
3554.16774,0.16333
3556.09621,0.16408
3558.02468,0.16641
3559.95314,0.16564
3561.88161,0.16356
3563.81008,0.16798
3565.73855,0.17810
3567.66702,0.17986
3569.59549,0.17093
3571.52396,0.16344
3573.45243,0.15858
3575.38089,0.15608
3577.30936,0.15464
3579.23783,0.15090
3581.16630,0.14854
3583.09477,0.15263
3585.02324,0.16083
3586.95171,0.16382
3588.88017,0.15827
3590.80864,0.15714
3592.73711,0.16176
3594.66558,0.16189
3596.59405,0.15552
3598.52252,0.15100
3600.45099,0.14846
3602.37946,0.14640
3604.30792,0.14706
3606.23639,0.14877
3608.16486,0.14599
3610.09333,0.14188
3612.02180,0.14372
3613.95027,0.14554
3615.87874,0.14335
3617.80720,0.14046
3619.73567,0.13786
3621.66414,0.13640
3623.59261,0.13509
3625.52108,0.13449
3627.44955,0.13887
3629.37802,0.14586
3631.30649,0.14291
3633.23495,0.13615
3635.16342,0.13283
3637.09189,0.13297
3639.02036,0.13502
3640.94883,0.13833
3642.87730,0.13954
3644.80577,0.13784
3646.73423,0.13585
3648.66270,0.13296
3650.59117,0.13507
3652.51964,0.13954
3654.44811,0.13831
3656.37658,0.13306
3658.30505,0.12916
3660.23352,0.12908
3662.16198,0.12951
3664.09045,0.12990
3666.01892,0.13304
3667.94739,0.13738
3669.87586,0.14011
3671.80433,0.14059
3673.73280,0.13898
3675.66126,0.13643
3677.58973,0.13571
3679.51820,0.13352
3681.44667,0.12927
3683.37514,0.12814
3685.30361,0.12986
3687.23208,0.12974
3689.16055,0.13053
3691.08901,0.13517
3693.01748,0.13518
3694.94595,0.13105
3696.87442,0.12955
3698.80289,0.13286
3700.73136,0.13543
3702.65983,0.13470
3704.58829,0.13490
3706.51676,0.13632
3708.44523,0.13828
3710.37370,0.14349
3712.30217,0.14779
3714.23064,0.14111
3716.15911,0.13256
3718.08757,0.13199
3720.01604,0.13580
3721.94451,0.13705
3723.87298,0.13823
3725.80145,0.13845
3727.72992,0.13354
3729.65839,0.12904
3731.58686,0.13307
3733.51532,0.14887
3735.44379,0.16057
3737.37226,0.15065
3739.30073,0.13919
3741.22920,0.13932
3743.15767,0.14631
3745.08614,0.14841
3747.01460,0.14563
3748.94307,0.14845
3750.87154,0.15180
3752.80001,0.14712
3754.72848,0.14066
3756.65695,0.13723
3758.58542,0.13753
3760.51389,0.13577
3762.44235,0.13004
3764.37082,0.12586
3766.29929,0.12647
3768.22776,0.12982
3770.15623,0.12873
3772.08470,0.12256
3774.01317,0.12127
3775.94163,0.12732
3777.87010,0.13407
3779.79857,0.13290
3781.72704,0.12640
3783.65551,0.12327
3785.58398,0.12135
3787.51245,0.11790
3789.44092,0.11613
3791.36938,0.11694
3793.29785,0.11856
3795.22632,0.12023
3797.15479,0.12573
3799.08326,0.13644
3801.01173,0.14075
3802.94020,0.12817
3804.86866,0.11655
3806.79713,0.11651
3808.72560,0.12446
3810.65407,0.12812
3812.58254,0.12502
3814.51101,0.11962
3816.43948,0.11451
3818.36795,0.11121
3820.29641,0.11189
3822.22488,0.11542
3824.15335,0.11326
3826.08182,0.10866
3828.01029,0.11172
3829.93876,0.11987
3831.86723,0.12305
3833.79569,0.12064
3835.72416,0.11928
3837.65263,0.11986
3839.58110,0.11868
3841.50957,0.11763
3843.43804,0.11714
3845.36651,0.11535
3847.29498,0.11357
3849.22344,0.11527
3851.15191,0.12321
3853.08038,0.13334
3855.00885,0.13015
3856.93732,0.12428
3858.86579,0.12396
3860.79426,0.12667
3862.72272,0.12934
3864.65119,0.12637
3866.57966,0.11947
3868.50813,0.11767
3870.43660,0.12212
3872.36507,0.12670
3874.29354,0.12751
3876.22200,0.12445
3878.15047,0.12256
3880.07894,0.12492
3882.00741,0.12838
3883.93588,0.13143
3885.86435,0.13317
3887.79282,0.13059
3889.72129,0.12599
3891.64975,0.12004
3893.57822,0.11463
3895.50669,0.11637
3897.43516,0.12637
3899.36363,0.13480
3901.29210,0.13130
3903.22057,0.12675
3905.14903,0.12769
3907.07750,0.12653
3909.00597,0.12409
3910.93444,0.12102
3912.86291,0.11666
3914.79138,0.11313
3916.71985,0.11215
3918.64832,0.11583
3920.57678,0.11883
3922.50525,0.11326
3924.43372,0.10335
3926.36219,0.10088
3928.29066,0.10799
3930.21913,0.11725
3932.14760,0.12076
3934.07606,0.11620
3936.00453,0.10965
3937.93300,0.10421
3939.86147,0.10062
3941.78994,0.10154
3943.71841,0.10634
3945.64688,0.11003
3947.57535,0.11015
3949.50381,0.10938
3951.43228,0.10925
3953.36075,0.10864
3955.28922,0.10944
3957.21769,0.11227
3959.14616,0.11464
3961.07463,0.11307
3963.00309,0.10628
3964.93156,0.10062
3966.86003,0.09984
3968.78850,0.09996
3970.71697,0.09951
3972.64544,0.09926
3974.57391,0.09823
3976.50238,0.09682
3978.43084,0.09641
3980.35931,0.09575
3982.28778,0.09547
3984.21625,0.09797
3986.14472,0.09905
3988.07319,0.09628
3990.00166,0.09637
3991.93012,0.10246
3993.85859,0.10667
3995.78706,0.10175
3997.71553,0.09447
3999.64400,0.09776
4001.57247,0.10680
4003.50094,0.10752
4005.42941,0.10397
4007.35787,0.10489
4009.28634,0.10720
4011.21481,0.10587
4013.14328,0.10288
4015.07175,0.10214
4017.00022,0.10313
4018.92869,0.10697
4020.85715,0.10899
4022.78562,0.10251
4024.71409,0.09720
4026.64256,0.10117
4028.57103,0.10639
4030.49950,0.10577
4032.42797,0.10186
4034.35644,0.09744
4036.28490,0.09291
4038.21337,0.09118
4040.14184,0.09236
4042.07031,0.09551
4043.99878,0.10090
4045.92725,0.10427
4047.85572,0.10263
4049.78418,0.09909
4051.71265,0.09788
4053.64112,0.10191
4055.56959,0.11043
4057.49806,0.11646
4059.42653,0.11338
4061.35500,0.10331
4063.28346,0.09505
4065.21193,0.09204
4067.14040,0.08878
4069.06887,0.08669
4070.99734,0.09134
4072.92581,0.09610
4074.85428,0.09486
4076.78275,0.09182
4078.71121,0.09035
4080.63968,0.08950
4082.56815,0.08887
4084.49662,0.08881
4086.42509,0.08865
4088.35356,0.08860
4090.28203,0.08834
4092.21049,0.08704
4094.13896,0.08778
4096.06743,0.09218
4097.99590,0.09655
4099.92437,0.09727
4101.85284,0.09233
4103.78131,0.08599
4105.70978,0.08498
4107.63824,0.08737
4109.56671,0.08880
4111.49518,0.08714
4113.42365,0.08233
4115.35212,0.07883
4117.28059,0.07851
4119.20906,0.08096
4121.13752,0.08522
4123.06599,0.08419
4124.99446,0.07802
4126.92293,0.07880
4128.85140,0.08625
4130.77987,0.08828
4132.70834,0.08406
4134.63681,0.07906
4136.56527,0.07638
4138.49374,0.07758
4140.42221,0.07928
4142.35068,0.08101
4144.27915,0.08505
4146.20762,0.08741
4148.13609,0.08426
4150.06455,0.07776
4151.99302,0.07416
4153.92149,0.07776
4155.84996,0.08382
4157.77843,0.08587
4159.70690,0.08604
4161.63537,0.08742
4163.56384,0.08866
4165.49230,0.08989
4167.42077,0.08841
4169.34924,0.08066
4171.27771,0.07289
4173.20618,0.07233
4175.13465,0.07726
4177.06312,0.08416
4178.99158,0.08954
4180.92005,0.09070
4182.84852,0.08919
4184.77699,0.08485
4186.70546,0.07823
4188.63393,0.07398
4190.56240,0.07576
4192.49087,0.08326
4194.41933,0.08673
4196.34780,0.08190
4198.27627,0.07974
4200.20474,0.08359
4202.13321,0.08705
4204.06168,0.08588
4205.99015,0.07706
4207.91861,0.06732
4209.84708,0.06724
4211.77555,0.07216
4213.70402,0.07364
4215.63249,0.07321
4217.56096,0.07199
4219.48943,0.06933
4221.41789,0.06917
4223.34636,0.07341
4225.27483,0.07706
4227.20330,0.07582
4229.13177,0.07122
4231.06024,0.06961
4232.98871,0.07449
4234.91718,0.07902
4236.84564,0.08019
4238.77411,0.08161
4240.70258,0.07903
4242.63105,0.06986
4244.55952,0.06234
4246.48799,0.06004
4248.41646,0.05668
4250.34492,0.05497
4252.27339,0.05936
4254.20186,0.06071
4256.13033,0.05623
4258.05880,0.05395
4259.98727,0.05641
4261.91574,0.05921
4263.84421,0.06072
4265.77267,0.06189
4267.70114,0.06111
4269.62961,0.05767
4271.55808,0.04953
4273.48655,0.04170
4275.41502,0.04532
4277.34349,0.05588
4279.27195,0.06268
4281.20042,0.06419
4283.12889,0.06084
4285.05736,0.05397
4286.98583,0.05130
4288.91430,0.05642
4290.84277,0.06139
4292.77124,0.06256
4294.69970,0.06062
4296.62817,0.05408
4298.55664,0.04978
4300.48511,0.05289
4302.41358,0.05600
4304.34205,0.05601
4306.27052,0.05487
4308.19898,0.05216
4310.12745,0.05008
4312.05592,0.04677
4313.98439,0.04171
4315.91286,0.04161
4317.84133,0.04527
4319.76980,0.04487
4321.69827,0.03951
4323.62673,0.03742
4325.55520,0.04291
4327.48367,0.04731
4329.41214,0.04536
4331.34061,0.04257
4333.26908,0.04361
4335.19755,0.04818
4337.12601,0.05318
4339.05448,0.05752
4340.98295,0.05929
4342.91142,0.05781
4344.83989,0.05892
4346.76836,0.05901
4348.69683,0.05558
4350.62530,0.05880
4352.55376,0.06400
4354.48223,0.05979
4356.41070,0.05330
4358.33917,0.05390
4360.26764,0.05652
4362.19611,0.05533
4364.12458,0.05358
4366.05304,0.05388
4367.98151,0.05472
4369.90998,0.05457
4371.83845,0.05147
4373.76692,0.04713
4375.69539,0.04640
4377.62386,0.04855
4379.55232,0.04780
4381.48079,0.04263
4383.40926,0.04129
4385.33773,0.04954
4387.26620,0.05753
4389.19467,0.05366
4391.12314,0.04305
4393.05161,0.03827
4394.98007,0.04045
4396.90854,0.04253
4398.83701,0.03940
4400.76548,0.03484
4402.69395,0.03760
4404.62242,0.04614
4406.55089,0.05501
4408.47935,0.05840
4410.40782,0.04961
4412.33629,0.04125
4414.26476,0.04607
4416.19323,0.04487
4418.12170,0.02818
4420.05017,0.02048
4421.97864,0.02990
4423.90710,0.03907
4425.83557,0.03699
4427.76404,0.02554
4429.69251,0.01421
4431.62098,0.01276
4433.54945,0.02143
4435.47792,0.02873
4437.40638,0.02888
4439.33485,0.02779
4441.26332,0.02910
4443.19179,0.02935
4445.12026,0.02411
4447.04873,0.01915
4448.97720,0.02117
4450.90567,0.02237
4452.83413,0.02013
4454.76260,0.02434
4456.69107,0.03115
4458.61954,0.03193
4460.54801,0.03199
4462.47648,0.03187
4464.40495,0.02580
4466.33341,0.02163
4468.26188,0.02747
4470.19035,0.02996
4472.11882,0.01935
4474.04729,0.01008
4475.97576,0.00900
4477.90423,0.01059
4479.83270,0.01680
4481.76116,0.02369
4483.68963,0.02122
4485.61810,0.01421
4487.54657,0.01439
4489.47504,0.02049
4491.40351,0.02319
4493.33198,0.02299
4495.26044,0.02684
4497.18891,0.03044
4499.11738,0.03061
4501.04585,0.03042
4502.97432,0.02777
4504.90279,0.02471
4506.83126,0.02595
4508.75973,0.02786
4510.68819,0.02500
4512.61666,0.02274
4514.54513,0.02926
4516.47360,0.04153
4518.40207,0.04817
4520.33054,0.04210
4522.25901,0.03175
4524.18747,0.02722
4526.11594,0.02496
4528.04441,0.01701
4529.97288,0.00847
4531.90135,0.00836
4533.82982,0.00865
4535.75829,0.00499
4537.68676,0.00680
4539.61522,0.01522
4541.54369,0.02125
4543.47216,0.01919
4545.40063,0.01227
4547.32910,0.01010
4549.25757,0.01443
4551.18604,0.01558
4553.11450,0.01253
4555.04297,0.01142
4556.97144,0.01721
4558.89991,0.03049
4560.82838,0.03855
4562.75685,0.03420
4564.68532,0.02277
4566.61378,0.00951
4568.54225,0.00347
4570.47072,0.00908
4572.39919,0.01362
4574.32766,0.00836
4576.25613,-0.00051
4578.18460,-0.00420
4580.11307,0.00355
4582.04153,0.01247
4583.97000,0.00918
4585.89847,0.00389
4587.82694,0.00456
4589.75541,0.00443
4591.68388,0.00314
4593.61235,0.00396
4595.54081,0.00529
4597.46928,0.00371
4599.39775,-0.00114
4601.32622,-0.00682
4603.25469,-0.01328
4605.18316,-0.01433
4607.11163,-0.00495
4609.04010,0.00652
4610.96856,0.01378
4612.89703,0.01737
4614.82550,0.01729
4616.75397,0.01184
4618.68244,0.00600
4620.61091,0.00614
4622.53938,0.00469
4624.46784,0.00067
4626.39631,0.00627
4628.32478,0.01353
4630.25325,0.00387
4632.18172,-0.01162
4634.11019,-0.00757
4636.03866,0.01082
4637.96713,0.02057
4639.89559,0.01840
4641.82406,0.01428
4643.75253,0.01288
4645.68100,0.01333
4647.60947,0.01234
4649.53794,0.01215
4651.46641,0.01576
4653.39487,0.01658
4655.32334,0.00933
4657.25181,0.00199
4659.18028,0.00732
4661.10875,0.01645
4663.03722,0.01229
4664.96569,0.00499
4666.89416,0.00916
4668.82262,0.01784
4670.75109,0.02114
4672.67956,0.01936
4674.60803,0.01776
4676.53650,0.02314
4678.46497,0.03232
4680.39344,0.02688
4682.32190,0.00480
4684.25037,-0.01009
4686.17884,-0.00429
4688.10731,0.00916
4690.03578,0.01203
4691.96425,0.00269
4693.89272,-0.00654
4695.82119,-0.00268
4697.74965,0.00987
4699.67812,0.01223
4701.60659,0.00360
4703.53506,-0.00060
4705.46353,0.00401
4707.39200,0.01127
4709.32047,0.01343
4711.24893,0.00772
4713.17740,0.00122
4715.10587,0.00037
4717.03434,0.00724
4718.96281,0.01967
4720.89128,0.02495
4722.81975,0.02061
4724.74821,0.01431
4726.67668,0.00041
4728.60515,-0.01336
4730.53362,-0.01096
4732.46209,-0.00363
4734.39056,-0.00567
4736.31903,-0.00850
4738.24750,-0.00501
4740.17596,-0.00033
4742.10443,0.01040
4744.03290,0.02213
4745.96137,0.01804
4747.88984,0.00921
4749.81831,0.01092
4751.74678,0.01715
4753.67524,0.01942
4755.60371,0.01836
4757.53218,0.02125
4759.46065,0.02374
4761.38912,0.01530
4763.31759,0.00397
4765.24606,0.00018
4767.17453,-0.00276
4769.10299,-0.00308
4771.03146,0.00335
4772.95993,0.00193
4774.88840,-0.00853
4776.81687,-0.01126
4778.74534,-0.00431
4780.67381,0.00095
4782.60227,-0.00308
4784.53074,-0.01436
4786.45921,-0.02070
4788.38768,-0.01746
4790.31615,-0.01038
4792.24462,-0.00010
4794.17309,0.00974
4796.10156,0.01191
4798.03002,0.00885
4799.95849,0.00764
4801.88696,0.01257
4803.81543,0.01967
4805.74390,0.01442
4807.67237,-0.00058
4809.60084,-0.00214
4811.52930,0.01281
4813.45777,0.02905
4815.38624,0.03447
4817.31471,0.02405
4819.24318,0.00635
4821.17165,-0.00267
4823.10012,-0.00047
4825.02859,0.01038
4826.95705,0.02987
4828.88552,0.04159
4830.81399,0.03379
4832.74246,0.01828
4834.67093,0.01438
4836.59940,0.02764
4838.52787,0.04004
4840.45633,0.04163
4842.38480,0.03981
4844.31327,0.03757
4846.24174,0.03512
4848.17021,0.02996
4850.09868,0.02316
4852.02715,0.01841
4853.95562,0.01118
4855.88408,0.00653
4857.81255,0.00689
4859.74102,0.00373
4861.66949,0.00025
4863.59796,0.00019
4865.52643,0.00567
4867.45490,0.01483
4869.38336,0.01714
4871.31183,0.01805
4873.24030,0.03021
4875.16877,0.04190
4877.09724,0.03404
4879.02571,0.01387
4880.95418,0.00054
4882.88265,0.00095
4884.81111,0.00922
4886.73958,0.01575
4888.66805,0.01519
4890.59652,0.01183
4892.52499,0.01269
4894.45346,0.01687
4896.38193,0.01320
4898.31039,-0.00004
4900.23886,0.00406
4902.16733,0.02313
4904.09580,0.01932
4906.02427,-0.00056
4907.95274,-0.00358
4909.88121,0.00552
4911.80967,0.00604
4913.73814,0.00211
4915.66661,0.00546
4917.59508,0.01163
4919.52355,0.01633
4921.45202,0.02181
4923.38049,0.02243
4925.30896,0.01607
4927.23742,0.01474
4929.16589,0.02236
4931.09436,0.02950
4933.02283,0.02105
4934.95130,0.00564
4936.87977,0.01080
4938.80824,0.02936
4940.73670,0.03754
4942.66517,0.03285
4944.59364,0.02564
4946.52211,0.01772
4948.45058,0.00460
4950.37905,-0.00162
4952.30752,0.00943
4954.23599,0.02066
4956.16445,0.01490
4958.09292,0.00155
4960.02139,-0.00470
4961.94986,-0.00220
4963.87833,0.00518
4965.80680,0.01500
4967.73527,0.02345
4969.66373,0.02611
4971.59220,0.02209
4973.52067,0.01763
4975.44914,0.02174
4977.37761,0.02980
4979.30608,0.03386
4981.23455,0.03407
4983.16302,0.03388
4985.09148,0.04004
4987.01995,0.04439
4988.94842,0.03345
4990.87689,0.02124
4992.80536,0.02292
4994.73383,0.02913
4996.66230,0.03019
4998.59076,0.02705
5000.51923,0.02196
5002.44770,0.01698
5004.37617,0.01637
5006.30464,0.01419
5008.23311,0.00068
5010.16158,-0.01299
5012.09005,-0.00626
5014.01851,0.01823
5015.94698,0.03392
5017.87545,0.03251
5019.80392,0.03041
5021.73239,0.02909
5023.66086,0.02016
5025.58933,0.00868
5027.51779,0.00898
5029.44626,0.01943
5031.37473,0.02039
5033.30320,0.01031
5035.23167,0.00008
5037.16014,-0.00954
5039.08861,-0.01226
5041.01708,-0.00532
5042.94554,0.00617
5044.87401,0.02426
5046.80248,0.03650
5048.73095,0.02899
5050.65942,0.01759
5052.58789,0.01308
5054.51636,0.01072
5056.44482,0.01606
5058.37329,0.02540
5060.30176,0.01866
5062.23023,-0.00103
5064.15870,-0.00589
5066.08717,0.00428
5068.01564,0.00090
5069.94410,-0.00950
5071.87257,-0.00206
5073.80104,0.00699
5075.72951,-0.00276
5077.65798,-0.01479
5079.58645,-0.01343
5081.51492,-0.00746
5083.44339,0.00113
5085.37185,0.01234
5087.30032,0.00799
5089.22879,-0.00892
5091.15726,-0.01165
5093.08573,0.00075
5095.01420,0.00902
5096.94267,0.00681
5098.87113,0.00171
5100.79960,0.00193
5102.72807,0.01208
5104.65654,0.02164
5106.58501,0.01694
5108.51348,0.00437
5110.44195,-0.00449
5112.37042,-0.00152
5114.29888,0.00766
5116.22735,0.00771
5118.15582,0.00933
5120.08429,0.02304
5122.01276,0.03552
5123.94123,0.03618
5125.86970,0.02197
5127.79816,0.01051
5129.72663,0.01832
5131.65510,0.02556
5133.58357,0.02300
5135.51204,0.02194
5137.44051,0.02002
5139.36898,0.01656
5141.29745,0.02099
5143.22591,0.03566
5145.15438,0.05687
5147.08285,0.07677
5149.01132,0.07355
5150.93979,0.04173
5152.86826,0.01564
5154.79673,0.01839
5156.72519,0.03688
5158.65366,0.05332
5160.58213,0.05826
5162.51060,0.04750
5164.43907,0.03235
5166.36754,0.02956
5168.29601,0.04045
5170.22448,0.05011
5172.15294,0.04411
5174.08141,0.03519
5176.00988,0.03993
5177.93835,0.04655
5179.86682,0.04722
5181.79529,0.05629
5183.72376,0.07026
5185.65222,0.06959
5187.58069,0.05843
5189.50916,0.04613
5191.43763,0.02930
5193.36610,0.01124
5195.29457,-0.00178
5197.22304,-0.00590
5199.15151,0.00426
5201.07997,0.02953
5203.00844,0.04941
5204.93691,0.04356
5206.86538,0.03045
5208.79385,0.01670
5210.72232,-0.00910
5212.65079,-0.01566
5214.57925,0.01553
5216.50772,0.06294
5218.43619,0.10078
5220.36466,0.11177
5222.29313,0.09835
5224.22160,0.07116
5226.15007,0.04094
5228.07854,0.02909
5230.00700,0.03231
5231.93547,0.02124
5233.86394,0.00080
5235.79241,-0.00390
5237.72088,0.00378
5239.64935,0.01379
5241.57782,0.02074
5243.50628,0.02483
5245.43475,0.03016
5247.36322,0.03358
5249.29169,0.03816
5251.22016,0.04440
5253.14863,0.04101
5255.07710,0.03233
5257.00556,0.02998
5258.93403,0.03178
5260.86250,0.03620
5262.79097,0.03420
5264.71944,0.02023
5266.64791,0.02200
5268.57638,0.04846
5270.50485,0.06880
5272.43331,0.06564
5274.36178,0.05220
5276.29025,0.03873
5278.21872,0.03599
5280.14719,0.05057
5282.07566,0.06861
5284.00413,0.08095
5285.93259,0.08802
5287.86106,0.08698
5289.78953,0.07372
5291.71800,0.06173
5293.64647,0.06804
5295.57494,0.07749
5297.50341,0.06912
5299.43188,0.04566
5301.36034,0.03502
5303.28881,0.04685
5305.21728,0.05602
5307.14575,0.05388
5309.07422,0.06495
5311.00269,0.09800
5312.93116,0.11294
5314.85962,0.09364
5316.78809,0.08360
5318.71656,0.09128
5320.64503,0.08527
5322.57350,0.06993
5324.50197,0.06423
5326.43044,0.06988
5328.35891,0.07586
5330.28737,0.07091
5332.21584,0.05591
5334.14431,0.04537
5336.07278,0.04728
5338.00125,0.04921
5339.92972,0.05712
5341.85819,0.07397
5343.78665,0.07113
5345.71512,0.05756
5347.64359,0.06452
5349.57206,0.06921
5351.50053,0.06063
5353.42900,0.06675
5355.35747,0.08850
5357.28594,0.10146
5359.21440,0.10657
5361.14287,0.09649
5363.07134,0.06095
5364.99981,0.02868
5366.92828,0.03090
5368.85675,0.04931
5370.78522,0.05444
5372.71368,0.04601
5374.64215,0.03670
5376.57062,0.02456
5378.49909,0.01036
5380.42756,0.02219
5382.35603,0.05853
5384.28450,0.07258
5386.21297,0.05167
5388.14143,0.03617
5390.06990,0.04081
5391.99837,0.05327
5393.92684,0.05269
5395.85531,0.03982
5397.78378,0.02857
5399.71225,0.02237
5401.64071,0.03521
5403.56918,0.06223
5405.49765,0.07502
5407.42612,0.06796
5409.35459,0.05710
5411.28306,0.04535
5413.21153,0.03753
5415.13999,0.04408
5417.06846,0.05113
5418.99693,0.05825
5420.92540,0.06861
5422.85387,0.06556
5424.78234,0.05247
5426.71081,0.04884
5428.63928,0.04783
5430.56774,0.04115
5432.49621,0.03815
5434.42468,0.03046
5436.35315,0.01542
5438.28162,0.00745
5440.21009,0.01047
5442.13856,0.01577
5444.06702,0.01118
5445.99549,0.00361
5447.92396,0.01987
5449.85243,0.06128
5451.78090,0.08268
5453.70937,0.06996
5455.63784,0.05458
5457.56631,0.05953
5459.49477,0.07490
5461.42324,0.08364
5463.35171,0.08827
5465.28018,0.09470
5467.20865,0.10438
5469.13712,0.10818
5471.06559,0.09029
5472.99405,0.06156
5474.92252,0.04918
5476.85099,0.06287
5478.77946,0.07176
5480.70793,0.05455
5482.63640,0.03555
5484.56487,0.04447
5486.49334,0.06747
5488.42180,0.07561
5490.35027,0.07483
5492.27874,0.08883
5494.20721,0.10951
5496.13568,0.11560
5498.06415,0.11382
5499.99262,0.11175
5501.92108,0.10323
5503.84955,0.09597
5505.77802,0.09965
5507.70649,0.09574
5509.63496,0.07583
5511.56343,0.06362
5513.49190,0.07189
5515.42037,0.07723
5517.34883,0.06080
5519.27730,0.06275
5521.20577,0.10205
5523.13424,0.11323
5525.06271,0.07045
5526.99118,0.03915
5528.91965,0.03639
5530.84811,0.03084
5532.77658,0.03560
5534.70505,0.05881
5536.63352,0.07239
5538.56199,0.06582
5540.49046,0.05656
5542.41893,0.05598
5544.34740,0.05950
5546.27586,0.06197
5548.20433,0.06334
5550.13280,0.06159
5552.06127,0.05172
5553.98974,0.04266
5555.91821,0.04856
5557.84668,0.06704
5559.77514,0.07988
5561.70361,0.06798
5563.63208,0.04559
5565.56055,0.03411
5567.48902,0.02142
5569.41749,0.00911
5571.34596,0.01912
5573.27443,0.05774
5575.20289,0.10289
5577.13136,0.11802
5579.05983,0.09636
5580.98830,0.06687
5582.91677,0.06104
5584.84524,0.07942
5586.77371,0.10054
5588.70217,0.10540
5590.63064,0.09774
5592.55911,0.08613
5594.48758,0.06769
5596.41605,0.05932
5598.34452,0.06939
5600.27299,0.06431
5602.20145,0.02698
5604.12992,0.00130
5606.05839,0.02069
5607.98686,0.04908
5609.91533,0.05219
5611.84380,0.03938
5613.77227,0.03297
5615.70074,0.04947
5617.62920,0.09111
5619.55767,0.13388
5621.48614,0.14961
5623.41461,0.14064
5625.34308,0.09591
5627.27155,0.03761
5629.20002,0.04162
5631.12848,0.07978
5633.05695,0.08145
5634.98542,0.05857
5636.91389,0.04829
5638.84236,0.05480
5640.77083,0.06581
5642.69930,0.06838
5644.62777,0.06360
5646.55623,0.06351
5648.48470,0.07037
5650.41317,0.07613
5652.34164,0.07366
5654.27011,0.07309
5656.19858,0.07284
5658.12705,0.06112
5660.05551,0.05591
5661.98398,0.06943
5663.91245,0.07929
5665.84092,0.07188
5667.76939,0.07342
5669.69786,0.09471
5671.62633,0.10951
5673.55480,0.11655
5675.48326,0.13142
5677.41173,0.14404
5679.34020,0.13157
5681.26867,0.09640
5683.19714,0.06723
5685.12561,0.05494
5687.05408,0.05137
5688.98254,0.06530
5690.91101,0.09183
5692.83948,0.09030
5694.76795,0.06100
5696.69642,0.05255
5698.62489,0.06590
5700.55336,0.06656
5702.48183,0.06453
5704.41029,0.08282
5706.33876,0.10990
5708.26723,0.11154
5710.19570,0.07428
5712.12417,0.04139
5714.05264,0.06737
5715.98111,0.11771
5717.90957,0.11315
5719.83804,0.06709
5721.76651,0.03515
5723.69498,0.01944
5725.62345,0.02457
5727.55192,0.06020
5729.48039,0.09255
5731.40886,0.09669
5733.33732,0.07899
5735.26579,0.04737
5737.19426,0.04690
5739.12273,0.08257
5741.05120,0.08365
5742.97967,0.06193
5744.90814,0.05082
5746.83660,0.02840
5748.76507,0.01551
5750.69354,0.03361
5752.62201,0.05731
5754.55048,0.07952
5756.47895,0.09618
5758.40742,0.09409
5760.33588,0.07660
5762.26435,0.06463
5764.19282,0.07793
5766.12129,0.10884
5768.04976,0.13036
5769.97823,0.12076
5771.90670,0.08530
5773.83517,0.05157
5775.76363,0.04187
5777.69210,0.05571
5779.62057,0.06221
5781.54904,0.06310
5783.47751,0.09090
5785.40598,0.12916
5787.33445,0.15321
5789.26291,0.16313
5791.19138,0.14204
5793.11985,0.08491
5795.04832,0.02841
5796.97679,0.01314
5798.90526,0.04443
5800.83373,0.08897
5802.76220,0.10092
5804.69066,0.08101
5806.61913,0.06364
5808.54760,0.05674
5810.47607,0.06836
5812.40454,0.08649
5814.33301,0.09370
5816.26148,0.10922
5818.18994,0.12413
5820.11841,0.11084
5822.04688,0.07299
5823.97535,0.04506
5825.90382,0.05656
5827.83229,0.09279
5829.76076,0.11203
5831.68923,0.09638
5833.61769,0.08215
5835.54616,0.08955
5837.47463,0.08273
5839.40310,0.07201
5841.33157,0.07921
5843.26004,0.05616
5845.18851,0.01970
5847.11697,0.02793
5849.04544,0.04302
5850.97391,0.02607
5852.90238,0.00919
5854.83085,0.02012
5856.75932,0.03963
5858.68779,0.04710
5860.61626,0.05749
5862.54472,0.06059
5864.47319,0.05821
5866.40166,0.08715
5868.33013,0.12378
5870.25860,0.11261
5872.18707,0.05793
5874.11554,0.01065
5876.04400,0.01145
5877.97247,0.03433
5879.90094,0.04810
5881.82941,0.06624
5883.75788,0.06605
5885.68635,0.05059
5887.61482,0.05792
5889.54329,0.06616
5891.47175,0.07354
5893.40022,0.09042
5895.32869,0.06562
5897.25716,-0.00083
5899.18563,-0.03447
5901.11410,-0.01208
5903.04257,0.03771
5904.97103,0.07426
5906.89950,0.08079
5908.82797,0.09688
5910.75644,0.13063
5912.68491,0.12150
5914.61338,0.06658
5916.54185,0.02776
5918.47032,0.01628
5920.39878,0.01446
5922.32725,0.02491
5924.25572,0.04070
5926.18419,0.03885
5928.11266,0.02079
5930.04113,0.02128
5931.96960,0.05579
5933.89806,0.10594
5935.82653,0.13804
5937.75500,0.13653
5939.68347,0.11303
5941.61194,0.07645
5943.54041,0.05089
5945.46888,0.05313
5947.39734,0.06426
5949.32581,0.09384
5951.25428,0.14719
5953.18275,0.15582
5955.11122,0.12677
5957.03969,0.15736
5958.96816,0.22062
5960.89663,0.21955
5962.82509,0.18185
5964.75356,0.16547
5966.68203,0.16656
5968.61050,0.15778
5970.53897,0.13410
5972.46744,0.12254
5974.39591,0.12566
5976.32437,0.11776
5978.25284,0.09983
5980.18131,0.09678
5982.10978,0.10945
5984.03825,0.11232
5985.96672,0.11057
5987.89519,0.12573
5989.82366,0.14613
5991.75212,0.15273
5993.68059,0.14505
5995.60906,0.13524
5997.53753,0.13419
5999.46600,0.13749
6001.39447,0.12812
6003.32294,0.09608
6005.25140,0.07234
6007.17987,0.09262
6009.10834,0.10904
6011.03681,0.04956
6012.96528,-0.03318
6014.89375,-0.03003
6016.82222,0.03507
6018.75069,0.06688
6020.67915,0.06567
6022.60762,0.06170
6024.53609,0.05748
6026.46456,0.06394
6028.39303,0.07608
6030.32150,0.08033
6032.24997,0.07715
6034.17843,0.06760
6036.10690,0.06956
6038.03537,0.09773
6039.96384,0.09833
6041.89231,0.03008
6043.82078,-0.04986
6045.74925,-0.06713
6047.67772,-0.01068
6049.60618,0.07476
6051.53465,0.12532
6053.46312,0.13659
6055.39159,0.12917
6057.32006,0.10406
6059.24853,0.04751
6061.17700,-0.02967
6063.10546,-0.04268
6065.03393,0.02171
6066.96240,0.05319
6068.89087,0.02094
6070.81934,-0.01885
6072.74781,-0.01564
6074.67628,0.03075
6076.60475,0.06263
6078.53321,0.06907
6080.46168,0.08587
6082.39015,0.09740
6084.31862,0.09265
6086.24709,0.09514
6088.17556,0.08672
6090.10403,0.06051
6092.03249,0.06968
6093.96096,0.09913
6095.88943,0.10075
6097.81790,0.10965
6099.74637,0.13006
6101.67484,0.12678
6103.60331,0.11601
6105.53177,0.13909
6107.46024,0.18285
6109.38871,0.17558
6111.31718,0.13027
6113.24565,0.08735
6115.17412,0.04599
6117.10259,0.05069
6119.03106,0.10174
6120.95952,0.13165
6122.88799,0.11764
6124.81646,0.07794
6126.74493,0.05212
6128.67340,0.05238
6130.60187,0.05826
6132.53034,0.06675
6134.45880,0.09116
6136.38727,0.14602
6138.31574,0.20349
6140.24421,0.21371
6142.17268,0.17354
6144.10115,0.11313
6146.02962,0.06958
6147.95809,0.07192
6149.88655,0.08575
6151.81502,0.05942
6153.74349,0.03811
6155.67196,0.04591
6157.60043,0.03311
6159.52890,0.04106
6161.45737,0.11462
6163.38583,0.16732
6165.31430,0.14936
6167.24277,0.10424
6169.17124,0.06464
6171.09971,0.04679
6173.02818,0.02370
6174.95665,-0.01054
6176.88512,-0.00106
6178.81358,0.04317
6180.74205,0.04257
6182.67052,0.01289
6184.59899,0.04930
6186.52746,0.12664
6188.45593,0.13994
6190.38440,0.09238
6192.31286,0.06223
6194.24133,0.08715
6196.16980,0.14734
6198.09827,0.16177
6200.02674,0.10564
6201.95521,0.06498
6203.88368,0.07201
6205.81215,0.09251
6207.74061,0.12733
6209.66908,0.16792
6211.59755,0.15281
6213.52602,0.08961
6215.45449,0.06586
6217.38296,0.08946
6219.31143,0.10143
6221.23989,0.08155
6223.16836,0.05711
6225.09683,0.04531
6227.02530,0.04483
6228.95377,0.09017
6230.88224,0.14585
6232.81071,0.12476
6234.73918,0.05794
6236.66764,0.03509
6238.59611,0.08220
6240.52458,0.15120
6242.45305,0.17310
6244.38152,0.14400
6246.30999,0.11479
6248.23846,0.10983
6250.16692,0.11533
6252.09539,0.11803
6254.02386,0.12299
6255.95233,0.11718
6257.88080,0.07817
6259.80927,0.04370
6261.73774,0.05547
6263.66621,0.09849
6265.59467,0.13704
6267.52314,0.14803
6269.45161,0.11987
6271.38008,0.07361
6273.30855,0.07567
6275.23702,0.12253
6277.16549,0.15062
6279.09395,0.15102
6281.02242,0.10299
6282.95089,0.05645
6284.87936,0.08016
6286.80783,0.13661
6288.73630,0.19117
6290.66477,0.21730
6292.59323,0.19701
6294.52170,0.15512
6296.45017,0.14191
6298.37864,0.16809
6300.30711,0.17434
6302.23558,0.13830
6304.16405,0.10618
6306.09252,0.07036
6308.02098,0.02493
6309.94945,0.02080
6311.87792,0.05224
6313.80639,0.10210
6315.73486,0.13977
6317.66333,0.11061
6319.59180,0.05367
6321.52026,0.02450
6323.44873,0.04394
6325.37720,0.10550
6327.30567,0.14347
6329.23414,0.11663
6331.16261,0.06970
6333.09108,0.04487
6335.01955,0.05530
6336.94801,0.07947
6338.87648,0.06508
6340.80495,0.03614
6342.73342,0.02625
6344.66189,0.01541
6346.59036,0.01596
6348.51883,0.05591
6350.44729,0.10710
6352.37576,0.11273
6354.30423,0.07935
6356.23270,0.02236
6358.16117,-0.02445
6360.08964,0.01324
6362.01811,0.12059
6363.94658,0.20872
6365.87504,0.17197
6367.80351,0.00757
6369.73198,-0.07984
6371.66045,-0.04367
6373.58892,-0.05049
6375.51739,-0.10030
6377.44586,-0.08545
6379.37432,-0.03361
6381.30279,-0.01675
6383.23126,-0.02194
6385.15973,0.00312
6387.08820,0.04193
6389.01667,0.06381
6390.94514,0.03811
6392.87361,-0.03024
6394.80207,-0.03106
6396.73054,0.05138
6398.65901,0.11354
6400.58748,0.11445
6402.51595,0.09922
6404.44442,0.10616
6406.37289,0.10496
6408.30135,0.08135
6410.22982,0.07736
6412.15829,0.07827
6414.08676,0.03100
6416.01523,-0.01121
6417.94370,0.00340
6419.87217,0.01323
6421.80064,-0.00046
6423.72910,0.00623
6425.65757,0.04161
6427.58604,0.07403
6429.51451,0.09161
6431.44298,0.08420
6433.37145,0.01311
6435.29992,-0.05211
6437.22838,-0.00222
6439.15685,0.10565
6441.08532,0.13460
6443.01379,0.09454
6444.94226,0.06571
6446.87073,0.04269
6448.79920,0.01884
6450.72766,0.03861
6452.65613,0.07552
6454.58460,0.08823
6456.51307,0.10373
6458.44154,0.12394
6460.37001,0.12004
6462.29848,0.08908
6464.22695,0.07772
6466.15541,0.14415
6468.08388,0.22973
6470.01235,0.21818
6471.94082,0.11484
6473.86929,0.04445
6475.79776,0.04876
6477.72623,0.02925
6479.65469,-0.02466
6481.58316,-0.04559
6483.51163,-0.02475
6485.44010,0.02237
6487.36857,0.05723
6489.29704,0.08130
6491.22551,0.10737
6493.15398,0.09250
6495.08244,0.07563
6497.01091,0.09416
6498.93938,0.09389
6500.86785,0.06313
6502.79632,0.03250
6504.72479,0.02519
6506.65326,0.02623
6508.58172,0.02392
6510.51019,0.07885
6512.43866,0.15706
6514.36713,0.15964
6516.29560,0.14426
6518.22407,0.15667
6520.15254,0.15101
6522.08101,0.11808
6524.00947,0.09636
6525.93794,0.10139
6527.86641,0.10202
6529.79488,0.10638
6531.72335,0.09474
6533.65182,0.03801
6535.58029,0.03385
6537.50875,0.11272
6539.43722,0.12899
6541.36569,0.06836
6543.29416,0.06417
6545.22263,0.07647
6547.15110,0.03659
6549.07957,0.00401
6551.00804,-0.00008
6552.93650,-0.01246
6554.86497,-0.01924
6556.79344,0.00816
6558.72191,-0.00050
6560.65038,-0.08903
6562.57885,-0.11551
6564.50732,0.00623
6566.43578,0.14111
6568.36425,0.17198
6570.29272,0.11869
6572.22119,0.06681
6574.14966,0.05899
6576.07813,0.03319
6578.00660,0.01996
6579.93507,0.08348
6581.86353,0.12796
6583.79200,0.09848
6585.72047,0.08638
6587.64894,0.15664
6589.57741,0.25131
6591.50588,0.25791
6593.43435,0.13763
6595.36281,-0.00745
6597.29128,-0.04595
6599.21975,0.02388
6601.14822,0.12285
6603.07669,0.17061
6605.00516,0.15973
6606.93363,0.12421
6608.86210,0.09003
6610.79056,0.07705
6612.71903,0.11788
6614.64750,0.15931
6616.57597,0.14281
6618.50444,0.10206
6620.43291,0.04376
6622.36138,-0.00298
6624.28984,-0.00305
6626.21831,-0.00593
6628.14678,-0.02241
6630.07525,-0.01453
6632.00372,-0.01915
6633.93219,-0.04188
6635.86066,-0.00863
6637.78912,0.07581
6639.71759,0.14882
6641.64606,0.15797
6643.57453,0.07247
6645.50300,0.00712
6647.43147,0.06554
6649.35994,0.12619
6651.28841,0.10861
6653.21687,0.09041
6655.14534,0.10980
6657.07381,0.10623
6659.00228,0.03583
6660.93075,0.01030
6662.85922,0.09602
6664.78769,0.16159
6666.71615,0.14822
6668.64462,0.11718
6670.57309,0.10327
6672.50156,0.07646
6674.43003,0.01430
6676.35850,0.02449
6678.28697,0.13043
6680.21544,0.20108
6682.14390,0.20576
6684.07237,0.17439
6686.00084,0.12413
6687.92931,0.07584
6689.85778,0.02840
6691.78625,0.00326
6693.71472,-0.02600
6695.64318,-0.07968
6697.57165,-0.08125
6699.50012,-0.03122
6701.42859,0.01644
6703.35706,0.09100
6705.28553,0.19134
6707.21400,0.24612
6709.14247,0.20521
6711.07093,0.14584
6712.99940,0.10433
6714.92787,0.02007
6716.85634,-0.04961
6718.78481,-0.00145
6720.71328,0.10061
6722.64175,0.15322
6724.57021,0.13910
6726.49868,0.10494
6728.42715,0.12325
6730.35562,0.15419
6732.28409,0.09891
6734.21256,0.00847
6736.14103,-0.00858
6738.06950,0.05244
6739.99796,0.12960
6741.92643,0.13610
6743.85490,0.08584
6745.78337,0.09441
6747.71184,0.13326
6749.64031,0.10628
6751.56878,0.04690
6753.49724,0.04309
6755.42571,0.07428
6757.35418,0.06198
6759.28265,0.02901
6761.21112,0.04006
6763.13959,0.08488
6765.06806,0.10547
6766.99653,0.07981
6768.92499,0.02905
6770.85346,0.00133
6772.78193,0.05996
6774.71040,0.16058
6776.63887,0.19542
6778.56734,0.15652
6780.49581,0.08492
6782.42427,0.04288
6784.35274,0.08763
6786.28121,0.14708
6788.20968,0.14299
6790.13815,0.09331
6792.06662,0.00766
6793.99509,-0.06465
6795.92355,-0.03534
6797.85202,0.08851
6799.78049,0.21089
6801.70896,0.24284
6803.63743,0.20755
6805.56590,0.17390
6807.49437,0.13377
6809.42284,0.10627
6811.35130,0.13559
6813.27977,0.16956
6815.20824,0.15447
6817.13671,0.14631
6819.06518,0.15803
6820.99365,0.09786
6822.92212,-0.07087
6824.85058,-0.14868
6826.77905,-0.05540
6828.70752,0.03932
6830.63599,0.04911
6832.56446,0.07708
6834.49293,0.15890
6836.42140,0.16176
6838.34987,0.06650
6840.27833,0.03217
6842.20680,0.03290
6844.13527,-0.03093
6846.06374,-0.13142
6847.99221,-0.21750
6849.92068,-0.20644
6851.84915,-0.08417
6853.77761,0.05163
6855.70608,0.15140
6857.63455,0.19118
6859.56302,0.19273
6861.49149,0.19161
6863.41996,0.18057
6865.34843,0.12617
6867.27690,0.01632
6869.20536,-0.06553
6871.13383,-0.06741
6873.06230,-0.05467
6874.99077,-0.01640
6876.91924,0.11087
6878.84771,0.19142
6880.77618,0.11184
6882.70464,0.08863
6884.63311,0.20927
6886.56158,0.30225
6888.49005,0.31858
6890.41852,0.33947
6892.34699,0.29367
6894.27546,0.18022
6896.20393,0.14912
6898.13239,0.15924
6900.06086,0.11716
6901.98933,0.08230
6903.91780,0.07359
6905.84627,0.06880
6907.77474,-0.01649
6909.70321,-0.18156
6911.63167,-0.25073
6913.56014,-0.17705
6915.48861,-0.08775
6917.41708,-0.01882
6919.34555,0.06521
6921.27402,0.08980
6923.20249,0.00536
6925.13096,-0.08177
6927.05942,-0.07642
6928.98789,0.02501
6930.91636,0.11376
6932.84483,0.11278
6934.77330,0.14890
6936.70177,0.25061
6938.63024,0.31851
6940.55870,0.30221
6942.48717,0.26187
6944.41564,0.24618
6946.34411,0.23496
6948.27258,0.20256
6950.20105,0.17179
6952.12952,0.15538
6954.05799,0.11325
6955.98645,0.07895
6957.91492,0.09979
6959.84339,0.10603
6961.77186,0.08434
6963.70033,0.05204
6965.62880,0.02853
6967.55727,0.06370
6969.48573,0.16280
6971.41420,0.26080
6973.34267,0.31337
6975.27114,0.28305
6977.19961,0.16494
6979.12808,0.08340
6981.05655,0.06816
6982.98501,0.01286
6984.91348,-0.04063
6986.84195,0.01726
6988.77042,0.06062
6990.69889,-0.02548
6992.62736,-0.03979
6994.55583,0.14362
6996.48430,0.33182
6998.41276,0.35900
7000.34123,0.32330
7002.26970,0.25417
7004.19817,0.13704
7006.12664,0.05338
7008.05511,0.06186
7009.98358,0.09958
7011.91204,0.06240
7013.84051,0.00559
7015.76898,0.08199
7017.69745,0.20441
7019.62592,0.24657
7021.55439,0.21130
7023.48286,0.09290
7025.41133,-0.04287
7027.33979,-0.08276
7029.26826,-0.04886
7031.19673,0.01522
7033.12520,0.11703
7035.05367,0.20928
7036.98214,0.20563
7038.91061,0.13800
7040.83907,0.10990
7042.76754,0.11716
7044.69601,0.08393
7046.62448,0.01616
7048.55295,-0.05415
7050.48142,-0.11439
7052.40989,-0.15379
7054.33836,-0.11202
7056.26682,-0.02426
7058.19529,-0.03950
7060.12376,-0.05863
7062.05223,0.07128
7063.98070,0.12816
7065.90917,-0.00649
7067.83764,-0.01600
7069.76610,0.19565
7071.69457,0.30752
7073.62304,0.24337
7075.55151,0.21016
7077.47998,0.21214
7079.40845,0.20322
7081.33692,0.20967
7083.26539,0.26465
7085.19385,0.32066
7087.12232,0.24706
7089.05079,0.01989
7090.97926,-0.08725
7092.90773,0.01993
7094.83620,0.10208
7096.76467,0.04561
7098.69313,-0.03913
7100.62160,-0.04618
7102.55007,0.02551
7104.47854,0.12520
7106.40701,0.18936
7108.33548,0.19397
7110.26395,0.14890
7112.19242,0.05034
7114.12088,-0.03655
7116.04935,-0.04150
7117.97782,0.07524
7119.90629,0.22164
7121.83476,0.22450
7123.76323,0.10793
7125.69170,-0.02434
7127.62016,-0.07501
7129.54863,-0.00272
7131.47710,0.05733
7133.40557,-0.00798
7135.33404,-0.10370
7137.26251,-0.12612
7139.19098,-0.09810
7141.11944,-0.10600
7143.04791,-0.15323
7144.97638,-0.07905
7146.90485,0.12042
7148.83332,0.20089
7150.76179,0.15852
7152.69026,0.13818
7154.61873,0.08890
7156.54719,-0.03740
7158.47566,-0.09845
7160.40413,-0.06236
7162.33260,0.05456
7164.26107,0.16243
7166.18954,0.13056
7168.11801,0.07841
7170.04647,0.12237
7171.97494,0.15213
7173.90341,0.12066
7175.83188,0.09617
7177.76035,0.06802
7179.68882,-0.00794
7181.61729,-0.04204
7183.54576,0.03051
7185.47422,0.06130
7187.40269,0.00408
7189.33116,-0.03557
7191.25963,-0.02373
7193.18810,-0.02027
7195.11657,-0.03410
7197.04504,-0.00118
7198.97350,0.08851
7200.90197,0.18321
7202.83044,0.22992
7204.75891,0.20550
7206.68738,0.18673
7208.61585,0.18271
7210.54432,0.10610
7212.47279,-0.02080
7214.40125,-0.10457
7216.32972,-0.12710
7218.25819,-0.10595
7220.18666,-0.07720
7222.11513,-0.06794
7224.04360,-0.06720
7225.97207,-0.05466
7227.90053,0.04781
7229.82900,0.27361
7231.75747,0.43593
7233.68594,0.39249
7235.61441,0.29008
7237.54288,0.18402
7239.47135,0.05890
7241.39982,-0.08115
7243.32828,-0.11635
7245.25675,-0.00544
7247.18522,0.06393
7249.11369,0.10616
7251.04216,0.20683
7252.97063,0.29410
7254.89910,0.25754
7256.82756,0.19590
7258.75603,0.15476
7260.68450,0.04887
7262.61297,-0.16259
7264.54144,-0.29758
7266.46991,-0.22735
7268.39838,-0.09033
7270.32685,0.00165
7272.25531,0.04218
7274.18378,0.11030
7276.11225,0.25940
7278.04072,0.27881
7279.96919,0.02599
7281.89766,-0.07636
7283.82613,0.02553
7285.75459,0.04538
7287.68306,0.05188
7289.61153,0.11810
7291.54000,0.17795
7293.46847,0.24555
7295.39694,0.25742
7297.32541,0.11943
7299.25387,0.00887
7301.18234,0.05300
7303.11081,0.15947
7305.03928,0.15478
7306.96775,-0.00660
7308.89622,-0.10185
7310.82469,0.01355
7312.75316,0.13091
7314.68162,0.16872
7316.61009,0.13738
7318.53856,0.07297
7320.46703,0.04910
7322.39550,-0.00293
7324.32397,-0.07553
7326.25244,-0.07880
7328.18090,-0.13372
7330.10937,-0.25133
7332.03784,-0.16364
7333.96631,0.00905
7335.89478,0.04811
7337.82325,-0.02059
7339.75172,-0.10782
7341.68019,-0.04618
7343.60865,0.03364
7345.53712,0.01020
7347.46559,0.01855
7349.39406,0.08060
7351.32253,0.04487
7353.25100,-0.06865
7355.17947,-0.12248
7357.10793,-0.09488
7359.03640,0.00245
7360.96487,0.14144
7362.89334,0.19057
7364.82181,0.16489
7366.75028,0.15317
7368.67875,0.11983
7370.60722,0.07542
7372.53568,0.08722
7374.46415,0.13753
7376.39262,0.15510
7378.32109,0.14916
7380.24956,0.07036
7382.17803,-0.05238
7384.10650,0.00205
7386.03496,0.16817
7387.96343,0.17809
7389.89190,0.12950
7391.82037,0.19480
7393.74884,0.34392
7395.67731,0.37571
7397.60578,0.11615
7399.53425,-0.12650
7401.46271,0.00104
7403.39118,0.30311
7405.31965,0.32393
7407.24812,0.21301
7409.17659,0.26969
7411.10506,0.28559
7413.03353,0.10989
7414.96199,-0.07808
7416.89046,-0.08021
7418.81893,0.21099
7420.74740,0.40288
7422.67587,0.21705
7424.60434,0.03360
7426.53281,0.06254
7428.46128,0.20338
7430.38974,0.25491
7432.31821,0.17343
7434.24668,0.09496
7436.17515,0.09504
7438.10362,0.21087
7440.03209,0.39191
7441.96056,0.44053
7443.88902,0.23889
7445.81749,0.01067
7447.74596,-0.01853
7449.67443,0.13333
7451.60290,0.32865
7453.53137,0.41065
7455.45984,0.37969
7457.38831,0.27230
7459.31677,0.07761
7461.24524,-0.02140
7463.17371,0.03529
7465.10218,0.02677
7467.03065,-0.06583
7468.95912,-0.07250
7470.88759,0.03840
7472.81605,0.04798
7474.74452,-0.07994
7476.67299,-0.04709
7478.60146,0.21739
7480.52993,0.31464
7482.45840,0.09504
7484.38687,-0.09433
7486.31533,-0.17650
7488.24380,-0.18375
7490.17227,-0.08747
7492.10074,0.09184
7494.02921,0.29108
7495.95768,0.35198
7497.88615,0.15105
