399.19301,1.76616
401.12148,0.63081
403.04995,0.14359
404.97842,-0.01160
406.90689,0.15108
408.83536,0.27666
410.76382,0.23781
412.69229,0.23106
414.62076,0.20260
416.54923,0.22058
418.47770,0.42781
420.40617,0.41793
422.33464,0.19994
424.26311,0.09549
426.19157,0.08722
428.12004,0.07989
430.04851,0.06177
431.97698,0.07897
433.90545,0.10977
435.83392,0.10809
437.76239,0.10810
439.69085,0.13478
441.61932,0.14321
443.54779,0.08387
445.47626,0.02855
447.40473,0.03432
449.33320,0.04824
451.26167,0.02853
453.19013,0.02028
455.11860,0.04342
457.04707,0.07592
458.97554,0.13135
460.90401,0.14982
462.83248,0.07036
464.76095,-0.02659
466.68942,-0.03698
468.61788,0.00739
470.54635,0.08655
472.47482,0.21144
474.40329,0.23837
476.33176,0.12325
478.26023,0.07809
480.18870,0.10282
482.11716,0.09559
484.04563,0.06245
485.97410,0.07307
487.90257,0.11296
489.83104,0.11716
491.75951,0.05783
493.68798,0.02007
495.61645,0.04907
497.54491,0.08435
499.47338,0.09980
501.40185,0.11160
503.33032,0.09890
505.25879,0.08415
507.18726,0.10126
509.11573,0.12990
511.04419,0.13275
512.97266,0.10658
514.90113,0.07668
516.82960,0.06653
518.75807,0.06974
520.68654,0.06619
522.61501,0.09223
524.54348,0.13384
526.47194,0.15357
528.40041,0.16253
530.32888,0.15355
532.25735,0.13408
534.18582,0.11556
536.11429,0.09789
538.04276,0.09234
539.97122,0.09864
541.89969,0.08816
543.82816,0.09291
545.75663,0.12815
547.68510,0.14277
549.61357,0.16994
551.54204,0.25257
553.47051,0.30442
555.39897,0.25554
557.32744,0.18477
559.25591,0.14813
561.18438,0.12071
563.11285,0.09403
565.04132,0.08716
566.96979,0.11942
568.89825,0.15453
570.82672,0.16652
572.75519,0.16793
574.68366,0.15961
576.61213,0.15122
578.54060,0.14703
580.46907,0.12082
582.39754,0.10273
584.32600,0.12525
586.25447,0.14545
588.18294,0.13479
590.11141,0.10908
592.03988,0.10163
593.96835,0.10098
595.89682,0.07888
597.82528,0.06054
599.75375,0.06847
601.68222,0.07991
603.61069,0.08084
605.53916,0.07981
607.46763,0.07204
609.39610,0.06567
611.32456,0.07765
613.25303,0.10387
615.18150,0.11386
617.10997,0.10314
619.03844,0.10099
620.96691,0.11833
622.89538,0.14135
624.82385,0.14941
626.75231,0.13559
628.68078,0.11651
630.60925,0.12222
632.53772,0.14840
634.46619,0.16404
636.39466,0.15629
638.32313,0.13670
640.25159,0.12178
642.18006,0.11481
644.10853,0.11274
646.03700,0.11290
647.96547,0.12004
649.89394,0.13785
651.82241,0.15851
653.75088,0.16333
655.67934,0.14833
657.60781,0.13093
659.53628,0.11795
661.46475,0.10667
663.39322,0.10566
665.32169,0.12711
667.25016,0.14645
669.17862,0.12183
671.10709,0.11103
673.03556,0.12459
674.96403,0.12705
676.89250,0.12122
678.82097,0.12193
680.74944,0.12109
682.67791,0.11827
684.60637,0.12147
686.53484,0.12876
688.46331,0.12975
690.39178,0.12470
692.32025,0.11821
694.24872,0.10883
696.17719,0.10397
698.10565,0.10687
700.03412,0.11147
701.96259,0.11590
703.89106,0.12554
705.81953,0.13601
707.74800,0.13628
709.67647,0.13975
711.60494,0.15177
713.53340,0.15774
715.46187,0.15706
717.39034,0.14767
719.31881,0.13685
721.24728,0.14059
723.17575,0.14796
725.10422,0.14735
727.03268,0.14463
728.96115,0.14200
730.88962,0.13523
732.81809,0.13052
734.74656,0.13879
736.67503,0.15387
738.60350,0.15589
740.53197,0.14114
742.46043,0.12844
744.38890,0.12678
746.31737,0.12818
748.24584,0.12538
750.17431,0.12742
752.10278,0.14279
754.03125,0.15476
755.95971,0.14491
757.88818,0.12652
759.81665,0.11983
761.74512,0.12040
763.67359,0.11802
765.60206,0.11334
767.53053,0.11660
769.45900,0.12886
771.38746,0.13937
773.31593,0.14679
775.24440,0.15195
777.17287,0.15263
779.10134,0.15318
781.02981,0.15146
782.95828,0.14234
784.88674,0.12996
786.81521,0.12076
788.74368,0.12133
790.67215,0.13025
792.60062,0.14268
794.52909,0.14496
796.45756,0.13414
798.38602,0.13561
800.31449,0.14782
802.24296,0.14268
804.17143,0.12679
806.09990,0.13275
808.02837,0.15178
809.95684,0.15661
811.88531,0.15380
813.81377,0.15027
815.74224,0.14262
817.67071,0.13630
819.59918,0.13327
821.52765,0.13016
823.45612,0.13212
825.38459,0.14111
827.31305,0.14732
829.24152,0.14306
831.16999,0.13561
833.09846,0.13158
835.02693,0.13399
836.95540,0.14365
838.88387,0.14784
840.81234,0.14549
842.74080,0.14356
844.66927,0.13963
846.59774,0.13644
848.52621,0.14141
850.45468,0.14790
852.38315,0.14559
854.31162,0.13857
856.24008,0.13423
858.16855,0.13707
860.09702,0.14260
862.02549,0.14707
863.95396,0.15351
865.88243,0.15702
867.81090,0.14864
869.73937,0.13500
871.66783,0.13304
873.59630,0.14281
875.52477,0.15095
877.45324,0.14911
879.38171,0.14423
881.31018,0.14541
883.23865,0.14826
885.16711,0.14549
887.09558,0.14113
889.02405,0.13731
890.95252,0.13201
892.88099,0.13444
894.80946,0.14303
896.73793,0.14771
898.66640,0.14432
900.59486,0.13191
902.52333,0.12452
904.45180,0.13496
906.38027,0.15132
908.30874,0.15746
910.23721,0.15431
912.16568,0.15051
914.09414,0.15036
916.02261,0.14901
917.95108,0.14461
919.87955,0.14603
921.80802,0.15492
923.73649,0.15982
925.66496,0.15531
927.59343,0.15011
929.52189,0.14831
931.45036,0.14462
933.37883,0.13678
935.30730,0.13067
937.23577,0.13107
939.16424,0.13344
941.09271,0.13727
943.02117,0.14446
944.94964,0.15044
946.87811,0.15270
948.80658,0.15145
950.73505,0.14782
952.66352,0.14292
954.59199,0.13943
956.52045,0.14024
958.44892,0.14242
960.37739,0.14411
962.30586,0.14540
964.23433,0.14378
966.16280,0.13812
968.09127,0.13568
970.01974,0.14136
971.94820,0.14783
973.87667,0.14820
975.80514,0.14204
977.73361,0.13613
979.66208,0.13981
981.59055,0.15372
983.51902,0.16454
985.44748,0.16210
987.37595,0.15452
989.30442,0.15018
991.23289,0.14762
993.16136,0.14551
995.08983,0.14522
997.01830,0.14275
998.94677,0.14024
1000.87523,0.14806
1002.80370,0.15826
1004.73217,0.15737
1006.66064,0.15110
1008.58911,0.14722
1010.51758,0.14683
1012.44605,0.14916
1014.37451,0.15110
1016.30298,0.15207
1018.23145,0.15180
1020.15992,0.15011
1022.08839,0.14908
1024.01686,0.14591
1025.94533,0.13437
1027.87380,0.12556
1029.80226,0.13328
1031.73073,0.14150
1033.65920,0.14029
1035.58767,0.14028
1037.51614,0.14230
1039.44461,0.14247
1041.37308,0.14537
1043.30154,0.15450
1045.23001,0.15981
1047.15848,0.15520
1049.08695,0.15187
1051.01542,0.15255
1052.94389,0.15164
1054.87236,0.15123
1056.80083,0.14636
1058.72929,0.13850
1060.65776,0.14051
1062.58623,0.15069
1064.51470,0.15831
1066.44317,0.16118
1068.37164,0.16492
1070.30011,0.16882
1072.22857,0.16932
1074.15704,0.16709
1076.08551,0.16648
1078.01398,0.16753
1079.94245,0.16442
1081.87092,0.15780
1083.79939,0.15321
1085.72786,0.15397
1087.65632,0.15665
1089.58479,0.15424
1091.51326,0.14548
1093.44173,0.14227
1095.37020,0.14835
1097.29867,0.14950
1099.22714,0.14496
1101.15560,0.14892
1103.08407,0.15993
1105.01254,0.16293
1106.94101,0.16145
1108.86948,0.16395
1110.79795,0.16495
1112.72642,0.16551
1114.65489,0.17034
1116.58335,0.17451
1118.51182,0.17383
1120.44029,0.16666
1122.36876,0.15209
1124.29723,0.13766
1126.22570,0.12966
1128.15417,0.13040
1130.08263,0.14042
1132.01110,0.15231
1133.93957,0.15628
1135.86804,0.15510
1137.79651,0.15664
1139.72498,0.15755
1141.65345,0.15833
1143.58191,0.15991
1145.51038,0.15873
1147.43885,0.15777
1149.36732,0.15816
1151.29579,0.15896
1153.22426,0.16236
1155.15273,0.16690
1157.08120,0.16777
1159.00966,0.16459
1160.93813,0.15981
1162.86660,0.15711
1164.79507,0.15913
1166.72354,0.16236
1168.65201,0.16249
1170.58048,0.16083
1172.50894,0.16051
1174.43741,0.15903
1176.36588,0.15471
1178.29435,0.15348
1180.22282,0.15863
1182.15129,0.16337
1184.07976,0.16221
1186.00823,0.15962
1187.93669,0.15972
1189.86516,0.16009
1191.79363,0.16008
1193.72210,0.16312
1195.65057,0.16779
1197.57904,0.16785
1199.50751,0.16213
1201.43597,0.15547
1203.36444,0.15353
1205.29291,0.15733
1207.22138,0.16246
1209.14985,0.16540
1211.07832,0.16367
1213.00679,0.15933
1214.93526,0.16077
1216.86372,0.16854
1218.79219,0.17337
1220.72066,0.17079
1222.64913,0.16654
1224.57760,0.16700
1226.50607,0.16982
1228.43454,0.16908
1230.36300,0.16607
1232.29147,0.16518
1234.21994,0.16589
1236.14841,0.16422
1238.07688,0.15956
1240.00535,0.15853
1241.93382,0.16277
1243.86229,0.16616
1245.79075,0.16728
1247.71922,0.16823
1249.64769,0.17052
1251.57616,0.17236
1253.50463,0.17051
1255.43310,0.16987
1257.36157,0.17494
1259.29003,0.18018
1261.21850,0.18026
1263.14697,0.17856
1265.07544,0.17995
1267.00391,0.18058
1268.93238,0.17797
1270.86085,0.17702
1272.78932,0.17842
1274.71778,0.17658
1276.64625,0.16982
1278.57472,0.16596
1280.50319,0.17017
1282.43166,0.17749
1284.36013,0.18138
1286.28860,0.18071
1288.21706,0.17735
1290.14553,0.17323
1292.07400,0.17164
1294.00247,0.17442
1295.93094,0.17757
1297.85941,0.17595
1299.78788,0.17412
1301.71634,0.17626
1303.64481,0.17613
1305.57328,0.17182
1307.50175,0.16926
1309.43022,0.17265
1311.35869,0.18022
1313.28716,0.18560
1315.21563,0.18475
1317.14409,0.18100
1319.07256,0.17804
1321.00103,0.17757
1322.92950,0.17982
1324.85797,0.17981
1326.78644,0.17532
1328.71491,0.17130
1330.64337,0.17030
1332.57184,0.17237
1334.50031,0.17846
1336.42878,0.18563
1338.35725,0.18829
1340.28572,0.18126
1342.21419,0.17001
1344.14266,0.16694
1346.07112,0.17052
1347.99959,0.17229
1349.92806,0.17264
1351.85653,0.17397
1353.78500,0.17502
1355.71347,0.17591
1357.64194,0.17725
1359.57040,0.18080
1361.49887,0.18562
1363.42734,0.18361
1365.35581,0.17646
1367.28428,0.17238
1369.21275,0.17033
1371.14122,0.17064
1373.06969,0.17474
1374.99815,0.17645
1376.92662,0.17547
1378.85509,0.17428
1380.78356,0.16996
1382.71203,0.16784
1384.64050,0.17328
1386.56897,0.18159
1388.49743,0.18535
1390.42590,0.18685
1392.35437,0.19174
1394.28284,0.19583
1396.21131,0.19223
1398.13978,0.18579
1400.06825,0.17910
1401.99672,0.17344
1403.92518,0.17389
1405.85365,0.17748
1407.78212,0.17914
1409.71059,0.17935
1411.63906,0.17848
1413.56753,0.18021
1415.49600,0.18635
1417.42446,0.19181
1419.35293,0.18879
1421.28140,0.18446
1423.20987,0.18688
1425.13834,0.18922
1427.06681,0.18907
1428.99528,0.18931
1430.92375,0.18900
1432.85221,0.19130
1434.78068,0.19897
1436.70915,0.20113
1438.63762,0.18996
1440.56609,0.17938
1442.49456,0.17469
1444.42303,0.17654
1446.35149,0.18247
1448.27996,0.18759
1450.20843,0.19010
1452.13690,0.19024
1454.06537,0.19357
1455.99384,0.20758
1457.92231,0.21584
1459.85077,0.20491
1461.77924,0.19711
1463.70771,0.19371
1465.63618,0.19021
1467.56465,0.18801
1469.49312,0.19192
1471.42159,0.20453
1473.35006,0.21560
1475.27852,0.20926
1477.20699,0.19604
1479.13546,0.18737
1481.06393,0.18312
1482.99240,0.18060
1484.92087,0.18462
1486.84934,0.19944
1488.77780,0.21521
1490.70627,0.21038
1492.63474,0.19748
1494.56321,0.19644
1496.49168,0.20381
1498.42015,0.20290
1500.34862,0.19418
1502.27709,0.19209
1504.20555,0.20404
1506.13402,0.23275
1508.06249,0.23834
1509.99096,0.21728
1511.91943,0.20643
1513.84790,0.20924
1515.77637,0.22125
1517.70483,0.22969
1519.63330,0.23493
1521.56177,0.23626
1523.49024,0.22342
1525.41871,0.21128
1527.34718,0.20150
1529.27565,0.19646
1531.20412,0.20407
1533.13258,0.21553
1535.06105,0.21525
1536.98952,0.21844
1538.91799,0.24121
1540.84646,0.26374
1542.77493,0.25046
1544.70340,0.22812
1546.63186,0.21228
1548.56033,0.20690
1550.48880,0.20784
1552.41727,0.21180
1554.34574,0.21601
1556.27421,0.22445
1558.20268,0.25107
1560.13115,0.24644
1562.05961,0.21555
1563.98808,0.19814
1565.91655,0.19032
1567.84502,0.19334
1569.77349,0.20046
1571.70196,0.19746
1573.63043,0.19515
1575.55889,0.20159
1577.48736,0.19940
1579.41583,0.18573
1581.34430,0.17839
1583.27277,0.17928
1585.20124,0.18019
1587.12971,0.17856
1589.05818,0.17831
1590.98664,0.18068
1592.91511,0.18378
1594.84358,0.18472
1596.77205,0.18238
1598.70052,0.18039
1600.62899,0.18185
1602.55746,0.18394
1604.48592,0.18271
1606.41439,0.17829
1608.34286,0.17386
1610.27133,0.17221
1612.19980,0.17426
1614.12827,0.18095
1616.05674,0.18828
1617.98521,0.18781
1619.91367,0.19082
1621.84214,0.20338
1623.77061,0.20947
1625.69908,0.20196
1627.62755,0.19580
1629.55602,0.19335
1631.48449,0.19380
1633.41295,0.20254
1635.34142,0.22026
1637.26989,0.22188
1639.19836,0.20924
1641.12683,0.20239
1643.05530,0.20537
1644.98377,0.21904
1646.91223,0.23356
1648.84070,0.22743
1650.76917,0.21916
1652.69764,0.22534
1654.62611,0.22477
1656.55458,0.21045
1658.48305,0.20290
1660.41152,0.20549
1662.33998,0.20883
1664.26845,0.20430
1666.19692,0.20446
1668.12539,0.21287
1670.05386,0.21539
1671.98233,0.20866
1673.91080,0.20609
1675.83926,0.20606
1677.76773,0.20640
1679.69620,0.20967
1681.62467,0.21711
1683.55314,0.23002
1685.48161,0.22895
1687.41008,0.21525
1689.33855,0.20758
1691.26701,0.20514
1693.19548,0.20828
1695.12395,0.21991
1697.05242,0.23099
1698.98089,0.23235
1700.90936,0.22166
1702.83783,0.21027
1704.76629,0.21039
1706.69476,0.20950
1708.62323,0.19966
1710.55170,0.19382
1712.48017,0.19902
1714.40864,0.21145
1716.33711,0.22314
1718.26558,0.21933
1720.19404,0.20469
1722.12251,0.19396
1724.05098,0.18700
1725.97945,0.18583
1727.90792,0.19290
1729.83639,0.20213
1731.76486,0.20866
1733.69332,0.21219
1735.62179,0.20744
1737.55026,0.20247
1739.47873,0.20266
1741.40720,0.20523
1743.33567,0.20752
1745.26414,0.20925
1747.19261,0.21173
1749.12107,0.21229
1751.04954,0.20279
1752.97801,0.19219
1754.90648,0.19124
1756.83495,0.19393
1758.76342,0.19390
1760.69189,0.19466
1762.62035,0.19504
1764.54882,0.19264
1766.47729,0.19210
1768.40576,0.19706
1770.33423,0.20836
1772.26270,0.21457
1774.19117,0.20522
1776.11964,0.19455
1778.04810,0.19040
1779.97657,0.19232
1781.90504,0.19319
1783.83351,0.18796
1785.76198,0.18342
1787.69045,0.18601
1789.61892,0.19459
1791.54738,0.20317
1793.47585,0.20240
1795.40432,0.19535
1797.33279,0.19185
1799.26126,0.19500
1801.18973,0.19686
1803.11820,0.19167
1805.04666,0.18842
1806.97513,0.19079
1808.90360,0.19393
1810.83207,0.19456
1812.76054,0.19294
1814.68901,0.19387
1816.61748,0.20134
1818.54595,0.20569
1820.47441,0.19797
1822.40288,0.19124
1824.33135,0.19397
1826.25982,0.19800
1828.18829,0.20179
1830.11676,0.20367
1832.04523,0.19866
1833.97369,0.19260
1835.90216,0.18903
1837.83063,0.18625
1839.75910,0.18576
1841.68757,0.19185
1843.61604,0.20127
1845.54451,0.20304
1847.47298,0.19700
1849.40144,0.18942
1851.32991,0.18461
1853.25838,0.18382
1855.18685,0.18354
1857.11532,0.18291
1859.04379,0.18433
1860.97226,0.18657
1862.90072,0.18656
1864.82919,0.18761
1866.75766,0.19338
1868.68613,0.19742
1870.61460,0.19450
1872.54307,0.18978
1874.47154,0.18575
1876.40001,0.18237
1878.32847,0.18087
1880.25694,0.18245
1882.18541,0.18520
1884.11388,0.18660
1886.04235,0.18566
1887.97082,0.18441
1889.89929,0.18527
1891.82775,0.18769
1893.75622,0.19044
1895.68469,0.19068
1897.61316,0.18681
1899.54163,0.18376
1901.47010,0.18554
1903.39857,0.18962
1905.32704,0.19206
1907.25550,0.19280
1909.18397,0.19328
1911.11244,0.19144
1913.04091,0.18780
1914.96938,0.18782
1916.89785,0.19036
1918.82632,0.18883
1920.75478,0.18623
1922.68325,0.18895
1924.61172,0.19171
1926.54019,0.18890
1928.46866,0.18515
1930.39713,0.18426
1932.32560,0.18343
1934.25407,0.18150
1936.18253,0.18166
1938.11100,0.18369
1940.03947,0.18546
1941.96794,0.18594
1943.89641,0.18630
1945.82488,0.18771
1947.75335,0.18847
1949.68181,0.18942
1951.61028,0.18991
1953.53875,0.18751
1955.46722,0.18519
1957.39569,0.18570
1959.32416,0.18772
1961.25263,0.18946
1963.18110,0.19007
1965.10956,0.19008
1967.03803,0.18929
1968.96650,0.18783
1970.89497,0.18678
1972.82344,0.18906
1974.75191,0.19935
1976.68038,0.20712
1978.60884,0.20061
1980.53731,0.19234
1982.46578,0.19038
1984.39425,0.18915
1986.32272,0.19026
1988.25119,0.19369
1990.17966,0.19524
1992.10812,0.19297
1994.03659,0.18768
1995.96506,0.18431
1997.89353,0.18492
1999.82200,0.18661
2001.75047,0.18728
2003.67894,0.18684
2005.60741,0.18671
2007.53587,0.18799
2009.46434,0.18884
2011.39281,0.18882
2013.32128,0.18954
2015.24975,0.19017
2017.17822,0.18885
2019.10669,0.18523
2021.03515,0.18255
2022.96362,0.18387
2024.89209,0.18729
2026.82056,0.18852
2028.74903,0.18719
2030.67750,0.18672
2032.60597,0.18769
2034.53444,0.18818
2036.46290,0.18815
2038.39137,0.18827
2040.31984,0.18795
2042.24831,0.18714
2044.17678,0.18650
2046.10525,0.18632
2048.03372,0.18729
2049.96218,0.18893
2051.89065,0.18913
2053.81912,0.18820
2055.74759,0.18887
2057.67606,0.19081
2059.60453,0.19210
2061.53300,0.19278
2063.46147,0.19129
2065.38993,0.18748
2067.31840,0.18575
2069.24687,0.18599
2071.17534,0.18570
2073.10381,0.18727
2075.03228,0.19039
2076.96075,0.19134
2078.88921,0.18994
2080.81768,0.18867
2082.74615,0.18867
2084.67462,0.18894
2086.60309,0.18884
2088.53156,0.18870
2090.46003,0.18826
2092.38850,0.18624
2094.31696,0.18272
2096.24543,0.17997
2098.17390,0.18010
2100.10237,0.18283
2102.03084,0.18718
2103.95931,0.19164
2105.88778,0.19245
2107.81624,0.18969
2109.74471,0.18769
2111.67318,0.18779
2113.60165,0.18841
2115.53012,0.18918
2117.45859,0.19065
2119.38706,0.19131
2121.31553,0.18880
2123.24399,0.18584
2125.17246,0.18600
2127.10093,0.18741
2129.02940,0.18656
2130.95787,0.17681
2132.88634,0.15897
2134.81481,0.15149
2136.74327,0.16465
2138.67174,0.18331
2140.60021,0.19113
2142.52868,0.19035
2144.45715,0.18881
2146.38562,0.18926
2148.31409,0.19100
2150.24255,0.19155
2152.17102,0.19157
2154.09949,0.19133
2156.02796,0.18900
2157.95643,0.18583
2159.88490,0.18415
2161.81337,0.18511
2163.74184,0.18742
2165.67030,0.18863
2167.59877,0.18855
2169.52724,0.18929
2171.45571,0.19176
2173.38418,0.19241
2175.31265,0.19034
2177.24112,0.18974
2179.16958,0.19121
2181.09805,0.19169
2183.02652,0.18910
2184.95499,0.18504
2186.88346,0.18404
2188.81193,0.18665
2190.74040,0.18863
2192.66887,0.18829
2194.59733,0.18677
2196.52580,0.18603
2198.45427,0.18780
2200.38274,0.19016
2202.31121,0.19073
2204.23968,0.19065
2206.16815,0.19103
2208.09661,0.19241
2210.02508,0.19547
2211.95355,0.19692
2213.88202,0.19436
2215.81049,0.19091
2217.73896,0.18808
2219.66743,0.18570
2221.59590,0.18624
2223.52436,0.18913
2225.45283,0.18931
2227.38130,0.18754
2229.30977,0.18824
2231.23824,0.19064
2233.16671,0.19289
2235.09518,0.19347
2237.02364,0.19128
2238.95211,0.18911
2240.88058,0.18830
2242.80905,0.18656
2244.73752,0.18430
2246.66599,0.18392
2248.59446,0.18475
2250.52293,0.18698
2252.45139,0.19121
2254.37986,0.19376
2256.30833,0.19346
2258.23680,0.19269
2260.16527,0.19149
2262.09374,0.18978
2264.02221,0.18907
2265.95067,0.18871
2267.87914,0.18675
2269.80761,0.18579
2271.73608,0.18808
2273.66455,0.19092
2275.59302,0.19295
2277.52149,0.19324
2279.44996,0.19149
2281.37842,0.18977
2283.30689,0.18842
2285.23536,0.18880
2287.16383,0.18960
2289.09230,0.18261
2291.02077,0.16843
2292.94924,0.16278
2294.87770,0.17277
2296.80617,0.18364
2298.73464,0.18577
2300.66311,0.18651
2302.59158,0.18927
2304.52005,0.19276
2306.44852,0.19706
2308.37699,0.19994
2310.30545,0.20094
2312.23392,0.20444
2314.16239,0.20982
2316.09086,0.20966
2318.01933,0.20310
2319.94780,0.20005
2321.87627,0.20988
2323.80473,0.22269
2325.73320,0.22402
2327.66167,0.21604
2329.59014,0.20434
2331.51861,0.19772
2333.44708,0.19870
2335.37555,0.19961
2337.30401,0.20580
2339.23248,0.21721
2341.16095,0.21626
2343.08942,0.20652
2345.01789,0.20624
2346.94636,0.20900
2348.87483,0.20559
2350.80330,0.20251
2352.73176,0.21068
2354.66023,0.22926
2356.58870,0.23831
2358.51717,0.22796
2360.44564,0.21495
2362.37411,0.21400
2364.30258,0.22365
2366.23104,0.23423
2368.15951,0.23020
2370.08798,0.21455
2372.01645,0.20239
2373.94492,0.19565
2375.87339,0.19252
2377.80186,0.19440
2379.73033,0.19581
2381.65879,0.19235
2383.58726,0.18950
2385.51573,0.19034
2387.44420,0.19131
2389.37267,0.19125
2391.30114,0.19094
2393.22961,0.18907
2395.15807,0.18695
2397.08654,0.18728
2399.01501,0.18764
2400.94348,0.18644
2402.87195,0.18656
2404.80042,0.18809
2406.72889,0.18979
2408.65736,0.19175
2410.58582,0.19123
2412.51429,0.18806
2414.44276,0.18735
2416.37123,0.18825
2418.29970,0.18630
2420.22817,0.18443
2422.15664,0.18521
2424.08510,0.18622
2426.01357,0.18651
2427.94204,0.18691
2429.87051,0.18865
2431.79898,0.19159
2433.72745,0.19295
2435.65592,0.19196
2437.58439,0.19046
2439.51285,0.18840
2441.44132,0.18613
2443.36979,0.18417
2445.29826,0.18275
2447.22673,0.18393
2449.15520,0.18750
2451.08367,0.19055
2453.01213,0.19038
2454.94060,0.18720
2456.86907,0.18577
2458.79754,0.18987
2460.72601,0.19484
2462.65448,0.19453
2464.58295,0.19101
2466.51142,0.18871
2468.43988,0.18801
2470.36835,0.18759
2472.29682,0.18904
2474.22529,0.19203
2476.15376,0.19277
2478.08223,0.19198
2480.01070,0.19173
2481.93916,0.19061
2483.86763,0.18936
2485.79610,0.18985
2487.72457,0.19043
2489.65304,0.19068
2491.58151,0.19117
2493.50998,0.18999
2495.43844,0.18746
2497.36691,0.18757
2499.29538,0.19063
2501.22385,0.19271
2503.15232,0.19252
2505.08079,0.19046
2507.00926,0.18771
2508.93773,0.18662
2510.86619,0.18858
2512.79466,0.19266
2514.72313,0.19492
2516.65160,0.19296
2518.58007,0.18967
2520.50854,0.18842
2522.43701,0.18852
2524.36547,0.18867
2526.29394,0.18889
2528.22241,0.19031
2530.15088,0.19455
2532.07935,0.19839
2534.00782,0.19705
2535.93629,0.19324
2537.86476,0.19232
2539.79322,0.19254
2541.72169,0.19189
2543.65016,0.19324
2545.57863,0.19550
2547.50710,0.19606
2549.43557,0.19538
2551.36404,0.19391
2553.29250,0.19296
2555.22097,0.19285
2557.14944,0.19202
2559.07791,0.18945
2561.00638,0.18646
2562.93485,0.18626
2564.86332,0.18810
2566.79179,0.18972
2568.72025,0.19131
2570.64872,0.19199
2572.57719,0.19228
2574.50566,0.19318
2576.43413,0.19283
2578.36260,0.19087
2580.29107,0.19004
2582.21953,0.19154
2584.14800,0.19298
2586.07647,0.19274
2588.00494,0.19322
2589.93341,0.19567
2591.86188,0.19567
2593.79035,0.19264
2595.71882,0.19235
2597.64728,0.19405
2599.57575,0.19305
2601.50422,0.19101
2603.43269,0.18964
2605.36116,0.18716
2607.28963,0.18616
2609.21810,0.19016
2611.14656,0.19508
2613.07503,0.19564
2615.00350,0.19343
2616.93197,0.19161
2618.86044,0.19066
2620.78891,0.19102
2622.71738,0.19241
2624.64585,0.19543
2626.57431,0.19977
2628.50278,0.20083
2630.43125,0.19753
2632.35972,0.19431
2634.28819,0.19477
2636.21666,0.19618
2638.14513,0.19406
2640.07359,0.19160
2642.00206,0.19249
2643.93053,0.19429
2645.85900,0.19640
2647.78747,0.19905
2649.71594,0.19808
2651.64441,0.19384
2653.57288,0.19133
2655.50134,0.19140
2657.42981,0.19367
2659.35828,0.19673
2661.28675,0.19675
2663.21522,0.19519
2665.14369,0.19622
2667.07216,0.19860
2669.00062,0.20044
2670.92909,0.20093
2672.85756,0.19955
2674.78603,0.19683
2676.71450,0.19346
2678.64297,0.19182
2680.57144,0.19282
2682.49990,0.19430
2684.42837,0.19516
2686.35684,0.19677
2688.28531,0.19903
2690.21378,0.19930
2692.14225,0.19758
2694.07072,0.19652
2695.99919,0.19760
2697.92765,0.19988
2699.85612,0.20151
2701.78459,0.20105
2703.71306,0.19824
2705.64153,0.19406
2707.57000,0.19077
2709.49847,0.18996
2711.42693,0.19065
2713.35540,0.19284
2715.28387,0.19696
2717.21234,0.20214
2719.14081,0.20633
2721.06928,0.20527
2722.99775,0.20009
2724.92622,0.19788
2726.85468,0.19902
2728.78315,0.19933
2730.71162,0.19892
2732.64009,0.19907
2734.56856,0.19961
2736.49703,0.20014
2738.42550,0.20098
2740.35396,0.20257
2742.28243,0.20411
2744.21090,0.20502
2746.13937,0.20498
2748.06784,0.20203
2749.99631,0.19799
2751.92478,0.19791
2753.85325,0.19969
2755.78171,0.20077
2757.71018,0.20250
2759.63865,0.20366
2761.56712,0.20462
2763.49559,0.20468
2765.42406,0.20279
2767.35253,0.20290
2769.28099,0.20510
2771.20946,0.20397
2773.13793,0.19902
2775.06640,0.19691
2776.99487,0.19909
2778.92334,0.19942
2780.85181,0.19824
2782.78028,0.19975
2784.70874,0.20382
2786.63721,0.20745
2788.56568,0.20618
2790.49415,0.20217
2792.42262,0.20197
2794.35109,0.20435
2796.27956,0.20584
2798.20802,0.20658
2800.13649,0.20820
2802.06496,0.21191
2803.99343,0.21354
2805.92190,0.20776
2807.85037,0.20047
2809.77884,0.20338
2811.70731,0.21292
2813.63577,0.21608
2815.56424,0.21250
2817.49271,0.20889
2819.42118,0.20727
2821.34965,0.20567
2823.27812,0.20388
2825.20659,0.20439
2827.13505,0.20548
2829.06352,0.20393
2830.99199,0.20210
2832.92046,0.20424
2834.84893,0.20778
2836.77740,0.20623
2838.70587,0.20050
2840.63433,0.19777
2842.56280,0.19988
2844.49127,0.20277
2846.41974,0.20380
2848.34821,0.20252
2850.27668,0.20006
2852.20515,0.19778
2854.13362,0.19622
2856.06208,0.19715
2857.99055,0.20219
2859.91902,0.20846
2861.84749,0.21214
2863.77596,0.21308
2865.70443,0.21001
2867.63290,0.20331
2869.56136,0.19918
2871.48983,0.20061
2873.41830,0.20339
2875.34677,0.20420
2877.27524,0.20314
2879.20371,0.20161
2881.13218,0.20272
2883.06065,0.20549
2884.98911,0.20704
2886.91758,0.20672
2888.84605,0.20353
2890.77452,0.20256
2892.70299,0.20675
2894.63146,0.20764
2896.55993,0.20457
2898.48839,0.20456
2900.41686,0.20622
2902.34533,0.20625
2904.27380,0.20540
2906.20227,0.20387
2908.13074,0.20041
2910.05921,0.19614
2911.98768,0.19335
2913.91614,0.19332
2915.84461,0.19551
2917.77308,0.19583
2919.70155,0.19450
2921.63002,0.19771
2923.55849,0.20331
2925.48696,0.20188
2927.41542,0.19613
2929.34389,0.19638
2931.27236,0.20262
2933.20083,0.20847
2935.12930,0.21054
2937.05777,0.20774
2938.98624,0.20294
2940.91471,0.20230
2942.84317,0.20459
2944.77164,0.20457
2946.70011,0.20349
2948.62858,0.20316
2950.55705,0.20359
2952.48552,0.20496
2954.41399,0.20596
2956.34245,0.20619
2958.27092,0.20615
2960.19939,0.20597
2962.12786,0.20703
2964.05633,0.20980
2965.98480,0.21122
2967.91327,0.20924
2969.84174,0.20575
2971.77020,0.20327
2973.69867,0.20283
2975.62714,0.20429
2977.55561,0.20475
2979.48408,0.20102
2981.41255,0.19850
2983.34102,0.20305
2985.26948,0.21000
2987.19795,0.21399
2989.12642,0.21401
2991.05489,0.20995
2992.98336,0.20504
2994.91183,0.20449
2996.84030,0.20811
2998.76877,0.21327
3000.69723,0.21822
3002.62570,0.21802
3004.55417,0.21066
3006.48264,0.20260
3008.41111,0.20025
3010.33958,0.20220
3012.26805,0.20464
3014.19651,0.20911
3016.12498,0.21517
3018.05345,0.21650
3019.98192,0.21384
3021.91039,0.21270
3023.83886,0.21143
3025.76733,0.20910
3027.69579,0.20761
3029.62426,0.20747
3031.55273,0.21105
3033.48120,0.21648
3035.40967,0.21637
3037.33814,0.21211
3039.26661,0.21038
3041.19508,0.21018
3043.12354,0.20870
3045.05201,0.20708
3046.98048,0.20753
3048.90895,0.21009
3050.83742,0.21054
3052.76589,0.20859
3054.69436,0.20966
3056.62282,0.21242
3058.55129,0.21284
3060.47976,0.21178
3062.40823,0.20852
3064.33670,0.20391
3066.26517,0.20123
3068.19364,0.20298
3070.12211,0.20813
3072.05057,0.21141
3073.97904,0.21193
3075.90751,0.21111
3077.83598,0.20983
3079.76445,0.20884
3081.69292,0.20782
3083.62139,0.20859
3085.54985,0.21177
3087.47832,0.21408
3089.40679,0.21030
3091.33526,0.20076
3093.26373,0.19622
3095.19220,0.20208
3097.12067,0.20815
3099.04914,0.20886
3100.97760,0.21086
3102.90607,0.21572
3104.83454,0.21963
3106.76301,0.22067
3108.69148,0.21719
3110.61995,0.21174
3112.54842,0.20927
3114.47688,0.20838
3116.40535,0.20482
3118.33382,0.19950
3120.26229,0.19673
3122.19076,0.19903
3124.11923,0.20541
3126.04770,0.21091
3127.97617,0.21186
3129.90463,0.21044
3131.83310,0.20991
3133.76157,0.21103
3135.69004,0.21237
3137.61851,0.21380
3139.54698,0.21632
3141.47545,0.21808
3143.40391,0.21520
3145.33238,0.21001
3147.26085,0.20961
3149.18932,0.21178
3151.11779,0.21298
3153.04626,0.21504
3154.97473,0.21361
3156.90320,0.20567
3158.83166,0.20035
3160.76013,0.20481
3162.68860,0.21190
3164.61707,0.21264
3166.54554,0.20909
3168.47401,0.21009
3170.40248,0.21695
3172.33094,0.22224
3174.25941,0.22197
3176.18788,0.21828
3178.11635,0.21726
3180.04482,0.22096
3181.97329,0.22426
3183.90176,0.22394
3185.83022,0.22039
3187.75869,0.21705
3189.68716,0.21421
3191.61563,0.20645
3193.54410,0.19917
3195.47257,0.20345
3197.40104,0.21279
3199.32951,0.21490
3201.25797,0.21121
3203.18644,0.20831
3205.11491,0.20831
3207.04338,0.21008
3208.97185,0.21151
3210.90032,0.21172
3212.82879,0.21294
3214.75725,0.21530
3216.68572,0.21583
3218.61419,0.21337
3220.54266,0.20779
3222.47113,0.20171
3224.39960,0.19848
3226.32807,0.19885
3228.25654,0.20277
3230.18500,0.20773
3232.11347,0.21053
3234.04194,0.21032
3235.97041,0.21008
3237.89888,0.21300
3239.82735,0.21545
3241.75582,0.21359
3243.68428,0.21032
3245.61275,0.20882
3247.54122,0.20986
3249.46969,0.21460
3251.39816,0.21833
3253.32663,0.21615
3255.25510,0.21350
3257.18357,0.21174
3259.11203,0.20675
3261.04050,0.20181
3262.96897,0.20049
3264.89744,0.20057
3266.82591,0.20024
3268.75438,0.20071
3270.68285,0.20281
3272.61131,0.20468
3274.53978,0.20317
3276.46825,0.20017
3278.39672,0.20045
3280.32519,0.20273
3282.25366,0.20480
3284.18213,0.20716
3286.11060,0.20809
3288.03906,0.20768
3289.96753,0.20821
3291.89600,0.20672
3293.82447,0.20269
3295.75294,0.20007
3297.68141,0.19774
3299.60988,0.19665
3301.53834,0.20074
3303.46681,0.20784
3305.39528,0.21211
3307.32375,0.21221
3309.25222,0.21203
3311.18069,0.21258
3313.10916,0.21020
3315.03763,0.20265
3316.96609,0.19438
3318.89456,0.19146
3320.82303,0.19504
3322.75150,0.20330
3324.67997,0.21131
3326.60844,0.21342
3328.53691,0.21184
3330.46537,0.21164
3332.39384,0.20960
3334.32231,0.20458
3336.25078,0.20313
3338.17925,0.20637
3340.10772,0.20850
3342.03619,0.20754
3343.96466,0.20784
3345.89312,0.21042
3347.82159,0.20998
3349.75006,0.20317
3351.67853,0.19508
3353.60700,0.19473
3355.53547,0.20270
3357.46394,0.20932
3359.39240,0.20941
3361.32087,0.20799
3363.24934,0.20892
3365.17781,0.21036
3367.10628,0.21198
3369.03475,0.21682
3370.96322,0.22066
3372.89168,0.21646
3374.82015,0.20829
3376.74862,0.20405
3378.67709,0.20463
3380.60556,0.20618
3382.53403,0.20552
3384.46250,0.20150
3386.39097,0.19728
3388.31943,0.19791
3390.24790,0.20430
3392.17637,0.21000
3394.10484,0.20805
3396.03331,0.20456
3397.96178,0.20697
3399.89025,0.21063
3401.81871,0.21064
3403.74718,0.20937
3405.67565,0.20757
3407.60412,0.20466
3409.53259,0.20281
3411.46106,0.20374
3413.38953,0.21005
3415.31800,0.21627
3417.24646,0.21484
3419.17493,0.21189
3421.10340,0.20992
3423.03187,0.20487
3424.96034,0.20196
3426.88881,0.20374
3428.81728,0.20496
3430.74574,0.20583
3432.67421,0.20857
3434.60268,0.20846
3436.53115,0.20461
3438.45962,0.20297
3440.38809,0.20437
3442.31656,0.20682
3444.24503,0.20984
3446.17349,0.20910
3448.10196,0.20320
3450.03043,0.19833
3451.95890,0.19593
3453.88737,0.19217
3455.81584,0.18905
3457.74431,0.19029
3459.67277,0.19150
3461.60124,0.19245
3463.52971,0.19822
3465.45818,0.20098
3467.38665,0.19566
3469.31512,0.19362
3471.24359,0.19784
3473.17206,0.19946
3475.10052,0.19626
3477.02899,0.19126
3478.95746,0.19027
3480.88593,0.19437
3482.81440,0.19478
3484.74287,0.19155
3486.67134,0.18889
3488.59980,0.18574
3490.52827,0.18577
3492.45674,0.18731
3494.38521,0.18385
3496.31368,0.18056
3498.24215,0.18390
3500.17062,0.18758
3502.09909,0.18563
3504.02755,0.18213
3505.95602,0.18491
3507.88449,0.19134
3509.81296,0.19110
3511.74143,0.18641
3513.66990,0.18352
3515.59837,0.18053
3517.52683,0.17950
3519.45530,0.18131
3521.38377,0.18083
3523.31224,0.17502
3525.24071,0.17040
3527.16918,0.17264
3529.09765,0.17425
3531.02611,0.17067
3532.95458,0.16646
3534.88305,0.16355
3536.81152,0.16213
3538.73999,0.16499
3540.66846,0.17146
3542.59693,0.17585
3544.52540,0.17698
3546.45386,0.17761
3548.38233,0.17713
3550.31080,0.17460
3552.23927,0.17013
3554.16774,0.16472
3556.09621,0.16019
3558.02468,0.15899
3559.95314,0.16601
3561.88161,0.17692
3563.81008,0.18031
3565.73855,0.17871
3567.66702,0.17526
3569.59549,0.16505
3571.52396,0.15714
3573.45243,0.15836
3575.38089,0.16069
3577.30936,0.15562
3579.23783,0.15122
3581.16630,0.15313
3583.09477,0.15669
3585.02324,0.16288
3586.95171,0.16827
3588.88017,0.16336
3590.80864,0.15944
3592.73711,0.16280
3594.66558,0.16464
3596.59405,0.16154
3598.52252,0.15818
3600.45099,0.15520
3602.37946,0.15486
3604.30792,0.15996
3606.23639,0.16484
3608.16486,0.16105
3610.09333,0.15790
3612.02180,0.16465
3613.95027,0.16893
3615.87874,0.16802
3617.80720,0.17005
3619.73567,0.16887
3621.66414,0.16068
3623.59261,0.15525
3625.52108,0.15680
3627.44955,0.16291
3629.37802,0.16252
3631.30649,0.15425
3633.23495,0.14745
3635.16342,0.14045
3637.09189,0.13484
3639.02036,0.13469
3640.94883,0.13937
3642.87730,0.14580
3644.80577,0.15435
3646.73423,0.16797
3648.66270,0.18046
3650.59117,0.16849
3652.51964,0.15028
3654.44811,0.14734
3656.37658,0.15204
3658.30505,0.14956
3660.23352,0.14261
3662.16198,0.13808
3664.09045,0.13598
3666.01892,0.13512
3667.94739,0.13702
3669.87586,0.14200
3671.80433,0.14570
3673.73280,0.15229
3675.66126,0.15923
3677.58973,0.15366
3679.51820,0.14675
3681.44667,0.14190
3683.37514,0.13503
3685.30361,0.13293
3687.23208,0.14506
3689.16055,0.15969
3691.08901,0.15299
3693.01748,0.14116
3694.94595,0.13538
3696.87442,0.13137
3698.80289,0.12919
3700.73136,0.13166
3702.65983,0.13502
3704.58829,0.13246
3706.51676,0.12924
3708.44523,0.13349
3710.37370,0.14422
3712.30217,0.14442
3714.23064,0.13246
3716.15911,0.12798
3718.08757,0.13285
3720.01604,0.13634
3721.94451,0.13651
3723.87298,0.14033
3725.80145,0.14510
3727.72992,0.14506
3729.65839,0.14394
3731.58686,0.15216
3733.51532,0.17408
3735.44379,0.18442
3737.37226,0.16640
3739.30073,0.14720
3741.22920,0.13975
3743.15767,0.14645
3745.08614,0.16238
3747.01460,0.16782
3748.94307,0.16468
3750.87154,0.15499
3752.80001,0.14143
3754.72848,0.13681
3756.65695,0.14041
3758.58542,0.14221
3760.51389,0.13574
3762.44235,0.13182
3764.37082,0.13637
3766.29929,0.14158
3768.22776,0.14250
3770.15623,0.13960
3772.08470,0.13214
3774.01317,0.12642
3775.94163,0.12555
3777.87010,0.12864
3779.79857,0.13228
3781.72704,0.13214
3783.65551,0.13028
3785.58398,0.12786
3787.51245,0.12565
3789.44092,0.12560
3791.36938,0.12517
3793.29785,0.12315
3795.22632,0.12279
3797.15479,0.12337
3799.08326,0.12591
3801.01173,0.13494
3802.94020,0.14188
3804.86866,0.14093
3806.79713,0.13622
3808.72560,0.12949
3810.65407,0.12394
3812.58254,0.12060
3814.51101,0.12344
3816.43948,0.13249
3818.36795,0.13911
3820.29641,0.14460
3822.22488,0.14374
3824.15335,0.13503
3826.08182,0.12874
3828.01029,0.12538
3829.93876,0.12272
3831.86723,0.12426
3833.79569,0.13072
3835.72416,0.13700
3837.65263,0.14478
3839.58110,0.14829
3841.50957,0.14028
3843.43804,0.13037
3845.36651,0.12448
3847.29498,0.12259
3849.22344,0.12456
3851.15191,0.13250
3853.08038,0.14381
3855.00885,0.14097
3856.93732,0.13126
3858.86579,0.12485
3860.79426,0.12715
3862.72272,0.13981
3864.65119,0.14739
3866.57966,0.14576
3868.50813,0.15114
3870.43660,0.15620
3872.36507,0.14665
3874.29354,0.13214
3876.22200,0.12138
3878.15047,0.12240
3880.07894,0.13210
3882.00741,0.13186
3883.93588,0.12436
3885.86435,0.12076
3887.79282,0.11634
3889.72129,0.11416
3891.64975,0.11885
3893.57822,0.11993
3895.50669,0.11847
3897.43516,0.12237
3899.36363,0.12796
3901.29210,0.13088
3903.22057,0.13002
3905.14903,0.12286
3907.07750,0.11374
3909.00597,0.10784
3910.93444,0.10538
3912.86291,0.10704
3914.79138,0.11196
3916.71985,0.11427
3918.64832,0.11148
3920.57678,0.10937
3922.50525,0.11129
3924.43372,0.11278
3926.36219,0.11291
3928.29066,0.11619
3930.21913,0.11791
3932.14760,0.11336
3934.07606,0.11078
3936.00453,0.11425
3937.93300,0.11657
3939.86147,0.11642
3941.78994,0.11714
3943.71841,0.11669
3945.64688,0.11620
3947.57535,0.11658
3949.50381,0.11300
3951.43228,0.10944
3953.36075,0.11259
3955.28922,0.11685
3957.21769,0.11697
3959.14616,0.11344
3961.07463,0.10970
3963.00309,0.11026
3964.93156,0.10995
3966.86003,0.10501
3968.78850,0.10037
3970.71697,0.09829
3972.64544,0.09785
3974.57391,0.09662
3976.50238,0.09555
3978.43084,0.09845
3980.35931,0.10487
3982.28778,0.11235
3984.21625,0.11847
3986.14472,0.11854
3988.07319,0.11028
3990.00166,0.10069
3991.93012,0.09680
3993.85859,0.09895
3995.78706,0.10470
3997.71553,0.10581
3999.64400,0.10026
4001.57247,0.09574
4003.50094,0.09238
4005.42941,0.09186
4007.35787,0.09788
4009.28634,0.10083
4011.21481,0.09579
4013.14328,0.09319
4015.07175,0.09797
4017.00022,0.10233
4018.92869,0.10095
4020.85715,0.09698
4022.78562,0.09214
4024.71409,0.08742
4026.64256,0.08776
4028.57103,0.09366
4030.49950,0.10086
4032.42797,0.10748
4034.35644,0.11203
4036.28490,0.11190
4038.21337,0.10634
4040.14184,0.10119
4042.07031,0.10271
4043.99878,0.10657
4045.92725,0.10684
4047.85572,0.10326
4049.78418,0.09742
4051.71265,0.09379
4053.64112,0.09519
4055.56959,0.09823
4057.49806,0.09877
4059.42653,0.09805
4061.35500,0.09788
4063.28346,0.09637
4065.21193,0.09449
4067.14040,0.09231
4069.06887,0.08889
4070.99734,0.08790
4072.92581,0.09089
4074.85428,0.09722
4076.78275,0.10335
4078.71121,0.10472
4080.63968,0.10316
4082.56815,0.10085
4084.49662,0.09620
4086.42509,0.08959
4088.35356,0.08732
4090.28203,0.09078
4092.21049,0.09326
4094.13896,0.09462
4096.06743,0.09645
4097.99590,0.09550
4099.92437,0.09101
4101.85284,0.08553
4103.78131,0.08326
4105.70978,0.08357
4107.63824,0.08122
4109.56671,0.07755
4111.49518,0.07754
4113.42365,0.08450
4115.35212,0.09556
4117.28059,0.10009
4119.20906,0.09699
4121.13752,0.09445
4123.06599,0.09594
4124.99446,0.09918
4126.92293,0.09952
4128.85140,0.09747
4130.77987,0.09728
4132.70834,0.09916
4134.63681,0.09824
4136.56527,0.09108
4138.49374,0.08317
4140.42221,0.08175
4142.35068,0.08496
4144.27915,0.08561
4146.20762,0.08292
4148.13609,0.08163
4150.06455,0.08048
4151.99302,0.07549
4153.92149,0.07291
4155.84996,0.07990
4157.77843,0.08811
4159.70690,0.08594
4161.63537,0.07517
4163.56384,0.06816
4165.49230,0.07385
4167.42077,0.08577
4169.34924,0.09081
4171.27771,0.08696
4173.20618,0.08201
4175.13465,0.08085
4177.06312,0.08111
4178.99158,0.07804
4180.92005,0.07475
4182.84852,0.07633
4184.77699,0.07969
4186.70546,0.08233
4188.63393,0.08327
4190.56240,0.08252
4192.49087,0.08374
4194.41933,0.08582
4196.34780,0.08592
4198.27627,0.08300
4200.20474,0.07905
4202.13321,0.07897
4204.06168,0.08005
4205.99015,0.07941
4207.91861,0.07946
4209.84708,0.07874
4211.77555,0.07664
4213.70402,0.07451
4215.63249,0.07063
4217.56096,0.06867
4219.48943,0.07194
4221.41789,0.07117
4223.34636,0.06418
4225.27483,0.06444
4227.20330,0.07239
4229.13177,0.07182
4231.06024,0.06209
4232.98871,0.05797
4234.91718,0.06136
4236.84564,0.06543
4238.77411,0.06758
4240.70258,0.06387
4242.63105,0.05738
4244.55952,0.05879
4246.48799,0.06156
4248.41646,0.05396
4250.34492,0.04681
4252.27339,0.05181
4254.20186,0.06161
4256.13033,0.06597
4258.05880,0.06561
4259.98727,0.06377
4261.91574,0.05868
4263.84421,0.05375
4265.77267,0.05449
4267.70114,0.05794
4269.62961,0.06238
4271.55808,0.06655
4273.48655,0.06440
4275.41502,0.05755
4277.34349,0.05325
4279.27195,0.05391
4281.20042,0.05840
4283.12889,0.06443
4285.05736,0.06920
4286.98583,0.06997
4288.91430,0.06512
4290.84277,0.05687
4292.77124,0.05006
4294.69970,0.04697
4296.62817,0.04947
4298.55664,0.05409
4300.48511,0.05374
4302.41358,0.05228
4304.34205,0.05279
4306.27052,0.05159
4308.19898,0.05168
4310.12745,0.05642
4312.05592,0.05963
4313.98439,0.05487
4315.91286,0.04669
4317.84133,0.04411
4319.76980,0.04627
4321.69827,0.04582
4323.62673,0.04491
4325.55520,0.04941
4327.48367,0.05347
4329.41214,0.05103
4331.34061,0.04698
4333.26908,0.04647
4335.19755,0.04699
4337.12601,0.04541
4339.05448,0.04626
4340.98295,0.05294
4342.91142,0.06021
4344.83989,0.05971
4346.76836,0.05011
4348.69683,0.04457
4350.62530,0.04901
4352.55376,0.04915
4354.48223,0.04436
4356.41070,0.04886
4358.33917,0.05649
4360.26764,0.05635
4362.19611,0.05177
4364.12458,0.04504
4366.05304,0.03877
4367.98151,0.03689
4369.90998,0.03869
4371.83845,0.04355
4373.76692,0.04919
4375.69539,0.05073
4377.62386,0.04850
4379.55232,0.04786
4381.48079,0.04894
4383.40926,0.04477
4385.33773,0.03560
4387.26620,0.03316
4389.19467,0.03884
4391.12314,0.04324
4393.05161,0.04729
4394.98007,0.05105
4396.90854,0.04680
4398.83701,0.03998
4400.76548,0.04039
4402.69395,0.04057
4404.62242,0.03199
4406.55089,0.02534
4408.47935,0.02991
4410.40782,0.03626
4412.33629,0.03572
4414.26476,0.02970
4416.19323,0.02151
4418.12170,0.01709
4420.05017,0.01921
4421.97864,0.02463
4423.90710,0.03143
4425.83557,0.03749
4427.76404,0.03893
4429.69251,0.03419
4431.62098,0.02865
4433.54945,0.02828
4435.47792,0.02804
4437.40638,0.02489
4439.33485,0.02288
4441.26332,0.02341
4443.19179,0.02563
4445.12026,0.02720
4447.04873,0.02962
4448.97720,0.03588
4450.90567,0.03913
4452.83413,0.03111
4454.76260,0.02346
4456.69107,0.02800
4458.61954,0.03326
4460.54801,0.03175
4462.47648,0.03148
4464.40495,0.03589
4466.33341,0.04036
4468.26188,0.04455
4470.19035,0.04973
4472.11882,0.05004
4474.04729,0.04342
4475.97576,0.03327
4477.90423,0.02292
4479.83270,0.01440
4481.76116,0.00744
4483.68963,0.00352
4485.61810,0.00778
4487.54657,0.01828
4489.47504,0.02170
4491.40351,0.01804
4493.33198,0.01975
4495.26044,0.02352
4497.18891,0.02192
4499.11738,0.01910
4501.04585,0.01917
4502.97432,0.02147
4504.90279,0.02308
4506.83126,0.02112
4508.75973,0.01910
4510.68819,0.01890
4512.61666,0.01868
4514.54513,0.02195
4516.47360,0.02219
4518.40207,0.01169
4520.33054,0.00738
4522.25901,0.01798
4524.18747,0.02694
4526.11594,0.02695
4528.04441,0.02229
4529.97288,0.01668
4531.90135,0.01209
4533.82982,0.00785
4535.75829,0.00637
4537.68676,0.00913
4539.61522,0.01754
4541.54369,0.02924
4543.47216,0.02996
4545.40063,0.01714
4547.32910,0.00679
4549.25757,0.00507
4551.18604,0.00606
4553.11450,0.00944
4555.04297,0.00984
4556.97144,0.00514
4558.89991,0.01053
4560.82838,0.02296
4562.75685,0.02608
4564.68532,0.02412
4566.61378,0.02706
4568.54225,0.02856
4570.47072,0.01955
4572.39919,0.00905
4574.32766,0.00863
4576.25613,0.01397
4578.18460,0.01710
4580.11307,0.01508
4582.04153,0.00734
4583.97000,-0.00312
4585.89847,-0.00792
4587.82694,0.00001
4589.75541,0.01049
4591.68388,0.01202
4593.61235,0.01436
4595.54081,0.02187
4597.46928,0.02778
4599.39775,0.03088
4601.32622,0.02729
4603.25469,0.02278
4605.18316,0.02724
4607.11163,0.02389
4609.04010,0.00416
4610.96856,-0.01039
4612.89703,-0.00986
4614.82550,-0.00210
4616.75397,0.00810
4618.68244,0.01684
4620.61091,0.01734
4622.53938,0.01123
4624.46784,0.01047
4626.39631,0.01723
4628.32478,0.02057
4630.25325,0.02169
4632.18172,0.03093
4634.11019,0.04017
4636.03866,0.03952
4637.96713,0.03534
4639.89559,0.03097
4641.82406,0.02750
4643.75253,0.02659
4645.68100,0.02250
4647.60947,0.01583
4649.53794,0.01594
4651.46641,0.01726
4653.39487,0.01061
4655.32334,0.00269
4657.25181,-0.00156
4659.18028,0.00020
4661.10875,0.01561
4663.03722,0.03905
4664.96569,0.05394
4666.89416,0.04989
4668.82262,0.02823
4670.75109,0.01057
4672.67956,0.01007
4674.60803,0.00927
4676.53650,0.00282
4678.46497,0.00447
4680.39344,0.01150
4682.32190,0.01371
4684.25037,0.01416
4686.17884,0.01389
4688.10731,0.00994
4690.03578,0.01088
4691.96425,0.01718
4693.89272,0.01432
4695.82119,0.00347
4697.74965,-0.00224
4699.67812,-0.00060
4701.60659,0.00692
4703.53506,0.01724
4705.46353,0.02365
4707.39200,0.02764
4709.32047,0.03255
4711.24893,0.03313
4713.17740,0.02678
4715.10587,0.02055
4717.03434,0.01706
4718.96281,0.01026
4720.89128,0.00477
4722.81975,0.01227
4724.74821,0.02395
4726.67668,0.02396
4728.60515,0.01762
4730.53362,0.01183
4732.46209,0.00453
4734.39056,-0.00204
4736.31903,-0.00745
4738.24750,-0.01087
4740.17596,-0.00830
4742.10443,-0.00132
4744.03290,0.00488
4745.96137,0.00307
4747.88984,-0.00503
4749.81831,-0.00623
4751.74678,0.00219
4753.67524,0.01247
4755.60371,0.02083
4757.53218,0.02631
4759.46065,0.02514
4761.38912,0.01673
4763.31759,0.01125
4765.24606,0.01422
4767.17453,0.01775
4769.10299,0.01475
4771.03146,0.00419
4772.95993,-0.00580
4774.88840,-0.00194
4776.81687,0.01173
4778.74534,0.01765
4780.67381,0.01229
4782.60227,0.00728
4784.53074,0.01155
4786.45921,0.01912
4788.38768,0.01347
4790.31615,0.00284
4792.24462,0.00922
4794.17309,0.01749
4796.10156,0.00718
4798.03002,-0.00607
4799.95849,-0.00726
4801.88696,-0.00053
4803.81543,0.00720
4805.74390,0.01212
4807.67237,0.01406
4809.60084,0.01496
4811.52930,0.01681
4813.45777,0.01977
4815.38624,0.02134
4817.31471,0.02011
4819.24318,0.02246
4821.17165,0.03223
4823.10012,0.03782
4825.02859,0.02972
4826.95705,0.01353
4828.88552,-0.00149
4830.81399,-0.00674
4832.74246,-0.00181
4834.67093,0.00770
4836.59940,0.02191
4838.52787,0.02918
4840.45633,0.02196
4842.38480,0.01807
4844.31327,0.02403
4846.24174,0.02830
4848.17021,0.02506
4850.09868,0.01645
4852.02715,0.00741
4853.95562,0.00595
4855.88408,0.00706
4857.81255,0.00361
4859.74102,0.00779
4861.66949,0.01540
4863.59796,0.00925
4865.52643,-0.00132
4867.45490,-0.00747
4869.38336,-0.01539
4871.31183,-0.01860
4873.24030,-0.00944
4875.16877,0.00186
4877.09724,0.00183
4879.02571,-0.01169
4880.95418,-0.02072
4882.88265,-0.01260
4884.81111,0.00272
4886.73958,0.01691
4888.66805,0.02702
4890.59652,0.02377
4892.52499,0.00435
4894.45346,-0.00918
4896.38193,-0.00060
4898.31039,0.01628
4900.23886,0.02373
4902.16733,0.02336
4904.09580,0.02828
4906.02427,0.03600
4907.95274,0.03086
4909.88121,0.01639
4911.80967,0.00940
4913.73814,0.01073
4915.66661,0.00991
4917.59508,0.00681
4919.52355,0.00415
4921.45202,-0.00130
4923.38049,-0.00556
4925.30896,-0.00168
4927.23742,0.00793
4929.16589,0.02197
4931.09436,0.03391
4933.02283,0.02728
4934.95130,0.01058
4936.87977,0.00624
4938.80824,0.01341
4940.73670,0.01890
4942.66517,0.01497
4944.59364,0.01029
4946.52211,0.01604
4948.45058,0.01766
4950.37905,0.00410
4952.30752,-0.00946
4954.23599,-0.00994
4956.16445,0.00292
4958.09292,0.01236
4960.02139,0.00029
4961.94986,-0.01099
4963.87833,0.00241
4965.80680,0.01759
4967.73527,0.00705
4969.66373,-0.01298
4971.59220,-0.00886
4973.52067,0.01018
4975.44914,0.01509
4977.37761,0.00891
4979.30608,0.01310
4981.23455,0.03338
4983.16302,0.04413
4985.09148,0.03472
4987.01995,0.02900
4988.94842,0.02987
4990.87689,0.02861
4992.80536,0.03343
4994.73383,0.03978
4996.66230,0.03807
4998.59076,0.03163
5000.51923,0.02161
5002.44770,0.01170
5004.37617,0.01013
5006.30464,0.01526
5008.23311,0.02426
5010.16158,0.03062
5012.09005,0.01772
5014.01851,-0.00177
5015.94698,0.00342
5017.87545,0.02409
5019.80392,0.03142
5021.73239,0.02335
5023.66086,0.00835
5025.58933,-0.00488
5027.51779,-0.00227
5029.44626,0.00985
5031.37473,0.01381
5033.30320,0.00994
5035.23167,0.00847
5037.16014,0.01222
5039.08861,0.01561
5041.01708,0.02065
5042.94554,0.03277
5044.87401,0.04486
5046.80248,0.04725
5048.73095,0.03774
5050.65942,0.02176
5052.58789,0.01470
5054.51636,0.02143
5056.44482,0.02546
5058.37329,0.02209
5060.30176,0.02070
5062.23023,0.01999
5064.15870,0.01858
5066.08717,0.02187
5068.01564,0.02850
5069.94410,0.02760
5071.87257,0.02368
5073.80104,0.03501
5075.72951,0.05292
5077.65798,0.06248
5079.58645,0.06683
5081.51492,0.06538
5083.44339,0.05725
5085.37185,0.03991
5087.30032,0.01914
5089.22879,0.02028
5091.15726,0.04163
5093.08573,0.05072
5095.01420,0.04956
5096.94267,0.05981
5098.87113,0.06542
5100.79960,0.04457
5102.72807,0.01982
5104.65654,0.01844
5106.58501,0.02591
5108.51348,0.01847
5110.44195,0.00526
5112.37042,0.00676
5114.29888,0.01679
5116.22735,0.01754
5118.15582,0.00651
5120.08429,-0.00432
5122.01276,-0.00451
5123.94123,-0.00572
5125.86970,-0.01091
5127.79816,-0.00235
5129.72663,0.01401
5131.65510,0.02411
5133.58357,0.02769
5135.51204,0.02288
5137.44051,0.02110
5139.36898,0.03648
5141.29745,0.05097
5143.22591,0.03967
5145.15438,0.01940
5147.08285,0.02305
5149.01132,0.03697
5150.93979,0.03564
5152.86826,0.02635
5154.79673,0.02395
5156.72519,0.03328
5158.65366,0.04581
5160.58213,0.05590
5162.51060,0.05582
5164.43907,0.03993
5166.36754,0.02945
5168.29601,0.03074
5170.22448,0.03327
5172.15294,0.04547
5174.08141,0.06358
5176.00988,0.06288
5177.93835,0.04902
5179.86682,0.04852
5181.79529,0.05680
5183.72376,0.05606
5185.65222,0.05438
5187.58069,0.05930
5189.50916,0.05523
5191.43763,0.04742
5193.36610,0.04754
5195.29457,0.03611
5197.22304,0.01554
5199.15151,0.01784
5201.07997,0.03775
5203.00844,0.05285
5204.93691,0.06287
5206.86538,0.06654
5208.79385,0.06949
5210.72232,0.07885
5212.65079,0.08165
5214.57925,0.07683
5216.50772,0.06894
5218.43619,0.06002
5220.36466,0.05911
5222.29313,0.06295
5224.22160,0.06547
5226.15007,0.06549
5228.07854,0.05777
5230.00700,0.04460
5231.93547,0.03617
5233.86394,0.03554
5235.79241,0.03893
5237.72088,0.04781
5239.64935,0.06011
5241.57782,0.06661
5243.50628,0.06238
5245.43475,0.05549
5247.36322,0.05943
5249.29169,0.06786
5251.22016,0.06139
5253.14863,0.04271
5255.07710,0.02619
5257.00556,0.00946
5258.93403,-0.00755
5260.86250,-0.00555
5262.79097,0.02223
5264.71944,0.05668
5266.64791,0.07193
5268.57638,0.06416
5270.50485,0.05309
5272.43331,0.05149
5274.36178,0.05194
5276.29025,0.04812
5278.21872,0.04263
5280.14719,0.04526
5282.07566,0.06831
5284.00413,0.10479
5285.93259,0.12054
5287.86106,0.09445
5289.78953,0.04801
5291.71800,0.01827
5293.64647,0.01496
5295.57494,0.01938
5297.50341,0.01629
5299.43188,0.01338
5301.36034,0.02767
5303.28881,0.05362
5305.21728,0.07311
5307.14575,0.07546
5309.07422,0.06235
5311.00269,0.03944
5312.93116,0.01843
5314.85962,0.02992
5316.78809,0.06944
5318.71656,0.08502
5320.64503,0.07237
5322.57350,0.06174
5324.50197,0.04444
5326.43044,0.02740
5328.35891,0.05099
5330.28737,0.08494
5332.21584,0.07736
5334.14431,0.04731
5336.07278,0.03040
5338.00125,0.02971
5339.92972,0.04156
5341.85819,0.04978
5343.78665,0.04617
5345.71512,0.05564
5347.64359,0.07895
5349.57206,0.09374
5351.50053,0.10364
5353.42900,0.10647
5355.35747,0.08287
5357.28594,0.04194
5359.21440,0.01038
5361.14287,0.00004
5363.07134,0.00994
5364.99981,0.03038
5366.92828,0.05128
5368.85675,0.07258
5370.78522,0.08600
5372.71368,0.09228
5374.64215,0.09429
5376.57062,0.07936
5378.49909,0.06854
5380.42756,0.07544
5382.35603,0.08527
5384.28450,0.10079
5386.21297,0.11486
5388.14143,0.10819
5390.06990,0.09507
5391.99837,0.08638
5393.92684,0.07214
5395.85531,0.05125
5397.78378,0.04186
5399.71225,0.05086
5401.64071,0.05999
5403.56918,0.06656
5405.49765,0.07550
5407.42612,0.06224
5409.35459,0.04309
5411.28306,0.06420
5413.21153,0.09014
5415.13999,0.08537
5417.06846,0.07360
5418.99693,0.04951
5420.92540,0.02221
5422.85387,0.01736
5424.78234,0.03529
5426.71081,0.06395
5428.63928,0.08932
5430.56774,0.11117
5432.49621,0.11817
5434.42468,0.10196
5436.35315,0.09609
5438.28162,0.10449
5440.21009,0.10799
5442.13856,0.11401
5444.06702,0.11310
5445.99549,0.09023
5447.92396,0.06050
5449.85243,0.04542
5451.78090,0.05327
5453.70937,0.06847
5455.63784,0.07804
5457.56631,0.08034
5459.49477,0.07134
5461.42324,0.05919
5463.35171,0.04993
5465.28018,0.04358
5467.20865,0.04485
5469.13712,0.05170
5471.06559,0.05618
5472.99405,0.05404
5474.92252,0.04898
5476.85099,0.04684
5478.77946,0.04303
5480.70793,0.02551
5482.63640,0.00286
5484.56487,0.00739
5486.49334,0.03872
5488.42180,0.05790
5490.35027,0.04384
5492.27874,0.01897
5494.20721,0.02129
5496.13568,0.05671
5498.06415,0.10200
5499.99262,0.11764
5501.92108,0.10114
5503.84955,0.09911
5505.77802,0.10334
5507.70649,0.06844
5509.63496,0.02136
5511.56343,0.01387
5513.49190,0.03314
5515.42037,0.04626
5517.34883,0.04851
5519.27730,0.05445
5521.20577,0.07818
5523.13424,0.10577
5525.06271,0.10681
5526.99118,0.09097
5528.91965,0.09421
5530.84811,0.09925
5532.77658,0.07940
5534.70505,0.05836
5536.63352,0.04987
5538.56199,0.04728
5540.49046,0.04150
5542.41893,0.02485
5544.34740,0.00741
5546.27586,0.01373
5548.20433,0.04675
5550.13280,0.07969
5552.06127,0.09255
5553.98974,0.08048
5555.91821,0.06853
5557.84668,0.07885
5559.77514,0.08965
5561.70361,0.09063
5563.63208,0.08942
5565.56055,0.07994
5567.48902,0.07841
5569.41749,0.09456
5571.34596,0.08409
5573.27443,0.04716
5575.20289,0.04310
5577.13136,0.06991
5579.05983,0.10251
5580.98830,0.14601
5582.91677,0.17285
5584.84524,0.14355
5586.77371,0.08610
5588.70217,0.05965
5590.63064,0.07052
5592.55911,0.09608
5594.48758,0.11313
5596.41605,0.09723
5598.34452,0.07428
5600.27299,0.07762
5602.20145,0.10137
5604.12992,0.12374
5606.05839,0.11754
5607.98686,0.08727
5609.91533,0.05410
5611.84380,0.04113
5613.77227,0.07240
5615.70074,0.11794
5617.62920,0.13603
5619.55767,0.13612
5621.48614,0.14268
5623.41461,0.14792
5625.34308,0.12562
5627.27155,0.07444
5629.20002,0.03482
5631.12848,0.03425
5633.05695,0.04844
5634.98542,0.06203
5636.91389,0.09787
5638.84236,0.13894
5640.77083,0.13523
5642.69930,0.09110
5644.62777,0.04900
5646.55623,0.05193
5648.48470,0.09601
5650.41317,0.12941
5652.34164,0.13858
5654.27011,0.13108
5656.19858,0.09739
5658.12705,0.05827
5660.05551,0.05634
5661.98398,0.07430
5663.91245,0.07107
5665.84092,0.07355
5667.76939,0.09583
5669.69786,0.09796
5671.62633,0.07375
5673.55480,0.06269
5675.48326,0.07860
5677.41173,0.09295
5679.34020,0.09509
5681.26867,0.10498
5683.19714,0.10451
5685.12561,0.07819
5687.05408,0.06240
5688.98254,0.05669
5690.91101,0.04435
5692.83948,0.04325
5694.76795,0.05556
5696.69642,0.07672
5698.62489,0.08205
5700.55336,0.06225
5702.48183,0.06303
5704.41029,0.08419
5706.33876,0.08280
5708.26723,0.05622
5710.19570,0.03046
5712.12417,0.03358
5714.05264,0.07561
5715.98111,0.11291
5717.90957,0.10385
5719.83804,0.07135
5721.76651,0.04742
5723.69498,0.04400
5725.62345,0.07113
5727.55192,0.10675
5729.48039,0.11870
5731.40886,0.11506
5733.33732,0.10689
5735.26579,0.09649
5737.19426,0.10156
5739.12273,0.11610
5741.05120,0.10817
5742.97967,0.09457
5744.90814,0.10946
5746.83660,0.12702
5748.76507,0.11715
5750.69354,0.10218
5752.62201,0.09540
5754.55048,0.08736
5756.47895,0.08144
5758.40742,0.07528
5760.33588,0.06127
5762.26435,0.04624
5764.19282,0.05897
5766.12129,0.08370
5768.04976,0.07339
5769.97823,0.05176
5771.90670,0.05327
5773.83517,0.05994
5775.76363,0.05792
5777.69210,0.06404
5779.62057,0.07717
5781.54904,0.08379
5783.47751,0.08890
5785.40598,0.07511
5787.33445,0.03357
5789.26291,0.00548
5791.19138,0.02215
5793.11985,0.06839
5795.04832,0.10256
5796.97679,0.10948
5798.90526,0.11545
5800.83373,0.12306
5802.76220,0.11733
5804.69066,0.10830
5806.61913,0.10589
5808.54760,0.10930
5810.47607,0.10975
5812.40454,0.10689
5814.33301,0.11237
5816.26148,0.10874
5818.18994,0.07892
5820.11841,0.06230
5822.04688,0.09042
5823.97535,0.11124
5825.90382,0.08510
5827.83229,0.04816
5829.76076,0.03191
5831.68923,0.01948
5833.61769,0.01959
5835.54616,0.07474
5837.47463,0.15920
5839.40310,0.18990
5841.33157,0.13647
5843.26004,0.05266
5845.18851,-0.00668
5847.11697,-0.03351
5849.04544,-0.03331
5850.97391,0.00120
5852.90238,0.05278
5854.83085,0.09084
5856.75932,0.09967
5858.68779,0.07216
5860.61626,0.04082
5862.54472,0.03582
5864.47319,0.03972
5866.40166,0.04919
5868.33013,0.07994
5870.25860,0.09803
5872.18707,0.05353
5874.11554,-0.00650
5876.04400,-0.01081
5877.97247,0.00760
5879.90094,0.02476
5881.82941,0.07540
5883.75788,0.11841
5885.68635,0.11308
5887.61482,0.11155
5889.54329,0.11340
5891.47175,0.08679
5893.40022,0.06246
5895.32869,0.05415
5897.25716,0.04875
5899.18563,0.03363
5901.11410,0.03403
5903.04257,0.07753
5904.97103,0.11727
5906.89950,0.11173
5908.82797,0.05860
5910.75644,0.01392
5912.68491,0.04917
5914.61338,0.11702
5916.54185,0.12961
5918.47032,0.08975
5920.39878,0.06139
5922.32725,0.06800
5924.25572,0.05959
5926.18419,0.02481
5928.11266,0.01445
5930.04113,0.02767
5931.96960,0.02181
5933.89806,0.00182
5935.82653,-0.01044
5937.75500,0.00075
5939.68347,0.05146
5941.61194,0.08872
5943.54041,0.06526
5945.46888,0.05408
5947.39734,0.08349
5949.32581,0.08087
5951.25428,0.05248
5953.18275,0.05558
5955.11122,0.07813
5957.03969,0.09792
5958.96816,0.10353
5960.89663,0.09723
5962.82509,0.08785
5964.75356,0.06231
5966.68203,0.03750
5968.61050,0.04600
5970.53897,0.06497
5972.46744,0.06566
5974.39591,0.05887
5976.32437,0.06496
5978.25284,0.07717
5980.18131,0.07443
5982.10978,0.09184
5984.03825,0.13187
5985.96672,0.12532
5987.89519,0.08255
5989.82366,0.05570
5991.75212,0.05786
5993.68059,0.08181
5995.60906,0.10704
5997.53753,0.12319
5999.46600,0.13238
6001.39447,0.12683
6003.32294,0.12177
6005.25140,0.14328
6007.17987,0.13612
6009.10834,0.07826
6011.03681,0.03606
6012.96528,0.02334
6014.89375,0.01355
6016.82222,0.00047
6018.75069,0.01459
6020.67915,0.06548
6022.60762,0.09335
6024.53609,0.08901
6026.46456,0.09442
6028.39303,0.10493
6030.32150,0.11099
6032.24997,0.13473
6034.17843,0.16348
6036.10690,0.15993
6038.03537,0.15095
6039.96384,0.16694
6041.89231,0.15942
6043.82078,0.11537
6045.74925,0.08218
6047.67772,0.06322
6049.60618,0.04695
6051.53465,0.05524
6053.46312,0.09657
6055.39159,0.11447
6057.32006,0.06096
6059.24853,-0.00392
6061.17700,-0.02135
6063.10546,-0.00707
6065.03393,0.01646
6066.96240,0.04707
6068.89087,0.09075
6070.81934,0.13942
6072.74781,0.15357
6074.67628,0.12953
6076.60475,0.09803
6078.53321,0.04522
6080.46168,-0.00680
6082.39015,0.00442
6084.31862,0.06998
6086.24709,0.12909
6088.17556,0.12386
6090.10403,0.08435
6092.03249,0.07366
6093.96096,0.06619
6095.88943,0.03779
6097.81790,0.03412
6099.74637,0.05609
6101.67484,0.06114
6103.60331,0.05657
6105.53177,0.05239
6107.46024,0.05084
6109.38871,0.05638
6111.31718,0.06760
6113.24565,0.10420
6115.17412,0.11698
6117.10259,0.06260
6119.03106,0.01264
6120.95952,0.01221
6122.88799,0.04173
6124.81646,0.11006
6126.74493,0.17145
6128.67340,0.14376
6130.60187,0.09057
6132.53034,0.10423
6134.45880,0.13007
6136.38727,0.10739
6138.31574,0.06797
6140.24421,0.06021
6142.17268,0.08161
6144.10115,0.09967
6146.02962,0.10726
6147.95809,0.11535
6149.88655,0.10697
6151.81502,0.08547
6153.74349,0.08374
6155.67196,0.09003
6157.60043,0.09120
6159.52890,0.09500
6161.45737,0.08509
6163.38583,0.04722
6165.31430,0.02012
6167.24277,0.01982
6169.17124,0.02474
6171.09971,0.04748
6173.02818,0.06716
6174.95665,0.06037
6176.88512,0.07271
6178.81358,0.12198
6180.74205,0.17677
6182.67052,0.20016
6184.59899,0.18762
6186.52746,0.17403
6188.45593,0.16520
6190.38440,0.15491
6192.31286,0.14033
6194.24133,0.09588
6196.16980,0.06117
6198.09827,0.07977
6200.02674,0.10044
6201.95521,0.11283
6203.88368,0.14305
6205.81215,0.13456
6207.74061,0.04621
6209.66908,-0.05754
6211.59755,-0.07975
6213.52602,-0.02752
6215.45449,0.04122
6217.38296,0.09336
6219.31143,0.08990
6221.23989,0.05023
6223.16836,0.03847
6225.09683,0.05608
6227.02530,0.06117
6228.95377,0.05110
6230.88224,0.04967
6232.81071,0.05203
6234.73918,0.04904
6236.66764,0.06241
6238.59611,0.07625
6240.52458,0.08629
6242.45305,0.12726
6244.38152,0.14768
6246.30999,0.10287
6248.23846,0.05526
6250.16692,0.03062
6252.09539,0.02948
6254.02386,0.07423
6255.95233,0.11499
6257.88080,0.09445
6259.80927,0.06673
6261.73774,0.07093
6263.66621,0.07251
6265.59467,0.08448
6267.52314,0.11173
6269.45161,0.10110
6271.38008,0.04817
6273.30855,-0.01113
6275.23702,-0.01007
6277.16549,0.05320
6279.09395,0.07751
6281.02242,0.04573
6282.95089,0.02395
6284.87936,0.03868
6286.80783,0.07525
6288.73630,0.10319
6290.66477,0.11227
6292.59323,0.11866
6294.52170,0.12915
6296.45017,0.15173
6298.37864,0.15221
6300.30711,0.09546
6302.23558,0.03349
6304.16405,0.02011
6306.09252,0.03036
6308.02098,0.04364
6309.94945,0.05154
6311.87792,0.04599
6313.80639,0.02919
6315.73486,-0.00636
6317.66333,-0.01542
6319.59180,0.03195
6321.52026,0.05068
6323.44873,0.00640
6325.37720,-0.03960
6327.30567,-0.06086
6329.23414,-0.03457
6331.16261,0.03499
6333.09108,0.07303
6335.01955,0.08343
6336.94801,0.11097
6338.87648,0.10824
6340.80495,0.06606
6342.73342,0.06834
6344.66189,0.11046
6346.59036,0.08459
6348.51883,0.02295
6350.44729,0.04409
6352.37576,0.09446
6354.30423,0.10773
6356.23270,0.12779
6358.16117,0.14557
6360.08964,0.11937
6362.01811,0.08189
6363.94658,0.08792
6365.87504,0.12920
6367.80351,0.15233
6369.73198,0.15306
6371.66045,0.14104
6373.58892,0.08120
6375.51739,0.00300
6377.44586,-0.01555
6379.37432,0.02326
6381.30279,0.05771
6383.23126,0.08573
6385.15973,0.12488
6387.08820,0.11933
6389.01667,0.07091
6390.94514,0.04342
6392.87361,0.03723
6394.80207,0.01981
6396.73054,0.01292
6398.65901,0.00941
6400.58748,-0.01013
6402.51595,-0.00430
6404.44442,0.05143
6406.37289,0.11364
6408.30135,0.15807
6410.22982,0.19645
6412.15829,0.19591
6414.08676,0.15506
6416.01523,0.13324
6417.94370,0.12478
6419.87217,0.06988
6421.80064,-0.00741
6423.72910,-0.07464
6425.65757,-0.12774
6427.58604,-0.11485
6429.51451,-0.03920
6431.44298,0.02940
6433.37145,0.03679
6435.29992,0.00948
6437.22838,0.02600
6439.15685,0.07967
6441.08532,0.12274
6443.01379,0.13758
6444.94226,0.14241
6446.87073,0.17739
6448.79920,0.18612
6450.72766,0.12660
6452.65613,0.08977
6454.58460,0.11859
6456.51307,0.13682
6458.44154,0.12249
6460.37001,0.10535
6462.29848,0.07423
6464.22695,0.05567
6466.15541,0.06983
6468.08388,0.08352
6470.01235,0.06574
6471.94082,0.01541
6473.86929,-0.00749
6475.79776,0.01329
6477.72623,0.01746
6479.65469,0.01218
6481.58316,0.02446
6483.51163,0.01842
6485.44010,0.02141
6487.36857,0.10284
6489.29704,0.18206
6491.22551,0.13870
6493.15398,0.07271
6495.08244,0.07969
6497.01091,0.09688
6498.93938,0.10406
6500.86785,0.09459
6502.79632,0.04547
6504.72479,-0.01962
6506.65326,-0.03861
6508.58172,-0.00405
6510.51019,0.00647
6512.43866,-0.00776
6514.36713,0.02556
6516.29560,0.05057
6518.22407,0.00780
6520.15254,-0.04006
6522.08101,-0.06666
6524.00947,-0.05656
6525.93794,0.01120
6527.86641,0.08297
6529.79488,0.12968
6531.72335,0.15022
6533.65182,0.12969
6535.58029,0.09671
6537.50875,0.11020
6539.43722,0.13855
6541.36569,0.09572
6543.29416,0.02616
6545.22263,0.03948
6547.15110,0.12581
6549.07957,0.20843
6551.00804,0.19298
6552.93650,0.09961
6554.86497,0.06798
6556.79344,0.10922
6558.72191,0.14823
6560.65038,0.13635
6562.57885,0.06836
6564.50732,0.01402
6566.43578,0.01076
6568.36425,0.06031
6570.29272,0.14986
6572.22119,0.17284
6574.14966,0.11035
6576.07813,0.07687
6578.00660,0.08181
6579.93507,0.06708
6581.86353,0.06737
6583.79200,0.11001
6585.72047,0.13809
6587.64894,0.10403
6589.57741,0.03028
6591.50588,-0.04894
6593.43435,-0.10600
6595.36281,-0.08283
6597.29128,-0.00132
6599.21975,0.07154
6601.14822,0.09350
6603.07669,0.06835
6605.00516,0.02323
6606.93363,-0.02860
6608.86210,-0.03600
6610.79056,-0.00709
6612.71903,-0.01127
6614.64750,-0.02487
6616.57597,-0.00304
6618.50444,-0.01218
6620.43291,-0.06561
6622.36138,-0.05678
6624.28984,0.03084
6626.21831,0.08430
6628.14678,0.02929
6630.07525,-0.07230
6632.00372,-0.08598
6633.93219,-0.01552
6635.86066,0.04967
6637.78912,0.05609
6639.71759,0.02157
6641.64606,0.00504
6643.57453,0.06523
6645.50300,0.15349
6647.43147,0.13576
6649.35994,0.04552
6651.28841,0.03317
6653.21687,0.12042
6655.14534,0.23459
6657.07381,0.30224
6659.00228,0.24537
6660.93075,0.12639
6662.85922,0.09697
6664.78769,0.13401
6666.71615,0.14864
6668.64462,0.11713
6670.57309,0.06664
6672.50156,0.06424
6674.43003,0.14116
6676.35850,0.26750
6678.28697,0.32466
6680.21544,0.22727
6682.14390,0.06715
6684.07237,-0.02498
6686.00084,-0.00792
6687.92931,0.08129
6689.85778,0.18938
6691.78625,0.24814
6693.71472,0.22533
6695.64318,0.12382
6697.57165,0.02570
6699.50012,0.02608
6701.42859,0.10800
6703.35706,0.20712
6705.28553,0.19915
6707.21400,0.07411
6709.14247,-0.05350
6711.07093,-0.11543
6712.99940,-0.10043
6714.92787,-0.05946
6716.85634,-0.01868
6718.78481,0.01501
6720.71328,0.06829
6722.64175,0.17228
6724.57021,0.20728
6726.49868,0.14858
6728.42715,0.09225
6730.35562,0.04393
6732.28409,-0.01252
6734.21256,-0.03171
6736.14103,0.04180
6738.06950,0.12012
6739.99796,0.07233
6741.92643,-0.01622
6743.85490,-0.05185
6745.78337,-0.07433
6747.71184,-0.03018
6749.64031,0.04333
6751.56878,0.02178
6753.49724,-0.04178
6755.42571,-0.05027
6757.35418,-0.02704
6759.28265,0.00818
6761.21112,0.05093
6763.13959,0.04300
6765.06806,-0.00843
6766.99653,-0.07563
6768.92499,-0.10838
6770.85346,-0.07208
6772.78193,-0.04132
6774.71040,-0.02835
6776.63887,0.01158
6778.56734,0.06085
6780.49581,0.10032
6782.42427,0.13057
6784.35274,0.17622
6786.28121,0.21930
6788.20968,0.23147
6790.13815,0.22817
6792.06662,0.19373
6793.99509,0.13156
6795.92355,0.04798
6797.85202,-0.02382
6799.78049,-0.01341
6801.70896,0.11351
6803.63743,0.24194
6805.56590,0.18671
6807.49437,0.04600
6809.42284,-0.00870
6811.35130,0.01873
6813.27977,0.09063
6815.20824,0.15766
6817.13671,0.18060
6819.06518,0.19368
6820.99365,0.20392
6822.92212,0.15088
6824.85058,0.04643
6826.77905,0.01614
6828.70752,0.07219
6830.63599,0.11021
6832.56446,0.13523
6834.49293,0.15298
6836.42140,0.10127
6838.34987,0.05233
6840.27833,0.05895
6842.20680,0.10448
6844.13527,0.16315
6846.06374,0.15404
6847.99221,0.07747
6849.92068,0.00603
6851.84915,-0.03992
6853.77761,-0.05072
6855.70608,0.00695
6857.63455,0.09276
6859.56302,0.08766
6861.49149,-0.00237
6863.41996,-0.07497
6865.34843,-0.11232
6867.27690,-0.07188
6869.20536,0.09069
6871.13383,0.25233
6873.06230,0.29512
6874.99077,0.27714
6876.91924,0.26321
6878.84771,0.25732
6880.77618,0.26677
6882.70464,0.23031
6884.63311,0.12481
6886.56158,0.00727
6888.49005,-0.06158
6890.41852,-0.06905
6892.34699,-0.02399
6894.27546,0.01986
6896.20393,0.04350
6898.13239,0.12335
6900.06086,0.17783
6901.98933,0.06686
6903.91780,-0.11656
6905.84627,-0.13876
6907.77474,0.00960
6909.70321,0.13747
6911.63167,0.18922
6913.56014,0.17497
6915.48861,0.09500
6917.41708,-0.00592
6919.34555,-0.06107
6921.27402,-0.02571
6923.20249,0.04629
6925.13096,0.11876
6927.05942,0.22044
6928.98789,0.28934
6930.91636,0.20344
6932.84483,0.03599
6934.77330,-0.01609
6936.70177,0.03640
6938.63024,0.07535
6940.55870,0.04863
6942.48717,0.04336
6944.41564,0.10102
6946.34411,0.13653
6948.27258,0.12245
6950.20105,0.12637
6952.12952,0.16120
6954.05799,0.21477
6955.98645,0.24593
6957.91492,0.21479
6959.84339,0.13213
6961.77186,0.04052
6963.70033,0.04486
6965.62880,0.11670
6967.55727,0.11972
6969.48573,0.06065
6971.41420,0.05998
6973.34267,0.03977
6975.27114,-0.08183
6977.19961,-0.10094
6979.12808,0.02029
6981.05655,0.09286
6982.98501,0.02726
6984.91348,-0.03840
6986.84195,0.02410
6988.77042,0.13796
6990.69889,0.16486
6992.62736,0.12754
6994.55583,0.15601
6996.48430,0.23253
6998.41276,0.22750
7000.34123,0.13802
7002.26970,0.06562
7004.19817,0.03375
7006.12664,0.03588
7008.05511,0.09950
7009.98358,0.13030
7011.91204,0.02992
7013.84051,-0.10418
7015.76898,-0.12745
7017.69745,-0.12649
7019.62592,-0.13741
7021.55439,-0.08576
7023.48286,-0.08674
7025.41133,-0.25672
7027.33979,-0.36815
7029.26826,-0.21429
7031.19673,-0.02412
7033.12520,0.05191
7035.05367,0.10061
7036.98214,0.14233
7038.91061,0.15549
7040.83907,0.15093
7042.76754,0.16867
7044.69601,0.18936
7046.62448,0.14771
7048.55295,0.06884
7050.48142,0.02753
7052.40989,0.02612
7054.33836,0.01903
7056.26682,-0.01937
7058.19529,-0.04593
7060.12376,-0.01874
7062.05223,0.03264
7063.98070,0.09568
7065.90917,0.11557
7067.83764,0.10265
7069.76610,0.14437
7071.69457,0.19805
7073.62304,0.15814
7075.55151,0.09951
7077.47998,0.09985
7079.40845,0.12136
7081.33692,0.08900
7083.26539,0.05935
7085.19385,0.03932
7087.12232,-0.01717
7089.05079,-0.03801
7090.97926,0.00879
7092.90773,0.07580
7094.83620,0.12697
7096.76467,0.15408
7098.69313,0.18053
7100.62160,0.21565
7102.55007,0.23698
7104.47854,0.17457
7106.40701,-0.02416
7108.33548,-0.18927
7110.26395,-0.19490
7112.19242,-0.13085
7114.12088,-0.06723
7116.04935,-0.00329
7117.97782,0.09769
7119.90629,0.24502
7121.83476,0.25759
7123.76323,0.07087
7125.69170,-0.10879
7127.62016,-0.15962
7129.54863,-0.13938
7131.47710,-0.08812
7133.40557,-0.04064
7135.33404,0.00643
7137.26251,0.07285
7139.19098,0.11620
7141.11944,0.18080
7143.04791,0.32167
7144.97638,0.38068
7146.90485,0.24303
7148.83332,0.05410
7150.76179,-0.02058
7152.69026,0.03625
7154.61873,0.03238
7156.54719,-0.07791
7158.47566,-0.13992
7160.40413,-0.09671
7162.33260,0.03922
7164.26107,0.10766
7166.18954,0.03036
7168.11801,-0.01532
7170.04647,0.02282
7171.97494,-0.01097
7173.90341,-0.04186
7175.83188,0.03782
7177.76035,0.08284
7179.68882,0.06562
7181.61729,0.10462
7183.54576,0.16215
7185.47422,0.17187
7187.40269,0.18815
7189.33116,0.28865
7191.25963,0.39553
7193.18810,0.31660
7195.11657,0.20886
7197.04504,0.18982
7198.97350,0.17480
7200.90197,0.21526
7202.83044,0.30115
7204.75891,0.25463
7206.68738,0.12119
7208.61585,0.08365
7210.54432,0.12370
7212.47279,0.18130
7214.40125,0.20316
7216.32972,0.13675
7218.25819,-0.05761
7220.18666,-0.16861
7222.11513,-0.10973
7224.04360,-0.03452
7225.97207,-0.03160
7227.90053,-0.02783
7229.82900,0.05722
7231.75747,0.11039
7233.68594,0.08949
7235.61441,0.15222
7237.54288,0.24285
7239.47135,0.17120
7241.39982,-0.01436
7243.32828,-0.06195
7245.25675,0.07702
7247.18522,0.12493
7249.11369,0.00011
7251.04216,-0.09506
7252.97063,0.03086
7254.89910,0.11580
7256.82756,0.05307
7258.75603,0.05129
7260.68450,0.15397
7262.61297,0.19495
7264.54144,0.08106
7266.46991,0.00224
7268.39838,0.01049
7270.32685,-0.01588
7272.25531,0.02647
7274.18378,0.11979
7276.11225,0.09631
7278.04072,0.06406
7279.96919,0.09558
7281.89766,0.15241
7283.82613,0.17538
7285.75459,0.15350
7287.68306,0.14686
7289.61153,0.11900
7291.54000,0.01195
7293.46847,-0.06027
7295.39694,-0.05899
7297.32541,-0.04791
7299.25387,0.00575
7301.18234,0.02954
7303.11081,-0.04596
7305.03928,-0.10239
7306.96775,-0.08871
7308.89622,-0.07785
7310.82469,-0.04317
7312.75316,0.07251
7314.68162,0.16302
7316.61009,0.11945
7318.53856,0.04942
7320.46703,0.11668
7322.39550,0.28143
7324.32397,0.25075
7326.25244,0.02575
7328.18090,-0.08228
7330.10937,-0.05156
7332.03784,-0.07483
7333.96631,-0.08263
7335.89478,-0.02814
7337.82325,0.01611
7339.75172,0.03313
7341.68019,0.08371
7343.60865,0.13225
7345.53712,0.13756
7347.46559,0.21280
7349.39406,0.30749
7351.32253,0.22499
7353.25100,0.05034
7355.17947,-0.09613
7357.10793,-0.15165
7359.03640,-0.01808
7360.96487,0.15834
7362.89334,0.25984
7364.82181,0.26902
7366.75028,0.19741
7368.67875,0.12577
7370.60722,0.07833
7372.53568,0.09524
7374.46415,0.17083
7376.39262,0.10502
7378.32109,-0.01117
7380.24956,0.02023
7382.17803,0.12722
7384.10650,0.16617
7386.03496,0.11316
7387.96343,0.01330
7389.89190,-0.10486
7391.82037,-0.20055
7393.74884,-0.16235
7395.67731,0.00463
7397.60578,0.11056
7399.53425,0.13768
7401.46271,0.18903
7403.39118,0.30037
7405.31965,0.40256
7407.24812,0.38646
7409.17659,0.26777
7411.10506,0.05885
7413.03353,-0.07592
7414.96199,0.02601
7416.89046,0.20543
7418.81893,0.19898
7420.74740,0.14669
7422.67587,0.20178
7424.60434,0.19442
7426.53281,0.13622
7428.46128,0.16487
7430.38974,0.22295
7432.31821,0.09944
7434.24668,-0.08230
7436.17515,-0.05972
7438.10362,0.10567
7440.03209,0.18384
7441.96056,0.15772
7443.88902,0.13411
7445.81749,0.06397
7447.74596,-0.11558
7449.67443,-0.19121
7451.60290,0.11923
7453.53137,0.50603
7455.45984,0.53775
7457.38831,0.31481
7459.31677,0.01803
7461.24524,-0.12287
7463.17371,-0.09675
7465.10218,-0.02182
7467.03065,0.06169
7468.95912,0.05185
7470.88759,-0.03090
7472.81605,-0.08673
7474.74452,-0.12151
7476.67299,-0.19872
7478.60146,-0.29304
7480.52993,-0.38152
7482.45840,-0.46722
7484.38687,-0.48136
7486.31533,-0.36855
7488.24380,-0.08655
7490.17227,0.16912
7492.10074,0.25361
7494.02921,0.23630
7495.95768,0.11148
7497.88615,-0.02818
