399.19301,0.96370
401.12148,-0.47851
403.04995,0.76980
404.97842,0.93661
406.90689,0.02388
408.83536,-0.03537
410.76382,0.47141
412.69229,0.17010
414.62076,-0.12424
416.54923,0.34641
418.47770,0.43470
420.40617,-0.30507
422.33464,-0.09912
424.26311,0.39744
426.19157,0.08578
428.12004,-0.18263
430.04851,0.30653
431.97698,0.48529
433.90545,0.03723
435.83392,0.12992
437.76239,0.42421
439.69085,0.12245
441.61932,-0.26889
443.54779,0.08522
445.47626,0.34722
447.40473,0.01606
449.33320,-0.06972
451.26167,0.13995
453.19013,0.01827
455.11860,-0.16542
457.04707,0.08002
458.97554,0.20557
460.90401,-0.06178
462.83248,-0.06089
464.76095,0.19314
466.68942,0.13316
468.61788,-0.02680
470.54635,0.12645
472.47482,0.17481
474.40329,-0.24991
476.33176,-0.07287
478.26023,0.25642
480.18870,0.10069
482.11716,-0.08516
484.04563,0.14495
485.97410,0.18439
487.90257,-0.12118
489.83104,-0.06695
491.75951,0.20344
493.68798,0.11890
495.61645,0.00037
497.54491,0.14609
499.47338,0.13076
501.40185,-0.02865
503.33032,0.11469
505.25879,0.28174
507.18726,0.09756
509.11573,-0.02421
511.04419,0.10734
512.97266,0.08067
514.90113,-0.08253
516.82960,0.03455
518.75807,0.21526
520.68654,0.10568
522.61501,0.05756
524.54348,0.21222
526.47194,0.15306
528.40041,-0.03330
530.32888,0.06554
532.25735,0.21226
534.18582,0.10799
536.11429,0.07905
538.04276,0.24098
539.97122,0.19514
541.89969,0.03217
543.82816,0.10769
545.75663,0.19573
547.68510,0.09644
549.61357,0.12215
551.54204,0.27943
553.47051,0.23091
555.39897,0.10000
557.32744,0.17043
559.25591,0.23963
561.18438,0.12744
563.11285,0.10964
565.04132,0.20623
566.96979,0.12174
568.89825,0.03425
570.82672,0.16235
572.75519,0.21113
574.68366,0.07674
576.61213,0.07825
578.54060,0.18730
580.46907,0.12149
582.39754,0.03209
584.32600,0.11422
586.25447,0.13843
588.18294,0.04750
590.11141,0.09611
592.03988,0.19695
593.96835,0.12017
595.89682,0.07718
597.82528,0.17392
599.75375,0.14897
601.68222,0.02302
603.61069,0.07085
605.53916,0.16494
607.46763,0.10567
609.39610,0.08511
611.32456,0.17009
613.25303,0.15019
615.18150,0.06105
617.10997,0.09029
619.03844,0.12902
620.96691,0.06382
622.89538,0.06176
624.82385,0.15221
626.75231,0.13991
628.68078,0.07071
630.60925,0.12970
632.53772,0.17573
634.46619,0.09368
636.39466,0.08904
638.32313,0.15983
640.25159,0.11672
642.18006,0.06337
644.10853,0.14121
646.03700,0.17908
647.96547,0.09415
649.89394,0.08127
651.82241,0.14206
653.75088,0.09916
655.67934,0.06523
657.60781,0.16222
659.53628,0.19044
661.46475,0.10031
663.39322,0.10103
665.32169,0.16426
667.25016,0.11634
669.17862,0.06502
671.10709,0.13945
673.03556,0.13091
674.96403,0.08554
676.89250,0.13863
678.82097,0.17763
680.74944,0.09805
682.67791,0.07282
684.60637,0.15055
686.53484,0.14910
688.46331,0.09094
690.39178,0.12901
692.32025,0.16612
694.24872,0.12103
696.17719,0.13030
698.10565,0.18873
700.03412,0.15087
701.96259,0.09373
703.89106,0.13876
705.81953,0.16976
707.74800,0.11003
709.67647,0.07118
711.60494,0.08188
713.53340,0.08196
715.46187,0.09447
717.39034,0.14875
719.31881,0.16460
721.24728,0.12234
723.17575,0.13410
725.10422,0.17311
727.03268,0.13998
728.96115,0.11164
730.88962,0.15298
732.81809,0.15936
734.74656,0.11093
736.67503,0.11864
738.60350,0.15209
740.53197,0.12205
742.46043,0.10246
744.38890,0.13894
746.31737,0.12569
748.24584,0.07974
750.17431,0.12006
752.10278,0.17495
754.03125,0.14274
755.95971,0.12175
757.88818,0.15341
759.81665,0.13382
761.74512,0.09844
763.67359,0.14210
765.60206,0.17186
767.53053,0.11436
769.45900,0.09194
771.38746,0.14036
773.31593,0.14318
775.24440,0.11806
777.17287,0.14937
779.10134,0.16707
781.02981,0.12861
782.95828,0.13445
784.88674,0.17778
786.81521,0.14556
788.74368,0.09608
790.67215,0.13101
792.60062,0.15775
794.52909,0.11886
796.45756,0.12522
798.38602,0.16557
800.31449,0.13106
802.24296,0.09380
804.17143,0.13353
806.09990,0.14373
808.02837,0.10209
809.95684,0.12198
811.88531,0.16397
813.81377,0.13316
815.74224,0.11391
817.67071,0.15257
819.59918,0.13860
821.52765,0.09274
823.45612,0.12902
825.38459,0.17787
827.31305,0.14851
829.24152,0.12863
831.16999,0.14857
833.09846,0.12461
835.02693,0.08739
836.95540,0.11551
838.88387,0.14090
840.81234,0.11364
842.74080,0.12088
844.66927,0.16537
846.59774,0.14898
848.52621,0.11364
850.45468,0.13913
852.38315,0.15647
854.31162,0.12921
856.24008,0.13952
858.16855,0.17413
860.09702,0.14844
862.02549,0.11158
863.95396,0.12804
865.88243,0.12392
867.81090,0.08103
869.73937,0.09333
871.66783,0.13695
873.59630,0.12330
875.52477,0.11312
877.45324,0.15792
879.38171,0.16378
881.31018,0.12370
883.23865,0.13340
885.16711,0.15639
887.09558,0.12435
889.02405,0.11051
890.95252,0.14672
892.88099,0.15057
894.80946,0.13070
896.73793,0.15448
898.66640,0.17078
900.59486,0.13437
902.52333,0.12178
904.45180,0.15199
906.38027,0.14822
908.30874,0.13139
910.23721,0.15869
912.16568,0.17159
914.09414,0.14201
916.02261,0.14446
917.95108,0.17320
919.87955,0.15853
921.80802,0.13346
923.73649,0.15133
925.66496,0.15893
927.59343,0.12872
929.52189,0.12988
931.45036,0.15869
933.37883,0.14928
935.30730,0.13696
937.23577,0.16117
939.16424,0.16328
941.09271,0.13420
943.02117,0.13909
944.94964,0.16244
946.87811,0.14795
948.80658,0.13528
950.73505,0.15893
952.66352,0.16433
954.59199,0.14492
956.52045,0.15458
958.44892,0.16525
960.37739,0.13761
962.30586,0.12801
964.23433,0.15348
966.16280,0.14650
968.09127,0.12038
970.01974,0.13632
971.94820,0.15374
973.87667,0.13074
975.80514,0.12293
977.73361,0.14586
979.66208,0.14245
981.59055,0.13019
983.51902,0.15848
985.44748,0.17673
987.37595,0.15117
989.30442,0.14053
991.23289,0.15329
993.16136,0.14377
995.08983,0.13711
997.01830,0.16155
998.94677,0.16283
1000.87523,0.13361
1002.80370,0.14169
1004.73217,0.17165
1006.66064,0.16148
1008.58911,0.14515
1010.51758,0.16298
1012.44605,0.16553
1014.37451,0.14410
1016.30298,0.15811
1018.23145,0.18197
1020.15992,0.15783
1022.08839,0.13720
1024.01686,0.13552
1025.94533,0.05205
1027.87380,-0.04898
1029.80226,0.00379
1031.73073,0.11680
1033.65920,0.13777
1035.58767,0.13767
1037.51614,0.17049
1039.44461,0.16865
1041.37308,0.13731
1043.30154,0.14734
1045.23001,0.16687
1047.15848,0.14214
1049.08695,0.13185
1051.01542,0.16085
1052.94389,0.16132
1054.87236,0.14512
1056.80083,0.17095
1058.72929,0.18850
1060.65776,0.16112
1062.58623,0.16038
1064.51470,0.18970
1066.44317,0.17548
1068.37164,0.15191
1070.30011,0.17965
1072.22857,0.19677
1074.15704,0.16684
1076.08551,0.16189
1078.01398,0.18417
1079.94245,0.16763
1081.87092,0.14873
1083.79939,0.17699
1085.72786,0.18941
1087.65632,0.16357
1089.58479,0.16141
1091.51326,0.16954
1093.44173,0.14862
1095.37020,0.14605
1097.29867,0.18104
1099.22714,0.18391
1101.15560,0.15288
1103.08407,0.15962
1105.01254,0.18231
1106.94101,0.16788
1108.86948,0.16607
1110.79795,0.19756
1112.72642,0.19108
1114.65489,0.15793
1116.58335,0.16949
1118.51182,0.18926
1120.44029,0.16709
1122.36876,0.15692
1124.29723,0.17759
1126.22570,0.17306
1128.15417,0.15534
1130.08263,0.16600
1132.01110,0.16898
1133.93957,0.14629
1135.86804,0.14729
1137.79651,0.16932
1139.72498,0.16088
1141.65345,0.14454
1143.58191,0.15970
1145.51038,0.16780
1147.43885,0.15175
1149.36732,0.15584
1151.29579,0.17044
1153.22426,0.15815
1155.15273,0.14952
1157.08120,0.16605
1159.00966,0.16578
1160.93813,0.14755
1162.86660,0.15830
1164.79507,0.18446
1166.72354,0.18317
1168.65201,0.17660
1170.58048,0.18714
1172.50894,0.17961
1174.43741,0.15701
1176.36588,0.16450
1178.29435,0.18166
1180.22282,0.17153
1182.15129,0.16546
1184.07976,0.17809
1186.00823,0.17279
1187.93669,0.15889
1189.86516,0.17006
1191.79363,0.18127
1193.72210,0.16848
1195.65057,0.16300
1197.57904,0.17513
1199.50751,0.17143
1201.43597,0.16042
1203.36444,0.17219
1205.29291,0.18001
1207.22138,0.16550
1209.14985,0.16385
1211.07832,0.17505
1213.00679,0.16483
1214.93526,0.14969
1216.86372,0.15668
1218.79219,0.16152
1220.72066,0.15283
1222.64913,0.15759
1224.57760,0.16922
1226.50607,0.15843
1228.43454,0.14686
1230.36300,0.15845
1232.29147,0.16304
1234.21994,0.15255
1236.14841,0.15716
1238.07688,0.16712
1240.00535,0.15824
1241.93382,0.15101
1243.86229,0.16132
1245.79075,0.16292
1247.71922,0.15175
1249.64769,0.15668
1251.57616,0.16645
1253.50463,0.15552
1255.43310,0.14899
1257.36157,0.16038
1259.29003,0.15908
1261.21850,0.15001
1263.14697,0.16431
1265.07544,0.17970
1267.00391,0.16710
1268.93238,0.15607
1270.86085,0.16516
1272.78932,0.16462
1274.71778,0.15417
1276.64625,0.16111
1278.57472,0.16920
1280.50319,0.15833
1282.43166,0.15586
1284.36013,0.16988
1286.28860,0.17063
1288.21706,0.16459
1290.14553,0.17436
1292.07400,0.17896
1294.00247,0.16543
1295.93094,0.16184
1297.85941,0.16831
1299.78788,0.15377
1301.71634,0.13049
1303.64481,0.12718
1305.57328,0.13434
1307.50175,0.14387
1309.43022,0.16272
1311.35869,0.17747
1313.28716,0.17353
1315.21563,0.16881
1317.14409,0.17523
1319.07256,0.17233
1321.00103,0.16130
1322.92950,0.16754
1324.85797,0.17569
1326.78644,0.16275
1328.71491,0.15362
1330.64337,0.16034
1332.57184,0.15946
1334.50031,0.15305
1336.42878,0.16205
1338.35725,0.17488
1340.28572,0.16485
1342.21419,0.16002
1344.14266,0.17489
1346.07112,0.17305
1347.99959,0.16140
1349.92806,0.16842
1351.85653,0.17323
1353.78500,0.16410
1355.71347,0.16616
1357.64194,0.17842
1359.57040,0.17548
1361.49887,0.16839
1363.42734,0.17813
1365.35581,0.18065
1367.28428,0.16951
1369.21275,0.17106
1371.14122,0.18329
1373.06969,0.18149
1374.99815,0.17516
1376.92662,0.18221
1378.85509,0.18355
1380.78356,0.17309
1382.71203,0.17343
1384.64050,0.18562
1386.56897,0.18638
1388.49743,0.18346
1390.42590,0.19275
1392.35437,0.19478
1394.28284,0.18607
1396.21131,0.19150
1398.13978,0.20017
1400.06825,0.18554
1401.99672,0.17431
1403.92518,0.18397
1405.85365,0.18635
1407.78212,0.17515
1409.71059,0.17844
1411.63906,0.18670
1413.56753,0.17825
1415.49600,0.17318
1417.42446,0.18480
1419.35293,0.18371
1421.28140,0.17445
1423.20987,0.18584
1425.13834,0.19422
1427.06681,0.18420
1428.99528,0.17985
1430.92375,0.18469
1432.85221,0.17876
1434.78068,0.17430
1436.70915,0.19015
1438.63762,0.19631
1440.56609,0.18399
1442.49456,0.18303
1444.42303,0.19125
1446.35149,0.18454
1448.27996,0.17679
1450.20843,0.18945
1452.13690,0.19455
1454.06537,0.18432
1455.99384,0.19322
1457.92231,0.21497
1459.85077,0.19723
1461.77924,0.18789
1463.70771,0.20139
1465.63618,0.20082
1467.56465,0.18280
1469.49312,0.18748
1471.42159,0.21020
1473.35006,0.20873
1475.27852,0.19661
1477.20699,0.20007
1479.13546,0.19606
1481.06393,0.18743
1482.99240,0.19099
1484.92087,0.19686
1486.84934,0.19156
1488.77780,0.18964
1490.70627,0.19621
1492.63474,0.18726
1494.56321,0.17788
1496.49168,0.19036
1498.42015,0.20467
1500.34862,0.19952
1502.27709,0.20186
1504.20555,0.22033
1506.13402,0.23164
1508.06249,0.21429
1509.99096,0.20878
1511.91943,0.20040
1513.84790,0.18678
1515.77637,0.19283
1517.70483,0.21326
1519.63330,0.21147
1521.56177,0.20190
1523.49024,0.21149
1525.41871,0.20989
1527.34718,0.19138
1529.27565,0.18844
1531.20412,0.20248
1533.13258,0.20595
1535.06105,0.19944
1536.98952,0.21063
1538.91799,0.22645
1540.84646,0.21280
1542.77493,0.20791
1544.70340,0.20887
1546.63186,0.19487
1548.56033,0.19255
1550.48880,0.20669
1552.41727,0.20486
1554.34574,0.18669
1556.27421,0.19030
1558.20268,0.21524
1560.13115,0.19841
1562.05961,0.19050
1563.98808,0.20156
1565.91655,0.19902
1567.84502,0.18891
1569.77349,0.19921
1571.70196,0.20546
1573.63043,0.19378
1575.55889,0.19220
1577.48736,0.20036
1579.41583,0.18853
1581.34430,0.17675
1583.27277,0.18207
1585.20124,0.18654
1587.12971,0.17989
1589.05818,0.17976
1590.98664,0.18438
1592.91511,0.17679
1594.84358,0.16972
1596.77205,0.17735
1598.70052,0.18039
1600.62899,0.17283
1602.55746,0.17431
1604.48592,0.18319
1606.41439,0.18295
1608.34286,0.18178
1610.27133,0.18965
1612.19980,0.19267
1614.12827,0.19082
1616.05674,0.20261
1617.98521,0.21125
1619.91367,0.19827
1621.84214,0.19366
1623.77061,0.20396
1625.69908,0.20112
1627.62755,0.19101
1629.55602,0.19582
1631.48449,0.20363
1633.41295,0.20133
1635.34142,0.20616
1637.26989,0.22130
1639.19836,0.21211
1641.12683,0.19991
1643.05530,0.20821
1644.98377,0.22551
1646.91223,0.22030
1648.84070,0.20957
1650.76917,0.21946
1652.69764,0.22068
1654.62611,0.20315
1656.55458,0.20921
1658.48305,0.21519
1660.41152,0.20932
1662.33998,0.20641
1664.26845,0.20949
1666.19692,0.20298
1668.12539,0.19841
1670.05386,0.21115
1671.98233,0.21340
1673.91080,0.19792
1675.83926,0.19448
1677.76773,0.20329
1679.69620,0.20388
1681.62467,0.20656
1683.55314,0.22798
1685.48161,0.22682
1687.41008,0.20298
1689.33855,0.19733
1691.26701,0.20062
1693.19548,0.19861
1695.12395,0.20343
1697.05242,0.22568
1698.98089,0.23022
1700.90936,0.20502
1702.83783,0.19947
1704.76629,0.20585
1706.69476,0.19699
1708.62323,0.19042
1710.55170,0.19751
1712.48017,0.20027
1714.40864,0.19804
1716.33711,0.21058
1718.26558,0.21567
1720.19404,0.19690
1722.12251,0.18975
1724.05098,0.19329
1725.97945,0.18794
1727.90792,0.18149
1729.83639,0.19209
1731.76486,0.20520
1733.69332,0.19598
1735.62179,0.18835
1737.55026,0.19670
1739.47873,0.19750
1741.40720,0.19409
1743.33567,0.20458
1745.26414,0.21289
1747.19261,0.20477
1749.12107,0.20047
1751.04954,0.20249
1752.97801,0.19173
1754.90648,0.18524
1756.83495,0.19244
1758.76342,0.19617
1760.69189,0.19385
1762.62035,0.19755
1764.54882,0.19805
1766.47729,0.18954
1768.40576,0.18762
1770.33423,0.20199
1772.26270,0.20855
1774.19117,0.19555
1776.11964,0.19210
1778.04810,0.19606
1779.97657,0.19363
1781.90504,0.19496
1783.83351,0.20429
1785.76198,0.20083
1787.69045,0.19027
1789.61892,0.19567
1791.54738,0.20515
1793.47585,0.19708
1795.40432,0.19482
1797.33279,0.20307
1799.26126,0.20007
1801.18973,0.19011
1803.11820,0.19302
1805.04666,0.19627
1806.97513,0.19115
1808.90360,0.19313
1810.83207,0.19991
1812.76054,0.19264
1814.68901,0.18199
1816.61748,0.17951
1818.54595,0.17779
1820.47441,0.17880
1822.40288,0.19039
1824.33135,0.20237
1826.25982,0.20011
1828.18829,0.19805
1830.11676,0.20704
1832.04523,0.20561
1833.97369,0.19403
1835.90216,0.19127
1837.83063,0.19357
1839.75910,0.18921
1841.68757,0.18954
1843.61604,0.20320
1845.54451,0.20797
1847.47298,0.19899
1849.40144,0.19665
1851.32991,0.19640
1853.25838,0.18880
1855.18685,0.18626
1857.11532,0.19373
1859.04379,0.19521
1860.97226,0.18917
1862.90072,0.19039
1864.82919,0.19646
1866.75766,0.19601
1868.68613,0.19415
1870.61460,0.19485
1872.54307,0.18792
1874.47154,0.18104
1876.40001,0.18719
1878.32847,0.19421
1880.25694,0.18998
1882.18541,0.18767
1884.11388,0.19148
1886.04235,0.18952
1887.97082,0.18631
1889.89929,0.19189
1891.82775,0.19544
1893.75622,0.19173
1895.68469,0.19175
1897.61316,0.19383
1899.54163,0.18957
1901.47010,0.18801
1903.39857,0.19536
1905.32704,0.19813
1907.25550,0.19267
1909.18397,0.19183
1911.11244,0.19481
1913.04091,0.19166
1914.96938,0.18956
1916.89785,0.19772
1918.82632,0.20214
1920.75478,0.19582
1922.68325,0.19529
1924.61172,0.19713
1926.54019,0.18990
1928.46866,0.18577
1930.39713,0.19130
1932.32560,0.19285
1934.25407,0.18903
1936.18253,0.19143
1938.11100,0.19328
1940.03947,0.18689
1941.96794,0.18602
1943.89641,0.19337
1945.82488,0.19050
1947.75335,0.18211
1949.68181,0.18605
1951.61028,0.19376
1953.53875,0.19168
1955.46722,0.19137
1957.39569,0.19713
1959.32416,0.19584
1961.25263,0.19148
1963.18110,0.19514
1965.10956,0.19787
1967.03803,0.19224
1968.96650,0.18956
1970.89497,0.19125
1972.82344,0.18868
1974.75191,0.18975
1976.68038,0.19783
1978.60884,0.19535
1980.53731,0.18412
1982.46578,0.18550
1984.39425,0.19401
1986.32272,0.19225
1988.25119,0.18944
1990.17966,0.19665
1992.10812,0.19958
1994.03659,0.19280
1995.96506,0.19167
1997.89353,0.19479
1999.82200,0.19149
2001.75047,0.18948
2003.67894,0.19459
2005.60741,0.19541
2007.53587,0.19156
2009.46434,0.19424
2011.39281,0.19728
2013.32128,0.19163
2015.24975,0.18774
2017.17822,0.19004
2019.10669,0.18678
2021.03515,0.18225
2022.96362,0.18938
2024.89209,0.19714
2026.82056,0.19168
2028.74903,0.18699
2030.67750,0.19378
2032.60597,0.19660
2034.53444,0.19022
2036.46290,0.18911
2038.39137,0.19086
2040.31984,0.18658
2042.24831,0.18697
2044.17678,0.19366
2046.10525,0.19311
2048.03372,0.18989
2049.96218,0.19440
2051.89065,0.19653
2053.81912,0.18976
2055.74759,0.18828
2057.67606,0.19448
2059.60453,0.19434
2061.53300,0.19100
2063.46147,0.19393
2065.38993,0.19334
2067.31840,0.18620
2069.24687,0.18740
2071.17534,0.19411
2073.10381,0.19229
2075.03228,0.18925
2076.96075,0.19470
2078.88921,0.19685
2080.81768,0.19154
2082.74615,0.19253
2084.67462,0.19653
2086.60309,0.19227
2088.53156,0.18867
2090.46003,0.19138
2092.38850,0.19032
2094.31696,0.18674
2096.24543,0.19091
2098.17390,0.19658
2100.10237,0.19442
2102.03084,0.19272
2103.95931,0.19591
2105.88778,0.19467
2107.81624,0.19072
2109.74471,0.19274
2111.67318,0.19420
2113.60165,0.19025
2115.53012,0.19076
2117.45859,0.19531
2119.38706,0.19334
2121.31553,0.19024
2123.24399,0.19485
2125.17246,0.19807
2127.10093,0.19270
2129.02940,0.18867
2130.95787,0.18903
2132.88634,0.18809
2134.81481,0.18932
2136.74327,0.19264
2138.67174,0.19077
2140.60021,0.18573
2142.52868,0.18823
2144.45715,0.19488
2146.38562,0.19179
2148.31409,0.18717
2150.24255,0.19141
2152.17102,0.19081
2154.09949,0.18253
2156.02796,0.18356
2157.95643,0.19098
2159.88490,0.19014
2161.81337,0.18971
2163.74184,0.19689
2165.67030,0.19717
2167.59877,0.18968
2169.52724,0.18952
2171.45571,0.19208
2173.38418,0.18664
2175.31265,0.18495
2177.24112,0.19228
2179.16958,0.19268
2181.09805,0.18619
2183.02652,0.18746
2184.95499,0.19148
2186.88346,0.18888
2188.81193,0.18825
2190.74040,0.19299
2192.66887,0.19088
2194.59733,0.18308
2196.52580,0.18360
2198.45427,0.18808
2200.38274,0.18740
2202.31121,0.19062
2204.23968,0.19818
2206.16815,0.19638
2208.09661,0.19072
2210.02508,0.19325
2211.95355,0.19512
2213.88202,0.19138
2215.81049,0.19367
2217.73896,0.19976
2219.66743,0.19650
2221.59590,0.19173
2223.52436,0.19632
2225.45283,0.19824
2227.38130,0.19167
2229.30977,0.18962
2231.23824,0.19215
2233.16671,0.19016
2235.09518,0.19142
2237.02364,0.19901
2238.95211,0.19858
2240.88058,0.19068
2242.80905,0.18995
2244.73752,0.19289
2246.66599,0.18960
2248.59446,0.18905
2250.52293,0.19592
2252.45139,0.19558
2254.37986,0.18750
2256.30833,0.18833
2258.23680,0.19491
2260.16527,0.19508
2262.09374,0.19451
2264.02221,0.19547
2265.95067,0.19047
2267.87914,0.18572
2269.80761,0.19082
2271.73608,0.19613
2273.66455,0.19346
2275.59302,0.19303
2277.52149,0.19695
2279.44996,0.19477
2281.37842,0.19034
2283.30689,0.19202
2285.23536,0.19109
2287.16383,0.18364
2289.09230,0.18306
2291.02077,0.18959
2292.94924,0.18833
2294.87770,0.18376
2296.80617,0.19053
2298.73464,0.19789
2300.66311,0.19328
2302.59158,0.18850
2304.52005,0.18736
2306.44852,0.18010
2308.37699,0.17378
2310.30545,0.17848
2312.23392,0.17927
2314.16239,0.17059
2316.09086,0.17231
2318.01933,0.17933
2319.94780,0.17140
2321.87627,0.16363
2323.80473,0.17091
2325.73320,0.16468
2327.66167,0.14430
2329.59014,0.15568
2331.51861,0.18252
2333.44708,0.17059
2335.37555,0.15775
2337.30401,0.17695
2339.23248,0.17491
2341.16095,0.14865
2343.08942,0.15320
2345.01789,0.16310
2346.94636,0.15374
2348.87483,0.15554
2350.80330,0.16544
2352.73176,0.15336
2354.66023,0.13160
2356.58870,0.15851
2358.51717,0.17891
2360.44564,0.14467
2362.37411,0.15419
2364.30258,0.19172
2366.23104,0.16765
2368.15951,0.14492
2370.08798,0.17198
2372.01645,0.18425
2373.94492,0.17111
2375.87339,0.17231
2377.80186,0.18028
2379.73033,0.17764
2381.65879,0.17861
2383.58726,0.18971
2385.51573,0.19546
2387.44420,0.19227
2389.37267,0.19234
2391.30114,0.19401
2393.22961,0.18947
2395.15807,0.18782
2397.08654,0.19368
2399.01501,0.19420
2400.94348,0.18780
2402.87195,0.18795
2404.80042,0.19392
2406.72889,0.19312
2408.65736,0.18872
2410.58582,0.19047
2412.51429,0.19253
2414.44276,0.19103
2416.37123,0.19385
2418.29970,0.19709
2420.22817,0.19243
2422.15664,0.18976
2424.08510,0.19470
2426.01357,0.19590
2427.94204,0.19317
2429.87051,0.19487
2431.79898,0.19484
2433.72745,0.18899
2435.65592,0.18832
2437.58439,0.19302
2439.51285,0.19150
2441.44132,0.18898
2443.36979,0.19413
2445.29826,0.19433
2447.22673,0.18555
2449.15520,0.18476
2451.08367,0.19092
2453.01213,0.19058
2454.94060,0.19054
2456.86907,0.19705
2458.79754,0.19862
2460.72601,0.19460
2462.65448,0.19690
2464.58295,0.20036
2466.51142,0.19562
2468.43988,0.19225
2470.36835,0.19613
2472.29682,0.19655
2474.22529,0.19123
2476.15376,0.19115
2478.08223,0.19519
2480.01070,0.19384
2481.93916,0.19364
2483.86763,0.19994
2485.79610,0.20161
2487.72457,0.19696
2489.65304,0.19663
2491.58151,0.19794
2493.50998,0.19288
2495.43844,0.19055
2497.36691,0.19657
2499.29538,0.19785
2501.22385,0.19284
2503.15232,0.19317
2505.08079,0.19506
2507.00926,0.19305
2508.93773,0.19500
2510.86619,0.19817
2512.79466,0.19292
2514.72313,0.18743
2516.65160,0.19032
2518.58007,0.19213
2520.50854,0.18844
2522.43701,0.18950
2524.36547,0.19531
2526.29394,0.19558
2528.22241,0.19390
2530.15088,0.19636
2532.07935,0.19480
2534.00782,0.18940
2535.93629,0.19208
2537.86476,0.19814
2539.79322,0.19524
2541.72169,0.19035
2543.65016,0.19297
2545.57863,0.19581
2547.50710,0.19569
2549.43557,0.19941
2551.36404,0.20335
2553.29250,0.20121
2555.22097,0.20028
2557.14944,0.20379
2559.07791,0.20007
2561.00638,0.19032
2562.93485,0.19069
2564.86332,0.19679
2566.79179,0.19278
2568.72025,0.18745
2570.64872,0.19198
2572.57719,0.19459
2574.50566,0.19174
2576.43413,0.19402
2578.36260,0.19601
2580.29107,0.19143
2582.21953,0.19181
2584.14800,0.19876
2586.07647,0.19923
2588.00494,0.19471
2589.93341,0.19584
2591.86188,0.19634
2593.79035,0.18888
2595.71882,0.18652
2597.64728,0.19521
2599.57575,0.20103
2601.50422,0.20118
2603.43269,0.20303
2605.36116,0.19987
2607.28963,0.19023
2609.21810,0.19022
2611.14656,0.19787
2613.07503,0.19585
2615.00350,0.19054
2616.93197,0.19362
2618.86044,0.19477
2620.78891,0.19147
2622.71738,0.19697
2624.64585,0.20496
2626.57431,0.20071
2628.50278,0.19539
2630.43125,0.20001
2632.35972,0.20186
2634.28819,0.19715
2636.21666,0.19631
2638.14513,0.19719
2640.07359,0.19397
2642.00206,0.19301
2643.93053,0.19773
2645.85900,0.19946
2647.78747,0.19811
2649.71594,0.20130
2651.64441,0.20208
2653.57288,0.19543
2655.50134,0.19344
2657.42981,0.19846
2659.35828,0.19793
2661.28675,0.19432
2663.21522,0.19758
2665.14369,0.19847
2667.07216,0.19249
2669.00062,0.19242
2670.92909,0.19719
2672.85756,0.19591
2674.78603,0.19348
2676.71450,0.19835
2678.64297,0.20290
2680.57144,0.19851
2682.49990,0.19501
2684.42837,0.19822
2686.35684,0.19698
2688.28531,0.19346
2690.21378,0.19876
2692.14225,0.20363
2694.07072,0.19944
2695.99919,0.19842
2697.92765,0.20216
2699.85612,0.19832
2701.78459,0.19577
2703.71306,0.20500
2705.64153,0.21036
2707.57000,0.20299
2709.49847,0.19710
2711.42693,0.19770
2713.35540,0.19595
2715.28387,0.19579
2717.21234,0.20266
2719.14081,0.20471
2721.06928,0.19843
2722.99775,0.19826
2724.92622,0.20362
2726.85468,0.20317
2728.78315,0.20365
2730.71162,0.20890
2732.64009,0.20700
2734.56856,0.19992
2736.49703,0.20013
2738.42550,0.20313
2740.35396,0.20030
2742.28243,0.19981
2744.21090,0.20584
2746.13937,0.20727
2748.06784,0.20488
2749.99631,0.20748
2751.92478,0.20761
2753.85325,0.20220
2755.78171,0.20412
2757.71018,0.21068
2759.63865,0.20646
2761.56712,0.19941
2763.49559,0.20305
2765.42406,0.20509
2767.35253,0.20041
2769.28099,0.20365
2771.20946,0.21027
2773.13793,0.20497
2775.06640,0.19684
2776.99487,0.19909
2778.92334,0.20235
2780.85181,0.20069
2782.78028,0.20314
2784.70874,0.20738
2786.63721,0.20674
2788.56568,0.20817
2790.49415,0.21433
2792.42262,0.21593
2794.35109,0.21235
2796.27956,0.21209
2798.20802,0.21299
2800.13649,0.20971
2802.06496,0.20992
2803.99343,0.21576
2805.92190,0.21569
2807.85037,0.21087
2809.77884,0.21143
2811.70731,0.21131
2813.63577,0.20426
2815.56424,0.20030
2817.49271,0.20200
2819.42118,0.20057
2821.34965,0.19923
2823.27812,0.20448
2825.20659,0.20834
2827.13505,0.20538
2829.06352,0.20567
2830.99199,0.21259
2832.92046,0.21217
2834.84893,0.20425
2836.77740,0.20524
2838.70587,0.21183
2840.63433,0.21181
2842.56280,0.21213
2844.49127,0.21485
2846.41974,0.21050
2848.34821,0.20823
2850.27668,0.21529
2852.20515,0.21578
2854.13362,0.20874
2856.06208,0.21108
2857.99055,0.21840
2859.91902,0.21474
2861.84749,0.20610
2863.77596,0.20503
2865.70443,0.20634
2867.63290,0.20416
2869.56136,0.20470
2871.48983,0.20674
2873.41830,0.20391
2875.34677,0.20480
2877.27524,0.21303
2879.20371,0.21488
2881.13218,0.20818
2883.06065,0.20661
2884.98911,0.20931
2886.91758,0.20511
2888.84605,0.20023
2890.77452,0.20333
2892.70299,0.20604
2894.63146,0.20316
2896.55993,0.20437
2898.48839,0.21134
2900.41686,0.21313
2902.34533,0.20893
2904.27380,0.20439
2906.20227,0.19874
2908.13074,0.19614
2910.05921,0.20398
2911.98768,0.21116
2913.91614,0.20464
2915.84461,0.19680
2917.77308,0.19732
2919.70155,0.19626
2921.63002,0.19466
2923.55849,0.19686
2925.48696,0.18844
2927.41542,0.17587
2929.34389,0.18640
2931.27236,0.20695
2933.20083,0.21016
2935.12930,0.20298
2937.05777,0.19863
2938.98624,0.19794
2940.91471,0.20062
2942.84317,0.20692
2944.77164,0.20750
2946.70011,0.19338
2948.62858,0.18412
2950.55705,0.19571
2952.48552,0.20663
2954.41399,0.20369
2956.34245,0.19878
2958.27092,0.19601
2960.19939,0.19395
2962.12786,0.19910
2964.05633,0.20866
2965.98480,0.20578
2967.91327,0.19492
2969.84174,0.19744
2971.77020,0.20661
2973.69867,0.20647
2975.62714,0.20320
2977.55561,0.20131
2979.48408,0.19910
2981.41255,0.20251
2983.34102,0.21062
2985.26948,0.20949
2987.19795,0.19811
2989.12642,0.19939
2991.05489,0.21671
2992.98336,0.22465
2994.91183,0.22024
2996.84030,0.21602
2998.76877,0.21037
3000.69723,0.20635
3002.62570,0.21218
3004.55417,0.21980
3006.48264,0.21528
3008.41111,0.20377
3010.33958,0.19316
3012.26805,0.17157
3014.19651,0.13490
3016.12498,0.11064
3018.05345,0.12663
3019.98192,0.16841
3021.91039,0.20194
3023.83886,0.21599
3025.76733,0.21256
3027.69579,0.20401
3029.62426,0.20653
3031.55273,0.21244
3033.48120,0.20900
3035.40967,0.20509
3037.33814,0.20783
3039.26661,0.20983
3041.19508,0.20885
3043.12354,0.21136
3045.05201,0.21211
3046.98048,0.20458
3048.90895,0.20287
3050.83742,0.21046
3052.76589,0.21055
3054.69436,0.20151
3056.62282,0.19533
3058.55129,0.19643
3060.47976,0.20089
3062.40823,0.20800
3064.33670,0.21125
3066.26517,0.20030
3068.19364,0.19262
3070.12211,0.20501
3072.05057,0.21574
3073.97904,0.20766
3075.90751,0.19872
3077.83598,0.20159
3079.76445,0.20387
3081.69292,0.20229
3083.62139,0.19847
3085.54985,0.18950
3087.47832,0.18710
3089.40679,0.19665
3091.33526,0.20117
3093.26373,0.18879
3095.19220,0.17989
3097.12067,0.19452
3099.04914,0.21227
3100.97760,0.21325
3102.90607,0.20539
3104.83454,0.20183
3106.76301,0.20470
3108.69148,0.20924
3110.61995,0.21057
3112.54842,0.20513
3114.47688,0.20054
3116.40535,0.20417
3118.33382,0.20726
3120.26229,0.20078
3122.19076,0.19826
3124.11923,0.21131
3126.04770,0.22002
3127.97617,0.21734
3129.90463,0.21793
3131.83310,0.22063
3133.76157,0.22004
3135.69004,0.21900
3137.61851,0.21609
3139.54698,0.20584
3141.47545,0.19733
3143.40391,0.20332
3145.33238,0.21200
3147.26085,0.21080
3149.18932,0.21026
3151.11779,0.21636
3153.04626,0.21946
3154.97473,0.21873
3156.90320,0.22019
3158.83166,0.21918
3160.76013,0.21315
3162.68860,0.21148
3164.61707,0.21447
3166.54554,0.21299
3168.47401,0.21365
3170.40248,0.22077
3172.33094,0.21849
3174.25941,0.20751
3176.18788,0.20623
3178.11635,0.21213
3180.04482,0.21205
3181.97329,0.21075
3183.90176,0.21495
3185.83022,0.21494
3187.75869,0.20871
3189.68716,0.20909
3191.61563,0.21459
3193.54410,0.21644
3195.47257,0.21933
3197.40104,0.22446
3199.32951,0.22266
3201.25797,0.21663
3203.18644,0.21819
3205.11491,0.22315
3207.04338,0.22002
3208.97185,0.21576
3210.90032,0.21704
3212.82879,0.21467
3214.75725,0.21039
3216.68572,0.21465
3218.61419,0.21817
3220.54266,0.21298
3222.47113,0.21187
3224.39960,0.21475
3226.32807,0.21053
3228.25654,0.20903
3230.18500,0.21841
3232.11347,0.22251
3234.04194,0.21435
3235.97041,0.21093
3237.89888,0.21351
3239.82735,0.20894
3241.75582,0.20524
3243.68428,0.21062
3245.61275,0.21322
3247.54122,0.20856
3249.46969,0.20799
3251.39816,0.21261
3253.32663,0.21278
3255.25510,0.21314
3257.18357,0.21903
3259.11203,0.21757
3261.04050,0.20705
3262.96897,0.20510
3264.89744,0.21244
3266.82591,0.21300
3268.75438,0.20793
3270.68285,0.20839
3272.61131,0.21016
3274.53978,0.20798
3276.46825,0.20912
3278.39672,0.21291
3280.32519,0.21129
3282.25366,0.21053
3284.18213,0.21500
3286.11060,0.21377
3288.03906,0.20813
3289.96753,0.21067
3291.89600,0.21478
3293.82447,0.21016
3295.75294,0.20835
3297.68141,0.21287
3299.60988,0.20906
3301.53834,0.20170
3303.46681,0.20490
3305.39528,0.20946
3307.32375,0.20683
3309.25222,0.20741
3311.18069,0.21131
3313.10916,0.20780
3315.03763,0.20640
3316.96609,0.21735
3318.89456,0.22320
3320.82303,0.21567
3322.75150,0.21236
3324.67997,0.21459
3326.60844,0.21308
3328.53691,0.21548
3330.46537,0.22406
3332.39384,0.22586
3334.32231,0.21858
3336.25078,0.21426
3338.17925,0.21483
3340.10772,0.21547
3342.03619,0.22033
3343.96466,0.22620
3345.89312,0.22228
3347.82159,0.21260
3349.75006,0.20949
3351.67853,0.21036
3353.60700,0.20560
3355.53547,0.20357
3357.46394,0.21056
3359.39240,0.21331
3361.32087,0.21017
3363.24934,0.21055
3365.17781,0.20751
3367.10628,0.19812
3369.03475,0.19691
3370.96322,0.20284
3372.89168,0.20340
3374.82015,0.20355
3376.74862,0.21249
3378.67709,0.22080
3380.60556,0.21782
3382.53403,0.21379
3384.46250,0.21436
3386.39097,0.20931
3388.31943,0.20244
3390.24790,0.20719
3392.17637,0.21605
3394.10484,0.21351
3396.03331,0.20847
3397.96178,0.21174
3399.89025,0.21374
3401.81871,0.21131
3403.74718,0.21303
3405.67565,0.21501
3407.60412,0.21072
3409.53259,0.20789
3411.46106,0.20706
3413.38953,0.20096
3415.31800,0.19695
3417.24646,0.20134
3419.17493,0.20227
3421.10340,0.19800
3423.03187,0.20200
3424.96034,0.20718
3426.88881,0.20225
3428.81728,0.19790
3430.74574,0.20161
3432.67421,0.20245
3434.60268,0.19979
3436.53115,0.20471
3438.45962,0.20950
3440.38809,0.20345
3442.31656,0.19624
3444.24503,0.19652
3446.17349,0.19866
3448.10196,0.19926
3450.03043,0.19897
3451.95890,0.19460
3453.88737,0.18994
3455.81584,0.19435
3457.74431,0.20279
3459.67277,0.20317
3461.60124,0.19954
3463.52971,0.19938
3465.45818,0.19412
3467.38665,0.18203
3469.31512,0.18105
3471.24359,0.19215
3473.17206,0.19379
3475.10052,0.18716
3477.02899,0.18728
3478.95746,0.18825
3480.88593,0.18460
3482.81440,0.18659
3484.74287,0.19082
3486.67134,0.18291
3488.59980,0.17368
3490.52827,0.17954
3492.45674,0.18747
3494.38521,0.18581
3496.31368,0.18546
3498.24215,0.18728
3500.17062,0.18187
3502.09909,0.17727
3504.02755,0.17977
3505.95602,0.18075
3507.88449,0.17882
3509.81296,0.17899
3511.74143,0.17852
3513.66990,0.17419
3515.59837,0.17500
3517.52683,0.18111
3519.45530,0.17876
3521.38377,0.17221
3523.31224,0.17458
3525.24071,0.17901
3527.16918,0.17791
3529.09765,0.17826
3531.02611,0.18103
3532.95458,0.17913
3534.88305,0.17577
3536.81152,0.17980
3538.73999,0.18289
3540.66846,0.17428
3542.59693,0.16388
3544.52540,0.16156
3546.45386,0.16423
3548.38233,0.16831
3550.31080,0.17293
3552.23927,0.17362
3554.16774,0.16997
3556.09621,0.16913
3558.02468,0.16789
3559.95314,0.15980
3561.88161,0.15604
3563.81008,0.16563
3565.73855,0.17279
3567.66702,0.16432
3569.59549,0.15855
3571.52396,0.16032
3573.45243,0.15944
3575.38089,0.15697
3577.30936,0.15707
3579.23783,0.15403
3581.16630,0.14892
3583.09477,0.15326
3585.02324,0.16357
3586.95171,0.16556
3588.88017,0.16083
3590.80864,0.15955
3592.73711,0.15784
3594.66558,0.15569
3596.59405,0.15980
3598.52252,0.16571
3600.45099,0.16429
3602.37946,0.15849
3604.30792,0.15504
3606.23639,0.15233
3608.16486,0.14861
3610.09333,0.14933
3612.02180,0.15388
3613.95027,0.15518
3615.87874,0.15556
3617.80720,0.15827
3619.73567,0.15709
3621.66414,0.15206
3623.59261,0.14777
3625.52108,0.14509
3627.44955,0.14883
3629.37802,0.15712
3631.30649,0.15509
3633.23495,0.14928
3635.16342,0.15038
3637.09189,0.15624
3639.02036,0.15416
3640.94883,0.14454
3642.87730,0.14290
3644.80577,0.15206
3646.73423,0.16223
3648.66270,0.17057
3650.59117,0.16921
3652.51964,0.15272
3654.44811,0.14276
3656.37658,0.14689
3658.30505,0.14571
3660.23352,0.13373
3662.16198,0.12691
3664.09045,0.12804
3666.01892,0.12975
3667.94739,0.13362
3669.87586,0.14448
3671.80433,0.14984
3673.73280,0.14432
3675.66126,0.13756
3677.58973,0.13456
3679.51820,0.13139
3681.44667,0.13002
3683.37514,0.13241
3685.30361,0.13433
3687.23208,0.13225
3689.16055,0.13270
3691.08901,0.13712
3693.01748,0.13525
3694.94595,0.13306
3696.87442,0.13449
3698.80289,0.13458
3700.73136,0.13239
3702.65983,0.13596
3704.58829,0.14356
3706.51676,0.14532
3708.44523,0.14587
3710.37370,0.15069
3712.30217,0.14517
3714.23064,0.13350
3716.15911,0.13043
3718.08757,0.13257
3720.01604,0.13573
3721.94451,0.13807
3723.87298,0.13965
3725.80145,0.13841
3727.72992,0.13166
3729.65839,0.12994
3731.58686,0.13859
3733.51532,0.14600
3735.44379,0.15112
3737.37226,0.15855
3739.30073,0.15556
3741.22920,0.15062
3743.15767,0.15555
3745.08614,0.15914
3747.01460,0.14995
3748.94307,0.14832
3750.87154,0.15727
3752.80001,0.15354
3754.72848,0.14736
3756.65695,0.15164
3758.58542,0.15465
3760.51389,0.14311
3762.44235,0.12941
3764.37082,0.12504
3766.29929,0.12651
3768.22776,0.12745
3770.15623,0.12575
3772.08470,0.12128
3774.01317,0.11806
3775.94163,0.12232
3777.87010,0.12988
3779.79857,0.12559
3781.72704,0.11832
3783.65551,0.12254
3785.58398,0.12707
3787.51245,0.12527
3789.44092,0.12682
3791.36938,0.13222
3793.29785,0.13239
3795.22632,0.12969
3797.15479,0.13322
3799.08326,0.14034
3801.01173,0.14718
3802.94020,0.15257
3804.86866,0.15587
3806.79713,0.15371
3808.72560,0.14276
3810.65407,0.13501
3812.58254,0.13425
3814.51101,0.13605
3816.43948,0.13605
3818.36795,0.13362
3820.29641,0.12972
3822.22488,0.12598
3824.15335,0.12823
3826.08182,0.13035
3828.01029,0.12859
3829.93876,0.13048
3831.86723,0.13357
3833.79569,0.13010
3835.72416,0.13080
3837.65263,0.14490
3839.58110,0.15144
3841.50957,0.14227
3843.43804,0.13573
3845.36651,0.13154
3847.29498,0.12531
3849.22344,0.12512
3851.15191,0.13951
3853.08038,0.16017
3855.00885,0.15644
3856.93732,0.14389
3858.86579,0.13250
3860.79426,0.12242
3862.72272,0.12165
3864.65119,0.12788
3866.57966,0.12893
3868.50813,0.12976
3870.43660,0.13639
3872.36507,0.13332
3874.29354,0.11841
3876.22200,0.11490
3878.15047,0.12526
3880.07894,0.13222
3882.00741,0.12849
3883.93588,0.12307
3885.86435,0.11989
3887.79282,0.11948
3889.72129,0.12372
3891.64975,0.12820
3893.57822,0.12252
3895.50669,0.11493
3897.43516,0.11463
3899.36363,0.11575
3901.29210,0.11068
3903.22057,0.11142
3905.14903,0.12078
3907.07750,0.12274
3909.00597,0.11944
3910.93444,0.11524
3912.86291,0.11007
3914.79138,0.11170
3916.71985,0.12167
3918.64832,0.12409
3920.57678,0.11575
3922.50525,0.10916
3924.43372,0.10662
3926.36219,0.10417
3928.29066,0.10275
3930.21913,0.10449
3932.14760,0.10589
3934.07606,0.10620
3936.00453,0.11075
3937.93300,0.11784
3939.86147,0.12286
3941.78994,0.12541
3943.71841,0.12178
3945.64688,0.11142
3947.57535,0.10835
3949.50381,0.11906
3951.43228,0.12849
3953.36075,0.12758
3955.28922,0.12163
3957.21769,0.11598
3959.14616,0.11226
3961.07463,0.11104
3963.00309,0.11352
3964.93156,0.11519
3966.86003,0.11086
3968.78850,0.10723
3970.71697,0.10894
3972.64544,0.10755
3974.57391,0.10109
3976.50238,0.09916
3978.43084,0.10246
3980.35931,0.10352
3982.28778,0.10400
3984.21625,0.10660
3986.14472,0.10656
3988.07319,0.10592
3990.00166,0.10842
3991.93012,0.10706
3993.85859,0.09976
3995.78706,0.09503
3997.71553,0.09467
3999.64400,0.09417
4001.57247,0.09587
4003.50094,0.10284
4005.42941,0.10797
4007.35787,0.10868
4009.28634,0.11163
4011.21481,0.11420
4013.14328,0.10960
4015.07175,0.10458
4017.00022,0.10688
4018.92869,0.10696
4020.85715,0.09845
4022.78562,0.09177
4024.71409,0.09212
4026.64256,0.09647
4028.57103,0.10383
4030.49950,0.11046
4032.42797,0.11106
4034.35644,0.10898
4036.28490,0.11045
4038.21337,0.11267
4040.14184,0.10814
4042.07031,0.09844
4043.99878,0.09137
4045.92725,0.08996
4047.85572,0.09669
4049.78418,0.10777
4051.71265,0.11093
4053.64112,0.10621
4055.56959,0.10417
4057.49806,0.10654
4059.42653,0.10660
4061.35500,0.10155
4063.28346,0.09710
4065.21193,0.09509
4067.14040,0.09285
4069.06887,0.09499
4070.99734,0.10096
4072.92581,0.10155
4074.85428,0.09636
4076.78275,0.09067
4078.71121,0.08363
4080.63968,0.07651
4082.56815,0.08024
4084.49662,0.09460
4086.42509,0.10272
4088.35356,0.09942
4090.28203,0.09364
4092.21049,0.08836
4094.13896,0.08487
4096.06743,0.08897
4097.99590,0.09642
4099.92437,0.09856
4101.85284,0.09880
4103.78131,0.10080
4105.70978,0.09950
4107.63824,0.09503
4109.56671,0.09841
4111.49518,0.10618
4113.42365,0.10038
4115.35212,0.08980
4117.28059,0.09065
4119.20906,0.08970
4121.13752,0.08120
4123.06599,0.08107
4124.99446,0.09066
4126.92293,0.09938
4128.85140,0.10251
4130.77987,0.09671
4132.70834,0.08552
4134.63681,0.08051
4136.56527,0.08524
4138.49374,0.08886
4140.42221,0.08483
4142.35068,0.08540
4144.27915,0.09224
4146.20762,0.08928
4148.13609,0.07839
4150.06455,0.07424
4151.99302,0.07625
4153.92149,0.07743
4155.84996,0.07910
4157.77843,0.08068
4159.70690,0.07808
4161.63537,0.07569
4163.56384,0.07976
4165.49230,0.08535
4167.42077,0.08500
4169.34924,0.08036
4171.27771,0.07536
4173.20618,0.07267
4175.13465,0.07512
4177.06312,0.07993
4178.99158,0.08016
4180.92005,0.07802
4182.84852,0.08116
4184.77699,0.08410
4186.70546,0.08048
4188.63393,0.07992
4190.56240,0.08562
4192.49087,0.08886
4194.41933,0.09115
4196.34780,0.09217
4198.27627,0.08452
4200.20474,0.07328
4202.13321,0.06961
4204.06168,0.07426
4205.99015,0.07884
4207.91861,0.08028
4209.84708,0.08055
4211.77555,0.07752
4213.70402,0.07130
4215.63249,0.06657
4217.56096,0.06606
4219.48943,0.06657
4221.41789,0.06842
4223.34636,0.07591
4225.27483,0.07897
4227.20330,0.06964
4229.13177,0.06539
4231.06024,0.07471
4232.98871,0.08217
4234.91718,0.08386
4236.84564,0.08623
4238.77411,0.08664
4240.70258,0.08057
4242.63105,0.07372
4244.55952,0.07349
4246.48799,0.07280
4248.41646,0.06885
4250.34492,0.06969
4252.27339,0.07175
4254.20186,0.07025
4256.13033,0.06827
4258.05880,0.06563
4259.98727,0.06098
4261.91574,0.05686
4263.84421,0.05527
4265.77267,0.05376
4267.70114,0.05231
4269.62961,0.05547
4271.55808,0.06284
4273.48655,0.06903
4275.41502,0.07212
4277.34349,0.07184
4279.27195,0.06730
4281.20042,0.06162
4283.12889,0.05926
4285.05736,0.05863
4286.98583,0.05143
4288.91430,0.03909
4290.84277,0.03387
4292.77124,0.03694
4294.69970,0.04470
4296.62817,0.05520
4298.55664,0.06203
4300.48511,0.06393
4302.41358,0.06492
4304.34205,0.06497
4306.27052,0.06178
4308.19898,0.05780
4310.12745,0.05543
4312.05592,0.05331
4313.98439,0.05396
4315.91286,0.05927
4317.84133,0.06416
4319.76980,0.06215
4321.69827,0.05423
4323.62673,0.05104
4325.55520,0.05372
4327.48367,0.05125
4329.41214,0.04969
4331.34061,0.05746
4333.26908,0.06334
4335.19755,0.06337
4337.12601,0.06271
4339.05448,0.05966
4340.98295,0.05607
4342.91142,0.05912
4344.83989,0.06435
4346.76836,0.06056
4348.69683,0.05316
4350.62530,0.05126
4352.55376,0.04920
4354.48223,0.04472
4356.41070,0.04398
4358.33917,0.04441
4360.26764,0.04059
4362.19611,0.03612
4364.12458,0.03844
4366.05304,0.04634
4367.98151,0.04951
4369.90998,0.04683
4371.83845,0.04496
4373.76692,0.04429
4375.69539,0.04484
4377.62386,0.04782
4379.55232,0.04669
4381.48079,0.03987
4383.40926,0.03653
4385.33773,0.03620
4387.26620,0.03679
4389.19467,0.04069
4391.12314,0.04429
4393.05161,0.04824
4394.98007,0.05129
4396.90854,0.04722
4398.83701,0.04103
4400.76548,0.03990
4402.69395,0.04273
4404.62242,0.04457
4406.55089,0.04087
4408.47935,0.03366
4410.40782,0.03207
4412.33629,0.03645
4414.26476,0.03628
4416.19323,0.03512
4418.12170,0.04287
4420.05017,0.04609
4421.97864,0.03268
4423.90710,0.02017
4425.83557,0.02202
4427.76404,0.03192
4429.69251,0.04710
4431.62098,0.05849
4433.54945,0.05131
4435.47792,0.03512
4437.40638,0.02766
4439.33485,0.02655
4441.26332,0.02445
4443.19179,0.02353
4445.12026,0.02228
4447.04873,0.01701
4448.97720,0.01593
4450.90567,0.02177
4452.83413,0.02489
4454.76260,0.02796
4456.69107,0.03510
4458.61954,0.03411
4460.54801,0.02302
4462.47648,0.01782
4464.40495,0.02327
4466.33341,0.02840
4468.26188,0.02980
4470.19035,0.03390
4472.11882,0.03726
4474.04729,0.03210
4475.97576,0.02486
4477.90423,0.02377
4479.83270,0.01981
4481.76116,0.00972
4483.68963,0.01114
4485.61810,0.02300
4487.54657,0.02474
4489.47504,0.02219
4491.40351,0.02535
4493.33198,0.02211
4495.26044,0.01469
4497.18891,0.01817
4499.11738,0.02819
4501.04585,0.03212
4502.97432,0.03239
4504.90279,0.03400
4506.83126,0.02964
4508.75973,0.02154
4510.68819,0.02224
4512.61666,0.02481
4514.54513,0.02003
4516.47360,0.01788
4518.40207,0.02022
4520.33054,0.01623
4522.25901,0.00783
4524.18747,0.00711
4526.11594,0.01404
4528.04441,0.01816
4529.97288,0.01928
4531.90135,0.02373
4533.82982,0.02989
4535.75829,0.03297
4537.68676,0.03330
4539.61522,0.02516
4541.54369,0.00553
4543.47216,-0.00088
4545.40063,0.01513
4547.32910,0.02472
4549.25757,0.01687
4551.18604,0.00948
4553.11450,0.01151
4555.04297,0.01883
4556.97144,0.02775
4558.89991,0.02566
4560.82838,0.00666
4562.75685,-0.00531
4564.68532,0.00536
4566.61378,0.01852
4568.54225,0.01925
4570.47072,0.01632
4572.39919,0.01217
4574.32766,0.00304
4576.25613,-0.00380
4578.18460,0.00117
4580.11307,0.01216
4582.04153,0.01433
4583.97000,0.01149
4585.89847,0.01447
4587.82694,0.01978
4589.75541,0.02385
4591.68388,0.02601
4593.61235,0.02396
4595.54081,0.02250
4597.46928,0.02587
4599.39775,0.02702
4601.32622,0.02332
4603.25469,0.02035
4605.18316,0.01696
4607.11163,0.01228
4609.04010,0.00920
4610.96856,0.00672
4612.89703,0.00144
4614.82550,-0.00714
4616.75397,-0.00593
4618.68244,0.01237
4620.61091,0.02719
4622.53938,0.02784
4624.46784,0.02531
4626.39631,0.01976
4628.32478,0.01148
4630.25325,0.01037
4632.18172,0.00967
4634.11019,0.00276
4636.03866,0.00428
4637.96713,0.01358
4639.89559,0.01440
4641.82406,0.01118
4643.75253,0.01362
4645.68100,0.01078
4647.60947,0.00068
4649.53794,0.00230
4651.46641,0.01278
4653.39487,0.01252
4655.32334,0.00151
4657.25181,-0.00720
4659.18028,-0.00089
4661.10875,0.01912
4663.03722,0.03116
4664.96569,0.02472
4666.89416,0.01025
4668.82262,-0.00391
4670.75109,-0.00722
4672.67956,0.00361
4674.60803,0.01082
4676.53650,0.00933
4678.46497,0.01109
4680.39344,0.01410
4682.32190,0.00937
4684.25037,-0.00143
4686.17884,-0.00694
4688.10731,0.00345
4690.03578,0.01892
4691.96425,0.02188
4693.89272,0.01489
4695.82119,0.00932
4697.74965,0.01128
4699.67812,0.01073
4701.60659,0.00646
4703.53506,0.01704
4705.46353,0.03309
4707.39200,0.03248
4709.32047,0.02478
4711.24893,0.02038
4713.17740,0.01003
4715.10587,0.00283
4717.03434,0.01225
4718.96281,0.01968
4720.89128,0.01425
4722.81975,0.00336
4724.74821,-0.01043
4726.67668,-0.01420
4728.60515,0.00042
4730.53362,0.01335
4732.46209,0.00570
4734.39056,-0.01433
4736.31903,-0.02251
4738.24750,-0.00800
4740.17596,0.01155
4742.10443,0.01697
4744.03290,0.01214
4745.96137,0.00819
4747.88984,0.00675
4749.81831,0.00686
4751.74678,0.01131
4753.67524,0.01412
4755.60371,0.00959
4757.53218,0.00503
4759.46065,-0.00176
4761.38912,-0.01209
4763.31759,-0.00934
4765.24606,0.00249
4767.17453,0.00203
4769.10299,-0.00911
4771.03146,-0.01703
4772.95993,-0.02106
4774.88840,-0.02155
4776.81687,-0.01103
4778.74534,0.00327
4780.67381,0.00548
4782.60227,-0.00125
4784.53074,-0.00376
4786.45921,0.00421
4788.38768,0.01781
4790.31615,0.02857
4792.24462,0.03681
4794.17309,0.03658
4796.10156,0.01602
4798.03002,-0.00291
4799.95849,0.00453
4801.88696,0.02009
4803.81543,0.02629
4805.74390,0.02465
4807.67237,0.01597
4809.60084,0.01320
4811.52930,0.02365
4813.45777,0.03016
4815.38624,0.02071
4817.31471,0.01228
4819.24318,0.02149
4821.17165,0.03005
4823.10012,0.02445
4825.02859,0.01679
4826.95705,0.01071
4828.88552,0.00679
4830.81399,0.00783
4832.74246,0.00748
4834.67093,0.00625
4836.59940,0.01093
4838.52787,0.01822
4840.45633,0.02031
4842.38480,0.01411
4844.31327,0.00446
4846.24174,0.00157
4848.17021,0.00557
4850.09868,0.00959
4852.02715,0.01626
4853.95562,0.02447
4855.88408,0.02830
4857.81255,0.03065
4859.74102,0.02609
4861.66949,0.00927
4863.59796,-0.00444
4865.52643,-0.00612
4867.45490,-0.00023
4869.38336,0.00621
4871.31183,0.00510
4873.24030,0.00054
4875.16877,0.00659
4877.09724,0.02196
4879.02571,0.02639
4880.95418,0.01662
4882.88265,0.01282
4884.81111,0.01945
4886.73958,0.02417
4888.66805,0.02002
4890.59652,0.01274
4892.52499,0.01111
4894.45346,0.01410
4896.38193,0.01828
4898.31039,0.02131
4900.23886,0.01543
4902.16733,0.00264
4904.09580,-0.00082
4906.02427,0.00811
4907.95274,0.01454
4909.88121,0.00805
4911.80967,-0.00493
4913.73814,-0.00765
4915.66661,-0.00231
4917.59508,-0.00166
4919.52355,-0.00054
4921.45202,0.00257
4923.38049,0.00154
4925.30896,0.00509
4927.23742,0.01311
4929.16589,0.01943
4931.09436,0.02776
4933.02283,0.02365
4934.95130,-0.00141
4936.87977,-0.01724
4938.80824,-0.01342
4940.73670,-0.01435
4942.66517,-0.01388
4944.59364,0.00573
4946.52211,0.02187
4948.45058,0.01323
4950.37905,0.00296
4952.30752,0.01120
4954.23599,0.01714
4956.16445,0.00720
4958.09292,-0.00281
4960.02139,-0.00182
4961.94986,0.00384
4963.87833,-0.00133
4965.80680,-0.01048
4967.73527,-0.00095
4969.66373,0.01180
4971.59220,0.00262
4973.52067,-0.01201
4975.44914,-0.01048
4977.37761,0.00075
4979.30608,0.00949
4981.23455,0.01081
4983.16302,0.01140
4985.09148,0.01879
4987.01995,0.02377
4988.94842,0.02779
4990.87689,0.03829
4992.80536,0.03972
4994.73383,0.02115
4996.66230,-0.00339
4998.59076,-0.01165
5000.51923,-0.00232
5002.44770,0.01347
5004.37617,0.02473
5006.30464,0.01641
5008.23311,-0.00148
5010.16158,-0.00440
5012.09005,0.01028
5014.01851,0.02733
5015.94698,0.03094
5017.87545,0.02119
5019.80392,0.01392
5021.73239,0.01538
5023.66086,0.01704
5025.58933,0.01776
5027.51779,0.01751
5029.44626,0.01196
5031.37473,0.00547
5033.30320,0.00320
5035.23167,0.00724
5037.16014,0.01918
5039.08861,0.03399
5041.01708,0.03252
5042.94554,0.01033
5044.87401,-0.00225
5046.80248,0.00527
5048.73095,0.01301
5050.65942,0.02127
5052.58789,0.03085
5054.51636,0.02715
5056.44482,0.01772
5058.37329,0.01984
5060.30176,0.02947
5062.23023,0.03917
5064.15870,0.04636
5066.08717,0.04802
5068.01564,0.05240
5069.94410,0.05286
5071.87257,0.03384
5073.80104,0.01700
5075.72951,0.01995
5077.65798,0.03107
5079.58645,0.03940
5081.51492,0.03435
5083.44339,0.02536
5085.37185,0.03152
5087.30032,0.04176
5089.22879,0.03531
5091.15726,0.02099
5093.08573,0.01944
5095.01420,0.01765
5096.94267,0.00369
5098.87113,0.00555
5100.79960,0.02242
5102.72807,0.02729
5104.65654,0.03209
5106.58501,0.04083
5108.51348,0.03739
5110.44195,0.03318
5112.37042,0.04479
5114.29888,0.06016
5116.22735,0.05739
5118.15582,0.04090
5120.08429,0.02594
5122.01276,0.00945
5123.94123,-0.00778
5125.86970,-0.00891
5127.79816,0.00021
5129.72663,-0.00651
5131.65510,-0.01398
5133.58357,0.00011
5135.51204,0.01619
5137.44051,0.01874
5139.36898,0.01369
5141.29745,0.01311
5143.22591,0.02692
5145.15438,0.04307
5147.08285,0.03938
5149.01132,0.02713
5150.93979,0.02870
5152.86826,0.03270
5154.79673,0.02244
5156.72519,0.00735
5158.65366,0.01048
5160.58213,0.02794
5162.51060,0.03671
5164.43907,0.03687
5166.36754,0.04216
5168.29601,0.04880
5170.22448,0.04572
5172.15294,0.04203
5174.08141,0.04333
5176.00988,0.03900
5177.93835,0.03088
5179.86682,0.02159
5181.79529,0.01213
5183.72376,0.01438
5185.65222,0.03183
5187.58069,0.04470
5189.50916,0.04199
5191.43763,0.04007
5193.36610,0.04154
5195.29457,0.03040
5197.22304,0.01780
5199.15151,0.01691
5201.07997,0.01733
5203.00844,0.02853
5204.93691,0.05356
5206.86538,0.06545
5208.79385,0.06059
5210.72232,0.05852
5212.65079,0.05539
5214.57925,0.04244
5216.50772,0.03474
5218.43619,0.04724
5220.36466,0.06430
5222.29313,0.05842
5224.22160,0.03322
5226.15007,0.02541
5228.07854,0.03717
5230.00700,0.03819
5231.93547,0.03285
5233.86394,0.03153
5235.79241,0.03117
5237.72088,0.03584
5239.64935,0.04229
5241.57782,0.04620
5243.50628,0.04894
5245.43475,0.04434
5247.36322,0.03619
5249.29169,0.03232
5251.22016,0.03935
5253.14863,0.05292
5255.07710,0.05071
5257.00556,0.04047
5258.93403,0.04435
5260.86250,0.04865
5262.79097,0.03981
5264.71944,0.03841
5266.64791,0.04819
5268.57638,0.04306
5270.50485,0.03020
5272.43331,0.03766
5274.36178,0.05378
5276.29025,0.04919
5278.21872,0.03041
5280.14719,0.02308
5282.07566,0.03607
5284.00413,0.04983
5285.93259,0.04004
5287.86106,0.01994
5289.78953,0.01817
5291.71800,0.04052
5293.64647,0.05772
5295.57494,0.05671
5297.50341,0.05786
5299.43188,0.06143
5301.36034,0.05656
5303.28881,0.05207
5305.21728,0.05582
5307.14575,0.06027
5309.07422,0.05044
5311.00269,0.03127
5312.93116,0.02484
5314.85962,0.03842
5316.78809,0.05272
5318.71656,0.04764
5320.64503,0.02651
5322.57350,0.00180
5324.50197,-0.00004
5326.43044,0.03532
5328.35891,0.06833
5330.28737,0.07240
5332.21584,0.07443
5334.14431,0.08812
5336.07278,0.08307
5338.00125,0.05219
5339.92972,0.03975
5341.85819,0.04154
5343.78665,0.03885
5345.71512,0.05334
5347.64359,0.08329
5349.57206,0.10592
5351.50053,0.10369
5353.42900,0.08288
5355.35747,0.06060
5357.28594,0.03608
5359.21440,0.02011
5361.14287,0.02091
5363.07134,0.03150
5364.99981,0.04639
5366.92828,0.06789
5368.85675,0.09425
5370.78522,0.09774
5372.71368,0.06935
5374.64215,0.03961
5376.57062,0.03582
5378.49909,0.05741
5380.42756,0.07589
5382.35603,0.07119
5384.28450,0.05515
5386.21297,0.05779
5388.14143,0.07214
5390.06990,0.06689
5391.99837,0.05065
5393.92684,0.05417
5395.85531,0.07163
5397.78378,0.08398
5399.71225,0.09051
5401.64071,0.07766
5403.56918,0.05272
5405.49765,0.04153
5407.42612,0.04409
5409.35459,0.06058
5411.28306,0.09358
5413.21153,0.10383
5415.13999,0.06367
5417.06846,0.03057
5418.99693,0.03626
5420.92540,0.04892
5422.85387,0.05008
5424.78234,0.05171
5426.71081,0.04553
5428.63928,0.02124
5430.56774,0.01257
5432.49621,0.03112
5434.42468,0.04546
5436.35315,0.04653
5438.28162,0.06012
5440.21009,0.08080
5442.13856,0.06892
5444.06702,0.03664
5445.99549,0.03059
5447.92396,0.04641
5449.85243,0.03956
5451.78090,0.02383
5453.70937,0.04109
5455.63784,0.06482
5457.56631,0.06696
5459.49477,0.08477
5461.42324,0.11179
5463.35171,0.09987
5465.28018,0.07224
5467.20865,0.06401
5469.13712,0.06545
5471.06559,0.07470
5472.99405,0.08328
5474.92252,0.07729
5476.85099,0.07428
5478.77946,0.08099
5480.70793,0.08263
5482.63640,0.08006
5484.56487,0.08660
5486.49334,0.10276
5488.42180,0.09788
5490.35027,0.06454
5492.27874,0.05786
5494.20721,0.08539
5496.13568,0.07826
5498.06415,0.03608
5499.99262,0.02236
5501.92108,0.03945
5503.84955,0.04363
5505.77802,0.04111
5507.70649,0.04765
5509.63496,0.06339
5511.56343,0.08939
5513.49190,0.11127
5515.42037,0.11960
5517.34883,0.13274
5519.27730,0.14410
5521.20577,0.11915
5523.13424,0.07617
5525.06271,0.06122
5526.99118,0.06406
5528.91965,0.06102
5530.84811,0.07266
5532.77658,0.09761
5534.70505,0.08961
5536.63352,0.06620
5538.56199,0.07607
5540.49046,0.08726
5542.41893,0.07044
5544.34740,0.06650
5546.27586,0.09111
5548.20433,0.09925
5550.13280,0.08129
5552.06127,0.07419
5553.98974,0.08560
5555.91821,0.10497
5557.84668,0.12212
5559.77514,0.12282
5561.70361,0.12026
5563.63208,0.12283
5565.56055,0.11245
5567.48902,0.08475
5569.41749,0.05428
5571.34596,0.05224
5573.27443,0.08471
5575.20289,0.10400
5577.13136,0.08804
5579.05983,0.06946
5580.98830,0.07417
5582.91677,0.07949
5584.84524,0.07425
5586.77371,0.08185
5588.70217,0.08755
5590.63064,0.07955
5592.55911,0.07725
5594.48758,0.07790
5596.41605,0.07576
5598.34452,0.07645
5600.27299,0.08184
5602.20145,0.08092
5604.12992,0.06745
5606.05839,0.06015
5607.98686,0.05964
5609.91533,0.05541
5611.84380,0.06231
5613.77227,0.08188
5615.70074,0.09803
5617.62920,0.10406
5619.55767,0.10650
5621.48614,0.11210
5623.41461,0.11091
5625.34308,0.10939
5627.27155,0.12678
5629.20002,0.13808
5631.12848,0.11384
5633.05695,0.09293
5634.98542,0.10376
5636.91389,0.09706
5638.84236,0.05361
5640.77083,0.01837
5642.69930,0.01851
5644.62777,0.04471
5646.55623,0.06743
5648.48470,0.07088
5650.41317,0.07436
5652.34164,0.08211
5654.27011,0.07512
5656.19858,0.07342
5658.12705,0.10101
5660.05551,0.12964
5661.98398,0.11813
5663.91245,0.07300
5665.84092,0.04340
5667.76939,0.04684
5669.69786,0.06628
5671.62633,0.08512
5673.55480,0.08515
5675.48326,0.07207
5677.41173,0.07252
5679.34020,0.09051
5681.26867,0.09734
5683.19714,0.07967
5685.12561,0.08236
5687.05408,0.11284
5688.98254,0.10114
5690.91101,0.06108
5692.83948,0.06545
5694.76795,0.08853
5696.69642,0.09013
5698.62489,0.10115
5700.55336,0.12561
5702.48183,0.10691
5704.41029,0.05197
5706.33876,0.02971
5708.26723,0.04876
5710.19570,0.06395
5712.12417,0.06850
5714.05264,0.09062
5715.98111,0.10687
5717.90957,0.10523
5719.83804,0.10823
5721.76651,0.08295
5723.69498,0.04890
5725.62345,0.06223
5727.55192,0.08201
5729.48039,0.07134
5731.40886,0.06435
5733.33732,0.07344
5735.26579,0.09076
5737.19426,0.10621
5739.12273,0.10043
5741.05120,0.08132
5742.97967,0.06733
5744.90814,0.07774
5746.83660,0.11058
5748.76507,0.11666
5750.69354,0.09392
5752.62201,0.09282
5754.55048,0.10508
5756.47895,0.10046
5758.40742,0.10184
5760.33588,0.11940
5762.26435,0.11325
5764.19282,0.09272
5766.12129,0.09505
5768.04976,0.09155
5769.97823,0.07896
5771.90670,0.08861
5773.83517,0.08385
5775.76363,0.04849
5777.69210,0.05026
5779.62057,0.10217
5781.54904,0.12440
5783.47751,0.09461
5785.40598,0.08692
5787.33445,0.12061
5789.26291,0.12095
5791.19138,0.06773
5793.11985,0.01698
5795.04832,0.00483
5796.97679,0.02038
5798.90526,0.04114
5800.83373,0.06552
5802.76220,0.08765
5804.69066,0.09436
5806.61913,0.09501
5808.54760,0.08222
5810.47607,0.05460
5812.40454,0.05178
5814.33301,0.06639
5816.26148,0.06011
5818.18994,0.05894
5820.11841,0.08481
5822.04688,0.10935
5823.97535,0.13702
5825.90382,0.16400
5827.83229,0.15873
5829.76076,0.13324
5831.68923,0.12511
5833.61769,0.14250
5835.54616,0.14866
5837.47463,0.13528
5839.40310,0.13018
5841.33157,0.12463
5843.26004,0.11973
5845.18851,0.14527
5847.11697,0.17357
5849.04544,0.14273
5850.97391,0.09883
5852.90238,0.10973
5854.83085,0.11883
5856.75932,0.09293
5858.68779,0.09065
5860.61626,0.12557
5862.54472,0.12302
5864.47319,0.06608
5866.40166,0.05443
5868.33013,0.10861
5870.25860,0.12831
5872.18707,0.10186
5874.11554,0.08338
5876.04400,0.07349
5877.97247,0.06941
5879.90094,0.08006
5881.82941,0.08923
5883.75788,0.07846
5885.68635,0.07492
5887.61482,0.11265
5889.54329,0.14144
5891.47175,0.11844
5893.40022,0.08691
5895.32869,0.06691
5897.25716,0.03792
5899.18563,0.02755
5901.11410,0.06845
5903.04257,0.12684
5904.97103,0.17363
5906.89950,0.20673
5908.82797,0.18751
5910.75644,0.11490
5912.68491,0.08776
5914.61338,0.14453
5916.54185,0.18476
5918.47032,0.17052
5920.39878,0.15998
5922.32725,0.14356
5924.25572,0.10871
5926.18419,0.08885
5928.11266,0.06633
5930.04113,0.03804
5931.96960,0.05135
5933.89806,0.09386
5935.82653,0.08857
5937.75500,0.03522
5939.68347,0.02087
5941.61194,0.07723
5943.54041,0.13907
5945.46888,0.15048
5947.39734,0.13883
5949.32581,0.11634
5951.25428,0.07497
5953.18275,0.06461
5955.11122,0.07684
5957.03969,0.06815
5958.96816,0.07339
5960.89663,0.09992
5962.82509,0.09733
5964.75356,0.07334
5966.68203,0.05014
5968.61050,0.01359
5970.53897,-0.00056
5972.46744,0.05404
5974.39591,0.10364
5976.32437,0.09443
5978.25284,0.09667
5980.18131,0.11209
5982.10978,0.07986
5984.03825,0.03155
5985.96672,0.01844
5987.89519,0.02043
5989.82366,0.02208
5991.75212,0.04344
5993.68059,0.07526
5995.60906,0.08329
5997.53753,0.08760
5999.46600,0.12387
6001.39447,0.14752
6003.32294,0.11033
6005.25140,0.06954
6007.17987,0.08733
6009.10834,0.12372
6011.03681,0.11995
6012.96528,0.08655
6014.89375,0.06782
6016.82222,0.06659
6018.75069,0.06837
6020.67915,0.06812
6022.60762,0.04858
6024.53609,0.01065
6026.46456,-0.00281
6028.39303,0.02195
6030.32150,0.03335
6032.24997,0.03244
6034.17843,0.06742
6036.10690,0.10000
6038.03537,0.08457
6039.96384,0.06789
6041.89231,0.07756
6043.82078,0.07610
6045.74925,0.04551
6047.67772,0.04208
6049.60618,0.08132
6051.53465,0.08329
6053.46312,0.06949
6055.39159,0.09189
6057.32006,0.09556
6059.24853,0.08791
6061.17700,0.12512
6063.10546,0.14331
6065.03393,0.06092
6066.96240,-0.02216
6068.89087,0.00770
6070.81934,0.07821
6072.74781,0.09894
6074.67628,0.10093
6076.60475,0.09644
6078.53321,0.06017
6080.46168,0.04015
6082.39015,0.04916
6084.31862,0.03493
6086.24709,0.04933
6088.17556,0.12352
6090.10403,0.15248
6092.03249,0.12528
6093.96096,0.11266
6095.88943,0.09457
6097.81790,0.04575
6099.74637,0.02156
6101.67484,0.02759
6103.60331,0.00313
6105.53177,-0.01811
6107.46024,0.01745
6109.38871,0.05163
6111.31718,0.07555
6113.24565,0.13592
6115.17412,0.15717
6117.10259,0.07621
6119.03106,-0.02526
6120.95952,-0.03716
6122.88799,0.02517
6124.81646,0.08627
6126.74493,0.11648
6128.67340,0.13579
6130.60187,0.12610
6132.53034,0.08549
6134.45880,0.08499
6136.38727,0.10711
6138.31574,0.08458
6140.24421,0.06063
6142.17268,0.05721
6144.10115,0.04100
6146.02962,0.05257
6147.95809,0.07964
6149.88655,0.05400
6151.81502,0.01390
6153.74349,0.04100
6155.67196,0.08344
6157.60043,0.09478
6159.52890,0.11998
6161.45737,0.13712
6163.38583,0.09458
6165.31430,0.04277
6167.24277,0.04574
6169.17124,0.07383
6171.09971,0.09177
6173.02818,0.11034
6174.95665,0.10112
6176.88512,0.04965
6178.81358,0.04294
6180.74205,0.09404
6182.67052,0.08179
6184.59899,0.02776
6186.52746,0.07045
6188.45593,0.15660
6190.38440,0.14395
6192.31286,0.10741
6194.24133,0.13163
6196.16980,0.15061
6198.09827,0.12241
6200.02674,0.10457
6201.95521,0.11905
6203.88368,0.12382
6205.81215,0.13267
6207.74061,0.16529
6209.66908,0.15951
6211.59755,0.14459
6213.52602,0.19442
6215.45449,0.21363
6217.38296,0.14379
6219.31143,0.11113
6221.23989,0.15585
6223.16836,0.15970
6225.09683,0.09448
6227.02530,0.05192
6228.95377,0.04752
6230.88224,0.04233
6232.81071,0.05627
6234.73918,0.08123
6236.66764,0.06375
6238.59611,0.05811
6240.52458,0.11035
6242.45305,0.14675
6244.38152,0.12430
6246.30999,0.08979
6248.23846,0.08497
6250.16692,0.09647
6252.09539,0.10314
6254.02386,0.09878
6255.95233,0.08293
6257.88080,0.08313
6259.80927,0.09921
6261.73774,0.08244
6263.66621,0.01913
6265.59467,-0.01404
6267.52314,0.03452
6269.45161,0.07435
6271.38008,0.07565
6273.30855,0.11306
6275.23702,0.16158
6277.16549,0.13646
6279.09395,0.11338
6281.02242,0.14051
6282.95089,0.13130
6284.87936,0.08953
6286.80783,0.08469
6288.73630,0.09572
6290.66477,0.09415
6292.59323,0.09724
6294.52170,0.08869
6296.45017,0.03485
6298.37864,-0.02363
6300.30711,-0.00955
6302.23558,0.04741
6304.16405,0.04827
6306.09252,0.06025
6308.02098,0.13250
6309.94945,0.13684
6311.87792,0.06295
6313.80639,0.05754
6315.73486,0.12150
6317.66333,0.13136
6319.59180,0.08190
6321.52026,0.05603
6323.44873,0.05877
6325.37720,0.06256
6327.30567,0.08102
6329.23414,0.10130
6331.16261,0.10385
6333.09108,0.12667
6335.01955,0.14766
6336.94801,0.10356
6338.87648,0.05108
6340.80495,0.08530
6342.73342,0.14333
6344.66189,0.13454
6346.59036,0.12449
6348.51883,0.14307
6350.44729,0.14009
6352.37576,0.14723
6354.30423,0.15005
6356.23270,0.11589
6358.16117,0.11208
6360.08964,0.15956
6362.01811,0.15545
6363.94658,0.07643
6365.87504,0.04677
6367.80351,0.11325
6369.73198,0.15426
6371.66045,0.13075
6373.58892,0.10300
6375.51739,0.05868
6377.44586,-0.00838
6379.37432,-0.02482
6381.30279,0.00286
6383.23126,-0.02258
6385.15973,-0.05621
6387.08820,0.01998
6389.01667,0.11353
6390.94514,0.10096
6392.87361,0.07732
6394.80207,0.12658
6396.73054,0.12401
6398.65901,0.08844
6400.58748,0.11881
6402.51595,0.16653
6404.44442,0.17846
6406.37289,0.21191
6408.30135,0.22789
6410.22982,0.12654
6412.15829,0.01694
6414.08676,0.03133
6416.01523,0.10140
6417.94370,0.13092
6419.87217,0.13664
6421.80064,0.13420
6423.72910,0.09811
6425.65757,0.09925
6427.58604,0.15965
6429.51451,0.15147
6431.44298,0.05293
6433.37145,-0.01035
6435.29992,-0.03640
6437.22838,-0.01812
6439.15685,0.09793
6441.08532,0.17736
6443.01379,0.11517
6444.94226,-0.00189
6446.87073,-0.04244
6448.79920,-0.02338
6450.72766,-0.01963
6452.65613,0.00328
6454.58460,0.02456
6456.51307,-0.02431
6458.44154,-0.02804
6460.37001,0.06163
6462.29848,0.06967
6464.22695,-0.02727
6466.15541,-0.05432
6468.08388,0.02274
6470.01235,0.10283
6471.94082,0.16048
6473.86929,0.21167
6475.79776,0.21624
6477.72623,0.17960
6479.65469,0.17749
6481.58316,0.17190
6483.51163,0.07635
6485.44010,-0.00047
6487.36857,0.04706
6489.29704,0.12241
6491.22551,0.13775
6493.15398,0.14142
6495.08244,0.12303
6497.01091,0.03324
6498.93938,-0.05313
6500.86785,-0.05896
6502.79632,-0.03020
6504.72479,0.00191
6506.65326,0.08845
6508.58172,0.17843
6510.51019,0.11251
6512.43866,-0.04723
6514.36713,-0.05525
6516.29560,0.04282
6518.22407,0.07110
6520.15254,0.07189
6522.08101,0.08205
6524.00947,0.03029
6525.93794,-0.00406
6527.86641,0.04232
6529.79488,0.05176
6531.72335,0.02387
6533.65182,0.03938
6535.58029,0.06326
6537.50875,0.05085
6539.43722,0.07847
6541.36569,0.16061
6543.29416,0.16035
6545.22263,0.08433
6547.15110,0.06430
6549.07957,0.06709
6551.00804,0.01220
6552.93650,0.01048
6554.86497,0.12639
6556.79344,0.17199
6558.72191,0.10929
6560.65038,0.07588
6562.57885,0.04210
6564.50732,0.00848
6566.43578,0.09300
6568.36425,0.19661
6570.29272,0.14184
6572.22119,0.03612
6574.14966,0.08644
6576.07813,0.19074
6578.00660,0.18028
6579.93507,0.15930
6581.86353,0.19753
6583.79200,0.16686
6585.72047,0.11513
6587.64894,0.13445
6589.57741,0.11479
6591.50588,0.06573
6593.43435,0.09853
6595.36281,0.10548
6597.29128,0.02537
6599.21975,0.00935
6601.14822,0.08021
6603.07669,0.09020
6605.00516,0.04294
6606.93363,0.04586
6608.86210,0.08414
6610.79056,0.10358
6612.71903,0.11841
6614.64750,0.08819
6616.57597,-0.00497
6618.50444,-0.01365
6620.43291,0.10388
6622.36138,0.17497
6624.28984,0.09410
6626.21831,-0.01112
6628.14678,-0.01101
6630.07525,0.03038
6632.00372,0.08247
6633.93219,0.20596
6635.86066,0.25135
6637.78912,0.10639
6639.71759,-0.01864
6641.64606,-0.00032
6643.57453,0.07671
6645.50300,0.13880
6647.43147,0.18065
6649.35994,0.11377
6651.28841,-0.03571
6653.21687,-0.08978
6655.14534,-0.05976
6657.07381,-0.08861
6659.00228,-0.09103
6660.93075,0.01092
6662.85922,0.06990
6664.78769,0.09965
6666.71615,0.21172
6668.64462,0.30579
6670.57309,0.24650
6672.50156,0.10238
6674.43003,0.03129
6676.35850,0.03578
6678.28697,0.02396
6680.21544,0.03358
6682.14390,0.09164
6684.07237,0.07536
6686.00084,-0.01552
6687.92931,-0.06177
6689.85778,-0.05336
6691.78625,-0.01920
6693.71472,0.02128
6695.64318,0.01409
6697.57165,-0.05430
6699.50012,-0.03968
6701.42859,0.09413
6703.35706,0.12410
6705.28553,0.04123
6707.21400,0.06021
6709.14247,0.07940
6711.07093,-0.02421
6712.99940,-0.05141
6714.92787,0.02454
6716.85634,-0.03096
6718.78481,-0.18129
6720.71328,-0.16694
6722.64175,-0.02940
6724.57021,0.05590
6726.49868,0.09380
6728.42715,0.09708
6730.35562,0.05717
6732.28409,0.03714
6734.21256,0.06500
6736.14103,0.04705
6738.06950,-0.03404
6739.99796,-0.01459
6741.92643,0.12678
6743.85490,0.17017
6745.78337,0.15363
6747.71184,0.23213
6749.64031,0.24613
6751.56878,0.10197
6753.49724,0.05294
6755.42571,0.13623
6757.35418,0.13683
6759.28265,0.06863
6761.21112,0.05800
6763.13959,0.03444
6765.06806,-0.06620
6766.99653,-0.12832
6768.92499,-0.03436
6770.85346,0.12709
6772.78193,0.20645
6774.71040,0.19611
6776.63887,0.13054
6778.56734,0.06186
6780.49581,0.02152
6782.42427,0.01044
6784.35274,0.00738
6786.28121,0.02431
6788.20968,0.10966
6790.13815,0.14970
6792.06662,0.04413
6793.99509,-0.02371
6795.92355,-0.00469
6797.85202,-0.00360
6799.78049,0.02939
6801.70896,0.11685
6803.63743,0.08795
6805.56590,-0.03816
6807.49437,-0.02475
6809.42284,0.08442
6811.35130,0.09518
6813.27977,0.02228
6815.20824,0.01772
6817.13671,0.05735
6819.06518,0.05605
6820.99365,0.07868
6822.92212,0.09633
6824.85058,-0.00512
6826.77905,-0.05727
6828.70752,0.05034
6830.63599,0.13783
6832.56446,0.12377
6834.49293,0.15740
6836.42140,0.16827
6838.34987,-0.01025
6840.27833,-0.15004
6842.20680,-0.09472
6844.13527,-0.00177
6846.06374,0.06715
6847.99221,0.17619
6849.92068,0.22277
6851.84915,0.14684
6853.77761,0.11014
6855.70608,0.11678
6857.63455,0.00034
6859.56302,-0.16198
6861.49149,-0.19333
6863.41996,-0.12205
6865.34843,-0.04697
6867.27690,0.03482
6869.20536,0.11751
6871.13383,0.16922
6873.06230,0.13755
6874.99077,0.09882
6876.91924,0.12603
6878.84771,0.11252
6880.77618,0.03924
6882.70464,-0.04537
6884.63311,-0.15111
6886.56158,-0.14285
6888.49005,0.05056
6890.41852,0.19061
6892.34699,0.09955
6894.27546,-0.04100
6896.20393,-0.08577
6898.13239,-0.11479
6900.06086,-0.14614
6901.98933,-0.10665
6903.91780,-0.01362
6905.84627,0.06254
6907.77474,0.09553
6909.70321,0.08841
6911.63167,0.02015
6913.56014,-0.00360
6915.48861,0.10974
6917.41708,0.13224
6919.34555,0.03979
6921.27402,0.07752
6923.20249,0.10452
6925.13096,0.07325
6927.05942,0.12399
6928.98789,0.20515
6930.91636,0.23445
6932.84483,0.27214
6934.77330,0.28533
6936.70177,0.16113
6938.63024,-0.05264
6940.55870,-0.12252
6942.48717,0.03922
6944.41564,0.16349
6946.34411,0.14725
6948.27258,0.11130
6950.20105,0.05746
6952.12952,-0.00891
6954.05799,0.04137
6955.98645,0.14536
6957.91492,0.13447
6959.84339,0.06970
6961.77186,-0.00307
6963.70033,-0.14255
6965.62880,-0.25149
6967.55727,-0.12285
6969.48573,0.13251
6971.41420,0.16851
6973.34267,0.02799
6975.27114,-0.08621
6977.19961,-0.19048
6979.12808,-0.22542
6981.05655,-0.06165
6982.98501,0.16383
6984.91348,0.21894
6986.84195,0.25564
6988.77042,0.31798
6990.69889,0.20079
6992.62736,0.03557
6994.55583,0.02897
6996.48430,0.15123
6998.41276,0.22208
7000.34123,0.19373
7002.26970,0.15105
7004.19817,0.06360
7006.12664,-0.00902
7008.05511,0.02002
7009.98358,0.00716
7011.91204,-0.10586
7013.84051,-0.16817
7015.76898,-0.10294
7017.69745,-0.04191
7019.62592,-0.02531
7021.55439,-0.02082
7023.48286,-0.11786
7025.41133,-0.26571
7027.33979,-0.22834
7029.26826,-0.00970
7031.19673,0.14084
7033.12520,0.23232
7035.05367,0.29364
7036.98214,0.16652
7038.91061,-0.02503
7040.83907,-0.04263
7042.76754,0.04883
7044.69601,0.03462
7046.62448,0.07643
7048.55295,0.20324
7050.48142,0.09819
7052.40989,-0.10207
7054.33836,-0.03242
7056.26682,0.14736
7058.19529,0.10909
7060.12376,0.01148
7062.05223,-0.01103
7063.98070,-0.04737
7065.90917,-0.06548
7067.83764,-0.00163
7069.76610,0.05867
7071.69457,-0.03205
7073.62304,-0.09102
7075.55151,0.01724
7077.47998,0.07059
7079.40845,-0.00975
7081.33692,-0.01687
7083.26539,0.05013
7085.19385,0.04195
7087.12232,0.11695
7089.05079,0.28295
7090.97926,0.24593
7092.90773,0.07756
7094.83620,0.07628
7096.76467,0.18954
7098.69313,0.23492
7100.62160,0.23903
7102.55007,0.20071
7104.47854,0.10246
7106.40701,0.07145
7108.33548,0.05071
7110.26395,-0.12230
7112.19242,-0.22978
7114.12088,-0.05353
7116.04935,0.13849
7117.97782,0.10412
7119.90629,0.05354
7121.83476,0.02766
7123.76323,-0.07905
7125.69170,-0.09102
7127.62016,0.10273
7129.54863,0.28381
7131.47710,0.28719
7133.40557,0.24563
7135.33404,0.21708
7137.26251,0.14842
7139.19098,0.21688
7141.11944,0.43108
7143.04791,0.41321
7144.97638,0.12220
7146.90485,-0.00088
7148.83332,0.08213
7150.76179,0.14385
7152.69026,0.22550
7154.61873,0.26134
7156.54719,0.19211
7158.47566,0.14509
7160.40413,0.09188
7162.33260,-0.03441
7164.26107,-0.19649
7166.18954,-0.29080
7168.11801,-0.29377
7170.04647,-0.29125
7171.97494,-0.21338
7173.90341,-0.03907
7175.83188,-0.00364
7177.76035,-0.17557
7179.68882,-0.27442
7181.61729,-0.24242
7183.54576,-0.21596
7185.47422,-0.11281
7187.40269,0.09914
7189.33116,0.25333
7191.25963,0.22789
7193.18810,0.08844
7195.11657,-0.00012
7197.04504,-0.00455
7198.97350,0.05921
7200.90197,0.15855
7202.83044,0.18085
7204.75891,0.11756
7206.68738,0.14764
7208.61585,0.17322
7210.54432,0.15178
7212.47279,0.23270
7214.40125,0.39368
7216.32972,0.44250
7218.25819,0.34619
7220.18666,0.32275
7222.11513,0.38071
7224.04360,0.40426
7225.97207,0.30386
7227.90053,0.10549
7229.82900,-0.07634
7231.75747,-0.09638
7233.68594,0.06456
7235.61441,0.24700
7237.54288,0.36629
7239.47135,0.36820
7241.39982,0.21177
7243.32828,-0.02297
7245.25675,-0.07126
7247.18522,-0.02185
7249.11369,-0.07321
7251.04216,-0.13118
7252.97063,-0.03552
7254.89910,0.02923
7256.82756,0.02190
7258.75603,0.09818
7260.68450,0.29591
7262.61297,0.44905
7264.54144,0.38037
7266.46991,0.24203
7268.39838,0.19627
7270.32685,0.10244
7272.25531,-0.02889
7274.18378,0.06240
7276.11225,0.10611
7278.04072,0.03693
7279.96919,0.20564
7281.89766,0.43708
7283.82613,0.35751
7285.75459,0.18872
7287.68306,0.11124
7289.61153,0.01660
7291.54000,-0.11792
7293.46847,-0.11505
7295.39694,-0.03342
7297.32541,-0.02957
7299.25387,-0.02977
7301.18234,0.09556
7303.11081,0.22544
7305.03928,0.20801
7306.96775,0.19687
7308.89622,0.27144
7310.82469,0.21505
7312.75316,0.04351
7314.68162,-0.00974
7316.61009,0.11787
7318.53856,0.24587
7320.46703,0.27419
7322.39550,0.10368
7324.32397,-0.27112
7326.25244,-0.44798
7328.18090,-0.22633
7330.10937,-0.02301
7332.03784,-0.12792
7333.96631,-0.11161
7335.89478,0.14694
7337.82325,0.38783
7339.75172,0.35203
7341.68019,0.22312
7343.60865,0.23990
7345.53712,0.18395
7347.46559,0.15287
7349.39406,0.26986
7351.32253,0.28679
7353.25100,0.18285
7355.17947,0.13874
7357.10793,0.20709
7359.03640,0.37429
7360.96487,0.58860
7362.89334,0.65543
7364.82181,0.29428
7366.75028,-0.12382
7368.67875,-0.02433
7370.60722,0.28896
7372.53568,0.37593
7374.46415,0.30768
7376.39262,0.09935
7378.32109,-0.17126
7380.24956,-0.26056
7382.17803,-0.06956
7384.10650,0.10788
7386.03496,0.16312
7387.96343,0.30578
7389.89190,0.42564
7391.82037,0.36896
7393.74884,0.26490
7395.67731,0.23669
7397.60578,0.19770
7399.53425,0.08761
7401.46271,-0.00686
7403.39118,-0.09427
7405.31965,-0.25589
7407.24812,-0.28831
7409.17659,-0.13084
7411.10506,-0.04129
7413.03353,-0.02482
7414.96199,0.06361
7416.89046,0.05714
7418.81893,-0.15066
7420.74740,-0.11195
7422.67587,0.05894
7424.60434,0.03550
7426.53281,0.00008
7428.46128,0.07421
7430.38974,0.13158
7432.31821,0.06990
7434.24668,-0.09100
7436.17515,-0.32072
7438.10362,-0.40561
7440.03209,-0.19573
7441.96056,0.03294
7443.88902,0.01844
7445.81749,-0.06578
7447.74596,-0.09096
7449.67443,-0.13587
7451.60290,-0.13717
7453.53137,0.03747
7455.45984,0.14927
7457.38831,0.10770
7459.31677,0.13820
7461.24524,0.18000
7463.17371,0.02883
7465.10218,0.01012
7467.03065,0.19620
7468.95912,0.21529
7470.88759,0.04282
7472.81605,-0.01457
7474.74452,0.08891
7476.67299,0.11954
7478.60146,0.01350
7480.52993,0.02531
7482.45840,0.14585
7484.38687,0.10657
7486.31533,0.01489
7488.24380,-0.02661
7490.17227,-0.10663
7492.10074,-0.12762
7494.02921,0.04469
7495.95768,0.17837
7497.88615,0.07798
