399.19301,1.18437
401.12148,0.32971
403.04995,0.02816
404.97842,-0.00520
406.90689,0.08558
408.83536,0.26314
410.76382,0.40644
412.69229,0.47946
414.62076,0.49902
416.54923,0.39456
418.47770,0.05520
420.40617,-0.25818
422.33464,-0.20385
424.26311,0.02972
426.19157,0.16508
428.12004,0.18046
430.04851,0.21942
431.97698,0.25723
433.90545,0.22495
435.83392,0.14888
437.76239,0.04501
439.69085,-0.04070
441.61932,-0.04505
443.54779,0.01842
445.47626,0.08679
447.40473,0.15369
449.33320,0.19605
451.26167,0.16883
453.19013,0.12152
455.11860,0.11302
457.04707,0.13077
458.97554,0.13886
460.90401,0.10962
462.83248,0.07070
464.76095,0.08612
466.68942,0.15662
468.61788,0.19382
470.54635,0.17159
472.47482,0.14281
474.40329,0.14920
476.33176,0.16849
478.26023,0.18672
480.18870,0.22957
482.11716,0.26092
484.04563,0.20997
485.97410,0.11742
487.90257,0.08139
489.83104,0.11738
491.75951,0.14153
493.68798,0.13353
495.61645,0.13897
497.54491,0.12053
499.47338,0.06840
501.40185,0.05513
503.33032,0.08916
505.25879,0.11556
507.18726,0.12040
509.11573,0.10276
511.04419,0.06304
512.97266,0.02803
514.90113,0.04140
516.82960,0.09610
518.75807,0.11994
520.68654,0.10647
522.61501,0.08440
524.54348,0.04091
526.47194,0.01193
528.40041,0.04432
530.32888,0.09792
532.25735,0.13785
534.18582,0.16519
536.11429,0.16040
538.04276,0.12716
539.97122,0.10516
541.89969,0.08624
543.82816,0.05326
545.75663,0.02630
547.68510,0.02296
549.61357,0.06097
551.54204,0.14200
553.47051,0.20660
555.39897,0.20291
557.32744,0.15697
559.25591,0.11896
561.18438,0.09206
563.11285,0.07862
565.04132,0.09951
566.96979,0.13184
568.89825,0.14426
570.82672,0.14874
572.75519,0.14694
574.68366,0.13152
576.61213,0.11471
578.54060,0.10316
580.46907,0.10778
582.39754,0.14123
584.32600,0.16863
586.25447,0.16258
588.18294,0.14331
590.11141,0.12368
592.03988,0.11335
593.96835,0.11285
595.89682,0.10479
597.82528,0.11136
599.75375,0.14443
601.68222,0.17132
603.61069,0.18065
605.53916,0.17172
607.46763,0.13584
609.39610,0.10346
611.32456,0.10819
613.25303,0.11982
615.18150,0.10812
617.10997,0.09919
619.03844,0.10753
620.96691,0.12592
622.89538,0.13906
624.82385,0.13395
626.75231,0.12532
628.68078,0.12023
630.60925,0.11428
632.53772,0.10791
634.46619,0.11004
636.39466,0.12098
638.32313,0.11664
640.25159,0.10581
642.18006,0.11553
644.10853,0.13514
646.03700,0.14920
647.96547,0.15456
649.89394,0.15092
651.82241,0.14665
653.75088,0.15207
655.67934,0.15428
657.60781,0.13594
659.53628,0.11014
661.46475,0.10110
663.39322,0.11060
665.32169,0.11912
667.25016,0.12213
669.17862,0.13762
671.10709,0.14362
673.03556,0.13086
674.96403,0.12639
676.89250,0.13914
678.82097,0.14472
680.74944,0.14178
682.67791,0.14186
684.60637,0.13479
686.53484,0.12972
688.46331,0.14299
690.39178,0.15428
692.32025,0.15296
694.24872,0.14792
696.17719,0.13847
698.10565,0.13616
700.03412,0.14305
701.96259,0.14443
703.89106,0.14475
705.81953,0.14696
707.74800,0.14713
709.67647,0.14594
711.60494,0.14421
713.53340,0.14516
715.46187,0.14067
717.39034,0.12665
719.31881,0.11986
721.24728,0.12690
723.17575,0.13428
725.10422,0.13484
727.03268,0.13551
728.96115,0.13479
730.88962,0.12634
732.81809,0.12290
734.74656,0.12557
736.67503,0.11947
738.60350,0.11096
740.53197,0.10879
742.46043,0.11857
744.38890,0.14363
746.31737,0.16212
748.24584,0.15687
750.17431,0.14401
752.10278,0.14242
754.03125,0.14864
755.95971,0.14829
757.88818,0.13957
759.81665,0.13487
761.74512,0.13256
763.67359,0.12564
765.60206,0.12470
767.53053,0.13243
769.45900,0.13518
771.38746,0.13116
773.31593,0.13614
775.24440,0.14827
777.17287,0.14460
779.10134,0.13190
781.02981,0.13402
782.95828,0.14228
784.88674,0.14408
786.81521,0.14722
788.74368,0.14942
790.67215,0.14885
792.60062,0.15041
794.52909,0.14508
796.45756,0.13219
798.38602,0.12882
800.31449,0.14077
802.24296,0.15117
804.17143,0.14475
806.09990,0.13261
808.02837,0.13107
809.95684,0.13497
811.88531,0.13657
813.81377,0.13939
815.74224,0.13804
817.67071,0.13466
819.59918,0.14812
821.52765,0.16894
823.45612,0.16873
825.38459,0.15046
827.31305,0.13539
829.24152,0.13389
831.16999,0.14528
833.09846,0.15662
835.02693,0.15842
836.95540,0.15442
838.88387,0.14572
840.81234,0.13397
842.74080,0.12464
844.66927,0.12004
846.59774,0.12369
848.52621,0.13348
850.45468,0.13892
852.38315,0.13683
854.31162,0.12763
856.24008,0.12177
858.16855,0.13641
860.09702,0.15977
862.02549,0.16788
863.95396,0.15896
865.88243,0.14559
867.81090,0.14587
869.73937,0.16021
871.66783,0.16234
873.59630,0.14945
875.52477,0.14376
877.45324,0.14182
879.38171,0.13222
881.31018,0.12560
883.23865,0.13163
885.16711,0.14000
887.09558,0.13657
889.02405,0.13098
890.95252,0.13395
892.88099,0.13249
894.80946,0.12760
896.73793,0.13063
898.66640,0.13448
900.59486,0.13793
902.52333,0.14649
904.45180,0.15527
906.38027,0.15941
908.30874,0.16046
910.23721,0.15332
912.16568,0.13291
914.09414,0.11519
916.02261,0.11419
917.95108,0.12470
919.87955,0.13955
921.80802,0.15245
923.73649,0.15650
925.66496,0.14902
927.59343,0.13736
929.52189,0.13629
931.45036,0.14475
933.37883,0.14993
935.30730,0.15130
937.23577,0.15080
939.16424,0.14595
941.09271,0.13951
943.02117,0.14127
944.94964,0.15203
946.87811,0.15112
948.80658,0.13463
950.73505,0.12537
952.66352,0.12872
954.59199,0.13723
956.52045,0.14897
958.44892,0.15687
960.37739,0.15735
962.30586,0.15473
964.23433,0.14865
966.16280,0.14246
968.09127,0.14051
970.01974,0.14063
971.94820,0.14366
973.87667,0.14616
975.80514,0.14316
977.73361,0.14396
979.66208,0.15299
981.59055,0.15828
983.51902,0.15626
985.44748,0.15489
987.37595,0.15650
989.30442,0.15895
991.23289,0.16363
993.16136,0.16799
995.08983,0.16284
997.01830,0.15453
998.94677,0.15218
1000.87523,0.14901
1002.80370,0.14835
1004.73217,0.15482
1006.66064,0.16059
1008.58911,0.16372
1010.51758,0.16155
1012.44605,0.15506
1014.37451,0.15509
1016.30298,0.15969
1018.23145,0.15919
1020.15992,0.15772
1022.08839,0.16278
1024.01686,0.16599
1025.94533,0.15864
1027.87380,0.15177
1029.80226,0.15594
1031.73073,0.16225
1033.65920,0.16345
1035.58767,0.16365
1037.51614,0.16372
1039.44461,0.16460
1041.37308,0.16962
1043.30154,0.17181
1045.23001,0.16143
1047.15848,0.14946
1049.08695,0.15187
1051.01542,0.16243
1052.94389,0.16952
1054.87236,0.16772
1056.80083,0.16114
1058.72929,0.15998
1060.65776,0.16030
1062.58623,0.16019
1064.51470,0.16662
1066.44317,0.17046
1068.37164,0.16438
1070.30011,0.15914
1072.22857,0.16044
1074.15704,0.16413
1076.08551,0.16797
1078.01398,0.17220
1079.94245,0.17455
1081.87092,0.16894
1083.79939,0.15620
1085.72786,0.14715
1087.65632,0.14407
1089.58479,0.14364
1091.51326,0.15026
1093.44173,0.16185
1095.37020,0.17193
1097.29867,0.17622
1099.22714,0.17069
1101.15560,0.16339
1103.08407,0.16087
1105.01254,0.15929
1106.94101,0.15763
1108.86948,0.15759
1110.79795,0.16190
1112.72642,0.16668
1114.65489,0.16644
1116.58335,0.16533
1118.51182,0.16741
1120.44029,0.17093
1122.36876,0.17164
1124.29723,0.17155
1126.22570,0.17610
1128.15417,0.17903
1130.08263,0.17161
1132.01110,0.15840
1133.93957,0.14795
1135.86804,0.14435
1137.79651,0.14920
1139.72498,0.15595
1141.65345,0.15753
1143.58191,0.15794
1145.51038,0.16099
1147.43885,0.16379
1149.36732,0.16205
1151.29579,0.15917
1153.22426,0.16530
1155.15273,0.17905
1157.08120,0.18522
1159.00966,0.17882
1160.93813,0.17180
1162.86660,0.16861
1164.79507,0.16622
1166.72354,0.16589
1168.65201,0.16601
1170.58048,0.16465
1172.50894,0.16212
1174.43741,0.16127
1176.36588,0.16436
1178.29435,0.16759
1180.22282,0.16827
1182.15129,0.16490
1184.07976,0.16168
1186.00823,0.16556
1187.93669,0.16945
1189.86516,0.16646
1191.79363,0.16200
1193.72210,0.15999
1195.65057,0.16061
1197.57904,0.16230
1199.50751,0.16120
1201.43597,0.15847
1203.36444,0.15820
1205.29291,0.16041
1207.22138,0.16356
1209.14985,0.16559
1211.07832,0.16611
1213.00679,0.16806
1214.93526,0.17090
1216.86372,0.17228
1218.79219,0.17257
1220.72066,0.17051
1222.64913,0.16433
1224.57760,0.15757
1226.50607,0.15703
1228.43454,0.16186
1230.36300,0.16513
1232.29147,0.16619
1234.21994,0.16607
1236.14841,0.16238
1238.07688,0.15630
1240.00535,0.15378
1241.93382,0.15757
1243.86229,0.16248
1245.79075,0.16289
1247.71922,0.16097
1249.64769,0.16108
1251.57616,0.16159
1253.50463,0.16181
1255.43310,0.16429
1257.36157,0.16636
1259.29003,0.16454
1261.21850,0.16179
1263.14697,0.16316
1265.07544,0.16526
1267.00391,0.16125
1268.93238,0.15714
1270.86085,0.16114
1272.78932,0.16728
1274.71778,0.16856
1276.64625,0.16804
1278.57472,0.16750
1280.50319,0.16599
1282.43166,0.16763
1284.36013,0.17377
1286.28860,0.17654
1288.21706,0.17237
1290.14553,0.16818
1292.07400,0.16737
1294.00247,0.16738
1295.93094,0.16637
1297.85941,0.16298
1299.78788,0.15615
1301.71634,0.14452
1303.64481,0.13302
1305.57328,0.13750
1307.50175,0.15965
1309.43022,0.17603
1311.35869,0.17795
1313.28716,0.17819
1315.21563,0.17933
1317.14409,0.17948
1319.07256,0.17949
1321.00103,0.17618
1322.92950,0.17075
1324.85797,0.16577
1326.78644,0.16078
1328.71491,0.15864
1330.64337,0.15980
1332.57184,0.16215
1334.50031,0.16396
1336.42878,0.16351
1338.35725,0.16268
1340.28572,0.16261
1342.21419,0.18174
1344.14266,0.22848
1346.07112,0.25408
1347.99959,0.22407
1349.92806,0.18063
1351.85653,0.16307
1353.78500,0.16194
1355.71347,0.16478
1357.64194,0.17164
1359.57040,0.17878
1361.49887,0.18095
1363.42734,0.17862
1365.35581,0.17444
1367.28428,0.17156
1369.21275,0.17237
1371.14122,0.17489
1373.06969,0.17541
1374.99815,0.17275
1376.92662,0.16989
1378.85509,0.17098
1380.78356,0.17598
1382.71203,0.17903
1384.64050,0.17937
1386.56897,0.18344
1388.49743,0.18761
1390.42590,0.18504
1392.35437,0.18400
1394.28284,0.19052
1396.21131,0.19638
1398.13978,0.19543
1400.06825,0.19061
1401.99672,0.18534
1403.92518,0.18332
1405.85365,0.18443
1407.78212,0.18586
1409.71059,0.18523
1411.63906,0.18230
1413.56753,0.18076
1415.49600,0.18210
1417.42446,0.18509
1419.35293,0.18767
1421.28140,0.18674
1423.20987,0.18356
1425.13834,0.18095
1427.06681,0.18192
1428.99528,0.18475
1430.92375,0.18522
1432.85221,0.18736
1434.78068,0.19377
1436.70915,0.19307
1438.63762,0.18332
1440.56609,0.17935
1442.49456,0.18176
1444.42303,0.18574
1446.35149,0.18798
1448.27996,0.18796
1450.20843,0.18760
1452.13690,0.18957
1454.06537,0.19672
1455.99384,0.21053
1457.92231,0.21110
1459.85077,0.19337
1461.77924,0.18667
1463.70771,0.19021
1465.63618,0.19229
1467.56465,0.18874
1469.49312,0.18675
1471.42159,0.19205
1473.35006,0.20071
1475.27852,0.19962
1477.20699,0.19283
1479.13546,0.18662
1481.06393,0.18227
1482.99240,0.18067
1484.92087,0.18389
1486.84934,0.19139
1488.77780,0.19743
1490.70627,0.19617
1492.63474,0.19402
1494.56321,0.19811
1496.49168,0.20593
1498.42015,0.20331
1500.34862,0.19100
1502.27709,0.18645
1504.20555,0.19816
1506.13402,0.22643
1508.06249,0.23223
1509.99096,0.21177
1511.91943,0.20128
1513.84790,0.20356
1515.77637,0.21224
1517.70483,0.21929
1519.63330,0.22817
1521.56177,0.23584
1523.49024,0.22623
1525.41871,0.21247
1527.34718,0.20346
1529.27565,0.19957
1531.20412,0.20074
1533.13258,0.20149
1535.06105,0.20077
1536.98952,0.20828
1538.91799,0.22769
1540.84646,0.24237
1542.77493,0.23267
1544.70340,0.21618
1546.63186,0.20116
1548.56033,0.19380
1550.48880,0.19293
1552.41727,0.19293
1554.34574,0.19471
1556.27421,0.20259
1558.20268,0.21196
1560.13115,0.20496
1562.05961,0.19854
1563.98808,0.19745
1565.91655,0.19431
1567.84502,0.18934
1569.77349,0.18794
1571.70196,0.18967
1573.63043,0.19028
1575.55889,0.19030
1577.48736,0.18847
1579.41583,0.18108
1581.34430,0.17226
1583.27277,0.16978
1585.20124,0.17281
1587.12971,0.17466
1589.05818,0.17721
1590.98664,0.18152
1592.91511,0.18216
1594.84358,0.17939
1596.77205,0.17781
1598.70052,0.17773
1600.62899,0.17822
1602.55746,0.17884
1604.48592,0.17795
1606.41439,0.17837
1608.34286,0.18235
1610.27133,0.18393
1612.19980,0.18401
1614.12827,0.18993
1616.05674,0.19858
1617.98521,0.19801
1619.91367,0.19370
1621.84214,0.19335
1623.77061,0.19456
1625.69908,0.19421
1627.62755,0.19129
1629.55602,0.18926
1631.48449,0.19435
1633.41295,0.20542
1635.34142,0.21190
1637.26989,0.19967
1639.19836,0.18787
1641.12683,0.18645
1643.05530,0.19348
1644.98377,0.20950
1646.91223,0.22600
1648.84070,0.22197
1650.76917,0.21534
1652.69764,0.21748
1654.62611,0.21091
1656.55458,0.20051
1658.48305,0.19676
1660.41152,0.19797
1662.33998,0.19835
1664.26845,0.19469
1666.19692,0.19665
1668.12539,0.20726
1670.05386,0.21392
1671.98233,0.21019
1673.91080,0.20918
1675.83926,0.20791
1677.76773,0.20255
1679.69620,0.20178
1681.62467,0.20794
1683.55314,0.21365
1685.48161,0.20678
1687.41008,0.19884
1689.33855,0.19750
1691.26701,0.20038
1693.19548,0.20561
1695.12395,0.21453
1697.05242,0.22470
1698.98089,0.22650
1700.90936,0.21876
1702.83783,0.21269
1704.76629,0.20884
1706.69476,0.20260
1708.62323,0.19690
1710.55170,0.19350
1712.48017,0.19159
1714.40864,0.19439
1716.33711,0.20402
1718.26558,0.20727
1720.19404,0.20042
1722.12251,0.19481
1724.05098,0.19052
1725.97945,0.18585
1727.90792,0.18498
1729.83639,0.19151
1731.76486,0.20216
1733.69332,0.20912
1735.62179,0.20592
1737.55026,0.20294
1739.47873,0.20352
1741.40720,0.20250
1743.33567,0.19887
1745.26414,0.19760
1747.19261,0.20205
1749.12107,0.20832
1751.04954,0.20719
1752.97801,0.20048
1754.90648,0.19751
1756.83495,0.19762
1758.76342,0.19683
1760.69189,0.19647
1762.62035,0.19415
1764.54882,0.19060
1766.47729,0.19121
1768.40576,0.19630
1770.33423,0.20573
1772.26270,0.21258
1774.19117,0.20594
1776.11964,0.19648
1778.04810,0.19333
1779.97657,0.19447
1781.90504,0.19368
1783.83351,0.19063
1785.76198,0.18828
1787.69045,0.18829
1789.61892,0.19290
1791.54738,0.19953
1793.47585,0.20001
1795.40432,0.19588
1797.33279,0.19410
1799.26126,0.19695
1801.18973,0.19842
1803.11820,0.19389
1805.04666,0.18986
1806.97513,0.18959
1808.90360,0.19135
1810.83207,0.19269
1812.76054,0.19132
1814.68901,0.18945
1816.61748,0.18829
1818.54595,0.18182
1820.47441,0.17346
1822.40288,0.17748
1824.33135,0.18938
1826.25982,0.19411
1828.18829,0.19553
1830.11676,0.19662
1832.04523,0.19302
1833.97369,0.18937
1835.90216,0.18961
1837.83063,0.19259
1839.75910,0.19488
1841.68757,0.19533
1843.61604,0.19439
1845.54451,0.19235
1847.47298,0.19058
1849.40144,0.19029
1851.32991,0.19151
1853.25838,0.19273
1855.18685,0.19230
1857.11532,0.19011
1859.04379,0.18783
1860.97226,0.18662
1862.90072,0.18698
1864.82919,0.19071
1866.75766,0.19786
1868.68613,0.20276
1870.61460,0.19937
1872.54307,0.19175
1874.47154,0.18594
1876.40001,0.18456
1878.32847,0.18642
1880.25694,0.18803
1882.18541,0.18791
1884.11388,0.18832
1886.04235,0.19104
1887.97082,0.19436
1889.89929,0.19502
1891.82775,0.19251
1893.75622,0.18929
1895.68469,0.18590
1897.61316,0.18346
1899.54163,0.18478
1901.47010,0.18991
1903.39857,0.19561
1905.32704,0.19795
1907.25550,0.19596
1909.18397,0.19316
1911.11244,0.19234
1913.04091,0.19208
1914.96938,0.19224
1916.89785,0.19386
1918.82632,0.19394
1920.75478,0.19176
1922.68325,0.19049
1924.61172,0.18904
1926.54019,0.18674
1928.46866,0.18626
1930.39713,0.18720
1932.32560,0.18748
1934.25407,0.18696
1936.18253,0.18604
1938.11100,0.18588
1940.03947,0.18776
1941.96794,0.18961
1943.89641,0.18819
1945.82488,0.18751
1947.75335,0.19061
1949.68181,0.19161
1951.61028,0.18960
1953.53875,0.19095
1955.46722,0.19297
1957.39569,0.18998
1959.32416,0.18731
1961.25263,0.18842
1963.18110,0.18961
1965.10956,0.18996
1967.03803,0.19003
1968.96650,0.19037
1970.89497,0.19077
1972.82344,0.19062
1974.75191,0.19147
1976.68038,0.19252
1978.60884,0.19177
1980.53731,0.19045
1982.46578,0.18961
1984.39425,0.18970
1986.32272,0.19075
1988.25119,0.19068
1990.17966,0.19014
1992.10812,0.19151
1994.03659,0.19260
1995.96506,0.19237
1997.89353,0.19212
1999.82200,0.19088
2001.75047,0.18969
2003.67894,0.19044
2005.60741,0.19099
2007.53587,0.19065
2009.46434,0.19149
2011.39281,0.19247
2013.32128,0.19137
2015.24975,0.19030
2017.17822,0.19186
2019.10669,0.19383
2021.03515,0.19372
2022.96362,0.19197
2024.89209,0.18885
2026.82056,0.18405
2028.74903,0.18166
2030.67750,0.18497
2032.60597,0.18961
2034.53444,0.19214
2036.46290,0.19224
2038.39137,0.19106
2040.31984,0.19075
2042.24831,0.19008
2044.17678,0.18922
2046.10525,0.19009
2048.03372,0.19085
2049.96218,0.19059
2051.89065,0.19104
2053.81912,0.19221
2055.74759,0.19299
2057.67606,0.19244
2059.60453,0.18998
2061.53300,0.18786
2063.46147,0.18934
2065.38993,0.19297
2067.31840,0.19473
2069.24687,0.19415
2071.17534,0.19275
2073.10381,0.19079
2075.03228,0.18827
2076.96075,0.18677
2078.88921,0.18730
2080.81768,0.18903
2082.74615,0.19111
2084.67462,0.19186
2086.60309,0.19118
2088.53156,0.19169
2090.46003,0.19366
2092.38850,0.19529
2094.31696,0.19537
2096.24543,0.19501
2098.17390,0.19627
2100.10237,0.19736
2102.03084,0.19586
2103.95931,0.19271
2105.88778,0.19021
2107.81624,0.18977
2109.74471,0.19012
2111.67318,0.19022
2113.60165,0.19177
2115.53012,0.19435
2117.45859,0.19380
2119.38706,0.18995
2121.31553,0.18821
2123.24399,0.19019
2125.17246,0.19251
2127.10093,0.19251
2129.02940,0.18953
2130.95787,0.18655
2132.88634,0.18610
2134.81481,0.18628
2136.74327,0.18691
2138.67174,0.18937
2140.60021,0.19147
2142.52868,0.19184
2144.45715,0.19181
2146.38562,0.19078
2148.31409,0.18896
2150.24255,0.18866
2152.17102,0.18948
2154.09949,0.18954
2156.02796,0.18815
2157.95643,0.18722
2159.88490,0.18955
2161.81337,0.19334
2163.74184,0.19517
2165.67030,0.19588
2167.59877,0.19616
2169.52724,0.19457
2171.45571,0.19274
2173.38418,0.19334
2175.31265,0.19452
2177.24112,0.19340
2179.16958,0.19100
2181.09805,0.18979
2183.02652,0.18987
2184.95499,0.18909
2186.88346,0.18729
2188.81193,0.18682
2190.74040,0.18859
2192.66887,0.19094
2194.59733,0.19134
2196.52580,0.19013
2198.45427,0.18935
2200.38274,0.18904
2202.31121,0.18953
2204.23968,0.19038
2206.16815,0.19019
2208.09661,0.18999
2210.02508,0.19017
2211.95355,0.19035
2213.88202,0.19235
2215.81049,0.19481
2217.73896,0.19455
2219.66743,0.19253
2221.59590,0.19070
2223.52436,0.18960
2225.45283,0.18884
2227.38130,0.18869
2229.30977,0.18939
2231.23824,0.19009
2233.16671,0.19179
2235.09518,0.19398
2237.02364,0.19330
2238.95211,0.19099
2240.88058,0.18993
2242.80905,0.18845
2244.73752,0.18687
2246.66599,0.18954
2248.59446,0.19368
2250.52293,0.19326
2252.45139,0.19309
2254.37986,0.19600
2256.30833,0.19437
2258.23680,0.18915
2260.16527,0.18926
2262.09374,0.19407
2264.02221,0.19554
2265.95067,0.19100
2267.87914,0.18549
2269.80761,0.18556
2271.73608,0.19067
2273.66455,0.19421
2275.59302,0.19420
2277.52149,0.19335
2279.44996,0.19240
2281.37842,0.18959
2283.30689,0.18593
2285.23536,0.18542
2287.16383,0.18712
2289.09230,0.18666
2291.02077,0.18447
2292.94924,0.18623
2294.87770,0.19247
2296.80617,0.19367
2298.73464,0.18713
2300.66311,0.18170
2302.59158,0.18040
2304.52005,0.18067
2306.44852,0.18335
2308.37699,0.18723
2310.30545,0.18723
2312.23392,0.18381
2314.16239,0.17964
2316.09086,0.17202
2318.01933,0.16352
2319.94780,0.16317
2321.87627,0.17025
2323.80473,0.17035
2325.73320,0.15795
2327.66167,0.14744
2329.59014,0.14778
2331.51861,0.14995
2333.44708,0.14870
2335.37555,0.14766
2337.30401,0.14034
2339.23248,0.12798
2341.16095,0.13332
2343.08942,0.15927
2345.01789,0.17692
2346.94636,0.17505
2348.87483,0.16782
2350.80330,0.16045
2352.73176,0.15195
2354.66023,0.14147
2356.58870,0.12933
2358.51717,0.12857
2360.44564,0.14036
2362.37411,0.14252
2364.30258,0.13743
2366.23104,0.14786
2368.15951,0.16999
2370.08798,0.17983
2372.01645,0.17468
2373.94492,0.16875
2375.87339,0.16823
2377.80186,0.17162
2379.73033,0.17706
2381.65879,0.18220
2383.58726,0.18680
2385.51573,0.19102
2387.44420,0.19318
2389.37267,0.19475
2391.30114,0.19651
2393.22961,0.19527
2395.15807,0.19341
2397.08654,0.19578
2399.01501,0.19672
2400.94348,0.19192
2402.87195,0.18983
2404.80042,0.19248
2406.72889,0.19301
2408.65736,0.19151
2410.58582,0.19039
2412.51429,0.18894
2414.44276,0.18731
2416.37123,0.18784
2418.29970,0.19119
2420.22817,0.19377
2422.15664,0.19374
2424.08510,0.19402
2426.01357,0.19617
2427.94204,0.19843
2429.87051,0.19951
2431.79898,0.19882
2433.72745,0.19780
2435.65592,0.19788
2437.58439,0.19653
2439.51285,0.19372
2441.44132,0.19346
2443.36979,0.19557
2445.29826,0.19546
2447.22673,0.19241
2449.15520,0.19093
2451.08367,0.19275
2453.01213,0.19501
2454.94060,0.19637
2456.86907,0.19725
2458.79754,0.19720
2460.72601,0.19652
2462.65448,0.19519
2464.58295,0.19292
2466.51142,0.19046
2468.43988,0.18779
2470.36835,0.18664
2472.29682,0.18808
2474.22529,0.18898
2476.15376,0.18895
2478.08223,0.19092
2480.01070,0.19387
2481.93916,0.19410
2483.86763,0.19126
2485.79610,0.18768
2487.72457,0.18712
2489.65304,0.19057
2491.58151,0.19303
2493.50998,0.19296
2495.43844,0.19370
2497.36691,0.19579
2499.29538,0.19665
2501.22385,0.19445
2503.15232,0.19227
2505.08079,0.19228
2507.00926,0.19190
2508.93773,0.19124
2510.86619,0.19210
2512.79466,0.19286
2514.72313,0.19259
2516.65160,0.19141
2518.58007,0.18978
2520.50854,0.19124
2522.43701,0.19511
2524.36547,0.19597
2526.29394,0.19425
2528.22241,0.19401
2530.15088,0.19453
2532.07935,0.19331
2534.00782,0.19158
2535.93629,0.19023
2537.86476,0.18991
2539.79322,0.19199
2541.72169,0.19399
2543.65016,0.19422
2545.57863,0.19387
2547.50710,0.19366
2549.43557,0.19433
2551.36404,0.19562
2553.29250,0.19744
2555.22097,0.19886
2557.14944,0.19697
2559.07791,0.19306
2561.00638,0.19210
2562.93485,0.19478
2564.86332,0.19690
2566.79179,0.19650
2568.72025,0.19603
2570.64872,0.19744
2572.57719,0.19917
2574.50566,0.19842
2576.43413,0.19624
2578.36260,0.19520
2580.29107,0.19606
2582.21953,0.19870
2584.14800,0.19953
2586.07647,0.19638
2588.00494,0.19339
2589.93341,0.19299
2591.86188,0.19331
2593.79035,0.19317
2595.71882,0.19168
2597.64728,0.19061
2599.57575,0.19237
2601.50422,0.19449
2603.43269,0.19544
2605.36116,0.19594
2607.28963,0.19663
2609.21810,0.19684
2611.14656,0.19414
2613.07503,0.19037
2615.00350,0.19000
2616.93197,0.19441
2618.86044,0.20119
2620.78891,0.20488
2622.71738,0.20306
2624.64585,0.19959
2626.57431,0.19857
2628.50278,0.19921
2630.43125,0.19876
2632.35972,0.19886
2634.28819,0.20199
2636.21666,0.20488
2638.14513,0.20498
2640.07359,0.20372
2642.00206,0.20310
2643.93053,0.20311
2645.85900,0.20052
2647.78747,0.19604
2649.71594,0.19474
2651.64441,0.19662
2653.57288,0.19761
2655.50134,0.19665
2657.42981,0.19587
2659.35828,0.19737
2661.28675,0.20042
2663.21522,0.20149
2665.14369,0.19948
2667.07216,0.19736
2669.00062,0.19691
2670.92909,0.19737
2672.85756,0.19844
2674.78603,0.19960
2676.71450,0.19895
2678.64297,0.19620
2680.57144,0.19484
2682.49990,0.19663
2684.42837,0.19876
2686.35684,0.19959
2688.28531,0.20060
2690.21378,0.20352
2692.14225,0.20690
2694.07072,0.20834
2695.99919,0.20856
2697.92765,0.20908
2699.85612,0.20971
2701.78459,0.20904
2703.71306,0.20664
2705.64153,0.20288
2707.57000,0.19955
2709.49847,0.19939
2711.42693,0.20144
2713.35540,0.20286
2715.28387,0.20308
2717.21234,0.20289
2719.14081,0.20192
2721.06928,0.19929
2722.99775,0.19711
2724.92622,0.19927
2726.85468,0.20491
2728.78315,0.20801
2730.71162,0.20670
2732.64009,0.20489
2734.56856,0.20543
2736.49703,0.20625
2738.42550,0.20366
2740.35396,0.19936
2742.28243,0.19690
2744.21090,0.19992
2746.13937,0.20808
2748.06784,0.21095
2749.99631,0.20442
2751.92478,0.19837
2753.85325,0.19957
2755.78171,0.20441
2757.71018,0.20837
2759.63865,0.20947
2761.56712,0.20753
2763.49559,0.20636
2765.42406,0.20639
2767.35253,0.20240
2769.28099,0.19449
2771.20946,0.19143
2773.13793,0.19904
2775.06640,0.20889
2776.99487,0.21011
2778.92334,0.20774
2780.85181,0.20926
2782.78028,0.20895
2784.70874,0.20581
2786.63721,0.20551
2788.56568,0.20566
2790.49415,0.20430
2792.42262,0.20466
2794.35109,0.20748
2796.27956,0.20979
2798.20802,0.20938
2800.13649,0.20847
2802.06496,0.20952
2803.99343,0.20926
2805.92190,0.20663
2807.85037,0.20492
2809.77884,0.20277
2811.70731,0.20084
2813.63577,0.20283
2815.56424,0.20637
2817.49271,0.20775
2819.42118,0.20808
2821.34965,0.20994
2823.27812,0.21164
2825.20659,0.21068
2827.13505,0.20898
2829.06352,0.20852
2830.99199,0.20914
2832.92046,0.21053
2834.84893,0.21021
2836.77740,0.20797
2838.70587,0.20916
2840.63433,0.21275
2842.56280,0.21222
2844.49127,0.20801
2846.41974,0.20535
2848.34821,0.20627
2850.27668,0.20933
2852.20515,0.21327
2854.13362,0.21603
2856.06208,0.21543
2857.99055,0.21280
2859.91902,0.21005
2861.84749,0.20799
2863.77596,0.20719
2865.70443,0.20775
2867.63290,0.21019
2869.56136,0.21178
2871.48983,0.21043
2873.41830,0.21045
2875.34677,0.21104
2877.27524,0.20782
2879.20371,0.20518
2881.13218,0.20561
2883.06065,0.20429
2884.98911,0.20302
2886.91758,0.20607
2888.84605,0.20915
2890.77452,0.21079
2892.70299,0.21395
2894.63146,0.21392
2896.55993,0.20724
2898.48839,0.20180
2900.41686,0.20444
2902.34533,0.20881
2904.27380,0.20617
2906.20227,0.20176
2908.13074,0.20227
2910.05921,0.20241
2911.98768,0.19999
2913.91614,0.19709
2915.84461,0.19280
2917.77308,0.19289
2919.70155,0.20144
2921.63002,0.21041
2923.55849,0.21283
2925.48696,0.20949
2927.41542,0.20684
2929.34389,0.20811
2931.27236,0.20723
2933.20083,0.20308
2935.12930,0.19953
2937.05777,0.19656
2938.98624,0.19794
2940.91471,0.20340
2942.84317,0.20518
2944.77164,0.20108
2946.70011,0.19554
2948.62858,0.19654
2950.55705,0.20493
2952.48552,0.21223
2954.41399,0.21122
2956.34245,0.19873
2958.27092,0.18707
2960.19939,0.19235
2962.12786,0.20440
2964.05633,0.20683
2965.98480,0.20073
2967.91327,0.19337
2969.84174,0.19255
2971.77020,0.19915
2973.69867,0.20553
2975.62714,0.20381
2977.55561,0.19447
2979.48408,0.19167
2981.41255,0.19917
2983.34102,0.20569
2985.26948,0.20845
2987.19795,0.20903
2989.12642,0.21066
2991.05489,0.21594
2992.98336,0.21741
2994.91183,0.21190
2996.84030,0.20666
2998.76877,0.20736
3000.69723,0.21213
3002.62570,0.21427
3004.55417,0.21045
3006.48264,0.20386
3008.41111,0.19871
3010.33958,0.19170
3012.26805,0.17422
3014.19651,0.14334
3016.12498,0.11963
3018.05345,0.13559
3019.98192,0.17893
3021.91039,0.20877
3023.83886,0.21900
3025.76733,0.21931
3027.69579,0.21211
3029.62426,0.20811
3031.55273,0.21410
3033.48120,0.22077
3035.40967,0.22105
3037.33814,0.21804
3039.26661,0.21692
3041.19508,0.21659
3043.12354,0.21150
3045.05201,0.20209
3046.98048,0.19609
3048.90895,0.20111
3050.83742,0.21121
3052.76589,0.21364
3054.69436,0.20677
3056.62282,0.19821
3058.55129,0.19854
3060.47976,0.20597
3062.40823,0.20901
3064.33670,0.20511
3066.26517,0.20058
3068.19364,0.20415
3070.12211,0.21344
3072.05057,0.21832
3073.97904,0.21229
3075.90751,0.19827
3077.83598,0.19297
3079.76445,0.20100
3081.69292,0.20602
3083.62139,0.19531
3085.54985,0.18043
3087.47832,0.18409
3089.40679,0.20193
3091.33526,0.21190
3093.26373,0.20613
3095.19220,0.19644
3097.12067,0.19520
3099.04914,0.19902
3100.97760,0.19963
3102.90607,0.19443
3104.83454,0.19268
3106.76301,0.19933
3108.69148,0.20532
3110.61995,0.20361
3112.54842,0.19839
3114.47688,0.20135
3116.40535,0.21221
3118.33382,0.21902
3120.26229,0.21475
3122.19076,0.20751
3124.11923,0.20893
3126.04770,0.21375
3127.97617,0.21567
3129.90463,0.21508
3131.83310,0.21237
3133.76157,0.21057
3135.69004,0.20890
3137.61851,0.20389
3139.54698,0.20238
3141.47545,0.21056
3143.40391,0.21805
3145.33238,0.21704
3147.26085,0.21293
3149.18932,0.21237
3151.11779,0.21556
3153.04626,0.21674
3154.97473,0.21393
3156.90320,0.21044
3158.83166,0.20860
3160.76013,0.21027
3162.68860,0.21576
3164.61707,0.21979
3166.54554,0.21943
3168.47401,0.21915
3170.40248,0.22002
3172.33094,0.22018
3174.25941,0.22000
3176.18788,0.21871
3178.11635,0.21862
3180.04482,0.22196
3181.97329,0.22357
3183.90176,0.22180
3185.83022,0.22194
3187.75869,0.22413
3189.68716,0.22279
3191.61563,0.21821
3193.54410,0.21352
3195.47257,0.20840
3197.40104,0.20724
3199.32951,0.21274
3201.25797,0.21785
3203.18644,0.21807
3205.11491,0.21607
3207.04338,0.21539
3208.97185,0.21614
3210.90032,0.21594
3212.82879,0.21671
3214.75725,0.22107
3216.68572,0.22025
3218.61419,0.21090
3220.54266,0.20541
3222.47113,0.20856
3224.39960,0.21438
3226.32807,0.21695
3228.25654,0.21369
3230.18500,0.20951
3232.11347,0.21047
3234.04194,0.21337
3235.97041,0.21157
3237.89888,0.20850
3239.82735,0.21125
3241.75582,0.21604
3243.68428,0.21545
3245.61275,0.21269
3247.54122,0.21416
3249.46969,0.21647
3251.39816,0.21500
3253.32663,0.21328
3255.25510,0.21459
3257.18357,0.21613
3259.11203,0.21536
3261.04050,0.21374
3262.96897,0.21346
3264.89744,0.21436
3266.82591,0.21543
3268.75438,0.21911
3270.68285,0.22444
3272.61131,0.22094
3274.53978,0.20751
3276.46825,0.19920
3278.39672,0.20370
3280.32519,0.21110
3282.25366,0.21248
3284.18213,0.21284
3286.11060,0.21530
3288.03906,0.21405
3289.96753,0.20772
3291.89600,0.20157
3293.82447,0.20219
3295.75294,0.20824
3297.68141,0.21104
3299.60988,0.20910
3301.53834,0.20672
3303.46681,0.20433
3305.39528,0.20161
3307.32375,0.20066
3309.25222,0.20108
3311.18069,0.19817
3313.10916,0.19490
3315.03763,0.19864
3316.96609,0.20516
3318.89456,0.20915
3320.82303,0.20906
3322.75150,0.20269
3324.67997,0.19751
3326.60844,0.20156
3328.53691,0.20908
3330.46537,0.21127
3332.39384,0.20901
3334.32231,0.20795
3336.25078,0.20912
3338.17925,0.21042
3340.10772,0.21150
3342.03619,0.21143
3343.96466,0.20915
3345.89312,0.20757
3347.82159,0.20970
3349.75006,0.21497
3351.67853,0.21897
3353.60700,0.21633
3355.53547,0.21011
3357.46394,0.20933
3359.39240,0.21380
3361.32087,0.21587
3363.24934,0.21597
3365.17781,0.21875
3367.10628,0.21943
3369.03475,0.21419
3370.96322,0.21140
3372.89168,0.21433
3374.82015,0.21531
3376.74862,0.21355
3378.67709,0.21408
3380.60556,0.21510
3382.53403,0.21216
3384.46250,0.20871
3386.39097,0.20845
3388.31943,0.20840
3390.24790,0.20766
3392.17637,0.20706
3394.10484,0.20774
3396.03331,0.21101
3397.96178,0.21424
3399.89025,0.21236
3401.81871,0.20518
3403.74718,0.20066
3405.67565,0.20338
3407.60412,0.20867
3409.53259,0.20877
3411.46106,0.20260
3413.38953,0.19935
3415.31800,0.20152
3417.24646,0.20419
3419.17493,0.20679
3421.10340,0.20802
3423.03187,0.20727
3424.96034,0.20463
3426.88881,0.19988
3428.81728,0.19931
3430.74574,0.20322
3432.67421,0.20414
3434.60268,0.20398
3436.53115,0.20677
3438.45962,0.20970
3440.38809,0.21056
3442.31656,0.20959
3444.24503,0.20789
3446.17349,0.20546
3448.10196,0.20049
3450.03043,0.19577
3451.95890,0.19587
3453.88737,0.19926
3455.81584,0.20168
3457.74431,0.20095
3459.67277,0.19845
3461.60124,0.19716
3463.52971,0.19698
3465.45818,0.19668
3467.38665,0.19754
3469.31512,0.19758
3471.24359,0.19206
3473.17206,0.18692
3475.10052,0.18888
3477.02899,0.18749
3478.95746,0.17945
3480.88593,0.17915
3482.81440,0.18701
3484.74287,0.19110
3486.67134,0.19091
3488.59980,0.19167
3490.52827,0.19215
3492.45674,0.18696
3494.38521,0.18117
3496.31368,0.18176
3498.24215,0.18472
3500.17062,0.18585
3502.09909,0.18532
3504.02755,0.18513
3505.95602,0.18449
3507.88449,0.18314
3509.81296,0.18238
3511.74143,0.18039
3513.66990,0.17934
3515.59837,0.18171
3517.52683,0.18524
3519.45530,0.18609
3521.38377,0.18449
3523.31224,0.18698
3525.24071,0.19276
3527.16918,0.19081
3529.09765,0.17966
3531.02611,0.17179
3532.95458,0.17020
3534.88305,0.16921
3536.81152,0.17094
3538.73999,0.17634
3540.66846,0.17823
3542.59693,0.17448
3544.52540,0.17153
3546.45386,0.17120
3548.38233,0.16845
3550.31080,0.16576
3552.23927,0.16664
3554.16774,0.16679
3556.09621,0.16363
3558.02468,0.16094
3559.95314,0.16084
3561.88161,0.16099
3563.81008,0.16052
3565.73855,0.16250
3567.66702,0.16717
3569.59549,0.17046
3571.52396,0.17066
3573.45243,0.16550
3575.38089,0.15874
3577.30936,0.15806
3579.23783,0.15965
3581.16630,0.16014
3583.09477,0.16549
3585.02324,0.17218
3586.95171,0.16782
3588.88017,0.15625
3590.80864,0.15408
3592.73711,0.15873
3594.66558,0.15911
3596.59405,0.15665
3598.52252,0.16326
3600.45099,0.17255
3602.37946,0.17086
3604.30792,0.16279
3606.23639,0.15835
3608.16486,0.15828
3610.09333,0.15968
3612.02180,0.15980
3613.95027,0.15620
3615.87874,0.15367
3617.80720,0.15610
3619.73567,0.15896
3621.66414,0.15660
3623.59261,0.15122
3625.52108,0.14965
3627.44955,0.15626
3629.37802,0.16224
3631.30649,0.15981
3633.23495,0.15539
3635.16342,0.15005
3637.09189,0.14828
3639.02036,0.14870
3640.94883,0.14653
3642.87730,0.14441
3644.80577,0.14708
3646.73423,0.15595
3648.66270,0.15836
3650.59117,0.14387
3652.51964,0.13815
3654.44811,0.14076
3656.37658,0.14210
3658.30505,0.14081
3660.23352,0.13901
3662.16198,0.13696
3664.09045,0.13531
3666.01892,0.13662
3667.94739,0.14210
3669.87586,0.14769
3671.80433,0.15189
3673.73280,0.15588
3675.66126,0.15357
3677.58973,0.14716
3679.51820,0.14391
3681.44667,0.14252
3683.37514,0.14276
3685.30361,0.14628
3687.23208,0.15360
3689.16055,0.15661
3691.08901,0.14631
3693.01748,0.13594
3694.94595,0.13344
3696.87442,0.13403
3698.80289,0.13449
3700.73136,0.13494
3702.65983,0.13254
3704.58829,0.13028
3706.51676,0.13142
3708.44523,0.13157
3710.37370,0.13029
3712.30217,0.13144
3714.23064,0.13055
3716.15911,0.12787
3718.08757,0.12967
3720.01604,0.13792
3721.94451,0.14493
3723.87298,0.14619
3725.80145,0.14607
3727.72992,0.14188
3729.65839,0.13601
3731.58686,0.13916
3733.51532,0.14987
3735.44379,0.15499
3737.37226,0.15281
3739.30073,0.14840
3741.22920,0.14680
3743.15767,0.14819
3745.08614,0.14304
3747.01460,0.13639
3748.94307,0.14244
3750.87154,0.15322
3752.80001,0.14857
3754.72848,0.14061
3756.65695,0.14031
3758.58542,0.14515
3760.51389,0.14634
3762.44235,0.14362
3764.37082,0.14216
3766.29929,0.13916
3768.22776,0.13303
3770.15623,0.12767
3772.08470,0.12613
3774.01317,0.12651
3775.94163,0.12746
3777.87010,0.12982
3779.79857,0.12915
3781.72704,0.12455
3783.65551,0.12439
3785.58398,0.12940
3787.51245,0.13314
3789.44092,0.13232
3791.36938,0.12984
3793.29785,0.13137
3795.22632,0.13522
3797.15479,0.13219
3799.08326,0.12350
3801.01173,0.12039
3802.94020,0.12359
3804.86866,0.12418
3806.79713,0.12475
3808.72560,0.12725
3810.65407,0.12742
3812.58254,0.12548
3814.51101,0.12429
3816.43948,0.12545
3818.36795,0.13110
3820.29641,0.13768
3822.22488,0.13348
3824.15335,0.12523
3826.08182,0.12012
3828.01029,0.11753
3829.93876,0.11999
3831.86723,0.12624
3833.79569,0.12999
3835.72416,0.12863
3837.65263,0.12608
3839.58110,0.12507
3841.50957,0.12625
3843.43804,0.12506
3845.36651,0.12131
3847.29498,0.12272
3849.22344,0.13147
3851.15191,0.14724
3853.08038,0.15657
3855.00885,0.13849
3856.93732,0.12799
3858.86579,0.13024
3860.79426,0.13688
3862.72272,0.14258
3864.65119,0.13826
3866.57966,0.12702
3868.50813,0.12160
3870.43660,0.12269
3872.36507,0.12441
3874.29354,0.12481
3876.22200,0.12253
3878.15047,0.12092
3880.07894,0.12371
3882.00741,0.12601
3883.93588,0.12405
3885.86435,0.12252
3887.79282,0.12249
3889.72129,0.12138
3891.64975,0.12124
3893.57822,0.12338
3895.50669,0.12434
3897.43516,0.12565
3899.36363,0.13320
3901.29210,0.14248
3903.22057,0.14113
3905.14903,0.13164
3907.07750,0.12173
3909.00597,0.11559
3910.93444,0.11571
3912.86291,0.11765
3914.79138,0.11700
3916.71985,0.11658
3918.64832,0.11738
3920.57678,0.11844
3922.50525,0.11852
3924.43372,0.11475
3926.36219,0.11098
3928.29066,0.10950
3930.21913,0.10950
3932.14760,0.11325
3934.07606,0.11737
3936.00453,0.11924
3937.93300,0.12120
3939.86147,0.12469
3941.78994,0.12652
3943.71841,0.12017
3945.64688,0.10879
3947.57535,0.10297
3949.50381,0.10849
3951.43228,0.11658
3953.36075,0.11615
3955.28922,0.11091
3957.21769,0.10862
3959.14616,0.10969
3961.07463,0.11006
3963.00309,0.10822
3964.93156,0.10858
3966.86003,0.11108
3968.78850,0.10776
3970.71697,0.10065
3972.64544,0.09740
3974.57391,0.09701
3976.50238,0.09753
3978.43084,0.09908
3980.35931,0.10072
3982.28778,0.10124
3984.21625,0.10032
3986.14472,0.09950
3988.07319,0.09939
3990.00166,0.10076
3991.93012,0.10497
3993.85859,0.10817
3995.78706,0.10770
3997.71553,0.10676
3999.64400,0.10559
4001.57247,0.10217
4003.50094,0.09799
4005.42941,0.09779
4007.35787,0.10141
4009.28634,0.10365
4011.21481,0.10460
4013.14328,0.10554
4015.07175,0.10514
4017.00022,0.10450
4018.92869,0.10457
4020.85715,0.10217
4022.78562,0.09606
4024.71409,0.09262
4026.64256,0.09566
4028.57103,0.09895
4030.49950,0.09975
4032.42797,0.10239
4034.35644,0.10550
4036.28490,0.10567
4038.21337,0.10463
4040.14184,0.10345
4042.07031,0.10245
4043.99878,0.10187
4045.92725,0.09773
4047.85572,0.09018
4049.78418,0.08843
4051.71265,0.09268
4053.64112,0.09473
4055.56959,0.09648
4057.49806,0.10141
4059.42653,0.10558
4061.35500,0.10314
4063.28346,0.09382
4065.21193,0.08869
4067.14040,0.09058
4069.06887,0.08975
4070.99734,0.08961
4072.92581,0.09478
4074.85428,0.09593
4076.78275,0.09175
4078.71121,0.09104
4080.63968,0.09415
4082.56815,0.09906
4084.49662,0.10612
4086.42509,0.10878
4088.35356,0.10369
4090.28203,0.09457
4092.21049,0.08728
4094.13896,0.08766
4096.06743,0.09128
4097.99590,0.09301
4099.92437,0.09411
4101.85284,0.09357
4103.78131,0.09319
4105.70978,0.09469
4107.63824,0.09329
4109.56671,0.08797
4111.49518,0.08585
4113.42365,0.08957
4115.35212,0.09258
4117.28059,0.09139
4119.20906,0.08943
4121.13752,0.08853
4123.06599,0.08863
4124.99446,0.09111
4126.92293,0.09303
4128.85140,0.09147
4130.77987,0.08985
4132.70834,0.08990
4134.63681,0.09087
4136.56527,0.09236
4138.49374,0.09221
4140.42221,0.08775
4142.35068,0.08067
4144.27915,0.07687
4146.20762,0.07551
4148.13609,0.07468
4150.06455,0.07978
4151.99302,0.08664
4153.92149,0.08713
4155.84996,0.08512
4157.77843,0.08469
4159.70690,0.08443
4161.63537,0.08263
4163.56384,0.08059
4165.49230,0.07922
4167.42077,0.07638
4169.34924,0.07632
4171.27771,0.08177
4173.20618,0.08403
4175.13465,0.08177
4177.06312,0.08095
4178.99158,0.07835
4180.92005,0.07413
4182.84852,0.07630
4184.77699,0.08340
4186.70546,0.08771
4188.63393,0.08492
4190.56240,0.07601
4192.49087,0.06833
4194.41933,0.06981
4196.34780,0.07682
4198.27627,0.07655
4200.20474,0.07005
4202.13321,0.06933
4204.06168,0.07366
4205.99015,0.07240
4207.91861,0.06553
4209.84708,0.06559
4211.77555,0.07264
4213.70402,0.07732
4215.63249,0.07816
4217.56096,0.07499
4219.48943,0.07117
4221.41789,0.07192
4223.34636,0.07487
4225.27483,0.07698
4227.20330,0.07934
4229.13177,0.08121
4231.06024,0.07963
4232.98871,0.07349
4234.91718,0.06892
4236.84564,0.07135
4238.77411,0.07394
4240.70258,0.07331
4242.63105,0.07311
4244.55952,0.07175
4246.48799,0.07023
4248.41646,0.07303
4250.34492,0.07561
4252.27339,0.07188
4254.20186,0.06813
4256.13033,0.06671
4258.05880,0.06293
4259.98727,0.06171
4261.91574,0.06211
4263.84421,0.05928
4265.77267,0.06135
4267.70114,0.06727
4269.62961,0.06420
4271.55808,0.05665
4273.48655,0.05631
4275.41502,0.05701
4277.34349,0.05255
4279.27195,0.05025
4281.20042,0.05210
4283.12889,0.05511
4285.05736,0.06061
4286.98583,0.06688
4288.91430,0.06971
4290.84277,0.06921
4292.77124,0.07015
4294.69970,0.07390
4296.62817,0.07454
4298.55664,0.07103
4300.48511,0.06832
4302.41358,0.06523
4304.34205,0.05985
4306.27052,0.05514
4308.19898,0.05205
4310.12745,0.05303
4312.05592,0.05691
4313.98439,0.05427
4315.91286,0.04809
4317.84133,0.05035
4319.76980,0.05814
4321.69827,0.05963
4323.62673,0.05240
4325.55520,0.04494
4327.48367,0.04483
4329.41214,0.04975
4331.34061,0.05339
4333.26908,0.05345
4335.19755,0.05105
4337.12601,0.04922
4339.05448,0.04985
4340.98295,0.04965
4342.91142,0.04702
4344.83989,0.04522
4346.76836,0.04384
4348.69683,0.04455
4350.62530,0.05208
4352.55376,0.05819
4354.48223,0.05231
4356.41070,0.04221
4358.33917,0.03993
4360.26764,0.04262
4362.19611,0.04230
4364.12458,0.03909
4366.05304,0.03864
4367.98151,0.04339
4369.90998,0.04563
4371.83845,0.03784
4373.76692,0.03087
4375.69539,0.03694
4377.62386,0.04823
4379.55232,0.05414
4381.48079,0.05365
4383.40926,0.05007
4385.33773,0.05000
4387.26620,0.05105
4389.19467,0.04481
4391.12314,0.03756
4393.05161,0.03613
4394.98007,0.03887
4396.90854,0.04789
4398.83701,0.05841
4400.76548,0.05917
4402.69395,0.05157
4404.62242,0.04561
4406.55089,0.04357
4408.47935,0.04305
4410.40782,0.04233
4412.33629,0.04254
4414.26476,0.04506
4416.19323,0.04280
4418.12170,0.03638
4420.05017,0.03471
4421.97864,0.03710
4423.90710,0.03982
4425.83557,0.03818
4427.76404,0.03059
4429.69251,0.02512
4431.62098,0.02819
4433.54945,0.03442
4435.47792,0.03656
4437.40638,0.03687
4439.33485,0.03587
4441.26332,0.02963
4443.19179,0.02198
4445.12026,0.02127
4447.04873,0.02832
4448.97720,0.03700
4450.90567,0.03990
4452.83413,0.03398
4454.76260,0.02507
4456.69107,0.01980
4458.61954,0.02025
4460.54801,0.02437
4462.47648,0.02830
4464.40495,0.02846
4466.33341,0.02753
4468.26188,0.03203
4470.19035,0.03885
4472.11882,0.04301
4474.04729,0.04337
4475.97576,0.04029
4477.90423,0.03537
4479.83270,0.02882
4481.76116,0.02597
4483.68963,0.03082
4485.61810,0.03847
4487.54657,0.03974
4489.47504,0.03263
4491.40351,0.02673
4493.33198,0.02798
4495.26044,0.03260
4497.18891,0.03558
4499.11738,0.03615
4501.04585,0.03390
4502.97432,0.02968
4504.90279,0.02825
4506.83126,0.02700
4508.75973,0.02198
4510.68819,0.01830
4512.61666,0.02071
4514.54513,0.02737
4516.47360,0.03147
4518.40207,0.02696
4520.33054,0.01727
4522.25901,0.01103
4524.18747,0.01131
4526.11594,0.01768
4528.04441,0.02471
4529.97288,0.02509
4531.90135,0.01861
4533.82982,0.01125
4535.75829,0.01088
4537.68676,0.01752
4539.61522,0.02400
4541.54369,0.02530
4543.47216,0.02271
4545.40063,0.02047
4547.32910,0.02102
4549.25757,0.02372
4551.18604,0.01990
4553.11450,0.00910
4555.04297,0.00543
4556.97144,0.01067
4558.89991,0.01471
4560.82838,0.01865
4562.75685,0.02664
4564.68532,0.02745
4566.61378,0.01508
4568.54225,0.00266
4570.47072,-0.00154
4572.39919,0.00001
4574.32766,0.00527
4576.25613,0.01302
4578.18460,0.02110
4580.11307,0.02378
4582.04153,0.01606
4583.97000,0.00854
4585.89847,0.00995
4587.82694,0.01014
4589.75541,0.00625
4591.68388,0.00550
4593.61235,0.00671
4595.54081,0.00739
4597.46928,0.00838
4599.39775,0.00735
4601.32622,0.00624
4603.25469,0.01251
4605.18316,0.02137
4607.11163,0.02234
4609.04010,0.01915
4610.96856,0.01839
4612.89703,0.01488
4614.82550,0.00628
4616.75397,0.00241
4618.68244,0.00489
4620.61091,0.00749
4622.53938,0.00971
4624.46784,0.00988
4626.39631,0.00638
4628.32478,0.00440
4630.25325,0.00639
4632.18172,0.00809
4634.11019,0.01282
4636.03866,0.01978
4637.96713,0.01856
4639.89559,0.01940
4641.82406,0.03565
4643.75253,0.04965
4645.68100,0.04090
4647.60947,0.02135
4649.53794,0.01215
4651.46641,0.01277
4653.39487,0.01448
4655.32334,0.01264
4657.25181,0.00907
4659.18028,0.00712
4661.10875,0.00165
4663.03722,-0.00549
4664.96569,-0.00058
4666.89416,0.01298
4668.82262,0.01690
4670.75109,0.00841
4672.67956,0.00323
4674.60803,0.01191
4676.53650,0.02176
4678.46497,0.02225
4680.39344,0.02138
4682.32190,0.01895
4684.25037,0.01456
4686.17884,0.01352
4688.10731,0.01173
4690.03578,0.01052
4691.96425,0.01460
4693.89272,0.01723
4695.82119,0.01111
4697.74965,0.00077
4699.67812,-0.00293
4701.60659,-0.00269
4703.53506,-0.00752
4705.46353,-0.01288
4707.39200,-0.00964
4709.32047,0.00460
4711.24893,0.01946
4713.17740,0.02378
4715.10587,0.01866
4717.03434,0.00834
4718.96281,-0.00060
4720.89128,-0.00070
4722.81975,0.00632
4724.74821,0.00987
4726.67668,0.00741
4728.60515,0.00345
4730.53362,-0.00022
4732.46209,0.00099
4734.39056,0.00446
4736.31903,0.00196
4738.24750,0.00075
4740.17596,0.00491
4742.10443,0.00107
4744.03290,-0.00812
4745.96137,-0.00885
4747.88984,-0.00767
4749.81831,-0.01125
4751.74678,-0.00950
4753.67524,-0.00181
4755.60371,-0.00109
4757.53218,-0.00109
4759.46065,0.00961
4761.38912,0.01564
4763.31759,0.00879
4765.24606,0.00341
4767.17453,0.00243
4769.10299,-0.00076
4771.03146,-0.00244
4772.95993,0.00510
4774.88840,0.01380
4776.81687,0.01036
4778.74534,0.00197
4780.67381,0.00205
4782.60227,0.00709
4784.53074,0.00622
4786.45921,0.00447
4788.38768,0.00591
4790.31615,0.00057
4792.24462,-0.00277
4794.17309,0.00529
4796.10156,0.01381
4798.03002,0.02022
4799.95849,0.02681
4801.88696,0.02519
4803.81543,0.01803
4805.74390,0.02325
4807.67237,0.03302
4809.60084,0.02768
4811.52930,0.01847
4813.45777,0.02057
4815.38624,0.02390
4817.31471,0.01877
4819.24318,0.01331
4821.17165,0.01201
4823.10012,0.00862
4825.02859,0.00725
4826.95705,0.01590
4828.88552,0.01900
4830.81399,0.00989
4832.74246,0.00942
4834.67093,0.01848
4836.59940,0.02328
4838.52787,0.02915
4840.45633,0.03056
4842.38480,0.01771
4844.31327,0.00955
4846.24174,0.01132
4848.17021,0.01087
4850.09868,0.00844
4852.02715,0.00546
4853.95562,0.00439
4855.88408,0.00747
4857.81255,0.00993
4859.74102,0.00369
4861.66949,-0.00565
4863.59796,-0.00399
4865.52643,0.00152
4867.45490,-0.00358
4869.38336,-0.00489
4871.31183,0.01091
4873.24030,0.02264
4875.16877,0.01994
4877.09724,0.01299
4879.02571,0.00598
4880.95418,0.00011
4882.88265,-0.00298
4884.81111,-0.00444
4886.73958,-0.01102
4888.66805,-0.01150
4890.59652,0.00774
4892.52499,0.02463
4894.45346,0.01591
4896.38193,-0.00211
4898.31039,-0.00446
4900.23886,0.00516
4902.16733,0.01534
4904.09580,0.02060
4906.02427,0.01961
4907.95274,0.01659
4909.88121,0.01024
4911.80967,0.00051
4913.73814,-0.00405
4915.66661,0.00010
4917.59508,0.00711
4919.52355,0.01211
4921.45202,0.01260
4923.38049,0.01078
4925.30896,0.01308
4927.23742,0.02183
4929.16589,0.03284
4931.09436,0.03068
4933.02283,0.01203
4934.95130,0.00123
4936.87977,0.00620
4938.80824,0.01513
4940.73670,0.02337
4942.66517,0.02626
4944.59364,0.02191
4946.52211,0.01211
4948.45058,-0.00138
4950.37905,-0.00833
4952.30752,0.00142
4954.23599,0.02104
4956.16445,0.02856
4958.09292,0.01861
4960.02139,0.00935
4961.94986,0.00925
4963.87833,0.01422
4965.80680,0.02518
4967.73527,0.03237
4969.66373,0.02024
4971.59220,0.00248
4973.52067,0.00047
4975.44914,0.00997
4977.37761,0.01717
4979.30608,0.01956
4981.23455,0.02217
4983.16302,0.02033
4985.09148,0.01366
4987.01995,0.01082
4988.94842,0.01529
4990.87689,0.02741
4992.80536,0.03948
4994.73383,0.03888
4996.66230,0.02217
4998.59076,0.00878
5000.51923,0.01369
5002.44770,0.01824
5004.37617,0.01113
5006.30464,0.00889
5008.23311,0.01512
5010.16158,0.01896
5012.09005,0.02333
5014.01851,0.02810
5015.94698,0.02409
5017.87545,0.01748
5019.80392,0.01484
5021.73239,0.01053
5023.66086,0.00944
5025.58933,0.01956
5027.51779,0.02228
5029.44626,0.00689
5031.37473,-0.00680
5033.30320,-0.00600
5035.23167,0.01005
5037.16014,0.02780
5039.08861,0.02573
5041.01708,0.01014
5042.94554,0.00316
5044.87401,0.00989
5046.80248,0.01917
5048.73095,0.02640
5050.65942,0.03207
5052.58789,0.02850
5054.51636,0.02075
5056.44482,0.01886
5058.37329,0.02209
5060.30176,0.02277
5062.23023,0.01215
5064.15870,-0.00087
5066.08717,-0.00229
5068.01564,-0.00141
5069.94410,-0.01418
5071.87257,-0.02240
5073.80104,-0.00614
5075.72951,0.01429
5077.65798,0.02424
5079.58645,0.02521
5081.51492,0.01839
5083.44339,0.01326
5085.37185,0.01459
5087.30032,0.01851
5089.22879,0.01860
5091.15726,0.02252
5093.08573,0.04121
5095.01420,0.05750
5096.94267,0.04864
5098.87113,0.02063
5100.79960,0.00319
5102.72807,0.00595
5104.65654,0.00516
5106.58501,-0.00531
5108.51348,-0.00389
5110.44195,0.01339
5112.37042,0.02953
5114.29888,0.03173
5116.22735,0.02664
5118.15582,0.03208
5120.08429,0.04598
5122.01276,0.05949
5123.94123,0.07078
5125.86970,0.06313
5127.79816,0.03571
5129.72663,0.02170
5131.65510,0.03420
5133.58357,0.05169
5135.51204,0.05637
5137.44051,0.04486
5139.36898,0.02225
5141.29745,0.01158
5143.22591,0.02271
5145.15438,0.02930
5147.08285,0.01467
5149.01132,0.00263
5150.93979,0.01266
5152.86826,0.02771
5154.79673,0.03450
5156.72519,0.03683
5158.65366,0.03544
5160.58213,0.03523
5162.51060,0.04336
5164.43907,0.05654
5166.36754,0.06473
5168.29601,0.06183
5170.22448,0.05480
5172.15294,0.05336
5174.08141,0.05627
5176.00988,0.06269
5177.93835,0.05868
5179.86682,0.03407
5181.79529,0.01537
5183.72376,0.02258
5185.65222,0.04315
5187.58069,0.05744
5189.50916,0.05918
5191.43763,0.05337
5193.36610,0.04914
5195.29457,0.03924
5197.22304,0.02327
5199.15151,0.03089
5201.07997,0.05184
5203.00844,0.06012
5204.93691,0.06674
5206.86538,0.07332
5208.79385,0.07219
5210.72232,0.07331
5212.65079,0.07468
5214.57925,0.06926
5216.50772,0.07209
5218.43619,0.08879
5220.36466,0.09575
5222.29313,0.08160
5224.22160,0.05269
5226.15007,0.02493
5228.07854,0.01948
5230.00700,0.02875
5231.93547,0.03216
5233.86394,0.03373
5235.79241,0.04622
5237.72088,0.06043
5239.64935,0.07003
5241.57782,0.07654
5243.50628,0.06885
5245.43475,0.05101
5247.36322,0.04936
5249.29169,0.07056
5251.22016,0.08532
5253.14863,0.06796
5255.07710,0.03777
5257.00556,0.02344
5258.93403,0.02154
5260.86250,0.02401
5262.79097,0.02532
5264.71944,0.03451
5266.64791,0.05132
5268.57638,0.04831
5270.50485,0.02964
5272.43331,0.02271
5274.36178,0.03527
5276.29025,0.04906
5278.21872,0.05091
5280.14719,0.05625
5282.07566,0.06472
5284.00413,0.06247
5285.93259,0.05602
5287.86106,0.05632
5289.78953,0.05610
5291.71800,0.03944
5293.64647,0.02172
5295.57494,0.02308
5297.50341,0.03696
5299.43188,0.04415
5301.36034,0.03331
5303.28881,0.02936
5305.21728,0.05169
5307.14575,0.07541
5309.07422,0.08400
5311.00269,0.08805
5312.93116,0.08346
5314.85962,0.05564
5316.78809,0.02377
5318.71656,0.01403
5320.64503,0.01057
5322.57350,0.00585
5324.50197,0.01549
5326.43044,0.04097
5328.35891,0.06618
5330.28737,0.07246
5332.21584,0.06519
5334.14431,0.06120
5336.07278,0.06172
5338.00125,0.05988
5339.92972,0.05239
5341.85819,0.04264
5343.78665,0.04072
5345.71512,0.04485
5347.64359,0.03628
5349.57206,0.02180
5351.50053,0.02427
5353.42900,0.04610
5355.35747,0.06277
5357.28594,0.06784
5359.21440,0.07365
5361.14287,0.07859
5363.07134,0.07892
5364.99981,0.07476
5366.92828,0.06697
5368.85675,0.06395
5370.78522,0.07711
5372.71368,0.09852
5374.64215,0.10094
5376.57062,0.07721
5378.49909,0.05825
5380.42756,0.06350
5382.35603,0.08177
5384.28450,0.08751
5386.21297,0.05960
5388.14143,0.02697
5390.06990,0.02909
5391.99837,0.05433
5393.92684,0.07144
5395.85531,0.07489
5397.78378,0.07277
5399.71225,0.06310
5401.64071,0.05521
5403.56918,0.05077
5405.49765,0.04468
5407.42612,0.05248
5409.35459,0.06774
5411.28306,0.06956
5413.21153,0.07025
5415.13999,0.07721
5417.06846,0.07781
5418.99693,0.07113
5420.92540,0.06107
5422.85387,0.05312
5424.78234,0.05632
5426.71081,0.06892
5428.63928,0.07091
5430.56774,0.06200
5432.49621,0.07126
5434.42468,0.08909
5436.35315,0.07890
5438.28162,0.05457
5440.21009,0.04944
5442.13856,0.05697
5444.06702,0.05302
5445.99549,0.04440
5447.92396,0.04237
5449.85243,0.05055
5451.78090,0.06712
5453.70937,0.07390
5455.63784,0.06929
5457.56631,0.07735
5459.49477,0.10334
5461.42324,0.11724
5463.35171,0.10327
5465.28018,0.08296
5467.20865,0.07545
5469.13712,0.07127
5471.06559,0.06940
5472.99405,0.08053
5474.92252,0.07555
5476.85099,0.04437
5478.77946,0.04001
5480.70793,0.07129
5482.63640,0.09325
5484.56487,0.08502
5486.49334,0.07273
5488.42180,0.07132
5490.35027,0.06390
5492.27874,0.04089
5494.20721,0.02827
5496.13568,0.04171
5498.06415,0.06767
5499.99262,0.09185
5501.92108,0.10109
5503.84955,0.09421
5505.77802,0.08690
5507.70649,0.10077
5509.63496,0.11567
5511.56343,0.09649
5513.49190,0.05764
5515.42037,0.03266
5517.34883,0.03133
5519.27730,0.04531
5521.20577,0.06268
5523.13424,0.07449
5525.06271,0.08889
5526.99118,0.10343
5528.91965,0.09543
5530.84811,0.07566
5532.77658,0.06655
5534.70505,0.06257
5536.63352,0.06021
5538.56199,0.06155
5540.49046,0.06105
5542.41893,0.06705
5544.34740,0.08016
5546.27586,0.08093
5548.20433,0.06702
5550.13280,0.05397
5552.06127,0.05072
5553.98974,0.04232
5555.91821,0.02828
5557.84668,0.02453
5559.77514,0.01998
5561.70361,0.01447
5563.63208,0.02064
5565.56055,0.02703
5567.48902,0.02444
5569.41749,0.02664
5571.34596,0.04406
5573.27443,0.07039
5575.20289,0.08331
5577.13136,0.07065
5579.05983,0.05605
5580.98830,0.06259
5582.91677,0.07635
5584.84524,0.08072
5586.77371,0.08855
5588.70217,0.10469
5590.63064,0.10404
5592.55911,0.08021
5594.48758,0.07133
5596.41605,0.08424
5598.34452,0.08290
5600.27299,0.06797
5602.20145,0.06297
5604.12992,0.06768
5606.05839,0.06263
5607.98686,0.04554
5609.91533,0.03747
5611.84380,0.04224
5613.77227,0.04706
5615.70074,0.05015
5617.62920,0.05999
5619.55767,0.06612
5621.48614,0.06293
5623.41461,0.07909
5625.34308,0.11881
5627.27155,0.14658
5629.20002,0.13796
5631.12848,0.09791
5633.05695,0.05682
5634.98542,0.04837
5636.91389,0.06637
5638.84236,0.07966
5640.77083,0.07930
5642.69930,0.07658
5644.62777,0.07385
5646.55623,0.07575
5648.48470,0.09900
5650.41317,0.11324
5652.34164,0.08858
5654.27011,0.07781
5656.19858,0.10635
5658.12705,0.12314
5660.05551,0.11562
5661.98398,0.11764
5663.91245,0.11506
5665.84092,0.08394
5667.76939,0.06290
5669.69786,0.07211
5671.62633,0.07693
5673.55480,0.07801
5675.48326,0.10005
5677.41173,0.12217
5679.34020,0.12746
5681.26867,0.12589
5683.19714,0.10833
5685.12561,0.07838
5687.05408,0.06716
5688.98254,0.07669
5690.91101,0.08672
5692.83948,0.09992
5694.76795,0.11041
5696.69642,0.09803
5698.62489,0.07700
5700.55336,0.07835
5702.48183,0.08181
5704.41029,0.05884
5706.33876,0.04515
5708.26723,0.06142
5710.19570,0.07646
5712.12417,0.08253
5714.05264,0.09198
5715.98111,0.09880
5717.90957,0.08640
5719.83804,0.05883
5721.76651,0.04027
5723.69498,0.04674
5725.62345,0.07368
5727.55192,0.09082
5729.48039,0.08541
5731.40886,0.07965
5733.33732,0.08030
5735.26579,0.07964
5737.19426,0.07671
5739.12273,0.07697
5741.05120,0.07560
5742.97967,0.06988
5744.90814,0.07019
5746.83660,0.06982
5748.76507,0.06577
5750.69354,0.07274
5752.62201,0.09010
5754.55048,0.12062
5756.47895,0.15173
5758.40742,0.15336
5760.33588,0.14444
5762.26435,0.14178
5764.19282,0.12412
5766.12129,0.10151
5768.04976,0.09640
5769.97823,0.09340
5771.90670,0.06979
5773.83517,0.06128
5775.76363,0.10121
5777.69210,0.13520
5779.62057,0.11976
5781.54904,0.07815
5783.47751,0.04162
5785.40598,0.02541
5787.33445,0.03602
5789.26291,0.07417
5791.19138,0.10620
5793.11985,0.09738
5795.04832,0.07129
5796.97679,0.06996
5798.90526,0.08629
5800.83373,0.08108
5802.76220,0.05335
5804.69066,0.03090
5806.61913,0.01683
5808.54760,0.01530
5810.47607,0.02460
5812.40454,0.02290
5814.33301,0.03169
5816.26148,0.07214
5818.18994,0.10989
5820.11841,0.11231
5822.04688,0.08606
5823.97535,0.06330
5825.90382,0.06638
5827.83229,0.09655
5829.76076,0.13698
5831.68923,0.14981
5833.61769,0.10414
5835.54616,0.05465
5837.47463,0.08337
5839.40310,0.14997
5841.33157,0.16724
5843.26004,0.13527
5845.18851,0.10821
5847.11697,0.10773
5849.04544,0.10855
5850.97391,0.07950
5852.90238,0.04647
5854.83085,0.05670
5856.75932,0.10408
5858.68779,0.14266
5860.61626,0.15151
5862.54472,0.14155
5864.47319,0.11195
5866.40166,0.08854
5868.33013,0.11026
5870.25860,0.13364
5872.18707,0.11694
5874.11554,0.09373
5876.04400,0.09378
5877.97247,0.10180
5879.90094,0.11293
5881.82941,0.12698
5883.75788,0.11446
5885.68635,0.07822
5887.61482,0.07137
5889.54329,0.10599
5891.47175,0.12918
5893.40022,0.11901
5895.32869,0.09089
5897.25716,0.06717
5899.18563,0.07692
5901.11410,0.11163
5903.04257,0.13779
5904.97103,0.14695
5906.89950,0.14772
5908.82797,0.13612
5910.75644,0.10302
5912.68491,0.07355
5914.61338,0.06386
5916.54185,0.03443
5918.47032,-0.00146
5920.39878,0.02259
5922.32725,0.07994
5924.25572,0.11961
5926.18419,0.15615
5928.11266,0.17074
5930.04113,0.13940
5931.96960,0.08865
5933.89806,0.04731
5935.82653,0.07411
5937.75500,0.14857
5939.68347,0.16889
5941.61194,0.15338
5943.54041,0.15556
5945.46888,0.14066
5947.39734,0.11527
5949.32581,0.12770
5951.25428,0.15792
5953.18275,0.16218
5955.11122,0.13220
5957.03969,0.08320
5958.96816,0.05597
5960.89663,0.06443
5962.82509,0.05913
5964.75356,0.03309
5966.68203,0.03061
5968.61050,0.04543
5970.53897,0.05224
5972.46744,0.05442
5974.39591,0.05065
5976.32437,0.04348
5978.25284,0.05152
5980.18131,0.10191
5982.10978,0.15817
5984.03825,0.14950
5985.96672,0.10378
5987.89519,0.08985
5989.82366,0.09834
5991.75212,0.08745
5993.68059,0.07158
5995.60906,0.07954
5997.53753,0.08124
5999.46600,0.04896
6001.39447,-0.00348
6003.32294,-0.03570
6005.25140,-0.01846
6007.17987,0.03634
6009.10834,0.10306
6011.03681,0.14178
6012.96528,0.15876
6014.89375,0.19592
6016.82222,0.22563
6018.75069,0.21187
6020.67915,0.19224
6022.60762,0.17468
6024.53609,0.11842
6026.46456,0.03324
6028.39303,-0.02528
6030.32150,-0.00580
6032.24997,0.05491
6034.17843,0.09016
6036.10690,0.12382
6038.03537,0.14651
6039.96384,0.12285
6041.89231,0.10904
6043.82078,0.10963
6045.74925,0.09136
6047.67772,0.07666
6049.60618,0.07254
6051.53465,0.07978
6053.46312,0.10266
6055.39159,0.12171
6057.32006,0.12308
6059.24853,0.12222
6061.17700,0.12936
6063.10546,0.11766
6065.03393,0.11230
6066.96240,0.12582
6068.89087,0.10828
6070.81934,0.07559
6072.74781,0.04499
6074.67628,0.01640
6076.60475,0.02389
6078.53321,0.03890
6080.46168,0.01504
6082.39015,0.01100
6084.31862,0.06603
6086.24709,0.10058
6088.17556,0.09866
6090.10403,0.10573
6092.03249,0.08587
6093.96096,0.05471
6095.88943,0.08192
6097.81790,0.11567
6099.74637,0.07912
6101.67484,0.04850
6103.60331,0.10632
6105.53177,0.19551
6107.46024,0.23664
6109.38871,0.21339
6111.31718,0.15287
6113.24565,0.10112
6115.17412,0.08143
6117.10259,0.05212
6119.03106,0.01220
6120.95952,0.03605
6122.88799,0.10799
6124.81646,0.16144
6126.74493,0.18804
6128.67340,0.21238
6130.60187,0.21580
6132.53034,0.16578
6134.45880,0.10230
6136.38727,0.07975
6138.31574,0.08219
6140.24421,0.08371
6142.17268,0.11755
6144.10115,0.18092
6146.02962,0.19983
6147.95809,0.15402
6149.88655,0.07547
6151.81502,0.00281
6153.74349,-0.02718
6155.67196,-0.01106
6157.60043,0.03217
6159.52890,0.07624
6161.45737,0.10928
6163.38583,0.13142
6165.31430,0.10386
6167.24277,0.04525
6169.17124,0.03338
6171.09971,0.07689
6173.02818,0.13148
6174.95665,0.17007
6176.88512,0.15765
6178.81358,0.09024
6180.74205,0.04965
6182.67052,0.07745
6184.59899,0.13026
6186.52746,0.17094
6188.45593,0.17509
6190.38440,0.13450
6192.31286,0.08411
6194.24133,0.06070
6196.16980,0.07398
6198.09827,0.10152
6200.02674,0.09332
6201.95521,0.08696
6203.88368,0.15440
6205.81215,0.20468
6207.74061,0.16591
6209.66908,0.10650
6211.59755,0.06152
6213.52602,0.04357
6215.45449,0.06328
6217.38296,0.07857
6219.31143,0.08000
6221.23989,0.08460
6223.16836,0.09375
6225.09683,0.13711
6227.02530,0.17731
6228.95377,0.12124
6230.88224,0.01053
6232.81071,-0.01804
6234.73918,0.04367
6236.66764,0.10108
6238.59611,0.10883
6240.52458,0.06979
6242.45305,0.04180
6244.38152,0.05332
6246.30999,0.05800
6248.23846,0.04795
6250.16692,0.04600
6252.09539,0.05722
6254.02386,0.09656
6255.95233,0.12667
6257.88080,0.06705
6259.80927,-0.02485
6261.73774,-0.03396
6263.66621,0.01193
6265.59467,0.02502
6267.52314,0.01556
6269.45161,0.03745
6271.38008,0.08200
6273.30855,0.07985
6275.23702,-0.01612
6277.16549,-0.08202
6279.09395,-0.03956
6281.02242,0.00698
6282.95089,0.03947
6284.87936,0.10222
6286.80783,0.15573
6288.73630,0.15315
6290.66477,0.09968
6292.59323,0.03847
6294.52170,0.00064
6296.45017,-0.00245
6298.37864,0.01018
6300.30711,0.01879
6302.23558,0.00945
6304.16405,-0.02092
6306.09252,-0.01477
6308.02098,0.03515
6309.94945,0.06374
6311.87792,0.07201
6313.80639,0.09741
6315.73486,0.12905
6317.66333,0.15973
6319.59180,0.19773
6321.52026,0.19510
6323.44873,0.12366
6325.37720,0.05937
6327.30567,0.05597
6329.23414,0.08827
6331.16261,0.10770
6333.09108,0.09798
6335.01955,0.07257
6336.94801,0.05514
6338.87648,0.06336
6340.80495,0.07936
6342.73342,0.08719
6344.66189,0.08861
6346.59036,0.08352
6348.51883,0.11362
6350.44729,0.17135
6352.37576,0.16528
6354.30423,0.10948
6356.23270,0.06976
6358.16117,0.05480
6360.08964,0.06435
6362.01811,0.07988
6363.94658,0.08340
6365.87504,0.10245
6367.80351,0.12387
6369.73198,0.12339
6371.66045,0.11679
6373.58892,0.08441
6375.51739,0.05233
6377.44586,0.08786
6379.37432,0.17612
6381.30279,0.22432
6383.23126,0.16307
6385.15973,0.04766
6387.08820,-0.02528
6389.01667,-0.02464
6390.94514,0.03021
6392.87361,0.06284
6394.80207,0.05876
6396.73054,0.08884
6398.65901,0.13654
6400.58748,0.13572
6402.51595,0.08375
6404.44442,0.00913
6406.37289,-0.06555
6408.30135,-0.07720
6410.22982,-0.01035
6412.15829,0.07287
6414.08676,0.13406
6416.01523,0.14259
6417.94370,0.10464
6419.87217,0.08712
6421.80064,0.09894
6423.72910,0.11374
6425.65757,0.11804
6427.58604,0.10940
6429.51451,0.09744
6431.44298,0.10489
6433.37145,0.11629
6435.29992,0.08387
6437.22838,0.03828
6439.15685,0.02628
6441.08532,0.03413
6443.01379,0.05446
6444.94226,0.09257
6446.87073,0.14058
6448.79920,0.17604
6450.72766,0.17395
6452.65613,0.14085
6454.58460,0.09221
6456.51307,0.01192
6458.44154,-0.05778
6460.37001,-0.04321
6462.29848,-0.00391
6464.22695,-0.01083
6466.15541,0.00569
6468.08388,0.05715
6470.01235,0.06083
6471.94082,0.04048
6473.86929,0.04709
6475.79776,0.03355
6477.72623,-0.00387
6479.65469,0.02452
6481.58316,0.07832
6483.51163,0.05620
6485.44010,0.01646
6487.36857,0.02302
6489.29704,0.06610
6491.22551,0.09425
6493.15398,0.06438
6495.08244,0.02906
6497.01091,0.01061
6498.93938,-0.00017
6500.86785,0.04936
6502.79632,0.13294
6504.72479,0.15942
6506.65326,0.10845
6508.58172,0.01501
6510.51019,-0.01994
6512.43866,0.03678
6514.36713,0.07707
6516.29560,0.04926
6518.22407,0.01806
6520.15254,0.03704
6522.08101,0.06727
6524.00947,0.07925
6525.93794,0.12144
6527.86641,0.17345
6529.79488,0.16909
6531.72335,0.14876
6533.65182,0.13635
6535.58029,0.11036
6537.50875,0.11434
6539.43722,0.16003
6541.36569,0.18315
6543.29416,0.15144
6545.22263,0.11157
6547.15110,0.10610
6549.07957,0.08312
6551.00804,-0.00202
6552.93650,-0.05074
6554.86497,-0.00749
6556.79344,0.04621
6558.72191,0.07021
6560.65038,0.08514
6562.57885,0.10372
6564.50732,0.13132
6566.43578,0.18507
6568.36425,0.24115
6570.29272,0.21852
6572.22119,0.12805
6574.14966,0.06132
6576.07813,0.03695
6578.00660,0.05562
6579.93507,0.13030
6581.86353,0.20379
6583.79200,0.20389
6585.72047,0.12672
6587.64894,0.04000
6589.57741,0.02833
6591.50588,0.10062
6593.43435,0.18896
6595.36281,0.18011
6597.29128,0.07568
6599.21975,-0.01055
6601.14822,-0.01319
6603.07669,0.05664
6605.00516,0.10064
6606.93363,0.04216
6608.86210,-0.02987
6610.79056,0.00937
6612.71903,0.11606
6614.64750,0.16286
6616.57597,0.15592
6618.50444,0.18666
6620.43291,0.20336
6622.36138,0.09524
6624.28984,-0.07910
6626.21831,-0.13346
6628.14678,-0.01193
6630.07525,0.11247
6632.00372,0.08601
6633.93219,0.02308
6635.86066,0.06998
6637.78912,0.14211
6639.71759,0.11453
6641.64606,0.08920
6643.57453,0.11196
6645.50300,0.09946
6647.43147,0.06975
6649.35994,0.05893
6651.28841,0.03113
6653.21687,-0.00169
6655.14534,-0.00218
6657.07381,0.01034
6659.00228,0.03013
6660.93075,0.09671
6662.85922,0.14502
6664.78769,0.13910
6666.71615,0.15702
6668.64462,0.20415
6670.57309,0.18434
6672.50156,0.09135
6674.43003,0.07858
6676.35850,0.18585
6678.28697,0.27846
6680.21544,0.28056
6682.14390,0.22182
6684.07237,0.15476
6686.00084,0.10537
6687.92931,0.06020
6689.85778,0.03164
6691.78625,0.03100
6693.71472,0.02558
6695.64318,0.01375
6697.57165,0.02730
6699.50012,0.06599
6701.42859,0.12549
6703.35706,0.17878
6705.28553,0.15175
6707.21400,0.07878
6709.14247,0.11932
6711.07093,0.25228
6712.99940,0.27072
6714.92787,0.13883
6716.85634,-0.01032
6718.78481,-0.14765
6720.71328,-0.21804
6722.64175,-0.11327
6724.57021,0.02687
6726.49868,0.01825
6728.42715,-0.06722
6730.35562,-0.06842
6732.28409,0.00707
6734.21256,0.08895
6736.14103,0.15862
6738.06950,0.15216
6739.99796,0.09032
6741.92643,0.10120
6743.85490,0.14881
6745.78337,0.10118
6747.71184,0.03800
6749.64031,0.11040
6751.56878,0.22029
6753.49724,0.17624
6755.42571,0.04336
6757.35418,0.02836
6759.28265,0.13993
6761.21112,0.20470
6763.13959,0.16851
6765.06806,0.14146
6766.99653,0.15983
6768.92499,0.14985
6770.85346,0.07626
6772.78193,0.01795
6774.71040,-0.00629
6776.63887,-0.01290
6778.56734,0.02604
6780.49581,0.07750
6782.42427,0.09278
6784.35274,0.05878
6786.28121,0.01400
6788.20968,0.00645
6790.13815,0.03975
6792.06662,0.08997
6793.99509,0.10088
6795.92355,0.08320
6797.85202,0.06209
6799.78049,-0.00503
6801.70896,-0.10688
6803.63743,-0.12032
6805.56590,-0.00572
6807.49437,0.10070
6809.42284,0.15459
6811.35130,0.16338
6813.27977,0.06806
6815.20824,0.01658
6817.13671,0.14796
6819.06518,0.23320
6820.99365,0.15379
6822.92212,-0.00068
6824.85058,-0.13986
6826.77905,-0.13587
6828.70752,0.03269
6830.63599,0.12152
6832.56446,0.07559
6834.49293,0.08091
6836.42140,0.12160
6838.34987,0.09654
6840.27833,0.04236
6842.20680,0.00761
6844.13527,0.02146
6846.06374,0.10511
6847.99221,0.20892
6849.92068,0.23189
6851.84915,0.16024
6853.77761,0.05891
6855.70608,0.02997
6857.63455,0.08970
6859.56302,0.12743
6861.49149,0.14435
6863.41996,0.16401
6865.34843,0.14789
6867.27690,0.11430
6869.20536,0.10917
6871.13383,0.09619
6873.06230,0.04233
6874.99077,0.04090
6876.91924,0.13070
6878.84771,0.21522
6880.77618,0.22387
6882.70464,0.16001
6884.63311,0.07062
6886.56158,0.02856
6888.49005,0.02435
6890.41852,0.03267
6892.34699,0.09023
6894.27546,0.15714
6896.20393,0.17549
6898.13239,0.16299
6900.06086,0.16837
6901.98933,0.17732
6903.91780,0.14260
6905.84627,0.12638
6907.77474,0.19105
6909.70321,0.24241
6911.63167,0.24923
6913.56014,0.24719
6915.48861,0.22771
6917.41708,0.18287
6919.34555,0.14160
6921.27402,0.17598
6923.20249,0.24003
6925.13096,0.20412
6927.05942,0.10614
6928.98789,0.12003
6930.91636,0.19886
6932.84483,0.12404
6934.77330,0.02093
6936.70177,0.03233
6938.63024,0.08266
6940.55870,0.12387
6942.48717,0.20780
6944.41564,0.29566
6946.34411,0.23494
6948.27258,0.02547
6950.20105,-0.11049
6952.12952,-0.08144
6954.05799,-0.00381
6955.98645,0.04695
6957.91492,0.11212
6959.84339,0.16739
6961.77186,0.09696
6963.70033,-0.06324
6965.62880,-0.09574
6967.55727,0.06390
6969.48573,0.20871
6971.41420,0.15710
6973.34267,-0.01824
6975.27114,-0.12268
6977.19961,-0.06318
6979.12808,0.03565
6981.05655,0.05440
6982.98501,0.07301
6984.91348,0.14995
6986.84195,0.15771
6988.77042,0.10602
6990.69889,0.10192
6992.62736,0.12189
6994.55583,0.10536
6996.48430,0.05082
6998.41276,0.00759
7000.34123,0.00291
7002.26970,0.02196
7004.19817,0.04961
7006.12664,0.07350
7008.05511,0.06579
7009.98358,0.02713
7011.91204,-0.02760
7013.84051,-0.09514
7015.76898,-0.10624
7017.69745,-0.01432
7019.62592,0.12784
7021.55439,0.19066
7023.48286,0.09904
7025.41133,-0.04110
7027.33979,-0.05716
7029.26826,0.10095
7031.19673,0.27662
7033.12520,0.33304
7035.05367,0.27150
7036.98214,0.18570
7038.91061,0.12034
7040.83907,0.07247
7042.76754,0.10901
7044.69601,0.20616
7046.62448,0.20270
7048.55295,0.12253
7050.48142,0.06023
7052.40989,0.01523
7054.33836,0.05385
7056.26682,0.17644
7058.19529,0.27847
7060.12376,0.31644
7062.05223,0.23445
7063.98070,0.09372
7065.90917,0.06818
7067.83764,0.09805
7069.76610,0.05546
7071.69457,0.01083
7073.62304,0.07670
7075.55151,0.13473
7077.47998,0.12031
7079.40845,0.10380
7081.33692,0.09815
7083.26539,0.05422
7085.19385,0.04073
7087.12232,0.08267
7089.05079,0.07209
7090.97926,0.02781
7092.90773,0.06184
7094.83620,0.14529
7096.76467,0.18459
7098.69313,0.19277
7100.62160,0.21225
7102.55007,0.19310
7104.47854,0.13812
7106.40701,0.15483
7108.33548,0.25591
7110.26395,0.28699
7112.19242,0.20166
7114.12088,0.11335
7116.04935,0.08082
7117.97782,0.05231
7119.90629,0.00560
7121.83476,0.04002
7123.76323,0.10328
7125.69170,0.03474
7127.62016,-0.08426
7129.54863,-0.10730
7131.47710,-0.06954
7133.40557,-0.00304
7135.33404,0.08745
7137.26251,0.11972
7139.19098,0.03076
7141.11944,-0.07667
7143.04791,-0.07224
7144.97638,0.04710
7146.90485,0.19754
7148.83332,0.23682
7150.76179,0.15486
7152.69026,0.10768
7154.61873,0.16501
7156.54719,0.16031
7158.47566,0.07629
7160.40413,0.04642
7162.33260,0.09119
7164.26107,0.16040
7166.18954,0.21956
7168.11801,0.22164
7170.04647,0.15344
7171.97494,0.03227
7173.90341,-0.00680
7175.83188,0.18831
7177.76035,0.35981
7179.68882,0.18565
7181.61729,-0.08362
7183.54576,-0.12387
7185.47422,-0.06217
7187.40269,-0.02323
7189.33116,0.03053
7191.25963,-0.01619
7193.18810,-0.12648
7195.11657,-0.05433
7197.04504,0.13346
7198.97350,0.24211
7200.90197,0.29334
7202.83044,0.32428
7204.75891,0.24709
7206.68738,0.06636
7208.61585,-0.06440
7210.54432,-0.04136
7212.47279,0.11585
7214.40125,0.25872
7216.32972,0.33587
7218.25819,0.33294
7220.18666,0.21855
7222.11513,0.14565
7224.04360,0.20092
7225.97207,0.28414
7227.90053,0.31866
7229.82900,0.24680
7231.75747,-0.01020
7233.68594,-0.12314
7235.61441,-0.04114
7237.54288,-0.04109
7239.47135,-0.03317
7241.39982,0.15991
7243.32828,0.27505
7245.25675,0.12180
7247.18522,-0.01196
7249.11369,-0.03558
7251.04216,-0.07337
7252.97063,-0.15915
7254.89910,-0.15810
7256.82756,-0.15339
7258.75603,-0.14623
7260.68450,-0.05322
7262.61297,0.00424
7264.54144,0.00494
7266.46991,-0.04834
7268.39838,-0.15749
7270.32685,-0.19265
7272.25531,-0.06302
7274.18378,0.12144
7276.11225,0.23735
7278.04072,0.25589
7279.96919,0.03904
7281.89766,-0.18753
7283.82613,-0.09589
7285.75459,0.06039
7287.68306,0.04008
7289.61153,-0.03282
7291.54000,0.04623
7293.46847,0.17092
7295.39694,0.18441
7297.32541,0.15719
7299.25387,0.15752
7301.18234,0.11803
7303.11081,0.07215
7305.03928,0.18942
7306.96775,0.42494
7308.89622,0.59886
7310.82469,0.59766
7312.75316,0.45254
7314.68162,0.33901
7316.61009,0.30130
7318.53856,0.19626
7320.46703,0.09297
7322.39550,0.07287
7324.32397,-0.01129
7326.25244,-0.18202
7328.18090,-0.25336
7330.10937,-0.16951
7332.03784,-0.07225
7333.96631,0.01665
7335.89478,0.03797
7337.82325,-0.01735
7339.75172,-0.06441
7341.68019,-0.10407
7343.60865,-0.12848
7345.53712,-0.02339
7347.46559,0.04181
7349.39406,-0.04366
7351.32253,0.00316
7353.25100,0.15775
7355.17947,0.16367
7357.10793,0.14073
7359.03640,0.09356
7360.96487,-0.09913
7362.89334,-0.26614
7364.82181,-0.33800
7366.75028,-0.23301
7368.67875,-0.01141
7370.60722,0.10841
7372.53568,0.13419
7374.46415,0.20049
7376.39262,0.22790
7378.32109,0.08093
7380.24956,-0.00197
7382.17803,0.05001
7384.10650,0.04192
7386.03496,0.06269
7387.96343,0.20209
7389.89190,0.23013
7391.82037,0.16432
7393.74884,0.05625
7395.67731,-0.11611
7397.60578,-0.11767
7399.53425,0.03739
7401.46271,0.01610
7403.39118,-0.18960
7405.31965,-0.22504
7407.24812,-0.05570
7409.17659,0.03889
7411.10506,0.01091
7413.03353,-0.03108
7414.96199,-0.04149
7416.89046,-0.01957
7418.81893,-0.01521
7420.74740,-0.03030
7422.67587,0.02741
7424.60434,0.07434
7426.53281,0.10884
7428.46128,0.15215
7430.38974,0.08745
7432.31821,-0.01800
7434.24668,0.01059
7436.17515,0.19360
7438.10362,0.41183
7440.03209,0.51604
7441.96056,0.40967
7443.88902,0.15978
7445.81749,0.05346
7447.74596,0.08962
7449.67443,0.00118
7451.60290,-0.23628
7453.53137,-0.32801
7455.45984,-0.24070
7457.38831,-0.10705
7459.31677,0.04235
7461.24524,0.11419
7463.17371,0.08164
7465.10218,0.02960
7467.03065,-0.04178
7468.95912,-0.16997
7470.88759,-0.21601
7472.81605,-0.09668
7474.74452,0.01091
7476.67299,0.11584
7478.60146,0.23927
7480.52993,0.35290
7482.45840,0.42304
7484.38687,0.35288
7486.31533,0.29398
7488.24380,0.32032
7490.17227,0.29707
7492.10074,0.22823
7494.02921,0.25691
7495.95768,0.34340
7497.88615,0.41825
