399.19301,1.08207
401.12148,0.76922
403.04995,0.72873
404.97842,0.40927
406.90689,0.19296
408.83536,0.14964
410.76382,0.21785
412.69229,0.27755
414.62076,0.23995
416.54923,0.14248
418.47770,-0.04926
420.40617,-0.19143
422.33464,-0.10950
424.26311,-0.02164
426.19157,-0.02172
428.12004,0.02388
430.04851,0.14257
431.97698,0.18723
433.90545,0.15673
435.83392,0.15594
437.76239,0.19030
439.69085,0.18575
441.61932,0.08125
443.54779,-0.03887
445.47626,-0.06281
447.40473,-0.02574
449.33320,0.01076
451.26167,0.05109
453.19013,0.10783
455.11860,0.14036
457.04707,0.15873
458.97554,0.19037
460.90401,0.19412
462.83248,0.17902
464.76095,0.15645
466.68942,0.13609
468.61788,0.13259
470.54635,0.10839
472.47482,0.03639
474.40329,-0.01421
476.33176,0.02989
478.26023,0.10602
480.18870,0.15859
482.11716,0.14965
484.04563,0.10299
485.97410,0.08088
487.90257,0.06329
489.83104,0.04065
491.75951,0.06403
493.68798,0.10211
495.61645,0.08804
497.54491,0.03894
499.47338,0.01520
501.40185,0.04347
503.33032,0.08729
505.25879,0.11093
507.18726,0.15913
509.11573,0.22731
511.04419,0.23485
512.97266,0.17678
514.90113,0.10691
516.82960,0.05959
518.75807,0.05081
520.68654,0.05364
522.61501,0.05293
524.54348,0.08495
526.47194,0.12558
528.40041,0.12540
530.32888,0.10131
532.25735,0.07966
534.18582,0.08333
536.11429,0.09711
538.04276,0.07434
539.97122,0.02520
541.89969,0.00348
543.82816,0.03131
545.75663,0.05772
547.68510,0.05002
549.61357,0.06188
551.54204,0.12084
553.47051,0.18571
555.39897,0.20621
557.32744,0.16775
559.25591,0.13009
561.18438,0.12057
563.11285,0.11172
565.04132,0.11161
566.96979,0.13885
568.89825,0.15539
570.82672,0.11773
572.75519,0.06116
574.68366,0.03779
576.61213,0.05564
578.54060,0.10116
580.46907,0.14363
582.39754,0.15907
584.32600,0.15885
586.25447,0.15592
588.18294,0.16197
590.11141,0.17775
592.03988,0.18206
593.96835,0.16975
595.89682,0.15125
597.82528,0.13055
599.75375,0.11883
601.68222,0.11729
603.61069,0.09798
605.53916,0.07224
607.46763,0.06517
609.39610,0.06369
611.32456,0.07820
613.25303,0.12115
615.18150,0.17043
617.10997,0.18231
619.03844,0.15105
620.96691,0.13127
622.89538,0.13509
624.82385,0.13303
626.75231,0.11746
628.68078,0.10643
630.60925,0.12388
632.53772,0.14917
634.46619,0.13178
636.39466,0.09365
638.32313,0.08902
640.25159,0.11136
642.18006,0.13353
644.10853,0.15050
646.03700,0.15891
647.96547,0.14840
649.89394,0.12320
651.82241,0.11715
653.75088,0.14187
655.67934,0.15856
657.60781,0.14739
659.53628,0.13134
661.46475,0.12203
663.39322,0.11843
665.32169,0.11634
667.25016,0.11100
669.17862,0.11665
671.10709,0.13130
673.03556,0.13520
674.96403,0.13575
676.89250,0.14942
678.82097,0.15882
680.74944,0.13813
682.67791,0.11389
684.60637,0.11807
686.53484,0.13599
688.46331,0.14513
690.39178,0.14424
692.32025,0.14148
694.24872,0.14467
696.17719,0.14935
698.10565,0.14497
700.03412,0.13280
701.96259,0.12889
703.89106,0.13789
705.81953,0.14814
707.74800,0.15463
709.67647,0.15167
711.60494,0.13875
713.53340,0.12852
715.46187,0.12709
717.39034,0.12723
719.31881,0.12447
721.24728,0.12495
723.17575,0.13059
725.10422,0.13405
727.03268,0.12999
728.96115,0.12326
730.88962,0.12601
732.81809,0.13485
734.74656,0.12984
736.67503,0.11845
738.60350,0.12356
740.53197,0.13637
742.46043,0.14415
744.38890,0.14872
746.31737,0.14711
748.24584,0.13982
750.17431,0.12863
752.10278,0.11849
754.03125,0.11972
755.95971,0.12969
757.88818,0.13855
759.81665,0.13868
761.74512,0.12976
763.67359,0.12882
765.60206,0.14374
767.53053,0.15615
769.45900,0.15252
771.38746,0.13616
773.31593,0.11925
775.24440,0.11611
777.17287,0.12821
779.10134,0.14279
781.02981,0.14757
782.95828,0.14646
784.88674,0.15431
786.81521,0.16672
788.74368,0.16537
790.67215,0.15300
792.60062,0.14703
794.52909,0.14552
796.45756,0.13697
798.38602,0.13079
800.31449,0.13402
802.24296,0.14073
804.17143,0.14443
806.09990,0.14010
808.02837,0.13310
809.95684,0.12838
811.88531,0.12368
813.81377,0.11745
815.74224,0.10989
817.67071,0.10757
819.59918,0.11638
821.52765,0.13003
823.45612,0.13607
825.38459,0.13720
827.31305,0.14325
829.24152,0.14258
831.16999,0.12891
833.09846,0.11874
835.02693,0.11640
836.95540,0.11674
838.88387,0.12208
840.81234,0.12477
842.74080,0.12282
844.66927,0.12715
846.59774,0.13434
848.52621,0.13923
850.45468,0.14280
852.38315,0.13691
854.31162,0.12717
856.24008,0.13333
858.16855,0.14763
860.09702,0.15015
862.02549,0.14619
863.95396,0.14812
865.88243,0.15347
867.81090,0.16593
869.73937,0.18723
871.66783,0.18480
873.59630,0.15935
875.52477,0.15073
877.45324,0.14839
879.38171,0.14104
881.31018,0.14534
883.23865,0.15293
885.16711,0.15105
887.09558,0.14228
889.02405,0.13841
890.95252,0.14700
892.88099,0.15691
894.80946,0.15977
896.73793,0.16168
898.66640,0.16266
900.59486,0.15932
902.52333,0.15049
904.45180,0.14071
906.38027,0.14047
908.30874,0.14368
910.23721,0.14240
912.16568,0.14132
914.09414,0.14197
916.02261,0.13991
917.95108,0.13573
919.87955,0.13884
921.80802,0.14701
923.73649,0.14922
925.66496,0.14619
927.59343,0.14282
929.52189,0.13891
931.45036,0.13715
933.37883,0.14060
935.30730,0.14331
937.23577,0.14073
939.16424,0.13637
941.09271,0.13254
943.02117,0.12706
944.94964,0.12756
946.87811,0.14126
948.80658,0.15165
950.73505,0.14724
952.66352,0.13968
954.59199,0.14016
956.52045,0.14769
958.44892,0.15335
960.37739,0.15118
962.30586,0.14665
964.23433,0.14306
966.16280,0.13950
968.09127,0.14448
970.01974,0.15873
971.94820,0.16411
973.87667,0.15286
975.80514,0.14169
977.73361,0.14110
979.66208,0.14350
981.59055,0.14628
983.51902,0.15241
985.44748,0.15624
987.37595,0.15350
989.30442,0.14897
991.23289,0.14377
993.16136,0.13826
995.08983,0.13797
997.01830,0.14042
998.94677,0.13936
1000.87523,0.13781
1002.80370,0.13549
1004.73217,0.13140
1006.66064,0.13462
1008.58911,0.14339
1010.51758,0.14907
1012.44605,0.15424
1014.37451,0.15945
1016.30298,0.15651
1018.23145,0.14904
1020.15992,0.14893
1022.08839,0.15097
1024.01686,0.14936
1025.94533,0.15566
1027.87380,0.17805
1029.80226,0.19193
1031.73073,0.17415
1033.65920,0.15108
1035.58767,0.14584
1037.51614,0.14659
1039.44461,0.14211
1041.37308,0.13895
1043.30154,0.14533
1045.23001,0.15462
1047.15848,0.16003
1049.08695,0.16001
1051.01542,0.15290
1052.94389,0.14420
1054.87236,0.14359
1056.80083,0.14978
1058.72929,0.15400
1060.65776,0.15738
1062.58623,0.16262
1064.51470,0.16147
1066.44317,0.15462
1068.37164,0.15839
1070.30011,0.17041
1072.22857,0.17287
1074.15704,0.16804
1076.08551,0.16413
1078.01398,0.15607
1079.94245,0.14623
1081.87092,0.14551
1083.79939,0.15317
1085.72786,0.16386
1087.65632,0.17403
1089.58479,0.17733
1091.51326,0.17196
1093.44173,0.16349
1095.37020,0.16112
1097.29867,0.16758
1099.22714,0.17551
1101.15560,0.17899
1103.08407,0.17556
1105.01254,0.16840
1106.94101,0.16173
1108.86948,0.15748
1110.79795,0.15798
1112.72642,0.15600
1114.65489,0.14695
1116.58335,0.14104
1118.51182,0.14667
1120.44029,0.16023
1122.36876,0.16813
1124.29723,0.16398
1126.22570,0.15717
1128.15417,0.15436
1130.08263,0.15116
1132.01110,0.14613
1133.93957,0.14535
1135.86804,0.14951
1137.79651,0.15225
1139.72498,0.15275
1141.65345,0.15444
1143.58191,0.15823
1145.51038,0.16390
1147.43885,0.16866
1149.36732,0.16887
1151.29579,0.16405
1153.22426,0.15822
1155.15273,0.15677
1157.08120,0.16015
1159.00966,0.16644
1160.93813,0.17044
1162.86660,0.16603
1164.79507,0.15902
1166.72354,0.15976
1168.65201,0.16391
1170.58048,0.16287
1172.50894,0.16383
1174.43741,0.17020
1176.36588,0.17055
1178.29435,0.16422
1180.22282,0.16082
1182.15129,0.16238
1184.07976,0.16542
1186.00823,0.16614
1187.93669,0.16502
1189.86516,0.16641
1191.79363,0.16928
1193.72210,0.16980
1195.65057,0.16777
1197.57904,0.16611
1199.50751,0.16534
1201.43597,0.16246
1203.36444,0.16178
1205.29291,0.16763
1207.22138,0.17105
1209.14985,0.16597
1211.07832,0.16004
1213.00679,0.15874
1214.93526,0.15851
1216.86372,0.15959
1218.79219,0.16585
1220.72066,0.17270
1222.64913,0.17429
1224.57760,0.17312
1226.50607,0.17140
1228.43454,0.16756
1230.36300,0.16512
1232.29147,0.16605
1234.21994,0.16402
1236.14841,0.15772
1238.07688,0.15211
1240.00535,0.15057
1241.93382,0.15462
1243.86229,0.16015
1245.79075,0.15991
1247.71922,0.15574
1249.64769,0.15460
1251.57616,0.15329
1253.50463,0.14969
1255.43310,0.14959
1257.36157,0.15019
1259.29003,0.14698
1261.21850,0.14614
1263.14697,0.15119
1265.07544,0.15818
1267.00391,0.16380
1268.93238,0.16530
1270.86085,0.16407
1272.78932,0.16391
1274.71778,0.16346
1276.64625,0.16169
1278.57472,0.16161
1280.50319,0.16099
1282.43166,0.15854
1284.36013,0.16125
1286.28860,0.16635
1288.21706,0.16549
1290.14553,0.16182
1292.07400,0.15997
1294.00247,0.15901
1295.93094,0.15705
1297.85941,0.15341
1299.78788,0.14619
1301.71634,0.13056
1303.64481,0.11334
1305.57328,0.11740
1307.50175,0.14322
1309.43022,0.16414
1311.35869,0.17106
1313.28716,0.17376
1315.21563,0.17781
1317.14409,0.18205
1319.07256,0.18124
1321.00103,0.17520
1322.92950,0.17035
1324.85797,0.16670
1326.78644,0.16230
1328.71491,0.15928
1330.64337,0.15616
1332.57184,0.15458
1334.50031,0.15775
1336.42878,0.16240
1338.35725,0.16698
1340.28572,0.16789
1342.21419,0.20861
1344.14266,0.32400
1346.07112,0.38774
1347.99959,0.29851
1349.92806,0.18761
1351.85653,0.15530
1353.78500,0.15316
1355.71347,0.15435
1357.64194,0.15939
1359.57040,0.16569
1361.49887,0.17407
1363.42734,0.17648
1365.35581,0.17220
1367.28428,0.17137
1369.21275,0.17356
1371.14122,0.17627
1373.06969,0.18267
1374.99815,0.18939
1376.92662,0.18857
1378.85509,0.18333
1380.78356,0.18043
1382.71203,0.18091
1384.64050,0.18521
1386.56897,0.19155
1388.49743,0.18987
1390.42590,0.18066
1392.35437,0.17582
1394.28284,0.18059
1396.21131,0.18935
1398.13978,0.19308
1400.06825,0.18908
1401.99672,0.18446
1403.92518,0.18584
1405.85365,0.18638
1407.78212,0.17952
1409.71059,0.17435
1411.63906,0.17666
1413.56753,0.18108
1415.49600,0.18624
1417.42446,0.19217
1419.35293,0.18935
1421.28140,0.18136
1423.20987,0.18119
1425.13834,0.18362
1427.06681,0.18274
1428.99528,0.18327
1430.92375,0.18688
1432.85221,0.19169
1434.78068,0.19701
1436.70915,0.19630
1438.63762,0.18790
1440.56609,0.18069
1442.49456,0.17741
1444.42303,0.18041
1446.35149,0.18665
1448.27996,0.18966
1450.20843,0.18913
1452.13690,0.18748
1454.06537,0.19141
1455.99384,0.20986
1457.92231,0.22229
1459.85077,0.20615
1461.77924,0.19398
1463.70771,0.19307
1465.63618,0.19270
1467.56465,0.18987
1469.49312,0.19363
1471.42159,0.20364
1473.35006,0.20670
1475.27852,0.19880
1477.20699,0.19356
1479.13546,0.19199
1481.06393,0.18990
1482.99240,0.18705
1484.92087,0.18773
1486.84934,0.19742
1488.77780,0.21315
1490.70627,0.21310
1492.63474,0.19997
1494.56321,0.19545
1496.49168,0.20192
1498.42015,0.20655
1500.34862,0.20408
1502.27709,0.19935
1504.20555,0.19782
1506.13402,0.20929
1508.06249,0.21763
1509.99096,0.20798
1511.91943,0.20356
1513.84790,0.20715
1515.77637,0.21355
1517.70483,0.21669
1519.63330,0.22034
1521.56177,0.22937
1523.49024,0.23392
1525.41871,0.22977
1527.34718,0.21813
1529.27565,0.20683
1531.20412,0.20460
1533.13258,0.20664
1535.06105,0.20559
1536.98952,0.21200
1538.91799,0.23260
1540.84646,0.24208
1542.77493,0.22632
1544.70340,0.20962
1546.63186,0.19432
1548.56033,0.18778
1550.48880,0.18773
1552.41727,0.18925
1554.34574,0.19821
1556.27421,0.21519
1558.20268,0.22909
1560.13115,0.21736
1562.05961,0.20525
1563.98808,0.20152
1565.91655,0.20041
1567.84502,0.20149
1569.77349,0.20066
1571.70196,0.19586
1573.63043,0.19511
1575.55889,0.20000
1577.48736,0.19916
1579.41583,0.19023
1581.34430,0.18200
1583.27277,0.17858
1585.20124,0.18067
1587.12971,0.18209
1589.05818,0.18038
1590.98664,0.17810
1592.91511,0.17564
1594.84358,0.17468
1596.77205,0.17549
1598.70052,0.17580
1600.62899,0.17668
1602.55746,0.17884
1604.48592,0.17903
1606.41439,0.17774
1608.34286,0.17893
1610.27133,0.18144
1612.19980,0.18297
1614.12827,0.18660
1616.05674,0.19418
1617.98521,0.19600
1619.91367,0.19205
1621.84214,0.19218
1623.77061,0.19614
1625.69908,0.20114
1627.62755,0.20527
1629.55602,0.20335
1631.48449,0.20041
1633.41295,0.20685
1635.34142,0.22175
1637.26989,0.22015
1639.19836,0.20788
1641.12683,0.20310
1643.05530,0.20557
1644.98377,0.21426
1646.91223,0.22455
1648.84070,0.22691
1650.76917,0.23397
1652.69764,0.24757
1654.62611,0.23065
1656.55458,0.20714
1658.48305,0.19843
1660.41152,0.19997
1662.33998,0.20540
1664.26845,0.20722
1666.19692,0.20725
1668.12539,0.21074
1670.05386,0.21424
1671.98233,0.21243
1673.91080,0.21024
1675.83926,0.20760
1677.76773,0.20465
1679.69620,0.20545
1681.62467,0.21286
1683.55314,0.22454
1685.48161,0.22227
1687.41008,0.21137
1689.33855,0.20311
1691.26701,0.19718
1693.19548,0.19837
1695.12395,0.20985
1697.05242,0.21935
1698.98089,0.21446
1700.90936,0.20663
1702.83783,0.20324
1704.76629,0.20032
1706.69476,0.19751
1708.62323,0.19619
1710.55170,0.19737
1712.48017,0.20328
1714.40864,0.21327
1716.33711,0.22028
1718.26558,0.21134
1720.19404,0.19666
1722.12251,0.18850
1724.05098,0.18471
1725.97945,0.18433
1727.90792,0.18831
1729.83639,0.19530
1731.76486,0.20355
1733.69332,0.21031
1735.62179,0.20571
1737.55026,0.19965
1739.47873,0.20224
1741.40720,0.20797
1743.33567,0.20959
1745.26414,0.20869
1747.19261,0.20896
1749.12107,0.21007
1751.04954,0.20435
1752.97801,0.19668
1754.90648,0.19455
1756.83495,0.19417
1758.76342,0.19319
1760.69189,0.19467
1762.62035,0.19704
1764.54882,0.19804
1766.47729,0.20162
1768.40576,0.20689
1770.33423,0.21038
1772.26270,0.21078
1774.19117,0.20467
1776.11964,0.19632
1778.04810,0.19107
1779.97657,0.18860
1781.90504,0.18761
1783.83351,0.18803
1785.76198,0.18685
1787.69045,0.18645
1789.61892,0.19269
1791.54738,0.20179
1793.47585,0.20266
1795.40432,0.19835
1797.33279,0.19731
1799.26126,0.19859
1801.18973,0.19633
1803.11820,0.19126
1805.04666,0.18997
1806.97513,0.19324
1808.90360,0.19738
1810.83207,0.19715
1812.76054,0.19261
1814.68901,0.19100
1816.61748,0.19593
1818.54595,0.20087
1820.47441,0.20172
1822.40288,0.20504
1824.33135,0.20528
1826.25982,0.19851
1828.18829,0.19727
1830.11676,0.19819
1832.04523,0.19445
1833.97369,0.19193
1835.90216,0.19196
1837.83063,0.19151
1839.75910,0.19156
1841.68757,0.19526
1843.61604,0.20060
1845.54451,0.20075
1847.47298,0.19514
1849.40144,0.18964
1851.32991,0.18617
1853.25838,0.18467
1855.18685,0.18591
1857.11532,0.18920
1859.04379,0.19177
1860.97226,0.19073
1862.90072,0.18781
1864.82919,0.18891
1866.75766,0.19682
1868.68613,0.20401
1870.61460,0.20109
1872.54307,0.19575
1874.47154,0.19348
1876.40001,0.19081
1878.32847,0.18844
1880.25694,0.18935
1882.18541,0.19028
1884.11388,0.18904
1886.04235,0.18711
1887.97082,0.18616
1889.89929,0.18669
1891.82775,0.18812
1893.75622,0.18991
1895.68469,0.18972
1897.61316,0.18712
1899.54163,0.18644
1901.47010,0.18937
1903.39857,0.19100
1905.32704,0.18897
1907.25550,0.18786
1909.18397,0.18954
1911.11244,0.19190
1913.04091,0.19365
1914.96938,0.19358
1916.89785,0.19230
1918.82632,0.19153
1920.75478,0.19066
1922.68325,0.19057
1924.61172,0.19231
1926.54019,0.19328
1928.46866,0.19209
1930.39713,0.19047
1932.32560,0.18994
1934.25407,0.18826
1936.18253,0.18418
1938.11100,0.18145
1940.03947,0.18247
1941.96794,0.18483
1943.89641,0.18597
1945.82488,0.18669
1947.75335,0.18762
1949.68181,0.18756
1951.61028,0.18634
1953.53875,0.18533
1955.46722,0.18493
1957.39569,0.18523
1959.32416,0.18587
1961.25263,0.18549
1963.18110,0.18419
1965.10956,0.18441
1967.03803,0.18741
1968.96650,0.19056
1970.89497,0.19226
1972.82344,0.19209
1974.75191,0.18807
1976.68038,0.18259
1978.60884,0.18047
1980.53731,0.18266
1982.46578,0.18755
1984.39425,0.19215
1986.32272,0.19434
1988.25119,0.19527
1990.17966,0.19620
1992.10812,0.19613
1994.03659,0.19386
1995.96506,0.19082
1997.89353,0.18925
1999.82200,0.18875
2001.75047,0.18778
2003.67894,0.18773
2005.60741,0.18923
2007.53587,0.18918
2009.46434,0.18782
2011.39281,0.18829
2013.32128,0.18990
2015.24975,0.19008
2017.17822,0.18858
2019.10669,0.18676
2021.03515,0.18478
2022.96362,0.18368
2024.89209,0.18526
2026.82056,0.18678
2028.74903,0.18578
2030.67750,0.18582
2032.60597,0.18840
2034.53444,0.18910
2036.46290,0.18785
2038.39137,0.18896
2040.31984,0.19169
2042.24831,0.19406
2044.17678,0.19478
2046.10525,0.19176
2048.03372,0.18846
2049.96218,0.18914
2051.89065,0.19086
2053.81912,0.18959
2055.74759,0.18680
2057.67606,0.18644
2059.60453,0.18747
2061.53300,0.18832
2063.46147,0.18984
2065.38993,0.19040
2067.31840,0.19039
2069.24687,0.19084
2071.17534,0.19000
2073.10381,0.18911
2075.03228,0.18906
2076.96075,0.18684
2078.88921,0.18482
2080.81768,0.18671
2082.74615,0.18896
2084.67462,0.19049
2086.60309,0.19210
2088.53156,0.19223
2090.46003,0.19106
2092.38850,0.18997
2094.31696,0.19040
2096.24543,0.19159
2098.17390,0.19189
2100.10237,0.19125
2102.03084,0.18959
2103.95931,0.18796
2105.88778,0.18850
2107.81624,0.19112
2109.74471,0.19328
2111.67318,0.19244
2113.60165,0.19057
2115.53012,0.19134
2117.45859,0.19187
2119.38706,0.19081
2121.31553,0.19249
2123.24399,0.19522
2125.17246,0.19351
2127.10093,0.18858
2129.02940,0.18657
2130.95787,0.18922
2132.88634,0.18881
2134.81481,0.18331
2136.74327,0.18230
2138.67174,0.18416
2140.60021,0.18434
2142.52868,0.18775
2144.45715,0.19213
2146.38562,0.19370
2148.31409,0.19348
2150.24255,0.19237
2152.17102,0.19124
2154.09949,0.18995
2156.02796,0.18875
2157.95643,0.18917
2159.88490,0.19148
2161.81337,0.19181
2163.74184,0.18915
2165.67030,0.18676
2167.59877,0.18579
2169.52724,0.18707
2171.45571,0.18961
2173.38418,0.19032
2175.31265,0.18907
2177.24112,0.18815
2179.16958,0.18864
2181.09805,0.18995
2183.02652,0.19221
2184.95499,0.19530
2186.88346,0.19645
2188.81193,0.19424
2190.74040,0.19126
2192.66887,0.18936
2194.59733,0.18858
2196.52580,0.18939
2198.45427,0.19029
2200.38274,0.18867
2202.31121,0.18589
2204.23968,0.18523
2206.16815,0.18747
2208.09661,0.19104
2210.02508,0.19277
2211.95355,0.19044
2213.88202,0.18654
2215.81049,0.18560
2217.73896,0.18768
2219.66743,0.19060
2221.59590,0.19269
2223.52436,0.19317
2225.45283,0.19313
2227.38130,0.19220
2229.30977,0.19024
2231.23824,0.18927
2233.16671,0.18915
2235.09518,0.18850
2237.02364,0.18750
2238.95211,0.18704
2240.88058,0.18708
2242.80905,0.18681
2244.73752,0.18720
2246.66599,0.18914
2248.59446,0.18990
2250.52293,0.18773
2252.45139,0.18508
2254.37986,0.18559
2256.30833,0.18937
2258.23680,0.19149
2260.16527,0.18909
2262.09374,0.18648
2264.02221,0.18744
2265.95067,0.18935
2267.87914,0.19037
2269.80761,0.19081
2271.73608,0.18918
2273.66455,0.18827
2275.59302,0.19083
2277.52149,0.19213
2279.44996,0.19112
2281.37842,0.19192
2283.30689,0.19354
2285.23536,0.19270
2287.16383,0.18950
2289.09230,0.18649
2291.02077,0.18558
2292.94924,0.18520
2294.87770,0.18280
2296.80617,0.17904
2298.73464,0.17713
2300.66311,0.17830
2302.59158,0.18030
2304.52005,0.18084
2306.44852,0.18079
2308.37699,0.18344
2310.30545,0.18682
2312.23392,0.18855
2314.16239,0.19239
2316.09086,0.19601
2318.01933,0.19340
2319.94780,0.18465
2321.87627,0.17685
2323.80473,0.17595
2325.73320,0.17787
2327.66167,0.18021
2329.59014,0.18122
2331.51861,0.17953
2333.44708,0.18510
2335.37555,0.19747
2337.30401,0.20197
2339.23248,0.19760
2341.16095,0.19213
2343.08942,0.18659
2345.01789,0.18361
2346.94636,0.18354
2348.87483,0.18642
2350.80330,0.19452
2352.73176,0.20351
2354.66023,0.20358
2356.58870,0.19565
2358.51717,0.19098
2360.44564,0.19184
2362.37411,0.17847
2364.30258,0.15877
2366.23104,0.16575
2368.15951,0.18494
2370.08798,0.19065
2372.01645,0.18647
2373.94492,0.17922
2375.87339,0.17486
2377.80186,0.17750
2379.73033,0.18367
2381.65879,0.18771
2383.58726,0.18789
2385.51573,0.18771
2387.44420,0.18984
2389.37267,0.19153
2391.30114,0.19117
2393.22961,0.19046
2395.15807,0.19007
2397.08654,0.19109
2399.01501,0.19302
2400.94348,0.19239
2402.87195,0.19068
2404.80042,0.19089
2406.72889,0.19170
2408.65736,0.19322
2410.58582,0.19463
2412.51429,0.19255
2414.44276,0.18945
2416.37123,0.18889
2418.29970,0.18786
2420.22817,0.18587
2422.15664,0.18638
2424.08510,0.18850
2426.01357,0.19058
2427.94204,0.19342
2429.87051,0.19587
2431.79898,0.19574
2433.72745,0.19443
2435.65592,0.19393
2437.58439,0.19326
2439.51285,0.19180
2441.44132,0.19076
2443.36979,0.19150
2445.29826,0.19303
2447.22673,0.19308
2449.15520,0.19184
2451.08367,0.19112
2453.01213,0.19156
2454.94060,0.19295
2456.86907,0.19348
2458.79754,0.19238
2460.72601,0.19210
2462.65448,0.19204
2464.58295,0.19138
2466.51142,0.19203
2468.43988,0.19278
2470.36835,0.19237
2472.29682,0.19204
2474.22529,0.19220
2476.15376,0.19154
2478.08223,0.18955
2480.01070,0.18880
2481.93916,0.19099
2483.86763,0.19302
2485.79610,0.19224
2487.72457,0.19036
2489.65304,0.19099
2491.58151,0.19390
2493.50998,0.19340
2495.43844,0.19004
2497.36691,0.18921
2499.29538,0.18964
2501.22385,0.18920
2503.15232,0.18945
2505.08079,0.19053
2507.00926,0.19087
2508.93773,0.19133
2510.86619,0.19252
2512.79466,0.19341
2514.72313,0.19483
2516.65160,0.19600
2518.58007,0.19461
2520.50854,0.19301
2522.43701,0.19377
2524.36547,0.19450
2526.29394,0.19389
2528.22241,0.19242
2530.15088,0.19027
2532.07935,0.18854
2534.00782,0.18703
2535.93629,0.18636
2537.86476,0.18776
2539.79322,0.18947
2541.72169,0.19094
2543.65016,0.19261
2545.57863,0.19287
2547.50710,0.19151
2549.43557,0.19039
2551.36404,0.19114
2553.29250,0.19275
2555.22097,0.19300
2557.14944,0.19243
2559.07791,0.19254
2561.00638,0.19402
2562.93485,0.19458
2564.86332,0.19196
2566.79179,0.19029
2568.72025,0.19304
2570.64872,0.19694
2572.57719,0.19737
2574.50566,0.19464
2576.43413,0.19206
2578.36260,0.19071
2580.29107,0.18998
2582.21953,0.18847
2584.14800,0.18776
2586.07647,0.19054
2588.00494,0.19246
2589.93341,0.19074
2591.86188,0.18975
2593.79035,0.19072
2595.71882,0.19182
2597.64728,0.19286
2599.57575,0.19389
2601.50422,0.19526
2603.43269,0.19656
2605.36116,0.19750
2607.28963,0.19882
2609.21810,0.19705
2611.14656,0.19062
2613.07503,0.18558
2615.00350,0.18563
2616.93197,0.18983
2618.86044,0.19468
2620.78891,0.19623
2622.71738,0.19557
2624.64585,0.19519
2626.57431,0.19475
2628.50278,0.19511
2630.43125,0.19713
2632.35972,0.19625
2634.28819,0.19197
2636.21666,0.19057
2638.14513,0.19232
2640.07359,0.19316
2642.00206,0.19217
2643.93053,0.19015
2645.85900,0.18788
2647.78747,0.18814
2649.71594,0.19192
2651.64441,0.19558
2653.57288,0.19700
2655.50134,0.19749
2657.42981,0.19980
2659.35828,0.20357
2661.28675,0.20410
2663.21522,0.20067
2665.14369,0.19739
2667.07216,0.19489
2669.00062,0.19189
2670.92909,0.18918
2672.85756,0.18770
2674.78603,0.18859
2676.71450,0.19190
2678.64297,0.19598
2680.57144,0.19760
2682.49990,0.19578
2684.42837,0.19429
2686.35684,0.19581
2688.28531,0.19900
2690.21378,0.19992
2692.14225,0.19871
2694.07072,0.19902
2695.99919,0.19952
2697.92765,0.19867
2699.85612,0.19814
2701.78459,0.19891
2703.71306,0.20109
2705.64153,0.20256
2707.57000,0.20140
2709.49847,0.19876
2711.42693,0.19609
2713.35540,0.19536
2715.28387,0.19731
2717.21234,0.19889
2719.14081,0.19759
2721.06928,0.19622
2722.99775,0.19683
2724.92622,0.19618
2726.85468,0.19555
2728.78315,0.19815
2730.71162,0.20113
2732.64009,0.20242
2734.56856,0.20171
2736.49703,0.19869
2738.42550,0.19786
2740.35396,0.20166
2742.28243,0.20399
2744.21090,0.20338
2746.13937,0.20298
2748.06784,0.20250
2749.99631,0.20356
2751.92478,0.20559
2753.85325,0.20461
2755.78171,0.20158
2757.71018,0.20013
2759.63865,0.20046
2761.56712,0.20145
2763.49559,0.20362
2765.42406,0.20540
2767.35253,0.20203
2769.28099,0.19544
2771.20946,0.19405
2773.13793,0.19764
2775.06640,0.19989
2776.99487,0.19964
2778.92334,0.19929
2780.85181,0.20152
2782.78028,0.20635
2784.70874,0.21086
2786.63721,0.21093
2788.56568,0.20642
2790.49415,0.20221
2792.42262,0.20124
2794.35109,0.20329
2796.27956,0.20545
2798.20802,0.20452
2800.13649,0.20213
2802.06496,0.20318
2803.99343,0.20772
2805.92190,0.20955
2807.85037,0.20690
2809.77884,0.20499
2811.70731,0.20590
2813.63577,0.20752
2815.56424,0.20782
2817.49271,0.20505
2819.42118,0.20224
2821.34965,0.20305
2823.27812,0.20579
2825.20659,0.21042
2827.13505,0.21485
2829.06352,0.21423
2830.99199,0.21075
2832.92046,0.20914
2834.84893,0.21096
2836.77740,0.21337
2838.70587,0.21114
2840.63433,0.20636
2842.56280,0.20540
2844.49127,0.20652
2846.41974,0.20525
2848.34821,0.20404
2850.27668,0.20507
2852.20515,0.20647
2854.13362,0.20759
2856.06208,0.20711
2857.99055,0.20440
2859.91902,0.20325
2861.84749,0.20513
2863.77596,0.20680
2865.70443,0.20764
2867.63290,0.20919
2869.56136,0.20913
2871.48983,0.20515
2873.41830,0.20027
2875.34677,0.19824
2877.27524,0.19973
2879.20371,0.20283
2881.13218,0.20332
2883.06065,0.20129
2884.98911,0.20196
2886.91758,0.20591
2888.84605,0.20921
2890.77452,0.20716
2892.70299,0.20176
2894.63146,0.20180
2896.55993,0.20693
2898.48839,0.20989
2900.41686,0.20732
2902.34533,0.20251
2904.27380,0.20071
2906.20227,0.20114
2908.13074,0.20276
2910.05921,0.20644
2911.98768,0.21093
2913.91614,0.21096
2915.84461,0.20196
2917.77308,0.19325
2919.70155,0.19315
2921.63002,0.19436
2923.55849,0.19242
2925.48696,0.18884
2927.41542,0.18789
2929.34389,0.19445
2931.27236,0.20339
2933.20083,0.20717
2935.12930,0.20211
2937.05777,0.19356
2938.98624,0.19402
2940.91471,0.20019
2942.84317,0.20210
2944.77164,0.19827
2946.70011,0.18901
2948.62858,0.18451
2950.55705,0.19212
2952.48552,0.20087
2954.41399,0.20076
2956.34245,0.19179
2958.27092,0.18539
2960.19939,0.19173
2962.12786,0.20154
2964.05633,0.20344
2965.98480,0.19702
2967.91327,0.19276
2969.84174,0.20132
2971.77020,0.21099
2973.69867,0.21022
2975.62714,0.20291
2977.55561,0.19386
2979.48408,0.19373
2981.41255,0.20245
2983.34102,0.20771
2985.26948,0.20715
2987.19795,0.20151
2989.12642,0.19894
2991.05489,0.20463
2992.98336,0.20770
2994.91183,0.20593
2996.84030,0.20645
2998.76877,0.21051
3000.69723,0.21481
3002.62570,0.21617
3004.55417,0.21237
3006.48264,0.20330
3008.41111,0.19548
3010.33958,0.18793
3012.26805,0.16756
3014.19651,0.13289
3016.12498,0.10655
3018.05345,0.11939
3019.98192,0.16425
3021.91039,0.19740
3023.83886,0.20501
3025.76733,0.20410
3027.69579,0.20530
3029.62426,0.21074
3031.55273,0.21470
3033.48120,0.21534
3035.40967,0.21674
3037.33814,0.21520
3039.26661,0.21161
3041.19508,0.21251
3043.12354,0.21493
3045.05201,0.20990
3046.98048,0.19912
3048.90895,0.19594
3050.83742,0.20120
3052.76589,0.20450
3054.69436,0.20110
3056.62282,0.19278
3058.55129,0.19209
3060.47976,0.20187
3062.40823,0.20698
3064.33670,0.20133
3066.26517,0.19518
3068.19364,0.20122
3070.12211,0.21255
3072.05057,0.21489
3073.97904,0.20902
3075.90751,0.20204
3077.83598,0.20249
3079.76445,0.20978
3081.69292,0.21308
3083.62139,0.20553
3085.54985,0.19554
3087.47832,0.19931
3089.40679,0.20959
3091.33526,0.20715
3093.26373,0.19271
3095.19220,0.18573
3097.12067,0.19542
3099.04914,0.20599
3100.97760,0.20344
3102.90607,0.19130
3104.83454,0.18592
3106.76301,0.19361
3108.69148,0.20261
3110.61995,0.20278
3112.54842,0.19712
3114.47688,0.19819
3116.40535,0.20496
3118.33382,0.20561
3120.26229,0.19825
3122.19076,0.19377
3124.11923,0.20226
3126.04770,0.21249
3127.97617,0.21260
3129.90463,0.20919
3131.83310,0.20884
3133.76157,0.20888
3135.69004,0.20679
3137.61851,0.20255
3139.54698,0.19778
3141.47545,0.19820
3143.40391,0.20311
3145.33238,0.20748
3147.26085,0.21093
3149.18932,0.21203
3151.11779,0.21059
3153.04626,0.20953
3154.97473,0.20950
3156.90320,0.20936
3158.83166,0.20853
3160.76013,0.20914
3162.68860,0.21181
3164.61707,0.21279
3166.54554,0.21245
3168.47401,0.21039
3170.40248,0.20636
3172.33094,0.20720
3174.25941,0.21165
3176.18788,0.21387
3178.11635,0.21609
3180.04482,0.21891
3181.97329,0.21830
3183.90176,0.21518
3185.83022,0.21459
3187.75869,0.21819
3189.68716,0.22231
3191.61563,0.22251
3193.54410,0.22003
3195.47257,0.21749
3197.40104,0.21436
3199.32951,0.21291
3201.25797,0.21472
3203.18644,0.21651
3205.11491,0.21775
3207.04338,0.21904
3208.97185,0.21859
3210.90032,0.21753
3212.82879,0.21755
3214.75725,0.21850
3216.68572,0.21882
3218.61419,0.21552
3220.54266,0.21066
3222.47113,0.20998
3224.39960,0.21266
3226.32807,0.21471
3228.25654,0.21642
3230.18500,0.21630
3232.11347,0.21324
3234.04194,0.21412
3235.97041,0.21925
3237.89888,0.21988
3239.82735,0.21622
3241.75582,0.21518
3243.68428,0.21990
3245.61275,0.22441
3247.54122,0.22234
3249.46969,0.21973
3251.39816,0.21968
3253.32663,0.21762
3255.25510,0.21446
3257.18357,0.21424
3259.11203,0.21594
3261.04050,0.21615
3262.96897,0.21670
3264.89744,0.21846
3266.82591,0.21793
3268.75438,0.21352
3270.68285,0.20920
3272.61131,0.20956
3274.53978,0.21203
3276.46825,0.21297
3278.39672,0.21374
3280.32519,0.21647
3282.25366,0.21856
3284.18213,0.21821
3286.11060,0.21652
3288.03906,0.21266
3289.96753,0.21098
3291.89600,0.21345
3293.82447,0.21152
3295.75294,0.20448
3297.68141,0.20013
3299.60988,0.20033
3301.53834,0.20481
3303.46681,0.21206
3305.39528,0.21675
3307.32375,0.21642
3309.25222,0.21333
3311.18069,0.21318
3313.10916,0.21720
3315.03763,0.21785
3316.96609,0.21260
3318.89456,0.21062
3320.82303,0.21451
3322.75150,0.21470
3324.67997,0.21066
3326.60844,0.20806
3328.53691,0.20680
3330.46537,0.20652
3332.39384,0.20711
3334.32231,0.20830
3336.25078,0.21164
3338.17925,0.21667
3340.10772,0.22068
3342.03619,0.22004
3343.96466,0.21087
3345.89312,0.20230
3347.82159,0.20585
3349.75006,0.21130
3351.67853,0.20794
3353.60700,0.20297
3355.53547,0.20256
3357.46394,0.20578
3359.39240,0.21023
3361.32087,0.21176
3363.24934,0.21170
3365.17781,0.21164
3367.10628,0.21010
3369.03475,0.21224
3370.96322,0.21545
3372.89168,0.21196
3374.82015,0.20880
3376.74862,0.21128
3378.67709,0.21033
3380.60556,0.20343
3382.53403,0.20006
3384.46250,0.20321
3386.39097,0.21049
3388.31943,0.21894
3390.24790,0.22220
3392.17637,0.21968
3394.10484,0.21627
3396.03331,0.21155
3397.96178,0.20492
3399.89025,0.20130
3401.81871,0.20176
3403.74718,0.20323
3405.67565,0.20560
3407.60412,0.20807
3409.53259,0.20632
3411.46106,0.20281
3413.38953,0.20474
3415.31800,0.20930
3417.24646,0.21039
3419.17493,0.21061
3421.10340,0.21380
3423.03187,0.21541
3424.96034,0.21239
3426.88881,0.20742
3428.81728,0.20086
3430.74574,0.19602
3432.67421,0.19659
3434.60268,0.20007
3436.53115,0.20321
3438.45962,0.20405
3440.38809,0.20408
3442.31656,0.20804
3444.24503,0.21268
3446.17349,0.21094
3448.10196,0.20536
3450.03043,0.20109
3451.95890,0.19940
3453.88737,0.19845
3455.81584,0.19813
3457.74431,0.20056
3459.67277,0.20246
3461.60124,0.20151
3463.52971,0.19912
3465.45818,0.19865
3467.38665,0.20162
3469.31512,0.20426
3471.24359,0.20419
3473.17206,0.20236
3475.10052,0.20085
3477.02899,0.19894
3478.95746,0.19718
3480.88593,0.19811
3482.81440,0.19931
3484.74287,0.19870
3486.67134,0.19546
3488.59980,0.18965
3490.52827,0.18461
3492.45674,0.17966
3494.38521,0.17531
3496.31368,0.17729
3498.24215,0.18310
3500.17062,0.18629
3502.09909,0.18730
3504.02755,0.18580
3505.95602,0.18135
3507.88449,0.17906
3509.81296,0.18101
3511.74143,0.18085
3513.66990,0.17729
3515.59837,0.17489
3517.52683,0.17500
3519.45530,0.17970
3521.38377,0.18780
3523.31224,0.19227
3525.24071,0.19044
3527.16918,0.18526
3529.09765,0.17899
3531.02611,0.17278
3532.95458,0.16847
3534.88305,0.16959
3536.81152,0.17476
3538.73999,0.17517
3540.66846,0.16981
3542.59693,0.16781
3544.52540,0.17140
3546.45386,0.17294
3548.38233,0.17220
3550.31080,0.17372
3552.23927,0.17588
3554.16774,0.17367
3556.09621,0.16543
3558.02468,0.15900
3559.95314,0.15878
3561.88161,0.16028
3563.81008,0.16520
3565.73855,0.17687
3567.66702,0.18263
3569.59549,0.17344
3571.52396,0.16530
3573.45243,0.16628
3575.38089,0.17063
3577.30936,0.16935
3579.23783,0.16236
3581.16630,0.15674
3583.09477,0.15598
3585.02324,0.15941
3586.95171,0.16138
3588.88017,0.15737
3590.80864,0.15624
3592.73711,0.15854
3594.66558,0.15853
3596.59405,0.15904
3598.52252,0.16372
3600.45099,0.16339
3602.37946,0.15386
3604.30792,0.14652
3606.23639,0.14705
3608.16486,0.15381
3610.09333,0.16190
3612.02180,0.16366
3613.95027,0.15810
3615.87874,0.15284
3617.80720,0.15356
3619.73567,0.15842
3621.66414,0.15852
3623.59261,0.15363
3625.52108,0.15245
3627.44955,0.15696
3629.37802,0.15328
3631.30649,0.14333
3633.23495,0.14122
3635.16342,0.14203
3637.09189,0.14188
3639.02036,0.14149
3640.94883,0.14066
3642.87730,0.14043
3644.80577,0.14549
3646.73423,0.15915
3648.66270,0.17220
3650.59117,0.16403
3652.51964,0.14889
3654.44811,0.14054
3656.37658,0.13627
3658.30505,0.13385
3660.23352,0.13551
3662.16198,0.13925
3664.09045,0.13977
3666.01892,0.13830
3667.94739,0.13847
3669.87586,0.13786
3671.80433,0.13671
3673.73280,0.14125
3675.66126,0.14691
3677.58973,0.14492
3679.51820,0.14071
3681.44667,0.13588
3683.37514,0.13203
3685.30361,0.13192
3687.23208,0.13714
3689.16055,0.14700
3691.08901,0.14628
3693.01748,0.13590
3694.94595,0.13055
3696.87442,0.13046
3698.80289,0.13156
3700.73136,0.13257
3702.65983,0.13235
3704.58829,0.13273
3706.51676,0.13474
3708.44523,0.13730
3710.37370,0.14331
3712.30217,0.14916
3714.23064,0.14663
3716.15911,0.14337
3718.08757,0.14325
3720.01604,0.14428
3721.94451,0.14802
3723.87298,0.15269
3725.80145,0.14615
3727.72992,0.13281
3729.65839,0.13027
3731.58686,0.13863
3733.51532,0.14849
3735.44379,0.15014
3737.37226,0.14219
3739.30073,0.13677
3741.22920,0.13816
3743.15767,0.14605
3745.08614,0.15462
3747.01460,0.15159
3748.94307,0.14783
3750.87154,0.15139
3752.80001,0.14804
3754.72848,0.13827
3756.65695,0.13195
3758.58542,0.12918
3760.51389,0.12562
3762.44235,0.12169
3764.37082,0.12301
3766.29929,0.12951
3768.22776,0.13404
3770.15623,0.13309
3772.08470,0.13044
3774.01317,0.13186
3775.94163,0.13495
3777.87010,0.13428
3779.79857,0.12885
3781.72704,0.12408
3783.65551,0.12500
3785.58398,0.12822
3787.51245,0.12933
3789.44092,0.13074
3791.36938,0.13108
3793.29785,0.12828
3795.22632,0.12782
3797.15479,0.13167
3799.08326,0.13371
3801.01173,0.13119
3802.94020,0.12426
3804.86866,0.11937
3806.79713,0.11959
3808.72560,0.12178
3810.65407,0.12139
3812.58254,0.11901
3814.51101,0.11869
3816.43948,0.12426
3818.36795,0.13292
3820.29641,0.13723
3822.22488,0.13184
3824.15335,0.12669
3826.08182,0.12414
3828.01029,0.12162
3829.93876,0.12429
3831.86723,0.13322
3833.79569,0.13851
3835.72416,0.13406
3837.65263,0.13009
3839.58110,0.13388
3841.50957,0.13106
3843.43804,0.12168
3845.36651,0.12055
3847.29498,0.12683
3849.22344,0.13270
3851.15191,0.14057
3853.08038,0.14892
3855.00885,0.13745
3856.93732,0.12283
3858.86579,0.11574
3860.79426,0.11438
3862.72272,0.11941
3864.65119,0.12339
3866.57966,0.11972
3868.50813,0.11967
3870.43660,0.13132
3872.36507,0.14076
3874.29354,0.13640
3876.22200,0.12637
3878.15047,0.12312
3880.07894,0.12822
3882.00741,0.13181
3883.93588,0.13085
3885.86435,0.12764
3887.79282,0.12412
3889.72129,0.12615
3891.64975,0.12936
3893.57822,0.12364
3895.50669,0.11504
3897.43516,0.11302
3899.36363,0.11760
3901.29210,0.12126
3903.22057,0.12439
3905.14903,0.12963
3907.07750,0.13139
3909.00597,0.12541
3910.93444,0.11440
3912.86291,0.10775
3914.79138,0.10824
3916.71985,0.11200
3918.64832,0.11810
3920.57678,0.12251
3922.50525,0.12177
3924.43372,0.11857
3926.36219,0.11643
3928.29066,0.11526
3930.21913,0.11123
3932.14760,0.10658
3934.07606,0.10800
3936.00453,0.11351
3937.93300,0.11883
3939.86147,0.12089
3941.78994,0.11887
3943.71841,0.11670
3945.64688,0.11982
3947.57535,0.12350
3949.50381,0.11827
3951.43228,0.10892
3953.36075,0.10545
3955.28922,0.10844
3957.21769,0.11128
3959.14616,0.10809
3961.07463,0.10205
3963.00309,0.10039
3964.93156,0.10319
3966.86003,0.10529
3968.78850,0.10623
3970.71697,0.10702
3972.64544,0.10753
3974.57391,0.10752
3976.50238,0.10745
3978.43084,0.10857
3980.35931,0.10841
3982.28778,0.10601
3984.21625,0.10509
3986.14472,0.10611
3988.07319,0.10789
3990.00166,0.11029
3991.93012,0.11055
3993.85859,0.10883
3995.78706,0.10802
3997.71553,0.10655
3999.64400,0.10327
4001.57247,0.10297
4003.50094,0.10699
4005.42941,0.10772
4007.35787,0.10088
4009.28634,0.09139
4011.21481,0.08924
4013.14328,0.09668
4015.07175,0.10381
4017.00022,0.10437
4018.92869,0.09986
4020.85715,0.09522
4022.78562,0.09568
4024.71409,0.09880
4026.64256,0.09834
4028.57103,0.09769
4030.49950,0.10149
4032.42797,0.10434
4034.35644,0.10328
4036.28490,0.10198
4038.21337,0.10248
4040.14184,0.10313
4042.07031,0.10453
4043.99878,0.10961
4045.92725,0.11422
4047.85572,0.11170
4049.78418,0.10555
4051.71265,0.10350
4053.64112,0.10439
4055.56959,0.10544
4057.49806,0.10562
4059.42653,0.10044
4061.35500,0.09332
4063.28346,0.09444
4065.21193,0.09915
4067.14040,0.09488
4069.06887,0.08730
4070.99734,0.08759
4072.92581,0.09099
4074.85428,0.09112
4076.78275,0.09198
4078.71121,0.09489
4080.63968,0.09430
4082.56815,0.09353
4084.49662,0.09758
4086.42509,0.09956
4088.35356,0.09518
4090.28203,0.09163
4092.21049,0.09301
4094.13896,0.09600
4096.06743,0.09894
4097.99590,0.09918
4099.92437,0.09573
4101.85284,0.09081
4103.78131,0.08330
4105.70978,0.07819
4107.63824,0.08302
4109.56671,0.09101
4111.49518,0.09104
4113.42365,0.08527
4115.35212,0.08294
4117.28059,0.08537
4119.20906,0.08809
4121.13752,0.08891
4123.06599,0.08778
4124.99446,0.08523
4126.92293,0.08337
4128.85140,0.08330
4130.77987,0.08516
4132.70834,0.08860
4134.63681,0.08966
4136.56527,0.08941
4138.49374,0.09105
4140.42221,0.09073
4142.35068,0.08882
4144.27915,0.08883
4146.20762,0.08705
4148.13609,0.08218
4150.06455,0.08013
4151.99302,0.07939
4153.92149,0.07506
4155.84996,0.07037
4157.77843,0.06955
4159.70690,0.07446
4161.63537,0.08183
4163.56384,0.08374
4165.49230,0.07970
4167.42077,0.07781
4169.34924,0.08094
4171.27771,0.08304
4173.20618,0.08095
4175.13465,0.07959
4177.06312,0.08238
4178.99158,0.08531
4180.92005,0.08615
4182.84852,0.08413
4184.77699,0.07989
4186.70546,0.07809
4188.63393,0.07676
4190.56240,0.07219
4192.49087,0.06915
4194.41933,0.07198
4196.34780,0.07443
4198.27627,0.07190
4200.20474,0.07171
4202.13321,0.07586
4204.06168,0.07907
4205.99015,0.07771
4207.91861,0.07166
4209.84708,0.06942
4211.77555,0.07256
4213.70402,0.07278
4215.63249,0.07145
4217.56096,0.06994
4219.48943,0.06741
4221.41789,0.06829
4223.34636,0.07077
4225.27483,0.07166
4227.20330,0.07216
4229.13177,0.07310
4231.06024,0.07363
4232.98871,0.07035
4234.91718,0.06465
4236.84564,0.06261
4238.77411,0.06508
4240.70258,0.06895
4242.63105,0.07081
4244.55952,0.06638
4246.48799,0.05970
4248.41646,0.06052
4250.34492,0.06570
4252.27339,0.06431
4254.20186,0.06054
4256.13033,0.06662
4258.05880,0.07407
4259.98727,0.07019
4261.91574,0.06358
4263.84421,0.06473
4265.77267,0.07009
4267.70114,0.07068
4269.62961,0.06612
4271.55808,0.06257
4273.48655,0.06033
4275.41502,0.05855
4277.34349,0.05644
4279.27195,0.05285
4281.20042,0.05493
4283.12889,0.06489
4285.05736,0.07353
4286.98583,0.07549
4288.91430,0.07124
4290.84277,0.06518
4292.77124,0.06124
4294.69970,0.05959
4296.62817,0.06007
4298.55664,0.06009
4300.48511,0.05524
4302.41358,0.04976
4304.34205,0.05389
4306.27052,0.06111
4308.19898,0.05860
4310.12745,0.05337
4312.05592,0.05451
4313.98439,0.05513
4315.91286,0.05073
4317.84133,0.04993
4319.76980,0.05599
4321.69827,0.06057
4323.62673,0.05903
4325.55520,0.05571
4327.48367,0.05536
4329.41214,0.05486
4331.34061,0.05269
4333.26908,0.05594
4335.19755,0.06131
4337.12601,0.05784
4339.05448,0.04958
4340.98295,0.04445
4342.91142,0.04408
4344.83989,0.04886
4346.76836,0.05586
4348.69683,0.05744
4350.62530,0.04855
4352.55376,0.03762
4354.48223,0.03463
4356.41070,0.03703
4358.33917,0.03957
4360.26764,0.04115
4362.19611,0.04231
4364.12458,0.04262
4366.05304,0.03841
4367.98151,0.03082
4369.90998,0.02880
4371.83845,0.03344
4373.76692,0.03650
4375.69539,0.03410
4377.62386,0.02912
4379.55232,0.02840
4381.48079,0.03694
4383.40926,0.04814
4385.33773,0.05136
4387.26620,0.04891
4389.19467,0.04906
4391.12314,0.04978
4393.05161,0.04590
4394.98007,0.04247
4396.90854,0.04340
4398.83701,0.04289
4400.76548,0.03795
4402.69395,0.03304
4404.62242,0.03421
4406.55089,0.03933
4408.47935,0.04051
4410.40782,0.03962
4412.33629,0.04080
4414.26476,0.03962
4416.19323,0.03539
4418.12170,0.03413
4420.05017,0.03818
4421.97864,0.04035
4423.90710,0.03543
4425.83557,0.03106
4427.76404,0.02928
4429.69251,0.02513
4431.62098,0.02459
4433.54945,0.03059
4435.47792,0.03636
4437.40638,0.03984
4439.33485,0.03976
4441.26332,0.03411
4443.19179,0.02894
4445.12026,0.03375
4447.04873,0.04524
4448.97720,0.04868
4450.90567,0.04270
4452.83413,0.03735
4454.76260,0.03460
4456.69107,0.03485
4458.61954,0.03903
4460.54801,0.03893
4462.47648,0.02739
4464.40495,0.01292
4466.33341,0.00765
4468.26188,0.01158
4470.19035,0.01809
4472.11882,0.02358
4474.04729,0.03034
4475.97576,0.03835
4477.90423,0.04062
4479.83270,0.03442
4481.76116,0.02742
4483.68963,0.03130
4485.61810,0.04157
4487.54657,0.04205
4489.47504,0.03612
4491.40351,0.03299
4493.33198,0.02993
4495.26044,0.02581
4497.18891,0.02397
4499.11738,0.02811
4501.04585,0.03333
4502.97432,0.03368
4504.90279,0.03145
4506.83126,0.02852
4508.75973,0.02837
4510.68819,0.03056
4512.61666,0.03102
4514.54513,0.02858
4516.47360,0.02438
4518.40207,0.02431
4520.33054,0.02425
4522.25901,0.01936
4524.18747,0.01656
4526.11594,0.01353
4528.04441,0.00795
4529.97288,0.00633
4531.90135,0.00933
4533.82982,0.01194
4535.75829,0.01329
4537.68676,0.01911
4539.61522,0.02739
4541.54369,0.02843
4543.47216,0.02257
4545.40063,0.01787
4547.32910,0.01749
4549.25757,0.01618
4551.18604,0.01095
4553.11450,0.00927
4555.04297,0.01600
4556.97144,0.02434
4558.89991,0.02385
4560.82838,0.01250
4562.75685,0.00433
4564.68532,0.01037
4566.61378,0.02082
4568.54225,0.02543
4570.47072,0.02576
4572.39919,0.02604
4574.32766,0.02829
4576.25613,0.03007
4578.18460,0.02620
4580.11307,0.01521
4582.04153,0.00431
4583.97000,0.00235
4585.89847,0.00779
4587.82694,0.01476
4589.75541,0.02219
4591.68388,0.02647
4593.61235,0.01912
4595.54081,0.00485
4597.46928,-0.00219
4599.39775,-0.00085
4601.32622,0.00858
4603.25469,0.02024
4605.18316,0.01847
4607.11163,0.01134
4609.04010,0.01110
4610.96856,0.01402
4612.89703,0.01203
4614.82550,0.00212
4616.75397,-0.00009
4618.68244,0.00973
4620.61091,0.01586
4622.53938,0.01810
4624.46784,0.01999
4626.39631,0.01660
4628.32478,0.01082
4630.25325,0.00865
4632.18172,0.00936
4634.11019,0.00706
4636.03866,-0.00260
4637.96713,-0.01293
4639.89559,-0.01202
4641.82406,-0.00246
4643.75253,0.00039
4645.68100,-0.00312
4647.60947,-0.00283
4649.53794,0.00073
4651.46641,0.00940
4653.39487,0.01986
4655.32334,0.01768
4657.25181,0.00846
4659.18028,0.00804
4661.10875,0.01076
4663.03722,0.00905
4664.96569,0.00998
4666.89416,0.01353
4668.82262,0.00686
4670.75109,-0.00851
4672.67956,-0.01183
4674.60803,0.00062
4676.53650,0.01014
4678.46497,0.00871
4680.39344,0.00392
4682.32190,0.00251
4684.25037,0.00671
4686.17884,0.01039
4688.10731,0.00597
4690.03578,-0.00249
4691.96425,-0.00810
4693.89272,-0.00804
4695.82119,-0.00261
4697.74965,0.00759
4699.67812,0.02165
4701.60659,0.03009
4703.53506,0.02901
4705.46353,0.02529
4707.39200,0.01882
4709.32047,0.01207
4711.24893,0.01280
4713.17740,0.01534
4715.10587,0.01050
4717.03434,0.00714
4718.96281,0.01665
4720.89128,0.02306
4722.81975,0.01373
4724.74821,0.00649
4726.67668,0.00843
4728.60515,0.01505
4730.53362,0.02367
4732.46209,0.02046
4734.39056,0.00597
4736.31903,0.00297
4738.24750,0.01538
4740.17596,0.01832
4742.10443,0.00643
4744.03290,0.00295
4745.96137,0.01404
4747.88984,0.02759
4749.81831,0.03150
4751.74678,0.02221
4753.67524,0.01000
4755.60371,0.00714
4757.53218,0.01295
4759.46065,0.01507
4761.38912,0.00842
4763.31759,-0.00088
4765.24606,-0.00333
4767.17453,0.00822
4769.10299,0.02154
4771.03146,0.01781
4772.95993,0.00459
4774.88840,-0.00226
4776.81687,-0.00143
4778.74534,0.00063
4780.67381,-0.00098
4782.60227,0.00403
4784.53074,0.01513
4786.45921,0.01607
4788.38768,0.01249
4790.31615,0.01696
4792.24462,0.02802
4794.17309,0.03394
4796.10156,0.02668
4798.03002,0.01672
4799.95849,0.01119
4801.88696,0.00416
4803.81543,-0.00580
4805.74390,-0.00894
4807.67237,0.00141
4809.60084,0.01544
4811.52930,0.02138
4813.45777,0.01701
4815.38624,0.00732
4817.31471,0.00386
4819.24318,0.00526
4821.17165,0.00211
4823.10012,0.00240
4825.02859,0.01190
4826.95705,0.01822
4828.88552,0.01197
4830.81399,0.00279
4832.74246,0.00177
4834.67093,0.00555
4836.59940,0.01134
4838.52787,0.01470
4840.45633,0.01291
4842.38480,0.00969
4844.31327,0.00645
4846.24174,0.00950
4848.17021,0.01794
4850.09868,0.02001
4852.02715,0.01033
4853.95562,-0.00006
4855.88408,0.00227
4857.81255,0.00889
4859.74102,0.01300
4861.66949,0.01643
4863.59796,0.01170
4865.52643,0.00200
4867.45490,-0.00543
4869.38336,-0.01188
4871.31183,-0.01161
4873.24030,-0.00441
4875.16877,0.00541
4877.09724,0.01721
4879.02571,0.02733
4880.95418,0.02998
4882.88265,0.01579
4884.81111,-0.00057
4886.73958,0.00574
4888.66805,0.02017
4890.59652,0.02060
4892.52499,0.01270
4894.45346,0.00741
4896.38193,0.01005
4898.31039,0.01355
4900.23886,0.00716
4902.16733,-0.00036
4904.09580,-0.00397
4906.02427,-0.00870
4907.95274,-0.01399
4909.88121,-0.01919
4911.80967,-0.01450
4913.73814,0.01063
4915.66661,0.03685
4917.59508,0.03898
4919.52355,0.02399
4921.45202,0.01289
4923.38049,0.01118
4925.30896,0.01427
4927.23742,0.01691
4929.16589,0.01542
4931.09436,0.01465
4933.02283,0.01488
4934.95130,0.01107
4936.87977,0.01277
4938.80824,0.02292
4940.73670,0.03198
4942.66517,0.03381
4944.59364,0.02857
4946.52211,0.02298
4948.45058,0.01542
4950.37905,0.00399
4952.30752,0.00238
4954.23599,0.01327
4956.16445,0.01626
4958.09292,0.00703
4960.02139,0.00471
4961.94986,0.01122
4963.87833,0.01356
4965.80680,0.01478
4967.73527,0.01939
4969.66373,0.02128
4971.59220,0.02274
4973.52067,0.02713
4975.44914,0.02089
4977.37761,-0.00298
4979.30608,-0.02333
4981.23455,-0.02489
4983.16302,-0.01262
4985.09148,0.00384
4987.01995,0.00547
4988.94842,-0.00423
4990.87689,0.00588
4992.80536,0.03276
4994.73383,0.03912
4996.66230,0.02019
4998.59076,0.01046
5000.51923,0.01919
5002.44770,0.03258
5004.37617,0.04296
5006.30464,0.04264
5008.23311,0.03340
5010.16158,0.02599
5012.09005,0.02365
5014.01851,0.02333
5015.94698,0.02735
5017.87545,0.03096
5019.80392,0.02474
5021.73239,0.01977
5023.66086,0.02497
5025.58933,0.02998
5027.51779,0.03520
5029.44626,0.04990
5031.37473,0.06115
5033.30320,0.05179
5035.23167,0.02961
5037.16014,0.01466
5039.08861,0.01543
5041.01708,0.02411
5042.94554,0.03054
5044.87401,0.02830
5046.80248,0.02123
5048.73095,0.01650
5050.65942,0.01959
5052.58789,0.02948
5054.51636,0.02057
5056.44482,0.00278
5058.37329,0.01906
5060.30176,0.04344
5062.23023,0.02761
5064.15870,0.00061
5066.08717,0.00348
5068.01564,0.02527
5069.94410,0.04140
5071.87257,0.04224
5073.80104,0.04025
5075.72951,0.03657
5077.65798,0.01576
5079.58645,0.00136
5081.51492,0.01078
5083.44339,0.01876
5085.37185,0.01968
5087.30032,0.02940
5089.22879,0.04538
5091.15726,0.05231
5093.08573,0.04923
5095.01420,0.04340
5096.94267,0.02541
5098.87113,-0.00418
5100.79960,-0.01826
5102.72807,-0.01197
5104.65654,0.00141
5106.58501,0.01820
5108.51348,0.02700
5110.44195,0.02581
5112.37042,0.02677
5114.29888,0.02795
5116.22735,0.02726
5118.15582,0.02947
5120.08429,0.03442
5122.01276,0.04145
5123.94123,0.04902
5125.86970,0.05384
5127.79816,0.05689
5129.72663,0.05640
5131.65510,0.04084
5133.58357,0.01870
5135.51204,0.01363
5137.44051,0.02184
5139.36898,0.02881
5141.29745,0.03264
5143.22591,0.03326
5145.15438,0.02851
5147.08285,0.02233
5149.01132,0.01834
5150.93979,0.01732
5152.86826,0.02606
5154.79673,0.04304
5156.72519,0.05349
5158.65366,0.05057
5160.58213,0.03864
5162.51060,0.02029
5164.43907,0.01306
5166.36754,0.02933
5168.29601,0.04512
5170.22448,0.04713
5172.15294,0.04732
5174.08141,0.04566
5176.00988,0.03549
5177.93835,0.02942
5179.86682,0.03416
5181.79529,0.03179
5183.72376,0.02532
5185.65222,0.02780
5187.58069,0.02663
5189.50916,0.02203
5191.43763,0.02683
5193.36610,0.04117
5195.29457,0.05539
5197.22304,0.05210
5199.15151,0.03838
5201.07997,0.04077
5203.00844,0.05819
5204.93691,0.07716
5206.86538,0.07563
5208.79385,0.04851
5210.72232,0.03353
5212.65079,0.03136
5214.57925,0.02366
5216.50772,0.02639
5218.43619,0.04145
5220.36466,0.04748
5222.29313,0.03439
5224.22160,0.00618
5226.15007,-0.00473
5228.07854,0.02096
5230.00700,0.05662
5231.93547,0.08358
5233.86394,0.09338
5235.79241,0.08025
5237.72088,0.05845
5239.64935,0.04351
5241.57782,0.04030
5243.50628,0.05644
5245.43475,0.07454
5247.36322,0.07213
5249.29169,0.07049
5251.22016,0.08010
5253.14863,0.07659
5255.07710,0.06098
5257.00556,0.05209
5258.93403,0.05383
5260.86250,0.06560
5262.79097,0.06886
5264.71944,0.04912
5266.64791,0.02877
5268.57638,0.02910
5270.50485,0.04668
5272.43331,0.05753
5274.36178,0.04716
5276.29025,0.02670
5278.21872,0.01748
5280.14719,0.02680
5282.07566,0.04563
5284.00413,0.06011
5285.93259,0.06205
5287.86106,0.06295
5289.78953,0.06303
5291.71800,0.04927
5293.64647,0.03299
5295.57494,0.02610
5297.50341,0.03003
5299.43188,0.04931
5301.36034,0.07458
5303.28881,0.07726
5305.21728,0.05069
5307.14575,0.03172
5309.07422,0.04736
5311.00269,0.06543
5312.93116,0.06367
5314.85962,0.06168
5316.78809,0.06462
5318.71656,0.06318
5320.64503,0.06233
5322.57350,0.06430
5324.50197,0.06373
5326.43044,0.04587
5328.35891,0.01708
5330.28737,0.01804
5332.21584,0.03980
5334.14431,0.03820
5336.07278,0.01765
5338.00125,0.02048
5339.92972,0.04641
5341.85819,0.05739
5343.78665,0.06972
5345.71512,0.10250
5347.64359,0.12227
5349.57206,0.11400
5351.50053,0.08953
5353.42900,0.06336
5355.35747,0.04815
5357.28594,0.03468
5359.21440,0.00451
5361.14287,-0.01790
5363.07134,-0.00080
5364.99981,0.03485
5366.92828,0.05231
5368.85675,0.04102
5370.78522,0.02112
5372.71368,0.02772
5374.64215,0.07145
5376.57062,0.11075
5378.49909,0.09859
5380.42756,0.06488
5382.35603,0.05443
5384.28450,0.06894
5386.21297,0.07497
5388.14143,0.06642
5390.06990,0.06701
5391.99837,0.06847
5393.92684,0.05828
5395.85531,0.04751
5397.78378,0.04502
5399.71225,0.05597
5401.64071,0.06873
5403.56918,0.06876
5405.49765,0.06584
5407.42612,0.07112
5409.35459,0.07963
5411.28306,0.07145
5413.21153,0.04510
5415.13999,0.02623
5417.06846,0.02795
5418.99693,0.04443
5420.92540,0.05664
5422.85387,0.05529
5424.78234,0.05115
5426.71081,0.05229
5428.63928,0.05131
5430.56774,0.04022
5432.49621,0.03342
5434.42468,0.04822
5436.35315,0.07158
5438.28162,0.06895
5440.21009,0.03907
5442.13856,0.02093
5444.06702,0.04196
5445.99549,0.08223
5447.92396,0.10447
5449.85243,0.10157
5451.78090,0.09240
5453.70937,0.08810
5455.63784,0.09139
5457.56631,0.10207
5459.49477,0.11253
5461.42324,0.10153
5463.35171,0.06996
5465.28018,0.05532
5467.20865,0.06724
5469.13712,0.08720
5471.06559,0.09387
5472.99405,0.07680
5474.92252,0.06418
5476.85099,0.08296
5478.77946,0.10614
5480.70793,0.11303
5482.63640,0.11105
5484.56487,0.11186
5486.49334,0.10329
5488.42180,0.07281
5490.35027,0.06027
5492.27874,0.08571
5494.20721,0.11399
5496.13568,0.12849
5498.06415,0.12408
5499.99262,0.11315
5501.92108,0.11685
5503.84955,0.12097
5505.77802,0.11352
5507.70649,0.09831
5509.63496,0.08263
5511.56343,0.07126
5513.49190,0.05597
5515.42037,0.04337
5517.34883,0.06565
5519.27730,0.11681
5521.20577,0.14677
5523.13424,0.13841
5525.06271,0.12296
5526.99118,0.11105
5528.91965,0.08858
5530.84811,0.07226
5532.77658,0.06662
5534.70505,0.06139
5536.63352,0.07519
5538.56199,0.11538
5540.49046,0.15270
5542.41893,0.14695
5544.34740,0.10007
5546.27586,0.06108
5548.20433,0.05367
5550.13280,0.05336
5552.06127,0.04507
5553.98974,0.04722
5555.91821,0.07909
5557.84668,0.11144
5559.77514,0.09504
5561.70361,0.06136
5563.63208,0.05648
5565.56055,0.05529
5567.48902,0.05349
5569.41749,0.07279
5571.34596,0.09010
5573.27443,0.07973
5575.20289,0.04922
5577.13136,0.03002
5579.05983,0.04854
5580.98830,0.08760
5582.91677,0.09279
5584.84524,0.05623
5586.77371,0.03552
5588.70217,0.05443
5590.63064,0.07547
5592.55911,0.07718
5594.48758,0.06487
5596.41605,0.05500
5598.34452,0.06346
5600.27299,0.07919
5602.20145,0.08183
5604.12992,0.07912
5606.05839,0.08870
5607.98686,0.09573
5609.91533,0.08322
5611.84380,0.06722
5613.77227,0.06786
5615.70074,0.07360
5617.62920,0.05873
5619.55767,0.02766
5621.48614,0.00353
5623.41461,-0.00741
5625.34308,0.00696
5627.27155,0.05249
5629.20002,0.09270
5631.12848,0.10358
5633.05695,0.09107
5634.98542,0.07104
5636.91389,0.05940
5638.84236,0.05370
5640.77083,0.05939
5642.69930,0.07942
5644.62777,0.09040
5646.55623,0.08221
5648.48470,0.08252
5650.41317,0.09554
5652.34164,0.08455
5654.27011,0.05176
5656.19858,0.02503
5658.12705,0.00850
5660.05551,0.01132
5661.98398,0.03631
5663.91245,0.06071
5665.84092,0.06792
5667.76939,0.06194
5669.69786,0.05809
5671.62633,0.05896
5673.55480,0.06054
5675.48326,0.06873
5677.41173,0.08105
5679.34020,0.08859
5681.26867,0.09009
5683.19714,0.08398
5685.12561,0.06138
5687.05408,0.02982
5688.98254,0.01865
5690.91101,0.03911
5692.83948,0.07547
5694.76795,0.10628
5696.69642,0.11992
5698.62489,0.13073
5700.55336,0.15028
5702.48183,0.15542
5704.41029,0.13243
5706.33876,0.09653
5708.26723,0.07499
5710.19570,0.08149
5712.12417,0.08902
5714.05264,0.08874
5715.98111,0.09962
5717.90957,0.09921
5719.83804,0.07161
5721.76651,0.05975
5723.69498,0.07634
5725.62345,0.07519
5727.55192,0.05753
5729.48039,0.07329
5731.40886,0.10928
5733.33732,0.11217
5735.26579,0.08584
5737.19426,0.08256
5739.12273,0.10256
5741.05120,0.10147
5742.97967,0.08900
5744.90814,0.09910
5746.83660,0.10719
5748.76507,0.08709
5750.69354,0.06108
5752.62201,0.04292
5754.55048,0.03196
5756.47895,0.02219
5758.40742,0.00377
5760.33588,0.00708
5762.26435,0.05775
5764.19282,0.10617
5766.12129,0.10253
5768.04976,0.06669
5769.97823,0.04312
5771.90670,0.04465
5773.83517,0.05852
5775.76363,0.09020
5777.69210,0.10749
5779.62057,0.07519
5781.54904,0.04989
5783.47751,0.05772
5785.40598,0.05617
5787.33445,0.02973
5789.26291,0.01068
5791.19138,0.03230
5793.11985,0.07023
5795.04832,0.08388
5796.97679,0.06717
5798.90526,0.04107
5800.83373,0.02650
5802.76220,0.02941
5804.69066,0.06015
5806.61913,0.10693
5808.54760,0.12612
5810.47607,0.11233
5812.40454,0.09237
5814.33301,0.07160
5816.26148,0.04438
5818.18994,0.02263
5820.11841,0.03171
5822.04688,0.07189
5823.97535,0.09984
5825.90382,0.08169
5827.83229,0.04428
5829.76076,0.04718
5831.68923,0.07698
5833.61769,0.08855
5835.54616,0.09171
5837.47463,0.10358
5839.40310,0.13262
5841.33157,0.15072
5843.26004,0.10799
5845.18851,0.04551
5847.11697,0.04601
5849.04544,0.09047
5850.97391,0.08071
5852.90238,0.02676
5854.83085,0.03327
5856.75932,0.10213
5858.68779,0.13975
5860.61626,0.12838
5862.54472,0.10908
5864.47319,0.09131
5866.40166,0.07044
5868.33013,0.06339
5870.25860,0.07346
5872.18707,0.07573
5874.11554,0.08172
5876.04400,0.11308
5877.97247,0.13611
5879.90094,0.13293
5881.82941,0.12973
5883.75788,0.12182
5885.68635,0.10587
5887.61482,0.09581
5889.54329,0.07601
5891.47175,0.05696
5893.40022,0.07009
5895.32869,0.08460
5897.25716,0.06844
5899.18563,0.06526
5901.11410,0.09162
5903.04257,0.09647
5904.97103,0.08042
5906.89950,0.07897
5908.82797,0.07621
5910.75644,0.04681
5912.68491,0.00500
5914.61338,-0.03124
5916.54185,-0.04240
5918.47032,-0.00503
5920.39878,0.04280
5922.32725,0.05220
5924.25572,0.05468
5926.18419,0.08139
5928.11266,0.10359
5930.04113,0.09790
5931.96960,0.07093
5933.89806,0.05434
5935.82653,0.08056
5937.75500,0.12107
5939.68347,0.13170
5941.61194,0.10664
5943.54041,0.07439
5945.46888,0.06272
5947.39734,0.06897
5949.32581,0.07962
5951.25428,0.07166
5953.18275,0.04854
5955.11122,0.04888
5957.03969,0.07067
5958.96816,0.08441
5960.89663,0.08362
5962.82509,0.06529
5964.75356,0.03401
5966.68203,0.02612
5968.61050,0.04511
5970.53897,0.05977
5972.46744,0.07800
5974.39591,0.08502
5976.32437,0.06371
5978.25284,0.04453
5980.18131,0.04650
5982.10978,0.07670
5984.03825,0.11678
5985.96672,0.13999
5987.89519,0.14375
5989.82366,0.13203
5991.75212,0.12779
5993.68059,0.13493
5995.60906,0.10809
5997.53753,0.04640
5999.46600,0.01999
6001.39447,0.03162
6003.32294,0.01519
6005.25140,-0.02864
6007.17987,-0.04419
6009.10834,0.00273
6011.03681,0.09966
6012.96528,0.15696
6014.89375,0.14865
6016.82222,0.14564
6018.75069,0.14415
6020.67915,0.09878
6022.60762,0.03450
6024.53609,-0.00394
6026.46456,0.00016
6028.39303,0.04106
6030.32150,0.11540
6032.24997,0.17823
6034.17843,0.18423
6036.10690,0.16251
6038.03537,0.13967
6039.96384,0.12182
6041.89231,0.10575
6043.82078,0.08634
6045.74925,0.09180
6047.67772,0.10966
6049.60618,0.11127
6051.53465,0.12084
6053.46312,0.13448
6055.39159,0.12885
6057.32006,0.10381
6059.24853,0.07002
6061.17700,0.08028
6063.10546,0.14124
6065.03393,0.17132
6066.96240,0.14938
6068.89087,0.11211
6070.81934,0.07839
6072.74781,0.04352
6074.67628,0.00069
6076.60475,-0.04942
6078.53321,-0.06792
6080.46168,-0.01192
6082.39015,0.05610
6084.31862,0.07626
6086.24709,0.08768
6088.17556,0.09957
6090.10403,0.07037
6092.03249,0.03063
6093.96096,0.01925
6095.88943,0.01766
6097.81790,0.04443
6099.74637,0.09754
6101.67484,0.11403
6103.60331,0.08398
6105.53177,0.05233
6107.46024,0.04238
6109.38871,0.03715
6111.31718,0.03452
6113.24565,0.03462
6115.17412,0.03835
6117.10259,0.08610
6119.03106,0.16786
6120.95952,0.18368
6122.88799,0.11560
6124.81646,0.07265
6126.74493,0.11188
6128.67340,0.15945
6130.60187,0.15281
6132.53034,0.10507
6134.45880,0.05521
6136.38727,0.03400
6138.31574,0.04684
6140.24421,0.07473
6142.17268,0.08508
6144.10115,0.08709
6146.02962,0.10852
6147.95809,0.12933
6149.88655,0.13554
6151.81502,0.12853
6153.74349,0.08930
6155.67196,0.04634
6157.60043,0.05791
6159.52890,0.08918
6161.45737,0.07441
6163.38583,0.03358
6165.31430,-0.00266
6167.24277,-0.01332
6169.17124,0.02076
6171.09971,0.05594
6173.02818,0.07274
6174.95665,0.10315
6176.88512,0.11249
6178.81358,0.08110
6180.74205,0.04694
6182.67052,0.04189
6184.59899,0.08603
6186.52746,0.13252
6188.45593,0.12464
6190.38440,0.09375
6192.31286,0.05930
6194.24133,0.03204
6196.16980,0.05760
6198.09827,0.11175
6200.02674,0.13305
6201.95521,0.11945
6203.88368,0.07590
6205.81215,0.03800
6207.74061,0.07031
6209.66908,0.12965
6211.59755,0.11144
6213.52602,0.06728
6215.45449,0.08686
6217.38296,0.11944
6219.31143,0.13271
6221.23989,0.18794
6223.16836,0.25432
6225.09683,0.19991
6227.02530,0.06295
6228.95377,0.01176
6230.88224,0.04523
6232.81071,0.07183
6234.73918,0.06988
6236.66764,0.05697
6238.59611,0.07331
6240.52458,0.11608
6242.45305,0.10380
6244.38152,0.04522
6246.30999,0.04750
6248.23846,0.09563
6250.16692,0.11173
6252.09539,0.10503
6254.02386,0.09146
6255.95233,0.04419
6257.88080,0.00974
6259.80927,0.06280
6261.73774,0.13137
6263.66621,0.13138
6265.59467,0.11461
6267.52314,0.11721
6269.45161,0.08642
6271.38008,0.01580
6273.30855,-0.03562
6275.23702,-0.01518
6277.16549,0.04650
6279.09395,0.07326
6281.02242,0.07125
6282.95089,0.08054
6284.87936,0.07797
6286.80783,0.06396
6288.73630,0.07339
6290.66477,0.11381
6292.59323,0.14559
6294.52170,0.13606
6296.45017,0.12873
6298.37864,0.14913
6300.30711,0.16699
6302.23558,0.12085
6304.16405,0.00577
6306.09252,-0.03794
6308.02098,0.03940
6309.94945,0.11263
6311.87792,0.10074
6313.80639,0.03267
6315.73486,-0.01283
6317.66333,0.01494
6319.59180,0.08727
6321.52026,0.10785
6323.44873,0.04853
6325.37720,0.00462
6327.30567,-0.00814
6329.23414,-0.02259
6331.16261,-0.00179
6333.09108,0.03453
6335.01955,0.02751
6336.94801,0.01750
6338.87648,0.03312
6340.80495,0.02734
6342.73342,-0.01301
6344.66189,-0.04838
6346.59036,-0.03309
6348.51883,0.02316
6350.44729,0.06442
6352.37576,0.04729
6354.30423,-0.01840
6356.23270,-0.08613
6358.16117,-0.12388
6360.08964,-0.10547
6362.01811,-0.03505
6363.94658,0.03809
6365.87504,0.09512
6367.80351,0.13460
6369.73198,0.11420
6371.66045,0.04938
6373.58892,0.03467
6375.51739,0.08041
6377.44586,0.10641
6379.37432,0.08851
6381.30279,0.07066
6383.23126,0.07902
6385.15973,0.08385
6387.08820,0.07278
6389.01667,0.07140
6390.94514,0.07687
6392.87361,0.04846
6394.80207,-0.00221
6396.73054,-0.01499
6398.65901,0.00480
6400.58748,0.03408
6402.51595,0.05394
6404.44442,0.05517
6406.37289,0.05913
6408.30135,0.06972
6410.22982,0.08809
6412.15829,0.11703
6414.08676,0.10821
6416.01523,0.02641
6417.94370,-0.08910
6419.87217,-0.11807
6421.80064,-0.04943
6423.72910,0.00729
6425.65757,0.02708
6427.58604,0.03908
6429.51451,0.01972
6431.44298,-0.01496
6433.37145,-0.01211
6435.29992,0.01150
6437.22838,0.02637
6439.15685,-0.00390
6441.08532,-0.04670
6443.01379,-0.01155
6444.94226,0.06729
6446.87073,0.12239
6448.79920,0.17471
6450.72766,0.21212
6452.65613,0.21815
6454.58460,0.19622
6456.51307,0.15417
6458.44154,0.13995
6460.37001,0.15056
6462.29848,0.14881
6464.22695,0.13491
6466.15541,0.09608
6468.08388,0.05370
6470.01235,0.04916
6471.94082,0.06000
6473.86929,0.05568
6475.79776,0.02749
6477.72623,0.00869
6479.65469,0.06242
6481.58316,0.15431
6483.51163,0.18601
6485.44010,0.16663
6487.36857,0.14007
6489.29704,0.09324
6491.22551,0.03947
6493.15398,0.02756
6495.08244,0.04334
6497.01091,0.04609
6498.93938,0.02939
6500.86785,0.00165
6502.79632,-0.01104
6504.72479,-0.01586
6506.65326,-0.02889
6508.58172,-0.01441
6510.51019,0.01445
6512.43866,0.02082
6514.36713,0.05586
6516.29560,0.12019
6518.22407,0.14349
6520.15254,0.12921
6522.08101,0.11025
6524.00947,0.06092
6525.93794,-0.01570
6527.86641,-0.03321
6529.79488,0.01307
6531.72335,0.05354
6533.65182,0.07170
6535.58029,0.07266
6537.50875,0.05375
6539.43722,0.03388
6541.36569,0.05026
6543.29416,0.09080
6545.22263,0.08501
6547.15110,0.05470
6549.07957,0.03820
6551.00804,-0.00152
6552.93650,-0.01962
6554.86497,0.01322
6556.79344,0.02474
6558.72191,0.00660
6560.65038,-0.02228
6562.57885,-0.03640
6564.50732,0.02653
6566.43578,0.14776
6568.36425,0.20387
6570.29272,0.15377
6572.22119,0.07316
6574.14966,0.04336
6576.07813,0.09913
6578.00660,0.17908
6579.93507,0.17510
6581.86353,0.13782
6583.79200,0.17037
6585.72047,0.17483
6587.64894,0.06468
6589.57741,-0.05843
6591.50588,-0.06415
6593.43435,0.05667
6595.36281,0.12392
6597.29128,0.10319
6599.21975,0.14204
6601.14822,0.17344
6603.07669,0.11594
6605.00516,0.07928
6606.93363,0.09901
6608.86210,0.12724
6610.79056,0.13062
6612.71903,0.09262
6614.64750,-0.00391
6616.57597,-0.08898
6618.50444,-0.03887
6620.43291,0.06526
6622.36138,0.10138
6624.28984,0.09417
6626.21831,0.09667
6628.14678,0.13765
6630.07525,0.19617
6632.00372,0.21544
6633.93219,0.20092
6635.86066,0.10429
6637.78912,-0.05300
6639.71759,-0.10676
6641.64606,-0.06700
6643.57453,-0.01236
6645.50300,0.08223
6647.43147,0.20884
6649.35994,0.22467
6651.28841,0.08532
6653.21687,-0.03000
6655.14534,0.01266
6657.07381,0.10946
6659.00228,0.13357
6660.93075,0.10983
6662.85922,0.08431
6664.78769,0.09601
6666.71615,0.13735
6668.64462,0.14098
6670.57309,0.11006
6672.50156,0.05686
6674.43003,-0.00862
6676.35850,-0.02599
6678.28697,-0.03060
6680.21544,-0.03366
6682.14390,0.03499
6684.07237,0.14007
6686.00084,0.17601
6687.92931,0.12916
6689.85778,0.04256
6691.78625,-0.01681
6693.71472,-0.01894
6695.64318,0.00876
6697.57165,0.07801
6699.50012,0.17484
6701.42859,0.21497
6703.35706,0.18355
6705.28553,0.12192
6707.21400,0.08346
6709.14247,0.07301
6711.07093,0.06057
6712.99940,0.07083
6714.92787,0.08932
6716.85634,0.08408
6718.78481,0.06314
6720.71328,0.02822
6722.64175,0.01791
6724.57021,0.04972
6726.49868,0.08716
6728.42715,0.14368
6730.35562,0.20012
6732.28409,0.18658
6734.21256,0.13984
6736.14103,0.12543
6738.06950,0.15516
6739.99796,0.24074
6741.92643,0.29746
6743.85490,0.20317
6745.78337,0.05349
6747.71184,0.01162
6749.64031,0.08190
6751.56878,0.13553
6753.49724,0.14212
6755.42571,0.13285
6757.35418,0.06043
6759.28265,-0.07579
6761.21112,-0.11266
6763.13959,-0.06839
6765.06806,-0.10888
6766.99653,-0.11231
6768.92499,0.00834
6770.85346,0.08474
6772.78193,0.08409
6774.71040,0.11400
6776.63887,0.18757
6778.56734,0.22646
6780.49581,0.17099
6782.42427,0.05366
6784.35274,-0.01336
6786.28121,0.04257
6788.20968,0.10572
6790.13815,0.05050
6792.06662,-0.00711
6793.99509,0.02105
6795.92355,0.05469
6797.85202,0.07670
6799.78049,0.08624
6801.70896,0.04409
6803.63743,0.01312
6805.56590,0.04820
6807.49437,0.05374
6809.42284,0.03401
6811.35130,0.05704
6813.27977,0.12142
6815.20824,0.13685
6817.13671,0.06619
6819.06518,0.05598
6820.99365,0.12939
6822.92212,0.13207
6824.85058,0.00955
6826.77905,-0.07444
6828.70752,-0.01232
6830.63599,0.09067
6832.56446,0.13202
6834.49293,0.15409
6836.42140,0.10441
6838.34987,-0.05117
6840.27833,-0.14394
6842.20680,-0.09501
6844.13527,-0.04250
6846.06374,-0.07908
6847.99221,-0.11716
6849.92068,-0.11752
6851.84915,-0.14452
6853.77761,-0.12488
6855.70608,-0.01693
6857.63455,0.05250
6859.56302,0.05401
6861.49149,0.07121
6863.41996,0.08617
6865.34843,0.02717
6867.27690,-0.04222
6869.20536,-0.01323
6871.13383,0.09747
6873.06230,0.19449
6874.99077,0.21667
6876.91924,0.20117
6878.84771,0.18038
6880.77618,0.16234
6882.70464,0.09979
6884.63311,0.04114
6886.56158,0.07698
6888.49005,0.06804
6890.41852,-0.05475
6892.34699,-0.08036
6894.27546,0.04551
6896.20393,0.15744
6898.13239,0.12551
6900.06086,0.01337
6901.98933,-0.04801
6903.91780,-0.05619
6905.84627,0.00635
6907.77474,0.12070
6909.70321,0.15788
6911.63167,0.11468
6913.56014,0.04564
6915.48861,-0.00708
6917.41708,0.06180
6919.34555,0.19570
6921.27402,0.18378
6923.20249,0.05638
6925.13096,-0.01093
6927.05942,0.04793
6928.98789,0.13757
6930.91636,0.16971
6932.84483,0.15182
6934.77330,0.10652
6936.70177,0.04220
6938.63024,-0.07163
6940.55870,-0.16713
6942.48717,-0.08803
6944.41564,0.02239
6946.34411,0.01284
6948.27258,0.01042
6950.20105,0.09267
6952.12952,0.18282
6954.05799,0.18881
6955.98645,0.04285
6957.91492,-0.12078
6959.84339,-0.18024
6961.77186,-0.10703
6963.70033,0.04356
6965.62880,0.15772
6967.55727,0.17185
6969.48573,0.06211
6971.41420,-0.03549
6973.34267,0.03673
6975.27114,0.12802
6977.19961,0.12203
6979.12808,0.14334
6981.05655,0.21392
6982.98501,0.24444
6984.91348,0.16062
6986.84195,0.04596
6988.77042,0.02935
6990.69889,0.07986
6992.62736,0.12731
6994.55583,0.16014
6996.48430,0.14395
6998.41276,0.05860
7000.34123,-0.02221
7002.26970,-0.04409
7004.19817,-0.00261
7006.12664,0.11600
7008.05511,0.27117
7009.98358,0.34925
7011.91204,0.31636
7013.84051,0.20011
7015.76898,0.06910
7017.69745,0.02254
7019.62592,0.05385
7021.55439,0.03249
7023.48286,-0.02328
7025.41133,-0.01306
7027.33979,0.02144
7029.26826,0.03944
7031.19673,0.05019
7033.12520,0.09435
7035.05367,0.16295
7036.98214,0.18128
7038.91061,0.15842
7040.83907,0.09847
7042.76754,0.08877
7044.69601,0.21900
7046.62448,0.30219
7048.55295,0.23859
7050.48142,0.12692
7052.40989,0.01855
7054.33836,-0.05088
7056.26682,-0.01587
7058.19529,0.05684
7060.12376,0.04657
7062.05223,0.00227
7063.98070,0.00306
7065.90917,0.05527
7067.83764,0.08460
7069.76610,0.09054
7071.69457,0.11953
7073.62304,0.11367
7075.55151,0.06736
7077.47998,-0.01662
7079.40845,-0.12350
7081.33692,-0.11885
7083.26539,-0.03865
7085.19385,-0.02029
7087.12232,-0.01594
7089.05079,-0.00932
7090.97926,-0.02027
7092.90773,-0.01673
7094.83620,0.07552
7096.76467,0.24776
7098.69313,0.31334
7100.62160,0.22384
7102.55007,0.14895
7104.47854,0.15144
7106.40701,0.17624
7108.33548,0.17425
7110.26395,0.19877
7112.19242,0.23317
7114.12088,0.20570
7116.04935,0.16657
7117.97782,0.16157
7119.90629,0.09231
7121.83476,-0.00691
7123.76323,0.04432
7125.69170,0.18794
7127.62016,0.17715
7129.54863,0.05539
7131.47710,-0.00122
7133.40557,-0.01599
7135.33404,-0.04058
7137.26251,-0.04004
7139.19098,0.01000
7141.11944,0.05842
7143.04791,0.02546
7144.97638,-0.03364
7146.90485,0.02414
7148.83332,0.10608
7150.76179,0.03676
7152.69026,-0.10775
7154.61873,-0.06718
7156.54719,0.09548
7158.47566,0.13491
7160.40413,0.08841
7162.33260,0.06745
7164.26107,0.04984
7166.18954,0.00218
7168.11801,-0.01854
7170.04647,0.07342
7171.97494,0.19266
7173.90341,0.16738
7175.83188,0.03035
7177.76035,-0.04045
7179.68882,0.01067
7181.61729,0.08811
7183.54576,0.06296
7185.47422,-0.06925
7187.40269,-0.09960
7189.33116,0.05629
7191.25963,0.18424
7193.18810,0.10768
7195.11657,0.00194
7197.04504,-0.03979
7198.97350,0.00803
7200.90197,0.17357
7202.83044,0.30412
7204.75891,0.18095
7206.68738,0.02761
7208.61585,0.08297
7210.54432,0.11296
7212.47279,0.01256
7214.40125,-0.01770
7216.32972,0.16806
7218.25819,0.31317
7220.18666,0.22243
7222.11513,0.14726
7224.04360,0.06639
7225.97207,-0.12340
7227.90053,-0.24960
7229.82900,-0.16208
7231.75747,-0.01756
7233.68594,-0.02185
7235.61441,-0.05844
7237.54288,-0.05931
7239.47135,-0.03882
7241.39982,0.01123
7243.32828,0.05267
7245.25675,0.16676
7247.18522,0.32005
7249.11369,0.32803
7251.04216,0.23259
7252.97063,0.20647
7254.89910,0.25393
7256.82756,0.20050
7258.75603,0.09917
7260.68450,0.00371
7262.61297,-0.10927
7264.54144,-0.20024
7266.46991,-0.20057
7268.39838,-0.14436
7270.32685,-0.09195
7272.25531,0.00828
7274.18378,0.09454
7276.11225,0.01491
7278.04072,-0.08201
7279.96919,-0.01336
7281.89766,0.14780
7283.82613,0.25290
7285.75459,0.25630
7287.68306,0.23230
7289.61153,0.26613
7291.54000,0.18190
7293.46847,-0.01891
7295.39694,-0.09934
7297.32541,-0.05132
7299.25387,0.06122
7301.18234,0.10452
7303.11081,0.00541
7305.03928,-0.07248
7306.96775,-0.02423
7308.89622,0.15874
7310.82469,0.39437
7312.75316,0.52117
7314.68162,0.55003
7316.61009,0.55189
7318.53856,0.52095
7320.46703,0.40416
7322.39550,0.25403
7324.32397,0.15896
7326.25244,0.04912
7328.18090,-0.15016
7330.10937,-0.22018
7332.03784,-0.07468
7333.96631,0.02168
7335.89478,0.00336
7337.82325,-0.01813
7339.75172,-0.01505
7341.68019,-0.14523
7343.60865,-0.31567
7345.53712,-0.34281
7347.46559,-0.20630
7349.39406,-0.03453
7351.32253,0.00065
7353.25100,-0.07976
7355.17947,-0.06099
7357.10793,0.07288
7359.03640,0.11826
7360.96487,-0.02987
7362.89334,-0.29827
7364.82181,-0.40282
7366.75028,-0.24920
7368.67875,-0.04913
7370.60722,0.07912
7372.53568,0.16573
7374.46415,0.29710
7376.39262,0.42726
7378.32109,0.46634
7380.24956,0.48535
7382.17803,0.41467
7384.10650,0.25433
7386.03496,0.19031
7387.96343,0.11981
7389.89190,-0.08117
7391.82037,-0.16747
7393.74884,-0.03508
7395.67731,0.05687
7397.60578,-0.03501
7399.53425,-0.05225
7401.46271,0.09625
7403.39118,0.21573
7405.31965,0.15666
7407.24812,0.05579
7409.17659,0.01875
7411.10506,-0.04921
7413.03353,-0.06551
7414.96199,0.07926
7416.89046,0.33400
7418.81893,0.59781
7420.74740,0.55581
7422.67587,0.25036
7424.60434,0.02526
7426.53281,-0.06683
7428.46128,-0.07310
7430.38974,0.05203
7432.31821,0.22288
7434.24668,0.25376
7436.17515,0.15540
7438.10362,0.11746
7440.03209,0.12231
7441.96056,0.03023
7443.88902,-0.01793
7445.81749,0.02324
7447.74596,0.05288
7449.67443,0.02109
7451.60290,-0.10035
7453.53137,-0.19366
7455.45984,-0.22122
7457.38831,-0.19599
7459.31677,-0.07018
7461.24524,0.10739
7463.17371,0.27653
7465.10218,0.40170
7467.03065,0.38470
7468.95912,0.25014
7470.88759,0.10555
7472.81605,0.05051
7474.74452,0.10034
7476.67299,0.25509
7478.60146,0.37035
7480.52993,0.16806
7482.45840,-0.24735
7484.38687,-0.45570
7486.31533,-0.32608
7488.24380,-0.08359
7490.17227,0.05552
7492.10074,0.18329
7494.02921,0.28400
7495.95768,0.35829
7497.88615,0.49207
