399.19301,0.78365
401.12148,1.01258
403.04995,0.49666
404.97842,0.17936
406.90689,0.16271
408.83536,0.28540
410.76382,0.39496
412.69229,0.30092
414.62076,0.07129
416.54923,-0.12174
418.47770,-0.13286
420.40617,0.12442
422.33464,0.29581
424.26311,0.25733
426.19157,0.16105
428.12004,0.18347
430.04851,0.26051
431.97698,0.22886
433.90545,0.14807
435.83392,0.08455
437.76239,0.07031
439.69085,0.13090
441.61932,0.17689
443.54779,0.12355
445.47626,0.05088
447.40473,0.04794
449.33320,0.05035
451.26167,-0.00679
453.19013,-0.05110
455.11860,-0.00975
457.04707,0.08280
458.97554,0.13906
460.90401,0.12934
462.83248,0.10574
464.76095,0.08507
466.68942,0.07213
468.61788,0.09889
470.54635,0.11734
472.47482,0.08812
474.40329,0.03136
476.33176,-0.00030
478.26023,0.04419
480.18870,0.12827
482.11716,0.19169
484.04563,0.20568
485.97410,0.18419
487.90257,0.12218
489.83104,0.04724
491.75951,0.01647
493.68798,0.02509
495.61645,0.06758
497.54491,0.12820
499.47338,0.15369
501.40185,0.14401
503.33032,0.13754
505.25879,0.12183
507.18726,0.09534
509.11573,0.10647
511.04419,0.12266
512.97266,0.10692
514.90113,0.09334
516.82960,0.08837
518.75807,0.07870
520.68654,0.08187
522.61501,0.09422
524.54348,0.09019
526.47194,0.07632
528.40041,0.08101
530.32888,0.07032
532.25735,0.03099
534.18582,0.01922
536.11429,0.03132
538.04276,0.03629
539.97122,0.03713
541.89969,0.05512
543.82816,0.11312
545.75663,0.15022
547.68510,0.12672
549.61357,0.08139
551.54204,-0.03177
553.47051,-0.17665
555.39897,-0.15212
557.32744,-0.01006
559.25591,0.06702
561.18438,0.10525
563.11285,0.15456
565.04132,0.15338
566.96979,0.10672
568.89825,0.08189
570.82672,0.09081
572.75519,0.09421
574.68366,0.08433
576.61213,0.09586
578.54060,0.11099
580.46907,0.09313
582.39754,0.08451
584.32600,0.10467
586.25447,0.11345
588.18294,0.09922
590.11141,0.09694
592.03988,0.10908
593.96835,0.09697
595.89682,0.07460
597.82528,0.07307
599.75375,0.09161
601.68222,0.11474
603.61069,0.12850
605.53916,0.12110
607.46763,0.10011
609.39610,0.08954
611.32456,0.10255
613.25303,0.12022
615.18150,0.11120
617.10997,0.09976
619.03844,0.10692
620.96691,0.10968
622.89538,0.10510
624.82385,0.10130
626.75231,0.10002
628.68078,0.10319
630.60925,0.09650
632.53772,0.07601
634.46619,0.07780
636.39466,0.11002
638.32313,0.14105
640.25159,0.15593
642.18006,0.15599
644.10853,0.13713
646.03700,0.11279
647.96547,0.10700
649.89394,0.11343
651.82241,0.12265
653.75088,0.13412
655.67934,0.14445
657.60781,0.14562
659.53628,0.13291
661.46475,0.12231
663.39322,0.11872
665.32169,0.11128
667.25016,0.09204
669.17862,0.07230
671.10709,0.08181
673.03556,0.10189
674.96403,0.11346
676.89250,0.11855
678.82097,0.12138
680.74944,0.11281
682.67791,0.10179
684.60637,0.10607
686.53484,0.12094
688.46331,0.12458
690.39178,0.11505
692.32025,0.11915
694.24872,0.14529
696.17719,0.17032
698.10565,0.17908
700.03412,0.17386
701.96259,0.15626
703.89106,0.12642
705.81953,0.10067
707.74800,0.10409
709.67647,0.13371
711.60494,0.16892
713.53340,0.18670
715.46187,0.17547
717.39034,0.15274
719.31881,0.13521
721.24728,0.13003
723.17575,0.13628
725.10422,0.14294
727.03268,0.14433
728.96115,0.14445
730.88962,0.13934
732.81809,0.12629
734.74656,0.12600
736.67503,0.13776
738.60350,0.13446
740.53197,0.12115
742.46043,0.11831
744.38890,0.11948
746.31737,0.12164
748.24584,0.13291
750.17431,0.14460
752.10278,0.14500
754.03125,0.13163
755.95971,0.12072
757.88818,0.12857
759.81665,0.13676
761.74512,0.13229
763.67359,0.13309
765.60206,0.14089
767.53053,0.13781
769.45900,0.12971
771.38746,0.13009
773.31593,0.13926
775.24440,0.15117
777.17287,0.15483
779.10134,0.15327
781.02981,0.15706
782.95828,0.16041
784.88674,0.15325
786.81521,0.14368
788.74368,0.14205
790.67215,0.14147
792.60062,0.13663
794.52909,0.13119
796.45756,0.13671
798.38602,0.15311
800.31449,0.15829
802.24296,0.15242
804.17143,0.15647
806.09990,0.16183
808.02837,0.15002
809.95684,0.12826
811.88531,0.11242
813.81377,0.11091
815.74224,0.12064
817.67071,0.13028
819.59918,0.13814
821.52765,0.14849
823.45612,0.15463
825.38459,0.15289
827.31305,0.15551
829.24152,0.16078
831.16999,0.15664
833.09846,0.14952
835.02693,0.14666
836.95540,0.14013
838.88387,0.13382
840.81234,0.14227
842.74080,0.15331
844.66927,0.15297
846.59774,0.15020
848.52621,0.14377
850.45468,0.13133
852.38315,0.13048
854.31162,0.14842
856.24008,0.16283
858.16855,0.16327
860.09702,0.16502
862.02549,0.16711
863.95396,0.15730
865.88243,0.14112
867.81090,0.12999
869.73937,0.12928
871.66783,0.13928
873.59630,0.14945
875.52477,0.14614
877.45324,0.13004
879.38171,0.12021
881.31018,0.13534
883.23865,0.15856
885.16711,0.16085
887.09558,0.15202
889.02405,0.14922
890.95252,0.15185
892.88099,0.15807
894.80946,0.15497
896.73793,0.14126
898.66640,0.13705
900.59486,0.14676
902.52333,0.16101
904.45180,0.16981
906.38027,0.16859
908.30874,0.16070
910.23721,0.15081
912.16568,0.14726
914.09414,0.15052
916.02261,0.14865
917.95108,0.14220
919.87955,0.14273
921.80802,0.14599
923.73649,0.14263
925.66496,0.14059
927.59343,0.14511
929.52189,0.14470
931.45036,0.13855
933.37883,0.13897
935.30730,0.14344
937.23577,0.14561
939.16424,0.15002
941.09271,0.15413
943.02117,0.15395
944.94964,0.15436
946.87811,0.15614
948.80658,0.15475
950.73505,0.14952
952.66352,0.14386
954.59199,0.14157
956.52045,0.14383
958.44892,0.14751
960.37739,0.14914
962.30586,0.14884
964.23433,0.14733
966.16280,0.14301
968.09127,0.13882
970.01974,0.14316
971.94820,0.15424
973.87667,0.16158
975.80514,0.16191
977.73361,0.15975
979.66208,0.16014
981.59055,0.16130
983.51902,0.15505
985.44748,0.14014
987.37595,0.12965
989.30442,0.13263
991.23289,0.14059
993.16136,0.14633
995.08983,0.15193
997.01830,0.15704
998.94677,0.15943
1000.87523,0.16092
1002.80370,0.16245
1004.73217,0.15924
1006.66064,0.15408
1008.58911,0.15447
1010.51758,0.15724
1012.44605,0.15815
1014.37451,0.15855
1016.30298,0.15901
1018.23145,0.15719
1020.15992,0.15323
1022.08839,0.15022
1024.01686,0.15225
1025.94533,0.15663
1027.87380,0.15218
1029.80226,0.14765
1031.73073,0.15472
1033.65920,0.15960
1035.58767,0.15466
1037.51614,0.14507
1039.44461,0.13742
1041.37308,0.13569
1043.30154,0.13915
1045.23001,0.14619
1047.15848,0.14946
1049.08695,0.14839
1051.01542,0.15030
1052.94389,0.14937
1054.87236,0.14493
1056.80083,0.14925
1058.72929,0.15783
1060.65776,0.16112
1062.58623,0.16506
1064.51470,0.17066
1066.44317,0.17191
1068.37164,0.17332
1070.30011,0.18020
1072.22857,0.18752
1074.15704,0.18726
1076.08551,0.17828
1078.01398,0.16753
1079.94245,0.16163
1081.87092,0.16064
1083.79939,0.16066
1085.72786,0.15984
1087.65632,0.15918
1089.58479,0.16138
1091.51326,0.16781
1093.44173,0.17398
1095.37020,0.17558
1097.29867,0.17487
1099.22714,0.17571
1101.15560,0.17276
1103.08407,0.16397
1105.01254,0.16019
1106.94101,0.16243
1108.86948,0.16409
1110.79795,0.16781
1112.72642,0.17491
1114.65489,0.17543
1116.58335,0.16863
1118.51182,0.16866
1120.44029,0.17272
1122.36876,0.16892
1124.29723,0.16328
1126.22570,0.16261
1128.15417,0.16347
1130.08263,0.16500
1132.01110,0.16406
1133.93957,0.15611
1135.86804,0.14963
1137.79651,0.14919
1139.72498,0.15013
1141.65345,0.15635
1143.58191,0.16638
1145.51038,0.17241
1147.43885,0.17518
1149.36732,0.17676
1151.29579,0.17617
1153.22426,0.17148
1155.15273,0.16694
1157.08120,0.16845
1159.00966,0.17181
1160.93813,0.17292
1162.86660,0.17245
1164.79507,0.17283
1166.72354,0.17382
1168.65201,0.16833
1170.58048,0.15998
1172.50894,0.16032
1174.43741,0.16535
1176.36588,0.16723
1178.29435,0.16818
1180.22282,0.16821
1182.15129,0.16712
1184.07976,0.16836
1186.00823,0.17020
1187.93669,0.17015
1189.86516,0.16943
1191.79363,0.16762
1193.72210,0.16364
1195.65057,0.16174
1197.57904,0.16525
1199.50751,0.16745
1201.43597,0.16676
1203.36444,0.17052
1205.29291,0.17561
1207.22138,0.17558
1209.14985,0.17282
1211.07832,0.16823
1213.00679,0.16236
1214.93526,0.16254
1216.86372,0.16874
1218.79219,0.17105
1220.72066,0.16822
1222.64913,0.16731
1224.57760,0.16910
1226.50607,0.16787
1228.43454,0.16368
1230.36300,0.16252
1232.29147,0.16397
1234.21994,0.16251
1236.14841,0.15921
1238.07688,0.15779
1240.00535,0.15640
1241.93382,0.15474
1243.86229,0.15571
1245.79075,0.15646
1247.71922,0.15474
1249.64769,0.15539
1251.57616,0.15846
1253.50463,0.15947
1255.43310,0.16045
1257.36157,0.16215
1259.29003,0.15992
1261.21850,0.15449
1263.14697,0.15272
1265.07544,0.15802
1267.00391,0.16441
1268.93238,0.16553
1270.86085,0.16471
1272.78932,0.16368
1274.71778,0.16200
1276.64625,0.16335
1278.57472,0.16485
1280.50319,0.15978
1282.43166,0.15457
1284.36013,0.15974
1286.28860,0.16683
1288.21706,0.16652
1290.14553,0.16496
1292.07400,0.16350
1294.00247,0.16071
1295.93094,0.15812
1297.85941,0.15490
1299.78788,0.14853
1301.71634,0.13253
1303.64481,0.11358
1305.57328,0.11739
1307.50175,0.14584
1309.43022,0.16843
1311.35869,0.17335
1313.28716,0.17188
1315.21563,0.16975
1317.14409,0.17001
1319.07256,0.17275
1321.00103,0.17295
1322.92950,0.17034
1324.85797,0.16549
1326.78644,0.16142
1328.71491,0.16130
1330.64337,0.15713
1332.57184,0.15127
1334.50031,0.15229
1336.42878,0.15732
1338.35725,0.16602
1340.28572,0.16635
1342.21419,0.15275
1344.14266,0.14270
1346.07112,0.14294
1347.99959,0.15139
1349.92806,0.15875
1351.85653,0.15909
1353.78500,0.15879
1355.71347,0.16187
1357.64194,0.16733
1359.57040,0.17349
1361.49887,0.17838
1363.42734,0.17743
1365.35581,0.17236
1367.28428,0.16846
1369.21275,0.16726
1371.14122,0.17105
1373.06969,0.17627
1374.99815,0.17723
1376.92662,0.17601
1378.85509,0.17583
1380.78356,0.17744
1382.71203,0.18028
1384.64050,0.18250
1386.56897,0.18303
1388.49743,0.18316
1390.42590,0.18614
1392.35437,0.19195
1394.28284,0.19711
1396.21131,0.19933
1398.13978,0.19899
1400.06825,0.19393
1401.99672,0.18794
1403.92518,0.18646
1405.85365,0.18525
1407.78212,0.18251
1409.71059,0.18327
1411.63906,0.18336
1413.56753,0.17944
1415.49600,0.18066
1417.42446,0.19304
1419.35293,0.20374
1421.28140,0.19931
1423.20987,0.18987
1425.13834,0.18203
1427.06681,0.18114
1428.99528,0.18605
1430.92375,0.18821
1432.85221,0.18888
1434.78068,0.19478
1436.70915,0.19797
1438.63762,0.19013
1440.56609,0.18481
1442.49456,0.18430
1444.42303,0.18416
1446.35149,0.18742
1448.27996,0.19485
1450.20843,0.19716
1452.13690,0.19445
1454.06537,0.19683
1455.99384,0.20866
1457.92231,0.21304
1459.85077,0.20116
1461.77924,0.19615
1463.70771,0.19917
1465.63618,0.19733
1467.56465,0.19113
1469.49312,0.19419
1471.42159,0.20646
1473.35006,0.21353
1475.27852,0.20666
1477.20699,0.19748
1479.13546,0.19353
1481.06393,0.19337
1482.99240,0.19258
1484.92087,0.19487
1486.84934,0.20530
1488.77780,0.21703
1490.70627,0.21158
1492.63474,0.19957
1494.56321,0.20043
1496.49168,0.20967
1498.42015,0.21029
1500.34862,0.20268
1502.27709,0.19536
1504.20555,0.19768
1506.13402,0.22553
1508.06249,0.24027
1509.99096,0.21782
1511.91943,0.20484
1513.84790,0.20577
1515.77637,0.21458
1517.70483,0.22264
1519.63330,0.23292
1521.56177,0.24519
1523.49024,0.23631
1525.41871,0.21688
1527.34718,0.20245
1529.27565,0.19798
1531.20412,0.20253
1533.13258,0.20635
1535.06105,0.20315
1536.98952,0.20736
1538.91799,0.23028
1540.84646,0.25556
1542.77493,0.24492
1544.70340,0.22099
1546.63186,0.20458
1548.56033,0.20207
1550.48880,0.20561
1552.41727,0.20725
1554.34574,0.21149
1556.27421,0.22744
1558.20268,0.24525
1560.13115,0.21998
1562.05961,0.20241
1563.98808,0.20174
1565.91655,0.20020
1567.84502,0.20026
1569.77349,0.20423
1571.70196,0.20256
1573.63043,0.19947
1575.55889,0.19813
1577.48736,0.19208
1579.41583,0.18595
1581.34430,0.18500
1583.27277,0.18649
1585.20124,0.18742
1587.12971,0.18749
1589.05818,0.18631
1590.98664,0.18327
1592.91511,0.17981
1594.84358,0.17846
1596.77205,0.17836
1598.70052,0.17785
1600.62899,0.17848
1602.55746,0.17888
1604.48592,0.17705
1606.41439,0.17636
1608.34286,0.17809
1610.27133,0.18074
1612.19980,0.18456
1614.12827,0.19081
1616.05674,0.20033
1617.98521,0.20386
1619.91367,0.20061
1621.84214,0.20174
1623.77061,0.20541
1625.69908,0.20559
1627.62755,0.20278
1629.55602,0.19753
1631.48449,0.19795
1633.41295,0.21105
1635.34142,0.23088
1637.26989,0.22770
1639.19836,0.21084
1641.12683,0.20042
1643.05530,0.19958
1644.98377,0.21485
1646.91223,0.23760
1648.84070,0.23632
1650.76917,0.23526
1652.69764,0.24914
1654.62611,0.23476
1656.55458,0.21173
1658.48305,0.20676
1660.41152,0.21385
1662.33998,0.21871
1664.26845,0.21019
1666.19692,0.20417
1668.12539,0.21290
1670.05386,0.22254
1671.98233,0.21668
1673.91080,0.21123
1675.83926,0.20934
1677.76773,0.20722
1679.69620,0.20859
1681.62467,0.21597
1683.55314,0.22507
1685.48161,0.22029
1687.41008,0.21212
1689.33855,0.20746
1691.26701,0.20315
1693.19548,0.20394
1695.12395,0.21414
1697.05242,0.22878
1698.98089,0.23607
1700.90936,0.22996
1702.83783,0.22139
1704.76629,0.21850
1706.69476,0.21141
1708.62323,0.20056
1710.55170,0.19597
1712.48017,0.19907
1714.40864,0.21120
1716.33711,0.22647
1718.26558,0.21527
1720.19404,0.19321
1722.12251,0.18834
1724.05098,0.19298
1725.97945,0.19492
1727.90792,0.19568
1729.83639,0.19977
1731.76486,0.20687
1733.69332,0.21261
1735.62179,0.20612
1737.55026,0.19849
1739.47873,0.19692
1741.40720,0.19721
1743.33567,0.19887
1745.26414,0.20480
1747.19261,0.21151
1749.12107,0.21348
1751.04954,0.20893
1752.97801,0.20108
1754.90648,0.19710
1756.83495,0.19893
1758.76342,0.20150
1760.69189,0.20043
1762.62035,0.19469
1764.54882,0.19092
1766.47729,0.19482
1768.40576,0.20412
1770.33423,0.21553
1772.26270,0.21977
1774.19117,0.20842
1776.11964,0.19823
1778.04810,0.19613
1779.97657,0.19540
1781.90504,0.19231
1783.83351,0.19003
1785.76198,0.18766
1787.69045,0.18524
1789.61892,0.18882
1791.54738,0.19853
1793.47585,0.20369
1795.40432,0.20159
1797.33279,0.19837
1799.26126,0.19505
1801.18973,0.19259
1803.11820,0.19263
1805.04666,0.19241
1806.97513,0.19115
1808.90360,0.19089
1810.83207,0.19005
1812.76054,0.18741
1814.68901,0.18812
1816.61748,0.19756
1818.54595,0.21214
1820.47441,0.21652
1822.40288,0.20639
1824.33135,0.19604
1826.25982,0.19343
1828.18829,0.19492
1830.11676,0.19690
1832.04523,0.19513
1833.97369,0.19314
1835.90216,0.19356
1837.83063,0.19312
1839.75910,0.19244
1841.68757,0.19675
1843.61604,0.20321
1845.54451,0.20050
1847.47298,0.19357
1849.40144,0.19013
1851.32991,0.18829
1853.25838,0.18655
1855.18685,0.18574
1857.11532,0.18589
1859.04379,0.18540
1860.97226,0.18541
1862.90072,0.18781
1864.82919,0.19140
1866.75766,0.19591
1868.68613,0.19929
1870.61460,0.19674
1872.54307,0.19422
1874.47154,0.19516
1876.40001,0.19298
1878.32847,0.18776
1880.25694,0.18629
1882.18541,0.18833
1884.11388,0.19025
1886.04235,0.19199
1887.97082,0.19448
1889.89929,0.19427
1891.82775,0.19134
1893.75622,0.19087
1895.68469,0.18993
1897.61316,0.18579
1899.54163,0.18386
1901.47010,0.18602
1903.39857,0.18902
1905.32704,0.19095
1907.25550,0.19225
1909.18397,0.19241
1911.11244,0.19089
1913.04091,0.19063
1914.96938,0.19393
1916.89785,0.19745
1918.82632,0.19621
1920.75478,0.19356
1922.68325,0.19323
1924.61172,0.19305
1926.54019,0.19229
1928.46866,0.19075
1930.39713,0.18901
1932.32560,0.18886
1934.25407,0.19029
1936.18253,0.19206
1938.11100,0.19228
1940.03947,0.19280
1941.96794,0.19561
1943.89641,0.19703
1945.82488,0.19701
1947.75335,0.19637
1949.68181,0.19305
1951.61028,0.18998
1953.53875,0.18995
1955.46722,0.19036
1957.39569,0.18946
1959.32416,0.18947
1961.25263,0.19088
1963.18110,0.19116
1965.10956,0.19089
1967.03803,0.19107
1968.96650,0.19022
1970.89497,0.18943
1972.82344,0.19136
1974.75191,0.19355
1976.68038,0.19140
1978.60884,0.18882
1980.53731,0.18997
1982.46578,0.18973
1984.39425,0.18744
1986.32272,0.18841
1988.25119,0.19214
1990.17966,0.19481
1992.10812,0.19415
1994.03659,0.19162
1995.96506,0.19104
1997.89353,0.19204
1999.82200,0.19223
2001.75047,0.19134
2003.67894,0.19030
2005.60741,0.18915
2007.53587,0.18731
2009.46434,0.18627
2011.39281,0.18623
2013.32128,0.18641
2015.24975,0.18923
2017.17822,0.19383
2019.10669,0.19544
2021.03515,0.19463
2022.96362,0.19424
2024.89209,0.19286
2026.82056,0.19040
2028.74903,0.19055
2030.67750,0.19169
2032.60597,0.18929
2034.53444,0.18538
2036.46290,0.18517
2038.39137,0.18848
2040.31984,0.19138
2042.24831,0.19267
2044.17678,0.19333
2046.10525,0.19434
2048.03372,0.19479
2049.96218,0.19205
2051.89065,0.18750
2053.81912,0.18620
2055.74759,0.18856
2057.67606,0.19033
2059.60453,0.19051
2061.53300,0.19226
2063.46147,0.19493
2065.38993,0.19444
2067.31840,0.19151
2069.24687,0.18918
2071.17534,0.18744
2073.10381,0.18588
2075.03228,0.18595
2076.96075,0.18904
2078.88921,0.19198
2080.81768,0.19149
2082.74615,0.19109
2084.67462,0.19235
2086.60309,0.19193
2088.53156,0.19027
2090.46003,0.18908
2092.38850,0.18982
2094.31696,0.19265
2096.24543,0.19354
2098.17390,0.19218
2100.10237,0.19039
2102.03084,0.18813
2103.95931,0.18697
2105.88778,0.18684
2107.81624,0.18722
2109.74471,0.18831
2111.67318,0.18925
2113.60165,0.19094
2115.53012,0.19329
2117.45859,0.19415
2119.38706,0.19422
2121.31553,0.19400
2123.24399,0.19242
2125.17246,0.19065
2127.10093,0.18920
2129.02940,0.18681
2130.95787,0.18486
2132.88634,0.18463
2134.81481,0.18223
2136.74327,0.17853
2138.67174,0.18122
2140.60021,0.18813
2142.52868,0.19187
2144.45715,0.19233
2146.38562,0.19101
2148.31409,0.19029
2150.24255,0.19141
2152.17102,0.19143
2154.09949,0.18972
2156.02796,0.18744
2157.95643,0.18679
2159.88490,0.19082
2161.81337,0.19691
2163.74184,0.19910
2165.67030,0.19671
2167.59877,0.19401
2169.52724,0.19164
2171.45571,0.18831
2173.38418,0.18767
2175.31265,0.19060
2177.24112,0.19232
2179.16958,0.19258
2181.09805,0.19403
2183.02652,0.19496
2184.95499,0.19364
2186.88346,0.19230
2188.81193,0.19302
2190.74040,0.19386
2192.66887,0.19199
2194.59733,0.18954
2196.52580,0.19039
2198.45427,0.19319
2200.38274,0.19465
2202.31121,0.19463
2204.23968,0.19375
2206.16815,0.19292
2208.09661,0.19246
2210.02508,0.19110
2211.95355,0.18861
2213.88202,0.18534
2215.81049,0.18276
2217.73896,0.18303
2219.66743,0.18504
2221.59590,0.18627
2223.52436,0.18638
2225.45283,0.18654
2227.38130,0.18683
2229.30977,0.18809
2231.23824,0.19187
2233.16671,0.19373
2235.09518,0.18997
2237.02364,0.18533
2238.95211,0.18364
2240.88058,0.18436
2242.80905,0.18641
2244.73752,0.18842
2246.66599,0.18892
2248.59446,0.18821
2250.52293,0.18742
2252.45139,0.18741
2254.37986,0.18836
2256.30833,0.18886
2258.23680,0.18878
2260.16527,0.18866
2262.09374,0.18876
2264.02221,0.18996
2265.95067,0.19030
2267.87914,0.18923
2269.80761,0.19035
2271.73608,0.19321
2273.66455,0.19563
2275.59302,0.19842
2277.52149,0.19860
2279.44996,0.19443
2281.37842,0.19101
2283.30689,0.19093
2285.23536,0.19179
2287.16383,0.19142
2289.09230,0.18960
2291.02077,0.18668
2292.94924,0.18536
2294.87770,0.18710
2296.80617,0.18852
2298.73464,0.18855
2300.66311,0.18771
2302.59158,0.18777
2304.52005,0.19192
2306.44852,0.19421
2308.37699,0.18828
2310.30545,0.18282
2312.23392,0.18583
2314.16239,0.19018
2316.09086,0.18990
2318.01933,0.19056
2319.94780,0.19748
2321.87627,0.20689
2323.80473,0.21192
2325.73320,0.20644
2327.66167,0.19454
2329.59014,0.19294
2331.51861,0.20214
2333.44708,0.20292
2335.37555,0.18812
2337.30401,0.17329
2339.23248,0.18164
2341.16095,0.20723
2343.08942,0.21644
2345.01789,0.20346
2346.94636,0.19297
2348.87483,0.19249
2350.80330,0.20197
2352.73176,0.22344
2354.66023,0.24262
2356.58870,0.23426
2358.51717,0.20561
2360.44564,0.18553
2362.37411,0.17722
2364.30258,0.17748
2366.23104,0.18896
2368.15951,0.20292
2370.08798,0.20746
2372.01645,0.20378
2373.94492,0.19788
2375.87339,0.19306
2377.80186,0.19233
2379.73033,0.19469
2381.65879,0.19796
2383.58726,0.19963
2385.51573,0.19835
2387.44420,0.19637
2389.37267,0.19429
2391.30114,0.19219
2393.22961,0.19086
2395.15807,0.18928
2397.08654,0.18778
2399.01501,0.18693
2400.94348,0.18657
2402.87195,0.18669
2404.80042,0.18620
2406.72889,0.18639
2408.65736,0.18966
2410.58582,0.19396
2412.51429,0.19508
2414.44276,0.19342
2416.37123,0.19308
2418.29970,0.19406
2420.22817,0.19347
2422.15664,0.19240
2424.08510,0.19359
2426.01357,0.19634
2427.94204,0.19864
2429.87051,0.20051
2431.79898,0.20059
2433.72745,0.19699
2435.65592,0.19276
2437.58439,0.19145
2439.51285,0.19136
2441.44132,0.18979
2443.36979,0.18801
2445.29826,0.18814
2447.22673,0.18981
2449.15520,0.19146
2451.08367,0.19031
2453.01213,0.18720
2454.94060,0.18760
2456.86907,0.18979
2458.79754,0.18993
2460.72601,0.19006
2462.65448,0.18947
2464.58295,0.18790
2466.51142,0.18894
2468.43988,0.19204
2470.36835,0.19383
2472.29682,0.19499
2474.22529,0.19555
2476.15376,0.19307
2478.08223,0.19179
2480.01070,0.19489
2481.93916,0.19664
2483.86763,0.19487
2485.79610,0.19339
2487.72457,0.19240
2489.65304,0.19057
2491.58151,0.19015
2493.50998,0.19198
2495.43844,0.19359
2497.36691,0.19327
2499.29538,0.19214
2501.22385,0.19203
2503.15232,0.19110
2505.08079,0.18872
2507.00926,0.18859
2508.93773,0.19169
2510.86619,0.19524
2512.79466,0.19685
2514.72313,0.19546
2516.65160,0.19226
2518.58007,0.19058
2520.50854,0.19178
2522.43701,0.19451
2524.36547,0.19588
2526.29394,0.19380
2528.22241,0.19171
2530.15088,0.19334
2532.07935,0.19557
2534.00782,0.19466
2535.93629,0.19312
2537.86476,0.19463
2539.79322,0.19586
2541.72169,0.19342
2543.65016,0.19098
2545.57863,0.19054
2547.50710,0.18979
2549.43557,0.18910
2551.36404,0.19084
2553.29250,0.19300
2555.22097,0.19325
2557.14944,0.19407
2559.07791,0.19478
2561.00638,0.19318
2562.93485,0.19309
2564.86332,0.19496
2566.79179,0.19393
2568.72025,0.19086
2570.64872,0.18981
2572.57719,0.19147
2574.50566,0.19483
2576.43413,0.19687
2578.36260,0.19541
2580.29107,0.19295
2582.21953,0.19211
2584.14800,0.19348
2586.07647,0.19631
2588.00494,0.19853
2589.93341,0.19921
2591.86188,0.19860
2593.79035,0.19725
2595.71882,0.19612
2597.64728,0.19515
2599.57575,0.19367
2601.50422,0.19235
2603.43269,0.19207
2605.36116,0.19208
2607.28963,0.19212
2609.21810,0.19199
2611.14656,0.19194
2613.07503,0.19435
2615.00350,0.19832
2616.93197,0.19922
2618.86044,0.19670
2620.78891,0.19684
2622.71738,0.20053
2624.64585,0.20158
2626.57431,0.19854
2628.50278,0.19516
2630.43125,0.19566
2632.35972,0.19845
2634.28819,0.19833
2636.21666,0.19592
2638.14513,0.19525
2640.07359,0.19783
2642.00206,0.19991
2643.93053,0.19748
2645.85900,0.19316
2647.78747,0.19331
2649.71594,0.19897
2651.64441,0.20242
2653.57288,0.19943
2655.50134,0.19665
2657.42981,0.19806
2659.35828,0.19919
2661.28675,0.19849
2663.21522,0.19847
2665.14369,0.19884
2667.07216,0.19838
2669.00062,0.19703
2670.92909,0.19471
2672.85756,0.19356
2674.78603,0.19593
2676.71450,0.19971
2678.64297,0.20169
2680.57144,0.20060
2682.49990,0.19854
2684.42837,0.19824
2686.35684,0.19866
2688.28531,0.19885
2690.21378,0.19846
2692.14225,0.19794
2694.07072,0.19928
2695.99919,0.20234
2697.92765,0.20392
2699.85612,0.20173
2701.78459,0.19834
2703.71306,0.19624
2705.64153,0.19460
2707.57000,0.19425
2709.49847,0.19772
2711.42693,0.20297
2713.35540,0.20515
2715.28387,0.20463
2717.21234,0.20265
2719.14081,0.19903
2721.06928,0.19802
2722.99775,0.20157
2724.92622,0.20488
2726.85468,0.20455
2728.78315,0.20234
2730.71162,0.20144
2732.64009,0.20185
2734.56856,0.20152
2736.49703,0.19953
2738.42550,0.19699
2740.35396,0.19741
2742.28243,0.20085
2744.21090,0.20266
2746.13937,0.20220
2748.06784,0.20118
2749.99631,0.19926
2751.92478,0.19768
2753.85325,0.19839
2755.78171,0.20026
2757.71018,0.20215
2759.63865,0.20356
2761.56712,0.20227
2763.49559,0.20131
2765.42406,0.20429
2767.35253,0.20554
2769.28099,0.20366
2771.20946,0.20377
2773.13793,0.20576
2775.06640,0.20689
2776.99487,0.20584
2778.92334,0.20459
2780.85181,0.20625
2782.78028,0.20869
2784.70874,0.20888
2786.63721,0.20778
2788.56568,0.20667
2790.49415,0.20598
2792.42262,0.20515
2794.35109,0.20383
2796.27956,0.20266
2798.20802,0.20186
2800.13649,0.20289
2802.06496,0.20533
2803.99343,0.20672
2805.92190,0.20775
2807.85037,0.20930
2809.77884,0.20978
2811.70731,0.20968
2813.63577,0.21048
2815.56424,0.20930
2817.49271,0.20639
2819.42118,0.20550
2821.34965,0.20464
2823.27812,0.20253
2825.20659,0.20204
2827.13505,0.20332
2829.06352,0.20301
2830.99199,0.19928
2832.92046,0.19630
2834.84893,0.19944
2836.77740,0.20584
2838.70587,0.20905
2840.63433,0.20925
2842.56280,0.20978
2844.49127,0.20991
2846.41974,0.20854
2848.34821,0.20800
2850.27668,0.20650
2852.20515,0.20245
2854.13362,0.20229
2856.06208,0.20693
2857.99055,0.20901
2859.91902,0.20690
2861.84749,0.20656
2863.77596,0.20953
2865.70443,0.21063
2867.63290,0.21006
2869.56136,0.21148
2871.48983,0.21260
2873.41830,0.20988
2875.34677,0.20343
2877.27524,0.19773
2879.20371,0.20050
2881.13218,0.20808
2883.06065,0.20824
2884.98911,0.20404
2886.91758,0.20635
2888.84605,0.21268
2890.77452,0.21370
2892.70299,0.20800
2894.63146,0.20104
2896.55993,0.19794
2898.48839,0.19951
2900.41686,0.20284
2902.34533,0.20560
2904.27380,0.20500
2906.20227,0.20126
2908.13074,0.19984
2910.05921,0.20087
2911.98768,0.20059
2913.91614,0.19902
2915.84461,0.19745
2917.77308,0.19815
2919.70155,0.19962
2921.63002,0.19707
2923.55849,0.19145
2925.48696,0.18679
2927.41542,0.18905
2929.34389,0.19698
2931.27236,0.20005
2933.20083,0.19803
2935.12930,0.19324
2937.05777,0.18854
2938.98624,0.19360
2940.91471,0.20196
2942.84317,0.20212
2944.77164,0.19459
2946.70011,0.18275
2948.62858,0.17963
2950.55705,0.19041
2952.48552,0.20107
2954.41399,0.20230
2956.34245,0.19157
2958.27092,0.17977
2960.19939,0.18435
2962.12786,0.19861
2964.05633,0.20641
2965.98480,0.20392
2967.91327,0.19749
2969.84174,0.19827
2971.77020,0.20364
2973.69867,0.20435
2975.62714,0.19902
2977.55561,0.19050
2979.48408,0.18948
2981.41255,0.19745
2983.34102,0.20397
2985.26948,0.20552
2987.19795,0.20192
2989.12642,0.20003
2991.05489,0.20542
2992.98336,0.21009
2994.91183,0.21102
2996.84030,0.21080
2998.76877,0.21070
3000.69723,0.21247
3002.62570,0.21155
3004.55417,0.20440
3006.48264,0.19512
3008.41111,0.18943
3010.33958,0.18341
3012.26805,0.16066
3014.19651,0.11995
3016.12498,0.09300
3018.05345,0.11448
3019.98192,0.16928
3021.91039,0.20804
3023.83886,0.21815
3025.76733,0.21642
3027.69579,0.21159
3029.62426,0.20923
3031.55273,0.20943
3033.48120,0.21006
3035.40967,0.21138
3037.33814,0.20926
3039.26661,0.20737
3041.19508,0.21110
3043.12354,0.21404
3045.05201,0.20919
3046.98048,0.19916
3048.90895,0.19601
3050.83742,0.20315
3052.76589,0.21033
3054.69436,0.20857
3056.62282,0.20049
3058.55129,0.20169
3060.47976,0.21208
3062.40823,0.21471
3064.33670,0.20674
3066.26517,0.19832
3068.19364,0.20102
3070.12211,0.21140
3072.05057,0.21404
3073.97904,0.20562
3075.90751,0.19666
3077.83598,0.19976
3079.76445,0.21016
3081.69292,0.21162
3083.62139,0.20072
3085.54985,0.19175
3087.47832,0.19726
3089.40679,0.20652
3091.33526,0.20763
3093.26373,0.20072
3095.19220,0.19501
3097.12067,0.20218
3099.04914,0.21231
3100.97760,0.20760
3102.90607,0.19193
3104.83454,0.18792
3106.76301,0.19971
3108.69148,0.20908
3110.61995,0.20560
3112.54842,0.19577
3114.47688,0.19590
3116.40535,0.20440
3118.33382,0.20574
3120.26229,0.19894
3122.19076,0.19737
3124.11923,0.20775
3126.04770,0.21591
3127.97617,0.21183
3129.90463,0.20273
3131.83310,0.19991
3133.76157,0.20496
3135.69004,0.20652
3137.61851,0.20120
3139.54698,0.19765
3141.47545,0.20003
3143.40391,0.20506
3145.33238,0.20893
3147.26085,0.21061
3149.18932,0.21338
3151.11779,0.21912
3153.04626,0.22085
3154.97473,0.21329
3156.90320,0.20594
3158.83166,0.20963
3160.76013,0.21748
3162.68860,0.21826
3164.61707,0.21550
3166.54554,0.21726
3168.47401,0.21995
3170.40248,0.21813
3172.33094,0.21626
3174.25941,0.21635
3176.18788,0.21771
3178.11635,0.22158
3180.04482,0.22308
3181.97329,0.21995
3183.90176,0.21614
3185.83022,0.21393
3187.75869,0.21551
3189.68716,0.21879
3191.61563,0.21726
3193.54410,0.21257
3195.47257,0.21318
3197.40104,0.21680
3199.32951,0.21407
3201.25797,0.20751
3203.18644,0.20757
3205.11491,0.21637
3207.04338,0.22520
3208.97185,0.22733
3210.90032,0.22623
3212.82879,0.22674
3214.75725,0.22370
3216.68572,0.21585
3218.61419,0.21315
3220.54266,0.21470
3222.47113,0.21403
3224.39960,0.21513
3226.32807,0.22009
3228.25654,0.22332
3230.18500,0.22138
3232.11347,0.21470
3234.04194,0.20700
3235.97041,0.20490
3237.89888,0.21004
3239.82735,0.21687
3241.75582,0.22035
3243.68428,0.22022
3245.61275,0.21743
3247.54122,0.21306
3249.46969,0.20938
3251.39816,0.20663
3253.32663,0.20431
3255.25510,0.20355
3257.18357,0.20429
3259.11203,0.20635
3261.04050,0.21000
3262.96897,0.21129
3264.89744,0.21139
3266.82591,0.21667
3268.75438,0.22266
3270.68285,0.22176
3272.61131,0.21581
3274.53978,0.21232
3276.46825,0.21475
3278.39672,0.21858
3280.32519,0.21980
3282.25366,0.21846
3284.18213,0.21616
3286.11060,0.21585
3288.03906,0.21789
3289.96753,0.21833
3291.89600,0.21674
3293.82447,0.21569
3295.75294,0.21525
3297.68141,0.21653
3299.60988,0.21718
3301.53834,0.21368
3303.46681,0.20892
3305.39528,0.20560
3307.32375,0.20564
3309.25222,0.21134
3311.18069,0.21781
3313.10916,0.21483
3315.03763,0.20362
3316.96609,0.19738
3318.89456,0.19940
3320.82303,0.20305
3322.75150,0.20803
3324.67997,0.21550
3326.60844,0.22039
3328.53691,0.22111
3330.46537,0.22243
3332.39384,0.22336
3334.32231,0.22260
3336.25078,0.22390
3338.17925,0.22482
3340.10772,0.22264
3342.03619,0.22171
3343.96466,0.22467
3345.89312,0.22647
3347.82159,0.22236
3349.75006,0.21554
3351.67853,0.21152
3353.60700,0.21343
3355.53547,0.21796
3357.46394,0.21834
3359.39240,0.21620
3361.32087,0.21318
3363.24934,0.20777
3365.17781,0.20536
3367.10628,0.20778
3369.03475,0.21155
3370.96322,0.21688
3372.89168,0.22163
3374.82015,0.22024
3376.74862,0.21312
3378.67709,0.20847
3380.60556,0.20875
3382.53403,0.20810
3384.46250,0.20693
3386.39097,0.20950
3388.31943,0.21442
3390.24790,0.21769
3392.17637,0.21692
3394.10484,0.21628
3396.03331,0.22092
3397.96178,0.22216
3399.89025,0.21341
3401.81871,0.20601
3403.74718,0.20585
3405.67565,0.20890
3407.60412,0.21420
3409.53259,0.21604
3411.46106,0.21120
3413.38953,0.20992
3415.31800,0.21580
3417.24646,0.21840
3419.17493,0.21273
3421.10340,0.20592
3423.03187,0.20477
3424.96034,0.20726
3426.88881,0.20918
3428.81728,0.21137
3430.74574,0.21383
3432.67421,0.21276
3434.60268,0.21054
3436.53115,0.21087
3438.45962,0.20844
3440.38809,0.20300
3442.31656,0.20328
3444.24503,0.20891
3446.17349,0.21323
3448.10196,0.21188
3450.03043,0.20562
3451.95890,0.20172
3453.88737,0.20200
3455.81584,0.20254
3457.74431,0.20249
3459.67277,0.20137
3461.60124,0.19798
3463.52971,0.19487
3465.45818,0.19503
3467.38665,0.19683
3469.31512,0.19911
3471.24359,0.20134
3473.17206,0.20215
3475.10052,0.20225
3477.02899,0.20168
3478.95746,0.20029
3480.88593,0.19716
3482.81440,0.19069
3484.74287,0.18325
3486.67134,0.17911
3488.59980,0.18092
3490.52827,0.18539
3492.45674,0.18586
3494.38521,0.18244
3496.31368,0.18184
3498.24215,0.18524
3500.17062,0.18819
3502.09909,0.18941
3504.02755,0.18740
3505.95602,0.18320
3507.88449,0.18280
3509.81296,0.18359
3511.74143,0.17850
3513.66990,0.17450
3515.59837,0.17749
3517.52683,0.18100
3519.45530,0.18393
3521.38377,0.18772
3523.31224,0.18707
3525.24071,0.18449
3527.16918,0.18588
3529.09765,0.18570
3531.02611,0.18005
3532.95458,0.17414
3534.88305,0.17132
3536.81152,0.16977
3538.73999,0.16807
3540.66846,0.16697
3542.59693,0.16766
3544.52540,0.17240
3546.45386,0.17821
3548.38233,0.17828
3550.31080,0.17510
3552.23927,0.17393
3554.16774,0.17382
3556.09621,0.17095
3558.02468,0.16841
3559.95314,0.17191
3561.88161,0.17843
3563.81008,0.18418
3565.73855,0.18851
3567.66702,0.18410
3569.59549,0.17407
3571.52396,0.16772
3573.45243,0.16398
3575.38089,0.16161
3577.30936,0.15789
3579.23783,0.15189
3581.16630,0.15096
3583.09477,0.15922
3585.02324,0.17067
3586.95171,0.17674
3588.88017,0.17097
3590.80864,0.16156
3592.73711,0.16079
3594.66558,0.16828
3596.59405,0.17231
3598.52252,0.17066
3600.45099,0.16933
3602.37946,0.16941
3604.30792,0.16701
3606.23639,0.16164
3608.16486,0.15756
3610.09333,0.15511
3612.02180,0.15364
3613.95027,0.15544
3615.87874,0.15850
3617.80720,0.16044
3619.73567,0.15869
3621.66414,0.15257
3623.59261,0.14869
3625.52108,0.15384
3627.44955,0.16951
3629.37802,0.17491
3631.30649,0.15985
3633.23495,0.14911
3635.16342,0.14425
3637.09189,0.14161
3639.02036,0.14084
3640.94883,0.14085
3642.87730,0.14231
3644.80577,0.14828
3646.73423,0.15815
3648.66270,0.16351
3650.59117,0.15492
3652.51964,0.14479
3654.44811,0.14333
3656.37658,0.14588
3658.30505,0.14329
3660.23352,0.13961
3662.16198,0.13811
3664.09045,0.13781
3666.01892,0.14267
3667.94739,0.15403
3669.87586,0.16200
3671.80433,0.15973
3673.73280,0.15987
3675.66126,0.15799
3677.58973,0.14457
3679.51820,0.13473
3681.44667,0.13209
3683.37514,0.13251
3685.30361,0.13804
3687.23208,0.15206
3689.16055,0.16185
3691.08901,0.15233
3693.01748,0.14074
3694.94595,0.13395
3696.87442,0.13127
3698.80289,0.13582
3700.73136,0.14200
3702.65983,0.13947
3704.58829,0.13176
3706.51676,0.12758
3708.44523,0.13258
3710.37370,0.14822
3712.30217,0.15406
3714.23064,0.14350
3716.15911,0.13417
3718.08757,0.12840
3720.01604,0.12815
3721.94451,0.13684
3723.87298,0.14604
3725.80145,0.14633
3727.72992,0.14291
3729.65839,0.14131
3731.58686,0.14199
3733.51532,0.15045
3735.44379,0.15896
3737.37226,0.15122
3739.30073,0.14268
3741.22920,0.14050
3743.15767,0.14248
3745.08614,0.15014
3747.01460,0.15605
3748.94307,0.16032
3750.87154,0.16350
3752.80001,0.15215
3754.72848,0.13840
3756.65695,0.13355
3758.58542,0.13404
3760.51389,0.13363
3762.44235,0.13160
3764.37082,0.12960
3766.29929,0.12898
3768.22776,0.13270
3770.15623,0.13633
3772.08470,0.12995
3774.01317,0.12133
3775.94163,0.11905
3777.87010,0.12111
3779.79857,0.12295
3781.72704,0.12236
3783.65551,0.12418
3785.58398,0.12813
3787.51245,0.12637
3789.44092,0.12148
3791.36938,0.12073
3793.29785,0.12604
3795.22632,0.13509
3797.15479,0.14489
3799.08326,0.15488
3801.01173,0.16004
3802.94020,0.14987
3804.86866,0.13835
3806.79713,0.13196
3808.72560,0.12538
3810.65407,0.12227
3812.58254,0.12407
3814.51101,0.12676
3816.43948,0.12848
3818.36795,0.13241
3820.29641,0.13884
3822.22488,0.13887
3824.15335,0.13238
3826.08182,0.12785
3828.01029,0.12779
3829.93876,0.12939
3831.86723,0.12859
3833.79569,0.12792
3835.72416,0.13155
3837.65263,0.13918
3839.58110,0.14693
3841.50957,0.14533
3843.43804,0.13480
3845.36651,0.12699
3847.29498,0.12513
3849.22344,0.12680
3851.15191,0.13313
3853.08038,0.14296
3855.00885,0.14001
3856.93732,0.12874
3858.86579,0.12314
3860.79426,0.12367
3862.72272,0.12804
3864.65119,0.13107
3866.57966,0.12938
3868.50813,0.13509
3870.43660,0.14903
3872.36507,0.15114
3874.29354,0.14166
3876.22200,0.13095
3878.15047,0.12518
3880.07894,0.12379
3882.00741,0.12310
3883.93588,0.12826
3885.86435,0.13630
3887.79282,0.13386
3889.72129,0.12929
3891.64975,0.12985
3893.57822,0.12922
3895.50669,0.12671
3897.43516,0.12652
3899.36363,0.12967
3901.29210,0.13089
3903.22057,0.12778
3905.14903,0.12513
3907.07750,0.12004
3909.00597,0.11202
3910.93444,0.10928
3912.86291,0.11450
3914.79138,0.11839
3916.71985,0.11376
3918.64832,0.10675
3920.57678,0.10669
3922.50525,0.11264
3924.43372,0.11717
3926.36219,0.11575
3928.29066,0.11527
3930.21913,0.12046
3932.14760,0.12564
3934.07606,0.12546
3936.00453,0.12270
3937.93300,0.11884
3939.86147,0.11381
3941.78994,0.11226
3943.71841,0.11333
3945.64688,0.11173
3947.57535,0.11103
3949.50381,0.11331
3951.43228,0.11332
3953.36075,0.10927
3955.28922,0.10637
3957.21769,0.10493
3959.14616,0.10282
3961.07463,0.10502
3963.00309,0.10906
3964.93156,0.10765
3966.86003,0.10394
3968.78850,0.10315
3970.71697,0.10607
3972.64544,0.10976
3974.57391,0.11111
3976.50238,0.11078
3978.43084,0.10932
3980.35931,0.10586
3982.28778,0.10194
3984.21625,0.10008
3986.14472,0.09855
3988.07319,0.09503
3990.00166,0.09372
3991.93012,0.09709
3993.85859,0.10132
3995.78706,0.10537
3997.71553,0.10835
3999.64400,0.10684
4001.57247,0.10121
4003.50094,0.09668
4005.42941,0.09798
4007.35787,0.10269
4009.28634,0.10417
4011.21481,0.10154
4013.14328,0.09802
4015.07175,0.09589
4017.00022,0.09614
4018.92869,0.09641
4020.85715,0.09785
4022.78562,0.10486
4024.71409,0.11033
4026.64256,0.10624
4028.57103,0.09921
4030.49950,0.09624
4032.42797,0.09773
4034.35644,0.09948
4036.28490,0.09692
4038.21337,0.09339
4040.14184,0.09180
4042.07031,0.09115
4043.99878,0.09316
4045.92725,0.09922
4047.85572,0.10533
4049.78418,0.10440
4051.71265,0.09637
4053.64112,0.08954
4055.56959,0.08637
4057.49806,0.08385
4059.42653,0.08631
4061.35500,0.09503
4063.28346,0.10224
4065.21193,0.10584
4067.14040,0.10730
4069.06887,0.10554
4070.99734,0.10147
4072.92581,0.09751
4074.85428,0.09590
4076.78275,0.09763
4078.71121,0.09784
4080.63968,0.09364
4082.56815,0.09327
4084.49662,0.09925
4086.42509,0.10078
4088.35356,0.09482
4090.28203,0.08963
4092.21049,0.08912
4094.13896,0.09162
4096.06743,0.09374
4097.99590,0.09453
4099.92437,0.09632
4101.85284,0.09755
4103.78131,0.09495
4105.70978,0.09191
4107.63824,0.09384
4109.56671,0.09688
4111.49518,0.09477
4113.42365,0.08940
4115.35212,0.08848
4117.28059,0.09332
4119.20906,0.09416
4121.13752,0.08843
4123.06599,0.08169
4124.99446,0.07793
4126.92293,0.08296
4128.85140,0.09341
4130.77987,0.09586
4132.70834,0.08945
4134.63681,0.08288
4136.56527,0.08091
4138.49374,0.08774
4140.42221,0.09734
4142.35068,0.09787
4144.27915,0.09383
4146.20762,0.09162
4148.13609,0.08854
4150.06455,0.08633
4151.99302,0.08593
4153.92149,0.08120
4155.84996,0.07490
4157.77843,0.07657
4159.70690,0.08097
4161.63537,0.07931
4163.56384,0.07614
4165.49230,0.07566
4167.42077,0.07706
4169.34924,0.07898
4171.27771,0.07737
4173.20618,0.07432
4175.13465,0.07915
4177.06312,0.08751
4178.99158,0.08648
4180.92005,0.08156
4182.84852,0.08185
4184.77699,0.08009
4186.70546,0.07310
4188.63393,0.06802
4190.56240,0.06565
4192.49087,0.06529
4194.41933,0.07067
4196.34780,0.07777
4198.27627,0.08043
4200.20474,0.08161
4202.13321,0.08474
4204.06168,0.08575
4205.99015,0.08082
4207.91861,0.07394
4209.84708,0.07073
4211.77555,0.07067
4213.70402,0.06844
4215.63249,0.06422
4217.56096,0.06326
4219.48943,0.06465
4221.41789,0.06741
4223.34636,0.07291
4225.27483,0.07822
4227.20330,0.08091
4229.13177,0.08189
4231.06024,0.08193
4232.98871,0.07960
4234.91718,0.07557
4236.84564,0.07394
4238.77411,0.07352
4240.70258,0.07078
4242.63105,0.06834
4244.55952,0.06941
4246.48799,0.07268
4248.41646,0.07646
4250.34492,0.07905
4252.27339,0.07690
4254.20186,0.07126
4256.13033,0.06849
4258.05880,0.06872
4259.98727,0.06819
4261.91574,0.06975
4263.84421,0.07455
4265.77267,0.07444
4267.70114,0.06532
4269.62961,0.05644
4271.55808,0.05711
4273.48655,0.06251
4275.41502,0.06649
4277.34349,0.07229
4279.27195,0.07709
4281.20042,0.07362
4283.12889,0.06493
4285.05736,0.05931
4286.98583,0.05926
4288.91430,0.06202
4290.84277,0.06409
4292.77124,0.05951
4294.69970,0.04973
4296.62817,0.04825
4298.55664,0.05893
4300.48511,0.06873
4302.41358,0.06983
4304.34205,0.06965
4306.27052,0.07132
4308.19898,0.06914
4310.12745,0.06526
4312.05592,0.06301
4313.98439,0.06142
4315.91286,0.06239
4317.84133,0.06478
4319.76980,0.06362
4321.69827,0.06021
4323.62673,0.05844
4325.55520,0.05510
4327.48367,0.05036
4329.41214,0.05005
4331.34061,0.05141
4333.26908,0.05307
4335.19755,0.05808
4337.12601,0.06069
4339.05448,0.05873
4340.98295,0.05681
4342.91142,0.05420
4344.83989,0.05206
4346.76836,0.05279
4348.69683,0.05242
4350.62530,0.05070
4352.55376,0.05101
4354.48223,0.05163
4356.41070,0.04957
4358.33917,0.04672
4360.26764,0.04703
4362.19611,0.04750
4364.12458,0.04599
4366.05304,0.04591
4367.98151,0.04757
4369.90998,0.04936
4371.83845,0.04417
4373.76692,0.03199
4375.69539,0.02448
4377.62386,0.02592
4379.55232,0.03048
4381.48079,0.02963
4383.40926,0.02537
4385.33773,0.02607
4387.26620,0.03266
4389.19467,0.03993
4391.12314,0.04410
4393.05161,0.04643
4394.98007,0.04509
4396.90854,0.03963
4398.83701,0.03494
4400.76548,0.03284
4402.69395,0.03355
4404.62242,0.03812
4406.55089,0.03931
4408.47935,0.03197
4410.40782,0.02934
4412.33629,0.03984
4414.26476,0.05049
4416.19323,0.04633
4418.12170,0.03348
4420.05017,0.02984
4421.97864,0.03768
4423.90710,0.04386
4425.83557,0.04001
4427.76404,0.03126
4429.69251,0.02495
4431.62098,0.02326
4433.54945,0.02557
4435.47792,0.03248
4437.40638,0.03885
4439.33485,0.03568
4441.26332,0.02998
4443.19179,0.03142
4445.12026,0.03574
4447.04873,0.03444
4448.97720,0.02696
4450.90567,0.02003
4452.83413,0.01876
4454.76260,0.02667
4456.69107,0.03925
4458.61954,0.04375
4460.54801,0.03893
4462.47648,0.03091
4464.40495,0.02177
4466.33341,0.01899
4468.26188,0.02497
4470.19035,0.03396
4472.11882,0.04104
4474.04729,0.04126
4475.97576,0.03699
4477.90423,0.03488
4479.83270,0.03711
4481.76116,0.03584
4483.68963,0.02846
4485.61810,0.02873
4487.54657,0.03575
4489.47504,0.03598
4491.40351,0.03088
4493.33198,0.02713
4495.26044,0.02826
4497.18891,0.03772
4499.11738,0.04487
4501.04585,0.04163
4502.97432,0.04189
4504.90279,0.04885
4506.83126,0.04883
4508.75973,0.03914
4510.68819,0.02798
4512.61666,0.01755
4514.54513,0.00951
4516.47360,0.00884
4518.40207,0.01411
4520.33054,0.01980
4522.25901,0.02336
4524.18747,0.02621
4526.11594,0.02930
4528.04441,0.03291
4529.97288,0.03160
4531.90135,0.02042
4533.82982,0.00963
4535.75829,0.00907
4537.68676,0.01289
4539.61522,0.01292
4541.54369,0.01268
4543.47216,0.01739
4545.40063,0.02610
4547.32910,0.03041
4549.25757,0.02533
4551.18604,0.01986
4553.11450,0.01519
4555.04297,0.00589
4556.97144,-0.00349
4558.89991,-0.00637
4560.82838,-0.00166
4562.75685,0.00246
4564.68532,0.00230
4566.61378,0.00663
4568.54225,0.01269
4570.47072,0.01407
4572.39919,0.01579
4574.32766,0.01507
4576.25613,0.01124
4578.18460,0.01179
4580.11307,0.01062
4582.04153,0.00432
4583.97000,0.00441
4585.89847,0.01530
4587.82694,0.03153
4589.75541,0.04255
4591.68388,0.03480
4593.61235,0.01316
4595.54081,-0.00041
4597.46928,-0.00070
4599.39775,0.00116
4601.32622,0.00338
4603.25469,0.01001
4605.18316,0.01643
4607.11163,0.01576
4609.04010,0.00885
4610.96856,0.00552
4612.89703,0.00865
4614.82550,0.00967
4616.75397,0.00809
4618.68244,0.00815
4620.61091,0.00642
4622.53938,0.00392
4624.46784,0.00645
4626.39631,0.01045
4628.32478,0.01179
4630.25325,0.01296
4632.18172,0.01594
4634.11019,0.01882
4636.03866,0.01683
4637.96713,0.00971
4639.89559,0.00454
4641.82406,0.00520
4643.75253,0.00574
4645.68100,0.00743
4647.60947,0.01151
4649.53794,0.00663
4651.46641,-0.00363
4653.39487,-0.00681
4655.32334,-0.00201
4657.25181,0.00571
4659.18028,0.00713
4661.10875,0.00453
4663.03722,0.00807
4664.96569,0.01249
4666.89416,0.01339
4668.82262,0.01365
4670.75109,0.01031
4672.67956,0.00431
4674.60803,0.00264
4676.53650,0.00770
4678.46497,0.01420
4680.39344,0.01808
4682.32190,0.02165
4684.25037,0.02154
4686.17884,0.01108
4688.10731,-0.00244
4690.03578,-0.00705
4691.96425,-0.00222
4693.89272,0.00460
4695.82119,0.00605
4697.74965,0.00761
4699.67812,0.01491
4701.60659,0.02105
4703.53506,0.02089
4705.46353,0.01661
4707.39200,0.01560
4709.32047,0.01710
4711.24893,0.01467
4713.17740,0.01047
4715.10587,0.00895
4717.03434,0.01168
4718.96281,0.01454
4720.89128,0.01408
4722.81975,0.01017
4724.74821,0.00481
4726.67668,0.01095
4728.60515,0.02770
4730.53362,0.03408
4732.46209,0.03220
4734.39056,0.03544
4736.31903,0.03176
4738.24750,0.01116
4740.17596,-0.00742
4742.10443,-0.00619
4744.03290,0.00430
4745.96137,0.00792
4747.88984,0.00234
4749.81831,-0.00379
4751.74678,-0.00007
4753.67524,0.00806
4755.60371,0.01157
4757.53218,0.01619
4759.46065,0.02420
4761.38912,0.02714
4763.31759,0.02384
4765.24606,0.01626
4767.17453,0.00489
4769.10299,0.00024
4771.03146,0.00557
4772.95993,0.00759
4774.88840,0.00357
4776.81687,0.00266
4778.74534,0.00585
4780.67381,0.01233
4782.60227,0.02304
4784.53074,0.02936
4786.45921,0.02451
4788.38768,0.01394
4790.31615,0.00445
4792.24462,0.00049
4794.17309,0.00690
4796.10156,0.01682
4798.03002,0.01466
4799.95849,0.00293
4801.88696,-0.00125
4803.81543,0.00460
4805.74390,0.00583
4807.67237,-0.00410
4809.60084,-0.01205
4811.52930,-0.00600
4813.45777,0.00465
4815.38624,0.00950
4817.31471,0.01172
4819.24318,0.01260
4821.17165,0.01625
4823.10012,0.01539
4825.02859,0.00112
4826.95705,-0.00500
4828.88552,0.00465
4830.81399,0.01327
4832.74246,0.01553
4834.67093,0.01058
4836.59940,0.00425
4838.52787,0.00427
4840.45633,0.00503
4842.38480,0.00665
4844.31327,0.01674
4846.24174,0.02205
4848.17021,0.01269
4850.09868,0.00783
4852.02715,0.01313
4853.95562,0.01396
4855.88408,0.01631
4857.81255,0.03019
4859.74102,0.03663
4861.66949,0.02386
4863.59796,0.01472
4865.52643,0.02297
4867.45490,0.02880
4869.38336,0.01888
4871.31183,0.01231
4873.24030,0.01439
4875.16877,0.00872
4877.09724,-0.00006
4879.02571,-0.00142
4880.95418,0.00203
4882.88265,0.00716
4884.81111,0.00806
4886.73958,0.00441
4888.66805,0.00707
4890.59652,0.01278
4892.52499,0.01159
4894.45346,0.01489
4896.38193,0.02608
4898.31039,0.02310
4900.23886,0.00832
4902.16733,0.00204
4904.09580,-0.00266
4906.02427,-0.01047
4907.95274,-0.01202
4909.88121,-0.00739
4911.80967,-0.00055
4913.73814,0.00423
4915.66661,0.00529
4917.59508,0.00547
4919.52355,0.00422
4921.45202,-0.00056
4923.38049,-0.00010
4925.30896,0.00841
4927.23742,0.00831
4929.16589,0.00683
4931.09436,0.02269
4933.02283,0.03391
4934.95130,0.02361
4936.87977,0.01566
4938.80824,0.02087
4940.73670,0.02134
4942.66517,0.00896
4944.59364,-0.00318
4946.52211,-0.00496
4948.45058,-0.00548
4950.37905,-0.00692
4952.30752,0.00074
4954.23599,0.00782
4956.16445,0.00540
4958.09292,0.00663
4960.02139,0.01635
4961.94986,0.02709
4963.87833,0.03169
4965.80680,0.03098
4967.73527,0.03153
4969.66373,0.03452
4971.59220,0.03648
4973.52067,0.03245
4975.44914,0.02242
4977.37761,0.01862
4979.30608,0.03177
4981.23455,0.04222
4983.16302,0.02840
4985.09148,0.00287
4987.01995,-0.01714
4988.94842,-0.01845
4990.87689,-0.00207
4992.80536,0.00538
4994.73383,-0.00346
4996.66230,-0.00277
4998.59076,0.01151
5000.51923,0.01515
5002.44770,0.00474
5004.37617,-0.00513
5006.30464,-0.00507
5008.23311,0.00738
5010.16158,0.02014
5012.09005,0.02070
5014.01851,0.01887
5015.94698,0.01914
5017.87545,0.01440
5019.80392,0.01099
5021.73239,0.01456
5023.66086,0.02267
5025.58933,0.03035
5027.51779,0.02797
5029.44626,0.01716
5031.37473,0.01183
5033.30320,0.01439
5035.23167,0.01625
5037.16014,0.01384
5039.08861,0.01191
5041.01708,0.01795
5042.94554,0.01913
5044.87401,-0.00125
5046.80248,-0.01718
5048.73095,-0.00107
5050.65942,0.02317
5052.58789,0.02788
5054.51636,0.01568
5056.44482,0.00094
5058.37329,-0.00641
5060.30176,-0.00635
5062.23023,0.00237
5064.15870,0.00921
5066.08717,0.00699
5068.01564,0.01513
5069.94410,0.03135
5071.87257,0.03889
5073.80104,0.03621
5075.72951,0.02618
5077.65798,0.02348
5079.58645,0.03726
5081.51492,0.05277
5083.44339,0.05396
5085.37185,0.05235
5087.30032,0.06062
5089.22879,0.05440
5091.15726,0.02415
5093.08573,-0.00142
5095.01420,-0.00129
5096.94267,0.02965
5098.87113,0.06643
5100.79960,0.06879
5102.72807,0.04038
5104.65654,0.01419
5106.58501,0.00904
5108.51348,0.02106
5110.44195,0.03062
5112.37042,0.03409
5114.29888,0.04071
5116.22735,0.04245
5118.15582,0.03986
5120.08429,0.04173
5122.01276,0.04619
5123.94123,0.05517
5125.86970,0.05992
5127.79816,0.04729
5129.72663,0.02888
5131.65510,0.01633
5133.58357,0.00284
5135.51204,-0.00781
5137.44051,-0.00300
5139.36898,0.01110
5141.29745,0.02747
5143.22591,0.04053
5145.15438,0.04206
5147.08285,0.04205
5149.01132,0.04325
5150.93979,0.03598
5152.86826,0.02794
5154.79673,0.02809
5156.72519,0.03243
5158.65366,0.04018
5160.58213,0.05131
5162.51060,0.05053
5164.43907,0.03092
5166.36754,0.01774
5168.29601,0.02861
5170.22448,0.04797
5172.15294,0.05228
5174.08141,0.04063
5176.00988,0.02781
5177.93835,0.02261
5179.86682,0.02171
5181.79529,0.01800
5183.72376,0.01435
5185.65222,0.01498
5187.58069,0.01673
5189.50916,0.01752
5191.43763,0.01050
5193.36610,-0.00331
5195.29457,-0.00230
5197.22304,0.01423
5199.15151,0.02079
5201.07997,0.02214
5203.00844,0.03254
5204.93691,0.04581
5206.86538,0.06045
5208.79385,0.06791
5210.72232,0.06535
5212.65079,0.06542
5214.57925,0.06356
5216.50772,0.05556
5218.43619,0.04774
5220.36466,0.03832
5222.29313,0.02780
5224.22160,0.01700
5226.15007,0.00599
5228.07854,0.00971
5230.00700,0.03224
5231.93547,0.05566
5233.86394,0.06942
5235.79241,0.07500
5237.72088,0.07085
5239.64935,0.05442
5241.57782,0.02242
5243.50628,-0.00568
5245.43475,0.00724
5247.36322,0.04390
5249.29169,0.05761
5251.22016,0.04685
5253.14863,0.04256
5255.07710,0.05695
5257.00556,0.06995
5258.93403,0.07147
5260.86250,0.07542
5262.79097,0.08133
5264.71944,0.07554
5266.64791,0.07123
5268.57638,0.08441
5270.50485,0.09259
5272.43331,0.07502
5274.36178,0.05345
5276.29025,0.04982
5278.21872,0.05622
5280.14719,0.05528
5282.07566,0.04530
5284.00413,0.03735
5285.93259,0.03351
5287.86106,0.03670
5289.78953,0.05447
5291.71800,0.07286
5293.64647,0.07936
5295.57494,0.08289
5297.50341,0.07887
5299.43188,0.06149
5301.36034,0.04504
5303.28881,0.03199
5305.21728,0.01849
5307.14575,0.01719
5309.07422,0.02831
5311.00269,0.04096
5312.93116,0.05831
5314.85962,0.07365
5316.78809,0.06847
5318.71656,0.05922
5320.64503,0.06491
5322.57350,0.06574
5324.50197,0.05360
5326.43044,0.03858
5328.35891,0.03098
5330.28737,0.04034
5332.21584,0.05310
5334.14431,0.04587
5336.07278,0.02487
5338.00125,0.02640
5339.92972,0.05701
5341.85819,0.06554
5343.78665,0.03081
5345.71512,-0.00062
5347.64359,0.01081
5349.57206,0.03934
5351.50053,0.05071
5353.42900,0.04009
5355.35747,0.03711
5357.28594,0.04859
5359.21440,0.05810
5361.14287,0.05870
5363.07134,0.05524
5364.99981,0.05651
5366.92828,0.05934
5368.85675,0.05987
5370.78522,0.05785
5372.71368,0.05655
5374.64215,0.06724
5376.57062,0.07062
5378.49909,0.04077
5380.42756,0.02163
5382.35603,0.03849
5384.28450,0.05362
5386.21297,0.05074
5388.14143,0.06250
5390.06990,0.08088
5391.99837,0.07926
5393.92684,0.06401
5395.85531,0.05593
5397.78378,0.06049
5399.71225,0.07094
5401.64071,0.07637
5403.56918,0.08283
5405.49765,0.10179
5407.42612,0.11442
5409.35459,0.10067
5411.28306,0.08580
5413.21153,0.08136
5415.13999,0.05102
5417.06846,0.01533
5418.99693,0.01723
5420.92540,0.04606
5422.85387,0.06844
5424.78234,0.07387
5426.71081,0.07243
5428.63928,0.07214
5430.56774,0.06848
5432.49621,0.06564
5434.42468,0.07589
5436.35315,0.08402
5438.28162,0.07150
5440.21009,0.05020
5442.13856,0.04071
5444.06702,0.05188
5445.99549,0.07142
5447.92396,0.08529
5449.85243,0.08834
5451.78090,0.07974
5453.70937,0.07841
5455.63784,0.09440
5457.56631,0.10189
5459.49477,0.08091
5461.42324,0.05239
5463.35171,0.04309
5465.28018,0.05271
5467.20865,0.06871
5469.13712,0.08258
5471.06559,0.09574
5472.99405,0.10485
5474.92252,0.09989
5476.85099,0.09705
5478.77946,0.09592
5480.70793,0.07486
5482.63640,0.05818
5484.56487,0.07461
5486.49334,0.09188
5488.42180,0.06812
5490.35027,0.03303
5492.27874,0.02965
5494.20721,0.03901
5496.13568,0.04829
5498.06415,0.05282
5499.99262,0.03516
5501.92108,0.01511
5503.84955,0.01988
5505.77802,0.05094
5507.70649,0.09437
5509.63496,0.12456
5511.56343,0.11619
5513.49190,0.07507
5515.42037,0.05343
5517.34883,0.06889
5519.27730,0.09510
5521.20577,0.10340
5523.13424,0.07840
5525.06271,0.04216
5526.99118,0.02037
5528.91965,0.01966
5530.84811,0.02482
5532.77658,0.01943
5534.70505,0.01648
5536.63352,0.02185
5538.56199,0.03343
5540.49046,0.05742
5542.41893,0.08233
5544.34740,0.08479
5546.27586,0.07613
5548.20433,0.07207
5550.13280,0.05146
5552.06127,0.02306
5553.98974,0.02682
5555.91821,0.05251
5557.84668,0.06675
5559.77514,0.07131
5561.70361,0.08529
5563.63208,0.11232
5565.56055,0.12577
5567.48902,0.11152
5569.41749,0.08947
5571.34596,0.07348
5573.27443,0.06532
5575.20289,0.06370
5577.13136,0.06797
5579.05983,0.06996
5580.98830,0.05721
5582.91677,0.03779
5584.84524,0.03442
5586.77371,0.04325
5588.70217,0.03119
5590.63064,0.00871
5592.55911,0.00998
5594.48758,0.02234
5596.41605,0.03659
5598.34452,0.06311
5600.27299,0.10200
5602.20145,0.12775
5604.12992,0.11331
5606.05839,0.08792
5607.98686,0.07547
5609.91533,0.05204
5611.84380,0.03356
5613.77227,0.04947
5615.70074,0.07413
5617.62920,0.07900
5619.55767,0.05056
5621.48614,0.00559
5623.41461,-0.00784
5625.34308,0.01738
5627.27155,0.04094
5629.20002,0.04184
5631.12848,0.03826
5633.05695,0.05295
5634.98542,0.08858
5636.91389,0.11033
5638.84236,0.10345
5640.77083,0.10221
5642.69930,0.10186
5644.62777,0.08279
5646.55623,0.07641
5648.48470,0.10288
5650.41317,0.12687
5652.34164,0.12464
5654.27011,0.10701
5656.19858,0.08448
5658.12705,0.08061
5660.05551,0.09342
5661.98398,0.09385
5663.91245,0.10001
5665.84092,0.11550
5667.76939,0.11911
5669.69786,0.11408
5671.62633,0.09328
5673.55480,0.06741
5675.48326,0.07304
5677.41173,0.10228
5679.34020,0.10651
5681.26867,0.09232
5683.19714,0.10347
5685.12561,0.12556
5687.05408,0.12665
5688.98254,0.10699
5690.91101,0.08879
5692.83948,0.09066
5694.76795,0.09176
5696.69642,0.07506
5698.62489,0.06376
5700.55336,0.07480
5702.48183,0.08963
5704.41029,0.09551
5706.33876,0.11134
5708.26723,0.13172
5710.19570,0.13545
5712.12417,0.13345
5714.05264,0.13472
5715.98111,0.13670
5717.90957,0.12723
5719.83804,0.09461
5721.76651,0.06038
5723.69498,0.04694
5725.62345,0.04982
5727.55192,0.06168
5729.48039,0.08429
5731.40886,0.09814
5733.33732,0.09924
5735.26579,0.11293
5737.19426,0.12337
5739.12273,0.11141
5741.05120,0.08704
5742.97967,0.06154
5744.90814,0.04965
5746.83660,0.05940
5748.76507,0.09723
5750.69354,0.13064
5752.62201,0.11922
5754.55048,0.09294
5756.47895,0.07925
5758.40742,0.07185
5760.33588,0.07706
5762.26435,0.09371
5764.19282,0.09206
5766.12129,0.07843
5768.04976,0.09192
5769.97823,0.12453
5771.90670,0.13433
5773.83517,0.10458
5775.76363,0.07489
5777.69210,0.09204
5779.62057,0.13583
5781.54904,0.15469
5783.47751,0.12599
5785.40598,0.07523
5787.33445,0.05192
5789.26291,0.04337
5791.19138,0.03285
5793.11985,0.05051
5795.04832,0.09139
5796.97679,0.12860
5798.90526,0.14243
5800.83373,0.12633
5802.76220,0.11282
5804.69066,0.12041
5806.61913,0.11808
5808.54760,0.10264
5810.47607,0.09531
5812.40454,0.10272
5814.33301,0.11214
5816.26148,0.10914
5818.18994,0.11942
5820.11841,0.13406
5822.04688,0.11480
5823.97535,0.09282
5825.90382,0.08466
5827.83229,0.07685
5829.76076,0.07191
5831.68923,0.07461
5833.61769,0.09479
5835.54616,0.10867
5837.47463,0.08640
5839.40310,0.07110
5841.33157,0.10158
5843.26004,0.13781
5845.18851,0.14324
5847.11697,0.13387
5849.04544,0.12276
5850.97391,0.10300
5852.90238,0.08190
5854.83085,0.07029
5856.75932,0.05582
5858.68779,0.03376
5860.61626,0.04074
5862.54472,0.06780
5864.47319,0.04903
5866.40166,0.02669
5868.33013,0.07340
5870.25860,0.12021
5872.18707,0.11188
5874.11554,0.09655
5876.04400,0.10436
5877.97247,0.10974
5879.90094,0.09274
5881.82941,0.06992
5883.75788,0.05079
5885.68635,0.03025
5887.61482,0.03252
5889.54329,0.06980
5891.47175,0.12089
5893.40022,0.15278
5895.32869,0.12846
5897.25716,0.06999
5899.18563,0.03282
5901.11410,0.01762
5903.04257,0.01694
5904.97103,0.05174
5906.89950,0.10293
5908.82797,0.12531
5910.75644,0.11545
5912.68491,0.09033
5914.61338,0.07052
5916.54185,0.08156
5918.47032,0.13429
5920.39878,0.19006
5922.32725,0.17774
5924.25572,0.11622
5926.18419,0.08478
5928.11266,0.11223
5930.04113,0.14166
5931.96960,0.10703
5933.89806,0.06173
5935.82653,0.06210
5937.75500,0.06742
5939.68347,0.08708
5941.61194,0.13282
5943.54041,0.12646
5945.46888,0.06115
5947.39734,0.02833
5949.32581,0.04463
5951.25428,0.06337
5953.18275,0.06685
5955.11122,0.07202
5957.03969,0.09751
5958.96816,0.09749
5960.89663,0.05157
5962.82509,0.03801
5964.75356,0.07104
5966.68203,0.08876
5968.61050,0.06485
5970.53897,0.02605
5972.46744,-0.00283
5974.39591,0.00289
5976.32437,0.05604
5978.25284,0.11829
5980.18131,0.14587
5982.10978,0.12393
5984.03825,0.08049
5985.96672,0.05537
5987.89519,0.05649
5989.82366,0.10294
5991.75212,0.16259
5993.68059,0.15148
5995.60906,0.09615
5997.53753,0.06163
5999.46600,0.03415
6001.39447,0.03184
6003.32294,0.06501
6005.25140,0.10078
6007.17987,0.13631
6009.10834,0.13564
6011.03681,0.08805
6012.96528,0.07404
6014.89375,0.10621
6016.82222,0.11455
6018.75069,0.08290
6020.67915,0.06114
6022.60762,0.07526
6024.53609,0.10006
6026.46456,0.09430
6028.39303,0.06971
6030.32150,0.05626
6032.24997,0.02974
6034.17843,0.00376
6036.10690,0.03800
6038.03537,0.10005
6039.96384,0.12944
6041.89231,0.13753
6043.82078,0.12701
6045.74925,0.09742
6047.67772,0.06477
6049.60618,0.06464
6051.53465,0.10903
6053.46312,0.12710
6055.39159,0.09714
6057.32006,0.07440
6059.24853,0.08953
6061.17700,0.11979
6063.10546,0.11326
6065.03393,0.08576
6066.96240,0.08531
6068.89087,0.10530
6070.81934,0.11815
6072.74781,0.10171
6074.67628,0.06757
6076.60475,0.07132
6078.53321,0.10685
6080.46168,0.10193
6082.39015,0.08599
6084.31862,0.12568
6086.24709,0.16036
6088.17556,0.12880
6090.10403,0.08330
6092.03249,0.05920
6093.96096,0.05963
6095.88943,0.08014
6097.81790,0.07758
6099.74637,0.04710
6101.67484,0.02844
6103.60331,0.01777
6105.53177,0.01679
6107.46024,0.03174
6109.38871,0.02090
6111.31718,-0.00843
6113.24565,0.00435
6115.17412,0.05021
6117.10259,0.08302
6119.03106,0.10540
6120.95952,0.11328
6122.88799,0.08224
6124.81646,0.05380
6126.74493,0.05686
6128.67340,0.06535
6130.60187,0.06844
6132.53034,0.07535
6134.45880,0.07661
6136.38727,0.06568
6138.31574,0.06783
6140.24421,0.08688
6142.17268,0.09702
6144.10115,0.07945
6146.02962,0.07599
6147.95809,0.12812
6149.88655,0.17007
6151.81502,0.14594
6153.74349,0.08858
6155.67196,0.04306
6157.60043,0.03998
6159.52890,0.07665
6161.45737,0.10916
6163.38583,0.10421
6165.31430,0.07455
6167.24277,0.06052
6169.17124,0.06466
6171.09971,0.04593
6173.02818,0.03042
6174.95665,0.07252
6176.88512,0.11284
6178.81358,0.09738
6180.74205,0.07276
6182.67052,0.05478
6184.59899,0.02860
6186.52746,0.04371
6188.45593,0.10588
6190.38440,0.12543
6192.31286,0.09451
6194.24133,0.06635
6196.16980,0.09260
6198.09827,0.16008
6200.02674,0.17905
6201.95521,0.15900
6203.88368,0.14351
6205.81215,0.10145
6207.74061,0.06067
6209.66908,0.06751
6211.59755,0.08182
6213.52602,0.07571
6215.45449,0.05920
6217.38296,0.03828
6219.31143,0.03879
6221.23989,0.06634
6223.16836,0.08593
6225.09683,0.09537
6227.02530,0.13042
6228.95377,0.16277
6230.88224,0.15956
6232.81071,0.13391
6234.73918,0.07795
6236.66764,0.00886
6238.59611,0.00068
6240.52458,0.05698
6242.45305,0.07616
6244.38152,0.03589
6246.30999,0.02340
6248.23846,0.07512
6250.16692,0.11583
6252.09539,0.07425
6254.02386,0.00503
6255.95233,-0.04652
6257.88080,-0.06183
6259.80927,-0.02300
6261.73774,0.03163
6263.66621,0.06841
6265.59467,0.07254
6267.52314,0.06216
6269.45161,0.08904
6271.38008,0.14590
6273.30855,0.17239
6275.23702,0.13472
6277.16549,0.08275
6279.09395,0.04734
6281.02242,0.01121
6282.95089,-0.00116
6284.87936,0.02739
6286.80783,0.04454
6288.73630,0.02886
6290.66477,0.03411
6292.59323,0.07525
6294.52170,0.09622
6296.45017,0.07987
6298.37864,0.04631
6300.30711,0.01259
6302.23558,-0.00521
6304.16405,-0.02887
6306.09252,-0.07279
6308.02098,-0.11784
6309.94945,-0.14652
6311.87792,-0.10744
6313.80639,0.00198
6315.73486,0.09836
6317.66333,0.13955
6319.59180,0.13407
6321.52026,0.09800
6323.44873,0.04969
6325.37720,0.02827
6327.30567,0.04827
6329.23414,0.06144
6331.16261,0.05287
6333.09108,0.07084
6335.01955,0.12298
6336.94801,0.13901
6338.87648,0.11298
6340.80495,0.13931
6342.73342,0.16866
6344.66189,0.10510
6346.59036,0.04833
6348.51883,0.06989
6350.44729,0.07866
6352.37576,0.05391
6354.30423,0.04843
6356.23270,0.05764
6358.16117,0.04538
6360.08964,0.01542
6362.01811,0.02826
6363.94658,0.09296
6365.87504,0.14313
6367.80351,0.12748
6369.73198,0.04940
6371.66045,-0.01761
6373.58892,0.00515
6375.51739,0.06602
6377.44586,0.09390
6379.37432,0.10819
6381.30279,0.13054
6383.23126,0.15160
6385.15973,0.14013
6387.08820,0.09831
6389.01667,0.06761
6390.94514,0.04920
6392.87361,0.04947
6394.80207,0.05699
6396.73054,-0.00518
6398.65901,-0.06955
6400.58748,-0.02500
6402.51595,0.04457
6404.44442,0.04514
6406.37289,0.04335
6408.30135,0.08707
6410.22982,0.10607
6412.15829,0.06494
6414.08676,0.05879
6416.01523,0.11375
6417.94370,0.12978
6419.87217,0.07851
6421.80064,0.03333
6423.72910,0.01404
6425.65757,0.03699
6427.58604,0.10604
6429.51451,0.13236
6431.44298,0.09806
6433.37145,0.09967
6435.29992,0.11936
6437.22838,0.09197
6439.15685,0.04599
6441.08532,0.02106
6443.01379,0.00504
6444.94226,0.04540
6446.87073,0.13643
6448.79920,0.12993
6450.72766,0.03778
6452.65613,0.03731
6454.58460,0.11265
6456.51307,0.15297
6458.44154,0.15337
6460.37001,0.13458
6462.29848,0.09378
6464.22695,0.05008
6466.15541,0.01075
6468.08388,0.01551
6470.01235,0.10303
6471.94082,0.18310
6473.86929,0.17044
6475.79776,0.12872
6477.72623,0.11196
6479.65469,0.09331
6481.58316,0.09179
6483.51163,0.10274
6485.44010,0.11464
6487.36857,0.13770
6489.29704,0.12899
6491.22551,0.07907
6493.15398,0.04883
6495.08244,0.05969
6497.01091,0.04792
6498.93938,0.00315
6500.86785,0.00582
6502.79632,0.08836
6504.72479,0.18157
6506.65326,0.18841
6508.58172,0.06762
6510.51019,-0.05761
6512.43866,-0.01006
6514.36713,0.12069
6516.29560,0.15509
6518.22407,0.12858
6520.15254,0.10445
6522.08101,0.06251
6524.00947,0.00378
6525.93794,-0.02250
6527.86641,0.00205
6529.79488,0.05042
6531.72335,0.14026
6533.65182,0.22380
6535.58029,0.15953
6537.50875,-0.00449
6539.43722,-0.08195
6541.36569,-0.03679
6543.29416,0.06135
6545.22263,0.12175
6547.15110,0.11077
6549.07957,0.07717
6551.00804,0.05468
6552.93650,0.04812
6554.86497,0.06327
6556.79344,0.09365
6558.72191,0.07384
6560.65038,-0.01822
6562.57885,-0.07413
6564.50732,-0.03800
6566.43578,0.04485
6568.36425,0.11606
6570.29272,0.08452
6572.22119,0.00394
6574.14966,0.01635
6576.07813,0.04573
6578.00660,0.03392
6579.93507,0.03428
6581.86353,0.05945
6583.79200,0.12309
6585.72047,0.14053
6587.64894,0.06341
6589.57741,-0.01263
6591.50588,-0.04724
6593.43435,-0.03929
6595.36281,0.02694
6597.29128,0.09283
6599.21975,0.08275
6601.14822,0.02729
6603.07669,0.03067
6605.00516,0.03786
6606.93363,0.00666
6608.86210,0.03927
6610.79056,0.12121
6612.71903,0.15691
6614.64750,0.16018
6616.57597,0.14084
6618.50444,0.11182
6620.43291,0.10483
6622.36138,0.06761
6624.28984,-0.01700
6626.21831,-0.07464
6628.14678,-0.04162
6630.07525,0.05176
6632.00372,0.06316
6633.93219,-0.02542
6635.86066,-0.10491
6637.78912,-0.09434
6639.71759,-0.01445
6641.64606,0.05787
6643.57453,0.10308
6645.50300,0.17373
6647.43147,0.22628
6649.35994,0.17419
6651.28841,0.08142
6653.21687,0.07314
6655.14534,0.18135
6657.07381,0.27376
6659.00228,0.22327
6660.93075,0.11141
6662.85922,0.07369
6664.78769,0.11862
6666.71615,0.13581
6668.64462,0.10593
6670.57309,0.10042
6672.50156,0.09964
6674.43003,0.11782
6676.35850,0.19941
6678.28697,0.23503
6680.21544,0.15299
6682.14390,0.05355
6684.07237,-0.01445
6686.00084,-0.09448
6687.92931,-0.15183
6689.85778,-0.06031
6691.78625,0.13294
6693.71472,0.23761
6695.64318,0.22992
6697.57165,0.19847
6699.50012,0.14309
6701.42859,0.08191
6703.35706,0.08011
6705.28553,0.04744
6707.21400,-0.01248
6709.14247,0.05137
6711.07093,0.14898
6712.99940,0.16395
6714.92787,0.15058
6716.85634,0.12488
6718.78481,0.05458
6720.71328,0.02262
6722.64175,0.04936
6724.57021,0.02666
6726.49868,-0.00625
6728.42715,-0.00467
6730.35562,-0.03319
6732.28409,-0.06913
6734.21256,-0.03413
6736.14103,0.02680
6738.06950,0.06761
6739.99796,0.12750
6741.92643,0.17149
6743.85490,0.10158
6745.78337,-0.02596
6747.71184,-0.09763
6749.64031,-0.12843
6751.56878,-0.12789
6753.49724,-0.08857
6755.42571,-0.07749
6757.35418,-0.06894
6759.28265,-0.02763
6761.21112,0.02140
6763.13959,0.01127
6765.06806,-0.01960
6766.99653,0.03146
6768.92499,0.09650
6770.85346,0.07302
6772.78193,0.05853
6774.71040,0.09232
6776.63887,0.05003
6778.56734,-0.05068
6780.49581,-0.06728
6782.42427,-0.02065
6784.35274,-0.01332
6786.28121,-0.00066
6788.20968,0.03850
6790.13815,0.04230
6792.06662,0.01655
6793.99509,0.01002
6795.92355,0.04857
6797.85202,0.08440
6799.78049,0.06070
6801.70896,0.03339
6803.63743,0.06269
6805.56590,0.12679
6807.49437,0.16958
6809.42284,0.12788
6811.35130,0.02027
6813.27977,-0.05266
6815.20824,-0.05580
6817.13671,-0.04528
6819.06518,-0.04672
6820.99365,0.01000
6822.92212,0.13361
6824.85058,0.15087
6826.77905,0.03278
6828.70752,-0.01204
6830.63599,0.10011
6832.56446,0.14493
6834.49293,0.02580
6836.42140,-0.09975
6838.34987,-0.08572
6840.27833,0.02126
6842.20680,0.12032
6844.13527,0.13666
6846.06374,0.12239
6847.99221,0.16307
6849.92068,0.19835
6851.84915,0.18500
6853.77761,0.15849
6855.70608,0.16949
6857.63455,0.21950
6859.56302,0.17508
6861.49149,0.01911
6863.41996,-0.06474
6865.34843,-0.02674
6867.27690,0.00304
6869.20536,0.04275
6871.13383,0.14135
6873.06230,0.19193
6874.99077,0.17837
6876.91924,0.18664
6878.84771,0.19877
6880.77618,0.13633
6882.70464,0.02031
6884.63311,-0.04429
6886.56158,-0.03932
6888.49005,0.00895
6890.41852,0.05773
6892.34699,0.05554
6894.27546,0.03051
6896.20393,0.02737
6898.13239,0.04085
6900.06086,0.03178
6901.98933,-0.02876
6903.91780,-0.11844
6905.84627,-0.13676
6907.77474,-0.07631
6909.70321,-0.08962
6911.63167,-0.15666
6913.56014,-0.08899
6915.48861,0.10743
6917.41708,0.24011
6919.34555,0.21746
6921.27402,0.13773
6923.20249,0.07098
6925.13096,0.04452
6927.05942,0.08166
6928.98789,0.10274
6930.91636,0.08510
6932.84483,0.09378
6934.77330,0.09215
6936.70177,0.06325
6938.63024,0.05841
6940.55870,0.08964
6942.48717,0.11034
6944.41564,0.08769
6946.34411,0.05206
6948.27258,0.06329
6950.20105,0.06561
6952.12952,0.06095
6954.05799,0.14023
6955.98645,0.17549
6957.91492,0.08207
6959.84339,0.01870
6961.77186,0.03035
6963.70033,0.07638
6965.62880,0.13760
6967.55727,0.16391
6969.48573,0.14182
6971.41420,0.11463
6973.34267,0.04175
6975.27114,-0.04282
6977.19961,-0.02246
6979.12808,0.01354
6981.05655,0.04042
6982.98501,0.13160
6984.91348,0.16591
6986.84195,0.07577
6988.77042,0.02639
6990.69889,0.04406
6992.62736,0.03307
6994.55583,0.00909
6996.48430,0.00854
6998.41276,-0.01164
7000.34123,-0.06436
7002.26970,-0.08549
7004.19817,-0.07758
7006.12664,-0.04167
7008.05511,0.02350
7009.98358,0.06684
7011.91204,0.11836
7013.84051,0.16190
7015.76898,0.11824
7017.69745,0.06530
7019.62592,0.11903
7021.55439,0.23501
7023.48286,0.24972
7025.41133,0.16470
7027.33979,0.10014
7029.26826,0.04913
7031.19673,0.05132
7033.12520,0.11727
7035.05367,0.11136
7036.98214,-0.01521
7038.91061,-0.12420
7040.83907,-0.11771
7042.76754,-0.07067
7044.69601,-0.10285
7046.62448,-0.10129
7048.55295,0.01433
7050.48142,0.06570
7052.40989,-0.03058
7054.33836,-0.05129
7056.26682,0.10113
7058.19529,0.17924
7060.12376,0.12246
7062.05223,0.08750
7063.98070,0.10232
7065.90917,0.10705
7067.83764,0.09311
7069.76610,0.08661
7071.69457,0.04743
7073.62304,-0.00615
7075.55151,-0.02718
7077.47998,-0.03608
7079.40845,-0.04397
7081.33692,-0.03683
7083.26539,-0.01848
7085.19385,-0.03110
7087.12232,-0.04528
7089.05079,0.03381
7090.97926,0.17112
7092.90773,0.21685
7094.83620,0.16144
7096.76467,0.15971
7098.69313,0.23210
7100.62160,0.26104
7102.55007,0.24024
7104.47854,0.20182
7106.40701,0.11360
7108.33548,0.03305
7110.26395,0.07884
7112.19242,0.12714
7114.12088,0.04339
7116.04935,0.01705
7117.97782,0.17256
7119.90629,0.30071
7121.83476,0.36068
7123.76323,0.34984
7125.69170,0.18502
7127.62016,-0.01577
7129.54863,-0.08297
7131.47710,-0.03930
7133.40557,-0.00409
7135.33404,0.03778
7137.26251,0.15449
7139.19098,0.26187
7141.11944,0.27591
7143.04791,0.26180
7144.97638,0.22015
7146.90485,0.07003
7148.83332,-0.05861
7150.76179,-0.03435
7152.69026,0.03883
7154.61873,-0.02222
7156.54719,-0.14501
7158.47566,-0.15397
7160.40413,-0.09566
7162.33260,-0.09158
7164.26107,-0.11460
7166.18954,-0.07886
7168.11801,0.01281
7170.04647,0.09404
7171.97494,0.06874
7173.90341,-0.02252
7175.83188,-0.10225
7177.76035,-0.12339
7179.68882,-0.00910
7181.61729,0.11758
7183.54576,0.08649
7185.47422,0.02195
7187.40269,0.01430
7189.33116,0.02039
7191.25963,0.08190
7193.18810,0.18569
7195.11657,0.16224
7197.04504,0.05635
7198.97350,0.07422
7200.90197,0.19480
7202.83044,0.24945
7204.75891,0.14518
7206.68738,0.05769
7208.61585,0.10474
7210.54432,0.12783
7212.47279,0.08339
7214.40125,0.12333
7216.32972,0.17646
7218.25819,-0.00163
7220.18666,-0.09401
7222.11513,-0.00540
7224.04360,-0.01689
7225.97207,-0.05384
7227.90053,0.13194
7229.82900,0.35222
7231.75747,0.31249
7233.68594,0.16831
7235.61441,0.12578
7237.54288,0.18771
7239.47135,0.24212
7241.39982,0.13501
7243.32828,-0.03638
7245.25675,0.00066
7247.18522,0.12042
7249.11369,0.11245
7251.04216,-0.02467
7252.97063,-0.10422
7254.89910,-0.01238
7256.82756,0.07120
7258.75603,0.10624
7260.68450,0.08972
7262.61297,-0.07895
7264.54144,-0.24488
7266.46991,-0.15921
7268.39838,0.03496
7270.32685,0.12017
7272.25531,0.05128
7274.18378,-0.03262
7276.11225,-0.06478
7278.04072,-0.07335
7279.96919,-0.06242
7281.89766,-0.02426
7283.82613,-0.01046
7285.75459,-0.00966
7287.68306,-0.01630
7289.61153,-0.13449
7291.54000,-0.22812
7293.46847,-0.11405
7295.39694,-0.00149
7297.32541,0.04077
7299.25387,0.08829
7301.18234,0.06966
7303.11081,-0.05207
7305.03928,-0.10359
7306.96775,0.01855
7308.89622,0.07690
7310.82469,-0.02290
7312.75316,-0.02134
7314.68162,-0.00108
7316.61009,-0.11788
7318.53856,-0.08055
7320.46703,0.16051
7322.39550,0.29969
7324.32397,0.22968
7326.25244,0.12053
7328.18090,0.19682
7330.10937,0.40539
7332.03784,0.34349
7333.96631,0.10068
7335.89478,-0.04011
7337.82325,-0.12200
7339.75172,-0.22857
7341.68019,-0.28218
7343.60865,-0.23917
7345.53712,-0.14140
7347.46559,-0.09828
7349.39406,-0.12159
7351.32253,-0.15484
7353.25100,-0.18634
7355.17947,-0.17242
7357.10793,-0.18046
7359.03640,-0.22184
7360.96487,-0.10716
7362.89334,0.08766
7364.82181,0.11660
7366.75028,-0.06735
7368.67875,-0.20027
7370.60722,-0.07380
7372.53568,0.13601
7374.46415,0.23316
7376.39262,0.23438
7378.32109,0.34426
7380.24956,0.46344
7382.17803,0.40909
7384.10650,0.28784
7386.03496,0.26291
7387.96343,0.29671
7389.89190,0.36458
7391.82037,0.45036
7393.74884,0.45192
7395.67731,0.36624
7397.60578,0.24955
7399.53425,0.09384
7401.46271,0.01745
7403.39118,0.09648
7405.31965,0.09805
7407.24812,-0.05405
7409.17659,-0.05270
7411.10506,0.15458
7413.03353,0.29331
7414.96199,0.28470
7416.89046,0.21696
7418.81893,0.09883
7420.74740,-0.02650
7422.67587,-0.01794
7424.60434,0.06152
7426.53281,0.07565
7428.46128,0.01501
7430.38974,-0.00687
7432.31821,0.07816
7434.24668,0.18512
7436.17515,0.25222
7438.10362,0.31416
7440.03209,0.30684
7441.96056,0.14509
7443.88902,-0.01945
7445.81749,-0.06707
7447.74596,-0.11429
7449.67443,-0.17763
7451.60290,-0.14901
7453.53137,-0.05470
7455.45984,0.02209
7457.38831,0.07378
7459.31677,0.14392
7461.24524,0.19993
7463.17371,0.20496
7465.10218,0.22801
7467.03065,0.20977
7468.95912,0.09733
7470.88759,-0.00331
7472.81605,-0.01564
7474.74452,0.02628
7476.67299,0.08940
7478.60146,0.16018
7480.52993,0.08172
7482.45840,-0.04780
7484.38687,0.04485
7486.31533,0.22845
7488.24380,0.22107
7490.17227,0.02969
7492.10074,-0.06510
7494.02921,0.02592
7495.95768,0.18032
7497.88615,0.24315
