399.19301,-0.36315
401.12148,-0.08058
403.04995,0.04699
404.97842,0.04969
406.90689,0.09876
408.83536,0.17428
410.76382,0.05532
412.69229,-0.14980
414.62076,-0.16683
416.54923,0.04537
418.47770,0.24554
420.40617,0.16450
422.33464,0.08145
424.26311,0.07690
426.19157,0.08938
428.12004,0.02572
430.04851,-0.11087
431.97698,-0.12853
433.90545,-0.07342
435.83392,-0.01350
437.76239,0.11305
439.69085,0.22028
441.61932,0.20226
443.54779,0.07104
445.47626,-0.02711
447.40473,-0.05143
449.33320,-0.04514
451.26167,0.08069
453.19013,0.22865
455.11860,0.20883
457.04707,0.11997
458.97554,0.10500
460.90401,0.10984
462.83248,0.11382
464.76095,0.10551
466.68942,0.07044
468.61788,0.05905
470.54635,0.06055
472.47482,0.07582
474.40329,0.07932
476.33176,0.03881
478.26023,0.08149
480.18870,0.15368
482.11716,0.16730
484.04563,0.13373
485.97410,0.09789
487.90257,0.11394
489.83104,0.17002
491.75951,0.20557
493.68798,0.20527
495.61645,0.14982
497.54491,0.11228
499.47338,0.14292
501.40185,0.12612
503.33032,0.06572
505.25879,0.06798
507.18726,0.12030
509.11573,0.16668
511.04419,0.18677
512.97266,0.17661
514.90113,0.11398
516.82960,0.03739
518.75807,0.03334
520.68654,0.04637
522.61501,0.01009
524.54348,-0.02163
526.47194,0.00448
528.40041,0.06019
530.32888,0.08450
532.25735,0.08573
534.18582,0.11091
536.11429,0.12870
538.04276,0.11643
539.97122,0.10535
541.89969,0.10137
543.82816,0.09993
545.75663,0.09262
547.68510,0.08994
549.61357,0.07523
551.54204,-0.07403
553.47051,-0.24652
555.39897,-0.15796
557.32744,0.05457
559.25591,0.12747
561.18438,0.12560
563.11285,0.13965
565.04132,0.15689
566.96979,0.14999
568.89825,0.12356
570.82672,0.10303
572.75519,0.09209
574.68366,0.08908
576.61213,0.08875
578.54060,0.10417
580.46907,0.14150
582.39754,0.16270
584.32600,0.15753
586.25447,0.14947
588.18294,0.12832
590.11141,0.09405
592.03988,0.08623
593.96835,0.11689
595.89682,0.13855
597.82528,0.13536
599.75375,0.14309
601.68222,0.13952
603.61069,0.10398
605.53916,0.09948
607.46763,0.12791
609.39610,0.13900
611.32456,0.13374
613.25303,0.11846
615.18150,0.10248
617.10997,0.10610
619.03844,0.12336
620.96691,0.13358
622.89538,0.12386
624.82385,0.12116
626.75231,0.13362
628.68078,0.12699
630.60925,0.12014
632.53772,0.12561
634.46619,0.12293
636.39466,0.12181
638.32313,0.10922
640.25159,0.08477
642.18006,0.08324
644.10853,0.10491
646.03700,0.13267
647.96547,0.14526
649.89394,0.13446
651.82241,0.12631
653.75088,0.12369
655.67934,0.12424
657.60781,0.13326
659.53628,0.13279
661.46475,0.12205
663.39322,0.10786
665.32169,0.08573
667.25016,0.06156
669.17862,0.07001
671.10709,0.10224
673.03556,0.11017
674.96403,0.10105
676.89250,0.10733
678.82097,0.12268
680.74944,0.11989
682.67791,0.10708
684.60637,0.10690
686.53484,0.12480
688.46331,0.13718
690.39178,0.13514
692.32025,0.13602
694.24872,0.13474
696.17719,0.12722
698.10565,0.11393
700.03412,0.09418
701.96259,0.09065
703.89106,0.10897
705.81953,0.12813
707.74800,0.14531
709.67647,0.15589
711.60494,0.14671
713.53340,0.14101
715.46187,0.15871
717.39034,0.16888
719.31881,0.15279
721.24728,0.13545
723.17575,0.13146
725.10422,0.12867
727.03268,0.12571
728.96115,0.12788
730.88962,0.13142
732.81809,0.12932
734.74656,0.11930
736.67503,0.11598
738.60350,0.12394
740.53197,0.12593
742.46043,0.12427
744.38890,0.12473
746.31737,0.12246
748.24584,0.12480
750.17431,0.13318
752.10278,0.13897
754.03125,0.13529
755.95971,0.13222
757.88818,0.14049
759.81665,0.14563
761.74512,0.14661
763.67359,0.14857
765.60206,0.14156
767.53053,0.13203
769.45900,0.13029
771.38746,0.13528
773.31593,0.14091
775.24440,0.13380
777.17287,0.11910
779.10134,0.11327
781.02981,0.11892
782.95828,0.13184
784.88674,0.13625
786.81521,0.12389
788.74368,0.10695
790.67215,0.10175
792.60062,0.11142
794.52909,0.11778
796.45756,0.11207
798.38602,0.11257
800.31449,0.12393
802.24296,0.12525
804.17143,0.11847
806.09990,0.12354
808.02837,0.13378
809.95684,0.13459
811.88531,0.13399
813.81377,0.14073
815.74224,0.14089
817.67071,0.13185
819.59918,0.12329
821.52765,0.11333
823.45612,0.11753
825.38459,0.14041
827.31305,0.15212
829.24152,0.14632
831.16999,0.13458
833.09846,0.12682
835.02693,0.13292
836.95540,0.13728
838.88387,0.12835
840.81234,0.11889
842.74080,0.12080
844.66927,0.13594
846.59774,0.15128
848.52621,0.16095
850.45468,0.16918
852.38315,0.16978
854.31162,0.16774
856.24008,0.17052
858.16855,0.16895
860.09702,0.16381
862.02549,0.15931
863.95396,0.15335
865.88243,0.14548
867.81090,0.14021
869.73937,0.14134
871.66783,0.13415
873.59630,0.12438
875.52477,0.13717
877.45324,0.15460
879.38171,0.15776
881.31018,0.15955
883.23865,0.15882
885.16711,0.15096
887.09558,0.14595
889.02405,0.14486
890.95252,0.13986
892.88099,0.13179
894.80946,0.12969
896.73793,0.13455
898.66640,0.14332
900.59486,0.15376
902.52333,0.15401
904.45180,0.14486
906.38027,0.14237
908.30874,0.14621
910.23721,0.14844
912.16568,0.14939
914.09414,0.15276
916.02261,0.15786
917.95108,0.15903
919.87955,0.15660
921.80802,0.15393
923.73649,0.15517
925.66496,0.16388
927.59343,0.16774
929.52189,0.15903
931.45036,0.15001
933.37883,0.14482
935.30730,0.14273
937.23577,0.14421
939.16424,0.14609
941.09271,0.15124
943.02117,0.15410
944.94964,0.14716
946.87811,0.14023
948.80658,0.14074
950.73505,0.14217
952.66352,0.13898
954.59199,0.13742
956.52045,0.14357
958.44892,0.15311
960.37739,0.15852
962.30586,0.15825
964.23433,0.15853
966.16280,0.16202
968.09127,0.16287
970.01974,0.15877
971.94820,0.15658
973.87667,0.15433
975.80514,0.14658
977.73361,0.14362
979.66208,0.15207
981.59055,0.15801
983.51902,0.14753
985.44748,0.13338
987.37595,0.13443
989.30442,0.14378
991.23289,0.14828
993.16136,0.15032
995.08983,0.15368
997.01830,0.15464
998.94677,0.14870
1000.87523,0.14184
1002.80370,0.14472
1004.73217,0.14962
1006.66064,0.15177
1008.58911,0.15829
1010.51758,0.16223
1012.44605,0.15906
1014.37451,0.15630
1016.30298,0.16071
1018.23145,0.16635
1020.15992,0.16164
1022.08839,0.15425
1024.01686,0.15826
1025.94533,0.18061
1027.87380,0.20971
1029.80226,0.21153
1031.73073,0.18497
1033.65920,0.16037
1035.58767,0.14746
1037.51614,0.15166
1039.44461,0.16902
1041.37308,0.17432
1043.30154,0.16213
1045.23001,0.14954
1047.15848,0.14928
1049.08695,0.15575
1051.01542,0.16008
1052.94389,0.16743
1054.87236,0.17203
1056.80083,0.16868
1058.72929,0.16779
1060.65776,0.16944
1062.58623,0.17023
1064.51470,0.16907
1066.44317,0.16559
1068.37164,0.16650
1070.30011,0.16899
1072.22857,0.16457
1074.15704,0.15764
1076.08551,0.15804
1078.01398,0.16759
1079.94245,0.17656
1081.87092,0.18021
1083.79939,0.17878
1085.72786,0.16668
1087.65632,0.15319
1089.58479,0.15241
1091.51326,0.15930
1093.44173,0.16344
1095.37020,0.16215
1097.29867,0.16547
1099.22714,0.17527
1101.15560,0.17607
1103.08407,0.17051
1105.01254,0.16734
1106.94101,0.15998
1108.86948,0.15227
1110.79795,0.15080
1112.72642,0.15264
1114.65489,0.15751
1116.58335,0.16544
1118.51182,0.17561
1120.44029,0.17973
1122.36876,0.17260
1124.29723,0.16573
1126.22570,0.16175
1128.15417,0.15739
1130.08263,0.15515
1132.01110,0.15362
1133.93957,0.15353
1135.86804,0.15186
1137.79651,0.14836
1139.72498,0.14965
1141.65345,0.15079
1143.58191,0.15157
1145.51038,0.15949
1147.43885,0.16718
1149.36732,0.16677
1151.29579,0.16381
1153.22426,0.16445
1155.15273,0.16666
1157.08120,0.16727
1159.00966,0.17003
1160.93813,0.17463
1162.86660,0.17501
1164.79507,0.17005
1166.72354,0.16302
1168.65201,0.16158
1170.58048,0.16805
1172.50894,0.17283
1174.43741,0.16992
1176.36588,0.16532
1178.29435,0.16485
1180.22282,0.16559
1182.15129,0.16478
1184.07976,0.16426
1186.00823,0.16260
1187.93669,0.16070
1189.86516,0.16420
1191.79363,0.16814
1193.72210,0.16551
1195.65057,0.16264
1197.57904,0.16473
1199.50751,0.16707
1201.43597,0.16743
1203.36444,0.16841
1205.29291,0.16981
1207.22138,0.16991
1209.14985,0.16912
1211.07832,0.16846
1213.00679,0.16648
1214.93526,0.16439
1216.86372,0.16677
1218.79219,0.17056
1220.72066,0.16988
1222.64913,0.16816
1224.57760,0.17133
1226.50607,0.17497
1228.43454,0.17275
1230.36300,0.16809
1232.29147,0.16663
1234.21994,0.16800
1236.14841,0.16696
1238.07688,0.16158
1240.00535,0.15713
1241.93382,0.15733
1243.86229,0.15808
1245.79075,0.15764
1247.71922,0.15877
1249.64769,0.15911
1251.57616,0.15711
1253.50463,0.15590
1255.43310,0.15803
1257.36157,0.16164
1259.29003,0.16205
1261.21850,0.16274
1263.14697,0.16759
1265.07544,0.16909
1267.00391,0.16497
1268.93238,0.16390
1270.86085,0.16841
1272.78932,0.17058
1274.71778,0.16683
1276.64625,0.16468
1278.57472,0.16784
1280.50319,0.16840
1282.43166,0.16323
1284.36013,0.15903
1286.28860,0.15793
1288.21706,0.16049
1290.14553,0.16664
1292.07400,0.17078
1294.00247,0.17118
1295.93094,0.16751
1297.85941,0.15977
1299.78788,0.15055
1301.71634,0.13711
1303.64481,0.12094
1305.57328,0.11846
1307.50175,0.13734
1309.43022,0.15816
1311.35869,0.16536
1313.28716,0.16664
1315.21563,0.17020
1317.14409,0.17303
1319.07256,0.16924
1321.00103,0.16237
1322.92950,0.16143
1324.85797,0.16187
1326.78644,0.15894
1328.71491,0.15866
1330.64337,0.15859
1332.57184,0.15809
1334.50031,0.16206
1336.42878,0.16625
1338.35725,0.16672
1340.28572,0.15790
1342.21419,0.14141
1344.14266,0.12722
1346.07112,0.12539
1347.99959,0.14323
1349.92806,0.16086
1351.85653,0.16212
1353.78500,0.15978
1355.71347,0.16102
1357.64194,0.16385
1359.57040,0.16805
1361.49887,0.17345
1363.42734,0.17580
1365.35581,0.17325
1367.28428,0.17311
1369.21275,0.17836
1371.14122,0.18250
1373.06969,0.18246
1374.99815,0.18245
1376.92662,0.18277
1378.85509,0.18246
1380.78356,0.18218
1382.71203,0.18287
1384.64050,0.18512
1386.56897,0.18524
1388.49743,0.18343
1390.42590,0.18455
1392.35437,0.18912
1394.28284,0.19432
1396.21131,0.19342
1398.13978,0.18906
1400.06825,0.18739
1401.99672,0.18449
1403.92518,0.17807
1405.85365,0.17125
1407.78212,0.16910
1409.71059,0.17291
1411.63906,0.17820
1413.56753,0.18252
1415.49600,0.18849
1417.42446,0.19507
1419.35293,0.19602
1421.28140,0.19263
1423.20987,0.19051
1425.13834,0.18849
1427.06681,0.18507
1428.99528,0.18107
1430.92375,0.17903
1432.85221,0.18051
1434.78068,0.18504
1436.70915,0.18671
1438.63762,0.18125
1440.56609,0.17805
1442.49456,0.17800
1444.42303,0.17925
1446.35149,0.18197
1448.27996,0.18225
1450.20843,0.18211
1452.13690,0.18830
1454.06537,0.19991
1455.99384,0.21379
1457.92231,0.21446
1459.85077,0.19954
1461.77924,0.19089
1463.70771,0.18928
1465.63618,0.18948
1467.56465,0.18762
1469.49312,0.18804
1471.42159,0.19699
1473.35006,0.20680
1475.27852,0.20224
1477.20699,0.19199
1479.13546,0.18410
1481.06393,0.18239
1482.99240,0.18598
1484.92087,0.18988
1486.84934,0.19456
1488.77780,0.20218
1490.70627,0.20372
1492.63474,0.19800
1494.56321,0.19588
1496.49168,0.20047
1498.42015,0.20196
1500.34862,0.19903
1502.27709,0.20762
1504.20555,0.22622
1506.13402,0.23501
1508.06249,0.21697
1509.99096,0.20220
1511.91943,0.19639
1513.84790,0.19778
1515.77637,0.20406
1517.70483,0.20954
1519.63330,0.21312
1521.56177,0.21664
1523.49024,0.21457
1525.41871,0.21039
1527.34718,0.20554
1529.27565,0.20127
1531.20412,0.20259
1533.13258,0.20422
1535.06105,0.19934
1536.98952,0.19763
1538.91799,0.20345
1540.84646,0.20794
1542.77493,0.20562
1544.70340,0.20007
1546.63186,0.19473
1548.56033,0.19351
1550.48880,0.19272
1552.41727,0.19358
1554.34574,0.20019
1556.27421,0.21063
1558.20268,0.22131
1560.13115,0.21280
1562.05961,0.20102
1563.98808,0.19568
1565.91655,0.19423
1567.84502,0.19980
1569.77349,0.20501
1571.70196,0.19953
1573.63043,0.19342
1575.55889,0.19167
1577.48736,0.19082
1579.41583,0.18740
1581.34430,0.18384
1583.27277,0.18399
1585.20124,0.18631
1587.12971,0.18577
1589.05818,0.18173
1590.98664,0.17785
1592.91511,0.17693
1594.84358,0.17691
1596.77205,0.17655
1598.70052,0.17785
1600.62899,0.17993
1602.55746,0.18240
1604.48592,0.18512
1606.41439,0.18711
1608.34286,0.18829
1610.27133,0.18646
1612.19980,0.18465
1614.12827,0.18751
1616.05674,0.19210
1617.98521,0.19331
1619.91367,0.19609
1621.84214,0.20397
1623.77061,0.20783
1625.69908,0.20161
1627.62755,0.19469
1629.55602,0.19040
1631.48449,0.19103
1633.41295,0.19926
1635.34142,0.20923
1637.26989,0.20740
1639.19836,0.20186
1641.12683,0.19772
1643.05530,0.19654
1644.98377,0.20222
1646.91223,0.20882
1648.84070,0.20808
1650.76917,0.21332
1652.69764,0.22893
1654.62611,0.22425
1656.55458,0.20867
1658.48305,0.20294
1660.41152,0.20333
1662.33998,0.20178
1664.26845,0.19518
1666.19692,0.19296
1668.12539,0.20305
1670.05386,0.21750
1671.98233,0.21752
1673.91080,0.21416
1675.83926,0.21221
1677.76773,0.20783
1679.69620,0.20585
1681.62467,0.21054
1683.55314,0.22089
1685.48161,0.22023
1687.41008,0.21305
1689.33855,0.20974
1691.26701,0.20614
1693.19548,0.20416
1695.12395,0.20706
1697.05242,0.21185
1698.98089,0.21850
1700.90936,0.22290
1702.83783,0.21748
1704.76629,0.21069
1706.69476,0.20311
1708.62323,0.19409
1710.55170,0.18886
1712.48017,0.19077
1714.40864,0.20205
1716.33711,0.21800
1718.26558,0.21463
1720.19404,0.20037
1722.12251,0.19449
1724.05098,0.19216
1725.97945,0.18994
1727.90792,0.19047
1729.83639,0.19488
1731.76486,0.20168
1733.69332,0.20530
1735.62179,0.20049
1737.55026,0.19611
1739.47873,0.19311
1741.40720,0.18902
1743.33567,0.18862
1745.26414,0.19379
1747.19261,0.19917
1749.12107,0.20133
1751.04954,0.19837
1752.97801,0.19356
1754.90648,0.19389
1756.83495,0.19702
1758.76342,0.19771
1760.69189,0.19687
1762.62035,0.19271
1764.54882,0.18757
1766.47729,0.18764
1768.40576,0.19291
1770.33423,0.20217
1772.26270,0.20813
1774.19117,0.20156
1776.11964,0.19586
1778.04810,0.19798
1779.97657,0.20024
1781.90504,0.19659
1783.83351,0.19283
1785.76198,0.19312
1787.69045,0.19414
1789.61892,0.19480
1791.54738,0.19557
1793.47585,0.19293
1795.40432,0.18971
1797.33279,0.19266
1799.26126,0.19989
1801.18973,0.20300
1803.11820,0.20075
1805.04666,0.19914
1806.97513,0.19801
1808.90360,0.19572
1810.83207,0.19272
1812.76054,0.18878
1814.68901,0.18700
1816.61748,0.19082
1818.54595,0.20014
1820.47441,0.20690
1822.40288,0.20364
1824.33135,0.19679
1826.25982,0.19501
1828.18829,0.19642
1830.11676,0.19620
1832.04523,0.19328
1833.97369,0.19174
1835.90216,0.19214
1837.83063,0.19157
1839.75910,0.19106
1841.68757,0.19401
1843.61604,0.19677
1845.54451,0.19209
1847.47298,0.18697
1849.40144,0.18688
1851.32991,0.18794
1853.25838,0.18751
1855.18685,0.18629
1857.11532,0.18596
1859.04379,0.18704
1860.97226,0.18982
1862.90072,0.19361
1864.82919,0.19555
1866.75766,0.19583
1868.68613,0.19535
1870.61460,0.19184
1872.54307,0.18749
1874.47154,0.18549
1876.40001,0.18548
1878.32847,0.18675
1880.25694,0.18922
1882.18541,0.19096
1884.11388,0.18960
1886.04235,0.18880
1887.97082,0.19208
1889.89929,0.19375
1891.82775,0.19283
1893.75622,0.19310
1895.68469,0.19135
1897.61316,0.18877
1899.54163,0.18939
1901.47010,0.19147
1903.39857,0.19360
1905.32704,0.19581
1907.25550,0.19732
1909.18397,0.19700
1911.11244,0.19398
1913.04091,0.19075
1914.96938,0.18998
1916.89785,0.19088
1918.82632,0.19223
1920.75478,0.19351
1922.68325,0.19304
1924.61172,0.18994
1926.54019,0.18810
1928.46866,0.19003
1930.39713,0.19285
1932.32560,0.19417
1934.25407,0.19382
1936.18253,0.19184
1938.11100,0.19032
1940.03947,0.19184
1941.96794,0.19537
1943.89641,0.19689
1945.82488,0.19428
1947.75335,0.19083
1949.68181,0.19025
1951.61028,0.19109
1953.53875,0.19146
1955.46722,0.19207
1957.39569,0.19251
1959.32416,0.19200
1961.25263,0.19206
1963.18110,0.19414
1965.10956,0.19663
1967.03803,0.19637
1968.96650,0.19279
1970.89497,0.19005
1972.82344,0.19167
1974.75191,0.19382
1976.68038,0.18902
1978.60884,0.18221
1980.53731,0.18396
1982.46578,0.19047
1984.39425,0.19429
1986.32272,0.19558
1988.25119,0.19596
1990.17966,0.19558
1992.10812,0.19406
1994.03659,0.19282
1995.96506,0.19152
1997.89353,0.19031
1999.82200,0.19230
2001.75047,0.19355
2003.67894,0.18909
2005.60741,0.18517
2007.53587,0.18709
2009.46434,0.18987
2011.39281,0.18962
2013.32128,0.18831
2015.24975,0.18924
2017.17822,0.19322
2019.10669,0.19611
2021.03515,0.19497
2022.96362,0.19143
2024.89209,0.18822
2026.82056,0.18803
2028.74903,0.19036
2030.67750,0.19160
2032.60597,0.19063
2034.53444,0.18773
2036.46290,0.18405
2038.39137,0.18407
2040.31984,0.18792
2042.24831,0.19022
2044.17678,0.18982
2046.10525,0.18918
2048.03372,0.18950
2049.96218,0.19091
2051.89065,0.19222
2053.81912,0.19126
2055.74759,0.18852
2057.67606,0.18678
2059.60453,0.18619
2061.53300,0.18547
2063.46147,0.18544
2065.38993,0.18633
2067.31840,0.18708
2069.24687,0.18891
2071.17534,0.19222
2073.10381,0.19430
2075.03228,0.19401
2076.96075,0.19274
2078.88921,0.19167
2080.81768,0.19106
2082.74615,0.19093
2084.67462,0.19104
2086.60309,0.19112
2088.53156,0.19116
2090.46003,0.19071
2092.38850,0.18918
2094.31696,0.18798
2096.24543,0.18934
2098.17390,0.19038
2100.10237,0.18829
2102.03084,0.18673
2103.95931,0.18795
2105.88778,0.19110
2107.81624,0.19479
2109.74471,0.19648
2111.67318,0.19588
2113.60165,0.19475
2115.53012,0.19414
2117.45859,0.19448
2119.38706,0.19541
2121.31553,0.19591
2123.24399,0.19578
2125.17246,0.19480
2127.10093,0.19311
2129.02940,0.19274
2130.95787,0.19362
2132.88634,0.19372
2134.81481,0.19413
2136.74327,0.19578
2138.67174,0.19516
2140.60021,0.19180
2142.52868,0.19099
2144.45715,0.19316
2146.38562,0.19453
2148.31409,0.19400
2150.24255,0.19220
2152.17102,0.19142
2154.09949,0.19082
2156.02796,0.18833
2157.95643,0.18755
2159.88490,0.18944
2161.81337,0.19192
2163.74184,0.19501
2165.67030,0.19754
2167.59877,0.19829
2169.52724,0.19660
2171.45571,0.19307
2173.38418,0.18982
2175.31265,0.18852
2177.24112,0.19034
2179.16958,0.19204
2181.09805,0.19091
2183.02652,0.19085
2184.95499,0.19333
2186.88346,0.19591
2188.81193,0.19642
2190.74040,0.19330
2192.66887,0.18919
2194.59733,0.18731
2196.52580,0.18666
2198.45427,0.18731
2200.38274,0.19089
2202.31121,0.19515
2204.23968,0.19685
2206.16815,0.19689
2208.09661,0.19565
2210.02508,0.19185
2211.95355,0.18955
2213.88202,0.19165
2215.81049,0.19285
2217.73896,0.19165
2219.66743,0.19198
2221.59590,0.19238
2223.52436,0.19155
2225.45283,0.19126
2227.38130,0.19035
2229.30977,0.18848
2231.23824,0.18740
2233.16671,0.18777
2235.09518,0.18851
2237.02364,0.18794
2238.95211,0.18671
2240.88058,0.18725
2242.80905,0.19006
2244.73752,0.19212
2246.66599,0.19155
2248.59446,0.19143
2250.52293,0.19394
2252.45139,0.19534
2254.37986,0.19283
2256.30833,0.19080
2258.23680,0.19213
2260.16527,0.19364
2262.09374,0.19357
2264.02221,0.19401
2265.95067,0.19544
2267.87914,0.19539
2269.80761,0.19433
2271.73608,0.19427
2273.66455,0.19411
2275.59302,0.19317
2277.52149,0.19249
2279.44996,0.19200
2281.37842,0.19064
2283.30689,0.18878
2285.23536,0.18822
2287.16383,0.18908
2289.09230,0.18918
2291.02077,0.18674
2292.94924,0.18405
2294.87770,0.18318
2296.80617,0.18350
2298.73464,0.18615
2300.66311,0.18905
2302.59158,0.18992
2304.52005,0.19090
2306.44852,0.18966
2308.37699,0.18492
2310.30545,0.18284
2312.23392,0.18559
2314.16239,0.18758
2316.09086,0.18545
2318.01933,0.17890
2319.94780,0.16918
2321.87627,0.16514
2323.80473,0.17047
2325.73320,0.17444
2327.66167,0.17340
2329.59014,0.17547
2331.51861,0.17734
2333.44708,0.17269
2335.37555,0.17672
2337.30401,0.19184
2339.23248,0.19506
2341.16095,0.18429
2343.08942,0.17502
2345.01789,0.17089
2346.94636,0.17481
2348.87483,0.18147
2350.80330,0.18245
2352.73176,0.18147
2354.66023,0.19040
2356.58870,0.19716
2358.51717,0.18238
2360.44564,0.16647
2362.37411,0.17010
2364.30258,0.18046
2366.23104,0.17887
2368.15951,0.17108
2370.08798,0.16823
2372.01645,0.16702
2373.94492,0.16859
2375.87339,0.17640
2377.80186,0.18575
2379.73033,0.18933
2381.65879,0.18783
2383.58726,0.18836
2385.51573,0.19161
2387.44420,0.19302
2389.37267,0.19157
2391.30114,0.18898
2393.22961,0.18745
2395.15807,0.18907
2397.08654,0.19191
2399.01501,0.19259
2400.94348,0.19112
2402.87195,0.18980
2404.80042,0.19000
2406.72889,0.19111
2408.65736,0.19283
2410.58582,0.19403
2412.51429,0.19420
2414.44276,0.19404
2416.37123,0.19251
2418.29970,0.19048
2420.22817,0.18987
2422.15664,0.19115
2424.08510,0.19379
2426.01357,0.19463
2427.94204,0.19308
2429.87051,0.19334
2431.79898,0.19552
2433.72745,0.19647
2435.65592,0.19661
2437.58439,0.19600
2439.51285,0.19422
2441.44132,0.19282
2443.36979,0.19147
2445.29826,0.18999
2447.22673,0.19076
2449.15520,0.19242
2451.08367,0.19184
2453.01213,0.19065
2454.94060,0.19121
2456.86907,0.19377
2458.79754,0.19619
2460.72601,0.19673
2462.65448,0.19532
2464.58295,0.19304
2466.51142,0.19289
2468.43988,0.19345
2470.36835,0.19235
2472.29682,0.19203
2474.22529,0.19255
2476.15376,0.19306
2478.08223,0.19426
2480.01070,0.19548
2481.93916,0.19724
2483.86763,0.19809
2485.79610,0.19602
2487.72457,0.19484
2489.65304,0.19563
2491.58151,0.19484
2493.50998,0.19258
2495.43844,0.19225
2497.36691,0.19404
2499.29538,0.19473
2501.22385,0.19433
2503.15232,0.19434
2505.08079,0.19462
2507.00926,0.19326
2508.93773,0.19082
2510.86619,0.19133
2512.79466,0.19355
2514.72313,0.19459
2516.65160,0.19464
2518.58007,0.19413
2520.50854,0.19423
2522.43701,0.19443
2524.36547,0.19433
2526.29394,0.19531
2528.22241,0.19626
2530.15088,0.19626
2532.07935,0.19797
2534.00782,0.20109
2535.93629,0.19969
2537.86476,0.19447
2539.79322,0.19215
2541.72169,0.19128
2543.65016,0.18885
2545.57863,0.18928
2547.50710,0.19338
2549.43557,0.19528
2551.36404,0.19363
2553.29250,0.19275
2555.22097,0.19370
2557.14944,0.19392
2559.07791,0.19389
2561.00638,0.19556
2562.93485,0.19768
2564.86332,0.19763
2566.79179,0.19545
2568.72025,0.19477
2570.64872,0.19635
2572.57719,0.19733
2574.50566,0.19701
2576.43413,0.19566
2578.36260,0.19536
2580.29107,0.19770
2582.21953,0.19962
2584.14800,0.19802
2586.07647,0.19530
2588.00494,0.19524
2589.93341,0.19526
2591.86188,0.19281
2593.79035,0.19156
2595.71882,0.19330
2597.64728,0.19435
2599.57575,0.19394
2601.50422,0.19560
2603.43269,0.19912
2605.36116,0.20083
2607.28963,0.19931
2609.21810,0.19847
2611.14656,0.20077
2613.07503,0.20098
2615.00350,0.19782
2616.93197,0.19731
2618.86044,0.19807
2620.78891,0.19512
2622.71738,0.19178
2624.64585,0.19319
2626.57431,0.19763
2628.50278,0.19801
2630.43125,0.19489
2632.35972,0.19498
2634.28819,0.19593
2636.21666,0.19577
2638.14513,0.19863
2640.07359,0.20192
2642.00206,0.20017
2643.93053,0.19642
2645.85900,0.19609
2647.78747,0.19760
2649.71594,0.19742
2651.64441,0.19538
2653.57288,0.19406
2655.50134,0.19558
2657.42981,0.19761
2659.35828,0.19921
2661.28675,0.20153
2663.21522,0.20126
2665.14369,0.19885
2667.07216,0.19812
2669.00062,0.19818
2670.92909,0.19820
2672.85756,0.19918
2674.78603,0.20102
2676.71450,0.20172
2678.64297,0.20056
2680.57144,0.20040
2682.49990,0.20194
2684.42837,0.20320
2686.35684,0.20388
2688.28531,0.20340
2690.21378,0.20032
2692.14225,0.19751
2694.07072,0.19879
2695.99919,0.20094
2697.92765,0.20034
2699.85612,0.19899
2701.78459,0.19795
2703.71306,0.19769
2705.64153,0.19929
2707.57000,0.20084
2709.49847,0.20120
2711.42693,0.20180
2713.35540,0.20260
2715.28387,0.20096
2717.21234,0.19697
2719.14081,0.19584
2721.06928,0.19840
2722.99775,0.20045
2724.92622,0.20136
2726.85468,0.20229
2728.78315,0.20329
2730.71162,0.20390
2732.64009,0.20304
2734.56856,0.20191
2736.49703,0.20241
2738.42550,0.20319
2740.35396,0.20350
2742.28243,0.20403
2744.21090,0.20452
2746.13937,0.20389
2748.06784,0.20215
2749.99631,0.20412
2751.92478,0.20990
2753.85325,0.21016
2755.78171,0.20538
2757.71018,0.20416
2759.63865,0.20485
2761.56712,0.20305
2763.49559,0.20109
2765.42406,0.20019
2767.35253,0.19911
2769.28099,0.20015
2771.20946,0.20571
2773.13793,0.21147
2775.06640,0.21057
2776.99487,0.20536
2778.92334,0.20412
2780.85181,0.20591
2782.78028,0.20604
2784.70874,0.20768
2786.63721,0.21118
2788.56568,0.20981
2790.49415,0.20469
2792.42262,0.20259
2794.35109,0.20294
2796.27956,0.20385
2798.20802,0.20658
2800.13649,0.20889
2802.06496,0.20869
2803.99343,0.20771
2805.92190,0.20769
2807.85037,0.20915
2809.77884,0.20996
2811.70731,0.21014
2813.63577,0.21190
2815.56424,0.21237
2817.49271,0.21138
2819.42118,0.21137
2821.34965,0.20930
2823.27812,0.20622
2825.20659,0.20706
2827.13505,0.20934
2829.06352,0.20888
2830.99199,0.20816
2832.92046,0.21103
2834.84893,0.21526
2836.77740,0.21597
2838.70587,0.21292
2840.63433,0.20923
2842.56280,0.20774
2844.49127,0.20767
2846.41974,0.20789
2848.34821,0.20973
2850.27668,0.21048
2852.20515,0.20800
2854.13362,0.20624
2856.06208,0.20764
2857.99055,0.20989
2859.91902,0.20974
2861.84749,0.20748
2863.77596,0.20575
2865.70443,0.20609
2867.63290,0.20827
2869.56136,0.21037
2871.48983,0.21143
2873.41830,0.21121
2875.34677,0.20801
2877.27524,0.20382
2879.20371,0.20324
2881.13218,0.20309
2883.06065,0.19713
2884.98911,0.19084
2886.91758,0.19318
2888.84605,0.20085
2890.77452,0.20716
2892.70299,0.20863
2894.63146,0.20490
2896.55993,0.20227
2898.48839,0.20262
2900.41686,0.20320
2902.34533,0.20323
2904.27380,0.19874
2906.20227,0.19097
2908.13074,0.18924
2910.05921,0.19637
2911.98768,0.20517
2913.91614,0.20517
2915.84461,0.19542
2917.77308,0.18931
2919.70155,0.19375
2921.63002,0.20142
2923.55849,0.20346
2925.48696,0.19807
2927.41542,0.19697
2929.34389,0.20471
2931.27236,0.20888
2933.20083,0.20709
2935.12930,0.20031
2937.05777,0.18888
2938.98624,0.18827
2940.91471,0.19937
2942.84317,0.20561
2944.77164,0.20301
2946.70011,0.19486
2948.62858,0.19117
2950.55705,0.19892
2952.48552,0.20775
2954.41399,0.20730
2956.34245,0.19635
2958.27092,0.18700
2960.19939,0.19360
2962.12786,0.21032
2964.05633,0.22036
2965.98480,0.21442
2967.91327,0.20074
2969.84174,0.19648
2971.77020,0.20223
2973.69867,0.20791
2975.62714,0.20791
2977.55561,0.20195
2979.48408,0.20153
2981.41255,0.20990
2983.34102,0.21400
2985.26948,0.20959
2987.19795,0.20085
2989.12642,0.19745
2991.05489,0.20432
2992.98336,0.21033
2994.91183,0.20998
2996.84030,0.20782
2998.76877,0.20817
3000.69723,0.21265
3002.62570,0.21505
3004.55417,0.21147
3006.48264,0.20557
3008.41111,0.19837
3010.33958,0.18697
3012.26805,0.16660
3014.19651,0.13425
3016.12498,0.10722
3018.05345,0.11810
3019.98192,0.16048
3021.91039,0.19453
3023.83886,0.20874
3025.76733,0.21158
3027.69579,0.20915
3029.62426,0.21036
3031.55273,0.21692
3033.48120,0.22161
3035.40967,0.21882
3037.33814,0.21097
3039.26661,0.20720
3041.19508,0.20999
3043.12354,0.21317
3045.05201,0.21144
3046.98048,0.20531
3048.90895,0.20171
3050.83742,0.20282
3052.76589,0.20565
3054.69436,0.20484
3056.62282,0.19708
3058.55129,0.19519
3060.47976,0.20285
3062.40823,0.20716
3064.33670,0.20295
3066.26517,0.19438
3068.19364,0.19429
3070.12211,0.20462
3072.05057,0.21241
3073.97904,0.20870
3075.90751,0.19623
3077.83598,0.19157
3079.76445,0.19988
3081.69292,0.20602
3083.62139,0.19885
3085.54985,0.18885
3087.47832,0.19168
3089.40679,0.19922
3091.33526,0.19682
3093.26373,0.18452
3095.19220,0.17877
3097.12067,0.18945
3099.04914,0.20008
3100.97760,0.20059
3102.90607,0.19513
3104.83454,0.19338
3106.76301,0.20169
3108.69148,0.20763
3110.61995,0.20120
3112.54842,0.19163
3114.47688,0.19433
3116.40535,0.20573
3118.33382,0.20908
3120.26229,0.20318
3122.19076,0.19972
3124.11923,0.20430
3126.04770,0.21014
3127.97617,0.21088
3129.90463,0.20853
3131.83310,0.20902
3133.76157,0.21062
3135.69004,0.20832
3137.61851,0.20337
3139.54698,0.19740
3141.47545,0.19995
3143.40391,0.21339
3145.33238,0.22134
3147.26085,0.21901
3149.18932,0.21766
3151.11779,0.22147
3153.04626,0.22269
3154.97473,0.21743
3156.90320,0.21207
3158.83166,0.21163
3160.76013,0.21373
3162.68860,0.21422
3164.61707,0.21422
3166.54554,0.21598
3168.47401,0.21506
3170.40248,0.20992
3172.33094,0.20625
3174.25941,0.20754
3176.18788,0.21349
3178.11635,0.21987
3180.04482,0.22038
3181.97329,0.21559
3183.90176,0.21345
3185.83022,0.21498
3187.75869,0.21453
3189.68716,0.21138
3191.61563,0.20736
3193.54410,0.20808
3195.47257,0.21591
3197.40104,0.22136
3199.32951,0.21841
3201.25797,0.21223
3203.18644,0.20793
3205.11491,0.20450
3207.04338,0.20139
3208.97185,0.20191
3210.90032,0.20698
3212.82879,0.21250
3214.75725,0.21458
3216.68572,0.21433
3218.61419,0.21515
3220.54266,0.21602
3222.47113,0.21377
3224.39960,0.20978
3226.32807,0.20754
3228.25654,0.20804
3230.18500,0.20834
3232.11347,0.20616
3234.04194,0.20446
3235.97041,0.20647
3237.89888,0.21148
3239.82735,0.21696
3241.75582,0.22028
3243.68428,0.21751
3245.61275,0.21026
3247.54122,0.20790
3249.46969,0.21115
3251.39816,0.21317
3253.32663,0.21292
3255.25510,0.21173
3257.18357,0.20946
3259.11203,0.20706
3261.04050,0.20779
3262.96897,0.21287
3264.89744,0.21744
3266.82591,0.21801
3268.75438,0.21585
3270.68285,0.21325
3272.61131,0.21252
3274.53978,0.21362
3276.46825,0.21468
3278.39672,0.21355
3280.32519,0.20868
3282.25366,0.20298
3284.18213,0.20368
3286.11060,0.21073
3288.03906,0.21333
3289.96753,0.20903
3291.89600,0.20670
3293.82447,0.20759
3295.75294,0.20925
3297.68141,0.21267
3299.60988,0.21457
3301.53834,0.21276
3303.46681,0.21005
3305.39528,0.20805
3307.32375,0.20809
3309.25222,0.20946
3311.18069,0.20908
3313.10916,0.20766
3315.03763,0.20781
3316.96609,0.20912
3318.89456,0.21228
3320.82303,0.21789
3322.75150,0.21892
3324.67997,0.21473
3326.60844,0.21465
3328.53691,0.21568
3330.46537,0.21176
3332.39384,0.20933
3334.32231,0.21007
3336.25078,0.20851
3338.17925,0.20789
3340.10772,0.21290
3342.03619,0.21972
3343.96466,0.22371
3345.89312,0.22267
3347.82159,0.21850
3349.75006,0.21415
3351.67853,0.20926
3353.60700,0.20686
3355.53547,0.20790
3357.46394,0.20703
3359.39240,0.20515
3361.32087,0.20722
3363.24934,0.21065
3365.17781,0.21161
3367.10628,0.21044
3369.03475,0.20903
3370.96322,0.21009
3372.89168,0.21166
3374.82015,0.21313
3376.74862,0.21697
3378.67709,0.21816
3380.60556,0.21357
3382.53403,0.20971
3384.46250,0.21161
3386.39097,0.21625
3388.31943,0.21844
3390.24790,0.21981
3392.17637,0.22442
3394.10484,0.22644
3396.03331,0.22185
3397.96178,0.21656
3399.89025,0.21126
3401.81871,0.20470
3403.74718,0.19883
3405.67565,0.19671
3407.60412,0.20107
3409.53259,0.20708
3411.46106,0.20937
3413.38953,0.21033
3415.31800,0.21270
3417.24646,0.21429
3419.17493,0.21358
3421.10340,0.21190
3423.03187,0.21055
3424.96034,0.21008
3426.88881,0.20821
3428.81728,0.20348
3430.74574,0.19912
3432.67421,0.19704
3434.60268,0.19607
3436.53115,0.19814
3438.45962,0.20514
3440.38809,0.21315
3442.31656,0.21645
3444.24503,0.21231
3446.17349,0.20464
3448.10196,0.19978
3450.03043,0.19812
3451.95890,0.19782
3453.88737,0.19757
3455.81584,0.19474
3457.74431,0.19335
3459.67277,0.19618
3461.60124,0.19407
3463.52971,0.18760
3465.45818,0.18724
3467.38665,0.19157
3469.31512,0.19504
3471.24359,0.19482
3473.17206,0.19056
3475.10052,0.18844
3477.02899,0.19209
3478.95746,0.19590
3480.88593,0.19391
3482.81440,0.18738
3484.74287,0.18502
3486.67134,0.18752
3488.59980,0.18433
3490.52827,0.17745
3492.45674,0.17727
3494.38521,0.18091
3496.31368,0.18248
3498.24215,0.18488
3500.17062,0.19020
3502.09909,0.19301
3504.02755,0.18963
3505.95602,0.18650
3507.88449,0.18739
3509.81296,0.18684
3511.74143,0.18250
3513.66990,0.17834
3515.59837,0.17854
3517.52683,0.18328
3519.45530,0.18808
3521.38377,0.19059
3523.31224,0.19080
3525.24071,0.18932
3527.16918,0.18582
3529.09765,0.17898
3531.02611,0.17269
3532.95458,0.16926
3534.88305,0.16679
3536.81152,0.16464
3538.73999,0.16269
3540.66846,0.16315
3542.59693,0.16853
3544.52540,0.17469
3546.45386,0.17463
3548.38233,0.17087
3550.31080,0.16951
3552.23927,0.16806
3554.16774,0.16570
3556.09621,0.16801
3558.02468,0.17433
3559.95314,0.17596
3561.88161,0.16849
3563.81008,0.16254
3565.73855,0.16830
3567.66702,0.17431
3569.59549,0.16644
3571.52396,0.15854
3573.45243,0.15959
3575.38089,0.16409
3577.30936,0.16677
3579.23783,0.16506
3581.16630,0.15874
3583.09477,0.15599
3585.02324,0.16080
3586.95171,0.16469
3588.88017,0.15850
3590.80864,0.15298
3592.73711,0.15680
3594.66558,0.16541
3596.59405,0.17019
3598.52252,0.17069
3600.45099,0.16758
3602.37946,0.15825
3604.30792,0.14888
3606.23639,0.14638
3608.16486,0.14901
3610.09333,0.15183
3612.02180,0.15170
3613.95027,0.15031
3615.87874,0.15461
3617.80720,0.16358
3619.73567,0.16681
3621.66414,0.15910
3623.59261,0.14942
3625.52108,0.14480
3627.44955,0.14477
3629.37802,0.14766
3631.30649,0.15000
3633.23495,0.14675
3635.16342,0.14141
3637.09189,0.14061
3639.02036,0.14354
3640.94883,0.14359
3642.87730,0.14049
3644.80577,0.14345
3646.73423,0.15513
3648.66270,0.16271
3650.59117,0.15439
3652.51964,0.14312
3654.44811,0.13470
3656.37658,0.12958
3658.30505,0.12768
3660.23352,0.12632
3662.16198,0.12573
3664.09045,0.12794
3666.01892,0.13382
3667.94739,0.14409
3669.87586,0.15439
3671.80433,0.15647
3673.73280,0.15796
3675.66126,0.15566
3677.58973,0.14804
3679.51820,0.14794
3681.44667,0.14398
3683.37514,0.13243
3685.30361,0.12950
3687.23208,0.14330
3689.16055,0.15980
3691.08901,0.15684
3693.01748,0.14490
3694.94595,0.13660
3696.87442,0.13349
3698.80289,0.13610
3700.73136,0.13889
3702.65983,0.13453
3704.58829,0.12967
3706.51676,0.13201
3708.44523,0.13865
3710.37370,0.14570
3712.30217,0.15104
3714.23064,0.14794
3716.15911,0.13848
3718.08757,0.13144
3720.01604,0.13054
3721.94451,0.13331
3723.87298,0.13914
3725.80145,0.14429
3727.72992,0.14440
3729.65839,0.14301
3731.58686,0.14350
3733.51532,0.14728
3735.44379,0.14953
3737.37226,0.14549
3739.30073,0.14427
3741.22920,0.14849
3743.15767,0.15343
3745.08614,0.15022
3747.01460,0.14723
3748.94307,0.15622
3750.87154,0.15929
3752.80001,0.14273
3754.72848,0.13239
3756.65695,0.13381
3758.58542,0.13722
3760.51389,0.13197
3762.44235,0.12591
3764.37082,0.12591
3766.29929,0.12731
3768.22776,0.12889
3770.15623,0.12898
3772.08470,0.12453
3774.01317,0.12210
3775.94163,0.12557
3777.87010,0.13190
3779.79857,0.13557
3781.72704,0.13515
3783.65551,0.13469
3785.58398,0.13515
3787.51245,0.13574
3789.44092,0.13392
3791.36938,0.12941
3793.29785,0.12864
3795.22632,0.13118
3797.15479,0.12933
3799.08326,0.12452
3801.01173,0.12225
3802.94020,0.12316
3804.86866,0.12527
3806.79713,0.12710
3808.72560,0.12649
3810.65407,0.12624
3812.58254,0.13091
3814.51101,0.14034
3816.43948,0.14347
3818.36795,0.13678
3820.29641,0.13382
3822.22488,0.13269
3824.15335,0.13344
3826.08182,0.13993
3828.01029,0.14289
3829.93876,0.13688
3831.86723,0.12855
3833.79569,0.12833
3835.72416,0.13781
3837.65263,0.14747
3839.58110,0.15050
3841.50957,0.14613
3843.43804,0.13627
3845.36651,0.12768
3847.29498,0.12412
3849.22344,0.12208
3851.15191,0.11966
3853.08038,0.12480
3855.00885,0.13247
3856.93732,0.12856
3858.86579,0.12426
3860.79426,0.12527
3862.72272,0.13104
3864.65119,0.13355
3866.57966,0.12793
3868.50813,0.12475
3870.43660,0.13035
3872.36507,0.13379
3874.29354,0.12865
3876.22200,0.12333
3878.15047,0.12476
3880.07894,0.13104
3882.00741,0.13412
3883.93588,0.13136
3885.86435,0.12625
3887.79282,0.12246
3889.72129,0.12230
3891.64975,0.12443
3893.57822,0.12275
3895.50669,0.11925
3897.43516,0.12005
3899.36363,0.12489
3901.29210,0.12987
3903.22057,0.13072
3905.14903,0.12204
3907.07750,0.11024
3909.00597,0.10591
3910.93444,0.10814
3912.86291,0.11225
3914.79138,0.11695
3916.71985,0.12146
3918.64832,0.12308
3920.57678,0.12005
3922.50525,0.11640
3924.43372,0.11357
3926.36219,0.10965
3928.29066,0.11028
3930.21913,0.12015
3932.14760,0.13033
3934.07606,0.12743
3936.00453,0.11793
3937.93300,0.11217
3939.86147,0.11067
3941.78994,0.11332
3943.71841,0.11714
3945.64688,0.11780
3947.57535,0.11771
3949.50381,0.11838
3951.43228,0.11687
3953.36075,0.11193
3955.28922,0.10833
3957.21769,0.10841
3959.14616,0.10668
3961.07463,0.10374
3963.00309,0.10519
3964.93156,0.10863
3966.86003,0.10830
3968.78850,0.10418
3970.71697,0.10079
3972.64544,0.10137
3974.57391,0.10619
3976.50238,0.11089
3978.43084,0.11252
3980.35931,0.11283
3982.28778,0.11198
3984.21625,0.10961
3986.14472,0.10686
3988.07319,0.10567
3990.00166,0.10680
3991.93012,0.10860
3993.85859,0.10558
3995.78706,0.09945
3997.71553,0.09892
3999.64400,0.10031
4001.57247,0.10028
4003.50094,0.10225
4005.42941,0.10477
4007.35787,0.10545
4009.28634,0.10346
4011.21481,0.10289
4013.14328,0.10660
4015.07175,0.11023
4017.00022,0.10945
4018.92869,0.10448
4020.85715,0.10201
4022.78562,0.10560
4024.71409,0.10968
4026.64256,0.10884
4028.57103,0.10295
4030.49950,0.09652
4032.42797,0.09372
4034.35644,0.09473
4036.28490,0.09923
4038.21337,0.10238
4040.14184,0.09989
4042.07031,0.09771
4043.99878,0.09828
4045.92725,0.09688
4047.85572,0.09571
4049.78418,0.09849
4051.71265,0.09899
4053.64112,0.09496
4055.56959,0.09550
4057.49806,0.10285
4059.42653,0.10905
4061.35500,0.10821
4063.28346,0.10100
4065.21193,0.09441
4067.14040,0.09384
4069.06887,0.09711
4070.99734,0.10143
4072.92581,0.10344
4074.85428,0.10233
4076.78275,0.10189
4078.71121,0.10127
4080.63968,0.09981
4082.56815,0.09871
4084.49662,0.09699
4086.42509,0.09446
4088.35356,0.09533
4090.28203,0.10059
4092.21049,0.10052
4094.13896,0.09439
4096.06743,0.09005
4097.99590,0.08686
4099.92437,0.08367
4101.85284,0.08505
4103.78131,0.09189
4105.70978,0.09707
4107.63824,0.09617
4109.56671,0.09235
4111.49518,0.09091
4113.42365,0.09296
4115.35212,0.09407
4117.28059,0.09276
4119.20906,0.09219
4121.13752,0.09008
4123.06599,0.08186
4124.99446,0.07562
4126.92293,0.07920
4128.85140,0.08668
4130.77987,0.09133
4132.70834,0.09312
4134.63681,0.09431
4136.56527,0.09509
4138.49374,0.09506
4140.42221,0.09485
4142.35068,0.09521
4144.27915,0.09565
4146.20762,0.09372
4148.13609,0.08746
4150.06455,0.07649
4151.99302,0.06758
4153.92149,0.07017
4155.84996,0.07939
4157.77843,0.08528
4159.70690,0.08884
4161.63537,0.08949
4163.56384,0.08368
4165.49230,0.07885
4167.42077,0.07915
4169.34924,0.07798
4171.27771,0.07408
4173.20618,0.07279
4175.13465,0.07722
4177.06312,0.08287
4178.99158,0.08227
4180.92005,0.07709
4182.84852,0.07549
4184.77699,0.07930
4186.70546,0.08259
4188.63393,0.08622
4190.56240,0.09253
4192.49087,0.09197
4194.41933,0.08290
4196.34780,0.07590
4198.27627,0.07541
4200.20474,0.07882
4202.13321,0.08107
4204.06168,0.07881
4205.99015,0.07479
4207.91861,0.07139
4209.84708,0.06974
4211.77555,0.07306
4213.70402,0.07682
4215.63249,0.07533
4217.56096,0.07469
4219.48943,0.07895
4221.41789,0.08193
4223.34636,0.08025
4225.27483,0.07511
4227.20330,0.06961
4229.13177,0.07142
4231.06024,0.08069
4232.98871,0.08832
4234.91718,0.08656
4236.84564,0.07496
4238.77411,0.06356
4240.70258,0.06012
4242.63105,0.06170
4244.55952,0.06304
4246.48799,0.06254
4248.41646,0.06121
4250.34492,0.06161
4252.27339,0.06389
4254.20186,0.06589
4256.13033,0.06829
4258.05880,0.06984
4259.98727,0.07076
4261.91574,0.07653
4263.84421,0.08156
4265.77267,0.07750
4267.70114,0.07220
4269.62961,0.07169
4271.55808,0.07023
4273.48655,0.06641
4275.41502,0.06325
4277.34349,0.05923
4279.27195,0.05428
4281.20042,0.05256
4283.12889,0.05229
4285.05736,0.05452
4286.98583,0.06369
4288.91430,0.06971
4290.84277,0.06545
4292.77124,0.06114
4294.69970,0.05973
4296.62817,0.05555
4298.55664,0.05311
4300.48511,0.05660
4302.41358,0.06136
4304.34205,0.06468
4306.27052,0.06698
4308.19898,0.06441
4310.12745,0.05822
4312.05592,0.05819
4313.98439,0.06262
4315.91286,0.06261
4317.84133,0.06078
4319.76980,0.06198
4321.69827,0.06106
4323.62673,0.05438
4325.55520,0.04536
4327.48367,0.04022
4329.41214,0.04246
4331.34061,0.04742
4333.26908,0.05228
4335.19755,0.05143
4337.12601,0.04191
4339.05448,0.03912
4340.98295,0.04892
4342.91142,0.05672
4344.83989,0.05384
4346.76836,0.04803
4348.69683,0.04623
4350.62530,0.04617
4352.55376,0.04754
4354.48223,0.05121
4356.41070,0.05412
4358.33917,0.05401
4360.26764,0.05292
4362.19611,0.05504
4364.12458,0.05802
4366.05304,0.05361
4367.98151,0.04701
4369.90998,0.04770
4371.83845,0.05079
4373.76692,0.04997
4375.69539,0.04494
4377.62386,0.03911
4379.55232,0.03708
4381.48079,0.03931
4383.40926,0.04206
4385.33773,0.04316
4387.26620,0.04751
4389.19467,0.05579
4391.12314,0.05511
4393.05161,0.04461
4394.98007,0.03909
4396.90854,0.03847
4398.83701,0.03757
4400.76548,0.03603
4402.69395,0.03070
4404.62242,0.02640
4406.55089,0.02938
4408.47935,0.03652
4410.40782,0.04120
4412.33629,0.03950
4414.26476,0.03491
4416.19323,0.03543
4418.12170,0.04209
4420.05017,0.04625
4421.97864,0.04384
4423.90710,0.03970
4425.83557,0.03551
4427.76404,0.03083
4429.69251,0.02889
4431.62098,0.02781
4433.54945,0.02300
4435.47792,0.01990
4437.40638,0.02465
4439.33485,0.03058
4441.26332,0.02955
4443.19179,0.02423
4445.12026,0.02482
4447.04873,0.03371
4448.97720,0.03965
4450.90567,0.03710
4452.83413,0.03022
4454.76260,0.02664
4456.69107,0.03209
4458.61954,0.03864
4460.54801,0.03683
4462.47648,0.03121
4464.40495,0.02736
4466.33341,0.02307
4468.26188,0.02015
4470.19035,0.02212
4472.11882,0.02495
4474.04729,0.02418
4475.97576,0.02147
4477.90423,0.02439
4479.83270,0.03590
4481.76116,0.04690
4483.68963,0.04511
4485.61810,0.02978
4487.54657,0.01483
4489.47504,0.01368
4491.40351,0.02405
4493.33198,0.03284
4495.26044,0.03380
4497.18891,0.02658
4499.11738,0.01529
4501.04585,0.01044
4502.97432,0.01176
4504.90279,0.01440
4506.83126,0.01956
4508.75973,0.01999
4510.68819,0.01579
4512.61666,0.01838
4514.54513,0.02204
4516.47360,0.02345
4518.40207,0.03105
4520.33054,0.04169
4522.25901,0.04799
4524.18747,0.04491
4526.11594,0.02885
4528.04441,0.00643
4529.97288,-0.00311
4531.90135,0.00786
4533.82982,0.02132
4535.75829,0.02338
4537.68676,0.01880
4539.61522,0.01484
4541.54369,0.01147
4543.47216,0.00947
4545.40063,0.01202
4547.32910,0.01345
4549.25757,0.00992
4551.18604,0.00802
4553.11450,0.01027
4555.04297,0.01206
4556.97144,0.01067
4558.89991,0.00947
4560.82838,0.01092
4562.75685,0.01474
4564.68532,0.01494
4566.61378,0.00592
4568.54225,0.00516
4570.47072,0.02218
4572.39919,0.03438
4574.32766,0.03033
4576.25613,0.01995
4578.18460,0.01158
4580.11307,0.00712
4582.04153,0.00430
4583.97000,0.00465
4585.89847,0.00448
4587.82694,-0.00339
4589.75541,-0.00716
4591.68388,0.00233
4593.61235,0.01357
4595.54081,0.01609
4597.46928,0.01058
4599.39775,0.00545
4601.32622,0.00665
4603.25469,0.01181
4605.18316,0.01534
4607.11163,0.01886
4609.04010,0.02361
4610.96856,0.01866
4612.89703,0.00910
4614.82550,0.01349
4616.75397,0.02384
4618.68244,0.02554
4620.61091,0.02423
4622.53938,0.02125
4624.46784,0.01211
4626.39631,0.00371
4628.32478,0.00460
4630.25325,0.01177
4632.18172,0.01656
4634.11019,0.01380
4636.03866,0.00609
4637.96713,0.00143
4639.89559,-0.00035
4641.82406,0.00307
4643.75253,0.01724
4645.68100,0.02428
4647.60947,0.01471
4649.53794,0.01006
4651.46641,0.01523
4653.39487,0.01539
4655.32334,0.01271
4657.25181,0.01172
4659.18028,0.00470
4661.10875,-0.00349
4663.03722,-0.00434
4664.96569,-0.00835
4666.89416,-0.01455
4668.82262,-0.00485
4670.75109,0.00822
4672.67956,0.00666
4674.60803,0.00573
4676.53650,0.00931
4678.46497,0.00842
4680.39344,0.00902
4682.32190,0.01145
4684.25037,0.00883
4686.17884,0.00208
4688.10731,-0.00018
4690.03578,0.00424
4691.96425,0.00281
4693.89272,-0.00318
4695.82119,0.00051
4697.74965,0.00895
4699.67812,0.00906
4701.60659,-0.00036
4703.53506,-0.00768
4705.46353,-0.00669
4707.39200,-0.00576
4709.32047,-0.00298
4711.24893,0.00415
4713.17740,0.00548
4715.10587,0.00591
4717.03434,0.01516
4718.96281,0.02104
4720.89128,0.01300
4722.81975,0.00383
4724.74821,0.00255
4726.67668,0.00102
4728.60515,0.00335
4730.53362,0.01430
4732.46209,0.01627
4734.39056,0.00615
4736.31903,0.00382
4738.24750,0.01078
4740.17596,0.01259
4742.10443,0.00547
4744.03290,-0.00164
4745.96137,0.00004
4747.88984,0.00492
4749.81831,0.00369
4751.74678,0.00373
4753.67524,0.00649
4755.60371,0.00406
4757.53218,0.00433
4759.46065,0.00884
4761.38912,0.00627
4763.31759,0.00307
4765.24606,0.00817
4767.17453,0.00927
4769.10299,0.00462
4771.03146,0.00306
4772.95993,0.00084
4774.88840,0.00031
4776.81687,0.00527
4778.74534,0.00740
4780.67381,-0.00163
4782.60227,-0.01217
4784.53074,-0.00529
4786.45921,0.01131
4788.38768,0.01296
4790.31615,0.00060
4792.24462,-0.00088
4794.17309,0.01547
4796.10156,0.02614
4798.03002,0.01984
4799.95849,0.01240
4801.88696,0.00819
4803.81543,0.00513
4805.74390,0.01780
4807.67237,0.03808
4809.60084,0.03207
4811.52930,0.00615
4813.45777,-0.00738
4815.38624,-0.00844
4817.31471,-0.00702
4819.24318,-0.00166
4821.17165,0.00644
4823.10012,0.01297
4825.02859,0.01193
4826.95705,0.01270
4828.88552,0.02384
4830.81399,0.02876
4832.74246,0.01975
4834.67093,0.01204
4836.59940,0.01501
4838.52787,0.01585
4840.45633,0.00801
4842.38480,0.00147
4844.31327,-0.00270
4846.24174,-0.00512
4848.17021,-0.00174
4850.09868,0.00530
4852.02715,0.01103
4853.95562,0.00958
4855.88408,0.00555
4857.81255,0.01087
4859.74102,0.01300
4861.66949,-0.00125
4863.59796,-0.01857
4865.52643,-0.02624
4867.45490,-0.01769
4869.38336,-0.00077
4871.31183,0.00665
4873.24030,0.00595
4875.16877,0.00489
4877.09724,-0.00201
4879.02571,-0.01187
4880.95418,-0.00746
4882.88265,0.00728
4884.81111,0.00747
4886.73958,-0.00571
4888.66805,-0.01331
4890.59652,-0.01668
4892.52499,-0.01442
4894.45346,-0.00151
4896.38193,0.00823
4898.31039,0.00973
4900.23886,0.01561
4902.16733,0.02759
4904.09580,0.02878
4906.02427,0.01784
4907.95274,0.01647
4909.88121,0.02754
4911.80967,0.03257
4913.73814,0.02921
4915.66661,0.02272
4917.59508,0.00899
4919.52355,0.00157
4921.45202,0.01296
4923.38049,0.02095
4925.30896,0.01471
4927.23742,0.01078
4929.16589,0.01408
4931.09436,0.01672
4933.02283,0.01489
4934.95130,0.01362
4936.87977,0.01863
4938.80824,0.02395
4940.73670,0.02118
4942.66517,0.00972
4944.59364,0.00005
4946.52211,-0.00074
4948.45058,0.00066
4950.37905,0.00412
4952.30752,0.00863
4954.23599,0.00748
4956.16445,0.00573
4958.09292,0.01192
4960.02139,0.01985
4961.94986,0.01483
4963.87833,0.01159
4965.80680,0.02736
4967.73527,0.03553
4969.66373,0.02598
4971.59220,0.02116
4973.52067,0.02237
4975.44914,0.02195
4977.37761,0.01843
4979.30608,0.00976
4981.23455,0.00330
4983.16302,0.00303
4985.09148,0.00366
4987.01995,0.00102
4988.94842,-0.00680
4990.87689,-0.01585
4992.80536,-0.00900
4994.73383,0.01560
4996.66230,0.02401
4998.59076,0.00809
5000.51923,-0.00046
5002.44770,0.00853
5004.37617,0.01448
5006.30464,0.01038
5008.23311,0.01077
5010.16158,0.01090
5012.09005,0.00509
5014.01851,0.00816
5015.94698,0.01924
5017.87545,0.02591
5019.80392,0.02530
5021.73239,0.01782
5023.66086,0.01437
5025.58933,0.01704
5027.51779,0.00772
5029.44626,-0.00544
5031.37473,-0.00481
5033.30320,0.00049
5035.23167,0.00816
5037.16014,0.02026
5039.08861,0.02242
5041.01708,0.01259
5042.94554,0.00399
5044.87401,0.00418
5046.80248,0.01396
5048.73095,0.02449
5050.65942,0.02875
5052.58789,0.02813
5054.51636,0.02493
5056.44482,0.01798
5058.37329,0.00942
5060.30176,0.01209
5062.23023,0.02236
5064.15870,0.02496
5066.08717,0.02706
5068.01564,0.03233
5069.94410,0.03152
5071.87257,0.03198
5073.80104,0.03823
5075.72951,0.03714
5077.65798,0.02902
5079.58645,0.02491
5081.51492,0.02568
5083.44339,0.03264
5085.37185,0.04791
5087.30032,0.05400
5089.22879,0.03395
5091.15726,0.01293
5093.08573,0.01880
5095.01420,0.03699
5096.94267,0.04748
5098.87113,0.03995
5100.79960,0.01855
5102.72807,0.01217
5104.65654,0.02642
5106.58501,0.02879
5108.51348,0.00910
5110.44195,0.00083
5112.37042,0.02014
5114.29888,0.03532
5116.22735,0.03194
5118.15582,0.03110
5120.08429,0.03568
5122.01276,0.03232
5123.94123,0.02416
5125.86970,0.02962
5127.79816,0.04800
5129.72663,0.04902
5131.65510,0.02537
5133.58357,0.00090
5135.51204,-0.00905
5137.44051,-0.00235
5139.36898,0.00764
5141.29745,0.00505
5143.22591,0.00239
5145.15438,0.01339
5147.08285,0.01894
5149.01132,0.01233
5150.93979,0.01531
5152.86826,0.02024
5154.79673,0.01855
5156.72519,0.02736
5158.65366,0.03427
5160.58213,0.03216
5162.51060,0.03937
5164.43907,0.04709
5166.36754,0.03964
5168.29601,0.02098
5170.22448,0.00523
5172.15294,0.01152
5174.08141,0.03554
5176.00988,0.05016
5177.93835,0.04504
5179.86682,0.03359
5181.79529,0.02793
5183.72376,0.02773
5185.65222,0.03032
5187.58069,0.03548
5189.50916,0.03310
5191.43763,0.02147
5193.36610,0.01749
5195.29457,0.02504
5197.22304,0.04218
5199.15151,0.06573
5201.07997,0.07943
5203.00844,0.07663
5204.93691,0.06279
5206.86538,0.04672
5208.79385,0.03656
5210.72232,0.03581
5212.65079,0.03939
5214.57925,0.03516
5216.50772,0.02840
5218.43619,0.03473
5220.36466,0.04680
5222.29313,0.04748
5224.22160,0.03413
5226.15007,0.02150
5228.07854,0.02976
5230.00700,0.04303
5231.93547,0.04268
5233.86394,0.04173
5235.79241,0.04401
5237.72088,0.03717
5239.64935,0.02717
5241.57782,0.03102
5243.50628,0.04343
5245.43475,0.05598
5247.36322,0.06755
5249.29169,0.06258
5251.22016,0.04943
5253.14863,0.04921
5255.07710,0.05156
5257.00556,0.03785
5258.93403,0.01980
5260.86250,0.02256
5262.79097,0.03723
5264.71944,0.03645
5266.64791,0.02253
5268.57638,0.01074
5270.50485,0.00502
5272.43331,0.00845
5274.36178,0.02209
5276.29025,0.03331
5278.21872,0.03226
5280.14719,0.03143
5282.07566,0.04540
5284.00413,0.06062
5285.93259,0.05164
5287.86106,0.03311
5289.78953,0.03087
5291.71800,0.03854
5293.64647,0.04928
5295.57494,0.05385
5297.50341,0.04607
5299.43188,0.03957
5301.36034,0.04069
5303.28881,0.04595
5305.21728,0.04592
5307.14575,0.03720
5309.07422,0.02841
5311.00269,0.02789
5312.93116,0.03420
5314.85962,0.03873
5316.78809,0.04787
5318.71656,0.05866
5320.64503,0.04889
5322.57350,0.02799
5324.50197,0.02313
5326.43044,0.03732
5328.35891,0.05764
5330.28737,0.06108
5332.21584,0.04598
5334.14431,0.03837
5336.07278,0.03904
5338.00125,0.04134
5339.92972,0.04701
5341.85819,0.05092
5343.78665,0.05019
5345.71512,0.04209
5347.64359,0.04503
5349.57206,0.06154
5351.50053,0.06630
5353.42900,0.06618
5355.35747,0.08694
5357.28594,0.09821
5359.21440,0.07650
5361.14287,0.05211
5363.07134,0.04959
5364.99981,0.06654
5366.92828,0.08761
5368.85675,0.08995
5370.78522,0.07075
5372.71368,0.05373
5374.64215,0.06207
5376.57062,0.08075
5378.49909,0.07151
5380.42756,0.04943
5382.35603,0.04664
5384.28450,0.05634
5386.21297,0.06144
5388.14143,0.06798
5390.06990,0.07267
5391.99837,0.06975
5393.92684,0.06382
5395.85531,0.05246
5397.78378,0.03671
5399.71225,0.03122
5401.64071,0.03972
5403.56918,0.05467
5405.49765,0.07797
5407.42612,0.10667
5409.35459,0.12320
5411.28306,0.11256
5413.21153,0.08338
5415.13999,0.07123
5417.06846,0.07813
5418.99693,0.08027
5420.92540,0.07902
5422.85387,0.07589
5424.78234,0.05733
5426.71081,0.03941
5428.63928,0.04603
5430.56774,0.05831
5432.49621,0.05850
5434.42468,0.04572
5436.35315,0.03055
5438.28162,0.03245
5440.21009,0.03761
5442.13856,0.03057
5444.06702,0.03099
5445.99549,0.04211
5447.92396,0.04028
5449.85243,0.03277
5451.78090,0.03517
5453.70937,0.04560
5455.63784,0.07935
5457.56631,0.11683
5459.49477,0.10031
5461.42324,0.05856
5463.35171,0.04855
5465.28018,0.05420
5467.20865,0.05093
5469.13712,0.04529
5471.06559,0.05117
5472.99405,0.05941
5474.92252,0.04369
5476.85099,0.02993
5478.77946,0.05103
5480.70793,0.07690
5482.63640,0.08800
5484.56487,0.08393
5486.49334,0.06881
5488.42180,0.06257
5490.35027,0.07263
5492.27874,0.08218
5494.20721,0.07461
5496.13568,0.06270
5498.06415,0.06755
5499.99262,0.08143
5501.92108,0.08390
5503.84955,0.08019
5505.77802,0.08402
5507.70649,0.08694
5509.63496,0.07716
5511.56343,0.06243
5513.49190,0.05723
5515.42037,0.07108
5517.34883,0.09702
5519.27730,0.11152
5521.20577,0.10801
5523.13424,0.10796
5525.06271,0.11814
5526.99118,0.12221
5528.91965,0.12054
5530.84811,0.12173
5532.77658,0.10851
5534.70505,0.06962
5536.63352,0.03314
5538.56199,0.02202
5540.49046,0.03108
5542.41893,0.06167
5544.34740,0.10375
5546.27586,0.11510
5548.20433,0.08534
5550.13280,0.06136
5552.06127,0.06633
5553.98974,0.07624
5555.91821,0.07038
5557.84668,0.05995
5559.77514,0.06142
5561.70361,0.07696
5563.63208,0.09280
5565.56055,0.08701
5567.48902,0.07256
5569.41749,0.07223
5571.34596,0.07737
5573.27443,0.07263
5575.20289,0.05393
5577.13136,0.04782
5579.05983,0.07618
5580.98830,0.11367
5582.91677,0.12856
5584.84524,0.11464
5586.77371,0.06768
5588.70217,0.00889
5590.63064,-0.00552
5592.55911,0.03990
5594.48758,0.09600
5596.41605,0.12560
5598.34452,0.13785
5600.27299,0.12782
5602.20145,0.08901
5604.12992,0.06599
5606.05839,0.07342
5607.98686,0.07127
5609.91533,0.06519
5611.84380,0.07899
5613.77227,0.08628
5615.70074,0.07892
5617.62920,0.07335
5619.55767,0.08100
5621.48614,0.10627
5623.41461,0.10804
5625.34308,0.07610
5627.27155,0.07469
5629.20002,0.10487
5631.12848,0.11786
5633.05695,0.12286
5634.98542,0.11327
5636.91389,0.06340
5638.84236,0.01160
5640.77083,-0.01211
5642.69930,-0.01696
5644.62777,0.00402
5646.55623,0.02423
5648.48470,0.01003
5650.41317,0.01572
5652.34164,0.05901
5654.27011,0.07507
5656.19858,0.06913
5658.12705,0.07586
5660.05551,0.06985
5661.98398,0.04833
5663.91245,0.05390
5665.84092,0.08565
5667.76939,0.10933
5669.69786,0.11604
5671.62633,0.10864
5673.55480,0.10056
5675.48326,0.12263
5677.41173,0.15331
5679.34020,0.14156
5681.26867,0.11970
5683.19714,0.12409
5685.12561,0.13107
5687.05408,0.13055
5688.98254,0.12470
5690.91101,0.10493
5692.83948,0.07791
5694.76795,0.06323
5696.69642,0.06988
5698.62489,0.08868
5700.55336,0.10712
5702.48183,0.11375
5704.41029,0.09401
5706.33876,0.06837
5708.26723,0.06632
5710.19570,0.06255
5712.12417,0.05008
5714.05264,0.06591
5715.98111,0.08478
5717.90957,0.07019
5719.83804,0.04924
5721.76651,0.03888
5723.69498,0.04212
5725.62345,0.06577
5727.55192,0.07965
5729.48039,0.05585
5731.40886,0.02059
5733.33732,0.01138
5735.26579,0.03646
5737.19426,0.06743
5739.12273,0.08122
5741.05120,0.08498
5742.97967,0.09129
5744.90814,0.09988
5746.83660,0.10164
5748.76507,0.09532
5750.69354,0.07261
5752.62201,0.04059
5754.55048,0.03319
5756.47895,0.04843
5758.40742,0.06537
5760.33588,0.07361
5762.26435,0.07828
5764.19282,0.08861
5766.12129,0.07605
5768.04976,0.05108
5769.97823,0.07421
5771.90670,0.10890
5773.83517,0.08142
5775.76363,0.05079
5777.69210,0.07890
5779.62057,0.11733
5781.54904,0.12271
5783.47751,0.10797
5785.40598,0.09948
5787.33445,0.08942
5789.26291,0.04841
5791.19138,0.00268
5793.11985,-0.00022
5795.04832,0.03307
5796.97679,0.06215
5798.90526,0.08966
5800.83373,0.13232
5802.76220,0.13281
5804.69066,0.07561
5806.61913,0.05016
5808.54760,0.06835
5810.47607,0.08825
5812.40454,0.11594
5814.33301,0.13367
5816.26148,0.11224
5818.18994,0.06462
5820.11841,0.03741
5822.04688,0.07668
5823.97535,0.13711
5825.90382,0.13291
5827.83229,0.07394
5829.76076,0.03711
5831.68923,0.05635
5833.61769,0.07322
5835.54616,0.04653
5837.47463,0.02886
5839.40310,0.03566
5841.33157,0.02463
5843.26004,0.00395
5845.18851,0.01819
5847.11697,0.06452
5849.04544,0.09374
5850.97391,0.07490
5852.90238,0.03979
5854.83085,0.04515
5856.75932,0.07709
5858.68779,0.06857
5860.61626,0.05939
5862.54472,0.10666
5864.47319,0.13100
5866.40166,0.10112
5868.33013,0.08511
5870.25860,0.07341
5872.18707,0.06517
5874.11554,0.08525
5876.04400,0.09108
5877.97247,0.08837
5879.90094,0.12158
5881.82941,0.15091
5883.75788,0.14348
5885.68635,0.13001
5887.61482,0.13672
5889.54329,0.15098
5891.47175,0.13995
5893.40022,0.12957
5895.32869,0.16576
5897.25716,0.18932
5899.18563,0.15367
5901.11410,0.10186
5903.04257,0.05921
5904.97103,0.05182
5906.89950,0.07410
5908.82797,0.07706
5910.75644,0.06980
5912.68491,0.09557
5914.61338,0.12545
5916.54185,0.09925
5918.47032,0.06073
5920.39878,0.06159
5922.32725,0.06754
5924.25572,0.08683
5926.18419,0.11693
5928.11266,0.10480
5930.04113,0.07645
5931.96960,0.07118
5933.89806,0.06019
5935.82653,0.02706
5937.75500,0.01681
5939.68347,0.06045
5941.61194,0.11442
5943.54041,0.12609
5945.46888,0.08829
5947.39734,0.01371
5949.32581,-0.03571
5951.25428,0.01035
5953.18275,0.11520
5955.11122,0.18987
5957.03969,0.18402
5958.96816,0.10279
5960.89663,0.02148
5962.82509,0.00156
5964.75356,0.02154
5966.68203,0.05086
5968.61050,0.06671
5970.53897,0.06375
5972.46744,0.07635
5974.39591,0.09453
5976.32437,0.07111
5978.25284,0.03301
5980.18131,0.03591
5982.10978,0.08121
5984.03825,0.11714
5985.96672,0.11811
5987.89519,0.12257
5989.82366,0.11859
5991.75212,0.07872
5993.68059,0.04781
5995.60906,0.05142
5997.53753,0.06276
5999.46600,0.06037
6001.39447,0.06240
6003.32294,0.07919
6005.25140,0.08752
6007.17987,0.08614
6009.10834,0.08079
6011.03681,0.08043
6012.96528,0.10462
6014.89375,0.15926
6016.82222,0.19768
6018.75069,0.14481
6020.67915,0.05889
6022.60762,0.02431
6024.53609,0.01093
6026.46456,0.01643
6028.39303,0.05670
6030.32150,0.08100
6032.24997,0.05024
6034.17843,0.01859
6036.10690,0.04536
6038.03537,0.08400
6039.96384,0.08011
6041.89231,0.05797
6043.82078,0.04233
6045.74925,0.05056
6047.67772,0.09764
6049.60618,0.11906
6051.53465,0.08423
6053.46312,0.07053
6055.39159,0.06812
6057.32006,0.03189
6059.24853,0.02060
6061.17700,0.06490
6063.10546,0.10556
6065.03393,0.10463
6066.96240,0.09454
6068.89087,0.10565
6070.81934,0.12575
6072.74781,0.10489
6074.67628,0.05413
6076.60475,0.03572
6078.53321,0.02457
6080.46168,0.01426
6082.39015,0.03018
6084.31862,0.04446
6086.24709,0.05939
6088.17556,0.07174
6090.10403,0.07067
6092.03249,0.07636
6093.96096,0.08824
6095.88943,0.11247
6097.81790,0.13947
6099.74637,0.12999
6101.67484,0.10818
6103.60331,0.12783
6105.53177,0.15289
6107.46024,0.12672
6109.38871,0.07159
6111.31718,0.03527
6113.24565,0.04264
6115.17412,0.07217
6117.10259,0.07315
6119.03106,0.06422
6120.95952,0.09130
6122.88799,0.11758
6124.81646,0.11553
6126.74493,0.09738
6128.67340,0.06606
6130.60187,0.05473
6132.53034,0.06392
6134.45880,0.04620
6136.38727,0.03948
6138.31574,0.08254
6140.24421,0.12132
6142.17268,0.10947
6144.10115,0.07670
6146.02962,0.07155
6147.95809,0.08324
6149.88655,0.07869
6151.81502,0.05323
6153.74349,0.02868
6155.67196,0.02059
6157.60043,0.02732
6159.52890,0.05216
6161.45737,0.09458
6163.38583,0.12022
6165.31430,0.09929
6167.24277,0.07537
6169.17124,0.08168
6171.09971,0.10067
6173.02818,0.10508
6174.95665,0.10614
6176.88512,0.13414
6178.81358,0.14884
6180.74205,0.13141
6182.67052,0.11034
6184.59899,0.09889
6186.52746,0.13177
6188.45593,0.20085
6190.38440,0.22392
6192.31286,0.17558
6194.24133,0.11113
6196.16980,0.06024
6198.09827,0.01135
6200.02674,-0.01564
6201.95521,-0.00846
6203.88368,0.00640
6205.81215,0.01239
6207.74061,0.02952
6209.66908,0.05223
6211.59755,0.04787
6213.52602,0.04534
6215.45449,0.07474
6217.38296,0.10487
6219.31143,0.11178
6221.23989,0.09202
6223.16836,0.04415
6225.09683,0.01246
6227.02530,0.05280
6228.95377,0.12643
6230.88224,0.16825
6232.81071,0.19779
6234.73918,0.20823
6236.66764,0.17707
6238.59611,0.12689
6240.52458,0.06680
6242.45305,0.05579
6244.38152,0.10224
6246.30999,0.11335
6248.23846,0.09576
6250.16692,0.09802
6252.09539,0.10692
6254.02386,0.14425
6255.95233,0.20750
6257.88080,0.20025
6259.80927,0.12873
6261.73774,0.09259
6263.66621,0.10686
6265.59467,0.13468
6267.52314,0.14924
6269.45161,0.14455
6271.38008,0.16994
6273.30855,0.24626
6275.23702,0.24126
6277.16549,0.10956
6279.09395,0.03356
6281.02242,0.07370
6282.95089,0.10078
6284.87936,0.06806
6286.80783,0.07472
6288.73630,0.10330
6290.66477,0.08204
6292.59323,0.05548
6294.52170,0.05906
6296.45017,0.08568
6298.37864,0.12603
6300.30711,0.14587
6302.23558,0.08611
6304.16405,-0.01512
6306.09252,-0.04036
6308.02098,-0.00557
6309.94945,0.01002
6311.87792,0.00376
6313.80639,-0.02058
6315.73486,-0.03873
6317.66333,-0.02088
6319.59180,-0.01335
6321.52026,0.00635
6323.44873,0.12138
6325.37720,0.23176
6327.30567,0.22219
6329.23414,0.15588
6331.16261,0.11607
6333.09108,0.08764
6335.01955,0.05944
6336.94801,0.04842
6338.87648,0.03337
6340.80495,0.00845
6342.73342,0.02293
6344.66189,0.07818
6346.59036,0.12177
6348.51883,0.13389
6350.44729,0.14289
6352.37576,0.16929
6354.30423,0.18019
6356.23270,0.15101
6358.16117,0.11797
6360.08964,0.11054
6362.01811,0.08880
6363.94658,0.03080
6365.87504,-0.01389
6367.80351,-0.00458
6369.73198,0.02215
6371.66045,0.02198
6373.58892,0.03386
6375.51739,0.08625
6377.44586,0.10596
6379.37432,0.07086
6381.30279,0.06854
6383.23126,0.12537
6385.15973,0.13512
6387.08820,0.09790
6389.01667,0.10404
6390.94514,0.15918
6392.87361,0.17023
6394.80207,0.07895
6396.73054,0.02244
6398.65901,0.04669
6400.58748,0.04568
6402.51595,0.03729
6404.44442,0.08678
6406.37289,0.12356
6408.30135,0.12600
6410.22982,0.15046
6412.15829,0.17739
6414.08676,0.16642
6416.01523,0.12972
6417.94370,0.10055
6419.87217,0.09492
6421.80064,0.12446
6423.72910,0.14278
6425.65757,0.06101
6427.58604,-0.06105
6429.51451,-0.10000
6431.44298,-0.04710
6433.37145,0.02118
6435.29992,0.09644
6437.22838,0.21174
6439.15685,0.26194
6441.08532,0.18711
6443.01379,0.08903
6444.94226,0.06106
6446.87073,0.06627
6448.79920,0.05800
6450.72766,0.06747
6452.65613,0.08676
6454.58460,0.07668
6456.51307,0.05072
6458.44154,0.03336
6460.37001,0.02292
6462.29848,0.01450
6464.22695,0.02382
6466.15541,0.06064
6468.08388,0.10674
6470.01235,0.13304
6471.94082,0.09971
6473.86929,0.04489
6475.79776,0.05612
6477.72623,0.08023
6479.65469,0.04102
6481.58316,0.02177
6483.51163,0.09401
6485.44010,0.15478
6487.36857,0.10736
6489.29704,0.03679
6491.22551,0.02835
6493.15398,0.01600
6495.08244,-0.00160
6497.01091,0.02642
6498.93938,0.06575
6500.86785,0.08612
6502.79632,0.09033
6504.72479,0.10301
6506.65326,0.14238
6508.58172,0.19315
6510.51019,0.21763
6512.43866,0.16771
6514.36713,0.08800
6516.29560,0.05689
6518.22407,0.05619
6520.15254,0.07539
6522.08101,0.10840
6524.00947,0.11232
6525.93794,0.06881
6527.86641,-0.01422
6529.79488,-0.06630
6531.72335,-0.02695
6533.65182,0.04149
6535.58029,0.07701
6537.50875,0.07726
6539.43722,0.04565
6541.36569,-0.00031
6543.29416,-0.01948
6545.22263,-0.01282
6547.15110,-0.00639
6549.07957,0.03842
6551.00804,0.09859
6552.93650,0.10183
6554.86497,0.10536
6556.79344,0.11550
6558.72191,0.05120
6560.65038,-0.02076
6562.57885,0.00193
6564.50732,0.05915
6566.43578,0.08356
6568.36425,0.11104
6570.29272,0.14372
6572.22119,0.14815
6574.14966,0.12879
6576.07813,0.07434
6578.00660,0.03566
6579.93507,0.07725
6581.86353,0.11218
6583.79200,0.11859
6585.72047,0.13253
6587.64894,0.08790
6589.57741,-0.00228
6591.50588,-0.03714
6593.43435,-0.01893
6595.36281,-0.01753
6597.29128,-0.00133
6599.21975,0.03432
6601.14822,0.04202
6603.07669,0.03732
6605.00516,0.03405
6606.93363,0.04711
6608.86210,0.07395
6610.79056,0.05234
6612.71903,-0.02568
6614.64750,-0.04940
6616.57597,0.01234
6618.50444,0.05350
6620.43291,0.03915
6622.36138,0.02469
6624.28984,0.07631
6626.21831,0.15427
6628.14678,0.16924
6630.07525,0.14706
6632.00372,0.13738
6633.93219,0.11839
6635.86066,0.07282
6637.78912,0.03494
6639.71759,0.00350
6641.64606,-0.02627
6643.57453,0.01626
6645.50300,0.09862
6647.43147,0.10902
6649.35994,0.06507
6651.28841,0.02139
6653.21687,-0.00353
6655.14534,0.04141
6657.07381,0.19482
6659.00228,0.31545
6660.93075,0.26841
6662.85922,0.14460
6664.78769,0.04158
6666.71615,-0.02486
6668.64462,-0.03643
6670.57309,0.00241
6672.50156,0.07235
6674.43003,0.11638
6676.35850,0.09794
6678.28697,0.08178
6680.21544,0.05303
6682.14390,-0.00343
6684.07237,0.01899
6686.00084,0.10478
6687.92931,0.14578
6689.85778,0.09871
6691.78625,0.01613
6693.71472,-0.00539
6695.64318,0.01786
6697.57165,0.02909
6699.50012,0.07476
6701.42859,0.16918
6703.35706,0.23045
6705.28553,0.19425
6707.21400,0.08336
6709.14247,-0.00325
6711.07093,-0.02686
6712.99940,-0.01552
6714.92787,0.01386
6716.85634,0.06812
6718.78481,0.13808
6720.71328,0.15746
6722.64175,0.13244
6724.57021,0.10947
6726.49868,0.07366
6728.42715,0.04497
6730.35562,0.04382
6732.28409,0.09974
6734.21256,0.23329
6736.14103,0.31876
6738.06950,0.28866
6739.99796,0.23195
6741.92643,0.18512
6743.85490,0.12802
6745.78337,0.08814
6747.71184,0.08129
6749.64031,0.01409
6751.56878,-0.05772
6753.49724,0.01415
6755.42571,0.11581
6757.35418,0.14418
6759.28265,0.12501
6761.21112,0.07050
6763.13959,0.03438
6765.06806,0.05391
6766.99653,0.10211
6768.92499,0.12844
6770.85346,0.14754
6772.78193,0.18139
6774.71040,0.21570
6776.63887,0.23735
6778.56734,0.22149
6780.49581,0.15039
6782.42427,0.03857
6784.35274,-0.03213
6786.28121,0.01798
6788.20968,0.12187
6790.13815,0.13395
6792.06662,0.04843
6793.99509,-0.00916
6795.92355,0.00775
6797.85202,0.06579
6799.78049,0.12956
6801.70896,0.16346
6803.63743,0.09171
6805.56590,-0.04651
6807.49437,-0.10417
6809.42284,-0.04311
6811.35130,0.09904
6813.27977,0.23244
6815.20824,0.25858
6817.13671,0.13863
6819.06518,0.00426
6820.99365,-0.00897
6822.92212,0.06275
6824.85058,0.09363
6826.77905,0.07563
6828.70752,0.06966
6830.63599,0.13441
6832.56446,0.23788
6834.49293,0.25038
6836.42140,0.14715
6838.34987,0.05933
6840.27833,0.02252
6842.20680,0.03618
6844.13527,0.10829
6846.06374,0.15071
6847.99221,0.10291
6849.92068,0.05338
6851.84915,0.06533
6853.77761,0.07511
6855.70608,0.06695
6857.63455,0.08069
6859.56302,0.10856
6861.49149,0.09129
6863.41996,0.03143
6865.34843,-0.01730
6867.27690,-0.07935
6869.20536,-0.15776
6871.13383,-0.14981
6873.06230,0.02057
6874.99077,0.19366
6876.91924,0.20054
6878.84771,0.09067
6880.77618,-0.00511
6882.70464,-0.06450
6884.63311,-0.09217
6886.56158,-0.06065
6888.49005,-0.01590
6890.41852,-0.00886
6892.34699,-0.02972
6894.27546,0.00247
6896.20393,0.11368
6898.13239,0.11095
6900.06086,-0.01302
6901.98933,0.01908
6903.91780,0.18125
6905.84627,0.20298
6907.77474,0.09671
6909.70321,0.06956
6911.63167,0.13878
6913.56014,0.23329
6915.48861,0.25996
6917.41708,0.14613
6919.34555,0.02051
6921.27402,0.01851
6923.20249,0.02996
6925.13096,-0.01260
6927.05942,-0.07112
6928.98789,-0.01115
6930.91636,0.23031
6932.84483,0.33406
6934.77330,0.14188
6936.70177,-0.02995
6938.63024,-0.05205
6940.55870,-0.04596
6942.48717,-0.07151
6944.41564,-0.09577
6946.34411,-0.06903
6948.27258,0.02425
6950.20105,0.07575
6952.12952,0.02006
6954.05799,-0.12560
6955.98645,-0.21119
6957.91492,-0.11168
6959.84339,0.06941
6961.77186,0.22335
6963.70033,0.24592
6965.62880,0.19091
6967.55727,0.17192
6969.48573,0.10206
6971.41420,0.00911
6973.34267,0.10713
6975.27114,0.26668
6977.19961,0.25247
6979.12808,0.16076
6981.05655,0.08611
6982.98501,0.04595
6984.91348,0.05463
6986.84195,0.03770
6988.77042,0.00544
6990.69889,0.02348
6992.62736,0.01598
6994.55583,-0.04543
6996.48430,-0.11134
6998.41276,-0.15145
7000.34123,-0.14523
7002.26970,-0.05103
7004.19817,0.10633
7006.12664,0.19408
7008.05511,0.18403
7009.98358,0.16070
7011.91204,0.10329
7013.84051,0.05000
7015.76898,0.08148
7017.69745,0.15665
7019.62592,0.23204
7021.55439,0.25908
7023.48286,0.24310
7025.41133,0.27979
7027.33979,0.34262
7029.26826,0.19734
7031.19673,-0.06176
7033.12520,-0.07956
7035.05367,0.07945
7036.98214,0.10895
7038.91061,-0.00172
7040.83907,-0.15957
7042.76754,-0.18483
7044.69601,0.06738
7046.62448,0.25450
7048.55295,0.15262
7050.48142,0.03517
7052.40989,0.02451
7054.33836,0.06101
7056.26682,0.15934
7058.19529,0.24624
7060.12376,0.25190
7062.05223,0.23019
7063.98070,0.09338
7065.90917,-0.11812
7067.83764,-0.17011
7069.76610,-0.06069
7071.69457,-0.02782
7073.62304,-0.07385
7075.55151,-0.02915
7077.47998,0.09924
7079.40845,0.23691
7081.33692,0.25441
7083.26539,0.12409
7085.19385,0.02772
7087.12232,-0.01606
7089.05079,-0.08907
7090.97926,-0.16654
7092.90773,-0.16513
7094.83620,-0.08996
7096.76467,-0.02043
7098.69313,-0.02251
7100.62160,-0.07839
7102.55007,0.01075
7104.47854,0.27796
7106.40701,0.39712
7108.33548,0.26846
7110.26395,0.18317
7112.19242,0.17595
7114.12088,0.07954
7116.04935,-0.11549
7117.97782,-0.21208
7119.90629,-0.10262
7121.83476,0.01449
7123.76323,0.07991
7125.69170,0.14214
7127.62016,0.08803
7129.54863,-0.04619
7131.47710,0.02377
7133.40557,0.31432
7135.33404,0.47246
7137.26251,0.33345
7139.19098,0.10489
7141.11944,-0.06313
7143.04791,-0.21416
7144.97638,-0.20150
7146.90485,0.02760
7148.83332,0.16042
7150.76179,0.18037
7152.69026,0.25707
7154.61873,0.30192
7156.54719,0.17781
7158.47566,0.05363
7160.40413,0.08201
7162.33260,0.20899
7164.26107,0.29756
7166.18954,0.36126
7168.11801,0.34853
7170.04647,0.14763
7171.97494,0.00838
7173.90341,0.03216
7175.83188,-0.00859
7177.76035,-0.00987
7179.68882,0.10759
7181.61729,0.15543
7183.54576,0.10872
7185.47422,0.09511
7187.40269,0.12657
7189.33116,0.17111
7191.25963,0.22282
7193.18810,0.23778
7195.11657,0.19768
7197.04504,0.14251
7198.97350,0.06576
7200.90197,-0.04503
7202.83044,-0.06061
7204.75891,0.05347
7206.68738,0.02637
7208.61585,-0.07804
7210.54432,-0.09882
7212.47279,-0.06338
7214.40125,-0.03213
7216.32972,-0.03904
7218.25819,-0.06765
7220.18666,-0.04059
7222.11513,0.01674
7224.04360,0.02440
7225.97207,-0.11234
7227.90053,-0.17811
7229.82900,-0.05045
7231.75747,0.02246
7233.68594,0.08606
7235.61441,0.24894
7237.54288,0.25780
7239.47135,0.03168
7241.39982,-0.23330
7243.32828,-0.24450
7245.25675,0.01581
7247.18522,0.13723
7249.11369,0.06699
7251.04216,-0.08470
7252.97063,-0.24137
7254.89910,-0.16994
7256.82756,0.02533
7258.75603,0.16153
7260.68450,0.21988
7262.61297,0.17764
7264.54144,0.07613
7266.46991,0.10418
7268.39838,0.16496
7270.32685,0.12524
7272.25531,0.08648
7274.18378,0.06147
7276.11225,-0.01566
7278.04072,-0.09300
7279.96919,-0.05490
7281.89766,0.10106
7283.82613,0.19247
7285.75459,0.14451
7287.68306,0.01609
7289.61153,-0.02793
7291.54000,0.01945
7293.46847,0.03077
7295.39694,0.06358
7297.32541,0.17628
7299.25387,0.26730
7301.18234,0.23487
7303.11081,0.14297
7305.03928,0.14884
7306.96775,0.28232
7308.89622,0.44820
7310.82469,0.45993
7312.75316,0.30346
7314.68162,0.17188
7316.61009,0.19544
7318.53856,0.22049
7320.46703,0.13356
7322.39550,0.02748
7324.32397,-0.05527
7326.25244,-0.02041
7328.18090,0.18551
7330.10937,0.29146
7332.03784,0.14634
7333.96631,-0.00175
7335.89478,-0.04272
7337.82325,0.05306
7339.75172,0.29216
7341.68019,0.39277
7343.60865,0.35069
7345.53712,0.31624
7347.46559,0.31910
7349.39406,0.34327
7351.32253,0.25036
7353.25100,0.15616
7355.17947,0.18602
7357.10793,0.14960
7359.03640,0.02145
7360.96487,-0.08898
7362.89334,-0.17441
7364.82181,-0.11794
7366.75028,-0.02294
7368.67875,-0.06916
7370.60722,-0.17309
7372.53568,-0.21787
7374.46415,-0.25246
7376.39262,-0.32237
7378.32109,-0.33759
7380.24956,-0.25331
7382.17803,-0.16068
7384.10650,-0.18814
7386.03496,-0.22677
7387.96343,-0.16791
7389.89190,-0.09093
7391.82037,-0.00298
7393.74884,0.14667
7395.67731,0.32563
7397.60578,0.38119
7399.53425,0.31127
7401.46271,0.29221
7403.39118,0.31705
7405.31965,0.17291
7407.24812,-0.11374
7409.17659,-0.31084
7411.10506,-0.28012
7413.03353,-0.08473
7414.96199,0.03975
7416.89046,-0.05309
7418.81893,-0.20537
7420.74740,-0.12127
7422.67587,0.02254
7424.60434,0.02384
7426.53281,-0.00856
7428.46128,0.10860
7430.38974,0.32723
7432.31821,0.34912
7434.24668,0.11164
7436.17515,-0.17577
7438.10362,-0.20315
7440.03209,0.03273
7441.96056,0.23076
7443.88902,0.25583
7445.81749,0.19886
7447.74596,0.24035
7449.67443,0.44945
7451.60290,0.51335
7453.53137,0.32286
7455.45984,0.25963
7457.38831,0.32735
7459.31677,0.29721
7461.24524,0.10562
7463.17371,-0.04574
7465.10218,-0.09169
7467.03065,-0.04707
7468.95912,-0.00618
7470.88759,-0.12391
7472.81605,-0.25397
7474.74452,-0.13727
7476.67299,0.11163
7478.60146,0.30741
7480.52993,0.45578
7482.45840,0.47734
7484.38687,0.30095
7486.31533,0.11493
7488.24380,-0.03878
7490.17227,-0.16396
7492.10074,-0.13139
7494.02921,-0.02232
7495.95768,0.01640
7497.88615,-0.05310
