399.19301,1.71654
401.12148,0.48464
403.04995,0.09050
404.97842,-0.02900
406.90689,-0.06253
408.83536,-0.14125
410.76382,-0.18586
412.69229,-0.07743
414.62076,0.09383
416.54923,0.22146
418.47770,0.28566
420.40617,0.26198
422.33464,0.25140
424.26311,0.22844
426.19157,0.09756
428.12004,-0.04221
430.04851,-0.00890
431.97698,0.16618
433.90545,0.17883
435.83392,0.08896
437.76239,0.05211
439.69085,0.02684
441.61932,-0.02145
443.54779,-0.03786
445.47626,0.00471
447.40473,0.06325
449.33320,0.11048
451.26167,0.11841
453.19013,0.11013
455.11860,0.10522
457.04707,0.08517
458.97554,0.10747
460.90401,0.17551
462.83248,0.18213
464.76095,0.12561
466.68942,0.10165
468.61788,0.06159
470.54635,-0.05465
472.47482,-0.10583
474.40329,0.09441
476.33176,0.23860
478.26023,0.22262
480.18870,0.20747
482.11716,0.22167
484.04563,0.22614
485.97410,0.19486
487.90257,0.15777
489.83104,0.16280
491.75951,0.17421
493.68798,0.13979
495.61645,0.09326
497.54491,0.08444
499.47338,0.10385
501.40185,0.12547
503.33032,0.12274
505.25879,0.09948
507.18726,0.10088
509.11573,0.12747
511.04419,0.12643
512.97266,0.11334
514.90113,0.13173
516.82960,0.16241
518.75807,0.17166
520.68654,0.14710
522.61501,0.12001
524.54348,0.14166
526.47194,0.18851
528.40041,0.18292
530.32888,0.13156
532.25735,0.10305
534.18582,0.11178
536.11429,0.11724
538.04276,0.10701
539.97122,0.10726
541.89969,0.11629
543.82816,0.11651
545.75663,0.10561
547.68510,0.07517
549.61357,0.07756
551.54204,0.15509
553.47051,0.23131
555.39897,0.24127
557.32744,0.18392
559.25591,0.12803
561.18438,0.13626
563.11285,0.16605
565.04132,0.15209
566.96979,0.11529
568.89825,0.10247
570.82672,0.10772
572.75519,0.10965
574.68366,0.11769
576.61213,0.13675
578.54060,0.14675
580.46907,0.13799
582.39754,0.12868
584.32600,0.11959
586.25447,0.10424
588.18294,0.09779
590.11141,0.09541
592.03988,0.09531
593.96835,0.11332
595.89682,0.14478
597.82528,0.17185
599.75375,0.17497
601.68222,0.14105
603.61069,0.09505
605.53916,0.07770
607.46763,0.08402
609.39610,0.09165
611.32456,0.10134
613.25303,0.12074
615.18150,0.14322
617.10997,0.14991
619.03844,0.13787
620.96691,0.12279
622.89538,0.11278
624.82385,0.11574
626.75231,0.12870
628.68078,0.13380
630.60925,0.12723
632.53772,0.11890
634.46619,0.11758
636.39466,0.11696
638.32313,0.11449
640.25159,0.11957
642.18006,0.13059
644.10853,0.14076
646.03700,0.13922
647.96547,0.11371
649.89394,0.08524
651.82241,0.08982
653.75088,0.11190
655.67934,0.11549
657.60781,0.10692
659.53628,0.10678
661.46475,0.10884
663.39322,0.11880
665.32169,0.15217
667.25016,0.18323
669.17862,0.15165
671.10709,0.11746
673.03556,0.12118
674.96403,0.12869
676.89250,0.12517
678.82097,0.12113
680.74944,0.11733
682.67791,0.11117
684.60637,0.11093
686.53484,0.11746
688.46331,0.13226
690.39178,0.15275
692.32025,0.16043
694.24872,0.15294
696.17719,0.13977
698.10565,0.12930
700.03412,0.13154
701.96259,0.14157
703.89106,0.14764
705.81953,0.14680
707.74800,0.14316
709.67647,0.14381
711.60494,0.15301
713.53340,0.16161
715.46187,0.15877
717.39034,0.15318
719.31881,0.14964
721.24728,0.14039
723.17575,0.12895
725.10422,0.12477
727.03268,0.13219
728.96115,0.13915
730.88962,0.12735
732.81809,0.10922
734.74656,0.11061
736.67503,0.12663
738.60350,0.13408
740.53197,0.13091
742.46043,0.12937
744.38890,0.12899
746.31737,0.12848
748.24584,0.13287
750.17431,0.14063
752.10278,0.14547
754.03125,0.14265
755.95971,0.13527
757.88818,0.13704
759.81665,0.14282
761.74512,0.13653
763.67359,0.12429
765.60206,0.11733
767.53053,0.11959
769.45900,0.12374
771.38746,0.12252
773.31593,0.12845
775.24440,0.14062
777.17287,0.13901
779.10134,0.13267
781.02981,0.14080
782.95828,0.15130
784.88674,0.15175
786.81521,0.15052
788.74368,0.15242
790.67215,0.14913
792.60062,0.14146
794.52909,0.14037
796.45756,0.14113
798.38602,0.13355
800.31449,0.12222
802.24296,0.11541
804.17143,0.11757
806.09990,0.13211
808.02837,0.14703
809.95684,0.14175
811.88531,0.12633
813.81377,0.12320
815.74224,0.12845
817.67071,0.13191
819.59918,0.13430
821.52765,0.14057
823.45612,0.14824
825.38459,0.14706
827.31305,0.14080
829.24152,0.13434
831.16999,0.12784
833.09846,0.12688
835.02693,0.13197
836.95540,0.13957
838.88387,0.14583
840.81234,0.14782
842.74080,0.14383
844.66927,0.13746
846.59774,0.13359
848.52621,0.12906
850.45468,0.12698
852.38315,0.14229
854.31162,0.16708
856.24008,0.17292
858.16855,0.16376
860.09702,0.16005
862.02549,0.16249
863.95396,0.16038
865.88243,0.14949
867.81090,0.14408
869.73937,0.15415
871.66783,0.16690
873.59630,0.16825
875.52477,0.16226
877.45324,0.15227
879.38171,0.13307
881.31018,0.12063
883.23865,0.13046
885.16711,0.14129
887.09558,0.14053
889.02405,0.14717
890.95252,0.16170
892.88099,0.16811
894.80946,0.16414
896.73793,0.15209
898.66640,0.13933
900.59486,0.13617
902.52333,0.14405
904.45180,0.15805
906.38027,0.16330
908.30874,0.15494
910.23721,0.14784
912.16568,0.14372
914.09414,0.13730
916.02261,0.13610
917.95108,0.14460
919.87955,0.15380
921.80802,0.15397
923.73649,0.15034
925.66496,0.14866
927.59343,0.14360
929.52189,0.13917
931.45036,0.14296
933.37883,0.14800
935.30730,0.14831
937.23577,0.14862
939.16424,0.15044
941.09271,0.14577
943.02117,0.13656
944.94964,0.13677
946.87811,0.14667
948.80658,0.15168
950.73505,0.14766
952.66352,0.14651
954.59199,0.14980
956.52045,0.15096
958.44892,0.15261
960.37739,0.15064
962.30586,0.14596
964.23433,0.14692
966.16280,0.14771
968.09127,0.14663
970.01974,0.14937
971.94820,0.15502
973.87667,0.16229
975.80514,0.16532
977.73361,0.15638
979.66208,0.14292
981.59055,0.14031
983.51902,0.14844
985.44748,0.15507
987.37595,0.15478
989.30442,0.15062
991.23289,0.14665
993.16136,0.14467
995.08983,0.14298
997.01830,0.14152
998.94677,0.14350
1000.87523,0.14505
1002.80370,0.14297
1004.73217,0.14395
1006.66064,0.15011
1008.58911,0.15831
1010.51758,0.16534
1012.44605,0.16480
1014.37451,0.15771
1016.30298,0.15243
1018.23145,0.15185
1020.15992,0.15113
1022.08839,0.14674
1024.01686,0.14537
1025.94533,0.14624
1027.87380,0.13947
1029.80226,0.13196
1031.73073,0.13606
1033.65920,0.14413
1035.58767,0.14496
1037.51614,0.14281
1039.44461,0.14417
1041.37308,0.15133
1043.30154,0.16188
1045.23001,0.16919
1047.15848,0.17126
1049.08695,0.17207
1051.01542,0.17373
1052.94389,0.16978
1054.87236,0.16237
1056.80083,0.15734
1058.72929,0.15355
1060.65776,0.15971
1062.58623,0.17702
1064.51470,0.18716
1066.44317,0.18411
1068.37164,0.18116
1070.30011,0.18333
1072.22857,0.18537
1074.15704,0.18228
1076.08551,0.17636
1078.01398,0.17262
1079.94245,0.16548
1081.87092,0.15580
1083.79939,0.15288
1085.72786,0.15303
1087.65632,0.14870
1089.58479,0.14433
1091.51326,0.14741
1093.44173,0.15294
1095.37020,0.15078
1097.29867,0.14817
1099.22714,0.15756
1101.15560,0.17008
1103.08407,0.17532
1105.01254,0.18027
1106.94101,0.18808
1108.86948,0.18841
1110.79795,0.17855
1112.72642,0.17052
1114.65489,0.16832
1116.58335,0.16325
1118.51182,0.15862
1120.44029,0.16375
1122.36876,0.17087
1124.29723,0.16902
1126.22570,0.15972
1128.15417,0.15279
1130.08263,0.15351
1132.01110,0.15828
1133.93957,0.16045
1135.86804,0.15685
1137.79651,0.15521
1139.72498,0.15965
1141.65345,0.16479
1143.58191,0.16943
1145.51038,0.17268
1147.43885,0.16999
1149.36732,0.16271
1151.29579,0.15980
1153.22426,0.16395
1155.15273,0.16953
1157.08120,0.17199
1159.00966,0.17147
1160.93813,0.17331
1162.86660,0.17686
1164.79507,0.17387
1166.72354,0.16616
1168.65201,0.16032
1170.58048,0.15739
1172.50894,0.15863
1174.43741,0.16345
1176.36588,0.16727
1178.29435,0.16639
1180.22282,0.16335
1182.15129,0.16478
1184.07976,0.16799
1186.00823,0.16549
1187.93669,0.16146
1189.86516,0.16150
1191.79363,0.16227
1193.72210,0.16277
1195.65057,0.16540
1197.57904,0.16937
1199.50751,0.17073
1201.43597,0.16826
1203.36444,0.16715
1205.29291,0.16863
1207.22138,0.16782
1209.14985,0.16725
1211.07832,0.16985
1213.00679,0.17094
1214.93526,0.17036
1216.86372,0.16986
1218.79219,0.16784
1220.72066,0.16460
1222.64913,0.16321
1224.57760,0.16616
1226.50607,0.16987
1228.43454,0.17072
1230.36300,0.16997
1232.29147,0.16778
1234.21994,0.16712
1236.14841,0.17101
1238.07688,0.17407
1240.00535,0.17232
1241.93382,0.16765
1243.86229,0.16154
1245.79075,0.15620
1247.71922,0.15456
1249.64769,0.15713
1251.57616,0.16020
1253.50463,0.15995
1255.43310,0.15934
1257.36157,0.15983
1259.29003,0.15609
1261.21850,0.15042
1263.14697,0.15086
1265.07544,0.15416
1267.00391,0.15543
1268.93238,0.15879
1270.86085,0.16560
1272.78932,0.16885
1274.71778,0.16514
1276.64625,0.16237
1278.57472,0.16405
1280.50319,0.16236
1282.43166,0.15882
1284.36013,0.16112
1286.28860,0.16265
1288.21706,0.16028
1290.14553,0.16343
1292.07400,0.16903
1294.00247,0.16771
1295.93094,0.16207
1297.85941,0.15700
1299.78788,0.14926
1301.71634,0.13232
1303.64481,0.11401
1305.57328,0.11577
1307.50175,0.14047
1309.43022,0.16493
1311.35869,0.17362
1313.28716,0.17271
1315.21563,0.17266
1317.14409,0.17492
1319.07256,0.17397
1321.00103,0.16835
1322.92950,0.16337
1324.85797,0.15990
1326.78644,0.15761
1328.71491,0.15921
1330.64337,0.15988
1332.57184,0.15887
1334.50031,0.15884
1336.42878,0.15549
1338.35725,0.15215
1340.28572,0.14746
1342.21419,0.14245
1344.14266,0.14644
1346.07112,0.15227
1347.99959,0.15441
1349.92806,0.15559
1351.85653,0.15691
1353.78500,0.15926
1355.71347,0.16265
1357.64194,0.16771
1359.57040,0.17277
1361.49887,0.17662
1363.42734,0.17590
1365.35581,0.17045
1367.28428,0.16868
1369.21275,0.17083
1371.14122,0.17406
1373.06969,0.17973
1374.99815,0.18190
1376.92662,0.17816
1378.85509,0.17876
1380.78356,0.18429
1382.71203,0.18683
1384.64050,0.18759
1386.56897,0.19185
1388.49743,0.19380
1390.42590,0.19022
1392.35437,0.18782
1394.28284,0.18755
1396.21131,0.18757
1398.13978,0.18883
1400.06825,0.18998
1401.99672,0.18811
1403.92518,0.18337
1405.85365,0.17924
1407.78212,0.17902
1409.71059,0.18101
1411.63906,0.18158
1413.56753,0.18009
1415.49600,0.18045
1417.42446,0.18544
1419.35293,0.19051
1421.28140,0.19150
1423.20987,0.19004
1425.13834,0.18379
1427.06681,0.17856
1428.99528,0.18033
1430.92375,0.18397
1432.85221,0.18617
1434.78068,0.18765
1436.70915,0.18593
1438.63762,0.18285
1440.56609,0.18052
1442.49456,0.17719
1444.42303,0.17544
1446.35149,0.17911
1448.27996,0.18510
1450.20843,0.18582
1452.13690,0.18538
1454.06537,0.19442
1455.99384,0.21714
1457.92231,0.22893
1459.85077,0.21198
1461.77924,0.19902
1463.70771,0.19547
1465.63618,0.19384
1467.56465,0.19103
1469.49312,0.19205
1471.42159,0.19987
1473.35006,0.20875
1475.27852,0.21066
1477.20699,0.20787
1479.13546,0.20113
1481.06393,0.19277
1482.99240,0.18625
1484.92087,0.18656
1486.84934,0.19637
1488.77780,0.20758
1490.70627,0.20626
1492.63474,0.20044
1494.56321,0.20059
1496.49168,0.20472
1498.42015,0.20475
1500.34862,0.20386
1502.27709,0.21336
1504.20555,0.23564
1506.13402,0.26342
1508.06249,0.25500
1509.99096,0.22744
1511.91943,0.21228
1513.84790,0.21007
1515.77637,0.22072
1517.70483,0.23306
1519.63330,0.23866
1521.56177,0.24082
1523.49024,0.23830
1525.41871,0.23293
1527.34718,0.21986
1529.27565,0.20571
1531.20412,0.20265
1533.13258,0.20742
1535.06105,0.20908
1536.98952,0.21373
1538.91799,0.23309
1540.84646,0.24664
1542.77493,0.22884
1544.70340,0.21023
1546.63186,0.19866
1548.56033,0.19652
1550.48880,0.20105
1552.41727,0.20528
1554.34574,0.20979
1556.27421,0.22355
1558.20268,0.24700
1560.13115,0.23063
1562.05961,0.20471
1563.98808,0.19654
1565.91655,0.19740
1567.84502,0.20467
1569.77349,0.20824
1571.70196,0.20294
1573.63043,0.20458
1575.55889,0.20951
1577.48736,0.19958
1579.41583,0.18721
1581.34430,0.18289
1583.27277,0.18158
1585.20124,0.18049
1587.12971,0.18180
1589.05818,0.18365
1590.98664,0.18211
1592.91511,0.18118
1594.84358,0.18211
1596.77205,0.18007
1598.70052,0.17866
1600.62899,0.18108
1602.55746,0.18239
1604.48592,0.18228
1606.41439,0.18405
1608.34286,0.18484
1610.27133,0.18361
1612.19980,0.18515
1614.12827,0.19252
1616.05674,0.20504
1617.98521,0.20760
1619.91367,0.20009
1621.84214,0.19804
1623.77061,0.19957
1625.69908,0.19841
1627.62755,0.19762
1629.55602,0.19565
1631.48449,0.19417
1633.41295,0.20323
1635.34142,0.22133
1637.26989,0.21787
1639.19836,0.20305
1641.12683,0.19900
1643.05530,0.20672
1644.98377,0.22217
1646.91223,0.23186
1648.84070,0.22813
1650.76917,0.23340
1652.69764,0.24527
1654.62611,0.22743
1656.55458,0.21047
1658.48305,0.20739
1660.41152,0.20957
1662.33998,0.21243
1664.26845,0.21120
1666.19692,0.21017
1668.12539,0.21742
1670.05386,0.22240
1671.98233,0.21226
1673.91080,0.20381
1675.83926,0.20278
1677.76773,0.20601
1679.69620,0.21182
1681.62467,0.22088
1683.55314,0.23214
1685.48161,0.22925
1687.41008,0.21751
1689.33855,0.20828
1691.26701,0.20411
1693.19548,0.20955
1695.12395,0.22401
1697.05242,0.23576
1698.98089,0.23575
1700.90936,0.22562
1702.83783,0.21618
1704.76629,0.21395
1706.69476,0.21007
1708.62323,0.20316
1710.55170,0.19850
1712.48017,0.19650
1714.40864,0.20177
1716.33711,0.21265
1718.26558,0.20753
1720.19404,0.19499
1722.12251,0.19099
1724.05098,0.19015
1725.97945,0.18963
1727.90792,0.19274
1729.83639,0.19922
1731.76486,0.20761
1733.69332,0.21251
1735.62179,0.20446
1737.55026,0.19823
1739.47873,0.19905
1741.40720,0.20032
1743.33567,0.19964
1745.26414,0.20056
1747.19261,0.20448
1749.12107,0.20735
1751.04954,0.20156
1752.97801,0.19145
1754.90648,0.18844
1756.83495,0.19137
1758.76342,0.19452
1760.69189,0.19918
1762.62035,0.20152
1764.54882,0.19889
1766.47729,0.19870
1768.40576,0.20256
1770.33423,0.20793
1772.26270,0.20900
1774.19117,0.20089
1776.11964,0.19240
1778.04810,0.18929
1779.97657,0.19087
1781.90504,0.19420
1783.83351,0.19737
1785.76198,0.19697
1787.69045,0.19467
1789.61892,0.19892
1791.54738,0.20784
1793.47585,0.20896
1795.40432,0.20355
1797.33279,0.19916
1799.26126,0.19860
1801.18973,0.19800
1803.11820,0.19348
1805.04666,0.19156
1806.97513,0.19390
1808.90360,0.19719
1810.83207,0.19865
1812.76054,0.19619
1814.68901,0.19379
1816.61748,0.19688
1818.54595,0.20533
1820.47441,0.20899
1822.40288,0.20332
1824.33135,0.19769
1826.25982,0.19778
1828.18829,0.20037
1830.11676,0.19937
1832.04523,0.19189
1833.97369,0.18480
1835.90216,0.18184
1837.83063,0.18291
1839.75910,0.18695
1841.68757,0.19324
1843.61604,0.19947
1845.54451,0.19955
1847.47298,0.19704
1849.40144,0.19674
1851.32991,0.19430
1853.25838,0.18909
1855.18685,0.18533
1857.11532,0.18458
1859.04379,0.18729
1860.97226,0.19145
1862.90072,0.19311
1864.82919,0.19383
1866.75766,0.19793
1868.68613,0.20086
1870.61460,0.19505
1872.54307,0.18783
1874.47154,0.18546
1876.40001,0.18647
1878.32847,0.18847
1880.25694,0.19049
1882.18541,0.19132
1884.11388,0.19032
1886.04235,0.19000
1887.97082,0.19295
1889.89929,0.19399
1891.82775,0.18927
1893.75622,0.18590
1895.68469,0.18676
1897.61316,0.18812
1899.54163,0.18869
1901.47010,0.18918
1903.39857,0.18925
1905.32704,0.19036
1907.25550,0.19378
1909.18397,0.19464
1911.11244,0.19061
1913.04091,0.18658
1914.96938,0.18635
1916.89785,0.19007
1918.82632,0.19319
1920.75478,0.19331
1922.68325,0.19130
1924.61172,0.18748
1926.54019,0.18707
1928.46866,0.19013
1930.39713,0.19062
1932.32560,0.19016
1934.25407,0.19142
1936.18253,0.19088
1938.11100,0.18929
1940.03947,0.19180
1941.96794,0.19669
1943.89641,0.19609
1945.82488,0.19133
1947.75335,0.18929
1949.68181,0.19024
1951.61028,0.19093
1953.53875,0.19009
1955.46722,0.18959
1957.39569,0.19004
1959.32416,0.19075
1961.25263,0.19182
1963.18110,0.19157
1965.10956,0.19024
1967.03803,0.18965
1968.96650,0.18893
1970.89497,0.18847
1972.82344,0.18988
1974.75191,0.19159
1976.68038,0.19153
1978.60884,0.19076
1980.53731,0.18958
1982.46578,0.18817
1984.39425,0.18891
1986.32272,0.19060
1988.25119,0.19111
1990.17966,0.19151
1992.10812,0.19082
1994.03659,0.18874
1995.96506,0.18734
1997.89353,0.18683
1999.82200,0.18808
2001.75047,0.19046
2003.67894,0.19164
2005.60741,0.19274
2007.53587,0.19411
2009.46434,0.19352
2011.39281,0.19186
2013.32128,0.19136
2015.24975,0.19135
2017.17822,0.19068
2019.10669,0.19001
2021.03515,0.18947
2022.96362,0.18798
2024.89209,0.18707
2026.82056,0.18816
2028.74903,0.18941
2030.67750,0.18939
2032.60597,0.18790
2034.53444,0.18550
2036.46290,0.18483
2038.39137,0.18716
2040.31984,0.18891
2042.24831,0.18811
2044.17678,0.18725
2046.10525,0.18686
2048.03372,0.18658
2049.96218,0.18764
2051.89065,0.18923
2053.81912,0.18938
2055.74759,0.18888
2057.67606,0.18719
2059.60453,0.18366
2061.53300,0.18244
2063.46147,0.18545
2065.38993,0.18935
2067.31840,0.19086
2069.24687,0.19021
2071.17534,0.19019
2073.10381,0.19229
2075.03228,0.19448
2076.96075,0.19436
2078.88921,0.19256
2080.81768,0.19060
2082.74615,0.18901
2084.67462,0.18708
2086.60309,0.18468
2088.53156,0.18410
2090.46003,0.18643
2092.38850,0.19004
2094.31696,0.19246
2096.24543,0.19239
2098.17390,0.19071
2100.10237,0.18882
2102.03084,0.18995
2103.95931,0.19334
2105.88778,0.19239
2107.81624,0.18858
2109.74471,0.18830
2111.67318,0.19101
2113.60165,0.19203
2115.53012,0.18929
2117.45859,0.18692
2119.38706,0.18798
2121.31553,0.19077
2123.24399,0.19387
2125.17246,0.19545
2127.10093,0.19509
2129.02940,0.19424
2130.95787,0.19303
2132.88634,0.19188
2134.81481,0.18981
2136.74327,0.18690
2138.67174,0.18747
2140.60021,0.19069
2142.52868,0.19079
2144.45715,0.18865
2146.38562,0.18839
2148.31409,0.18882
2150.24255,0.18856
2152.17102,0.18930
2154.09949,0.19108
2156.02796,0.19238
2157.95643,0.19202
2159.88490,0.19115
2161.81337,0.19177
2163.74184,0.19304
2165.67030,0.19428
2167.59877,0.19523
2169.52724,0.19557
2171.45571,0.19652
2173.38418,0.19704
2175.31265,0.19550
2177.24112,0.19382
2179.16958,0.19303
2181.09805,0.19218
2183.02652,0.19132
2184.95499,0.19014
2186.88346,0.18781
2188.81193,0.18561
2190.74040,0.18571
2192.66887,0.18771
2194.59733,0.18965
2196.52580,0.19070
2198.45427,0.19132
2200.38274,0.19082
2202.31121,0.18827
2204.23968,0.18654
2206.16815,0.18765
2208.09661,0.18964
2210.02508,0.19135
2211.95355,0.19294
2213.88202,0.19359
2215.81049,0.19270
2217.73896,0.19202
2219.66743,0.19282
2221.59590,0.19352
2223.52436,0.19332
2225.45283,0.19300
2227.38130,0.19315
2229.30977,0.19445
2231.23824,0.19564
2233.16671,0.19458
2235.09518,0.19183
2237.02364,0.18957
2238.95211,0.18986
2240.88058,0.19089
2242.80905,0.18952
2244.73752,0.18758
2246.66599,0.18713
2248.59446,0.18785
2250.52293,0.18855
2252.45139,0.18830
2254.37986,0.18885
2256.30833,0.19018
2258.23680,0.18917
2260.16527,0.18730
2262.09374,0.18826
2264.02221,0.19184
2265.95067,0.19576
2267.87914,0.19731
2269.80761,0.19662
2271.73608,0.19587
2273.66455,0.19524
2275.59302,0.19308
2277.52149,0.19027
2279.44996,0.19019
2281.37842,0.19218
2283.30689,0.19484
2285.23536,0.19845
2287.16383,0.20071
2289.09230,0.19936
2291.02077,0.19459
2292.94924,0.18815
2294.87770,0.18271
2296.80617,0.18034
2298.73464,0.18287
2300.66311,0.18956
2302.59158,0.19495
2304.52005,0.19682
2306.44852,0.19652
2308.37699,0.19342
2310.30545,0.18858
2312.23392,0.18613
2314.16239,0.18848
2316.09086,0.19261
2318.01933,0.19506
2319.94780,0.19657
2321.87627,0.19678
2323.80473,0.19399
2325.73320,0.19426
2327.66167,0.20345
2329.59014,0.21327
2331.51861,0.21178
2333.44708,0.20699
2335.37555,0.21358
2337.30401,0.21858
2339.23248,0.21046
2341.16095,0.20516
2343.08942,0.20194
2345.01789,0.19083
2346.94636,0.18341
2348.87483,0.18352
2350.80330,0.18817
2352.73176,0.19689
2354.66023,0.20413
2356.58870,0.20598
2358.51717,0.19806
2360.44564,0.18304
2362.37411,0.18950
2364.30258,0.21117
2366.23104,0.21792
2368.15951,0.21184
2370.08798,0.20552
2372.01645,0.20248
2373.94492,0.19946
2375.87339,0.19584
2377.80186,0.19554
2379.73033,0.19738
2381.65879,0.19683
2383.58726,0.19339
2385.51573,0.19045
2387.44420,0.19106
2389.37267,0.19276
2391.30114,0.19153
2393.22961,0.19041
2395.15807,0.19266
2397.08654,0.19406
2399.01501,0.19259
2400.94348,0.19177
2402.87195,0.19196
2404.80042,0.19014
2406.72889,0.18674
2408.65736,0.18615
2410.58582,0.18879
2412.51429,0.19065
2414.44276,0.19095
2416.37123,0.19109
2418.29970,0.19148
2420.22817,0.19200
2422.15664,0.19147
2424.08510,0.19059
2426.01357,0.19114
2427.94204,0.19090
2429.87051,0.18887
2431.79898,0.18894
2433.72745,0.19138
2435.65592,0.19237
2437.58439,0.19126
2439.51285,0.18969
2441.44132,0.18890
2443.36979,0.19015
2445.29826,0.19330
2447.22673,0.19545
2449.15520,0.19529
2451.08367,0.19545
2453.01213,0.19760
2454.94060,0.19895
2456.86907,0.19593
2458.79754,0.19099
2460.72601,0.18940
2462.65448,0.19079
2464.58295,0.19149
2466.51142,0.19098
2468.43988,0.19116
2470.36835,0.19195
2472.29682,0.19204
2474.22529,0.19124
2476.15376,0.19052
2478.08223,0.19129
2480.01070,0.19319
2481.93916,0.19459
2483.86763,0.19554
2485.79610,0.19578
2487.72457,0.19360
2489.65304,0.18950
2491.58151,0.18620
2493.50998,0.18665
2495.43844,0.19103
2497.36691,0.19446
2499.29538,0.19361
2501.22385,0.19053
2503.15232,0.18826
2505.08079,0.18798
2507.00926,0.18866
2508.93773,0.18950
2510.86619,0.19184
2512.79466,0.19495
2514.72313,0.19532
2516.65160,0.19325
2518.58007,0.19217
2520.50854,0.19281
2522.43701,0.19329
2524.36547,0.19247
2526.29394,0.19116
2528.22241,0.19077
2530.15088,0.19129
2532.07935,0.19100
2534.00782,0.19101
2535.93629,0.19348
2537.86476,0.19544
2539.79322,0.19517
2541.72169,0.19484
2543.65016,0.19522
2545.57863,0.19633
2547.50710,0.19620
2549.43557,0.19367
2551.36404,0.19129
2553.29250,0.18979
2555.22097,0.18872
2557.14944,0.18884
2559.07791,0.19141
2561.00638,0.19461
2562.93485,0.19373
2564.86332,0.18999
2566.79179,0.18827
2568.72025,0.18947
2570.64872,0.19280
2572.57719,0.19700
2574.50566,0.19979
2576.43413,0.19983
2578.36260,0.19637
2580.29107,0.19098
2582.21953,0.18782
2584.14800,0.18798
2586.07647,0.19017
2588.00494,0.19204
2589.93341,0.19200
2591.86188,0.19258
2593.79035,0.19346
2595.71882,0.19313
2597.64728,0.19300
2599.57575,0.19270
2601.50422,0.19229
2603.43269,0.19251
2605.36116,0.19295
2607.28963,0.19391
2609.21810,0.19631
2611.14656,0.19947
2613.07503,0.19902
2615.00350,0.19461
2616.93197,0.19306
2618.86044,0.19514
2620.78891,0.19619
2622.71738,0.19652
2624.64585,0.19734
2626.57431,0.19837
2628.50278,0.19842
2630.43125,0.19702
2632.35972,0.19651
2634.28819,0.19727
2636.21666,0.19791
2638.14513,0.19786
2640.07359,0.19794
2642.00206,0.19946
2643.93053,0.20058
2645.85900,0.19882
2647.78747,0.19498
2649.71594,0.19173
2651.64441,0.19246
2653.57288,0.19651
2655.50134,0.19834
2657.42981,0.19829
2659.35828,0.19961
2661.28675,0.19991
2663.21522,0.19851
2665.14369,0.19838
2667.07216,0.20036
2669.00062,0.20119
2670.92909,0.19795
2672.85756,0.19428
2674.78603,0.19577
2676.71450,0.20109
2678.64297,0.20480
2680.57144,0.20574
2682.49990,0.20498
2684.42837,0.20271
2686.35684,0.20038
2688.28531,0.19922
2690.21378,0.19912
2692.14225,0.19903
2694.07072,0.19775
2695.99919,0.19709
2697.92765,0.19973
2699.85612,0.20279
2701.78459,0.20226
2703.71306,0.19992
2705.64153,0.19863
2707.57000,0.19700
2709.49847,0.19401
2711.42693,0.19319
2713.35540,0.19564
2715.28387,0.19818
2717.21234,0.19928
2719.14081,0.19853
2721.06928,0.19657
2722.99775,0.19594
2724.92622,0.19762
2726.85468,0.20066
2728.78315,0.20370
2730.71162,0.20593
2732.64009,0.20685
2734.56856,0.20525
2736.49703,0.20316
2738.42550,0.20353
2740.35396,0.20493
2742.28243,0.20581
2744.21090,0.20447
2746.13937,0.20166
2748.06784,0.20172
2749.99631,0.20342
2751.92478,0.20333
2753.85325,0.20179
2755.78171,0.20125
2757.71018,0.20437
2759.63865,0.20857
2761.56712,0.20754
2763.49559,0.20103
2765.42406,0.19549
2767.35253,0.19499
2769.28099,0.19698
2771.20946,0.19877
2773.13793,0.20072
2775.06640,0.20096
2776.99487,0.19842
2778.92334,0.19838
2780.85181,0.20217
2782.78028,0.20383
2784.70874,0.20247
2786.63721,0.20059
2788.56568,0.19787
2790.49415,0.19642
2792.42262,0.19787
2794.35109,0.19963
2796.27956,0.20125
2798.20802,0.20281
2800.13649,0.20281
2802.06496,0.20348
2803.99343,0.20552
2805.92190,0.20617
2807.85037,0.20640
2809.77884,0.20835
2811.70731,0.21086
2813.63577,0.21126
2815.56424,0.20915
2817.49271,0.20625
2819.42118,0.20405
2821.34965,0.20411
2823.27812,0.20621
2825.20659,0.20700
2827.13505,0.20495
2829.06352,0.20290
2830.99199,0.20350
2832.92046,0.20590
2834.84893,0.20760
2836.77740,0.20962
2838.70587,0.21359
2840.63433,0.21497
2842.56280,0.21245
2844.49127,0.21174
2846.41974,0.21330
2848.34821,0.21179
2850.27668,0.20532
2852.20515,0.19863
2854.13362,0.19672
2856.06208,0.19780
2857.99055,0.19844
2859.91902,0.19926
2861.84749,0.20130
2863.77596,0.20455
2865.70443,0.20764
2867.63290,0.20719
2869.56136,0.20415
2871.48983,0.20380
2873.41830,0.20631
2875.34677,0.20705
2877.27524,0.20568
2879.20371,0.20404
2881.13218,0.20248
2883.06065,0.20165
2884.98911,0.20152
2886.91758,0.20367
2888.84605,0.20659
2890.77452,0.20593
2892.70299,0.20220
2894.63146,0.19756
2896.55993,0.19789
2898.48839,0.20424
2900.41686,0.20895
2902.34533,0.20981
2904.27380,0.20785
2906.20227,0.20535
2908.13074,0.20421
2910.05921,0.20179
2911.98768,0.20011
2913.91614,0.19899
2915.84461,0.19373
2917.77308,0.19261
2919.70155,0.20011
2921.63002,0.20487
2923.55849,0.20079
2925.48696,0.19181
2927.41542,0.18925
2929.34389,0.19682
2931.27236,0.20325
2933.20083,0.20243
2935.12930,0.19434
2937.05777,0.18573
2938.98624,0.19010
2940.91471,0.20271
2942.84317,0.20801
2944.77164,0.20214
2946.70011,0.19026
2948.62858,0.18734
2950.55705,0.19840
2952.48552,0.20677
2954.41399,0.20258
2956.34245,0.18847
2958.27092,0.17999
2960.19939,0.19175
2962.12786,0.20938
2964.05633,0.21410
2965.98480,0.20534
2967.91327,0.19247
2969.84174,0.19093
2971.77020,0.20319
2973.69867,0.21332
2975.62714,0.20816
2977.55561,0.19328
2979.48408,0.18751
2981.41255,0.19524
2983.34102,0.20332
2985.26948,0.20229
2987.19795,0.19492
2989.12642,0.19645
2991.05489,0.20970
2992.98336,0.21680
2994.91183,0.21358
2996.84030,0.21067
2998.76877,0.21251
3000.69723,0.21436
3002.62570,0.21037
3004.55417,0.20276
3006.48264,0.19470
3008.41111,0.18770
3010.33958,0.17891
3012.26805,0.15871
3014.19651,0.12391
3016.12498,0.09498
3018.05345,0.10932
3019.98192,0.16201
3021.91039,0.20487
3023.83886,0.21985
3025.76733,0.21689
3027.69579,0.20588
3029.62426,0.20204
3031.55273,0.20928
3033.48120,0.21541
3035.40967,0.21543
3037.33814,0.21445
3039.26661,0.21643
3041.19508,0.21697
3043.12354,0.21164
3045.05201,0.20437
3046.98048,0.20065
3048.90895,0.20282
3050.83742,0.20648
3052.76589,0.20682
3054.69436,0.20182
3056.62282,0.19313
3058.55129,0.19242
3060.47976,0.20243
3062.40823,0.20945
3064.33670,0.20215
3066.26517,0.18694
3068.19364,0.18666
3070.12211,0.20434
3072.05057,0.21563
3073.97904,0.20739
3075.90751,0.19486
3077.83598,0.19835
3079.76445,0.21076
3081.69292,0.21213
3083.62139,0.19619
3085.54985,0.17877
3087.47832,0.18163
3089.40679,0.19756
3091.33526,0.20737
3093.26373,0.20259
3095.19220,0.19355
3097.12067,0.19836
3099.04914,0.20996
3100.97760,0.21268
3102.90607,0.20197
3104.83454,0.19329
3106.76301,0.20200
3108.69148,0.21406
3110.61995,0.21174
3112.54842,0.19954
3114.47688,0.19768
3116.40535,0.20793
3118.33382,0.20996
3120.26229,0.19814
3122.19076,0.18901
3124.11923,0.19567
3126.04770,0.20824
3127.97617,0.21224
3129.90463,0.20846
3131.83310,0.20818
3133.76157,0.21654
3135.69004,0.22473
3137.61851,0.22196
3139.54698,0.21190
3141.47545,0.21023
3143.40391,0.21832
3145.33238,0.22431
3147.26085,0.22456
3149.18932,0.22469
3151.11779,0.22804
3153.04626,0.22934
3154.97473,0.22517
3156.90320,0.21995
3158.83166,0.21659
3160.76013,0.21332
3162.68860,0.21282
3164.61707,0.21760
3166.54554,0.21932
3168.47401,0.21624
3170.40248,0.21645
3172.33094,0.21682
3174.25941,0.21296
3176.18788,0.21066
3178.11635,0.21248
3180.04482,0.21529
3181.97329,0.21549
3183.90176,0.21165
3185.83022,0.21140
3187.75869,0.21940
3189.68716,0.22497
3191.61563,0.22308
3193.54410,0.21931
3195.47257,0.21662
3197.40104,0.21457
3199.32951,0.21288
3201.25797,0.21437
3203.18644,0.21740
3205.11491,0.21905
3207.04338,0.22153
3208.97185,0.22172
3210.90032,0.22008
3212.82879,0.22369
3214.75725,0.22512
3216.68572,0.21710
3218.61419,0.21099
3220.54266,0.21256
3222.47113,0.21528
3224.39960,0.21347
3226.32807,0.20958
3228.25654,0.21098
3230.18500,0.21362
3232.11347,0.21118
3234.04194,0.21026
3235.97041,0.21636
3237.89888,0.22400
3239.82735,0.22520
3241.75582,0.21897
3243.68428,0.21195
3245.61275,0.20922
3247.54122,0.20717
3249.46969,0.20274
3251.39816,0.20009
3253.32663,0.20191
3255.25510,0.20579
3257.18357,0.20954
3259.11203,0.21349
3261.04050,0.21461
3262.96897,0.20988
3264.89744,0.20576
3266.82591,0.20761
3268.75438,0.21090
3270.68285,0.21126
3272.61131,0.21059
3274.53978,0.21235
3276.46825,0.21598
3278.39672,0.22044
3280.32519,0.22493
3282.25366,0.22552
3284.18213,0.22365
3286.11060,0.22063
3288.03906,0.21385
3289.96753,0.21044
3291.89600,0.21262
3293.82447,0.21117
3295.75294,0.20590
3297.68141,0.20315
3299.60988,0.20443
3301.53834,0.20411
3303.46681,0.19948
3305.39528,0.19807
3307.32375,0.20332
3309.25222,0.20900
3311.18069,0.21097
3313.10916,0.21178
3315.03763,0.21315
3316.96609,0.21402
3318.89456,0.21721
3320.82303,0.22145
3322.75150,0.21912
3324.67997,0.21351
3326.60844,0.21286
3328.53691,0.21550
3330.46537,0.21676
3332.39384,0.21523
3334.32231,0.21200
3336.25078,0.20968
3338.17925,0.20889
3340.10772,0.21001
3342.03619,0.21319
3343.96466,0.21544
3345.89312,0.21649
3347.82159,0.21631
3349.75006,0.21427
3351.67853,0.21483
3353.60700,0.21902
3355.53547,0.22194
3357.46394,0.22121
3359.39240,0.21970
3361.32087,0.21814
3363.24934,0.21510
3365.17781,0.21455
3367.10628,0.21774
3369.03475,0.21814
3370.96322,0.21307
3372.89168,0.21073
3374.82015,0.21699
3376.74862,0.22494
3378.67709,0.22742
3380.60556,0.22510
3382.53403,0.21987
3384.46250,0.21412
3386.39097,0.21207
3388.31943,0.21248
3390.24790,0.21277
3392.17637,0.21322
3394.10484,0.21250
3396.03331,0.21105
3397.96178,0.21078
3399.89025,0.21343
3401.81871,0.21544
3403.74718,0.21183
3405.67565,0.20946
3407.60412,0.21302
3409.53259,0.21530
3411.46106,0.21279
3413.38953,0.20857
3415.31800,0.20738
3417.24646,0.20950
3419.17493,0.21001
3421.10340,0.21054
3423.03187,0.21297
3424.96034,0.21207
3426.88881,0.20881
3428.81728,0.20926
3430.74574,0.21150
3432.67421,0.20880
3434.60268,0.20222
3436.53115,0.19850
3438.45962,0.20057
3440.38809,0.20641
3442.31656,0.21023
3444.24503,0.21226
3446.17349,0.21718
3448.10196,0.21433
3450.03043,0.20223
3451.95890,0.19981
3453.88737,0.20425
3455.81584,0.20019
3457.74431,0.19195
3459.67277,0.19053
3461.60124,0.19502
3463.52971,0.19721
3465.45818,0.19562
3467.38665,0.19784
3469.31512,0.20484
3471.24359,0.20583
3473.17206,0.19724
3475.10052,0.18946
3477.02899,0.18988
3478.95746,0.19253
3480.88593,0.19075
3482.81440,0.18855
3484.74287,0.18980
3486.67134,0.19267
3488.59980,0.19524
3490.52827,0.19506
3492.45674,0.19050
3494.38521,0.18590
3496.31368,0.18769
3498.24215,0.19332
3500.17062,0.19685
3502.09909,0.19681
3504.02755,0.19263
3505.95602,0.18780
3507.88449,0.18566
3509.81296,0.18367
3511.74143,0.18095
3513.66990,0.17923
3515.59837,0.17929
3517.52683,0.18232
3519.45530,0.18566
3521.38377,0.18700
3523.31224,0.18926
3525.24071,0.19182
3527.16918,0.19225
3529.09765,0.19180
3531.02611,0.18960
3532.95458,0.18471
3534.88305,0.17993
3536.81152,0.17497
3538.73999,0.17177
3540.66846,0.17672
3542.59693,0.18444
3544.52540,0.18550
3546.45386,0.18194
3548.38233,0.17971
3550.31080,0.17990
3552.23927,0.18009
3554.16774,0.17756
3556.09621,0.17497
3558.02468,0.17515
3559.95314,0.17481
3561.88161,0.17447
3563.81008,0.18120
3565.73855,0.19227
3567.66702,0.18845
3569.59549,0.17084
3571.52396,0.16096
3573.45243,0.15910
3575.38089,0.15848
3577.30936,0.15910
3579.23783,0.16326
3581.16630,0.16824
3583.09477,0.16942
3585.02324,0.16822
3586.95171,0.16703
3588.88017,0.16369
3590.80864,0.16254
3592.73711,0.16501
3594.66558,0.16350
3596.59405,0.15800
3598.52252,0.15619
3600.45099,0.15644
3602.37946,0.15498
3604.30792,0.15354
3606.23639,0.15409
3608.16486,0.15595
3610.09333,0.15943
3612.02180,0.16664
3613.95027,0.17013
3615.87874,0.16308
3617.80720,0.15781
3619.73567,0.15959
3621.66414,0.15847
3623.59261,0.15732
3625.52108,0.15901
3627.44955,0.16204
3629.37802,0.16303
3631.30649,0.16007
3633.23495,0.15665
3635.16342,0.14942
3637.09189,0.14095
3639.02036,0.13714
3640.94883,0.13915
3642.87730,0.14669
3644.80577,0.15690
3646.73423,0.16946
3648.66270,0.17975
3650.59117,0.16674
3652.51964,0.15170
3654.44811,0.15129
3656.37658,0.15254
3658.30505,0.14614
3660.23352,0.13978
3662.16198,0.13776
3664.09045,0.13745
3666.01892,0.13704
3667.94739,0.14116
3669.87586,0.14819
3671.80433,0.14875
3673.73280,0.15222
3675.66126,0.15914
3677.58973,0.15150
3679.51820,0.13770
3681.44667,0.13104
3683.37514,0.13257
3685.30361,0.13877
3687.23208,0.14980
3689.16055,0.16125
3691.08901,0.16057
3693.01748,0.15150
3694.94595,0.14238
3696.87442,0.13656
3698.80289,0.13600
3700.73136,0.13994
3702.65983,0.14308
3704.58829,0.14141
3706.51676,0.13988
3708.44523,0.14235
3710.37370,0.14427
3712.30217,0.13670
3714.23064,0.13044
3716.15911,0.13314
3718.08757,0.13644
3720.01604,0.13649
3721.94451,0.13978
3723.87298,0.14506
3725.80145,0.14338
3727.72992,0.13743
3729.65839,0.13609
3731.58686,0.14157
3733.51532,0.15174
3735.44379,0.15847
3737.37226,0.15329
3739.30073,0.14588
3741.22920,0.14304
3743.15767,0.14208
3745.08614,0.14311
3747.01460,0.15066
3748.94307,0.16441
3750.87154,0.16889
3752.80001,0.14965
3754.72848,0.13467
3756.65695,0.13009
3758.58542,0.13067
3760.51389,0.13308
3762.44235,0.13441
3764.37082,0.13678
3766.29929,0.14017
3768.22776,0.14425
3770.15623,0.14366
3772.08470,0.13391
3774.01317,0.12756
3775.94163,0.12800
3777.87010,0.13046
3779.79857,0.13101
3781.72704,0.12731
3783.65551,0.12503
3785.58398,0.12681
3787.51245,0.12754
3789.44092,0.12513
3791.36938,0.12218
3793.29785,0.12037
3795.22632,0.11936
3797.15479,0.12012
3799.08326,0.12990
3801.01173,0.15013
3802.94020,0.15743
3804.86866,0.15085
3806.79713,0.14512
3808.72560,0.13831
3810.65407,0.13313
3812.58254,0.12986
3814.51101,0.12787
3816.43948,0.13387
3818.36795,0.14334
3820.29641,0.14090
3822.22488,0.12832
3824.15335,0.12673
3826.08182,0.13453
3828.01029,0.13805
3829.93876,0.13229
3831.86723,0.12360
3833.79569,0.12104
3835.72416,0.13251
3837.65263,0.15006
3839.58110,0.14941
3841.50957,0.13574
3843.43804,0.12482
3845.36651,0.11830
3847.29498,0.11812
3849.22344,0.12547
3851.15191,0.13663
3853.08038,0.14199
3855.00885,0.13798
3856.93732,0.13454
3858.86579,0.13297
3860.79426,0.13440
3862.72272,0.13416
3864.65119,0.12738
3866.57966,0.12606
3868.50813,0.13637
3870.43660,0.14439
3872.36507,0.13895
3874.29354,0.12953
3876.22200,0.12084
3878.15047,0.11515
3880.07894,0.11582
3882.00741,0.12450
3883.93588,0.13417
3885.86435,0.13380
3887.79282,0.12461
3889.72129,0.11983
3891.64975,0.12030
3893.57822,0.12149
3895.50669,0.12251
3897.43516,0.12324
3899.36363,0.12720
3901.29210,0.13152
3903.22057,0.12376
3905.14903,0.11404
3907.07750,0.11280
3909.00597,0.11236
3910.93444,0.11112
3912.86291,0.11079
3914.79138,0.11045
3916.71985,0.11067
3918.64832,0.11194
3920.57678,0.11094
3922.50525,0.10884
3924.43372,0.10940
3926.36219,0.11092
3928.29066,0.11225
3930.21913,0.11413
3932.14760,0.11316
3934.07606,0.10805
3936.00453,0.10569
3937.93300,0.10789
3939.86147,0.11013
3941.78994,0.11113
3943.71841,0.10886
3945.64688,0.10602
3947.57535,0.10822
3949.50381,0.11127
3951.43228,0.11255
3953.36075,0.11476
3955.28922,0.11646
3957.21769,0.11728
3959.14616,0.11792
3961.07463,0.11450
3963.00309,0.10850
3964.93156,0.10940
3966.86003,0.11441
3968.78850,0.11304
3970.71697,0.10918
3972.64544,0.11225
3974.57391,0.11767
3976.50238,0.11570
3978.43084,0.10711
3980.35931,0.09982
3982.28778,0.09935
3984.21625,0.10333
3986.14472,0.10630
3988.07319,0.10484
3990.00166,0.09888
3991.93012,0.09350
3993.85859,0.09393
3995.78706,0.10054
3997.71553,0.10641
3999.64400,0.10457
4001.57247,0.09954
4003.50094,0.09851
4005.42941,0.09936
4007.35787,0.10073
4009.28634,0.10475
4011.21481,0.10760
4013.14328,0.10659
4015.07175,0.10468
4017.00022,0.10254
4018.92869,0.09966
4020.85715,0.09834
4022.78562,0.09813
4024.71409,0.09536
4026.64256,0.09100
4028.57103,0.08962
4030.49950,0.09268
4032.42797,0.09514
4034.35644,0.09424
4036.28490,0.09796
4038.21337,0.10525
4040.14184,0.10694
4042.07031,0.10739
4043.99878,0.10889
4045.92725,0.10840
4047.85572,0.10780
4049.78418,0.10504
4051.71265,0.09998
4053.64112,0.09673
4055.56959,0.09420
4057.49806,0.09125
4059.42653,0.09026
4061.35500,0.09019
4063.28346,0.08983
4065.21193,0.09257
4067.14040,0.09823
4069.06887,0.10143
4070.99734,0.10123
4072.92581,0.10222
4074.85428,0.10294
4076.78275,0.10007
4078.71121,0.09762
4080.63968,0.09501
4082.56815,0.09069
4084.49662,0.09121
4086.42509,0.09568
4088.35356,0.09626
4090.28203,0.09237
4092.21049,0.08723
4094.13896,0.08621
4096.06743,0.09148
4097.99590,0.09510
4099.92437,0.09424
4101.85284,0.09295
4103.78131,0.09037
4105.70978,0.08841
4107.63824,0.09218
4109.56671,0.09825
4111.49518,0.09923
4113.42365,0.09266
4115.35212,0.08498
4117.28059,0.08379
4119.20906,0.08594
4121.13752,0.08711
4123.06599,0.08681
4124.99446,0.08322
4126.92293,0.08028
4128.85140,0.08479
4130.77987,0.09160
4132.70834,0.09338
4134.63681,0.09468
4136.56527,0.09619
4138.49374,0.09266
4140.42221,0.08646
4142.35068,0.08360
4144.27915,0.08664
4146.20762,0.08661
4148.13609,0.07812
4150.06455,0.07253
4151.99302,0.07423
4153.92149,0.08043
4155.84996,0.08683
4157.77843,0.08478
4159.70690,0.07987
4161.63537,0.08090
4163.56384,0.08136
4165.49230,0.08100
4167.42077,0.08452
4169.34924,0.08485
4171.27771,0.07892
4173.20618,0.07796
4175.13465,0.08641
4177.06312,0.09193
4178.99158,0.08765
4180.92005,0.08302
4182.84852,0.08568
4184.77699,0.08957
4186.70546,0.08663
4188.63393,0.08127
4190.56240,0.07783
4192.49087,0.07452
4194.41933,0.07612
4196.34780,0.08385
4198.27627,0.08691
4200.20474,0.07953
4202.13321,0.07169
4204.06168,0.07008
4205.99015,0.07081
4207.91861,0.07166
4209.84708,0.07250
4211.77555,0.07462
4213.70402,0.07611
4215.63249,0.07385
4217.56096,0.07219
4219.48943,0.07291
4221.41789,0.07431
4223.34636,0.07653
4225.27483,0.07739
4227.20330,0.07684
4229.13177,0.07716
4231.06024,0.07696
4232.98871,0.07477
4234.91718,0.07161
4236.84564,0.06905
4238.77411,0.07037
4240.70258,0.07554
4242.63105,0.07824
4244.55952,0.07890
4246.48799,0.07899
4248.41646,0.07436
4250.34492,0.07031
4252.27339,0.06828
4254.20186,0.06169
4256.13033,0.05771
4258.05880,0.06332
4259.98727,0.06883
4261.91574,0.06607
4263.84421,0.06366
4265.77267,0.06660
4267.70114,0.06405
4269.62961,0.05595
4271.55808,0.05297
4273.48655,0.05518
4275.41502,0.05874
4277.34349,0.06171
4279.27195,0.06391
4281.20042,0.06339
4283.12889,0.05794
4285.05736,0.05590
4286.98583,0.06157
4288.91430,0.06609
4290.84277,0.06400
4292.77124,0.05954
4294.69970,0.05928
4296.62817,0.06196
4298.55664,0.06195
4300.48511,0.05844
4302.41358,0.05417
4304.34205,0.05280
4306.27052,0.05664
4308.19898,0.06163
4310.12745,0.06044
4312.05592,0.05622
4313.98439,0.05713
4315.91286,0.05814
4317.84133,0.05311
4319.76980,0.04999
4321.69827,0.05254
4323.62673,0.05285
4325.55520,0.04876
4327.48367,0.04651
4329.41214,0.04899
4331.34061,0.05268
4333.26908,0.05420
4335.19755,0.05354
4337.12601,0.05167
4339.05448,0.04807
4340.98295,0.04311
4342.91142,0.04017
4344.83989,0.04115
4346.76836,0.04736
4348.69683,0.05652
4350.62530,0.05923
4352.55376,0.05440
4354.48223,0.04883
4356.41070,0.04219
4358.33917,0.03623
4360.26764,0.03625
4362.19611,0.03639
4364.12458,0.03187
4366.05304,0.03348
4367.98151,0.04374
4369.90998,0.04734
4371.83845,0.04253
4373.76692,0.04184
4375.69539,0.04701
4377.62386,0.04967
4379.55232,0.04386
4381.48079,0.03477
4383.40926,0.03093
4385.33773,0.03285
4387.26620,0.03465
4389.19467,0.03243
4391.12314,0.02961
4393.05161,0.02835
4394.98007,0.03019
4396.90854,0.03585
4398.83701,0.03873
4400.76548,0.03627
4402.69395,0.03546
4404.62242,0.04032
4406.55089,0.04359
4408.47935,0.04140
4410.40782,0.03980
4412.33629,0.03927
4414.26476,0.03843
4416.19323,0.03963
4418.12170,0.04057
4420.05017,0.04092
4421.97864,0.04183
4423.90710,0.03599
4425.83557,0.02225
4427.76404,0.01765
4429.69251,0.03256
4431.62098,0.04915
4433.54945,0.05023
4435.47792,0.04554
4437.40638,0.04161
4439.33485,0.03261
4441.26332,0.02588
4443.19179,0.02335
4445.12026,0.01652
4447.04873,0.01412
4448.97720,0.02236
4450.90567,0.03031
4452.83413,0.03255
4454.76260,0.02914
4456.69107,0.02134
4458.61954,0.01594
4460.54801,0.01301
4462.47648,0.00907
4464.40495,0.01084
4466.33341,0.01980
4468.26188,0.02529
4470.19035,0.02442
4472.11882,0.02736
4474.04729,0.03690
4475.97576,0.04062
4477.90423,0.03310
4479.83270,0.02702
4481.76116,0.03175
4483.68963,0.04055
4485.61810,0.04061
4487.54657,0.03007
4489.47504,0.02465
4491.40351,0.03129
4493.33198,0.03478
4495.26044,0.02851
4497.18891,0.02286
4499.11738,0.02259
4501.04585,0.02352
4502.97432,0.02175
4504.90279,0.01685
4506.83126,0.01529
4508.75973,0.02164
4510.68819,0.03189
4512.61666,0.03980
4514.54513,0.04088
4516.47360,0.03962
4518.40207,0.03702
4520.33054,0.02531
4522.25901,0.00867
4524.18747,0.00199
4526.11594,0.00953
4528.04441,0.01612
4529.97288,0.01492
4531.90135,0.01763
4533.82982,0.02223
4535.75829,0.02168
4537.68676,0.02130
4539.61522,0.02197
4541.54369,0.02052
4543.47216,0.01964
4545.40063,0.02080
4547.32910,0.02349
4549.25757,0.02827
4551.18604,0.03112
4553.11450,0.03039
4555.04297,0.03104
4556.97144,0.02999
4558.89991,0.02552
4560.82838,0.02339
4562.75685,0.02058
4564.68532,0.01194
4566.61378,-0.00040
4568.54225,-0.00742
4570.47072,-0.00388
4572.39919,-0.00131
4574.32766,-0.00365
4576.25613,0.00201
4578.18460,0.01421
4580.11307,0.02108
4582.04153,0.01918
4583.97000,0.01807
4585.89847,0.02824
4587.82694,0.03503
4589.75541,0.02440
4591.68388,0.01001
4593.61235,0.00417
4595.54081,0.00582
4597.46928,0.01313
4599.39775,0.01973
4601.32622,0.01882
4603.25469,0.01832
4605.18316,0.02686
4607.11163,0.03520
4609.04010,0.03067
4610.96856,0.01989
4612.89703,0.01835
4614.82550,0.02459
4616.75397,0.02462
4618.68244,0.01489
4620.61091,0.01047
4622.53938,0.01731
4624.46784,0.02439
4626.39631,0.02109
4628.32478,0.00902
4630.25325,0.00522
4632.18172,0.00971
4634.11019,0.01096
4636.03866,0.01739
4637.96713,0.03081
4639.89559,0.03493
4641.82406,0.02276
4643.75253,0.00800
4645.68100,0.00246
4647.60947,0.00281
4649.53794,0.00782
4651.46641,0.01611
4653.39487,0.01885
4655.32334,0.01635
4657.25181,0.01777
4659.18028,0.02183
4661.10875,0.01944
4663.03722,0.01191
4664.96569,0.00461
4666.89416,0.00207
4668.82262,0.00775
4670.75109,0.01109
4672.67956,0.01007
4674.60803,0.01591
4676.53650,0.01696
4678.46497,0.00210
4680.39344,-0.00948
4682.32190,-0.00646
4684.25037,0.00248
4686.17884,0.01462
4688.10731,0.02587
4690.03578,0.02782
4691.96425,0.02070
4693.89272,0.00959
4695.82119,-0.00225
4697.74965,-0.01046
4699.67812,-0.00703
4701.60659,0.00209
4703.53506,0.00497
4705.46353,0.00384
4707.39200,0.00277
4709.32047,0.00491
4711.24893,0.01108
4713.17740,0.01547
4715.10587,0.01394
4717.03434,0.00534
4718.96281,-0.00359
4720.89128,-0.00153
4722.81975,0.00634
4724.74821,0.01060
4726.67668,0.01245
4728.60515,0.00548
4730.53362,-0.00900
4732.46209,-0.01075
4734.39056,0.00403
4736.31903,0.01481
4738.24750,0.01400
4740.17596,0.01424
4742.10443,0.01428
4744.03290,0.00744
4745.96137,0.00694
4747.88984,0.01371
4749.81831,0.01530
4751.74678,0.01611
4753.67524,0.01629
4755.60371,0.01219
4757.53218,0.01175
4759.46065,0.01647
4761.38912,0.01912
4763.31759,0.01483
4765.24606,0.00478
4767.17453,-0.00804
4769.10299,-0.01679
4771.03146,-0.00998
4772.95993,0.01207
4774.88840,0.02870
4776.81687,0.02651
4778.74534,0.01660
4780.67381,0.00877
4782.60227,0.00707
4784.53074,0.01346
4786.45921,0.01828
4788.38768,0.01490
4790.31615,0.00944
4792.24462,0.00634
4794.17309,0.00600
4796.10156,0.00872
4798.03002,0.00589
4799.95849,-0.00287
4801.88696,-0.00511
4803.81543,-0.00160
4805.74390,0.00047
4807.67237,0.00464
4809.60084,0.01163
4811.52930,0.00977
4813.45777,0.00305
4815.38624,0.00901
4817.31471,0.01939
4819.24318,0.01679
4821.17165,0.00886
4823.10012,0.00706
4825.02859,0.00747
4826.95705,0.00613
4828.88552,0.00445
4830.81399,0.00637
4832.74246,0.01043
4834.67093,0.01121
4836.59940,0.00944
4838.52787,0.00186
4840.45633,-0.00591
4842.38480,-0.00282
4844.31327,0.00394
4846.24174,0.01218
4848.17021,0.02740
4850.09868,0.03920
4852.02715,0.03975
4853.95562,0.03602
4855.88408,0.03077
4857.81255,0.02430
4859.74102,0.01757
4861.66949,0.01134
4863.59796,0.00849
4865.52643,0.00643
4867.45490,0.00107
4869.38336,-0.00778
4871.31183,-0.01182
4873.24030,-0.00257
4875.16877,0.00919
4877.09724,0.01306
4879.02571,0.01578
4880.95418,0.01660
4882.88265,0.00426
4884.81111,-0.01008
4886.73958,-0.00610
4888.66805,0.00699
4890.59652,0.00942
4892.52499,0.00149
4894.45346,-0.00068
4896.38193,0.01030
4898.31039,0.01700
4900.23886,0.00861
4902.16733,0.00144
4904.09580,0.00389
4906.02427,0.01074
4907.95274,0.02163
4909.88121,0.02845
4911.80967,0.02018
4913.73814,0.00543
4915.66661,-0.00274
4917.59508,-0.00459
4919.52355,-0.00343
4921.45202,0.00474
4923.38049,0.01367
4925.30896,0.01047
4927.23742,0.00540
4929.16589,0.00867
4931.09436,0.01412
4933.02283,0.01663
4934.95130,0.01053
4936.87977,-0.00142
4938.80824,-0.00680
4940.73670,-0.00162
4942.66517,0.00816
4944.59364,0.01356
4946.52211,0.01111
4948.45058,0.00078
4950.37905,-0.01203
4952.30752,-0.00903
4954.23599,0.01164
4956.16445,0.02961
4958.09292,0.03220
4960.02139,0.01899
4961.94986,0.00396
4963.87833,-0.00631
4965.80680,-0.01171
4967.73527,-0.00185
4969.66373,0.00528
4971.59220,-0.00836
4973.52067,-0.01566
4975.44914,-0.00042
4977.37761,0.01586
4979.30608,0.01996
4981.23455,0.02045
4983.16302,0.02277
4985.09148,0.01998
4987.01995,0.00950
4988.94842,0.00606
4990.87689,0.01838
4992.80536,0.02816
4994.73383,0.02436
4996.66230,0.02093
4998.59076,0.02313
5000.51923,0.01832
5002.44770,0.00382
5004.37617,-0.00444
5006.30464,0.00227
5008.23311,0.01425
5010.16158,0.01750
5012.09005,0.01018
5014.01851,0.00440
5015.94698,0.00393
5017.87545,0.00546
5019.80392,0.00816
5021.73239,0.00936
5023.66086,0.01213
5025.58933,0.01963
5027.51779,0.02578
5029.44626,0.02691
5031.37473,0.02321
5033.30320,0.02320
5035.23167,0.03064
5037.16014,0.02787
5039.08861,0.01808
5041.01708,0.01820
5042.94554,0.01644
5044.87401,0.00374
5046.80248,-0.00800
5048.73095,-0.00833
5050.65942,0.00233
5052.58789,0.01616
5054.51636,0.02332
5056.44482,0.01897
5058.37329,0.00093
5060.30176,-0.01998
5062.23023,-0.02340
5064.15870,-0.00696
5066.08717,0.01583
5068.01564,0.02434
5069.94410,0.02002
5071.87257,0.02011
5073.80104,0.02300
5075.72951,0.02327
5077.65798,0.02024
5079.58645,0.02153
5081.51492,0.02471
5083.44339,0.01842
5085.37185,0.01708
5087.30032,0.02819
5089.22879,0.03755
5091.15726,0.03829
5093.08573,0.03157
5095.01420,0.02705
5096.94267,0.03103
5098.87113,0.03721
5100.79960,0.03836
5102.72807,0.02837
5104.65654,0.01353
5106.58501,0.00705
5108.51348,0.01450
5110.44195,0.03221
5112.37042,0.03823
5114.29888,0.01810
5116.22735,-0.00475
5118.15582,-0.00210
5120.08429,0.01448
5122.01276,0.01722
5123.94123,0.01040
5125.86970,0.01028
5127.79816,0.01198
5129.72663,0.00975
5131.65510,0.01135
5133.58357,0.02075
5135.51204,0.03696
5137.44051,0.05292
5139.36898,0.05796
5141.29745,0.04631
5143.22591,0.02022
5145.15438,0.00024
5147.08285,0.00180
5149.01132,0.01861
5150.93979,0.03776
5152.86826,0.04365
5154.79673,0.03327
5156.72519,0.02186
5158.65366,0.01911
5160.58213,0.02299
5162.51060,0.03612
5164.43907,0.05217
5166.36754,0.05210
5168.29601,0.03472
5170.22448,0.02008
5172.15294,0.02420
5174.08141,0.03945
5176.00988,0.05723
5177.93835,0.06980
5179.86682,0.05268
5181.79529,0.01876
5183.72376,0.01919
5185.65222,0.04902
5187.58069,0.06550
5189.50916,0.07120
5191.43763,0.07259
5193.36610,0.05732
5195.29457,0.04002
5197.22304,0.03402
5199.15151,0.03097
5201.07997,0.03434
5203.00844,0.03929
5204.93691,0.03304
5206.86538,0.03288
5208.79385,0.04448
5210.72232,0.04417
5212.65079,0.04018
5214.57925,0.04513
5216.50772,0.04572
5218.43619,0.04273
5220.36466,0.05650
5222.29313,0.07549
5224.22160,0.08213
5226.15007,0.08519
5228.07854,0.07811
5230.00700,0.05554
5231.93547,0.03865
5233.86394,0.03147
5235.79241,0.01973
5237.72088,0.01304
5239.64935,0.01997
5241.57782,0.02618
5243.50628,0.03181
5245.43475,0.03939
5247.36322,0.04089
5249.29169,0.04264
5251.22016,0.05312
5253.14863,0.06815
5255.07710,0.07580
5257.00556,0.06764
5258.93403,0.05897
5260.86250,0.06593
5262.79097,0.07203
5264.71944,0.06345
5266.64791,0.05391
5268.57638,0.04847
5270.50485,0.03778
5272.43331,0.01365
5274.36178,-0.00883
5276.29025,-0.00729
5278.21872,0.00894
5280.14719,0.01622
5282.07566,0.02005
5284.00413,0.03543
5285.93259,0.05923
5287.86106,0.07718
5289.78953,0.07225
5291.71800,0.05299
5293.64647,0.04524
5295.57494,0.04313
5297.50341,0.03248
5299.43188,0.01901
5301.36034,0.01315
5303.28881,0.02311
5305.21728,0.04638
5307.14575,0.05682
5309.07422,0.04432
5311.00269,0.03244
5312.93116,0.03130
5314.85962,0.02694
5316.78809,0.01607
5318.71656,0.01854
5320.64503,0.03245
5322.57350,0.03662
5324.50197,0.02967
5326.43044,0.01880
5328.35891,0.01170
5330.28737,0.02385
5332.21584,0.05624
5334.14431,0.08782
5336.07278,0.09400
5338.00125,0.07153
5339.92972,0.04969
5341.85819,0.03847
5343.78665,0.02507
5345.71512,0.02299
5347.64359,0.03496
5349.57206,0.04663
5351.50053,0.05985
5353.42900,0.07697
5355.35747,0.08732
5357.28594,0.08215
5359.21440,0.06463
5361.14287,0.05162
5363.07134,0.06434
5364.99981,0.08469
5366.92828,0.08119
5368.85675,0.07484
5370.78522,0.08264
5372.71368,0.09024
5374.64215,0.09269
5376.57062,0.07914
5378.49909,0.05890
5380.42756,0.05825
5382.35603,0.06010
5384.28450,0.04569
5386.21297,0.02621
5388.14143,0.01992
5390.06990,0.02910
5391.99837,0.04016
5393.92684,0.04209
5395.85531,0.04075
5397.78378,0.05082
5399.71225,0.06858
5401.64071,0.07001
5403.56918,0.06085
5405.49765,0.06722
5407.42612,0.07371
5409.35459,0.05826
5411.28306,0.03737
5413.21153,0.02834
5415.13999,0.03060
5417.06846,0.04253
5418.99693,0.05728
5420.92540,0.06600
5422.85387,0.06132
5424.78234,0.05197
5426.71081,0.05764
5428.63928,0.06435
5430.56774,0.05107
5432.49621,0.04104
5434.42468,0.04642
5436.35315,0.05178
5438.28162,0.06067
5440.21009,0.07373
5442.13856,0.06617
5444.06702,0.04467
5445.99549,0.04813
5447.92396,0.07554
5449.85243,0.08250
5451.78090,0.06207
5453.70937,0.03747
5455.63784,0.02378
5457.56631,0.04028
5459.49477,0.06368
5461.42324,0.04810
5463.35171,0.01343
5465.28018,0.00828
5467.20865,0.03552
5469.13712,0.06692
5471.06559,0.08504
5472.99405,0.09434
5474.92252,0.09578
5476.85099,0.08346
5478.77946,0.06777
5480.70793,0.06486
5482.63640,0.07697
5484.56487,0.09447
5486.49334,0.10582
5488.42180,0.09879
5490.35027,0.07058
5492.27874,0.04110
5494.20721,0.03837
5496.13568,0.05488
5498.06415,0.06482
5499.99262,0.06905
5501.92108,0.08606
5503.84955,0.11159
5505.77802,0.11366
5507.70649,0.08298
5509.63496,0.05391
5511.56343,0.04234
5513.49190,0.03904
5515.42037,0.04021
5517.34883,0.04822
5519.27730,0.06418
5521.20577,0.07441
5523.13424,0.06658
5525.06271,0.05433
5526.99118,0.05360
5528.91965,0.05297
5530.84811,0.04071
5532.77658,0.03859
5534.70505,0.06539
5536.63352,0.08858
5538.56199,0.07119
5540.49046,0.03909
5542.41893,0.02999
5544.34740,0.03628
5546.27586,0.04013
5548.20433,0.03731
5550.13280,0.03212
5552.06127,0.04183
5553.98974,0.06930
5555.91821,0.09059
5557.84668,0.08881
5559.77514,0.07197
5561.70361,0.06164
5563.63208,0.06606
5565.56055,0.06871
5567.48902,0.06815
5569.41749,0.07400
5571.34596,0.08098
5573.27443,0.09303
5575.20289,0.10645
5577.13136,0.10305
5579.05983,0.08720
5580.98830,0.08386
5582.91677,0.09867
5584.84524,0.10102
5586.77371,0.08096
5588.70217,0.06066
5590.63064,0.06172
5592.55911,0.07859
5594.48758,0.08823
5596.41605,0.09104
5598.34452,0.08946
5600.27299,0.07290
5602.20145,0.05137
5604.12992,0.04701
5606.05839,0.06461
5607.98686,0.07953
5609.91533,0.07122
5611.84380,0.06780
5613.77227,0.08496
5615.70074,0.07671
5617.62920,0.04731
5619.55767,0.03919
5621.48614,0.04433
5623.41461,0.06418
5625.34308,0.09051
5627.27155,0.08415
5629.20002,0.06474
5631.12848,0.06181
5633.05695,0.07103
5634.98542,0.08990
5636.91389,0.08230
5638.84236,0.04687
5640.77083,0.04853
5642.69930,0.08402
5644.62777,0.11051
5646.55623,0.11519
5648.48470,0.10592
5650.41317,0.10471
5652.34164,0.12017
5654.27011,0.15139
5656.19858,0.17195
5658.12705,0.15103
5660.05551,0.10426
5661.98398,0.06889
5663.91245,0.05865
5665.84092,0.05544
5667.76939,0.04215
5669.69786,0.02137
5671.62633,0.02622
5673.55480,0.07079
5675.48326,0.09880
5677.41173,0.07996
5679.34020,0.05980
5681.26867,0.06818
5683.19714,0.09629
5685.12561,0.11336
5687.05408,0.09092
5688.98254,0.05056
5690.91101,0.03423
5692.83948,0.04054
5694.76795,0.05765
5696.69642,0.08236
5698.62489,0.09125
5700.55336,0.07910
5702.48183,0.07195
5704.41029,0.06852
5706.33876,0.06510
5708.26723,0.06907
5710.19570,0.06081
5712.12417,0.04532
5714.05264,0.06857
5715.98111,0.12029
5717.90957,0.14034
5719.83804,0.11501
5721.76651,0.08430
5723.69498,0.07688
5725.62345,0.08243
5727.55192,0.08414
5729.48039,0.08324
5731.40886,0.09179
5733.33732,0.11267
5735.26579,0.12108
5737.19426,0.10595
5739.12273,0.09836
5741.05120,0.09358
5742.97967,0.06961
5744.90814,0.04624
5746.83660,0.03558
5748.76507,0.03209
5750.69354,0.03901
5752.62201,0.05343
5754.55048,0.06396
5756.47895,0.06846
5758.40742,0.07506
5760.33588,0.08245
5762.26435,0.08405
5764.19282,0.07947
5766.12129,0.06813
5768.04976,0.07022
5769.97823,0.10831
5771.90670,0.14952
5773.83517,0.14185
5775.76363,0.10734
5777.69210,0.08700
5779.62057,0.07013
5781.54904,0.05569
5783.47751,0.05431
5785.40598,0.05260
5787.33445,0.04764
5789.26291,0.04662
5791.19138,0.04357
5793.11985,0.03796
5795.04832,0.03834
5796.97679,0.04236
5798.90526,0.04429
5800.83373,0.04195
5802.76220,0.03435
5804.69066,0.03841
5806.61913,0.05922
5808.54760,0.05806
5810.47607,0.03730
5812.40454,0.05018
5814.33301,0.09173
5816.26148,0.11160
5818.18994,0.10333
5820.11841,0.09974
5822.04688,0.09592
5823.97535,0.08047
5825.90382,0.09466
5827.83229,0.12365
5829.76076,0.11476
5831.68923,0.09602
5833.61769,0.09242
5835.54616,0.08131
5837.47463,0.07849
5839.40310,0.10874
5841.33157,0.14211
5843.26004,0.13737
5845.18851,0.09628
5847.11697,0.05477
5849.04544,0.05189
5850.97391,0.06892
5852.90238,0.07135
5854.83085,0.08103
5856.75932,0.07925
5858.68779,0.03478
5860.61626,0.00177
5862.54472,0.02449
5864.47319,0.06731
5866.40166,0.09586
5868.33013,0.11486
5870.25860,0.13465
5872.18707,0.15085
5874.11554,0.13083
5876.04400,0.08075
5877.97247,0.05584
5879.90094,0.07275
5881.82941,0.12014
5883.75788,0.15440
5885.68635,0.14327
5887.61482,0.09633
5889.54329,0.03552
5891.47175,0.00269
5893.40022,0.02339
5895.32869,0.08319
5897.25716,0.12869
5899.18563,0.12961
5901.11410,0.11676
5903.04257,0.10461
5904.97103,0.09048
5906.89950,0.08401
5908.82797,0.08123
5910.75644,0.07325
5912.68491,0.07305
5914.61338,0.09361
5916.54185,0.12089
5918.47032,0.12913
5920.39878,0.11287
5922.32725,0.09412
5924.25572,0.09043
5926.18419,0.10482
5928.11266,0.11192
5930.04113,0.07652
5931.96960,0.02462
5933.89806,0.00674
5935.82653,0.03942
5937.75500,0.10611
5939.68347,0.15862
5941.61194,0.17316
5943.54041,0.15793
5945.46888,0.12557
5947.39734,0.12036
5949.32581,0.15419
5951.25428,0.18136
5953.18275,0.16645
5955.11122,0.10872
5957.03969,0.04289
5958.96816,0.00820
5960.89663,0.01616
5962.82509,0.02339
5964.75356,0.00595
5966.68203,-0.00405
5968.61050,0.00991
5970.53897,0.04281
5972.46744,0.07787
5974.39591,0.08788
5976.32437,0.07262
5978.25284,0.06184
5980.18131,0.09445
5982.10978,0.14411
5984.03825,0.14211
5985.96672,0.11603
5987.89519,0.10794
5989.82366,0.10228
5991.75212,0.11037
5993.68059,0.12342
5995.60906,0.12857
5997.53753,0.12172
5999.46600,0.08595
6001.39447,0.05858
6003.32294,0.07393
6005.25140,0.09027
6007.17987,0.05978
6009.10834,0.01683
6011.03681,0.02096
6012.96528,0.06286
6014.89375,0.09849
6016.82222,0.10211
6018.75069,0.07438
6020.67915,0.04998
6022.60762,0.05743
6024.53609,0.07509
6026.46456,0.07708
6028.39303,0.09336
6030.32150,0.15012
6032.24997,0.20492
6034.17843,0.20943
6036.10690,0.15118
6038.03537,0.07340
6039.96384,0.03667
6041.89231,0.05270
6043.82078,0.08898
6045.74925,0.09900
6047.67772,0.10780
6049.60618,0.14657
6051.53465,0.15263
6053.46312,0.12051
6055.39159,0.11898
6057.32006,0.13711
6059.24853,0.11911
6061.17700,0.08606
6063.10546,0.05874
6065.03393,0.02764
6066.96240,0.04029
6068.89087,0.08295
6070.81934,0.07393
6072.74781,0.02916
6074.67628,0.02125
6076.60475,0.05681
6078.53321,0.08673
6080.46168,0.09609
6082.39015,0.10098
6084.31862,0.10785
6086.24709,0.11166
6088.17556,0.09943
6090.10403,0.07280
6092.03249,0.02946
6093.96096,-0.00227
6095.88943,0.01930
6097.81790,0.05672
6099.74637,0.08496
6101.67484,0.11929
6103.60331,0.12477
6105.53177,0.08090
6107.46024,0.03629
6109.38871,0.04596
6111.31718,0.10383
6113.24565,0.14864
6115.17412,0.13563
6117.10259,0.07907
6119.03106,0.03790
6120.95952,0.04570
6122.88799,0.07975
6124.81646,0.12223
6126.74493,0.14998
6128.67340,0.14305
6130.60187,0.13075
6132.53034,0.12595
6134.45880,0.09564
6136.38727,0.04176
6138.31574,0.00708
6140.24421,0.02949
6142.17268,0.10823
6144.10115,0.16554
6146.02962,0.12906
6147.95809,0.04790
6149.88655,0.00936
6151.81502,0.02309
6153.74349,0.05747
6155.67196,0.09391
6157.60043,0.10948
6159.52890,0.09948
6161.45737,0.06862
6163.38583,0.03924
6165.31430,0.03892
6167.24277,0.03679
6169.17124,0.02198
6171.09971,0.04527
6173.02818,0.11350
6174.95665,0.15931
6176.88512,0.14655
6178.81358,0.09977
6180.74205,0.05763
6182.67052,0.05704
6184.59899,0.09052
6186.52746,0.11313
6188.45593,0.12945
6190.38440,0.14831
6192.31286,0.13154
6194.24133,0.09516
6196.16980,0.09296
6198.09827,0.12008
6200.02674,0.12428
6201.95521,0.10453
6203.88368,0.10860
6205.81215,0.13153
6207.74061,0.12899
6209.66908,0.09433
6211.59755,0.04529
6213.52602,0.00968
6215.45449,0.02827
6217.38296,0.07661
6219.31143,0.06771
6221.23989,0.02909
6223.16836,0.04790
6225.09683,0.09817
6227.02530,0.10242
6228.95377,0.09721
6230.88224,0.14703
6232.81071,0.20272
6234.73918,0.19741
6236.66764,0.13007
6238.59611,0.03118
6240.52458,-0.03038
6242.45305,-0.04037
6244.38152,-0.03586
6246.30999,-0.00380
6248.23846,0.03423
6250.16692,0.03162
6252.09539,0.04686
6254.02386,0.13226
6255.95233,0.20954
6257.88080,0.19825
6259.80927,0.14902
6261.73774,0.12171
6263.66621,0.07971
6265.59467,0.02112
6267.52314,0.00903
6269.45161,0.05189
6271.38008,0.09233
6273.30855,0.08652
6275.23702,0.05518
6277.16549,0.00570
6279.09395,-0.03571
6281.02242,-0.00183
6282.95089,0.05138
6284.87936,0.06166
6286.80783,0.08092
6288.73630,0.08779
6290.66477,0.04529
6292.59323,0.03780
6294.52170,0.07656
6296.45017,0.08904
6298.37864,0.08418
6300.30711,0.08042
6302.23558,0.05162
6304.16405,0.00420
6306.09252,-0.03674
6308.02098,-0.04497
6309.94945,0.00949
6311.87792,0.09242
6313.80639,0.13765
6315.73486,0.11417
6317.66333,0.03808
6319.59180,-0.03112
6321.52026,-0.05964
6323.44873,-0.04294
6325.37720,0.01131
6327.30567,0.05969
6329.23414,0.05675
6331.16261,0.02150
6333.09108,0.01280
6335.01955,0.04266
6336.94801,0.05961
6338.87648,0.02696
6340.80495,-0.00151
6342.73342,0.03519
6344.66189,0.09854
6346.59036,0.12782
6348.51883,0.14445
6350.44729,0.17886
6352.37576,0.18957
6354.30423,0.16377
6356.23270,0.12009
6358.16117,0.06363
6360.08964,0.04488
6362.01811,0.07791
6363.94658,0.10637
6365.87504,0.11277
6367.80351,0.10087
6369.73198,0.11374
6371.66045,0.15696
6373.58892,0.17210
6375.51739,0.18315
6377.44586,0.20301
6379.37432,0.21545
6381.30279,0.23287
6383.23126,0.23694
6385.15973,0.20094
6387.08820,0.16638
6389.01667,0.16265
6390.94514,0.15576
6392.87361,0.14567
6394.80207,0.16448
6396.73054,0.18094
6398.65901,0.15252
6400.58748,0.09212
6402.51595,0.10310
6404.44442,0.20305
6406.37289,0.24680
6408.30135,0.20000
6410.22982,0.14264
6412.15829,0.07820
6414.08676,0.07000
6416.01523,0.15627
6417.94370,0.24018
6419.87217,0.24330
6421.80064,0.19714
6423.72910,0.12982
6425.65757,0.06126
6427.58604,0.06291
6429.51451,0.11864
6431.44298,0.10233
6433.37145,0.06517
6435.29992,0.10128
6437.22838,0.12822
6439.15685,0.13916
6441.08532,0.16499
6443.01379,0.13094
6444.94226,0.07381
6446.87073,0.07366
6448.79920,0.07782
6450.72766,0.04919
6452.65613,0.03784
6454.58460,0.08835
6456.51307,0.14088
6458.44154,0.12864
6460.37001,0.10515
6462.29848,0.09619
6464.22695,0.07968
6466.15541,0.07370
6468.08388,0.05861
6470.01235,0.03458
6471.94082,0.06769
6473.86929,0.12299
6475.79776,0.11731
6477.72623,0.07726
6479.65469,0.07286
6481.58316,0.07033
6483.51163,0.02434
6485.44010,-0.00357
6487.36857,0.01999
6489.29704,0.04970
6491.22551,0.06918
6493.15398,0.06200
6495.08244,0.01465
6497.01091,0.00528
6498.93938,0.06342
6500.86785,0.10561
6502.79632,0.10374
6504.72479,0.12322
6506.65326,0.14214
6508.58172,0.12206
6510.51019,0.09352
6512.43866,0.08281
6514.36713,0.08025
6516.29560,0.04987
6518.22407,0.02273
6520.15254,0.05563
6522.08101,0.12095
6524.00947,0.15181
6525.93794,0.08076
6527.86641,-0.03768
6529.79488,-0.07353
6531.72335,-0.04487
6533.65182,-0.01830
6535.58029,-0.00248
6537.50875,-0.02655
6539.43722,-0.04477
6541.36569,0.00365
6543.29416,0.05527
6545.22263,0.06534
6547.15110,0.08763
6549.07957,0.10248
6551.00804,0.02502
6552.93650,-0.06574
6554.86497,-0.05991
6556.79344,0.01317
6558.72191,0.09125
6560.65038,0.12470
6562.57885,0.09732
6564.50732,0.05527
6566.43578,0.04503
6568.36425,0.03132
6570.29272,0.02400
6572.22119,0.06621
6574.14966,0.11417
6576.07813,0.12032
6578.00660,0.08594
6579.93507,0.03841
6581.86353,0.03402
6583.79200,0.08577
6585.72047,0.08476
6587.64894,0.01625
6589.57741,-0.00777
6591.50588,0.04872
6593.43435,0.10270
6595.36281,0.07622
6597.29128,0.05966
6599.21975,0.11486
6601.14822,0.17317
6603.07669,0.16494
6605.00516,0.09769
6606.93363,0.03842
6608.86210,0.01428
6610.79056,-0.02052
6612.71903,-0.05025
6614.64750,-0.04363
6616.57597,-0.01768
6618.50444,0.00977
6620.43291,0.00574
6622.36138,0.00301
6624.28984,0.06203
6626.21831,0.11318
6628.14678,0.06483
6630.07525,0.02796
6632.00372,0.12365
6633.93219,0.19456
6635.86066,0.17184
6637.78912,0.16740
6639.71759,0.15191
6641.64606,0.11053
6643.57453,0.11031
6645.50300,0.09822
6647.43147,0.02046
6649.35994,-0.02442
6651.28841,0.03430
6653.21687,0.13793
6655.14534,0.17193
6657.07381,0.12705
6659.00228,0.13032
6660.93075,0.18380
6662.85922,0.18617
6664.78769,0.13916
6666.71615,0.10326
6668.64462,0.06270
6670.57309,-0.03314
6672.50156,-0.09532
6674.43003,-0.05293
6676.35850,-0.00582
6678.28697,0.02618
6680.21544,0.07036
6682.14390,0.10162
6684.07237,0.13156
6686.00084,0.14623
6687.92931,0.11115
6689.85778,0.10094
6691.78625,0.12095
6693.71472,0.09282
6695.64318,0.03355
6697.57165,0.01659
6699.50012,0.07049
6701.42859,0.12480
6703.35706,0.11300
6705.28553,0.07539
6707.21400,0.03505
6709.14247,-0.03820
6711.07093,-0.07237
6712.99940,0.00474
6714.92787,0.10782
6716.85634,0.12922
6718.78481,0.08412
6720.71328,0.06593
6722.64175,0.14635
6724.57021,0.23369
6726.49868,0.25142
6728.42715,0.22750
6730.35562,0.17949
6732.28409,0.16623
6734.21256,0.16030
6736.14103,0.06185
6738.06950,-0.03779
6739.99796,0.00306
6741.92643,0.11897
6743.85490,0.17122
6745.78337,0.15375
6747.71184,0.07236
6749.64031,0.01034
6751.56878,0.01181
6753.49724,0.00022
6755.42571,0.00252
6757.35418,0.04021
6759.28265,0.05488
6761.21112,0.01031
6763.13959,-0.05860
6765.06806,-0.09492
6766.99653,-0.05166
6768.92499,0.03948
6770.85346,0.08931
6772.78193,0.10692
6774.71040,0.14454
6776.63887,0.17020
6778.56734,0.11744
6780.49581,0.00101
6782.42427,-0.05471
6784.35274,0.00744
6786.28121,0.05568
6788.20968,0.03847
6790.13815,0.03964
6792.06662,0.06414
6793.99509,0.09323
6795.92355,0.13348
6797.85202,0.15644
6799.78049,0.14251
6801.70896,0.08844
6803.63743,0.04463
6805.56590,0.01548
6807.49437,-0.06990
6809.42284,-0.12736
6811.35130,-0.03732
6813.27977,0.05715
6815.20824,0.03389
6817.13671,0.04541
6819.06518,0.15913
6820.99365,0.23864
6822.92212,0.18492
6824.85058,0.13201
6826.77905,0.15026
6828.70752,0.10191
6830.63599,-0.04423
6832.56446,-0.13166
6834.49293,-0.08833
6836.42140,0.01043
6838.34987,0.05417
6840.27833,0.07267
6842.20680,0.12942
6844.13527,0.15277
6846.06374,0.10783
6847.99221,0.10483
6849.92068,0.12839
6851.84915,0.05791
6853.77761,-0.01665
6855.70608,0.00128
6857.63455,0.07291
6859.56302,0.12659
6861.49149,0.11248
6863.41996,0.10574
6865.34843,0.17772
6867.27690,0.21168
6869.20536,0.14812
6871.13383,0.08911
6873.06230,0.10073
6874.99077,0.12877
6876.91924,0.13691
6878.84771,0.11425
6880.77618,0.05691
6882.70464,0.02584
6884.63311,0.03761
6886.56158,0.07364
6888.49005,0.09712
6890.41852,0.05503
6892.34699,-0.04408
6894.27546,-0.08923
6896.20393,-0.07745
6898.13239,-0.07133
6900.06086,-0.00659
6901.98933,0.08829
6903.91780,0.13084
6905.84627,0.17303
6907.77474,0.21767
6909.70321,0.13954
6911.63167,-0.02896
6913.56014,-0.09568
6915.48861,-0.03457
6917.41708,0.02587
6919.34555,0.03520
6921.27402,-0.02300
6923.20249,-0.10618
6925.13096,-0.11350
6927.05942,-0.08936
6928.98789,-0.15219
6930.91636,-0.20159
6932.84483,-0.08631
6934.77330,0.02797
6936.70177,-0.00467
6938.63024,-0.14240
6940.55870,-0.22193
6942.48717,-0.14929
6944.41564,-0.11375
6946.34411,-0.13316
6948.27258,-0.05402
6950.20105,0.06969
6952.12952,0.16417
6954.05799,0.26165
6955.98645,0.29424
6957.91492,0.19467
6959.84339,0.12960
6961.77186,0.17756
6963.70033,0.17590
6965.62880,0.12622
6967.55727,0.12012
6969.48573,0.08070
6971.41420,-0.07238
6973.34267,-0.17585
6975.27114,-0.03252
6977.19961,0.17002
6979.12808,0.21306
6981.05655,0.15929
6982.98501,0.11040
6984.91348,0.09215
6986.84195,0.11489
6988.77042,0.15410
6990.69889,0.16011
6992.62736,0.13577
6994.55583,0.10319
6996.48430,0.10190
6998.41276,0.11016
7000.34123,0.12493
7002.26970,0.19776
7004.19817,0.23853
7006.12664,0.21268
7008.05511,0.15588
7009.98358,0.06371
7011.91204,0.00952
7013.84051,0.09563
7015.76898,0.22620
7017.69745,0.22572
7019.62592,0.11221
7021.55439,0.05507
7023.48286,0.10230
7025.41133,0.12638
7027.33979,0.07957
7029.26826,0.07730
7031.19673,0.15423
7033.12520,0.22937
7035.05367,0.24148
7036.98214,0.14039
7038.91061,0.08191
7040.83907,0.20141
7042.76754,0.33464
7044.69601,0.29386
7046.62448,0.20526
7048.55295,0.16316
7050.48142,0.08615
7052.40989,-0.02004
7054.33836,-0.07768
7056.26682,-0.09089
7058.19529,0.00459
7060.12376,0.15842
7062.05223,0.18038
7063.98070,0.09261
7065.90917,0.05029
7067.83764,0.02798
7069.76610,-0.01611
7071.69457,0.02256
7073.62304,0.09249
7075.55151,0.10360
7077.47998,0.10178
7079.40845,0.16433
7081.33692,0.27917
7083.26539,0.24980
7085.19385,0.13759
7087.12232,0.14423
7089.05079,0.20191
7090.97926,0.13870
7092.90773,0.04950
7094.83620,0.03874
7096.76467,0.09418
7098.69313,0.16672
7100.62160,0.15010
7102.55007,0.14347
7104.47854,0.25662
7106.40701,0.32695
7108.33548,0.26586
7110.26395,0.20589
7112.19242,0.15018
7114.12088,0.06082
7116.04935,-0.04155
7117.97782,-0.07329
7119.90629,0.06172
7121.83476,0.22754
7123.76323,0.26071
7125.69170,0.16822
7127.62016,0.05720
7129.54863,-0.01360
7131.47710,-0.05549
7133.40557,-0.05638
7135.33404,-0.00149
7137.26251,0.05950
7139.19098,0.08730
7141.11944,0.07950
7143.04791,-0.02161
7144.97638,-0.13826
7146.90485,-0.04076
7148.83332,0.16333
7150.76179,0.25157
7152.69026,0.18068
7154.61873,0.07038
7156.54719,0.10147
7158.47566,0.21677
7160.40413,0.21195
7162.33260,0.07537
7164.26107,-0.04561
7166.18954,-0.11416
7168.11801,-0.08862
7170.04647,0.01061
7171.97494,-0.00233
7173.90341,-0.11342
7175.83188,-0.15668
7177.76035,-0.09889
7179.68882,-0.05300
7181.61729,-0.04449
7183.54576,0.00943
7185.47422,0.06585
7187.40269,0.11050
7189.33116,0.19276
7191.25963,0.18957
7193.18810,0.10244
7195.11657,0.09461
7197.04504,0.12589
7198.97350,0.14389
7200.90197,0.18808
7202.83044,0.23563
7204.75891,0.19559
7206.68738,0.04610
7208.61585,-0.08653
7210.54432,-0.16204
7212.47279,-0.21339
7214.40125,-0.18786
7216.32972,0.02379
7218.25819,0.30929
7220.18666,0.36729
7222.11513,0.22487
7224.04360,0.01931
7225.97207,-0.15601
7227.90053,-0.22524
7229.82900,-0.19474
7231.75747,-0.09728
7233.68594,-0.03129
7235.61441,0.01255
7237.54288,0.13055
7239.47135,0.22169
7241.39982,0.17420
7243.32828,0.06897
7245.25675,0.05090
7247.18522,0.10690
7249.11369,0.12504
7251.04216,0.07660
7252.97063,-0.00454
7254.89910,-0.05185
7256.82756,0.02622
7258.75603,0.18687
7260.68450,0.27827
7262.61297,0.21121
7264.54144,0.08031
7266.46991,0.03021
7268.39838,0.10490
7270.32685,0.21852
7272.25531,0.29184
7274.18378,0.26393
7276.11225,0.16174
7278.04072,0.13992
7279.96919,0.28855
7281.89766,0.34744
7283.82613,0.25589
7285.75459,0.20150
7287.68306,0.13550
7289.61153,-0.02253
7291.54000,-0.12474
7293.46847,-0.01236
7295.39694,0.15922
7297.32541,0.18029
7299.25387,0.07908
7301.18234,0.00698
7303.11081,0.03031
7305.03928,0.00228
7306.96775,-0.11575
7308.89622,-0.10339
7310.82469,0.03118
7312.75316,0.12918
7314.68162,0.21260
7316.61009,0.23280
7318.53856,0.04595
7320.46703,-0.24511
7322.39550,-0.43304
7324.32397,-0.31807
7326.25244,0.03359
7328.18090,0.33434
7330.10937,0.37296
7332.03784,0.20446
7333.96631,0.03321
7335.89478,-0.02651
7337.82325,-0.04842
7339.75172,0.00454
7341.68019,0.24039
7343.60865,0.32909
7345.53712,0.22031
7347.46559,0.20634
7349.39406,0.27698
7351.32253,0.18137
7353.25100,0.06737
7355.17947,0.15812
7357.10793,0.32501
7359.03640,0.27535
7360.96487,0.09103
7362.89334,-0.02640
7364.82181,-0.07045
7366.75028,-0.03097
7368.67875,0.06095
7370.60722,0.09622
7372.53568,-0.05281
7374.46415,-0.37291
7376.39262,-0.45931
7378.32109,-0.27694
7380.24956,-0.14487
7382.17803,-0.03965
7384.10650,0.15110
7386.03496,0.32231
7387.96343,0.25405
7389.89190,0.08917
7391.82037,0.07924
7393.74884,0.15905
7395.67731,0.11664
7397.60578,0.04395
7399.53425,0.10344
7401.46271,0.17854
7403.39118,0.18661
7405.31965,0.17412
7407.24812,0.18008
7409.17659,0.11200
7411.10506,-0.08422
7413.03353,-0.19685
7414.96199,-0.13911
7416.89046,-0.09584
7418.81893,-0.20483
7420.74740,-0.22385
7422.67587,-0.00858
7424.60434,0.16034
7426.53281,0.12871
7428.46128,0.00142
7430.38974,-0.08703
7432.31821,-0.05800
7434.24668,0.09241
7436.17515,0.20620
7438.10362,0.12523
7440.03209,-0.01969
7441.96056,-0.04258
7443.88902,0.00250
7445.81749,0.02492
7447.74596,0.14230
7449.67443,0.39628
7451.60290,0.49995
7453.53137,0.34692
7455.45984,0.21705
7457.38831,0.15748
7459.31677,0.04040
7461.24524,-0.10220
7463.17371,-0.09554
7465.10218,-0.07635
7467.03065,-0.17407
7468.95912,-0.19281
7470.88759,-0.07674
7472.81605,0.02745
7474.74452,0.10116
7476.67299,0.17043
7478.60146,0.16172
7480.52993,0.17432
7482.45840,0.25691
7484.38687,0.23284
7486.31533,0.18007
7488.24380,0.16399
7490.17227,0.09947
7492.10074,-0.05764
7494.02921,-0.21976
7495.95768,-0.22068
7497.88615,-0.02724
