399.19301,1.43432
401.12148,1.60002
403.04995,1.23048
404.97842,0.79953
406.90689,0.47944
408.83536,0.36500
410.76382,0.38074
412.69229,0.39313
414.62076,0.43780
416.54923,0.46857
418.47770,0.44075
420.40617,0.49349
422.33464,0.59923
424.26311,0.51825
426.19157,0.28506
428.12004,0.20367
430.04851,0.26533
431.97698,0.27343
433.90545,0.27515
435.83392,0.30411
437.76239,0.31701
439.69085,0.32612
441.61932,0.31403
443.54779,0.36604
445.47626,0.48621
447.40473,0.55451
449.33320,0.57052
451.26167,0.52918
453.19013,0.46241
455.11860,0.41361
457.04707,0.39959
458.97554,0.38472
460.90401,0.28608
462.83248,0.21280
464.76095,0.25934
466.68942,0.29116
468.61788,0.28172
470.54635,0.32165
472.47482,0.38575
474.40329,0.35586
476.33176,0.27438
478.26023,0.25387
480.18870,0.25017
482.11716,0.19456
484.04563,0.12200
485.97410,0.12605
487.90257,0.17979
489.83104,0.21651
491.75951,0.22169
493.68798,0.22956
495.61645,0.24856
497.54491,0.23451
499.47338,0.19586
501.40185,0.17659
503.33032,0.20599
505.25879,0.27155
507.18726,0.26759
509.11573,0.15603
511.04419,0.07431
512.97266,0.07742
514.90113,0.10724
516.82960,0.11180
518.75807,0.09610
520.68654,0.09216
522.61501,0.08348
524.54348,0.07183
526.47194,0.08614
528.40041,0.11453
530.32888,0.13042
532.25735,0.12148
534.18582,0.09938
536.11429,0.10079
538.04276,0.11675
539.97122,0.09978
541.89969,0.06171
543.82816,0.03335
545.75663,0.00817
547.68510,-0.00834
549.61357,-0.00088
551.54204,0.00532
553.47051,0.00573
555.39897,0.04433
557.32744,0.10321
559.25591,0.12420
561.18438,0.10131
563.11285,0.06408
565.04132,0.04978
566.96979,0.05790
568.89825,0.06244
570.82672,0.09019
572.75519,0.12956
574.68366,0.09842
576.61213,0.03091
578.54060,0.02662
580.46907,0.06371
582.39754,0.08018
584.32600,0.09078
586.25447,0.10375
588.18294,0.08438
590.11141,0.06594
592.03988,0.07926
593.96835,0.09471
595.89682,0.10561
597.82528,0.11062
599.75375,0.10747
601.68222,0.11072
603.61069,0.11314
605.53916,0.11185
607.46763,0.12694
609.39610,0.16184
611.32456,0.19027
613.25303,0.17614
615.18150,0.14199
617.10997,0.12998
619.03844,0.13438
620.96691,0.14054
622.89538,0.13581
624.82385,0.13336
626.75231,0.14903
628.68078,0.17230
630.60925,0.19455
632.53772,0.19717
634.46619,0.17785
636.39466,0.17461
638.32313,0.19174
640.25159,0.19803
642.18006,0.18809
644.10853,0.18122
646.03700,0.19046
647.96547,0.20198
649.89394,0.19016
651.82241,0.17364
653.75088,0.17077
655.67934,0.16131
657.60781,0.14705
659.53628,0.14476
661.46475,0.15610
663.39322,0.17307
665.32169,0.17847
667.25016,0.16132
669.17862,0.13159
671.10709,0.12225
673.03556,0.12446
674.96403,0.12246
676.89250,0.11723
678.82097,0.11911
680.74944,0.12804
682.67791,0.14298
684.60637,0.16706
686.53484,0.18720
688.46331,0.18676
690.39178,0.17494
692.32025,0.16118
694.24872,0.15164
696.17719,0.15651
698.10565,0.15977
700.03412,0.14655
701.96259,0.13724
703.89106,0.14630
705.81953,0.15671
707.74800,0.15860
709.67647,0.17169
711.60494,0.19028
713.53340,0.18073
715.46187,0.15547
717.39034,0.14337
719.31881,0.13800
721.24728,0.13549
723.17575,0.13742
725.10422,0.13809
727.03268,0.13869
728.96115,0.13485
730.88962,0.12222
732.81809,0.10840
734.74656,0.10225
736.67503,0.10467
738.60350,0.10557
740.53197,0.10449
742.46043,0.11183
744.38890,0.12541
746.31737,0.13473
748.24584,0.13488
750.17431,0.12774
752.10278,0.11600
754.03125,0.11183
755.95971,0.12454
757.88818,0.13295
759.81665,0.12180
761.74512,0.10625
763.67359,0.09601
765.60206,0.08936
767.53053,0.09317
769.45900,0.11099
771.38746,0.12903
773.31593,0.12837
775.24440,0.11455
777.17287,0.11296
779.10134,0.11534
781.02981,0.10210
782.95828,0.09468
784.88674,0.11104
786.81521,0.12611
788.74368,0.11935
790.67215,0.11037
792.60062,0.11771
794.52909,0.13115
796.45756,0.13610
798.38602,0.13528
800.31449,0.13127
802.24296,0.12719
804.17143,0.13083
806.09990,0.13452
808.02837,0.13761
809.95684,0.14779
811.88531,0.15247
813.81377,0.14499
815.74224,0.13849
817.67071,0.14024
819.59918,0.14498
821.52765,0.14878
823.45612,0.15825
825.38459,0.17406
827.31305,0.18257
829.24152,0.17867
831.16999,0.17085
833.09846,0.16537
835.02693,0.15566
836.95540,0.14056
838.88387,0.13358
840.81234,0.13961
842.74080,0.15194
844.66927,0.15872
846.59774,0.15854
848.52621,0.16279
850.45468,0.17121
852.38315,0.17345
854.31162,0.17136
856.24008,0.17235
858.16855,0.17203
860.09702,0.16456
862.02549,0.15946
863.95396,0.16438
865.88243,0.16550
867.81090,0.16839
869.73937,0.17891
871.66783,0.17318
873.59630,0.15991
875.52477,0.15534
877.45324,0.15107
879.38171,0.14613
881.31018,0.14071
883.23865,0.13918
885.16711,0.14657
887.09558,0.15355
889.02405,0.15166
890.95252,0.14811
892.88099,0.14833
894.80946,0.14750
896.73793,0.14703
898.66640,0.15307
900.59486,0.16214
902.52333,0.16544
904.45180,0.16454
906.38027,0.16342
908.30874,0.15984
910.23721,0.15477
912.16568,0.15193
914.09414,0.15072
916.02261,0.14747
917.95108,0.14269
919.87955,0.13677
921.80802,0.13105
923.73649,0.13336
925.66496,0.14501
927.59343,0.15701
929.52189,0.16149
931.45036,0.15870
933.37883,0.15604
935.30730,0.15647
937.23577,0.15292
939.16424,0.14479
941.09271,0.13718
943.02117,0.13018
944.94964,0.12704
946.87811,0.12628
948.80658,0.12330
950.73505,0.12448
952.66352,0.13258
954.59199,0.14228
956.52045,0.14845
958.44892,0.14939
960.37739,0.14902
962.30586,0.15012
964.23433,0.15274
966.16280,0.15281
968.09127,0.14683
970.01974,0.14210
971.94820,0.14191
973.87667,0.14306
975.80514,0.14133
977.73361,0.13131
979.66208,0.12303
981.59055,0.12566
983.51902,0.12982
985.44748,0.13226
987.37595,0.13684
989.30442,0.14124
991.23289,0.14351
993.16136,0.14570
995.08983,0.14775
997.01830,0.14604
998.94677,0.14359
1000.87523,0.14536
1002.80370,0.14718
1004.73217,0.14659
1006.66064,0.14441
1008.58911,0.14073
1010.51758,0.13715
1012.44605,0.13393
1014.37451,0.13398
1016.30298,0.14026
1018.23145,0.14893
1020.15992,0.15667
1022.08839,0.16195
1024.01686,0.15968
1025.94533,0.15509
1027.87380,0.15516
1029.80226,0.15575
1031.73073,0.16450
1033.65920,0.18267
1035.58767,0.18828
1037.51614,0.17910
1039.44461,0.17634
1041.37308,0.17974
1043.30154,0.17578
1045.23001,0.16799
1047.15848,0.16202
1049.08695,0.16171
1051.01542,0.17125
1052.94389,0.18262
1054.87236,0.18591
1056.80083,0.17951
1058.72929,0.16957
1060.65776,0.16737
1062.58623,0.17515
1064.51470,0.18304
1066.44317,0.18216
1068.37164,0.17634
1070.30011,0.17496
1072.22857,0.17469
1074.15704,0.17263
1076.08551,0.17587
1078.01398,0.17792
1079.94245,0.16909
1081.87092,0.15842
1083.79939,0.15823
1085.72786,0.16506
1087.65632,0.16569
1089.58479,0.15969
1091.51326,0.15744
1093.44173,0.16136
1095.37020,0.16729
1097.29867,0.17458
1099.22714,0.18401
1101.15560,0.18852
1103.08407,0.17982
1105.01254,0.16558
1106.94101,0.15752
1108.86948,0.15311
1110.79795,0.15104
1112.72642,0.15694
1114.65489,0.16620
1116.58335,0.17075
1118.51182,0.17041
1120.44029,0.16731
1122.36876,0.16405
1124.29723,0.16432
1126.22570,0.16823
1128.15417,0.16893
1130.08263,0.16226
1132.01110,0.15566
1133.93957,0.15569
1135.86804,0.15694
1137.79651,0.15479
1139.72498,0.15358
1141.65345,0.15441
1143.58191,0.15485
1145.51038,0.15727
1147.43885,0.16100
1149.36732,0.15972
1151.29579,0.15308
1153.22426,0.14715
1155.15273,0.14916
1157.08120,0.15845
1159.00966,0.16458
1160.93813,0.16469
1162.86660,0.16350
1164.79507,0.16077
1166.72354,0.15643
1168.65201,0.15657
1170.58048,0.16107
1172.50894,0.16329
1174.43741,0.16251
1176.36588,0.15927
1178.29435,0.15702
1180.22282,0.15957
1182.15129,0.16104
1184.07976,0.15902
1186.00823,0.15818
1187.93669,0.15727
1189.86516,0.15434
1191.79363,0.15479
1193.72210,0.15781
1195.65057,0.15709
1197.57904,0.15693
1199.50751,0.15909
1201.43597,0.15816
1203.36444,0.15915
1205.29291,0.16509
1207.22138,0.16945
1209.14985,0.16972
1211.07832,0.16768
1213.00679,0.16896
1214.93526,0.17098
1216.86372,0.16607
1218.79219,0.16351
1220.72066,0.16736
1222.64913,0.16765
1224.57760,0.16494
1226.50607,0.16588
1228.43454,0.16788
1230.36300,0.16815
1232.29147,0.17164
1234.21994,0.17553
1236.14841,0.17338
1238.07688,0.16972
1240.00535,0.16761
1241.93382,0.16553
1243.86229,0.16479
1245.79075,0.16490
1247.71922,0.16708
1249.64769,0.17166
1251.57616,0.17188
1253.50463,0.16963
1255.43310,0.17050
1257.36157,0.17184
1259.29003,0.17386
1261.21850,0.17698
1263.14697,0.17883
1265.07544,0.17848
1267.00391,0.17375
1268.93238,0.16686
1270.86085,0.16692
1272.78932,0.17307
1274.71778,0.17557
1276.64625,0.17449
1278.57472,0.17210
1280.50319,0.16713
1282.43166,0.16553
1284.36013,0.17077
1286.28860,0.17205
1288.21706,0.16701
1290.14553,0.16646
1292.07400,0.16776
1294.00247,0.16531
1295.93094,0.16404
1297.85941,0.16504
1299.78788,0.16139
1301.71634,0.14695
1303.64481,0.12904
1305.57328,0.12857
1307.50175,0.14918
1309.43022,0.16743
1311.35869,0.17223
1313.28716,0.17123
1315.21563,0.16824
1317.14409,0.16752
1319.07256,0.16999
1321.00103,0.16877
1322.92950,0.16526
1324.85797,0.16281
1326.78644,0.15996
1328.71491,0.15920
1330.64337,0.15890
1332.57184,0.15791
1334.50031,0.15796
1336.42878,0.15788
1338.35725,0.16050
1340.28572,0.15963
1342.21419,0.15456
1344.14266,0.15634
1346.07112,0.15968
1347.99959,0.15976
1349.92806,0.15931
1351.85653,0.15778
1353.78500,0.15702
1355.71347,0.15726
1357.64194,0.15657
1359.57040,0.15821
1361.49887,0.16220
1363.42734,0.16332
1365.35581,0.16335
1367.28428,0.16477
1369.21275,0.16820
1371.14122,0.17434
1373.06969,0.17923
1374.99815,0.17972
1376.92662,0.17742
1378.85509,0.17409
1380.78356,0.16982
1382.71203,0.16632
1384.64050,0.16875
1386.56897,0.17897
1388.49743,0.18742
1390.42590,0.18740
1392.35437,0.18510
1394.28284,0.18382
1396.21131,0.18238
1398.13978,0.18291
1400.06825,0.18447
1401.99672,0.18214
1403.92518,0.17850
1405.85365,0.17713
1407.78212,0.17520
1409.71059,0.17183
1411.63906,0.17171
1413.56753,0.17620
1415.49600,0.18120
1417.42446,0.18686
1419.35293,0.19365
1421.28140,0.19460
1423.20987,0.19117
1425.13834,0.18815
1427.06681,0.18684
1428.99528,0.18620
1430.92375,0.18536
1432.85221,0.18584
1434.78068,0.18936
1436.70915,0.19276
1438.63762,0.19281
1440.56609,0.19344
1442.49456,0.19365
1444.42303,0.19030
1446.35149,0.18651
1448.27996,0.18897
1450.20843,0.19390
1452.13690,0.19439
1454.06537,0.19419
1455.99384,0.19850
1457.92231,0.20442
1459.85077,0.20289
1461.77924,0.19817
1463.70771,0.19384
1465.63618,0.18997
1467.56465,0.18861
1469.49312,0.19517
1471.42159,0.21219
1473.35006,0.22652
1475.27852,0.22023
1477.20699,0.20568
1479.13546,0.19550
1481.06393,0.19167
1482.99240,0.19216
1484.92087,0.19699
1486.84934,0.20558
1488.77780,0.21008
1490.70627,0.20387
1492.63474,0.20075
1494.56321,0.20571
1496.49168,0.20794
1498.42015,0.19913
1500.34862,0.19123
1502.27709,0.19053
1504.20555,0.19656
1506.13402,0.21295
1508.06249,0.22603
1509.99096,0.22223
1511.91943,0.21615
1513.84790,0.21403
1515.77637,0.21809
1517.70483,0.22338
1519.63330,0.23199
1521.56177,0.23981
1523.49024,0.22680
1525.41871,0.20904
1527.34718,0.19899
1529.27565,0.19485
1531.20412,0.19610
1533.13258,0.19896
1535.06105,0.19935
1536.98952,0.20508
1538.91799,0.22178
1540.84646,0.23807
1542.77493,0.23196
1544.70340,0.21273
1546.63186,0.19698
1548.56033,0.19326
1550.48880,0.19487
1552.41727,0.19723
1554.34574,0.20325
1556.27421,0.21033
1558.20268,0.20927
1560.13115,0.19338
1562.05961,0.18462
1563.98808,0.18245
1565.91655,0.18441
1567.84502,0.19035
1569.77349,0.19368
1571.70196,0.18937
1573.63043,0.18649
1575.55889,0.18891
1577.48736,0.19021
1579.41583,0.18661
1581.34430,0.18321
1583.27277,0.18156
1585.20124,0.17988
1587.12971,0.17754
1589.05818,0.17666
1590.98664,0.17786
1592.91511,0.17850
1594.84358,0.17788
1596.77205,0.17776
1598.70052,0.17883
1600.62899,0.18207
1602.55746,0.18618
1604.48592,0.18633
1606.41439,0.18308
1608.34286,0.18031
1610.27133,0.18013
1612.19980,0.18380
1614.12827,0.18989
1616.05674,0.19525
1617.98521,0.19458
1619.91367,0.19250
1621.84214,0.19446
1623.77061,0.19734
1625.69908,0.19943
1627.62755,0.20287
1629.55602,0.20426
1631.48449,0.20214
1633.41295,0.20169
1635.34142,0.20467
1637.26989,0.20299
1639.19836,0.19887
1641.12683,0.19695
1643.05530,0.19773
1644.98377,0.20556
1646.91223,0.22105
1648.84070,0.22606
1650.76917,0.22433
1652.69764,0.22611
1654.62611,0.21889
1656.55458,0.20858
1658.48305,0.20416
1660.41152,0.20305
1662.33998,0.20208
1664.26845,0.19943
1666.19692,0.19926
1668.12539,0.20518
1670.05386,0.21009
1671.98233,0.20756
1673.91080,0.20686
1675.83926,0.20753
1677.76773,0.20715
1679.69620,0.21234
1681.62467,0.22639
1683.55314,0.23987
1685.48161,0.22937
1687.41008,0.21499
1689.33855,0.20945
1691.26701,0.20667
1693.19548,0.20966
1695.12395,0.22284
1697.05242,0.23669
1698.98089,0.23856
1700.90936,0.22578
1702.83783,0.21142
1704.76629,0.20493
1706.69476,0.20061
1708.62323,0.19658
1710.55170,0.19508
1712.48017,0.19716
1714.40864,0.20535
1716.33711,0.21912
1718.26558,0.22137
1720.19404,0.20910
1722.12251,0.19809
1724.05098,0.19342
1725.97945,0.19323
1727.90792,0.19241
1729.83639,0.19174
1731.76486,0.19650
1733.69332,0.20325
1735.62179,0.20118
1737.55026,0.19740
1739.47873,0.19423
1741.40720,0.19259
1743.33567,0.19614
1745.26414,0.20137
1747.19261,0.20339
1749.12107,0.19829
1751.04954,0.19197
1752.97801,0.19220
1754.90648,0.19351
1756.83495,0.19207
1758.76342,0.18990
1760.69189,0.18976
1762.62035,0.18855
1764.54882,0.18570
1766.47729,0.18654
1768.40576,0.19166
1770.33423,0.19618
1772.26270,0.19601
1774.19117,0.19159
1776.11964,0.18881
1778.04810,0.19056
1779.97657,0.19290
1781.90504,0.19122
1783.83351,0.18859
1785.76198,0.18764
1787.69045,0.18886
1789.61892,0.19260
1791.54738,0.19697
1793.47585,0.19919
1795.40432,0.19745
1797.33279,0.19434
1799.26126,0.19351
1801.18973,0.19278
1803.11820,0.19116
1805.04666,0.19324
1806.97513,0.19766
1808.90360,0.19918
1810.83207,0.19613
1812.76054,0.19136
1814.68901,0.18636
1816.61748,0.17412
1818.54595,0.16047
1820.47441,0.16681
1822.40288,0.18502
1824.33135,0.19244
1826.25982,0.19268
1828.18829,0.19639
1830.11676,0.19740
1832.04523,0.19146
1833.97369,0.18821
1835.90216,0.19162
1837.83063,0.19485
1839.75910,0.19377
1841.68757,0.19363
1843.61604,0.19726
1845.54451,0.19820
1847.47298,0.19460
1849.40144,0.19204
1851.32991,0.19167
1853.25838,0.19179
1855.18685,0.19236
1857.11532,0.19410
1859.04379,0.19587
1860.97226,0.19608
1862.90072,0.19488
1864.82919,0.19473
1866.75766,0.19866
1868.68613,0.20398
1870.61460,0.20230
1872.54307,0.19655
1874.47154,0.19314
1876.40001,0.19191
1878.32847,0.19087
1880.25694,0.18872
1882.18541,0.18666
1884.11388,0.18785
1886.04235,0.19077
1887.97082,0.19218
1889.89929,0.19326
1891.82775,0.19459
1893.75622,0.19487
1895.68469,0.19486
1897.61316,0.19505
1899.54163,0.19418
1901.47010,0.19253
1903.39857,0.19265
1905.32704,0.19442
1907.25550,0.19478
1909.18397,0.19340
1911.11244,0.19122
1913.04091,0.18853
1914.96938,0.18868
1916.89785,0.19154
1918.82632,0.19240
1920.75478,0.19281
1922.68325,0.19379
1924.61172,0.19205
1926.54019,0.18886
1928.46866,0.18737
1930.39713,0.18880
1932.32560,0.19104
1934.25407,0.19007
1936.18253,0.18642
1938.11100,0.18499
1940.03947,0.18788
1941.96794,0.19105
1943.89641,0.18985
1945.82488,0.18721
1947.75335,0.18674
1949.68181,0.18794
1951.61028,0.19060
1953.53875,0.19136
1955.46722,0.18644
1957.39569,0.18032
1959.32416,0.17930
1961.25263,0.18337
1963.18110,0.18885
1965.10956,0.19244
1967.03803,0.19333
1968.96650,0.19300
1970.89497,0.19124
1972.82344,0.18729
1974.75191,0.18507
1976.68038,0.18670
1978.60884,0.18825
1980.53731,0.18796
1982.46578,0.18653
1984.39425,0.18646
1986.32272,0.18899
1988.25119,0.18961
1990.17966,0.18830
1992.10812,0.18808
1994.03659,0.18666
1995.96506,0.18350
1997.89353,0.18095
1999.82200,0.18044
2001.75047,0.18248
2003.67894,0.18549
2005.60741,0.18592
2007.53587,0.18486
2009.46434,0.18630
2011.39281,0.18830
2013.32128,0.18848
2015.24975,0.18868
2017.17822,0.18860
2019.10669,0.18793
2021.03515,0.18946
2022.96362,0.19212
2024.89209,0.19218
2026.82056,0.18942
2028.74903,0.18683
2030.67750,0.18820
2032.60597,0.19220
2034.53444,0.19388
2036.46290,0.19342
2038.39137,0.19159
2040.31984,0.18891
2042.24831,0.18836
2044.17678,0.18903
2046.10525,0.19002
2048.03372,0.19200
2049.96218,0.19292
2051.89065,0.19124
2053.81912,0.18964
2055.74759,0.19220
2057.67606,0.19604
2059.60453,0.19662
2061.53300,0.19561
2063.46147,0.19490
2065.38993,0.19477
2067.31840,0.19524
2069.24687,0.19615
2071.17534,0.19843
2073.10381,0.20115
2075.03228,0.20082
2076.96075,0.19800
2078.88921,0.19572
2080.81768,0.19507
2082.74615,0.19658
2084.67462,0.19800
2086.60309,0.19668
2088.53156,0.19414
2090.46003,0.19303
2092.38850,0.19356
2094.31696,0.19399
2096.24543,0.19323
2098.17390,0.19291
2100.10237,0.19283
2102.03084,0.19035
2103.95931,0.18907
2105.88778,0.19313
2107.81624,0.19800
2109.74471,0.19776
2111.67318,0.19367
2113.60165,0.19075
2115.53012,0.19145
2117.45859,0.19432
2119.38706,0.19587
2121.31553,0.19461
2123.24399,0.19191
2125.17246,0.19107
2127.10093,0.19267
2129.02940,0.19307
2130.95787,0.19139
2132.88634,0.18759
2134.81481,0.18404
2136.74327,0.18622
2138.67174,0.19085
2140.60021,0.19321
2142.52868,0.19512
2144.45715,0.19484
2146.38562,0.19144
2148.31409,0.18959
2150.24255,0.18984
2152.17102,0.18965
2154.09949,0.18931
2156.02796,0.18846
2157.95643,0.18604
2159.88490,0.18408
2161.81337,0.18413
2163.74184,0.18496
2165.67030,0.18645
2167.59877,0.18910
2169.52724,0.19096
2171.45571,0.18995
2173.38418,0.18793
2175.31265,0.18760
2177.24112,0.18936
2179.16958,0.19169
2181.09805,0.19289
2183.02652,0.19294
2184.95499,0.19280
2186.88346,0.19315
2188.81193,0.19276
2190.74040,0.19008
2192.66887,0.18773
2194.59733,0.18847
2196.52580,0.18979
2198.45427,0.18964
2200.38274,0.18908
2202.31121,0.18805
2204.23968,0.18569
2206.16815,0.18282
2208.09661,0.18341
2210.02508,0.18712
2211.95355,0.18883
2213.88202,0.18858
2215.81049,0.18845
2217.73896,0.18836
2219.66743,0.18851
2221.59590,0.18949
2223.52436,0.19016
2225.45283,0.19035
2227.38130,0.19210
2229.30977,0.19367
2231.23824,0.19221
2233.16671,0.18980
2235.09518,0.19038
2237.02364,0.19318
2238.95211,0.19454
2240.88058,0.19458
2242.80905,0.19447
2244.73752,0.19396
2246.66599,0.19469
2248.59446,0.19744
2250.52293,0.20017
2252.45139,0.20150
2254.37986,0.20162
2256.30833,0.20090
2258.23680,0.19867
2260.16527,0.19512
2262.09374,0.19310
2264.02221,0.19344
2265.95067,0.19412
2267.87914,0.19413
2269.80761,0.19288
2271.73608,0.19203
2273.66455,0.19453
2275.59302,0.19764
2277.52149,0.19746
2279.44996,0.19604
2281.37842,0.19674
2283.30689,0.19833
2285.23536,0.19651
2287.16383,0.19151
2289.09230,0.18819
2291.02077,0.18898
2292.94924,0.19430
2294.87770,0.20107
2296.80617,0.20190
2298.73464,0.19643
2300.66311,0.19133
2302.59158,0.19003
2304.52005,0.19121
2306.44852,0.19083
2308.37699,0.18769
2310.30545,0.18556
2312.23392,0.18576
2314.16239,0.18579
2316.09086,0.18572
2318.01933,0.18641
2319.94780,0.18457
2321.87627,0.17877
2323.80473,0.17529
2325.73320,0.18097
2327.66167,0.19096
2329.59014,0.19848
2331.51861,0.20367
2333.44708,0.19543
2335.37555,0.16990
2337.30401,0.14884
2339.23248,0.14663
2341.16095,0.15491
2343.08942,0.16009
2345.01789,0.16282
2346.94636,0.17064
2348.87483,0.17722
2350.80330,0.17709
2352.73176,0.17207
2354.66023,0.16340
2356.58870,0.14668
2358.51717,0.13555
2360.44564,0.14012
2362.37411,0.13573
2364.30258,0.12781
2366.23104,0.13251
2368.15951,0.14080
2370.08798,0.15223
2372.01645,0.16357
2373.94492,0.16932
2375.87339,0.17164
2377.80186,0.17457
2379.73033,0.17887
2381.65879,0.18183
2383.58726,0.18364
2385.51573,0.18573
2387.44420,0.18661
2389.37267,0.18586
2391.30114,0.18574
2393.22961,0.18674
2395.15807,0.18763
2397.08654,0.18857
2399.01501,0.18924
2400.94348,0.18904
2402.87195,0.18869
2404.80042,0.18870
2406.72889,0.18928
2408.65736,0.19132
2410.58582,0.19439
2412.51429,0.19483
2414.44276,0.19278
2416.37123,0.19282
2418.29970,0.19406
2420.22817,0.19229
2422.15664,0.18855
2424.08510,0.18754
2426.01357,0.18918
2427.94204,0.18977
2429.87051,0.19012
2431.79898,0.19237
2433.72745,0.19478
2435.65592,0.19506
2437.58439,0.19404
2439.51285,0.19312
2441.44132,0.19264
2443.36979,0.19485
2445.29826,0.19973
2447.22673,0.20136
2449.15520,0.19751
2451.08367,0.19383
2453.01213,0.19420
2454.94060,0.19577
2456.86907,0.19562
2458.79754,0.19538
2460.72601,0.19665
2462.65448,0.19812
2464.58295,0.19827
2466.51142,0.19660
2468.43988,0.19394
2470.36835,0.19319
2472.29682,0.19542
2474.22529,0.19718
2476.15376,0.19647
2478.08223,0.19570
2480.01070,0.19651
2481.93916,0.19788
2483.86763,0.19790
2485.79610,0.19590
2487.72457,0.19504
2489.65304,0.19756
2491.58151,0.19915
2493.50998,0.19850
2495.43844,0.19918
2497.36691,0.20041
2499.29538,0.20091
2501.22385,0.20068
2503.15232,0.19819
2505.08079,0.19384
2507.00926,0.19114
2508.93773,0.19154
2510.86619,0.19322
2512.79466,0.19547
2514.72313,0.19819
2516.65160,0.19965
2518.58007,0.19862
2520.50854,0.19676
2522.43701,0.19568
2524.36547,0.19476
2526.29394,0.19431
2528.22241,0.19543
2530.15088,0.19720
2532.07935,0.19782
2534.00782,0.19727
2535.93629,0.19551
2537.86476,0.19306
2539.79322,0.19122
2541.72169,0.18981
2543.65016,0.18947
2545.57863,0.19072
2547.50710,0.19201
2549.43557,0.19201
2551.36404,0.19196
2553.29250,0.19308
2555.22097,0.19407
2557.14944,0.19443
2559.07791,0.19346
2561.00638,0.19169
2562.93485,0.19133
2564.86332,0.19090
2566.79179,0.18948
2568.72025,0.18835
2570.64872,0.18816
2572.57719,0.18877
2574.50566,0.18885
2576.43413,0.18895
2578.36260,0.18918
2580.29107,0.18861
2582.21953,0.18896
2584.14800,0.19009
2586.07647,0.19112
2588.00494,0.19316
2589.93341,0.19364
2591.86188,0.19023
2593.79035,0.18793
2595.71882,0.19015
2597.64728,0.19295
2599.57575,0.19328
2601.50422,0.19328
2603.43269,0.19610
2605.36116,0.19850
2607.28963,0.19606
2609.21810,0.19347
2611.14656,0.19493
2613.07503,0.19623
2615.00350,0.19492
2616.93197,0.19384
2618.86044,0.19364
2620.78891,0.19437
2622.71738,0.19814
2624.64585,0.20184
2626.57431,0.20112
2628.50278,0.19956
2630.43125,0.19975
2632.35972,0.19917
2634.28819,0.19734
2636.21666,0.19523
2638.14513,0.19492
2640.07359,0.19706
2642.00206,0.19979
2643.93053,0.20250
2645.85900,0.20439
2647.78747,0.20429
2649.71594,0.20216
2651.64441,0.19974
2653.57288,0.19814
2655.50134,0.19733
2657.42981,0.19835
2659.35828,0.19991
2661.28675,0.20054
2663.21522,0.20135
2665.14369,0.20236
2667.07216,0.20366
2669.00062,0.20489
2670.92909,0.20525
2672.85756,0.20574
2674.78603,0.20545
2676.71450,0.20361
2678.64297,0.20294
2680.57144,0.20325
2682.49990,0.20252
2684.42837,0.20254
2686.35684,0.20340
2688.28531,0.20277
2690.21378,0.20358
2692.14225,0.20753
2694.07072,0.21050
2695.99919,0.21313
2697.92765,0.21498
2699.85612,0.21138
2701.78459,0.20751
2703.71306,0.20750
2705.64153,0.20535
2707.57000,0.20136
2709.49847,0.20044
2711.42693,0.20125
2713.35540,0.20249
2715.28387,0.20561
2717.21234,0.20972
2719.14081,0.21085
2721.06928,0.20722
2722.99775,0.20378
2724.92622,0.20333
2726.85468,0.20190
2728.78315,0.20073
2730.71162,0.20337
2732.64009,0.20516
2734.56856,0.20430
2736.49703,0.20562
2738.42550,0.20702
2740.35396,0.20366
2742.28243,0.19926
2744.21090,0.19962
2746.13937,0.20386
2748.06784,0.20637
2749.99631,0.20478
2751.92478,0.20184
2753.85325,0.20077
2755.78171,0.20205
2757.71018,0.20343
2759.63865,0.20402
2761.56712,0.20300
2763.49559,0.20014
2765.42406,0.20018
2767.35253,0.20339
2769.28099,0.20287
2771.20946,0.19843
2773.13793,0.19634
2775.06640,0.19789
2776.99487,0.19981
2778.92334,0.19936
2780.85181,0.19588
2782.78028,0.19326
2784.70874,0.19613
2786.63721,0.20197
2788.56568,0.20463
2790.49415,0.20413
2792.42262,0.20423
2794.35109,0.20445
2796.27956,0.20258
2798.20802,0.20061
2800.13649,0.20095
2802.06496,0.20170
2803.99343,0.20167
2805.92190,0.20298
2807.85037,0.20641
2809.77884,0.20995
2811.70731,0.21060
2813.63577,0.20731
2815.56424,0.20265
2817.49271,0.19994
2819.42118,0.19991
2821.34965,0.20133
2823.27812,0.20348
2825.20659,0.20598
2827.13505,0.20762
2829.06352,0.20732
2830.99199,0.20763
2832.92046,0.21146
2834.84893,0.21478
2836.77740,0.21473
2838.70587,0.21379
2840.63433,0.21168
2842.56280,0.20891
2844.49127,0.20842
2846.41974,0.21012
2848.34821,0.21289
2850.27668,0.21475
2852.20515,0.21383
2854.13362,0.21261
2856.06208,0.21145
2857.99055,0.20831
2859.91902,0.20770
2861.84749,0.21234
2863.77596,0.21538
2865.70443,0.21301
2867.63290,0.21049
2869.56136,0.21056
2871.48983,0.20909
2873.41830,0.20555
2875.34677,0.20627
2877.27524,0.21283
2879.20371,0.21796
2881.13218,0.21552
2883.06065,0.20840
2884.98911,0.20400
2886.91758,0.20355
2888.84605,0.20581
2890.77452,0.21218
2892.70299,0.21794
2894.63146,0.21712
2896.55993,0.21316
2898.48839,0.21118
2900.41686,0.21143
2902.34533,0.21201
2904.27380,0.21095
2906.20227,0.20954
2908.13074,0.20858
2910.05921,0.20462
2911.98768,0.19920
2913.91614,0.19692
2915.84461,0.19933
2917.77308,0.20609
2919.70155,0.21043
2921.63002,0.20727
2923.55849,0.20034
2925.48696,0.19323
2927.41542,0.19100
2929.34389,0.19877
2931.27236,0.20946
2933.20083,0.21127
2935.12930,0.20172
2937.05777,0.18954
2938.98624,0.18988
2940.91471,0.20117
2942.84317,0.20669
2944.77164,0.20215
2946.70011,0.19305
2948.62858,0.18893
2950.55705,0.19431
2952.48552,0.20011
2954.41399,0.19812
2956.34245,0.18703
2958.27092,0.18099
2960.19939,0.19392
2962.12786,0.20916
2964.05633,0.20943
2965.98480,0.20071
2967.91327,0.19400
2969.84174,0.19651
2971.77020,0.20423
2973.69867,0.20892
2975.62714,0.20704
2977.55561,0.19856
2979.48408,0.19393
2981.41255,0.19882
2983.34102,0.20494
2985.26948,0.20605
2987.19795,0.20101
2989.12642,0.19517
2991.05489,0.19726
2992.98336,0.20527
2994.91183,0.21010
2996.84030,0.20999
2998.76877,0.20940
3000.69723,0.21114
3002.62570,0.21320
3004.55417,0.21104
3006.48264,0.20424
3008.41111,0.19647
3010.33958,0.18610
3012.26805,0.16443
3014.19651,0.13021
3016.12498,0.10591
3018.05345,0.12225
3019.98192,0.16785
3021.91039,0.19999
3023.83886,0.20808
3025.76733,0.20510
3027.69579,0.19945
3029.62426,0.20049
3031.55273,0.20977
3033.48120,0.21634
3035.40967,0.21355
3037.33814,0.20774
3039.26661,0.20831
3041.19508,0.21456
3043.12354,0.21798
3045.05201,0.21391
3046.98048,0.20821
3048.90895,0.20847
3050.83742,0.21116
3052.76589,0.21344
3054.69436,0.21339
3056.62282,0.20708
3058.55129,0.20563
3060.47976,0.21459
3062.40823,0.22197
3064.33670,0.21823
3066.26517,0.20518
3068.19364,0.19924
3070.12211,0.20652
3072.05057,0.21343
3073.97904,0.21092
3075.90751,0.20314
3077.83598,0.20155
3079.76445,0.20810
3081.69292,0.21111
3083.62139,0.20208
3085.54985,0.19339
3087.47832,0.20040
3089.40679,0.21171
3091.33526,0.21385
3093.26373,0.20752
3095.19220,0.20035
3097.12067,0.20258
3099.04914,0.20955
3100.97760,0.21073
3102.90607,0.20606
3104.83454,0.20685
3106.76301,0.21608
3108.69148,0.22049
3110.61995,0.21401
3112.54842,0.20354
3114.47688,0.20069
3116.40535,0.20506
3118.33382,0.20673
3120.26229,0.20376
3122.19076,0.20348
3124.11923,0.21246
3126.04770,0.22107
3127.97617,0.21979
3129.90463,0.21097
3131.83310,0.20361
3133.76157,0.20678
3135.69004,0.21298
3137.61851,0.21125
3139.54698,0.20698
3141.47545,0.20983
3143.40391,0.21662
3145.33238,0.21852
3147.26085,0.21432
3149.18932,0.21104
3151.11779,0.21234
3153.04626,0.21378
3154.97473,0.21303
3156.90320,0.21185
3158.83166,0.21411
3160.76013,0.21889
3162.68860,0.22131
3164.61707,0.22033
3166.54554,0.21500
3168.47401,0.20805
3170.40248,0.20638
3172.33094,0.20845
3174.25941,0.20708
3176.18788,0.20579
3178.11635,0.21029
3180.04482,0.21532
3181.97329,0.21628
3183.90176,0.21465
3185.83022,0.21276
3187.75869,0.21103
3189.68716,0.20746
3191.61563,0.20448
3193.54410,0.20747
3195.47257,0.21174
3197.40104,0.21042
3199.32951,0.20801
3201.25797,0.20991
3203.18644,0.21428
3205.11491,0.21662
3207.04338,0.21321
3208.97185,0.20505
3210.90032,0.19986
3212.82879,0.20145
3214.75725,0.20678
3216.68572,0.21257
3218.61419,0.21286
3220.54266,0.20679
3222.47113,0.20367
3224.39960,0.20821
3226.32807,0.21480
3228.25654,0.21581
3230.18500,0.21363
3232.11347,0.21624
3234.04194,0.22006
3235.97041,0.21846
3237.89888,0.21409
3239.82735,0.21126
3241.75582,0.21090
3243.68428,0.21183
3245.61275,0.21189
3247.54122,0.20861
3249.46969,0.20485
3251.39816,0.20613
3253.32663,0.20887
3255.25510,0.20905
3257.18357,0.21358
3259.11203,0.22103
3261.04050,0.22189
3262.96897,0.22031
3264.89744,0.22041
3266.82591,0.21823
3268.75438,0.21462
3270.68285,0.21413
3272.61131,0.21854
3274.53978,0.22480
3276.46825,0.22696
3278.39672,0.22146
3280.32519,0.21362
3282.25366,0.21089
3284.18213,0.21508
3286.11060,0.22199
3288.03906,0.22484
3289.96753,0.22391
3291.89600,0.22252
3293.82447,0.22096
3295.75294,0.21898
3297.68141,0.21548
3299.60988,0.21326
3301.53834,0.21648
3303.46681,0.21915
3305.39528,0.21344
3307.32375,0.20471
3309.25222,0.20162
3311.18069,0.20355
3313.10916,0.20525
3315.03763,0.20486
3316.96609,0.20636
3318.89456,0.21258
3320.82303,0.21631
3322.75150,0.21256
3324.67997,0.20901
3326.60844,0.20896
3328.53691,0.20866
3330.46537,0.21083
3332.39384,0.21712
3334.32231,0.22087
3336.25078,0.21842
3338.17925,0.21434
3340.10772,0.21214
3342.03619,0.21024
3343.96466,0.20858
3345.89312,0.20997
3347.82159,0.21668
3349.75006,0.22530
3351.67853,0.22784
3353.60700,0.22519
3355.53547,0.22212
3357.46394,0.21783
3359.39240,0.21445
3361.32087,0.21330
3363.24934,0.21104
3365.17781,0.20767
3367.10628,0.20577
3369.03475,0.20753
3370.96322,0.21139
3372.89168,0.21215
3374.82015,0.21070
3376.74862,0.21021
3378.67709,0.20889
3380.60556,0.20675
3382.53403,0.20698
3384.46250,0.21023
3386.39097,0.21017
3388.31943,0.20248
3390.24790,0.19550
3392.17637,0.19705
3394.10484,0.20351
3396.03331,0.20989
3397.96178,0.21204
3399.89025,0.20854
3401.81871,0.20428
3403.74718,0.20080
3405.67565,0.19944
3407.60412,0.20138
3409.53259,0.20352
3411.46106,0.20336
3413.38953,0.20111
3415.31800,0.20207
3417.24646,0.20728
3419.17493,0.21055
3421.10340,0.20826
3423.03187,0.19987
3424.96034,0.19109
3426.88881,0.19059
3428.81728,0.19498
3430.74574,0.19649
3432.67421,0.19915
3434.60268,0.20408
3436.53115,0.20322
3438.45962,0.19702
3440.38809,0.19487
3442.31656,0.19992
3444.24503,0.20713
3446.17349,0.20958
3448.10196,0.20404
3450.03043,0.19962
3451.95890,0.20152
3453.88737,0.20192
3455.81584,0.19576
3457.74431,0.18883
3459.67277,0.19005
3461.60124,0.19484
3463.52971,0.19319
3465.45818,0.18835
3467.38665,0.18565
3469.31512,0.18310
3471.24359,0.18323
3473.17206,0.19097
3475.10052,0.19889
3477.02899,0.19911
3478.95746,0.19812
3480.88593,0.20023
3482.81440,0.19709
3484.74287,0.19024
3486.67134,0.19070
3488.59980,0.19512
3490.52827,0.19418
3492.45674,0.18744
3494.38521,0.18283
3496.31368,0.18680
3498.24215,0.19134
3500.17062,0.18955
3502.09909,0.18546
3504.02755,0.18218
3505.95602,0.18284
3507.88449,0.18801
3509.81296,0.19011
3511.74143,0.18510
3513.66990,0.17924
3515.59837,0.17672
3517.52683,0.17441
3519.45530,0.17083
3521.38377,0.17132
3523.31224,0.17618
3525.24071,0.17960
3527.16918,0.18153
3529.09765,0.18304
3531.02611,0.18076
3532.95458,0.17530
3534.88305,0.17458
3536.81152,0.18015
3538.73999,0.18372
3540.66846,0.18274
3542.59693,0.17942
3544.52540,0.17748
3546.45386,0.17703
3548.38233,0.17240
3550.31080,0.16741
3552.23927,0.16753
3554.16774,0.17101
3556.09621,0.17366
3558.02468,0.17166
3559.95314,0.16784
3561.88161,0.16959
3563.81008,0.17301
3565.73855,0.17258
3567.66702,0.17297
3569.59549,0.17251
3571.52396,0.16874
3573.45243,0.16395
3575.38089,0.15803
3577.30936,0.15305
3579.23783,0.15060
3581.16630,0.15007
3583.09477,0.15300
3585.02324,0.15996
3586.95171,0.16752
3588.88017,0.16790
3590.80864,0.16283
3592.73711,0.15810
3594.66558,0.15299
3596.59405,0.14821
3598.52252,0.14574
3600.45099,0.14606
3602.37946,0.14870
3604.30792,0.15070
3606.23639,0.15210
3608.16486,0.15448
3610.09333,0.15591
3612.02180,0.15570
3613.95027,0.15526
3615.87874,0.15410
3617.80720,0.14953
3619.73567,0.14330
3621.66414,0.14299
3623.59261,0.14641
3625.52108,0.14894
3627.44955,0.15170
3629.37802,0.15484
3631.30649,0.15189
3633.23495,0.14647
3635.16342,0.14470
3637.09189,0.14491
3639.02036,0.14216
3640.94883,0.13831
3642.87730,0.13858
3644.80577,0.14277
3646.73423,0.15025
3648.66270,0.16582
3650.59117,0.16906
3652.51964,0.15401
3654.44811,0.14401
3656.37658,0.14037
3658.30505,0.13941
3660.23352,0.13800
3662.16198,0.13320
3664.09045,0.12876
3666.01892,0.12957
3667.94739,0.13792
3669.87586,0.15002
3671.80433,0.15402
3673.73280,0.15682
3675.66126,0.15988
3677.58973,0.15302
3679.51820,0.14485
3681.44667,0.14010
3683.37514,0.14124
3685.30361,0.14807
3687.23208,0.15661
3689.16055,0.16462
3691.08901,0.16641
3693.01748,0.16290
3694.94595,0.15822
3696.87442,0.15197
3698.80289,0.14733
3700.73136,0.14508
3702.65983,0.14124
3704.58829,0.13611
3706.51676,0.13056
3708.44523,0.12644
3710.37370,0.12869
3712.30217,0.13102
3714.23064,0.12964
3716.15911,0.13451
3718.08757,0.14242
3720.01604,0.14491
3721.94451,0.14496
3723.87298,0.14419
3725.80145,0.13875
3727.72992,0.13689
3729.65839,0.14393
3731.58686,0.15716
3733.51532,0.17088
3735.44379,0.17136
3737.37226,0.16000
3739.30073,0.15257
3741.22920,0.14780
3743.15767,0.14296
3745.08614,0.14496
3747.01460,0.15099
3748.94307,0.15665
3750.87154,0.15861
3752.80001,0.14734
3754.72848,0.13963
3756.65695,0.13863
3758.58542,0.13647
3760.51389,0.13230
3762.44235,0.12973
3764.37082,0.12930
3766.29929,0.13011
3768.22776,0.13233
3770.15623,0.13392
3772.08470,0.13278
3774.01317,0.13136
3775.94163,0.12915
3777.87010,0.12634
3779.79857,0.12578
3781.72704,0.12609
3783.65551,0.12560
3785.58398,0.12471
3787.51245,0.12268
3789.44092,0.12040
3791.36938,0.11983
3793.29785,0.12120
3795.22632,0.12562
3797.15479,0.13088
3799.08326,0.13071
3801.01173,0.12550
3802.94020,0.12188
3804.86866,0.12514
3806.79713,0.12923
3808.72560,0.12844
3810.65407,0.12904
3812.58254,0.13031
3814.51101,0.12677
3816.43948,0.12369
3818.36795,0.12972
3820.29641,0.13459
3822.22488,0.12674
3824.15335,0.12130
3826.08182,0.12387
3828.01029,0.12799
3829.93876,0.13260
3831.86723,0.13811
3833.79569,0.14124
3835.72416,0.13951
3837.65263,0.13600
3839.58110,0.13253
3841.50957,0.12728
3843.43804,0.12453
3845.36651,0.12716
3847.29498,0.13306
3849.22344,0.14024
3851.15191,0.14858
3853.08038,0.15458
3855.00885,0.14695
3856.93732,0.13548
3858.86579,0.12633
3860.79426,0.12205
3862.72272,0.12496
3864.65119,0.13001
3866.57966,0.13335
3868.50813,0.13828
3870.43660,0.14060
3872.36507,0.13564
3874.29354,0.13366
3876.22200,0.13471
3878.15047,0.13410
3880.07894,0.13309
3882.00741,0.12745
3883.93588,0.11917
3885.86435,0.11708
3887.79282,0.12132
3889.72129,0.12647
3891.64975,0.12874
3893.57822,0.12617
3895.50669,0.12320
3897.43516,0.12105
3899.36363,0.11898
3901.29210,0.12086
3903.22057,0.12810
3905.14903,0.13178
3907.07750,0.12881
3909.00597,0.12457
3910.93444,0.12133
3912.86291,0.11974
3914.79138,0.11814
3916.71985,0.11504
3918.64832,0.11519
3920.57678,0.12012
3922.50525,0.12293
3924.43372,0.11959
3926.36219,0.11498
3928.29066,0.11533
3930.21913,0.12004
3932.14760,0.12428
3934.07606,0.12470
3936.00453,0.12465
3937.93300,0.12534
3939.86147,0.12318
3941.78994,0.11885
3943.71841,0.11698
3945.64688,0.11629
3947.57535,0.11449
3949.50381,0.11443
3951.43228,0.11515
3953.36075,0.11514
3955.28922,0.11774
3957.21769,0.12101
3959.14616,0.11881
3961.07463,0.11201
3963.00309,0.10712
3964.93156,0.10703
3966.86003,0.11080
3968.78850,0.11634
3970.71697,0.11779
3972.64544,0.11286
3974.57391,0.10939
3976.50238,0.11029
3978.43084,0.10785
3980.35931,0.10283
3982.28778,0.10282
3984.21625,0.10509
3986.14472,0.10478
3988.07319,0.10293
3990.00166,0.10074
3991.93012,0.09930
3993.85859,0.09760
3995.78706,0.09456
3997.71553,0.09379
3999.64400,0.09691
4001.57247,0.09797
4003.50094,0.09291
4005.42941,0.08926
4007.35787,0.09390
4009.28634,0.10062
4011.21481,0.10039
4013.14328,0.09671
4015.07175,0.09748
4017.00022,0.10014
4018.92869,0.09858
4020.85715,0.09205
4022.78562,0.08679
4024.71409,0.08936
4026.64256,0.09518
4028.57103,0.09768
4030.49950,0.09882
4032.42797,0.10109
4034.35644,0.10315
4036.28490,0.10295
4038.21337,0.10209
4040.14184,0.10177
4042.07031,0.09878
4043.99878,0.09618
4045.92725,0.09950
4047.85572,0.10204
4049.78418,0.09858
4051.71265,0.09746
4053.64112,0.10100
4055.56959,0.10145
4057.49806,0.10055
4059.42653,0.10253
4061.35500,0.10238
4063.28346,0.10013
4065.21193,0.10065
4067.14040,0.10020
4069.06887,0.09850
4070.99734,0.10264
4072.92581,0.10809
4074.85428,0.10767
4076.78275,0.10529
4078.71121,0.10402
4080.63968,0.10429
4082.56815,0.10692
4084.49662,0.10791
4086.42509,0.10507
4088.35356,0.10217
4090.28203,0.09776
4092.21049,0.09204
4094.13896,0.09460
4096.06743,0.10487
4097.99590,0.11108
4099.92437,0.11021
4101.85284,0.10749
4103.78131,0.10345
4105.70978,0.09769
4107.63824,0.09602
4109.56671,0.09826
4111.49518,0.09968
4113.42365,0.10031
4115.35212,0.09914
4117.28059,0.09739
4119.20906,0.09751
4121.13752,0.09619
4123.06599,0.09168
4124.99446,0.08777
4126.92293,0.08448
4128.85140,0.07779
4130.77987,0.07468
4132.70834,0.08416
4134.63681,0.09672
4136.56527,0.09867
4138.49374,0.09188
4140.42221,0.08716
4142.35068,0.08761
4144.27915,0.08738
4146.20762,0.08495
4148.13609,0.08342
4150.06455,0.08213
4151.99302,0.08048
4153.92149,0.08102
4155.84996,0.08346
4157.77843,0.08432
4159.70690,0.08202
4161.63537,0.07913
4163.56384,0.07759
4165.49230,0.07665
4167.42077,0.07593
4169.34924,0.07635
4171.27771,0.07867
4173.20618,0.08239
4175.13465,0.08471
4177.06312,0.08183
4178.99158,0.07896
4180.92005,0.08095
4182.84852,0.08118
4184.77699,0.07775
4186.70546,0.07560
4188.63393,0.07720
4190.56240,0.08051
4192.49087,0.08125
4194.41933,0.07701
4196.34780,0.07003
4198.27627,0.06387
4200.20474,0.05860
4202.13321,0.05785
4204.06168,0.06294
4205.99015,0.06505
4207.91861,0.06193
4209.84708,0.06227
4211.77555,0.06792
4213.70402,0.07090
4215.63249,0.06608
4217.56096,0.05994
4219.48943,0.06144
4221.41789,0.06366
4223.34636,0.06045
4225.27483,0.06304
4227.20330,0.07445
4229.13177,0.08131
4231.06024,0.07594
4232.98871,0.06614
4234.91718,0.06359
4236.84564,0.06803
4238.77411,0.07129
4240.70258,0.07117
4242.63105,0.06778
4244.55952,0.06445
4246.48799,0.06675
4248.41646,0.06866
4250.34492,0.06781
4252.27339,0.07212
4254.20186,0.07823
4256.13033,0.07912
4258.05880,0.07623
4259.98727,0.07133
4261.91574,0.06601
4263.84421,0.06029
4265.77267,0.05604
4267.70114,0.05835
4269.62961,0.06240
4271.55808,0.06281
4273.48655,0.06240
4275.41502,0.06183
4277.34349,0.05979
4279.27195,0.05910
4281.20042,0.06281
4283.12889,0.06528
4285.05736,0.06249
4286.98583,0.06034
4288.91430,0.06371
4290.84277,0.06979
4292.77124,0.07165
4294.69970,0.06767
4296.62817,0.06163
4298.55664,0.05807
4300.48511,0.06146
4302.41358,0.06795
4304.34205,0.06764
4306.27052,0.06053
4308.19898,0.05482
4310.12745,0.05460
4312.05592,0.05807
4313.98439,0.06263
4315.91286,0.06843
4317.84133,0.07283
4319.76980,0.06881
4321.69827,0.05756
4323.62673,0.05067
4325.55520,0.05336
4327.48367,0.05909
4329.41214,0.06248
4331.34061,0.05955
4333.26908,0.04945
4335.19755,0.04419
4337.12601,0.05100
4339.05448,0.05971
4340.98295,0.06150
4342.91142,0.05923
4344.83989,0.05749
4346.76836,0.05441
4348.69683,0.04856
4350.62530,0.04336
4352.55376,0.04283
4354.48223,0.04581
4356.41070,0.04736
4358.33917,0.04969
4360.26764,0.05461
4362.19611,0.05518
4364.12458,0.04926
4366.05304,0.04656
4367.98151,0.04903
4369.90998,0.04321
4371.83845,0.03068
4373.76692,0.02811
4375.69539,0.03574
4377.62386,0.04235
4379.55232,0.04609
4381.48079,0.04813
4383.40926,0.04622
4385.33773,0.04466
4387.26620,0.04630
4389.19467,0.04497
4391.12314,0.04030
4393.05161,0.03747
4394.98007,0.03257
4396.90854,0.02334
4398.83701,0.01774
4400.76548,0.01554
4402.69395,0.01170
4404.62242,0.01114
4406.55089,0.01679
4408.47935,0.02367
4410.40782,0.02847
4412.33629,0.03063
4414.26476,0.03265
4416.19323,0.03629
4418.12170,0.03649
4420.05017,0.03315
4421.97864,0.03041
4423.90710,0.02499
4425.83557,0.01626
4427.76404,0.01362
4429.69251,0.02197
4431.62098,0.02886
4433.54945,0.02511
4435.47792,0.01920
4437.40638,0.01775
4439.33485,0.02196
4441.26332,0.03220
4443.19179,0.04065
4445.12026,0.03559
4447.04873,0.02262
4448.97720,0.02137
4450.90567,0.02874
4452.83413,0.02608
4454.76260,0.02117
4456.69107,0.02760
4458.61954,0.03210
4460.54801,0.02323
4462.47648,0.01234
4464.40495,0.01175
4466.33341,0.02020
4468.26188,0.02692
4470.19035,0.02549
4472.11882,0.02411
4474.04729,0.03149
4475.97576,0.04125
4477.90423,0.04221
4479.83270,0.03152
4481.76116,0.02033
4483.68963,0.02595
4485.61810,0.04155
4487.54657,0.04577
4489.47504,0.03898
4491.40351,0.03400
4493.33198,0.03457
4495.26044,0.03537
4497.18891,0.03348
4499.11738,0.02923
4501.04585,0.02513
4502.97432,0.02529
4504.90279,0.02725
4506.83126,0.02971
4508.75973,0.03454
4510.68819,0.03717
4512.61666,0.03592
4514.54513,0.03608
4516.47360,0.03680
4518.40207,0.03490
4520.33054,0.03131
4522.25901,0.02676
4524.18747,0.02511
4526.11594,0.02550
4528.04441,0.02235
4529.97288,0.01789
4531.90135,0.01854
4533.82982,0.02330
4535.75829,0.02236
4537.68676,0.01504
4539.61522,0.01206
4541.54369,0.01666
4543.47216,0.02144
4545.40063,0.01913
4547.32910,0.01129
4549.25757,0.00614
4551.18604,0.00502
4553.11450,0.00206
4555.04297,-0.00060
4556.97144,-0.00004
4558.89991,0.00263
4560.82838,0.00848
4562.75685,0.01092
4564.68532,0.00459
4566.61378,0.00005
4568.54225,0.00573
4570.47072,0.00982
4572.39919,0.00462
4574.32766,0.00057
4576.25613,0.00350
4578.18460,0.01038
4580.11307,0.01174
4582.04153,0.00486
4583.97000,0.00444
4585.89847,0.00992
4587.82694,0.00467
4589.75541,-0.00660
4591.68388,-0.00936
4593.61235,-0.00247
4595.54081,0.00865
4597.46928,0.01498
4599.39775,0.01227
4601.32622,0.00606
4603.25469,0.00544
4605.18316,0.01516
4607.11163,0.02354
4609.04010,0.01744
4610.96856,0.00072
4612.89703,-0.01138
4614.82550,-0.00985
4616.75397,-0.00281
4618.68244,0.00076
4620.61091,0.00553
4622.53938,0.00995
4624.46784,0.00383
4626.39631,-0.00329
4628.32478,0.00436
4630.25325,0.01403
4632.18172,0.01001
4634.11019,0.00494
4636.03866,0.00477
4637.96713,-0.00221
4639.89559,-0.00801
4641.82406,-0.00353
4643.75253,-0.00192
4645.68100,-0.00700
4647.60947,-0.00928
4649.53794,-0.00536
4651.46641,0.00409
4653.39487,0.01442
4655.32334,0.01935
4657.25181,0.01853
4659.18028,0.01581
4661.10875,0.01455
4663.03722,0.01490
4664.96569,0.01458
4666.89416,0.01228
4668.82262,0.00935
4670.75109,0.00746
4672.67956,0.00647
4674.60803,0.00746
4676.53650,0.01042
4678.46497,0.01156
4680.39344,0.01172
4682.32190,0.01588
4684.25037,0.02488
4686.17884,0.03100
4688.10731,0.02295
4690.03578,0.00901
4691.96425,0.00592
4693.89272,0.00977
4695.82119,0.01053
4697.74965,0.00719
4699.67812,0.00465
4701.60659,0.00659
4703.53506,0.01383
4705.46353,0.02233
4707.39200,0.02272
4709.32047,0.01838
4711.24893,0.01841
4713.17740,0.01698
4715.10587,0.01076
4717.03434,0.01037
4718.96281,0.01346
4720.89128,0.00927
4722.81975,0.00628
4724.74821,0.00996
4726.67668,0.01346
4728.60515,0.01748
4730.53362,0.02385
4732.46209,0.02898
4734.39056,0.02696
4736.31903,0.01969
4738.24750,0.01853
4740.17596,0.02369
4742.10443,0.02338
4744.03290,0.01500
4745.96137,0.00928
4747.88984,0.01216
4749.81831,0.01610
4751.74678,0.01695
4753.67524,0.01372
4755.60371,0.00791
4757.53218,0.01465
4759.46065,0.03273
4761.38912,0.03751
4763.31759,0.02202
4765.24606,0.00824
4767.17453,0.01098
4769.10299,0.01330
4771.03146,0.00368
4772.95993,-0.00478
4774.88840,-0.00756
4776.81687,-0.01221
4778.74534,-0.01502
4780.67381,-0.00749
4782.60227,0.00637
4784.53074,0.01678
4786.45921,0.01812
4788.38768,0.00941
4790.31615,-0.00208
4792.24462,-0.01247
4794.17309,-0.01800
4796.10156,-0.01164
4798.03002,0.00470
4799.95849,0.01831
4801.88696,0.01890
4803.81543,0.00906
4805.74390,0.00415
4807.67237,0.00463
4809.60084,0.00297
4811.52930,0.00287
4813.45777,0.00646
4815.38624,0.01330
4817.31471,0.02023
4819.24318,0.01339
4821.17165,-0.00016
4823.10012,-0.00123
4825.02859,0.00942
4826.95705,0.01435
4828.88552,0.00681
4830.81399,-0.00375
4832.74246,-0.00840
4834.67093,-0.00052
4836.59940,0.01942
4838.52787,0.02974
4840.45633,0.02233
4842.38480,0.01782
4844.31327,0.02028
4846.24174,0.02112
4848.17021,0.02093
4850.09868,0.01711
4852.02715,0.00505
4853.95562,-0.00792
4855.88408,-0.00847
4857.81255,0.00250
4859.74102,0.01636
4861.66949,0.03121
4863.59796,0.04068
4865.52643,0.03487
4867.45490,0.01900
4869.38336,0.00447
4871.31183,-0.00529
4873.24030,-0.00267
4875.16877,0.01157
4877.09724,0.01949
4879.02571,0.02242
4880.95418,0.02759
4882.88265,0.02506
4884.81111,0.02341
4886.73958,0.02850
4888.66805,0.02433
4890.59652,0.01951
4892.52499,0.02889
4894.45346,0.03531
4896.38193,0.03100
4898.31039,0.02897
4900.23886,0.02584
4902.16733,0.02142
4904.09580,0.02178
4906.02427,0.01768
4907.95274,0.01119
4909.88121,0.00675
4911.80967,-0.00203
4913.73814,-0.00755
4915.66661,0.00284
4917.59508,0.02262
4919.52355,0.03262
4921.45202,0.02782
4923.38049,0.02026
4925.30896,0.01470
4927.23742,0.00951
4929.16589,0.00867
4931.09436,0.01048
4933.02283,0.01342
4934.95130,0.02045
4936.87977,0.02443
4938.80824,0.02356
4940.73670,0.02507
4942.66517,0.02943
4944.59364,0.03654
4946.52211,0.04311
4948.45058,0.03925
4950.37905,0.03206
4952.30752,0.03497
4954.23599,0.03822
4956.16445,0.03281
4958.09292,0.02088
4960.02139,0.00269
4961.94986,-0.01343
4963.87833,-0.01493
4965.80680,0.00010
4967.73527,0.01348
4969.66373,0.00960
4971.59220,0.00006
4973.52067,-0.00035
4975.44914,0.00712
4977.37761,0.01433
4979.30608,0.01681
4981.23455,0.01913
4983.16302,0.02176
4985.09148,0.01873
4987.01995,0.01748
4988.94842,0.02481
4990.87689,0.03243
4992.80536,0.03187
4994.73383,0.02460
4996.66230,0.02488
4998.59076,0.03256
5000.51923,0.02496
5002.44770,0.00035
5004.37617,-0.02445
5006.30464,-0.03674
5008.23311,-0.03089
5010.16158,-0.01530
5012.09005,-0.00129
5014.01851,0.01201
5015.94698,0.01626
5017.87545,0.00600
5019.80392,-0.00431
5021.73239,-0.00022
5023.66086,0.01923
5025.58933,0.03168
5027.51779,0.02219
5029.44626,0.01020
5031.37473,0.00633
5033.30320,0.00392
5035.23167,0.00340
5037.16014,0.00683
5039.08861,0.00847
5041.01708,-0.00010
5042.94554,-0.01295
5044.87401,-0.01140
5046.80248,0.00501
5048.73095,0.01925
5050.65942,0.02356
5052.58789,0.02062
5054.51636,0.01569
5056.44482,0.01506
5058.37329,0.02026
5060.30176,0.02585
5062.23023,0.03042
5064.15870,0.03446
5066.08717,0.03660
5068.01564,0.04020
5069.94410,0.04256
5071.87257,0.04377
5073.80104,0.05325
5075.72951,0.06380
5077.65798,0.05810
5079.58645,0.04230
5081.51492,0.03288
5083.44339,0.03156
5085.37185,0.03932
5087.30032,0.05281
5089.22879,0.05914
5091.15726,0.05838
5093.08573,0.05479
5095.01420,0.04727
5096.94267,0.03624
5098.87113,0.02615
5100.79960,0.02308
5102.72807,0.02665
5104.65654,0.03565
5106.58501,0.04096
5108.51348,0.03146
5110.44195,0.01771
5112.37042,0.01693
5114.29888,0.02781
5116.22735,0.03706
5118.15582,0.04323
5120.08429,0.04409
5122.01276,0.03421
5123.94123,0.02571
5125.86970,0.02626
5127.79816,0.02697
5129.72663,0.02551
5131.65510,0.02675
5133.58357,0.02960
5135.51204,0.03391
5137.44051,0.04450
5139.36898,0.06252
5141.29745,0.06847
5143.22591,0.04751
5145.15438,0.02440
5147.08285,0.01515
5149.01132,0.00823
5150.93979,0.00329
5152.86826,0.01233
5154.79673,0.03374
5156.72519,0.04690
5158.65366,0.04527
5160.58213,0.04346
5162.51060,0.04699
5164.43907,0.04686
5166.36754,0.03902
5168.29601,0.02782
5170.22448,0.01756
5172.15294,0.02071
5174.08141,0.03076
5176.00988,0.02617
5177.93835,0.01710
5179.86682,0.01569
5181.79529,0.01658
5183.72376,0.02624
5185.65222,0.04059
5187.58069,0.04652
5189.50916,0.04142
5191.43763,0.02410
5193.36610,0.00881
5195.29457,0.00181
5197.22304,-0.00997
5199.15151,-0.01604
5201.07997,-0.00198
5203.00844,0.02289
5204.93691,0.03543
5206.86538,0.02053
5208.79385,0.00761
5210.72232,0.01659
5212.65079,0.02383
5214.57925,0.01704
5216.50772,0.01203
5218.43619,0.01441
5220.36466,0.01053
5222.29313,0.00507
5224.22160,0.00268
5226.15007,-0.00753
5228.07854,-0.01571
5230.00700,-0.00478
5231.93547,0.01385
5233.86394,0.02349
5235.79241,0.03320
5237.72088,0.05089
5239.64935,0.06193
5241.57782,0.05151
5243.50628,0.03489
5245.43475,0.04480
5247.36322,0.07236
5249.29169,0.07816
5251.22016,0.04913
5253.14863,0.02170
5255.07710,0.02473
5257.00556,0.03334
5258.93403,0.03043
5260.86250,0.03138
5262.79097,0.04094
5264.71944,0.04821
5266.64791,0.04870
5268.57638,0.05218
5270.50485,0.06112
5272.43331,0.05839
5274.36178,0.03774
5276.29025,0.02600
5278.21872,0.03937
5280.14719,0.06513
5282.07566,0.08252
5284.00413,0.07761
5285.93259,0.05828
5287.86106,0.03746
5289.78953,0.03140
5291.71800,0.05322
5293.64647,0.07662
5295.57494,0.07953
5297.50341,0.07630
5299.43188,0.08321
5301.36034,0.08910
5303.28881,0.07622
5305.21728,0.06192
5307.14575,0.07649
5309.07422,0.08653
5311.00269,0.05679
5312.93116,0.03967
5314.85962,0.06134
5316.78809,0.07459
5318.71656,0.06807
5320.64503,0.07159
5322.57350,0.08106
5324.50197,0.08124
5326.43044,0.06781
5328.35891,0.05778
5330.28737,0.07966
5332.21584,0.10741
5334.14431,0.10724
5336.07278,0.09596
5338.00125,0.08476
5339.92972,0.07036
5341.85819,0.07209
5343.78665,0.09645
5345.71512,0.11539
5347.64359,0.12535
5349.57206,0.13165
5351.50053,0.11599
5353.42900,0.09087
5355.35747,0.08177
5357.28594,0.07711
5359.21440,0.06342
5361.14287,0.05072
5363.07134,0.05014
5364.99981,0.05707
5366.92828,0.05358
5368.85675,0.02690
5370.78522,0.00961
5372.71368,0.03243
5374.64215,0.06203
5376.57062,0.06774
5378.49909,0.05285
5380.42756,0.02036
5382.35603,-0.00255
5384.28450,0.01345
5386.21297,0.04314
5388.14143,0.04058
5390.06990,0.01828
5391.99837,0.01784
5393.92684,0.05192
5395.85531,0.07633
5397.78378,0.07570
5399.71225,0.08015
5401.64071,0.08174
5403.56918,0.06216
5405.49765,0.03817
5407.42612,0.02948
5409.35459,0.02965
5411.28306,0.02837
5413.21153,0.02981
5415.13999,0.03044
5417.06846,0.02563
5418.99693,0.02196
5420.92540,0.02653
5422.85387,0.03546
5424.78234,0.03618
5426.71081,0.02573
5428.63928,0.01734
5430.56774,0.02169
5432.49621,0.02860
5434.42468,0.04377
5436.35315,0.06811
5438.28162,0.07123
5440.21009,0.04959
5442.13856,0.03464
5444.06702,0.04670
5445.99549,0.06727
5447.92396,0.07368
5449.85243,0.06999
5451.78090,0.06614
5453.70937,0.06525
5455.63784,0.07454
5457.56631,0.10247
5459.49477,0.13135
5461.42324,0.13497
5463.35171,0.10961
5465.28018,0.07167
5467.20865,0.05085
5469.13712,0.05547
5471.06559,0.06146
5472.99405,0.05944
5474.92252,0.06202
5476.85099,0.07668
5478.77946,0.09170
5480.70793,0.09003
5482.63640,0.06640
5484.56487,0.04643
5486.49334,0.05875
5488.42180,0.08424
5490.35027,0.10223
5492.27874,0.12777
5494.20721,0.13435
5496.13568,0.10185
5498.06415,0.08602
5499.99262,0.10132
5501.92108,0.09111
5503.84955,0.06153
5505.77802,0.06427
5507.70649,0.08644
5509.63496,0.09020
5511.56343,0.09029
5513.49190,0.10137
5515.42037,0.10397
5517.34883,0.09154
5519.27730,0.07612
5521.20577,0.05959
5523.13424,0.05036
5525.06271,0.06769
5526.99118,0.10470
5528.91965,0.13529
5530.84811,0.13946
5532.77658,0.11459
5534.70505,0.08176
5536.63352,0.06738
5538.56199,0.06960
5540.49046,0.07038
5542.41893,0.07252
5544.34740,0.08070
5546.27586,0.08252
5548.20433,0.06725
5550.13280,0.04562
5552.06127,0.04217
5553.98974,0.05824
5555.91821,0.06366
5557.84668,0.05339
5559.77514,0.06122
5561.70361,0.08347
5563.63208,0.09308
5565.56055,0.09218
5567.48902,0.07745
5569.41749,0.05091
5571.34596,0.03186
5573.27443,0.02236
5575.20289,0.00605
5577.13136,-0.01742
5579.05983,-0.01802
5580.98830,0.01140
5582.91677,0.04232
5584.84524,0.06485
5586.77371,0.08207
5588.70217,0.08188
5590.63064,0.05933
5592.55911,0.04180
5594.48758,0.04923
5596.41605,0.05947
5598.34452,0.05875
5600.27299,0.07401
5602.20145,0.10020
5604.12992,0.09093
5606.05839,0.04896
5607.98686,0.02691
5609.91533,0.04750
5611.84380,0.06677
5613.77227,0.04796
5615.70074,0.01721
5617.62920,-0.00204
5619.55767,-0.00046
5621.48614,0.02531
5623.41461,0.05984
5625.34308,0.08223
5627.27155,0.08648
5629.20002,0.08325
5631.12848,0.06231
5633.05695,0.02494
5634.98542,-0.00074
5636.91389,-0.01065
5638.84236,-0.00959
5640.77083,0.00011
5642.69930,0.01037
5644.62777,0.02785
5646.55623,0.05207
5648.48470,0.05464
5650.41317,0.03701
5652.34164,0.04044
5654.27011,0.07295
5656.19858,0.10989
5658.12705,0.13865
5660.05551,0.16406
5661.98398,0.17618
5663.91245,0.16296
5665.84092,0.14301
5667.76939,0.11595
5669.69786,0.08371
5671.62633,0.07648
5673.55480,0.08544
5675.48326,0.07809
5677.41173,0.06036
5679.34020,0.07034
5681.26867,0.11038
5683.19714,0.13559
5685.12561,0.12966
5687.05408,0.11190
5688.98254,0.08382
5690.91101,0.05830
5692.83948,0.06621
5694.76795,0.09311
5696.69642,0.10688
5698.62489,0.10771
5700.55336,0.10443
5702.48183,0.09674
5704.41029,0.09197
5706.33876,0.10216
5708.26723,0.11966
5710.19570,0.11835
5712.12417,0.09921
5714.05264,0.09699
5715.98111,0.10684
5717.90957,0.09612
5719.83804,0.08030
5721.76651,0.09613
5723.69498,0.13765
5725.62345,0.16313
5727.55192,0.15289
5729.48039,0.13138
5731.40886,0.12464
5733.33732,0.13196
5735.26579,0.13759
5737.19426,0.11621
5739.12273,0.07629
5741.05120,0.06072
5742.97967,0.07199
5744.90814,0.07294
5746.83660,0.06034
5748.76507,0.05922
5750.69354,0.06058
5752.62201,0.04940
5754.55048,0.03863
5756.47895,0.03627
5758.40742,0.03948
5760.33588,0.04322
5762.26435,0.04979
5764.19282,0.06000
5766.12129,0.06642
5768.04976,0.07790
5769.97823,0.11300
5771.90670,0.15180
5773.83517,0.15151
5775.76363,0.12328
5777.69210,0.10458
5779.62057,0.08863
5781.54904,0.05500
5783.47751,0.02501
5785.40598,0.03343
5787.33445,0.07680
5789.26291,0.10883
5791.19138,0.09686
5793.11985,0.05174
5795.04832,0.01121
5796.97679,-0.00254
5798.90526,-0.02243
5800.83373,-0.06384
5802.76220,-0.08867
5804.69066,-0.07678
5806.61913,-0.04191
5808.54760,-0.00584
5810.47607,0.02331
5812.40454,0.05349
5814.33301,0.06801
5816.26148,0.04967
5818.18994,0.03713
5820.11841,0.05615
5822.04688,0.07249
5823.97535,0.08261
5825.90382,0.11159
5827.83229,0.13350
5829.76076,0.11260
5831.68923,0.08042
5833.61769,0.06716
5835.54616,0.04543
5837.47463,0.01441
5839.40310,0.02420
5841.33157,0.07302
5843.26004,0.10297
5845.18851,0.11642
5847.11697,0.13569
5849.04544,0.13318
5850.97391,0.12347
5852.90238,0.14948
5854.83085,0.18917
5856.75932,0.20782
5858.68779,0.19548
5860.61626,0.15580
5862.54472,0.10613
5864.47319,0.08502
5866.40166,0.10803
5868.33013,0.11774
5870.25860,0.09982
5872.18707,0.10506
5874.11554,0.13442
5876.04400,0.16756
5877.97247,0.18617
5879.90094,0.16801
5881.82941,0.13798
5883.75788,0.13078
5885.68635,0.13386
5887.61482,0.13347
5889.54329,0.14022
5891.47175,0.14280
5893.40022,0.11140
5895.32869,0.06389
5897.25716,0.04994
5899.18563,0.06711
5901.11410,0.08586
5903.04257,0.08829
5904.97103,0.05950
5906.89950,0.03150
5908.82797,0.05168
5910.75644,0.09991
5912.68491,0.13467
5914.61338,0.14727
5916.54185,0.12604
5918.47032,0.08379
5920.39878,0.06339
5922.32725,0.07503
5924.25572,0.08281
5926.18419,0.04332
5928.11266,0.01372
5930.04113,0.05277
5931.96960,0.08254
5933.89806,0.06425
5935.82653,0.05838
5937.75500,0.08662
5939.68347,0.10632
5941.61194,0.09452
5943.54041,0.07430
5945.46888,0.06243
5947.39734,0.06208
5949.32581,0.06845
5951.25428,0.07361
5953.18275,0.09765
5955.11122,0.15703
5957.03969,0.20680
5958.96816,0.19162
5960.89663,0.14617
5962.82509,0.13571
5964.75356,0.13752
5966.68203,0.08507
5968.61050,-0.00592
5970.53897,-0.04808
5972.46744,-0.03030
5974.39591,0.01936
5976.32437,0.06960
5978.25284,0.07261
5980.18131,0.06081
5982.10978,0.06894
5984.03825,0.04666
5985.96672,0.01948
5987.89519,0.06644
5989.82366,0.12170
5991.75212,0.10529
5993.68059,0.07638
5995.60906,0.07285
5997.53753,0.05623
5999.46600,0.03980
6001.39447,0.03255
6003.32294,0.03780
6005.25140,0.07901
6007.17987,0.11367
6009.10834,0.12094
6011.03681,0.12669
6012.96528,0.11137
6014.89375,0.06830
6016.82222,0.02288
6018.75069,-0.00856
6020.67915,-0.00708
6022.60762,0.01700
6024.53609,0.03969
6026.46456,0.07394
6028.39303,0.09801
6030.32150,0.07732
6032.24997,0.05586
6034.17843,0.07156
6036.10690,0.09236
6038.03537,0.08022
6039.96384,0.07052
6041.89231,0.08804
6043.82078,0.10007
6045.74925,0.10490
6047.67772,0.09348
6049.60618,0.05614
6051.53465,0.04330
6053.46312,0.05609
6055.39159,0.07389
6057.32006,0.10176
6059.24853,0.11295
6061.17700,0.09026
6063.10546,0.06668
6065.03393,0.07855
6066.96240,0.09575
6068.89087,0.08826
6070.81934,0.08325
6072.74781,0.10068
6074.67628,0.12918
6076.60475,0.15176
6078.53321,0.16612
6080.46168,0.16421
6082.39015,0.12704
6084.31862,0.06581
6086.24709,0.04019
6088.17556,0.08776
6090.10403,0.14548
6092.03249,0.15996
6093.96096,0.13760
6095.88943,0.10047
6097.81790,0.06876
6099.74637,0.05434
6101.67484,0.08718
6103.60331,0.13610
6105.53177,0.13779
6107.46024,0.12365
6109.38871,0.14307
6111.31718,0.18332
6113.24565,0.20708
6115.17412,0.18605
6117.10259,0.12516
6119.03106,0.08479
6120.95952,0.10946
6122.88799,0.13675
6124.81646,0.11481
6126.74493,0.08719
6128.67340,0.10087
6130.60187,0.10345
6132.53034,0.08102
6134.45880,0.08088
6136.38727,0.08223
6138.31574,0.08856
6140.24421,0.11865
6142.17268,0.10391
6144.10115,0.04367
6146.02962,0.02215
6147.95809,0.03091
6149.88655,0.02809
6151.81502,0.00272
6153.74349,-0.02573
6155.67196,-0.03152
6157.60043,-0.03101
6159.52890,-0.00698
6161.45737,0.05218
6163.38583,0.07154
6165.31430,0.04127
6167.24277,0.03773
6169.17124,0.08397
6171.09971,0.13848
6173.02818,0.15297
6174.95665,0.13296
6176.88512,0.10259
6178.81358,0.08563
6180.74205,0.09261
6182.67052,0.10661
6184.59899,0.13208
6186.52746,0.14701
6188.45593,0.10216
6190.38440,0.02857
6192.31286,-0.00591
6194.24133,0.01660
6196.16980,0.04885
6198.09827,0.05058
6200.02674,0.03903
6201.95521,0.02754
6203.88368,0.01287
6205.81215,0.01678
6207.74061,0.05072
6209.66908,0.06899
6211.59755,0.05987
6213.52602,0.07607
6215.45449,0.09136
6217.38296,0.08224
6219.31143,0.08855
6221.23989,0.10861
6223.16836,0.13959
6225.09683,0.16517
6227.02530,0.13268
6228.95377,0.10227
6230.88224,0.15752
6232.81071,0.21634
6234.73918,0.16456
6236.66764,0.07720
6238.59611,0.06785
6240.52458,0.10714
6242.45305,0.11917
6244.38152,0.12477
6246.30999,0.15690
6248.23846,0.16676
6250.16692,0.13976
6252.09539,0.13268
6254.02386,0.14495
6255.95233,0.14886
6257.88080,0.13708
6259.80927,0.12554
6261.73774,0.13983
6263.66621,0.14052
6265.59467,0.11505
6267.52314,0.10520
6269.45161,0.08506
6271.38008,0.07284
6273.30855,0.09349
6275.23702,0.08784
6277.16549,0.06394
6279.09395,0.06692
6281.02242,0.07984
6282.95089,0.10520
6284.87936,0.12726
6286.80783,0.12427
6288.73630,0.14090
6290.66477,0.18004
6292.59323,0.19203
6294.52170,0.20095
6296.45017,0.21427
6298.37864,0.20385
6300.30711,0.20030
6302.23558,0.19974
6304.16405,0.16854
6306.09252,0.13456
6308.02098,0.10446
6309.94945,0.08451
6311.87792,0.11082
6313.80639,0.15744
6315.73486,0.17325
6317.66333,0.14274
6319.59180,0.05934
6321.52026,-0.02215
6323.44873,-0.02473
6325.37720,0.04163
6327.30567,0.14080
6329.23414,0.20939
6331.16261,0.18743
6333.09108,0.12769
6335.01955,0.10455
6336.94801,0.09845
6338.87648,0.07514
6340.80495,0.05416
6342.73342,0.05262
6344.66189,0.06351
6346.59036,0.07210
6348.51883,0.08627
6350.44729,0.11341
6352.37576,0.12774
6354.30423,0.12570
6356.23270,0.12868
6358.16117,0.13085
6360.08964,0.11176
6362.01811,0.10174
6363.94658,0.10788
6365.87504,0.08453
6367.80351,0.02964
6369.73198,-0.02536
6371.66045,-0.03489
6373.58892,0.02478
6375.51739,0.11514
6377.44586,0.19329
6379.37432,0.22573
6381.30279,0.18621
6383.23126,0.10115
6385.15973,0.04911
6387.08820,0.01766
6389.01667,-0.02181
6390.94514,-0.01332
6392.87361,0.02720
6394.80207,-0.00484
6396.73054,-0.05585
6398.65901,-0.04918
6400.58748,-0.00037
6402.51595,0.08076
6404.44442,0.16630
6406.37289,0.19618
6408.30135,0.13873
6410.22982,0.05681
6412.15829,0.03709
6414.08676,0.06883
6416.01523,0.10236
6417.94370,0.11847
6419.87217,0.10522
6421.80064,0.06345
6423.72910,0.01398
6425.65757,-0.00487
6427.58604,0.02723
6429.51451,0.06111
6431.44298,0.04702
6433.37145,0.02788
6435.29992,0.04066
6437.22838,0.05343
6439.15685,0.04628
6441.08532,0.05067
6443.01379,0.05962
6444.94226,0.03487
6446.87073,0.01903
6448.79920,0.03612
6450.72766,0.03908
6452.65613,0.03765
6454.58460,0.06198
6456.51307,0.08493
6458.44154,0.10919
6460.37001,0.16412
6462.29848,0.20632
6464.22695,0.17634
6466.15541,0.09379
6468.08388,0.06165
6470.01235,0.13054
6471.94082,0.19842
6473.86929,0.21440
6475.79776,0.22895
6477.72623,0.24807
6479.65469,0.21493
6481.58316,0.12437
6483.51163,0.07423
6485.44010,0.10172
6487.36857,0.15344
6489.29704,0.14988
6491.22551,0.08049
6493.15398,0.05578
6495.08244,0.10267
6497.01091,0.14866
6498.93938,0.16984
6500.86785,0.15671
6502.79632,0.11945
6504.72479,0.10935
6506.65326,0.14748
6508.58172,0.17310
6510.51019,0.12709
6512.43866,0.08042
6514.36713,0.11183
6516.29560,0.16154
6518.22407,0.17780
6520.15254,0.19938
6522.08101,0.24014
6524.00947,0.24966
6525.93794,0.19027
6527.86641,0.12006
6529.79488,0.08598
6531.72335,0.05562
6533.65182,0.04643
6535.58029,0.09069
6537.50875,0.15402
6539.43722,0.20218
6541.36569,0.20163
6543.29416,0.13024
6545.22263,0.03831
6547.15110,-0.01078
6549.07957,-0.00366
6551.00804,0.04568
6552.93650,0.07819
6554.86497,0.06268
6556.79344,0.03041
6558.72191,0.01803
6560.65038,0.01998
6562.57885,0.00663
6564.50732,0.01536
6566.43578,0.02039
6568.36425,-0.07748
6570.29272,-0.17033
6572.22119,-0.11112
6574.14966,0.01035
6576.07813,0.06629
6578.00660,0.05783
6579.93507,0.02009
6581.86353,0.01230
6583.79200,0.04549
6585.72047,0.02638
6587.64894,-0.03390
6589.57741,-0.02876
6591.50588,0.03283
6593.43435,0.05627
6595.36281,0.06264
6597.29128,0.11129
6599.21975,0.13073
6601.14822,0.05946
6603.07669,-0.01674
6605.00516,-0.03557
6606.93363,-0.04335
6608.86210,-0.02526
6610.79056,0.06423
6612.71903,0.11788
6614.64750,0.08850
6616.57597,0.08527
6618.50444,0.08482
6620.43291,0.01546
6622.36138,-0.04483
6624.28984,-0.02000
6626.21831,0.03125
6628.14678,0.01084
6630.07525,-0.04338
6632.00372,-0.00699
6633.93219,0.09457
6635.86066,0.16215
6637.78912,0.15064
6639.71759,0.09893
6641.64606,0.07365
6643.57453,0.11766
6645.50300,0.15048
6647.43147,0.11646
6649.35994,0.11811
6651.28841,0.12193
6653.21687,0.07877
6655.14534,0.08868
6657.07381,0.17452
6659.00228,0.22568
6660.93075,0.21758
6662.85922,0.21883
6664.78769,0.22720
6666.71615,0.21557
6668.64462,0.21641
6670.57309,0.24735
6672.50156,0.25305
6674.43003,0.20459
6676.35850,0.17362
6678.28697,0.19215
6680.21544,0.21133
6682.14390,0.16107
6684.07237,0.07297
6686.00084,0.05794
6687.92931,0.07172
6689.85778,0.05678
6691.78625,0.07859
6693.71472,0.13396
6695.64318,0.17064
6697.57165,0.16922
6699.50012,0.17012
6701.42859,0.16418
6703.35706,0.12553
6705.28553,0.11818
6707.21400,0.12623
6709.14247,0.08979
6711.07093,0.07856
6712.99940,0.10188
6714.92787,0.11265
6716.85634,0.15436
6718.78481,0.22494
6720.71328,0.20885
6722.64175,0.09822
6724.57021,0.03001
6726.49868,0.04085
6728.42715,0.05924
6730.35562,0.06958
6732.28409,0.07734
6734.21256,0.04253
6736.14103,0.01543
6738.06950,0.06583
6739.99796,0.07591
6741.92643,-0.01798
6743.85490,-0.04801
6745.78337,0.03455
6747.71184,0.12628
6749.64031,0.14536
6751.56878,0.07625
6753.49724,0.00547
6755.42571,0.01630
6757.35418,0.02794
6759.28265,-0.00964
6761.21112,-0.01501
6763.13959,0.01899
6765.06806,-0.00927
6766.99653,-0.07433
6768.92499,-0.05713
6770.85346,-0.01934
6772.78193,-0.07044
6774.71040,-0.12851
6776.63887,-0.08792
6778.56734,-0.02230
6780.49581,-0.02732
6782.42427,-0.06625
6784.35274,-0.06388
6786.28121,-0.01429
6788.20968,0.04620
6790.13815,0.07990
6792.06662,0.04862
6793.99509,-0.00237
6795.92355,-0.04485
6797.85202,-0.10126
6799.78049,-0.12345
6801.70896,-0.03165
6803.63743,0.13496
6805.56590,0.21077
6807.49437,0.18839
6809.42284,0.13554
6811.35130,0.05593
6813.27977,0.03378
6815.20824,0.07582
6817.13671,0.08114
6819.06518,0.10805
6820.99365,0.20285
6822.92212,0.21021
6824.85058,0.07424
6826.77905,-0.02994
6828.70752,0.00017
6830.63599,0.07612
6832.56446,0.08915
6834.49293,0.11469
6836.42140,0.17271
6838.34987,0.17949
6840.27833,0.13910
6842.20680,0.11796
6844.13527,0.14614
6846.06374,0.17177
6847.99221,0.17958
6849.92068,0.23816
6851.84915,0.27622
6853.77761,0.19330
6855.70608,0.05843
6857.63455,-0.00838
6859.56302,0.00735
6861.49149,0.08074
6863.41996,0.14364
6865.34843,0.11625
6867.27690,0.04233
6869.20536,0.03049
6871.13383,0.06212
6873.06230,0.11560
6874.99077,0.16306
6876.91924,0.09490
6878.84771,-0.05644
6880.77618,-0.09379
6882.70464,0.00611
6884.63311,0.12537
6886.56158,0.18165
6888.49005,0.15523
6890.41852,0.17271
6892.34699,0.22979
6894.27546,0.21597
6896.20393,0.20258
6898.13239,0.22176
6900.06086,0.20046
6901.98933,0.11981
6903.91780,0.01002
6905.84627,0.00451
6907.77474,0.13904
6909.70321,0.19141
6911.63167,0.08069
6913.56014,-0.01409
6915.48861,0.00095
6917.41708,0.06104
6919.34555,0.15012
6921.27402,0.24137
6923.20249,0.28259
6925.13096,0.25992
6927.05942,0.20536
6928.98789,0.20817
6930.91636,0.26369
6932.84483,0.23268
6934.77330,0.15657
6936.70177,0.15006
6938.63024,0.18061
6940.55870,0.16320
6942.48717,0.12021
6944.41564,0.10738
6946.34411,0.08519
6948.27258,0.03907
6950.20105,-0.04479
6952.12952,-0.13780
6954.05799,-0.14471
6955.98645,-0.11649
6957.91492,-0.08192
6959.84339,-0.00706
6961.77186,0.01364
6963.70033,0.00848
6965.62880,0.03682
6967.55727,0.04430
6969.48573,0.02666
6971.41420,0.01680
6973.34267,0.04084
6975.27114,0.10982
6977.19961,0.15626
6979.12808,0.13621
6981.05655,0.10462
6982.98501,0.16640
6984.91348,0.27457
6986.84195,0.25662
6988.77042,0.10053
6990.69889,-0.00809
6992.62736,0.05624
6994.55583,0.12678
6996.48430,-0.00357
6998.41276,-0.14429
7000.34123,-0.07009
7002.26970,0.04894
7004.19817,0.11174
7006.12664,0.08724
7008.05511,0.02233
7009.98358,0.10442
7011.91204,0.24012
7013.84051,0.22085
7015.76898,0.14325
7017.69745,0.12440
7019.62592,0.13063
7021.55439,0.20243
7023.48286,0.30938
7025.41133,0.31846
7027.33979,0.26421
7029.26826,0.28783
7031.19673,0.33649
7033.12520,0.28333
7035.05367,0.14391
7036.98214,0.01720
7038.91061,-0.07550
7040.83907,-0.18712
7042.76754,-0.25186
7044.69601,-0.15672
7046.62448,-0.01176
7048.55295,0.03962
7050.48142,0.04720
7052.40989,0.12672
7054.33836,0.20906
7056.26682,0.15504
7058.19529,0.05039
7060.12376,0.05690
7062.05223,0.10824
7063.98070,0.12271
7065.90917,0.16842
7067.83764,0.30362
7069.76610,0.40736
7071.69457,0.33519
7073.62304,0.13044
7075.55151,-0.01137
7077.47998,0.07440
7079.40845,0.24204
7081.33692,0.21774
7083.26539,0.18365
7085.19385,0.24370
7087.12232,0.24222
7089.05079,0.22725
7090.97926,0.25582
7092.90773,0.20745
7094.83620,0.09684
7096.76467,0.06973
7098.69313,0.05238
7100.62160,-0.05070
7102.55007,-0.08854
7104.47854,0.03107
7106.40701,0.13563
7108.33548,0.09145
7110.26395,0.07808
7112.19242,0.12590
7114.12088,0.11640
7116.04935,0.11696
7117.97782,0.22502
7119.90629,0.27719
7121.83476,0.17224
7123.76323,0.04065
7125.69170,-0.02136
7127.62016,-0.02559
7129.54863,-0.02657
7131.47710,-0.03692
7133.40557,-0.05401
7135.33404,-0.07239
7137.26251,-0.08450
7139.19098,-0.07034
7141.11944,0.01656
7143.04791,0.10364
7144.97638,0.08972
7146.90485,0.07471
7148.83332,0.12596
7150.76179,0.12897
7152.69026,0.07152
7154.61873,0.03922
7156.54719,0.04800
7158.47566,0.06763
7160.40413,0.07088
7162.33260,0.06141
7164.26107,0.00499
7166.18954,-0.10245
7168.11801,-0.15734
7170.04647,-0.11431
7171.97494,-0.01088
7173.90341,0.06601
7175.83188,0.05434
7177.76035,-0.00763
7179.68882,-0.06362
7181.61729,-0.13150
7183.54576,-0.13238
7185.47422,-0.01840
7187.40269,0.08615
7189.33116,0.07986
7191.25963,-0.03782
7193.18810,-0.09357
7195.11657,-0.04795
7197.04504,-0.04965
7198.97350,-0.09515
7200.90197,-0.10514
7202.83044,-0.10482
7204.75891,-0.08716
7206.68738,0.03944
7208.61585,0.16510
7210.54432,0.14486
7212.47279,0.05155
7214.40125,0.09361
7216.32972,0.17772
7218.25819,0.05294
7220.18666,-0.11113
7222.11513,-0.14908
7224.04360,-0.09842
7225.97207,0.11345
7227.90053,0.31955
7229.82900,0.33863
7231.75747,0.24225
7233.68594,0.17714
7235.61441,0.14278
7237.54288,0.08274
7239.47135,0.04796
7241.39982,0.00121
7243.32828,-0.16391
7245.25675,-0.23039
7247.18522,-0.08741
7249.11369,0.12929
7251.04216,0.29384
7252.97063,0.31082
7254.89910,0.20563
7256.82756,0.13805
7258.75603,0.19982
7260.68450,0.37411
7262.61297,0.43066
7264.54144,0.33496
7266.46991,0.26734
7268.39838,0.28612
7270.32685,0.33449
7272.25531,0.22632
7274.18378,0.03058
7276.11225,0.00569
7278.04072,0.07271
7279.96919,0.17935
7281.89766,0.30794
7283.82613,0.33062
7285.75459,0.25919
7287.68306,0.18067
7289.61153,0.13995
7291.54000,0.16365
7293.46847,0.26433
7295.39694,0.37551
7297.32541,0.36509
7299.25387,0.24748
7301.18234,0.14438
7303.11081,0.14062
7305.03928,0.23951
7306.96775,0.40353
7308.89622,0.53418
7310.82469,0.39282
7312.75316,0.13738
7314.68162,0.09259
7316.61009,0.20964
7318.53856,0.25734
7320.46703,0.28661
7322.39550,0.27497
7324.32397,0.18074
7326.25244,0.13938
7328.18090,0.16527
7330.10937,0.08329
7332.03784,-0.08147
7333.96631,-0.08907
7335.89478,-0.00584
7337.82325,-0.00108
7339.75172,-0.06143
7341.68019,-0.06772
7343.60865,-0.01585
7345.53712,0.12180
7347.46559,0.30185
7349.39406,0.41639
7351.32253,0.41269
7353.25100,0.24075
7355.17947,0.14987
7357.10793,0.20729
7359.03640,0.05753
7360.96487,-0.16925
7362.89334,-0.18088
7364.82181,-0.14945
7366.75028,-0.16151
7368.67875,-0.11259
7370.60722,0.02753
7372.53568,0.13135
7374.46415,0.12947
7376.39262,0.11350
7378.32109,0.17835
7380.24956,0.33720
7382.17803,0.39710
7384.10650,0.23430
7386.03496,0.11346
7387.96343,0.20177
7389.89190,0.26963
7391.82037,0.25278
7393.74884,0.28891
7395.67731,0.44651
7397.60578,0.59180
7399.53425,0.56002
7401.46271,0.40315
7403.39118,0.26303
7405.31965,0.25542
7407.24812,0.33195
7409.17659,0.30260
7411.10506,0.08183
7413.03353,-0.10068
7414.96199,0.00110
7416.89046,0.28926
7418.81893,0.37306
7420.74740,0.28013
7422.67587,0.30095
7424.60434,0.25933
7426.53281,0.09651
7428.46128,-0.03009
7430.38974,0.09095
7432.31821,0.29858
7434.24668,0.32560
7436.17515,0.27536
7438.10362,0.21929
7440.03209,0.16650
7441.96056,0.06951
7443.88902,-0.12239
7445.81749,-0.19424
7447.74596,-0.11071
7449.67443,-0.00718
7451.60290,0.10505
7453.53137,0.18922
7455.45984,0.24647
7457.38831,0.37006
7459.31677,0.52116
7461.24524,0.49587
7463.17371,0.34937
7465.10218,0.25687
7467.03065,0.24129
7468.95912,0.25061
7470.88759,0.21142
7472.81605,0.10932
7474.74452,0.09548
7476.67299,0.26557
7478.60146,0.44944
7480.52993,0.43612
7482.45840,0.28552
7484.38687,0.16820
7486.31533,0.12813
7488.24380,0.08526
7490.17227,-0.04439
7492.10074,-0.15658
7494.02921,-0.10092
7495.95768,0.12778
7497.88615,0.42538
