399.19301,0.33107
401.12148,-0.27860
403.04995,-0.17472
404.97842,0.14218
406.90689,0.26437
408.83536,0.18599
410.76382,0.02748
412.69229,-0.04695
414.62076,-0.05269
416.54923,-0.07014
418.47770,-0.15129
420.40617,-0.19268
422.33464,-0.07933
424.26311,0.00175
426.19157,-0.01941
428.12004,-0.00379
430.04851,0.05150
431.97698,0.04532
433.90545,0.05194
435.83392,0.10745
437.76239,0.12323
439.69085,0.08399
441.61932,0.02138
443.54779,-0.00314
445.47626,0.07395
447.40473,0.19548
449.33320,0.24679
451.26167,0.21540
453.19013,0.14696
455.11860,0.07516
457.04707,0.04656
458.97554,0.07803
460.90401,0.10079
462.83248,0.08290
464.76095,0.07132
466.68942,0.06727
468.61788,0.05102
470.54635,0.05066
472.47482,0.09480
474.40329,0.18157
476.33176,0.20010
478.26023,0.17540
480.18870,0.15497
482.11716,0.09880
484.04563,0.01496
485.97410,-0.01503
487.90257,0.02357
489.83104,0.08093
491.75951,0.10204
493.68798,0.07525
495.61645,0.02971
497.54491,-0.00080
499.47338,-0.00032
501.40185,0.03567
503.33032,0.08565
505.25879,0.08759
507.18726,0.03250
509.11573,-0.00218
511.04419,0.03776
512.97266,0.11475
514.90113,0.14702
516.82960,0.10601
518.75807,0.08237
520.68654,0.12518
522.61501,0.14640
524.54348,0.09384
526.47194,0.02375
528.40041,-0.00024
530.32888,0.01932
532.25735,0.05356
534.18582,0.07883
536.11429,0.08978
538.04276,0.09161
539.97122,0.07383
541.89969,0.03555
543.82816,0.02768
545.75663,0.06584
547.68510,0.09190
549.61357,0.09106
551.54204,0.08864
553.47051,0.09366
555.39897,0.11030
557.32744,0.11786
559.25591,0.10034
561.18438,0.08028
563.11285,0.08656
565.04132,0.11955
566.96979,0.15550
568.89825,0.18107
570.82672,0.18456
572.75519,0.14911
574.68366,0.09749
576.61213,0.07916
578.54060,0.09644
580.46907,0.12798
582.39754,0.14153
584.32600,0.10436
586.25447,0.05740
588.18294,0.05121
590.11141,0.06214
592.03988,0.08682
593.96835,0.13035
595.89682,0.14199
597.82528,0.12620
599.75375,0.12682
601.68222,0.14766
603.61069,0.16218
605.53916,0.14355
607.46763,0.11553
609.39610,0.11045
611.32456,0.11657
613.25303,0.11406
615.18150,0.10976
617.10997,0.12269
619.03844,0.13583
620.96691,0.12347
622.89538,0.10847
624.82385,0.11776
626.75231,0.13803
628.68078,0.14590
630.60925,0.13731
632.53772,0.12283
634.46619,0.11107
636.39466,0.10413
638.32313,0.10408
640.25159,0.10375
642.18006,0.09345
644.10853,0.08313
646.03700,0.08990
647.96547,0.11356
649.89394,0.13995
651.82241,0.15505
653.75088,0.15065
655.67934,0.13416
657.60781,0.11864
659.53628,0.11130
661.46475,0.11262
663.39322,0.11567
665.32169,0.12207
667.25016,0.12939
669.17862,0.12112
671.10709,0.10924
673.03556,0.10241
674.96403,0.09676
676.89250,0.09234
678.82097,0.09533
680.74944,0.11021
682.67791,0.12423
684.60637,0.13307
686.53484,0.13883
688.46331,0.13114
690.39178,0.12278
692.32025,0.13602
694.24872,0.14774
696.17719,0.13757
698.10565,0.13447
700.03412,0.14319
701.96259,0.13625
703.89106,0.12413
705.81953,0.12404
707.74800,0.12703
709.67647,0.13048
711.60494,0.13376
713.53340,0.13145
715.46187,0.12581
717.39034,0.12498
719.31881,0.13263
721.24728,0.13394
723.17575,0.12783
725.10422,0.13655
727.03268,0.14436
728.96115,0.13173
730.88962,0.12150
732.81809,0.12532
734.74656,0.13500
736.67503,0.14199
738.60350,0.13635
740.53197,0.12664
742.46043,0.12758
744.38890,0.13198
746.31737,0.13131
748.24584,0.13004
750.17431,0.12776
752.10278,0.12497
754.03125,0.12708
755.95971,0.12555
757.88818,0.11979
759.81665,0.12566
761.74512,0.13542
763.67359,0.13667
765.60206,0.13575
767.53053,0.13450
769.45900,0.13395
771.38746,0.13471
773.31593,0.13094
775.24440,0.12529
777.17287,0.12575
779.10134,0.12960
781.02981,0.13593
782.95828,0.14562
784.88674,0.14785
786.81521,0.13898
788.74368,0.12714
790.67215,0.12383
792.60062,0.13262
794.52909,0.14383
796.45756,0.15119
798.38602,0.15406
800.31449,0.15281
802.24296,0.15184
804.17143,0.15206
806.09990,0.14601
808.02837,0.13505
809.95684,0.13243
811.88531,0.13362
813.81377,0.12214
815.74224,0.11060
817.67071,0.11517
819.59918,0.11926
821.52765,0.11835
823.45612,0.12373
825.38459,0.13719
827.31305,0.15303
829.24152,0.15452
831.16999,0.14254
833.09846,0.13637
835.02693,0.13848
836.95540,0.13799
838.88387,0.13745
840.81234,0.14538
842.74080,0.15115
844.66927,0.14263
846.59774,0.13468
848.52621,0.13876
850.45468,0.13928
852.38315,0.13281
854.31162,0.13351
856.24008,0.14602
858.16855,0.16089
860.09702,0.15785
862.02549,0.14537
863.95396,0.15045
865.88243,0.16122
867.81090,0.14968
869.73937,0.12175
871.66783,0.11199
873.59630,0.12403
875.52477,0.13065
877.45324,0.12999
879.38171,0.13503
881.31018,0.15051
883.23865,0.16835
885.16711,0.17119
887.09558,0.16056
889.02405,0.15253
890.95252,0.14769
892.88099,0.14394
894.80946,0.14716
896.73793,0.15170
898.66640,0.15146
900.59486,0.15093
902.52333,0.14910
904.45180,0.14683
906.38027,0.15190
908.30874,0.15793
910.23721,0.15236
912.16568,0.14284
914.09414,0.14095
916.02261,0.14244
917.95108,0.14271
919.87955,0.14347
921.80802,0.14529
923.73649,0.14870
925.66496,0.15562
927.59343,0.16196
929.52189,0.16028
931.45036,0.15354
933.37883,0.14966
935.30730,0.14738
937.23577,0.14363
939.16424,0.14165
941.09271,0.14510
943.02117,0.15215
944.94964,0.15262
946.87811,0.14363
948.80658,0.13721
950.73505,0.13868
952.66352,0.14472
954.59199,0.15108
956.52045,0.15369
958.44892,0.15214
960.37739,0.15095
962.30586,0.15571
964.23433,0.16150
966.16280,0.16047
968.09127,0.15564
970.01974,0.15458
971.94820,0.16102
973.87667,0.16768
975.80514,0.16340
977.73361,0.15257
979.66208,0.14502
981.59055,0.14122
983.51902,0.14181
985.44748,0.14653
987.37595,0.14946
989.30442,0.14411
991.23289,0.13846
993.16136,0.14567
995.08983,0.15216
997.01830,0.14536
998.94677,0.13848
1000.87523,0.14237
1002.80370,0.15030
1004.73217,0.15033
1006.66064,0.14518
1008.58911,0.14209
1010.51758,0.14027
1012.44605,0.13718
1014.37451,0.13399
1016.30298,0.13659
1018.23145,0.14343
1020.15992,0.14716
1022.08839,0.14707
1024.01686,0.14525
1025.94533,0.14713
1027.87380,0.15674
1029.80226,0.16222
1031.73073,0.15265
1033.65920,0.14288
1035.58767,0.15107
1037.51614,0.16456
1039.44461,0.16258
1041.37308,0.15267
1043.30154,0.14755
1045.23001,0.14716
1047.15848,0.14916
1049.08695,0.14847
1051.01542,0.14815
1052.94389,0.15561
1054.87236,0.16215
1056.80083,0.16139
1058.72929,0.15926
1060.65776,0.15686
1062.58623,0.15710
1064.51470,0.16201
1066.44317,0.16346
1068.37164,0.16452
1070.30011,0.17300
1072.22857,0.18130
1074.15704,0.18437
1076.08551,0.18056
1078.01398,0.16503
1079.94245,0.14553
1081.87092,0.13745
1083.79939,0.14590
1085.72786,0.15656
1087.65632,0.15561
1089.58479,0.15219
1091.51326,0.15282
1093.44173,0.15093
1095.37020,0.15006
1097.29867,0.15497
1099.22714,0.15657
1101.15560,0.15399
1103.08407,0.15815
1105.01254,0.16645
1106.94101,0.16848
1108.86948,0.16411
1110.79795,0.16071
1112.72642,0.16388
1114.65489,0.16923
1116.58335,0.16971
1118.51182,0.16608
1120.44029,0.16208
1122.36876,0.15873
1124.29723,0.15209
1126.22570,0.14574
1128.15417,0.14855
1130.08263,0.15190
1132.01110,0.14944
1133.93957,0.14829
1135.86804,0.14819
1137.79651,0.14978
1139.72498,0.15422
1141.65345,0.15652
1143.58191,0.15943
1145.51038,0.16503
1147.43885,0.16734
1149.36732,0.16636
1151.29579,0.16916
1153.22426,0.17350
1155.15273,0.17097
1157.08120,0.16440
1159.00966,0.16005
1160.93813,0.15892
1162.86660,0.15989
1164.79507,0.15961
1166.72354,0.15683
1168.65201,0.15489
1170.58048,0.15757
1172.50894,0.16293
1174.43741,0.16498
1176.36588,0.16133
1178.29435,0.15597
1180.22282,0.15565
1182.15129,0.16251
1184.07976,0.16978
1186.00823,0.17045
1187.93669,0.16740
1189.86516,0.16651
1191.79363,0.16720
1193.72210,0.16681
1195.65057,0.16550
1197.57904,0.16450
1199.50751,0.16449
1201.43597,0.16536
1203.36444,0.16707
1205.29291,0.16690
1207.22138,0.16318
1209.14985,0.16225
1211.07832,0.16438
1213.00679,0.16458
1214.93526,0.16582
1216.86372,0.16799
1218.79219,0.16803
1220.72066,0.16704
1222.64913,0.16689
1224.57760,0.16955
1226.50607,0.17227
1228.43454,0.17170
1230.36300,0.16932
1232.29147,0.16747
1234.21994,0.16732
1236.14841,0.16744
1238.07688,0.16738
1240.00535,0.16742
1241.93382,0.16769
1243.86229,0.16803
1245.79075,0.16645
1247.71922,0.16520
1249.64769,0.16720
1251.57616,0.16919
1253.50463,0.16683
1255.43310,0.16072
1257.36157,0.15748
1259.29003,0.16102
1261.21850,0.16488
1263.14697,0.16550
1265.07544,0.16785
1267.00391,0.16978
1268.93238,0.16820
1270.86085,0.16782
1272.78932,0.17072
1274.71778,0.17324
1276.64625,0.17317
1278.57472,0.17262
1280.50319,0.17364
1282.43166,0.17646
1284.36013,0.17805
1286.28860,0.17517
1288.21706,0.17151
1290.14553,0.17135
1292.07400,0.17270
1294.00247,0.17186
1295.93094,0.16837
1297.85941,0.16586
1299.78788,0.16265
1301.71634,0.15268
1303.64481,0.14277
1305.57328,0.14508
1307.50175,0.15697
1309.43022,0.16713
1311.35869,0.17278
1313.28716,0.17559
1315.21563,0.17517
1317.14409,0.17419
1319.07256,0.17314
1321.00103,0.17019
1322.92950,0.16696
1324.85797,0.16438
1326.78644,0.16492
1328.71491,0.17052
1330.64337,0.17383
1332.57184,0.17267
1334.50031,0.17260
1336.42878,0.17312
1338.35725,0.17413
1340.28572,0.17436
1342.21419,0.16977
1344.14266,0.15530
1346.07112,0.14442
1347.99959,0.15841
1349.92806,0.17414
1351.85653,0.17127
1353.78500,0.16578
1355.71347,0.16492
1357.64194,0.16806
1359.57040,0.17240
1361.49887,0.17443
1363.42734,0.17318
1365.35581,0.17072
1367.28428,0.17114
1369.21275,0.17356
1371.14122,0.17629
1373.06969,0.17877
1374.99815,0.18054
1376.92662,0.18080
1378.85509,0.17630
1380.78356,0.16899
1382.71203,0.16683
1384.64050,0.17126
1386.56897,0.17952
1388.49743,0.18591
1390.42590,0.18520
1392.35437,0.18364
1394.28284,0.18479
1396.21131,0.18359
1398.13978,0.18158
1400.06825,0.18317
1401.99672,0.18378
1403.92518,0.18136
1405.85365,0.17893
1407.78212,0.17873
1409.71059,0.18025
1411.63906,0.18035
1413.56753,0.17918
1415.49600,0.18205
1417.42446,0.18870
1419.35293,0.18977
1421.28140,0.18671
1423.20987,0.18589
1425.13834,0.18188
1427.06681,0.17629
1428.99528,0.17691
1430.92375,0.18472
1432.85221,0.19187
1434.78068,0.19175
1436.70915,0.18426
1438.63762,0.17738
1440.56609,0.17357
1442.49456,0.17229
1444.42303,0.17558
1446.35149,0.18142
1448.27996,0.18455
1450.20843,0.18149
1452.13690,0.17929
1454.06537,0.18440
1455.99384,0.19145
1457.92231,0.18972
1459.85077,0.18600
1461.77924,0.18673
1463.70771,0.18814
1465.63618,0.18648
1467.56465,0.18396
1469.49312,0.18442
1471.42159,0.18950
1473.35006,0.19591
1475.27852,0.19619
1477.20699,0.19188
1479.13546,0.18475
1481.06393,0.17912
1482.99240,0.17962
1484.92087,0.18390
1486.84934,0.18861
1488.77780,0.19106
1490.70627,0.18771
1492.63474,0.18605
1494.56321,0.18955
1496.49168,0.19262
1498.42015,0.19200
1500.34862,0.19034
1502.27709,0.19009
1504.20555,0.19318
1506.13402,0.19823
1508.06249,0.19526
1509.99096,0.18738
1511.91943,0.18278
1513.84790,0.18458
1515.77637,0.19189
1517.70483,0.19479
1519.63330,0.18982
1521.56177,0.18399
1523.49024,0.18074
1525.41871,0.18245
1527.34718,0.18625
1529.27565,0.18883
1531.20412,0.19165
1533.13258,0.19205
1535.06105,0.18932
1536.98952,0.18955
1538.91799,0.19061
1540.84646,0.19174
1542.77493,0.19604
1544.70340,0.19295
1546.63186,0.18693
1548.56033,0.18595
1550.48880,0.18769
1552.41727,0.18907
1554.34574,0.19377
1556.27421,0.20542
1558.20268,0.22037
1560.13115,0.20955
1562.05961,0.19455
1563.98808,0.19119
1565.91655,0.18957
1567.84502,0.18630
1569.77349,0.18544
1571.70196,0.18502
1573.63043,0.18280
1575.55889,0.18369
1577.48736,0.18871
1579.41583,0.18818
1581.34430,0.18441
1583.27277,0.18339
1585.20124,0.18515
1587.12971,0.18696
1589.05818,0.18697
1590.98664,0.18460
1592.91511,0.18099
1594.84358,0.17667
1596.77205,0.17260
1598.70052,0.17211
1600.62899,0.17581
1602.55746,0.17931
1604.48592,0.17965
1606.41439,0.18006
1608.34286,0.18374
1610.27133,0.18595
1612.19980,0.18466
1614.12827,0.18741
1616.05674,0.19606
1617.98521,0.19798
1619.91367,0.19123
1621.84214,0.18578
1623.77061,0.18698
1625.69908,0.19168
1627.62755,0.19279
1629.55602,0.19122
1631.48449,0.19250
1633.41295,0.19937
1635.34142,0.20941
1637.26989,0.20833
1639.19836,0.19871
1641.12683,0.19160
1643.05530,0.19027
1644.98377,0.19712
1646.91223,0.20931
1648.84070,0.21242
1650.76917,0.21209
1652.69764,0.21679
1654.62611,0.21295
1656.55458,0.20320
1658.48305,0.19999
1660.41152,0.20273
1662.33998,0.20472
1664.26845,0.20182
1666.19692,0.19959
1668.12539,0.20082
1670.05386,0.20226
1671.98233,0.20123
1673.91080,0.20156
1675.83926,0.20085
1677.76773,0.19800
1679.69620,0.19779
1681.62467,0.20028
1683.55314,0.20440
1685.48161,0.20449
1687.41008,0.19930
1689.33855,0.19510
1691.26701,0.19433
1693.19548,0.19699
1695.12395,0.20101
1697.05242,0.20230
1698.98089,0.19761
1700.90936,0.19311
1702.83783,0.19670
1704.76629,0.20076
1706.69476,0.19764
1708.62323,0.19100
1710.55170,0.18836
1712.48017,0.19062
1714.40864,0.19728
1716.33711,0.20693
1718.26558,0.20724
1720.19404,0.19868
1722.12251,0.19445
1724.05098,0.19407
1725.97945,0.19328
1727.90792,0.19409
1729.83639,0.19825
1731.76486,0.20283
1733.69332,0.20391
1735.62179,0.19828
1737.55026,0.19354
1739.47873,0.19232
1741.40720,0.19331
1743.33567,0.19533
1745.26414,0.19697
1747.19261,0.19974
1749.12107,0.20397
1751.04954,0.20134
1752.97801,0.19379
1754.90648,0.19014
1756.83495,0.18887
1758.76342,0.18930
1760.69189,0.19348
1762.62035,0.19577
1764.54882,0.19243
1766.47729,0.18922
1768.40576,0.18824
1770.33423,0.18949
1772.26270,0.19432
1774.19117,0.19716
1776.11964,0.19509
1778.04810,0.19358
1779.97657,0.19414
1781.90504,0.19274
1783.83351,0.18923
1785.76198,0.18785
1787.69045,0.19024
1789.61892,0.19415
1791.54738,0.19568
1793.47585,0.19432
1795.40432,0.19373
1797.33279,0.19379
1799.26126,0.19490
1801.18973,0.19608
1803.11820,0.19400
1805.04666,0.19027
1806.97513,0.18841
1808.90360,0.18925
1810.83207,0.18915
1812.76054,0.18603
1814.68901,0.18472
1816.61748,0.18599
1818.54595,0.18497
1820.47441,0.18247
1822.40288,0.18263
1824.33135,0.18442
1826.25982,0.18689
1828.18829,0.19020
1830.11676,0.19056
1832.04523,0.18667
1833.97369,0.18447
1835.90216,0.18745
1837.83063,0.19172
1839.75910,0.19198
1841.68757,0.19124
1843.61604,0.19263
1845.54451,0.19292
1847.47298,0.19319
1849.40144,0.19427
1851.32991,0.19277
1853.25838,0.19023
1855.18685,0.18891
1857.11532,0.18815
1859.04379,0.18741
1860.97226,0.18740
1862.90072,0.18877
1864.82919,0.19081
1866.75766,0.19352
1868.68613,0.19460
1870.61460,0.19071
1872.54307,0.18631
1874.47154,0.18551
1876.40001,0.18702
1878.32847,0.18715
1880.25694,0.18570
1882.18541,0.18635
1884.11388,0.18918
1886.04235,0.19096
1887.97082,0.19165
1889.89929,0.19143
1891.82775,0.18935
1893.75622,0.18750
1895.68469,0.18869
1897.61316,0.19158
1899.54163,0.19222
1901.47010,0.19083
1903.39857,0.18969
1905.32704,0.18780
1907.25550,0.18516
1909.18397,0.18493
1911.11244,0.18653
1913.04091,0.18740
1914.96938,0.18782
1916.89785,0.18819
1918.82632,0.18917
1920.75478,0.19188
1922.68325,0.19443
1924.61172,0.19386
1926.54019,0.19145
1928.46866,0.18941
1930.39713,0.18887
1932.32560,0.19040
1934.25407,0.19145
1936.18253,0.19024
1938.11100,0.18923
1940.03947,0.19131
1941.96794,0.19489
1943.89641,0.19537
1945.82488,0.19326
1947.75335,0.19123
1949.68181,0.18853
1951.61028,0.18683
1953.53875,0.18855
1955.46722,0.19015
1957.39569,0.18867
1959.32416,0.18688
1961.25263,0.18765
1963.18110,0.18909
1965.10956,0.18801
1967.03803,0.18746
1968.96650,0.19015
1970.89497,0.19334
1972.82344,0.19575
1974.75191,0.19652
1976.68038,0.19538
1978.60884,0.19417
1980.53731,0.19358
1982.46578,0.19249
1984.39425,0.19053
1986.32272,0.18959
1988.25119,0.19038
1990.17966,0.19163
1992.10812,0.19216
1994.03659,0.19066
1995.96506,0.18817
1997.89353,0.18761
1999.82200,0.18929
2001.75047,0.19066
2003.67894,0.18942
2005.60741,0.18713
2007.53587,0.18768
2009.46434,0.19017
2011.39281,0.19098
2013.32128,0.18907
2015.24975,0.18778
2017.17822,0.19035
2019.10669,0.19260
2021.03515,0.19185
2022.96362,0.19053
2024.89209,0.18924
2026.82056,0.18805
2028.74903,0.18752
2030.67750,0.18845
2032.60597,0.19030
2034.53444,0.19053
2036.46290,0.18917
2038.39137,0.18792
2040.31984,0.18572
2042.24831,0.18356
2044.17678,0.18498
2046.10525,0.18839
2048.03372,0.19014
2049.96218,0.19055
2051.89065,0.19146
2053.81912,0.19282
2055.74759,0.19390
2057.67606,0.19335
2059.60453,0.19100
2061.53300,0.18956
2063.46147,0.19129
2065.38993,0.19515
2067.31840,0.19677
2069.24687,0.19516
2071.17534,0.19315
2073.10381,0.19198
2075.03228,0.19214
2076.96075,0.19182
2078.88921,0.18909
2080.81768,0.18627
2082.74615,0.18648
2084.67462,0.18937
2086.60309,0.19197
2088.53156,0.19311
2090.46003,0.19275
2092.38850,0.19047
2094.31696,0.18781
2096.24543,0.18719
2098.17390,0.18836
2100.10237,0.18921
2102.03084,0.19038
2103.95931,0.19219
2105.88778,0.19233
2107.81624,0.19112
2109.74471,0.18981
2111.67318,0.18868
2113.60165,0.18940
2115.53012,0.19157
2117.45859,0.19228
2119.38706,0.19159
2121.31553,0.19040
2123.24399,0.18798
2125.17246,0.18641
2127.10093,0.18859
2129.02940,0.19139
2130.95787,0.19112
2132.88634,0.19026
2134.81481,0.19016
2136.74327,0.18963
2138.67174,0.18903
2140.60021,0.18856
2142.52868,0.18907
2144.45715,0.18974
2146.38562,0.18851
2148.31409,0.18682
2150.24255,0.18732
2152.17102,0.18957
2154.09949,0.19082
2156.02796,0.19168
2157.95643,0.19421
2159.88490,0.19630
2161.81337,0.19646
2163.74184,0.19535
2165.67030,0.19324
2167.59877,0.19206
2169.52724,0.19323
2171.45571,0.19541
2173.38418,0.19572
2175.31265,0.19200
2177.24112,0.18773
2179.16958,0.18836
2181.09805,0.19137
2183.02652,0.19120
2184.95499,0.18918
2186.88346,0.18818
2188.81193,0.18853
2190.74040,0.19029
2192.66887,0.19195
2194.59733,0.19243
2196.52580,0.19260
2198.45427,0.19362
2200.38274,0.19527
2202.31121,0.19484
2204.23968,0.19065
2206.16815,0.18644
2208.09661,0.18614
2210.02508,0.18819
2211.95355,0.18936
2213.88202,0.18845
2215.81049,0.18741
2217.73896,0.18772
2219.66743,0.18752
2221.59590,0.18761
2223.52436,0.19028
2225.45283,0.19286
2227.38130,0.19338
2229.30977,0.19428
2231.23824,0.19518
2233.16671,0.19296
2235.09518,0.18929
2237.02364,0.18751
2238.95211,0.18680
2240.88058,0.18756
2242.80905,0.18907
2244.73752,0.18707
2246.66599,0.18515
2248.59446,0.18812
2250.52293,0.19321
2252.45139,0.19689
2254.37986,0.19559
2256.30833,0.19012
2258.23680,0.18682
2260.16527,0.18834
2262.09374,0.19209
2264.02221,0.19403
2265.95067,0.19187
2267.87914,0.18806
2269.80761,0.18664
2271.73608,0.18763
2273.66455,0.18948
2275.59302,0.19138
2277.52149,0.19246
2279.44996,0.19299
2281.37842,0.19336
2283.30689,0.19336
2285.23536,0.19263
2287.16383,0.19144
2289.09230,0.19082
2291.02077,0.18961
2292.94924,0.18680
2294.87770,0.18426
2296.80617,0.18244
2298.73464,0.18096
2300.66311,0.18011
2302.59158,0.17761
2304.52005,0.17338
2306.44852,0.17033
2308.37699,0.16931
2310.30545,0.17037
2312.23392,0.17116
2314.16239,0.16736
2316.09086,0.15933
2318.01933,0.15201
2319.94780,0.15177
2321.87627,0.15731
2323.80473,0.15759
2325.73320,0.15340
2327.66167,0.15375
2329.59014,0.15349
2331.51861,0.14420
2333.44708,0.13221
2335.37555,0.12295
2337.30401,0.11664
2339.23248,0.12138
2341.16095,0.13207
2343.08942,0.13655
2345.01789,0.14173
2346.94636,0.15102
2348.87483,0.15947
2350.80330,0.16404
2352.73176,0.16227
2354.66023,0.15726
2356.58870,0.15144
2358.51717,0.14147
2360.44564,0.13289
2362.37411,0.12713
2364.30258,0.12241
2366.23104,0.12412
2368.15951,0.13454
2370.08798,0.14969
2372.01645,0.15805
2373.94492,0.15774
2375.87339,0.15814
2377.80186,0.16176
2379.73033,0.16852
2381.65879,0.17909
2383.58726,0.18906
2385.51573,0.19294
2387.44420,0.19193
2389.37267,0.19176
2391.30114,0.19349
2393.22961,0.19359
2395.15807,0.19156
2397.08654,0.18930
2399.01501,0.18805
2400.94348,0.18942
2402.87195,0.19311
2404.80042,0.19553
2406.72889,0.19470
2408.65736,0.19259
2410.58582,0.19063
2412.51429,0.18931
2414.44276,0.18970
2416.37123,0.19172
2418.29970,0.19377
2420.22817,0.19338
2422.15664,0.19103
2424.08510,0.19002
2426.01357,0.19174
2427.94204,0.19476
2429.87051,0.19563
2431.79898,0.19311
2433.72745,0.19029
2435.65592,0.19032
2437.58439,0.19138
2439.51285,0.18965
2441.44132,0.18648
2443.36979,0.18577
2445.29826,0.18824
2447.22673,0.19012
2449.15520,0.18932
2451.08367,0.18966
2453.01213,0.19210
2454.94060,0.19378
2456.86907,0.19370
2458.79754,0.19173
2460.72601,0.18993
2462.65448,0.19127
2464.58295,0.19521
2466.51142,0.19867
2468.43988,0.19834
2470.36835,0.19443
2472.29682,0.19078
2474.22529,0.18951
2476.15376,0.19011
2478.08223,0.19104
2480.01070,0.19072
2481.93916,0.18980
2483.86763,0.19074
2485.79610,0.19325
2487.72457,0.19439
2489.65304,0.19403
2491.58151,0.19393
2493.50998,0.19382
2495.43844,0.19317
2497.36691,0.19285
2499.29538,0.19304
2501.22385,0.19352
2503.15232,0.19395
2505.08079,0.19275
2507.00926,0.19063
2508.93773,0.19118
2510.86619,0.19446
2512.79466,0.19718
2514.72313,0.19800
2516.65160,0.19733
2518.58007,0.19591
2520.50854,0.19479
2522.43701,0.19449
2524.36547,0.19531
2526.29394,0.19688
2528.22241,0.19672
2530.15088,0.19376
2532.07935,0.19184
2534.00782,0.19362
2535.93629,0.19591
2537.86476,0.19527
2539.79322,0.19313
2541.72169,0.19246
2543.65016,0.19292
2545.57863,0.19293
2547.50710,0.19253
2549.43557,0.19206
2551.36404,0.19100
2553.29250,0.18949
2555.22097,0.18984
2557.14944,0.19206
2559.07791,0.19385
2561.00638,0.19554
2562.93485,0.19657
2564.86332,0.19504
2566.79179,0.19213
2568.72025,0.19041
2570.64872,0.19161
2572.57719,0.19439
2574.50566,0.19575
2576.43413,0.19715
2578.36260,0.19868
2580.29107,0.19549
2582.21953,0.19011
2584.14800,0.18938
2586.07647,0.19104
2588.00494,0.18951
2589.93341,0.18640
2591.86188,0.18579
2593.79035,0.18723
2595.71882,0.18935
2597.64728,0.19207
2599.57575,0.19530
2601.50422,0.19864
2603.43269,0.19994
2605.36116,0.19769
2607.28963,0.19575
2609.21810,0.19778
2611.14656,0.19835
2613.07503,0.19425
2615.00350,0.19180
2616.93197,0.19253
2618.86044,0.19356
2620.78891,0.19339
2622.71738,0.19142
2624.64585,0.19179
2626.57431,0.19627
2628.50278,0.20009
2630.43125,0.20063
2632.35972,0.19907
2634.28819,0.19630
2636.21666,0.19404
2638.14513,0.19402
2640.07359,0.19408
2642.00206,0.19311
2643.93053,0.19343
2645.85900,0.19553
2647.78747,0.19807
2649.71594,0.19884
2651.64441,0.19615
2653.57288,0.19234
2655.50134,0.19296
2657.42981,0.19845
2659.35828,0.20163
2661.28675,0.20037
2663.21522,0.20022
2665.14369,0.20096
2667.07216,0.19867
2669.00062,0.19664
2670.92909,0.19971
2672.85756,0.20568
2674.78603,0.20863
2676.71450,0.20669
2678.64297,0.20360
2680.57144,0.20151
2682.49990,0.19981
2684.42837,0.19959
2686.35684,0.20051
2688.28531,0.20000
2690.21378,0.19858
2692.14225,0.19847
2694.07072,0.19993
2695.99919,0.20229
2697.92765,0.20357
2699.85612,0.20129
2701.78459,0.19692
2703.71306,0.19515
2705.64153,0.19789
2707.57000,0.20198
2709.49847,0.20340
2711.42693,0.20135
2713.35540,0.19808
2715.28387,0.19698
2717.21234,0.19957
2719.14081,0.20355
2721.06928,0.20514
2722.99775,0.20308
2724.92622,0.19942
2726.85468,0.19746
2728.78315,0.19853
2730.71162,0.20052
2732.64009,0.20185
2734.56856,0.20271
2736.49703,0.20393
2738.42550,0.20635
2740.35396,0.20814
2742.28243,0.20664
2744.21090,0.20291
2746.13937,0.20071
2748.06784,0.20107
2749.99631,0.20273
2751.92478,0.20627
2753.85325,0.20981
2755.78171,0.20928
2757.71018,0.20675
2759.63865,0.20699
2761.56712,0.20830
2763.49559,0.20691
2765.42406,0.20469
2767.35253,0.20427
2769.28099,0.20464
2771.20946,0.20532
2773.13793,0.20638
2775.06640,0.20637
2776.99487,0.20589
2778.92334,0.20619
2780.85181,0.20584
2782.78028,0.20478
2784.70874,0.20489
2786.63721,0.20643
2788.56568,0.20779
2790.49415,0.20683
2792.42262,0.20267
2794.35109,0.19917
2796.27956,0.20126
2798.20802,0.20533
2800.13649,0.20487
2802.06496,0.20227
2803.99343,0.20326
2805.92190,0.20674
2807.85037,0.20950
2809.77884,0.21243
2811.70731,0.21431
2813.63577,0.21192
2815.56424,0.20687
2817.49271,0.20479
2819.42118,0.20764
2821.34965,0.20979
2823.27812,0.20955
2825.20659,0.21008
2827.13505,0.20966
2829.06352,0.20736
2830.99199,0.20512
2832.92046,0.20411
2834.84893,0.20512
2836.77740,0.20680
2838.70587,0.20661
2840.63433,0.20665
2842.56280,0.21003
2844.49127,0.21290
2846.41974,0.21177
2848.34821,0.20846
2850.27668,0.20611
2852.20515,0.20612
2854.13362,0.20750
2856.06208,0.20980
2857.99055,0.21094
2859.91902,0.20938
2861.84749,0.20613
2863.77596,0.20288
2865.70443,0.20286
2867.63290,0.20546
2869.56136,0.20657
2871.48983,0.20465
2873.41830,0.20078
2875.34677,0.19819
2877.27524,0.20022
2879.20371,0.20539
2881.13218,0.20858
2883.06065,0.20918
2884.98911,0.21013
2886.91758,0.21136
2888.84605,0.21229
2890.77452,0.21402
2892.70299,0.21455
2894.63146,0.21148
2896.55993,0.20715
2898.48839,0.20294
2900.41686,0.20037
2902.34533,0.20127
2904.27380,0.20142
2906.20227,0.19868
2908.13074,0.19584
2910.05921,0.19379
2911.98768,0.19378
2913.91614,0.19381
2915.84461,0.19024
2917.77308,0.19025
2919.70155,0.19753
2921.63002,0.20189
2923.55849,0.19834
2925.48696,0.19183
2927.41542,0.19013
2929.34389,0.19493
2931.27236,0.19934
2933.20083,0.20263
2935.12930,0.20698
2937.05777,0.20921
2938.98624,0.21001
2940.91471,0.21071
2942.84317,0.21048
2944.77164,0.20816
2946.70011,0.20174
2948.62858,0.19708
2950.55705,0.19928
2952.48552,0.20217
2954.41399,0.20184
2956.34245,0.19916
2958.27092,0.19748
2960.19939,0.20000
2962.12786,0.20315
2964.05633,0.20489
2965.98480,0.20480
2967.91327,0.20343
2969.84174,0.20640
2971.77020,0.21116
2973.69867,0.21232
2975.62714,0.21074
2977.55561,0.20704
2979.48408,0.20619
2981.41255,0.21105
2983.34102,0.21574
2985.26948,0.21541
2987.19795,0.21057
2989.12642,0.20828
2991.05489,0.21180
2992.98336,0.21482
2994.91183,0.21628
2996.84030,0.21714
2998.76877,0.21377
3000.69723,0.20847
3002.62570,0.20795
3004.55417,0.21257
3006.48264,0.21449
3008.41111,0.21099
3010.33958,0.20569
3012.26805,0.19535
3014.19651,0.17462
3016.12498,0.15391
3018.05345,0.15846
3019.98192,0.18732
3021.91039,0.20956
3023.83886,0.21466
3025.76733,0.21203
3027.69579,0.21010
3029.62426,0.21393
3031.55273,0.21819
3033.48120,0.21830
3035.40967,0.21803
3037.33814,0.21825
3039.26661,0.21910
3041.19508,0.21949
3043.12354,0.21723
3045.05201,0.21311
3046.98048,0.20760
3048.90895,0.20527
3050.83742,0.20702
3052.76589,0.20686
3054.69436,0.20402
3056.62282,0.20170
3058.55129,0.20430
3060.47976,0.20952
3062.40823,0.21132
3064.33670,0.20798
3066.26517,0.19948
3068.19364,0.19447
3070.12211,0.19855
3072.05057,0.20435
3073.97904,0.20653
3075.90751,0.20518
3077.83598,0.20355
3079.76445,0.20378
3081.69292,0.20232
3083.62139,0.19309
3085.54985,0.18157
3087.47832,0.18360
3089.40679,0.19700
3091.33526,0.20613
3093.26373,0.20596
3095.19220,0.20333
3097.12067,0.20472
3099.04914,0.20576
3100.97760,0.20279
3102.90607,0.19889
3104.83454,0.20036
3106.76301,0.20961
3108.69148,0.21565
3110.61995,0.20915
3112.54842,0.19935
3114.47688,0.20017
3116.40535,0.20850
3118.33382,0.21342
3120.26229,0.21099
3122.19076,0.20452
3124.11923,0.20315
3126.04770,0.20682
3127.97617,0.20764
3129.90463,0.20674
3131.83310,0.20892
3133.76157,0.21194
3135.69004,0.21269
3137.61851,0.21231
3139.54698,0.21183
3141.47545,0.21409
3143.40391,0.21972
3145.33238,0.22328
3147.26085,0.22211
3149.18932,0.21979
3151.11779,0.21945
3153.04626,0.21766
3154.97473,0.21301
3156.90320,0.21093
3158.83166,0.21507
3160.76013,0.22144
3162.68860,0.22068
3164.61707,0.21426
3166.54554,0.21143
3168.47401,0.21330
3170.40248,0.21921
3172.33094,0.22322
3174.25941,0.21838
3176.18788,0.21265
3178.11635,0.21267
3180.04482,0.21159
3181.97329,0.20735
3183.90176,0.20899
3185.83022,0.21460
3187.75869,0.21545
3189.68716,0.21556
3191.61563,0.21662
3193.54410,0.21434
3195.47257,0.20925
3197.40104,0.20577
3199.32951,0.20849
3201.25797,0.21258
3203.18644,0.21197
3205.11491,0.20952
3207.04338,0.20823
3208.97185,0.20828
3210.90032,0.20990
3212.82879,0.21508
3214.75725,0.21950
3216.68572,0.21567
3218.61419,0.20862
3220.54266,0.20498
3222.47113,0.20514
3224.39960,0.20678
3226.32807,0.20599
3228.25654,0.20388
3230.18500,0.20416
3232.11347,0.20919
3234.04194,0.21656
3235.97041,0.21664
3237.89888,0.20832
3239.82735,0.20391
3241.75582,0.20725
3243.68428,0.21057
3245.61275,0.21067
3247.54122,0.20870
3249.46969,0.20699
3251.39816,0.20768
3253.32663,0.20869
3255.25510,0.20983
3257.18357,0.21352
3259.11203,0.21691
3261.04050,0.21416
3262.96897,0.20814
3264.89744,0.20704
3266.82591,0.21003
3268.75438,0.21475
3270.68285,0.21831
3272.61131,0.21235
3274.53978,0.20302
3276.46825,0.20118
3278.39672,0.20235
3280.32519,0.20452
3282.25366,0.20900
3284.18213,0.21155
3286.11060,0.21091
3288.03906,0.20866
3289.96753,0.20636
3291.89600,0.20567
3293.82447,0.20680
3295.75294,0.20897
3297.68141,0.21088
3299.60988,0.21134
3301.53834,0.21054
3303.46681,0.20954
3305.39528,0.21001
3307.32375,0.21171
3309.25222,0.21151
3311.18069,0.20813
3313.10916,0.20374
3315.03763,0.20275
3316.96609,0.20526
3318.89456,0.20555
3320.82303,0.20510
3322.75150,0.20828
3324.67997,0.21111
3326.60844,0.21011
3328.53691,0.20719
3330.46537,0.20416
3332.39384,0.20348
3334.32231,0.20705
3336.25078,0.20925
3338.17925,0.20712
3340.10772,0.20572
3342.03619,0.20595
3343.96466,0.20652
3345.89312,0.20658
3347.82159,0.20548
3349.75006,0.20585
3351.67853,0.20975
3353.60700,0.21605
3355.53547,0.21952
3357.46394,0.21658
3359.39240,0.21293
3361.32087,0.21376
3363.24934,0.21465
3365.17781,0.21241
3367.10628,0.21168
3369.03475,0.21182
3370.96322,0.20953
3372.89168,0.20897
3374.82015,0.21117
3376.74862,0.21116
3378.67709,0.20881
3380.60556,0.20869
3382.53403,0.20982
3384.46250,0.20877
3386.39097,0.20830
3388.31943,0.20957
3390.24790,0.20952
3392.17637,0.20863
3394.10484,0.20943
3396.03331,0.21036
3397.96178,0.20871
3399.89025,0.20576
3401.81871,0.20540
3403.74718,0.20891
3405.67565,0.21172
3407.60412,0.21110
3409.53259,0.20806
3411.46106,0.20238
3413.38953,0.19693
3415.31800,0.19675
3417.24646,0.20145
3419.17493,0.20584
3421.10340,0.20598
3423.03187,0.20157
3424.96034,0.19758
3426.88881,0.19880
3428.81728,0.20250
3430.74574,0.20318
3432.67421,0.20004
3434.60268,0.19875
3436.53115,0.20070
3438.45962,0.19934
3440.38809,0.19457
3442.31656,0.19286
3444.24503,0.19630
3446.17349,0.20123
3448.10196,0.20355
3450.03043,0.20153
3451.95890,0.19617
3453.88737,0.19201
3455.81584,0.19158
3457.74431,0.19351
3459.67277,0.19583
3461.60124,0.19657
3463.52971,0.19592
3465.45818,0.19389
3467.38665,0.19145
3469.31512,0.19228
3471.24359,0.19269
3473.17206,0.18786
3475.10052,0.18437
3477.02899,0.18690
3478.95746,0.18796
3480.88593,0.18216
3482.81440,0.17946
3484.74287,0.18728
3486.67134,0.19287
3488.59980,0.18607
3490.52827,0.17641
3492.45674,0.17426
3494.38521,0.17699
3496.31368,0.18068
3498.24215,0.18363
3500.17062,0.18328
3502.09909,0.18058
3504.02755,0.17800
3505.95602,0.17968
3507.88449,0.18483
3509.81296,0.18461
3511.74143,0.17930
3513.66990,0.17809
3515.59837,0.18007
3517.52683,0.17845
3519.45530,0.17454
3521.38377,0.17184
3523.31224,0.16958
3525.24071,0.16966
3527.16918,0.17471
3529.09765,0.18120
3531.02611,0.17991
3532.95458,0.17106
3534.88305,0.16429
3536.81152,0.16488
3538.73999,0.17066
3540.66846,0.17428
3542.59693,0.17257
3544.52540,0.16992
3546.45386,0.16923
3548.38233,0.17003
3550.31080,0.17246
3552.23927,0.17495
3554.16774,0.17477
3556.09621,0.17144
3558.02468,0.16655
3559.95314,0.16458
3561.88161,0.16777
3563.81008,0.17269
3565.73855,0.17666
3567.66702,0.17700
3569.59549,0.17199
3571.52396,0.16556
3573.45243,0.16209
3575.38089,0.15922
3577.30936,0.15364
3579.23783,0.15260
3581.16630,0.15593
3583.09477,0.15453
3585.02324,0.15097
3586.95171,0.15217
3588.88017,0.15596
3590.80864,0.15865
3592.73711,0.16117
3594.66558,0.16172
3596.59405,0.15922
3598.52252,0.15399
3600.45099,0.14567
3602.37946,0.14195
3604.30792,0.14730
3606.23639,0.15391
3608.16486,0.15520
3610.09333,0.15341
3612.02180,0.15348
3613.95027,0.15289
3615.87874,0.14627
3617.80720,0.13940
3619.73567,0.13971
3621.66414,0.14233
3623.59261,0.14623
3625.52108,0.15362
3627.44955,0.16085
3629.37802,0.16071
3631.30649,0.15457
3633.23495,0.14830
3635.16342,0.14070
3637.09189,0.13508
3639.02036,0.13507
3640.94883,0.13631
3642.87730,0.13520
3644.80577,0.13775
3646.73423,0.14896
3648.66270,0.16051
3650.59117,0.15672
3652.51964,0.14883
3654.44811,0.14389
3656.37658,0.13968
3658.30505,0.13806
3660.23352,0.13914
3662.16198,0.13956
3664.09045,0.13839
3666.01892,0.13728
3667.94739,0.13710
3669.87586,0.13927
3671.80433,0.14499
3673.73280,0.14873
3675.66126,0.14406
3677.58973,0.13671
3679.51820,0.13493
3681.44667,0.13324
3683.37514,0.12976
3685.30361,0.13075
3687.23208,0.13861
3689.16055,0.14606
3691.08901,0.14511
3693.01748,0.13737
3694.94595,0.13163
3696.87442,0.13477
3698.80289,0.14053
3700.73136,0.14154
3702.65983,0.14122
3704.58829,0.14049
3706.51676,0.13857
3708.44523,0.13814
3710.37370,0.13843
3712.30217,0.13843
3714.23064,0.13864
3716.15911,0.13795
3718.08757,0.13786
3720.01604,0.13996
3721.94451,0.14399
3723.87298,0.14695
3725.80145,0.14358
3727.72992,0.13412
3729.65839,0.12474
3731.58686,0.11953
3733.51532,0.12139
3735.44379,0.12633
3737.37226,0.12867
3739.30073,0.13127
3741.22920,0.13232
3743.15767,0.13084
3745.08614,0.13476
3747.01460,0.14161
3748.94307,0.14125
3750.87154,0.13577
3752.80001,0.13323
3754.72848,0.13136
3756.65695,0.12524
3758.58542,0.11968
3760.51389,0.12498
3762.44235,0.13548
3764.37082,0.14167
3766.29929,0.14251
3768.22776,0.14115
3770.15623,0.13979
3772.08470,0.13550
3774.01317,0.12962
3775.94163,0.12858
3777.87010,0.13129
3779.79857,0.12981
3781.72704,0.12704
3783.65551,0.12851
3785.58398,0.13099
3787.51245,0.13035
3789.44092,0.12656
3791.36938,0.12282
3793.29785,0.12280
3795.22632,0.12948
3797.15479,0.13805
3799.08326,0.13868
3801.01173,0.13425
3802.94020,0.13029
3804.86866,0.12762
3806.79713,0.12544
3808.72560,0.12489
3810.65407,0.12824
3812.58254,0.13208
3814.51101,0.13397
3816.43948,0.13613
3818.36795,0.13752
3820.29641,0.13354
3822.22488,0.12569
3824.15335,0.12158
3826.08182,0.11787
3828.01029,0.11455
3829.93876,0.11619
3831.86723,0.12016
3833.79569,0.12168
3835.72416,0.12043
3837.65263,0.11981
3839.58110,0.12510
3841.50957,0.13179
3843.43804,0.13170
3845.36651,0.12681
3847.29498,0.12420
3849.22344,0.12576
3851.15191,0.13108
3853.08038,0.13971
3855.00885,0.13474
3856.93732,0.12156
3858.86579,0.11452
3860.79426,0.11228
3862.72272,0.11300
3864.65119,0.11680
3866.57966,0.12111
3868.50813,0.12233
3870.43660,0.11811
3872.36507,0.11834
3874.29354,0.12441
3876.22200,0.12475
3878.15047,0.12317
3880.07894,0.12625
3882.00741,0.12743
3883.93588,0.12572
3885.86435,0.12569
3887.79282,0.12477
3889.72129,0.12407
3891.64975,0.12308
3893.57822,0.11937
3895.50669,0.11780
3897.43516,0.11860
3899.36363,0.11644
3901.29210,0.10974
3903.22057,0.10427
3905.14903,0.10365
3907.07750,0.10764
3909.00597,0.11570
3910.93444,0.12181
3912.86291,0.11829
3914.79138,0.10964
3916.71985,0.10546
3918.64832,0.10740
3920.57678,0.11237
3922.50525,0.11874
3924.43372,0.12252
3926.36219,0.11984
3928.29066,0.11471
3930.21913,0.11187
3932.14760,0.11158
3934.07606,0.11147
3936.00453,0.10800
3937.93300,0.10239
3939.86147,0.10001
3941.78994,0.10168
3943.71841,0.10589
3945.64688,0.11120
3947.57535,0.11534
3949.50381,0.11612
3951.43228,0.11264
3953.36075,0.10945
3955.28922,0.10962
3957.21769,0.11130
3959.14616,0.11218
3961.07463,0.11163
3963.00309,0.11112
3964.93156,0.11209
3966.86003,0.11402
3968.78850,0.11250
3970.71697,0.10854
3972.64544,0.11065
3974.57391,0.11724
3976.50238,0.11901
3978.43084,0.11397
3980.35931,0.10767
3982.28778,0.10517
3984.21625,0.10700
3986.14472,0.10995
3988.07319,0.11063
3990.00166,0.10951
3991.93012,0.10824
3993.85859,0.10713
3995.78706,0.10811
3997.71553,0.11030
3999.64400,0.10932
4001.57247,0.10642
4003.50094,0.10399
4005.42941,0.10215
4007.35787,0.10449
4009.28634,0.10955
4011.21481,0.11049
4013.14328,0.10752
4015.07175,0.10253
4017.00022,0.09718
4018.92869,0.09614
4020.85715,0.09631
4022.78562,0.09179
4024.71409,0.08792
4026.64256,0.09024
4028.57103,0.09473
4030.49950,0.09799
4032.42797,0.09926
4034.35644,0.09897
4036.28490,0.10358
4038.21337,0.11286
4040.14184,0.11464
4042.07031,0.10598
4043.99878,0.09896
4045.92725,0.10066
4047.85572,0.10119
4049.78418,0.09310
4051.71265,0.08758
4053.64112,0.09156
4055.56959,0.09421
4057.49806,0.09165
4059.42653,0.09082
4061.35500,0.09307
4063.28346,0.09587
4065.21193,0.09605
4067.14040,0.09188
4069.06887,0.08909
4070.99734,0.09158
4072.92581,0.09352
4074.85428,0.09328
4076.78275,0.09451
4078.71121,0.09908
4080.63968,0.10411
4082.56815,0.10171
4084.49662,0.09444
4086.42509,0.09174
4088.35356,0.09347
4090.28203,0.09455
4092.21049,0.09518
4094.13896,0.09736
4096.06743,0.10109
4097.99590,0.10398
4099.92437,0.10143
4101.85284,0.09644
4103.78131,0.09413
4105.70978,0.09256
4107.63824,0.08922
4109.56671,0.08739
4111.49518,0.09142
4113.42365,0.09523
4115.35212,0.09281
4117.28059,0.08893
4119.20906,0.08806
4121.13752,0.08823
4123.06599,0.08882
4124.99446,0.08943
4126.92293,0.08733
4128.85140,0.08444
4130.77987,0.08133
4132.70834,0.07937
4134.63681,0.08085
4136.56527,0.08334
4138.49374,0.08749
4140.42221,0.09042
4142.35068,0.08878
4144.27915,0.08681
4146.20762,0.08455
4148.13609,0.08004
4150.06455,0.07851
4151.99302,0.08366
4153.92149,0.08755
4155.84996,0.08323
4157.77843,0.07679
4159.70690,0.07191
4161.63537,0.06795
4163.56384,0.06969
4165.49230,0.07702
4167.42077,0.08407
4169.34924,0.08589
4171.27771,0.07962
4173.20618,0.07174
4175.13465,0.07453
4177.06312,0.08544
4178.99158,0.08775
4180.92005,0.07839
4182.84852,0.07086
4184.77699,0.07069
4186.70546,0.07148
4188.63393,0.07236
4190.56240,0.07644
4192.49087,0.07975
4194.41933,0.07981
4196.34780,0.07836
4198.27627,0.07748
4200.20474,0.08028
4202.13321,0.08617
4204.06168,0.09152
4205.99015,0.09357
4207.91861,0.09060
4209.84708,0.08576
4211.77555,0.08240
4213.70402,0.07780
4215.63249,0.07288
4217.56096,0.07151
4219.48943,0.07118
4221.41789,0.07117
4223.34636,0.07454
4225.27483,0.07759
4227.20330,0.07749
4229.13177,0.07980
4231.06024,0.08359
4232.98871,0.08075
4234.91718,0.07263
4236.84564,0.06876
4238.77411,0.07227
4240.70258,0.07741
4242.63105,0.07882
4244.55952,0.07598
4246.48799,0.07132
4248.41646,0.06907
4250.34492,0.07061
4252.27339,0.07145
4254.20186,0.07020
4256.13033,0.06846
4258.05880,0.06716
4259.98727,0.06944
4261.91574,0.07181
4263.84421,0.07084
4265.77267,0.07184
4267.70114,0.07132
4269.62961,0.06417
4271.55808,0.05972
4273.48655,0.06309
4275.41502,0.06401
4277.34349,0.05771
4279.27195,0.05615
4281.20042,0.06362
4283.12889,0.06886
4285.05736,0.06787
4286.98583,0.06302
4288.91430,0.05455
4290.84277,0.04747
4292.77124,0.04705
4294.69970,0.04990
4296.62817,0.04919
4298.55664,0.04504
4300.48511,0.04475
4302.41358,0.04768
4304.34205,0.04877
4306.27052,0.05064
4308.19898,0.05301
4310.12745,0.05335
4312.05592,0.05202
4313.98439,0.04907
4315.91286,0.04606
4317.84133,0.04603
4319.76980,0.05147
4321.69827,0.05721
4323.62673,0.05897
4325.55520,0.06045
4327.48367,0.06252
4329.41214,0.06256
4331.34061,0.05969
4333.26908,0.05988
4335.19755,0.06463
4337.12601,0.06402
4339.05448,0.05532
4340.98295,0.04560
4342.91142,0.04175
4344.83989,0.04597
4346.76836,0.05230
4348.69683,0.05481
4350.62530,0.05655
4352.55376,0.05715
4354.48223,0.05088
4356.41070,0.04337
4358.33917,0.04438
4360.26764,0.05264
4362.19611,0.05475
4364.12458,0.04051
4366.05304,0.02512
4367.98151,0.02498
4369.90998,0.03073
4371.83845,0.03131
4373.76692,0.03092
4375.69539,0.03697
4377.62386,0.04683
4379.55232,0.05317
4381.48079,0.05163
4383.40926,0.04355
4385.33773,0.04103
4387.26620,0.04367
4389.19467,0.03867
4391.12314,0.03361
4393.05161,0.04009
4394.98007,0.04823
4396.90854,0.04565
4398.83701,0.03854
4400.76548,0.03460
4402.69395,0.03187
4404.62242,0.03250
4406.55089,0.03781
4408.47935,0.04230
4410.40782,0.04367
4412.33629,0.04653
4414.26476,0.04866
4416.19323,0.04263
4418.12170,0.03438
4420.05017,0.03256
4421.97864,0.03658
4423.90710,0.04157
4425.83557,0.04169
4427.76404,0.03785
4429.69251,0.03655
4431.62098,0.03976
4433.54945,0.04577
4435.47792,0.04884
4437.40638,0.04215
4439.33485,0.02948
4441.26332,0.02230
4443.19179,0.02450
4445.12026,0.02778
4447.04873,0.02528
4448.97720,0.01889
4450.90567,0.01508
4452.83413,0.01994
4454.76260,0.02805
4456.69107,0.03081
4458.61954,0.02903
4460.54801,0.02753
4462.47648,0.02753
4464.40495,0.02616
4466.33341,0.02278
4468.26188,0.02243
4470.19035,0.03241
4472.11882,0.04618
4474.04729,0.04862
4475.97576,0.04288
4477.90423,0.03739
4479.83270,0.03078
4481.76116,0.02400
4483.68963,0.01847
4485.61810,0.01344
4487.54657,0.00968
4489.47504,0.01432
4491.40351,0.02923
4493.33198,0.03932
4495.26044,0.03841
4497.18891,0.03249
4499.11738,0.02563
4501.04585,0.02262
4502.97432,0.02291
4504.90279,0.02441
4506.83126,0.02450
4508.75973,0.02090
4510.68819,0.02067
4512.61666,0.02676
4514.54513,0.03334
4516.47360,0.03710
4518.40207,0.03523
4520.33054,0.02837
4522.25901,0.02528
4524.18747,0.03006
4526.11594,0.03429
4528.04441,0.02953
4529.97288,0.02050
4531.90135,0.01642
4533.82982,0.01652
4535.75829,0.01570
4537.68676,0.01233
4539.61522,0.00856
4541.54369,0.00723
4543.47216,0.00791
4545.40063,0.01057
4547.32910,0.01435
4549.25757,0.01619
4551.18604,0.01715
4553.11450,0.02038
4555.04297,0.02568
4556.97144,0.02634
4558.89991,0.01841
4560.82838,0.01035
4562.75685,0.01057
4564.68532,0.01700
4566.61378,0.01891
4568.54225,0.01552
4570.47072,0.01737
4572.39919,0.01963
4574.32766,0.01843
4576.25613,0.02334
4578.18460,0.02786
4580.11307,0.02197
4582.04153,0.01413
4583.97000,0.00944
4585.89847,0.00810
4587.82694,0.01410
4589.75541,0.01988
4591.68388,0.01798
4593.61235,0.01404
4595.54081,0.01073
4597.46928,0.00750
4599.39775,0.00619
4601.32622,0.00709
4603.25469,0.01137
4605.18316,0.01868
4607.11163,0.02044
4609.04010,0.01398
4610.96856,0.00790
4612.89703,0.00639
4614.82550,0.00780
4616.75397,0.00592
4618.68244,-0.00094
4620.61091,-0.00125
4622.53938,0.00817
4624.46784,0.01703
4626.39631,0.01865
4628.32478,0.01261
4630.25325,0.00402
4632.18172,0.00188
4634.11019,0.00916
4636.03866,0.02107
4637.96713,0.02689
4639.89559,0.02275
4641.82406,0.01732
4643.75253,0.01197
4645.68100,0.00676
4647.60947,0.00590
4649.53794,0.00702
4651.46641,0.01093
4653.39487,0.02012
4655.32334,0.02718
4657.25181,0.02361
4659.18028,0.01231
4661.10875,0.00227
4663.03722,0.00233
4664.96569,0.01117
4666.89416,0.01421
4668.82262,0.00737
4670.75109,0.00180
4672.67956,0.00633
4674.60803,0.01554
4676.53650,0.01429
4678.46497,0.00566
4680.39344,0.00437
4682.32190,0.00769
4684.25037,0.00854
4686.17884,0.00755
4688.10731,0.00698
4690.03578,0.00671
4691.96425,0.00761
4693.89272,0.01512
4695.82119,0.02063
4697.74965,0.01397
4699.67812,0.00714
4701.60659,0.01114
4703.53506,0.01814
4705.46353,0.01767
4707.39200,0.01475
4709.32047,0.01341
4711.24893,0.00729
4713.17740,-0.00107
4715.10587,-0.00580
4717.03434,-0.00542
4718.96281,0.00146
4720.89128,0.00937
4722.81975,0.00851
4724.74821,0.00486
4726.67668,0.01006
4728.60515,0.01504
4730.53362,0.01157
4732.46209,0.00908
4734.39056,0.01034
4736.31903,0.00531
4738.24750,-0.00397
4740.17596,-0.00645
4742.10443,-0.00751
4744.03290,-0.01135
4745.96137,-0.00314
4747.88984,0.01740
4749.81831,0.02588
4751.74678,0.01740
4753.67524,0.01416
4755.60371,0.02441
4757.53218,0.03513
4759.46065,0.03442
4761.38912,0.02020
4763.31759,0.00495
4765.24606,0.00175
4767.17453,0.00444
4769.10299,0.00253
4771.03146,-0.00121
4772.95993,-0.00070
4774.88840,0.00663
4776.81687,0.02051
4778.74534,0.02775
4780.67381,0.02303
4782.60227,0.02169
4784.53074,0.02833
4786.45921,0.03312
4788.38768,0.02708
4790.31615,0.01778
4792.24462,0.01832
4794.17309,0.01931
4796.10156,0.01207
4798.03002,0.00713
4799.95849,0.00990
4801.88696,0.01518
4803.81543,0.01873
4805.74390,0.01800
4807.67237,0.01162
4809.60084,0.00526
4811.52930,0.00619
4813.45777,0.01125
4815.38624,0.01231
4817.31471,0.00469
4819.24318,-0.00751
4821.17165,-0.01220
4823.10012,-0.00595
4825.02859,0.00215
4826.95705,0.00631
4828.88552,0.01313
4830.81399,0.02395
4832.74246,0.02382
4834.67093,0.00611
4836.59940,-0.00539
4838.52787,0.00735
4840.45633,0.02293
4842.38480,0.02053
4844.31327,0.01178
4846.24174,0.01211
4848.17021,0.01129
4850.09868,0.00002
4852.02715,-0.00767
4853.95562,-0.00712
4855.88408,-0.01075
4857.81255,-0.02006
4859.74102,-0.01862
4861.66949,0.00140
4863.59796,0.02213
4865.52643,0.02457
4867.45490,0.01162
4869.38336,0.00312
4871.31183,0.00325
4873.24030,0.00580
4875.16877,0.01794
4877.09724,0.02311
4879.02571,0.00358
4880.95418,-0.01158
4882.88265,-0.00351
4884.81111,0.00990
4886.73958,0.01531
4888.66805,0.01890
4890.59652,0.02610
4892.52499,0.03149
4894.45346,0.03550
4896.38193,0.03683
4898.31039,0.02936
4900.23886,0.02186
4902.16733,0.02292
4904.09580,0.02152
4906.02427,0.01614
4907.95274,0.01705
4909.88121,0.01509
4911.80967,0.00497
4913.73814,0.00120
4915.66661,0.00801
4917.59508,0.01526
4919.52355,0.01858
4921.45202,0.01942
4923.38049,0.01826
4925.30896,0.01399
4927.23742,0.00954
4929.16589,0.01080
4931.09436,0.01242
4933.02283,0.00622
4934.95130,0.00172
4936.87977,0.01014
4938.80824,0.01665
4940.73670,0.01182
4942.66517,0.01279
4944.59364,0.01899
4946.52211,0.01482
4948.45058,0.00451
4950.37905,-0.00030
4952.30752,0.00880
4954.23599,0.02880
4956.16445,0.03373
4958.09292,0.01820
4960.02139,0.00645
4961.94986,0.00844
4963.87833,0.01737
4965.80680,0.01916
4967.73527,0.00929
4969.66373,0.00297
4971.59220,0.00924
4973.52067,0.01901
4975.44914,0.02106
4977.37761,0.01616
4979.30608,0.01201
4981.23455,0.01805
4983.16302,0.03107
4985.09148,0.03274
4987.01995,0.02415
4988.94842,0.01977
4990.87689,0.01848
4992.80536,0.01690
4994.73383,0.01535
4996.66230,0.01215
4998.59076,0.01204
5000.51923,0.02148
5002.44770,0.03876
5004.37617,0.04512
5006.30464,0.02990
5008.23311,0.02093
5010.16158,0.03084
5012.09005,0.03116
5014.01851,0.01633
5015.94698,0.00137
5017.87545,-0.01073
5019.80392,-0.01234
5021.73239,-0.00131
5023.66086,0.01293
5025.58933,0.02280
5027.51779,0.02781
5029.44626,0.03399
5031.37473,0.04010
5033.30320,0.03754
5035.23167,0.02334
5037.16014,0.01004
5039.08861,0.01174
5041.01708,0.02126
5042.94554,0.02793
5044.87401,0.03155
5046.80248,0.02735
5048.73095,0.01945
5050.65942,0.01733
5052.58789,0.01652
5054.51636,0.01826
5056.44482,0.02071
5058.37329,0.01489
5060.30176,0.01121
5062.23023,0.01471
5064.15870,0.01450
5066.08717,0.00978
5068.01564,0.00612
5069.94410,0.00965
5071.87257,0.01747
5073.80104,0.01989
5075.72951,0.02483
5077.65798,0.03561
5079.58645,0.03915
5081.51492,0.03453
5083.44339,0.02842
5085.37185,0.02833
5087.30032,0.03693
5089.22879,0.04327
5091.15726,0.04144
5093.08573,0.03930
5095.01420,0.04413
5096.94267,0.04428
5098.87113,0.02619
5100.79960,0.00822
5102.72807,0.01211
5104.65654,0.02744
5106.58501,0.03337
5108.51348,0.02820
5110.44195,0.02298
5112.37042,0.02282
5114.29888,0.03054
5116.22735,0.03901
5118.15582,0.02941
5120.08429,0.00922
5122.01276,0.00436
5123.94123,0.01360
5125.86970,0.03002
5127.79816,0.05384
5129.72663,0.06082
5131.65510,0.03990
5133.58357,0.02633
5135.51204,0.03515
5137.44051,0.04316
5139.36898,0.04825
5141.29745,0.05444
5143.22591,0.04787
5145.15438,0.02904
5147.08285,0.02064
5149.01132,0.03264
5150.93979,0.04304
5152.86826,0.03599
5154.79673,0.02428
5156.72519,0.02385
5158.65366,0.02934
5160.58213,0.03187
5162.51060,0.04098
5164.43907,0.05055
5166.36754,0.04245
5168.29601,0.02660
5170.22448,0.01832
5172.15294,0.01664
5174.08141,0.02562
5176.00988,0.04224
5177.93835,0.04299
5179.86682,0.02916
5181.79529,0.02285
5183.72376,0.02872
5185.65222,0.03861
5187.58069,0.03828
5189.50916,0.02578
5191.43763,0.01863
5193.36610,0.03089
5195.29457,0.05039
5197.22304,0.05290
5199.15151,0.04400
5201.07997,0.04073
5203.00844,0.03860
5204.93691,0.03713
5206.86538,0.03725
5208.79385,0.03238
5210.72232,0.02618
5212.65079,0.02569
5214.57925,0.02822
5216.50772,0.03048
5218.43619,0.03720
5220.36466,0.04377
5222.29313,0.04307
5224.22160,0.03992
5226.15007,0.04184
5228.07854,0.05390
5230.00700,0.06427
5231.93547,0.05616
5233.86394,0.04596
5235.79241,0.05527
5237.72088,0.06457
5239.64935,0.05866
5241.57782,0.04419
5243.50628,0.02580
5245.43475,0.01976
5247.36322,0.03038
5249.29169,0.03823
5251.22016,0.04006
5253.14863,0.04853
5255.07710,0.06268
5257.00556,0.07177
5258.93403,0.06871
5260.86250,0.04723
5262.79097,0.02049
5264.71944,0.01154
5266.64791,0.01435
5268.57638,0.02111
5270.50485,0.03112
5272.43331,0.03052
5274.36178,0.02513
5276.29025,0.03361
5278.21872,0.04662
5280.14719,0.05422
5282.07566,0.05761
5284.00413,0.04649
5285.93259,0.03718
5287.86106,0.04683
5289.78953,0.04794
5291.71800,0.03915
5293.64647,0.04835
5295.57494,0.06474
5297.50341,0.05969
5299.43188,0.03744
5301.36034,0.02682
5303.28881,0.02456
5305.21728,0.00963
5307.14575,-0.00332
5309.07422,0.01950
5311.00269,0.06526
5312.93116,0.09599
5314.85962,0.09415
5316.78809,0.06081
5318.71656,0.03199
5320.64503,0.04242
5322.57350,0.07179
5324.50197,0.07749
5326.43044,0.05982
5328.35891,0.05588
5330.28737,0.07408
5332.21584,0.09304
5334.14431,0.10162
5336.07278,0.09980
5338.00125,0.08156
5339.92972,0.05633
5341.85819,0.04551
5343.78665,0.05278
5345.71512,0.07347
5347.64359,0.09354
5349.57206,0.09967
5351.50053,0.08827
5353.42900,0.07598
5355.35747,0.07193
5357.28594,0.06585
5359.21440,0.06387
5361.14287,0.06801
5363.07134,0.06249
5364.99981,0.04714
5366.92828,0.04770
5368.85675,0.07371
5370.78522,0.09437
5372.71368,0.08612
5374.64215,0.07221
5376.57062,0.07658
5378.49909,0.07963
5380.42756,0.06418
5382.35603,0.04161
5384.28450,0.02542
5386.21297,0.01920
5388.14143,0.02841
5390.06990,0.05099
5391.99837,0.06700
5393.92684,0.06345
5395.85531,0.05209
5397.78378,0.03657
5399.71225,0.01638
5401.64071,0.01277
5403.56918,0.04221
5405.49765,0.08058
5407.42612,0.08580
5409.35459,0.06424
5411.28306,0.05957
5413.21153,0.08442
5415.13999,0.09223
5417.06846,0.06229
5418.99693,0.04558
5420.92540,0.07243
5422.85387,0.10002
5424.78234,0.09529
5426.71081,0.08283
5428.63928,0.07492
5430.56774,0.06607
5432.49621,0.07096
5434.42468,0.08058
5436.35315,0.06597
5438.28162,0.04340
5440.21009,0.05357
5442.13856,0.08600
5444.06702,0.09731
5445.99549,0.09400
5447.92396,0.09730
5449.85243,0.09723
5451.78090,0.08751
5453.70937,0.08879
5455.63784,0.10874
5457.56631,0.12752
5459.49477,0.11981
5461.42324,0.08222
5463.35171,0.05598
5465.28018,0.05323
5467.20865,0.04231
5469.13712,0.03882
5471.06559,0.06153
5472.99405,0.08134
5474.92252,0.08404
5476.85099,0.07522
5478.77946,0.05321
5480.70793,0.03135
5482.63640,0.04003
5484.56487,0.06985
5486.49334,0.07833
5488.42180,0.06613
5490.35027,0.06051
5492.27874,0.05180
5494.20721,0.03750
5496.13568,0.03926
5498.06415,0.04596
5499.99262,0.05096
5501.92108,0.06368
5503.84955,0.07697
5505.77802,0.09876
5507.70649,0.11732
5509.63496,0.09042
5511.56343,0.04486
5513.49190,0.02707
5515.42037,0.02682
5517.34883,0.03819
5519.27730,0.06740
5521.20577,0.08980
5523.13424,0.08810
5525.06271,0.07450
5526.99118,0.06525
5528.91965,0.06849
5530.84811,0.08555
5532.77658,0.09981
5534.70505,0.09478
5536.63352,0.07599
5538.56199,0.06507
5540.49046,0.08434
5542.41893,0.11002
5544.34740,0.10030
5546.27586,0.08663
5548.20433,0.10672
5550.13280,0.12073
5552.06127,0.10124
5553.98974,0.08645
5555.91821,0.09077
5557.84668,0.08731
5559.77514,0.08281
5561.70361,0.09471
5563.63208,0.10313
5565.56055,0.08813
5567.48902,0.06522
5569.41749,0.05869
5571.34596,0.07800
5573.27443,0.10213
5575.20289,0.09665
5577.13136,0.07407
5579.05983,0.06361
5580.98830,0.05769
5582.91677,0.04982
5584.84524,0.07021
5586.77371,0.10537
5588.70217,0.09766
5590.63064,0.06210
5592.55911,0.05439
5594.48758,0.06730
5596.41605,0.07208
5598.34452,0.08643
5600.27299,0.12496
5602.20145,0.14640
5604.12992,0.12896
5606.05839,0.10182
5607.98686,0.08739
5609.91533,0.08147
5611.84380,0.07918
5613.77227,0.07771
5615.70074,0.05672
5617.62920,0.02754
5619.55767,0.03174
5621.48614,0.05961
5623.41461,0.07532
5625.34308,0.07335
5627.27155,0.06749
5629.20002,0.04962
5631.12848,0.02471
5633.05695,0.04662
5634.98542,0.10621
5636.91389,0.13102
5638.84236,0.10828
5640.77083,0.07307
5642.69930,0.06687
5644.62777,0.09174
5646.55623,0.09620
5648.48470,0.07443
5650.41317,0.06604
5652.34164,0.06094
5654.27011,0.04286
5656.19858,0.03550
5658.12705,0.04561
5660.05551,0.05736
5661.98398,0.06500
5663.91245,0.06662
5665.84092,0.07357
5667.76939,0.07991
5669.69786,0.05842
5671.62633,0.04316
5673.55480,0.05986
5675.48326,0.06149
5677.41173,0.05381
5679.34020,0.07882
5681.26867,0.09763
5683.19714,0.08924
5685.12561,0.09265
5687.05408,0.09162
5688.98254,0.06630
5690.91101,0.04727
5692.83948,0.04152
5694.76795,0.05569
5696.69642,0.08316
5698.62489,0.08124
5700.55336,0.06242
5702.48183,0.07280
5704.41029,0.10674
5706.33876,0.12746
5708.26723,0.11041
5710.19570,0.06758
5712.12417,0.03735
5714.05264,0.04918
5715.98111,0.08796
5717.90957,0.10615
5719.83804,0.10165
5721.76651,0.10261
5723.69498,0.10428
5725.62345,0.10065
5727.55192,0.08537
5729.48039,0.06077
5731.40886,0.05797
5733.33732,0.08153
5735.26579,0.10630
5737.19426,0.11308
5739.12273,0.10738
5741.05120,0.10196
5742.97967,0.09615
5744.90814,0.08844
5746.83660,0.07580
5748.76507,0.06676
5750.69354,0.07336
5752.62201,0.08147
5754.55048,0.08396
5756.47895,0.08572
5758.40742,0.09978
5760.33588,0.13387
5762.26435,0.14942
5764.19282,0.12183
5766.12129,0.09535
5768.04976,0.10696
5769.97823,0.12193
5771.90670,0.09857
5773.83517,0.06755
5775.76363,0.06484
5777.69210,0.08236
5779.62057,0.12177
5781.54904,0.17800
5783.47751,0.19877
5785.40598,0.14200
5787.33445,0.05438
5789.26291,0.03270
5791.19138,0.07732
5793.11985,0.10778
5795.04832,0.09869
5796.97679,0.08316
5798.90526,0.08199
5800.83373,0.08414
5802.76220,0.08277
5804.69066,0.07454
5806.61913,0.06533
5808.54760,0.06190
5810.47607,0.04870
5812.40454,0.03848
5814.33301,0.04511
5816.26148,0.04714
5818.18994,0.03332
5820.11841,0.02588
5822.04688,0.05463
5823.97535,0.09213
5825.90382,0.09870
5827.83229,0.09214
5829.76076,0.09194
5831.68923,0.09025
5833.61769,0.09634
5835.54616,0.09584
5837.47463,0.06990
5839.40310,0.06303
5841.33157,0.07956
5843.26004,0.06832
5845.18851,0.04334
5847.11697,0.05530
5849.04544,0.09325
5850.97391,0.11576
5852.90238,0.12339
5854.83085,0.11744
5856.75932,0.10273
5858.68779,0.09657
5860.61626,0.09948
5862.54472,0.10411
5864.47319,0.09647
5866.40166,0.08650
5868.33013,0.09262
5870.25860,0.10930
5872.18707,0.13616
5874.11554,0.16010
5876.04400,0.16886
5877.97247,0.16444
5879.90094,0.12395
5881.82941,0.06669
5883.75788,0.06142
5885.68635,0.09466
5887.61482,0.09717
5889.54329,0.08362
5891.47175,0.08416
5893.40022,0.06598
5895.32869,0.03957
5897.25716,0.04833
5899.18563,0.07353
5901.11410,0.06766
5903.04257,0.03991
5904.97103,0.04296
5906.89950,0.07817
5908.82797,0.07959
5910.75644,0.04074
5912.68491,0.02807
5914.61338,0.03836
5916.54185,0.04196
5918.47032,0.04174
5920.39878,0.03978
5922.32725,0.03117
5924.25572,0.02129
5926.18419,0.04341
5928.11266,0.09483
5930.04113,0.13037
5931.96960,0.13778
5933.89806,0.13499
5935.82653,0.12363
5937.75500,0.09164
5939.68347,0.05319
5941.61194,0.03790
5943.54041,0.04951
5945.46888,0.07495
5947.39734,0.09701
5949.32581,0.09082
5951.25428,0.09238
5953.18275,0.12738
5955.11122,0.13652
5957.03969,0.10923
5958.96816,0.08628
5960.89663,0.08113
5962.82509,0.08004
5964.75356,0.08876
5966.68203,0.12759
5968.61050,0.16656
5970.53897,0.14654
5972.46744,0.06982
5974.39591,-0.00438
5976.32437,-0.01564
5978.25284,0.03389
5980.18131,0.07835
5982.10978,0.09254
5984.03825,0.08479
5985.96672,0.04816
5987.89519,0.00865
5989.82366,0.01357
5991.75212,0.06890
5993.68059,0.13671
5995.60906,0.17660
5997.53753,0.15710
5999.46600,0.10371
6001.39447,0.08067
6003.32294,0.09014
6005.25140,0.09275
6007.17987,0.09122
6009.10834,0.10714
6011.03681,0.11969
6012.96528,0.10536
6014.89375,0.08343
6016.82222,0.06848
6018.75069,0.06110
6020.67915,0.07124
6022.60762,0.09289
6024.53609,0.10726
6026.46456,0.09543
6028.39303,0.06660
6030.32150,0.06874
6032.24997,0.08270
6034.17843,0.06685
6036.10690,0.04971
6038.03537,0.04930
6039.96384,0.05781
6041.89231,0.07681
6043.82078,0.10558
6045.74925,0.12902
6047.67772,0.12641
6049.60618,0.08877
6051.53465,0.04172
6053.46312,0.02372
6055.39159,0.04404
6057.32006,0.09200
6059.24853,0.13666
6061.17700,0.14202
6063.10546,0.12324
6065.03393,0.11977
6066.96240,0.12204
6068.89087,0.11235
6070.81934,0.10008
6072.74781,0.07448
6074.67628,0.02751
6076.60475,0.01289
6078.53321,0.07499
6080.46168,0.14103
6082.39015,0.14082
6084.31862,0.13784
6086.24709,0.16294
6088.17556,0.15911
6090.10403,0.12479
6092.03249,0.08627
6093.96096,0.04288
6095.88943,0.02124
6097.81790,0.03830
6099.74637,0.05912
6101.67484,0.07124
6103.60331,0.06885
6105.53177,0.04270
6107.46024,0.00956
6109.38871,0.00237
6111.31718,0.05406
6113.24565,0.10671
6115.17412,0.08545
6117.10259,0.04792
6119.03106,0.08556
6120.95952,0.15099
6122.88799,0.16196
6124.81646,0.12141
6126.74493,0.05686
6128.67340,0.03821
6130.60187,0.09418
6132.53034,0.13130
6134.45880,0.10839
6136.38727,0.08541
6138.31574,0.11849
6140.24421,0.18126
6142.17268,0.19690
6144.10115,0.15379
6146.02962,0.09902
6147.95809,0.07624
6149.88655,0.09587
6151.81502,0.12606
6153.74349,0.14638
6155.67196,0.13560
6157.60043,0.07253
6159.52890,0.00184
6161.45737,-0.00216
6163.38583,0.05711
6165.31430,0.09447
6167.24277,0.09137
6169.17124,0.10360
6171.09971,0.12779
6173.02818,0.13688
6174.95665,0.13640
6176.88512,0.11118
6178.81358,0.07561
6180.74205,0.08357
6182.67052,0.10105
6184.59899,0.07786
6186.52746,0.05357
6188.45593,0.07050
6190.38440,0.09856
6192.31286,0.09318
6194.24133,0.07191
6196.16980,0.08038
6198.09827,0.11886
6200.02674,0.14900
6201.95521,0.14174
6203.88368,0.10715
6205.81215,0.09764
6207.74061,0.13053
6209.66908,0.15459
6211.59755,0.12477
6213.52602,0.08064
6215.45449,0.07568
6217.38296,0.09466
6219.31143,0.08592
6221.23989,0.05456
6223.16836,0.05958
6225.09683,0.09607
6227.02530,0.08612
6228.95377,0.06705
6230.88224,0.11369
6232.81071,0.12943
6234.73918,0.03731
6236.66764,-0.03008
6238.59611,0.02021
6240.52458,0.11914
6242.45305,0.17065
6244.38152,0.14798
6246.30999,0.07102
6248.23846,0.01811
6250.16692,0.06062
6252.09539,0.11002
6254.02386,0.07577
6255.95233,0.04024
6257.88080,0.05981
6259.80927,0.08942
6261.73774,0.09867
6263.66621,0.11042
6265.59467,0.15141
6267.52314,0.17399
6269.45161,0.14772
6271.38008,0.12179
6273.30855,0.11401
6275.23702,0.10141
6277.16549,0.07982
6279.09395,0.05426
6281.02242,0.02269
6282.95089,0.00885
6284.87936,0.01606
6286.80783,0.00071
6288.73630,-0.02383
6290.66477,0.01082
6292.59323,0.10457
6294.52170,0.16487
6296.45017,0.14827
6298.37864,0.12566
6300.30711,0.14107
6302.23558,0.15368
6304.16405,0.13298
6306.09252,0.08825
6308.02098,0.05515
6309.94945,0.06858
6311.87792,0.10093
6313.80639,0.10181
6315.73486,0.07211
6317.66333,0.04390
6319.59180,0.01776
6321.52026,-0.01298
6323.44873,-0.00262
6325.37720,0.03750
6327.30567,0.06296
6329.23414,0.09858
6331.16261,0.11919
6333.09108,0.11825
6335.01955,0.13203
6336.94801,0.09984
6338.87648,0.06220
6340.80495,0.14033
6342.73342,0.25848
6344.66189,0.26436
6346.59036,0.19433
6348.51883,0.16702
6350.44729,0.11917
6352.37576,0.02090
6354.30423,-0.02636
6356.23270,-0.02817
6358.16117,-0.02628
6360.08964,-0.00570
6362.01811,0.02934
6363.94658,0.07220
6365.87504,0.12530
6367.80351,0.10764
6369.73198,0.03212
6371.66045,0.00209
6373.58892,0.02864
6375.51739,0.09250
6377.44586,0.13986
6379.37432,0.14133
6381.30279,0.12190
6383.23126,0.08821
6385.15973,0.08999
6387.08820,0.13506
6389.01667,0.14947
6390.94514,0.13351
6392.87361,0.11743
6394.80207,0.07617
6396.73054,0.03476
6398.65901,0.04116
6400.58748,0.06682
6402.51595,0.06266
6404.44442,0.04902
6406.37289,0.06379
6408.30135,0.10625
6410.22982,0.16527
6412.15829,0.22276
6414.08676,0.24817
6416.01523,0.21934
6417.94370,0.12193
6419.87217,0.04734
6421.80064,0.07939
6423.72910,0.14630
6425.65757,0.18929
6427.58604,0.19812
6429.51451,0.16619
6431.44298,0.12134
6433.37145,0.07877
6435.29992,0.05096
6437.22838,0.07785
6439.15685,0.10858
6441.08532,0.08222
6443.01379,0.05588
6444.94226,0.03783
6446.87073,-0.00867
6448.79920,-0.05740
6450.72766,-0.08799
6452.65613,-0.07631
6454.58460,-0.01138
6456.51307,0.05740
6458.44154,0.06589
6460.37001,0.07192
6462.29848,0.14506
6464.22695,0.20153
6466.15541,0.18525
6468.08388,0.13184
6470.01235,0.07887
6471.94082,0.05889
6473.86929,0.06972
6475.79776,0.11458
6477.72623,0.16250
6479.65469,0.15161
6481.58316,0.11602
6483.51163,0.07022
6485.44010,0.00678
6487.36857,0.01301
6489.29704,0.08773
6491.22551,0.09206
6493.15398,0.00644
6495.08244,-0.03642
6497.01091,-0.01260
6498.93938,0.00278
6500.86785,0.00249
6502.79632,0.01227
6504.72479,0.01227
6506.65326,0.00898
6508.58172,0.04942
6510.51019,0.13519
6512.43866,0.19930
6514.36713,0.19213
6516.29560,0.14785
6518.22407,0.13619
6520.15254,0.15073
6522.08101,0.15696
6524.00947,0.13982
6525.93794,0.08537
6527.86641,0.07197
6529.79488,0.12405
6531.72335,0.13706
6533.65182,0.11123
6535.58029,0.11881
6537.50875,0.12496
6539.43722,0.08912
6541.36569,0.07258
6543.29416,0.08937
6545.22263,0.07381
6547.15110,0.00903
6549.07957,-0.07181
6551.00804,-0.04238
6552.93650,0.10791
6554.86497,0.17543
6556.79344,0.13460
6558.72191,0.11145
6560.65038,0.12088
6562.57885,0.12255
6564.50732,0.11198
6566.43578,0.11663
6568.36425,0.10862
6570.29272,0.01535
6572.22119,-0.07610
6574.14966,-0.07121
6576.07813,-0.04717
6578.00660,0.00586
6579.93507,0.11429
6581.86353,0.14532
6583.79200,0.03861
6585.72047,-0.06214
6587.64894,-0.03004
6589.57741,0.08494
6591.50588,0.16247
6593.43435,0.16777
6595.36281,0.10577
6597.29128,-0.00474
6599.21975,-0.07455
6601.14822,-0.05101
6603.07669,0.01195
6605.00516,0.07554
6606.93363,0.11168
6608.86210,0.12157
6610.79056,0.13830
6612.71903,0.16419
6614.64750,0.15528
6616.57597,0.05801
6618.50444,-0.06672
6620.43291,-0.11964
6622.36138,-0.09723
6624.28984,-0.04073
6626.21831,0.01903
6628.14678,0.05864
6630.07525,0.07492
6632.00372,0.07303
6633.93219,0.05005
6635.86066,0.07475
6637.78912,0.11536
6639.71759,0.05392
6641.64606,-0.01841
6643.57453,0.00091
6645.50300,0.03119
6647.43147,0.05413
6649.35994,0.11853
6651.28841,0.13014
6653.21687,0.05876
6655.14534,0.01314
6657.07381,0.04420
6659.00228,0.06969
6660.93075,0.06236
6662.85922,0.07591
6664.78769,0.08857
6666.71615,0.08801
6668.64462,0.11119
6670.57309,0.15354
6672.50156,0.18558
6674.43003,0.17347
6676.35850,0.12613
6678.28697,0.09811
6680.21544,0.07895
6682.14390,0.03740
6684.07237,0.03714
6686.00084,0.10492
6687.92931,0.09208
6689.85778,-0.04019
6691.78625,-0.07487
6693.71472,0.00433
6695.64318,0.06586
6697.57165,0.08122
6699.50012,0.08966
6701.42859,0.08536
6703.35706,0.05718
6705.28553,0.02058
6707.21400,-0.01056
6709.14247,-0.04311
6711.07093,-0.05842
6712.99940,-0.02239
6714.92787,0.02346
6716.85634,0.05001
6718.78481,0.03913
6720.71328,-0.02998
6722.64175,-0.02779
6724.57021,0.08950
6726.49868,0.18159
6728.42715,0.18647
6730.35562,0.16696
6732.28409,0.14430
6734.21256,0.06041
6736.14103,-0.03260
6738.06950,-0.03405
6739.99796,0.06001
6741.92643,0.14510
6743.85490,0.15232
6745.78337,0.16464
6747.71184,0.22530
6749.64031,0.27452
6751.56878,0.22380
6753.49724,0.10582
6755.42571,0.05114
6757.35418,0.07352
6759.28265,0.08747
6761.21112,0.05329
6763.13959,0.02756
6765.06806,0.05232
6766.99653,0.09181
6768.92499,0.11523
6770.85346,0.10602
6772.78193,0.04939
6774.71040,0.00663
6776.63887,-0.02014
6778.56734,-0.05668
6780.49581,-0.01164
6782.42427,0.06380
6784.35274,0.03368
6786.28121,-0.00133
6788.20968,0.06081
6790.13815,0.09902
6792.06662,0.02315
6793.99509,-0.06550
6795.92355,-0.08207
6797.85202,-0.02814
6799.78049,0.10581
6801.70896,0.25798
6803.63743,0.28883
6805.56590,0.25021
6807.49437,0.20364
6809.42284,0.14919
6811.35130,0.12948
6813.27977,0.11376
6815.20824,0.07219
6817.13671,0.00433
6819.06518,-0.05225
6820.99365,-0.02462
6822.92212,0.05695
6824.85058,0.08468
6826.77905,0.07014
6828.70752,0.03992
6830.63599,0.01192
6832.56446,0.04441
6834.49293,0.13078
6836.42140,0.17358
6838.34987,0.11962
6840.27833,0.07755
6842.20680,0.08080
6844.13527,0.06116
6846.06374,-0.02942
6847.99221,-0.21921
6849.92068,-0.32654
6851.84915,-0.21073
6853.77761,-0.03252
6855.70608,0.10286
6857.63455,0.13344
6859.56302,0.06811
6861.49149,0.02647
6863.41996,0.09283
6865.34843,0.19109
6867.27690,0.20993
6869.20536,0.13338
6871.13383,0.08746
6873.06230,0.11665
6874.99077,0.09851
6876.91924,0.07036
6878.84771,0.09527
6880.77618,0.12086
6882.70464,0.13935
6884.63311,0.13553
6886.56158,0.09781
6888.49005,0.02805
6890.41852,-0.04835
6892.34699,-0.03768
6894.27546,0.02567
6896.20393,0.02732
6898.13239,-0.01127
6900.06086,0.02100
6901.98933,0.15608
6903.91780,0.28695
6905.84627,0.26230
6907.77474,0.20100
6909.70321,0.23278
6911.63167,0.20873
6913.56014,0.11187
6915.48861,0.10777
6917.41708,0.14540
6919.34555,0.14001
6921.27402,0.16316
6923.20249,0.15709
6925.13096,0.06877
6927.05942,0.01109
6928.98789,-0.03520
6930.91636,-0.18610
6932.84483,-0.24476
6934.77330,-0.09275
6936.70177,0.02251
6938.63024,0.04612
6940.55870,0.09505
6942.48717,0.15154
6944.41564,0.16402
6946.34411,0.11628
6948.27258,0.02592
6950.20105,0.02003
6952.12952,0.12572
6954.05799,0.21249
6955.98645,0.14551
6957.91492,-0.00160
6959.84339,-0.06757
6961.77186,-0.04573
6963.70033,-0.02247
6965.62880,-0.01842
6967.55727,-0.01532
6969.48573,0.00619
6971.41420,0.08232
6973.34267,0.16400
6975.27114,0.14379
6977.19961,0.05332
6979.12808,0.04118
6981.05655,0.13014
6982.98501,0.15588
6984.91348,0.05757
6986.84195,-0.01158
6988.77042,-0.03564
6990.69889,-0.06125
6992.62736,-0.00240
6994.55583,0.10872
6996.48430,0.14070
6998.41276,0.11424
7000.34123,0.09032
7002.26970,0.06924
7004.19817,0.09737
7006.12664,0.14094
7008.05511,0.09257
7009.98358,-0.00787
7011.91204,-0.03427
7013.84051,0.06721
7015.76898,0.18707
7017.69745,0.19998
7019.62592,0.17118
7021.55439,0.20918
7023.48286,0.25045
7025.41133,0.20779
7027.33979,0.14851
7029.26826,0.11790
7031.19673,0.05431
7033.12520,-0.04390
7035.05367,-0.05952
7036.98214,0.04693
7038.91061,0.09426
7040.83907,0.03320
7042.76754,0.05546
7044.69601,0.16351
7046.62448,0.15978
7048.55295,0.11798
7050.48142,0.11231
7052.40989,0.09143
7054.33836,0.05103
7056.26682,0.06258
7058.19529,0.15627
7060.12376,0.18920
7062.05223,0.13614
7063.98070,0.10004
7065.90917,0.07424
7067.83764,0.03502
7069.76610,0.01716
7071.69457,-0.02575
7073.62304,-0.10242
7075.55151,-0.09414
7077.47998,0.02725
7079.40845,0.19331
7081.33692,0.29392
7083.26539,0.26963
7085.19385,0.15967
7087.12232,0.06589
7089.05079,0.10005
7090.97926,0.09792
7092.90773,-0.03418
7094.83620,-0.06664
7096.76467,0.06762
7098.69313,0.17275
7100.62160,0.18488
7102.55007,0.11034
7104.47854,-0.05262
7106.40701,-0.15941
7108.33548,-0.12309
7110.26395,-0.00497
7112.19242,0.12914
7114.12088,0.21654
7116.04935,0.29170
7117.97782,0.34691
7119.90629,0.29837
7121.83476,0.19410
7123.76323,0.10491
7125.69170,0.07566
7127.62016,0.11022
7129.54863,0.14577
7131.47710,0.13620
7133.40557,0.09729
7135.33404,0.10200
7137.26251,0.16528
7139.19098,0.15388
7141.11944,0.01992
7143.04791,-0.14079
7144.97638,-0.15561
7146.90485,0.06549
7148.83332,0.24771
7150.76179,0.26204
7152.69026,0.20609
7154.61873,0.15743
7156.54719,0.13299
7158.47566,0.11636
7160.40413,0.04569
7162.33260,-0.05573
7164.26107,-0.10036
7166.18954,-0.09654
7168.11801,-0.07006
7170.04647,0.00082
7171.97494,0.08309
7173.90341,0.11433
7175.83188,0.04246
7177.76035,-0.03010
7179.68882,0.12338
7181.61729,0.36970
7183.54576,0.32058
7185.47422,0.16898
7187.40269,0.22499
7189.33116,0.26654
7191.25963,0.14088
7193.18810,0.04317
7195.11657,0.05720
7197.04504,0.06088
7198.97350,0.03141
7200.90197,0.01356
7202.83044,-0.00239
7204.75891,0.02810
7206.68738,0.10026
7208.61585,0.06529
7210.54432,0.01476
7212.47279,0.09571
7214.40125,0.21040
7216.32972,0.19470
7218.25819,0.09795
7220.18666,0.05264
7222.11513,0.01852
7224.04360,0.01496
7225.97207,0.11342
7227.90053,0.30457
7229.82900,0.43961
7231.75747,0.35038
7233.68594,0.13990
7235.61441,-0.03906
7237.54288,-0.10349
7239.47135,0.03612
7241.39982,0.24119
7243.32828,0.23534
7245.25675,0.04708
7247.18522,-0.05260
7249.11369,-0.07900
7251.04216,-0.15458
7252.97063,-0.18923
7254.89910,-0.04673
7256.82756,0.10152
7258.75603,0.24551
7260.68450,0.39388
7262.61297,0.36551
7264.54144,0.17327
7266.46991,0.01665
7268.39838,-0.05634
7270.32685,-0.07449
7272.25531,0.01956
7274.18378,0.12857
7276.11225,0.10432
7278.04072,0.00124
7279.96919,-0.12490
7281.89766,-0.23065
7283.82613,-0.28692
7285.75459,-0.21398
7287.68306,-0.04829
7289.61153,0.15069
7291.54000,0.30898
7293.46847,0.33054
7295.39694,0.18058
7297.32541,-0.03806
7299.25387,-0.13001
7301.18234,-0.02172
7303.11081,0.17344
7305.03928,0.28224
7306.96775,0.33951
7308.89622,0.38263
7310.82469,0.27883
7312.75316,0.04944
7314.68162,-0.10625
7316.61009,0.03022
7318.53856,0.26134
7320.46703,0.29252
7322.39550,0.16181
7324.32397,0.00472
7326.25244,-0.03481
7328.18090,0.08254
7330.10937,0.33286
7332.03784,0.47029
7333.96631,0.33636
7335.89478,0.13398
7337.82325,0.00068
7339.75172,-0.21403
7341.68019,-0.35941
7343.60865,-0.14594
7345.53712,0.12099
7347.46559,0.13566
7349.39406,0.13404
7351.32253,0.33209
7353.25100,0.51451
7355.17947,0.55678
7357.10793,0.45691
7359.03640,0.24389
7360.96487,0.00105
7362.89334,-0.11209
7364.82181,0.00987
7366.75028,0.18068
7368.67875,0.22607
7370.60722,0.15528
7372.53568,0.10079
7374.46415,0.10821
7376.39262,0.00438
7378.32109,-0.17389
7380.24956,-0.19866
7382.17803,-0.01981
7384.10650,0.28623
7386.03496,0.53432
7387.96343,0.40409
7389.89190,0.07486
7391.82037,-0.08886
7393.74884,-0.14377
7395.67731,-0.18958
7397.60578,-0.17884
7399.53425,-0.11024
7401.46271,-0.00534
7403.39118,0.03390
7405.31965,-0.11802
7407.24812,-0.24824
7409.17659,-0.20254
7411.10506,-0.17441
7413.03353,-0.22364
7414.96199,-0.16122
7416.89046,0.00330
7418.81893,0.04024
7420.74740,-0.01172
7422.67587,0.00512
7424.60434,0.02789
7426.53281,0.09660
7428.46128,0.24114
7430.38974,0.25326
7432.31821,0.14803
7434.24668,0.17935
7436.17515,0.18814
7438.10362,0.11708
7440.03209,0.13787
7441.96056,0.20980
7443.88902,0.26355
7445.81749,0.27343
7447.74596,0.32419
7449.67443,0.39935
7451.60290,0.26725
7453.53137,0.06193
7455.45984,0.06954
7457.38831,0.11251
7459.31677,-0.04175
7461.24524,-0.25954
7463.17371,-0.24549
7465.10218,-0.01132
7467.03065,0.25939
7468.95912,0.39947
7470.88759,0.39758
7472.81605,0.25709
7474.74452,0.14252
7476.67299,0.17426
7478.60146,0.26241
7480.52993,0.24423
7482.45840,0.19025
7484.38687,0.15746
7486.31533,0.09442
7488.24380,0.10143
7490.17227,0.17430
7492.10074,0.13561
7494.02921,0.03200
7495.95768,0.00360
7497.88615,0.02222
