399.19301,2.62788
401.12148,1.52815
403.04995,0.64507
404.97842,0.14842
406.90689,-0.02528
408.83536,0.02337
410.76382,0.07445
412.69229,-0.02272
414.62076,-0.06418
416.54923,0.03892
418.47770,0.14298
420.40617,0.15514
422.33464,0.17355
424.26311,0.11996
426.19157,-0.02901
428.12004,-0.12977
430.04851,-0.09503
431.97698,0.07819
433.90545,0.23902
435.83392,0.27492
437.76239,0.19797
439.69085,0.13348
441.61932,0.19492
443.54779,0.26570
445.47626,0.15832
447.40473,0.05477
449.33320,0.17255
451.26167,0.27491
453.19013,0.21711
455.11860,0.15536
457.04707,0.11713
458.97554,0.05347
460.90401,0.00855
462.83248,0.01810
464.76095,0.09642
466.68942,0.18367
468.61788,0.18372
470.54635,0.14053
472.47482,0.15427
474.40329,0.21623
476.33176,0.22633
478.26023,0.18642
480.18870,0.15595
482.11716,0.14923
484.04563,0.16010
485.97410,0.19957
487.90257,0.20537
489.83104,0.14030
491.75951,0.06385
493.68798,0.04803
495.61645,0.08804
497.54491,0.11161
499.47338,0.07825
501.40185,0.02242
503.33032,0.03631
505.25879,0.10738
507.18726,0.11922
509.11573,0.09256
511.04419,0.11989
512.97266,0.14926
514.90113,0.12632
516.82960,0.12295
518.75807,0.15649
520.68654,0.15188
522.61501,0.12866
524.54348,0.11775
526.47194,0.10449
528.40041,0.11741
530.32888,0.16332
532.25735,0.19234
534.18582,0.18658
536.11429,0.16168
538.04276,0.12996
539.97122,0.11212
541.89969,0.12600
543.82816,0.14824
545.75663,0.14489
547.68510,0.13729
549.61357,0.16723
551.54204,0.24105
553.47051,0.28092
555.39897,0.22623
557.32744,0.16825
559.25591,0.16930
561.18438,0.14751
563.11285,0.08282
565.04132,0.05928
566.96979,0.09573
568.89825,0.12271
570.82672,0.11527
572.75519,0.09227
574.68366,0.07187
576.61213,0.07428
578.54060,0.10248
580.46907,0.13740
582.39754,0.13528
584.32600,0.09380
586.25447,0.06248
588.18294,0.06231
590.11141,0.08565
592.03988,0.11445
593.96835,0.12603
595.89682,0.13255
597.82528,0.14172
599.75375,0.13027
601.68222,0.11103
603.61069,0.11763
605.53916,0.12273
607.46763,0.10145
609.39610,0.08949
611.32456,0.10413
613.25303,0.12252
615.18150,0.12551
617.10997,0.12182
619.03844,0.13453
620.96691,0.14278
622.89538,0.12001
624.82385,0.09385
626.75231,0.08695
628.68078,0.09477
630.60925,0.11396
632.53772,0.13007
634.46619,0.11773
636.39466,0.08864
638.32313,0.07198
640.25159,0.07109
642.18006,0.08570
644.10853,0.11642
646.03700,0.14502
647.96547,0.15221
649.89394,0.14620
651.82241,0.14519
653.75088,0.14450
655.67934,0.14021
657.60781,0.14515
659.53628,0.16479
661.46475,0.17838
663.39322,0.17497
665.32169,0.16634
667.25016,0.14616
669.17862,0.11742
671.10709,0.12158
673.03556,0.13923
674.96403,0.14699
676.89250,0.14539
678.82097,0.14859
680.74944,0.15863
682.67791,0.16851
684.60637,0.16406
686.53484,0.14607
688.46331,0.13682
690.39178,0.13284
692.32025,0.12650
694.24872,0.13210
696.17719,0.14166
698.10565,0.13662
700.03412,0.13177
701.96259,0.13474
703.89106,0.13178
705.81953,0.13041
707.74800,0.12962
709.67647,0.10908
711.60494,0.08853
713.53340,0.09945
715.46187,0.12679
717.39034,0.14223
719.31881,0.14537
721.24728,0.14917
723.17575,0.14972
725.10422,0.13999
727.03268,0.13217
728.96115,0.13208
730.88962,0.13299
732.81809,0.13066
734.74656,0.12088
736.67503,0.11205
738.60350,0.11816
740.53197,0.12971
742.46043,0.13549
744.38890,0.13949
746.31737,0.14067
748.24584,0.13881
750.17431,0.13591
752.10278,0.13232
754.03125,0.12949
755.95971,0.12926
757.88818,0.13469
759.81665,0.14028
761.74512,0.14089
763.67359,0.13801
765.60206,0.12977
767.53053,0.12237
769.45900,0.12569
771.38746,0.13594
773.31593,0.14511
775.24440,0.15056
777.17287,0.15063
779.10134,0.14261
781.02981,0.12904
782.95828,0.12247
784.88674,0.12994
786.81521,0.13549
788.74368,0.13026
790.67215,0.13187
792.60062,0.14363
794.52909,0.15125
796.45756,0.14997
798.38602,0.14721
800.31449,0.14689
802.24296,0.13888
804.17143,0.12501
806.09990,0.12339
808.02837,0.13266
809.95684,0.13788
811.88531,0.13945
813.81377,0.13971
815.74224,0.13112
817.67071,0.11733
819.59918,0.11568
821.52765,0.13080
823.45612,0.14679
825.38459,0.15578
827.31305,0.16222
829.24152,0.16249
831.16999,0.15669
833.09846,0.15048
835.02693,0.14362
836.95540,0.13954
838.88387,0.13765
840.81234,0.13245
842.74080,0.13133
844.66927,0.13334
846.59774,0.12926
848.52621,0.12798
850.45468,0.13603
852.38315,0.14115
854.31162,0.13999
856.24008,0.14884
858.16855,0.16562
860.09702,0.16847
862.02549,0.15886
863.95396,0.14813
865.88243,0.12192
867.81090,0.07982
869.73937,0.05886
871.66783,0.08195
873.59630,0.13216
875.52477,0.17324
877.45324,0.18582
879.38171,0.17329
881.31018,0.15349
883.23865,0.15085
885.16711,0.15501
887.09558,0.14716
889.02405,0.13619
890.95252,0.13067
892.88099,0.13449
894.80946,0.14498
896.73793,0.14997
898.66640,0.14605
900.59486,0.14278
902.52333,0.14666
904.45180,0.15447
906.38027,0.15871
908.30874,0.15231
910.23721,0.14219
912.16568,0.14382
914.09414,0.15453
916.02261,0.16018
917.95108,0.15912
919.87955,0.15465
921.80802,0.15028
923.73649,0.15183
925.66496,0.15438
927.59343,0.15324
929.52189,0.15227
931.45036,0.15303
933.37883,0.15634
935.30730,0.15851
937.23577,0.15608
939.16424,0.15353
941.09271,0.15092
943.02117,0.14524
944.94964,0.13987
946.87811,0.13787
948.80658,0.13687
950.73505,0.13977
952.66352,0.15190
954.59199,0.16281
956.52045,0.15777
958.44892,0.14250
960.37739,0.13398
962.30586,0.13629
964.23433,0.13986
966.16280,0.14065
968.09127,0.14423
970.01974,0.15325
971.94820,0.16000
973.87667,0.15679
975.80514,0.14954
977.73361,0.14591
979.66208,0.14506
981.59055,0.14467
983.51902,0.14406
985.44748,0.14537
987.37595,0.15118
989.30442,0.15760
991.23289,0.15665
993.16136,0.14736
995.08983,0.13728
997.01830,0.13543
998.94677,0.14463
1000.87523,0.15541
1002.80370,0.15801
1004.73217,0.15701
1006.66064,0.15716
1008.58911,0.15443
1010.51758,0.15133
1012.44605,0.15346
1014.37451,0.15871
1016.30298,0.16235
1018.23145,0.16077
1020.15992,0.15593
1022.08839,0.15077
1024.01686,0.14664
1025.94533,0.14786
1027.87380,0.14920
1029.80226,0.14223
1031.73073,0.13582
1033.65920,0.13935
1035.58767,0.14758
1037.51614,0.15183
1039.44461,0.15180
1041.37308,0.15749
1043.30154,0.16868
1045.23001,0.17191
1047.15848,0.16909
1049.08695,0.17259
1051.01542,0.17512
1052.94389,0.16038
1054.87236,0.14072
1056.80083,0.13824
1058.72929,0.14626
1060.65776,0.15441
1062.58623,0.16281
1064.51470,0.16575
1066.44317,0.16331
1068.37164,0.16279
1070.30011,0.16579
1072.22857,0.16773
1074.15704,0.16421
1076.08551,0.15878
1078.01398,0.15728
1079.94245,0.16063
1081.87092,0.15994
1083.79939,0.14878
1085.72786,0.13787
1087.65632,0.13484
1089.58479,0.13796
1091.51326,0.14758
1093.44173,0.15936
1095.37020,0.16641
1097.29867,0.16969
1099.22714,0.17087
1101.15560,0.17249
1103.08407,0.17997
1105.01254,0.18276
1106.94101,0.17324
1108.86948,0.16689
1110.79795,0.17090
1112.72642,0.17333
1114.65489,0.17082
1116.58335,0.17403
1118.51182,0.18058
1120.44029,0.17424
1122.36876,0.15531
1124.29723,0.14302
1126.22570,0.14644
1128.15417,0.15453
1130.08263,0.15763
1132.01110,0.16065
1133.93957,0.16773
1135.86804,0.17164
1137.79651,0.16975
1139.72498,0.16881
1141.65345,0.16965
1143.58191,0.16592
1145.51038,0.16033
1147.43885,0.16161
1149.36732,0.16670
1151.29579,0.17142
1153.22426,0.17630
1155.15273,0.18092
1157.08120,0.18545
1159.00966,0.18524
1160.93813,0.18022
1162.86660,0.17991
1164.79507,0.18284
1166.72354,0.17873
1168.65201,0.17191
1170.58048,0.17270
1172.50894,0.17568
1174.43741,0.17369
1176.36588,0.17222
1178.29435,0.17253
1180.22282,0.16906
1182.15129,0.16359
1184.07976,0.16055
1186.00823,0.16065
1187.93669,0.16238
1189.86516,0.16285
1191.79363,0.16152
1193.72210,0.15862
1195.65057,0.15500
1197.57904,0.15598
1199.50751,0.16256
1201.43597,0.16793
1203.36444,0.16941
1205.29291,0.16895
1207.22138,0.16765
1209.14985,0.16542
1211.07832,0.16463
1213.00679,0.16980
1214.93526,0.17569
1216.86372,0.17366
1218.79219,0.16809
1220.72066,0.16405
1222.64913,0.16060
1224.57760,0.15869
1226.50607,0.15575
1228.43454,0.15138
1230.36300,0.15274
1232.29147,0.15971
1234.21994,0.16427
1236.14841,0.16349
1238.07688,0.16224
1240.00535,0.16472
1241.93382,0.16798
1243.86229,0.16696
1245.79075,0.16030
1247.71922,0.15241
1249.64769,0.15006
1251.57616,0.15275
1253.50463,0.15593
1255.43310,0.16002
1257.36157,0.16399
1259.29003,0.16247
1261.21850,0.15867
1263.14697,0.16042
1265.07544,0.16231
1267.00391,0.15805
1268.93238,0.15433
1270.86085,0.15674
1272.78932,0.16252
1274.71778,0.16648
1276.64625,0.17027
1278.57472,0.17506
1280.50319,0.17371
1282.43166,0.16869
1284.36013,0.16675
1286.28860,0.16418
1288.21706,0.16100
1290.14553,0.16065
1292.07400,0.16117
1294.00247,0.16093
1295.93094,0.15931
1297.85941,0.15509
1299.78788,0.14658
1301.71634,0.13116
1303.64481,0.11411
1305.57328,0.11516
1307.50175,0.13893
1309.43022,0.16142
1311.35869,0.17069
1313.28716,0.17411
1315.21563,0.17429
1317.14409,0.17173
1319.07256,0.16738
1321.00103,0.16255
1322.92950,0.16083
1324.85797,0.15986
1326.78644,0.15805
1328.71491,0.15780
1330.64337,0.15525
1332.57184,0.15463
1334.50031,0.15968
1336.42878,0.16236
1338.35725,0.16417
1340.28572,0.16293
1342.21419,0.15977
1344.14266,0.16294
1346.07112,0.16371
1347.99959,0.16260
1349.92806,0.16519
1351.85653,0.16427
1353.78500,0.16093
1355.71347,0.16127
1357.64194,0.16417
1359.57040,0.16727
1361.49887,0.17282
1363.42734,0.17892
1365.35581,0.17926
1367.28428,0.17543
1369.21275,0.16972
1371.14122,0.16757
1373.06969,0.17240
1374.99815,0.17532
1376.92662,0.17213
1378.85509,0.17089
1380.78356,0.17247
1382.71203,0.17439
1384.64050,0.17994
1386.56897,0.18764
1388.49743,0.18704
1390.42590,0.18307
1392.35437,0.18732
1394.28284,0.19676
1396.21131,0.20175
1398.13978,0.19772
1400.06825,0.18838
1401.99672,0.18448
1403.92518,0.18763
1405.85365,0.18996
1407.78212,0.18842
1409.71059,0.18643
1411.63906,0.18482
1413.56753,0.18342
1415.49600,0.18458
1417.42446,0.18913
1419.35293,0.19094
1421.28140,0.18811
1423.20987,0.18294
1425.13834,0.17639
1427.06681,0.17741
1428.99528,0.18299
1430.92375,0.18246
1432.85221,0.18431
1434.78068,0.19591
1436.70915,0.20340
1438.63762,0.19487
1440.56609,0.18584
1442.49456,0.18265
1444.42303,0.18330
1446.35149,0.18802
1448.27996,0.19327
1450.20843,0.19056
1452.13690,0.18475
1454.06537,0.18856
1455.99384,0.20949
1457.92231,0.22617
1459.85077,0.21086
1461.77924,0.19561
1463.70771,0.19053
1465.63618,0.18959
1467.56465,0.18944
1469.49312,0.19327
1471.42159,0.20114
1473.35006,0.20720
1475.27852,0.20537
1477.20699,0.19793
1479.13546,0.19111
1481.06393,0.18836
1482.99240,0.18791
1484.92087,0.19067
1486.84934,0.19978
1488.77780,0.21170
1490.70627,0.20914
1492.63474,0.19777
1494.56321,0.19750
1496.49168,0.20896
1498.42015,0.21398
1500.34862,0.20758
1502.27709,0.20545
1504.20555,0.21472
1506.13402,0.23719
1508.06249,0.24692
1509.99096,0.22933
1511.91943,0.21140
1513.84790,0.20658
1515.77637,0.21657
1517.70483,0.22515
1519.63330,0.22953
1521.56177,0.23410
1523.49024,0.22322
1525.41871,0.21177
1527.34718,0.21023
1529.27565,0.20877
1531.20412,0.20697
1533.13258,0.20842
1535.06105,0.21021
1536.98952,0.21840
1538.91799,0.24265
1540.84646,0.25913
1542.77493,0.24067
1544.70340,0.22171
1546.63186,0.20808
1548.56033,0.19913
1550.48880,0.19596
1552.41727,0.20129
1554.34574,0.21389
1556.27421,0.23172
1558.20268,0.24787
1560.13115,0.22287
1562.05961,0.19975
1563.98808,0.19635
1565.91655,0.19822
1567.84502,0.20058
1569.77349,0.20092
1571.70196,0.19717
1573.63043,0.19980
1575.55889,0.20784
1577.48736,0.20043
1579.41583,0.18491
1581.34430,0.17803
1583.27277,0.17768
1585.20124,0.17778
1587.12971,0.17662
1589.05818,0.17647
1590.98664,0.17898
1592.91511,0.18241
1594.84358,0.18301
1596.77205,0.18005
1598.70052,0.17789
1600.62899,0.18007
1602.55746,0.18417
1604.48592,0.18521
1606.41439,0.18482
1608.34286,0.18575
1610.27133,0.18298
1612.19980,0.17743
1614.12827,0.17925
1616.05674,0.19396
1617.98521,0.20683
1619.91367,0.20872
1621.84214,0.21284
1623.77061,0.21244
1625.69908,0.20211
1627.62755,0.19654
1629.55602,0.19363
1631.48449,0.19080
1633.41295,0.19606
1635.34142,0.20738
1637.26989,0.20768
1639.19836,0.20245
1641.12683,0.19970
1643.05530,0.20236
1644.98377,0.21725
1646.91223,0.23477
1648.84070,0.22996
1650.76917,0.22776
1652.69764,0.24030
1654.62611,0.22493
1656.55458,0.20134
1658.48305,0.19521
1660.41152,0.20027
1662.33998,0.20626
1664.26845,0.20558
1666.19692,0.20658
1668.12539,0.21398
1670.05386,0.21796
1671.98233,0.21369
1673.91080,0.21253
1675.83926,0.21329
1677.76773,0.21076
1679.69620,0.21131
1681.62467,0.22009
1683.55314,0.23006
1685.48161,0.22076
1687.41008,0.20968
1689.33855,0.20671
1691.26701,0.20499
1693.19548,0.20873
1695.12395,0.22274
1697.05242,0.23330
1698.98089,0.23017
1700.90936,0.22196
1702.83783,0.21641
1704.76629,0.21757
1706.69476,0.21749
1708.62323,0.20929
1710.55170,0.20188
1712.48017,0.20157
1714.40864,0.21029
1716.33711,0.22323
1718.26558,0.21650
1720.19404,0.19817
1722.12251,0.18924
1724.05098,0.18853
1725.97945,0.19244
1727.90792,0.19867
1729.83639,0.20623
1731.76486,0.21562
1733.69332,0.22017
1735.62179,0.21054
1737.55026,0.20287
1739.47873,0.20035
1741.40720,0.19876
1743.33567,0.19895
1745.26414,0.20163
1747.19261,0.20909
1749.12107,0.21683
1751.04954,0.21239
1752.97801,0.20391
1754.90648,0.20143
1756.83495,0.20084
1758.76342,0.19979
1760.69189,0.19998
1762.62035,0.19705
1764.54882,0.19112
1766.47729,0.19325
1768.40576,0.20756
1770.33423,0.22285
1772.26270,0.22082
1774.19117,0.20393
1776.11964,0.19406
1778.04810,0.19451
1779.97657,0.19882
1781.90504,0.19893
1783.83351,0.19477
1785.76198,0.18968
1787.69045,0.18939
1789.61892,0.19880
1791.54738,0.20753
1793.47585,0.20040
1795.40432,0.19023
1797.33279,0.18822
1799.26126,0.19162
1801.18973,0.19553
1803.11820,0.19516
1805.04666,0.19101
1806.97513,0.18714
1808.90360,0.18655
1810.83207,0.18864
1812.76054,0.18914
1814.68901,0.18588
1816.61748,0.17919
1818.54595,0.17363
1820.47441,0.17788
1822.40288,0.18971
1824.33135,0.19655
1826.25982,0.19491
1828.18829,0.19392
1830.11676,0.19463
1832.04523,0.19226
1833.97369,0.19024
1835.90216,0.19044
1837.83063,0.18960
1839.75910,0.19080
1841.68757,0.19770
1843.61604,0.20344
1845.54451,0.20022
1847.47298,0.19337
1849.40144,0.18787
1851.32991,0.18586
1853.25838,0.18744
1855.18685,0.18679
1857.11532,0.18305
1859.04379,0.18320
1860.97226,0.18755
1862.90072,0.18993
1864.82919,0.19165
1866.75766,0.19856
1868.68613,0.20346
1870.61460,0.19721
1872.54307,0.19081
1874.47154,0.18861
1876.40001,0.18679
1878.32847,0.18578
1880.25694,0.18686
1882.18541,0.18905
1884.11388,0.19106
1886.04235,0.19213
1887.97082,0.19402
1889.89929,0.19696
1891.82775,0.19691
1893.75622,0.19323
1895.68469,0.18851
1897.61316,0.18564
1899.54163,0.18570
1901.47010,0.18667
1903.39857,0.18724
1905.32704,0.18853
1907.25550,0.19005
1909.18397,0.18958
1911.11244,0.18707
1913.04091,0.18558
1914.96938,0.18809
1916.89785,0.19370
1918.82632,0.19765
1920.75478,0.19791
1922.68325,0.19604
1924.61172,0.19240
1926.54019,0.18901
1928.46866,0.18814
1930.39713,0.18834
1932.32560,0.18781
1934.25407,0.18755
1936.18253,0.18837
1938.11100,0.19028
1940.03947,0.19258
1941.96794,0.19317
1943.89641,0.19216
1945.82488,0.19183
1947.75335,0.19173
1949.68181,0.19155
1951.61028,0.19174
1953.53875,0.19214
1955.46722,0.19238
1957.39569,0.19185
1959.32416,0.19170
1961.25263,0.19138
1963.18110,0.19056
1965.10956,0.19243
1967.03803,0.19416
1968.96650,0.19132
1970.89497,0.18795
1972.82344,0.18707
1974.75191,0.18655
1976.68038,0.18666
1978.60884,0.18941
1980.53731,0.19134
1982.46578,0.19008
1984.39425,0.18833
1986.32272,0.18774
1988.25119,0.18990
1990.17966,0.19404
1992.10812,0.19584
1994.03659,0.19438
1995.96506,0.19261
1997.89353,0.19189
1999.82200,0.19145
2001.75047,0.19070
2003.67894,0.18956
2005.60741,0.18756
2007.53587,0.18577
2009.46434,0.18633
2011.39281,0.18868
2013.32128,0.19085
2015.24975,0.19186
2017.17822,0.19115
2019.10669,0.18962
2021.03515,0.18919
2022.96362,0.18905
2024.89209,0.18807
2026.82056,0.18800
2028.74903,0.18975
2030.67750,0.19136
2032.60597,0.19074
2034.53444,0.18931
2036.46290,0.19019
2038.39137,0.19253
2040.31984,0.19334
2042.24831,0.19176
2044.17678,0.18806
2046.10525,0.18421
2048.03372,0.18367
2049.96218,0.18619
2051.89065,0.18846
2053.81912,0.19012
2055.74759,0.19245
2057.67606,0.19412
2059.60453,0.19403
2061.53300,0.19347
2063.46147,0.19189
2065.38993,0.18882
2067.31840,0.18640
2069.24687,0.18524
2071.17534,0.18640
2073.10381,0.19017
2075.03228,0.19215
2076.96075,0.19079
2078.88921,0.18904
2080.81768,0.18845
2082.74615,0.18872
2084.67462,0.18913
2086.60309,0.18985
2088.53156,0.19183
2090.46003,0.19451
2092.38850,0.19468
2094.31696,0.19086
2096.24543,0.18765
2098.17390,0.18944
2100.10237,0.19257
2102.03084,0.19254
2103.95931,0.19132
2105.88778,0.19118
2107.81624,0.19259
2109.74471,0.19448
2111.67318,0.19303
2113.60165,0.18984
2115.53012,0.18983
2117.45859,0.19126
2119.38706,0.19140
2121.31553,0.19159
2123.24399,0.19249
2125.17246,0.19339
2127.10093,0.19352
2129.02940,0.19121
2130.95787,0.18838
2132.88634,0.19014
2134.81481,0.19424
2136.74327,0.19541
2138.67174,0.19498
2140.60021,0.19472
2142.52868,0.19354
2144.45715,0.19110
2146.38562,0.18955
2148.31409,0.19029
2150.24255,0.19087
2152.17102,0.18960
2154.09949,0.18826
2156.02796,0.18905
2157.95643,0.19168
2159.88490,0.19463
2161.81337,0.19699
2163.74184,0.19730
2165.67030,0.19474
2167.59877,0.19095
2169.52724,0.18969
2171.45571,0.19134
2173.38418,0.19166
2175.31265,0.19058
2177.24112,0.19176
2179.16958,0.19398
2181.09805,0.19442
2183.02652,0.19337
2184.95499,0.19116
2186.88346,0.18914
2188.81193,0.18912
2190.74040,0.18926
2192.66887,0.18813
2194.59733,0.18861
2196.52580,0.19077
2198.45427,0.19113
2200.38274,0.19062
2202.31121,0.19075
2204.23968,0.19004
2206.16815,0.18897
2208.09661,0.18913
2210.02508,0.18983
2211.95355,0.19020
2213.88202,0.19120
2215.81049,0.19215
2217.73896,0.19107
2219.66743,0.18939
2221.59590,0.18909
2223.52436,0.18925
2225.45283,0.18994
2227.38130,0.19201
2229.30977,0.19306
2231.23824,0.19116
2233.16671,0.18852
2235.09518,0.18765
2237.02364,0.18854
2238.95211,0.19044
2240.88058,0.19236
2242.80905,0.19286
2244.73752,0.19173
2246.66599,0.19005
2248.59446,0.18886
2250.52293,0.18907
2252.45139,0.19022
2254.37986,0.19031
2256.30833,0.19004
2258.23680,0.19082
2260.16527,0.19195
2262.09374,0.19304
2264.02221,0.19325
2265.95067,0.19205
2267.87914,0.19060
2269.80761,0.18928
2271.73608,0.18761
2273.66455,0.18647
2275.59302,0.18715
2277.52149,0.18816
2279.44996,0.18815
2281.37842,0.18839
2283.30689,0.18850
2285.23536,0.18720
2287.16383,0.18608
2289.09230,0.18682
2291.02077,0.18742
2292.94924,0.18624
2294.87770,0.18678
2296.80617,0.19023
2298.73464,0.19157
2300.66311,0.19018
2302.59158,0.18970
2304.52005,0.19006
2306.44852,0.19165
2308.37699,0.19448
2310.30545,0.19411
2312.23392,0.19071
2314.16239,0.18868
2316.09086,0.18847
2318.01933,0.19045
2319.94780,0.19685
2321.87627,0.20483
2323.80473,0.20679
2325.73320,0.20049
2327.66167,0.19016
2329.59014,0.18552
2331.51861,0.19010
2333.44708,0.19301
2335.37555,0.18874
2337.30401,0.18590
2339.23248,0.19270
2341.16095,0.19627
2343.08942,0.19086
2345.01789,0.19003
2346.94636,0.19143
2348.87483,0.19072
2350.80330,0.18728
2352.73176,0.18008
2354.66023,0.17942
2356.58870,0.18988
2358.51717,0.19770
2360.44564,0.20199
2362.37411,0.19543
2364.30258,0.18472
2366.23104,0.19221
2368.15951,0.19836
2370.08798,0.19008
2372.01645,0.18514
2373.94492,0.18822
2375.87339,0.19056
2377.80186,0.18983
2379.73033,0.18886
2381.65879,0.18961
2383.58726,0.19233
2385.51573,0.19474
2387.44420,0.19558
2389.37267,0.19559
2391.30114,0.19495
2393.22961,0.19446
2395.15807,0.19361
2397.08654,0.19081
2399.01501,0.18883
2400.94348,0.18995
2402.87195,0.19146
2404.80042,0.19192
2406.72889,0.19148
2408.65736,0.18975
2410.58582,0.18883
2412.51429,0.19086
2414.44276,0.19536
2416.37123,0.19982
2418.29970,0.19910
2420.22817,0.19313
2422.15664,0.18887
2424.08510,0.18897
2426.01357,0.19097
2427.94204,0.19254
2429.87051,0.19260
2431.79898,0.19198
2433.72745,0.19260
2435.65592,0.19438
2437.58439,0.19466
2439.51285,0.19253
2441.44132,0.19056
2443.36979,0.19061
2445.29826,0.19152
2447.22673,0.19201
2449.15520,0.19287
2451.08367,0.19479
2453.01213,0.19580
2454.94060,0.19385
2456.86907,0.18912
2458.79754,0.18555
2460.72601,0.18770
2462.65448,0.19204
2464.58295,0.19346
2466.51142,0.19386
2468.43988,0.19470
2470.36835,0.19496
2472.29682,0.19472
2474.22529,0.19445
2476.15376,0.19494
2478.08223,0.19463
2480.01070,0.19154
2481.93916,0.18864
2483.86763,0.18851
2485.79610,0.19026
2487.72457,0.19266
2489.65304,0.19419
2491.58151,0.19449
2493.50998,0.19422
2495.43844,0.19409
2497.36691,0.19511
2499.29538,0.19656
2501.22385,0.19662
2503.15232,0.19566
2505.08079,0.19423
2507.00926,0.19294
2508.93773,0.19366
2510.86619,0.19563
2512.79466,0.19601
2514.72313,0.19481
2516.65160,0.19442
2518.58007,0.19455
2520.50854,0.19357
2522.43701,0.19219
2524.36547,0.19160
2526.29394,0.19194
2528.22241,0.19190
2530.15088,0.19201
2532.07935,0.19365
2534.00782,0.19474
2535.93629,0.19431
2537.86476,0.19471
2539.79322,0.19559
2541.72169,0.19420
2543.65016,0.19302
2545.57863,0.19570
2547.50710,0.19747
2549.43557,0.19533
2551.36404,0.19542
2553.29250,0.19818
2555.22097,0.19784
2557.14944,0.19364
2559.07791,0.18873
2561.00638,0.18770
2562.93485,0.19134
2564.86332,0.19441
2566.79179,0.19525
2568.72025,0.19584
2570.64872,0.19413
2572.57719,0.19161
2574.50566,0.19257
2576.43413,0.19371
2578.36260,0.19271
2580.29107,0.19169
2582.21953,0.19171
2584.14800,0.19293
2586.07647,0.19400
2588.00494,0.19453
2589.93341,0.19429
2591.86188,0.19304
2593.79035,0.19233
2595.71882,0.19225
2597.64728,0.19261
2599.57575,0.19410
2601.50422,0.19520
2603.43269,0.19435
2605.36116,0.19379
2607.28963,0.19531
2609.21810,0.19622
2611.14656,0.19586
2613.07503,0.19609
2615.00350,0.19631
2616.93197,0.19699
2618.86044,0.19911
2620.78891,0.20033
2622.71738,0.19934
2624.64585,0.19801
2626.57431,0.19767
2628.50278,0.19727
2630.43125,0.19455
2632.35972,0.19134
2634.28819,0.19071
2636.21666,0.19149
2638.14513,0.19519
2640.07359,0.20114
2642.00206,0.20252
2643.93053,0.19898
2645.85900,0.19568
2647.78747,0.19426
2649.71594,0.19265
2651.64441,0.19115
2653.57288,0.19277
2655.50134,0.19588
2657.42981,0.19615
2659.35828,0.19420
2661.28675,0.19308
2663.21522,0.19393
2665.14369,0.19483
2667.07216,0.19422
2669.00062,0.19485
2670.92909,0.19579
2672.85756,0.19399
2674.78603,0.19313
2676.71450,0.19512
2678.64297,0.19726
2680.57144,0.19830
2682.49990,0.19802
2684.42837,0.19687
2686.35684,0.19623
2688.28531,0.19606
2690.21378,0.19621
2692.14225,0.19727
2694.07072,0.19826
2695.99919,0.19912
2697.92765,0.20146
2699.85612,0.20394
2701.78459,0.20386
2703.71306,0.20225
2705.64153,0.20069
2707.57000,0.19989
2709.49847,0.20026
2711.42693,0.20029
2713.35540,0.20108
2715.28387,0.20421
2717.21234,0.20669
2719.14081,0.20571
2721.06928,0.20175
2722.99775,0.19830
2724.92622,0.19823
2726.85468,0.19946
2728.78315,0.19898
2730.71162,0.19720
2732.64009,0.19613
2734.56856,0.19717
2736.49703,0.19921
2738.42550,0.20063
2740.35396,0.20051
2742.28243,0.19969
2744.21090,0.20043
2746.13937,0.20077
2748.06784,0.20040
2749.99631,0.20180
2751.92478,0.20317
2753.85325,0.20327
2755.78171,0.20348
2757.71018,0.20341
2759.63865,0.20261
2761.56712,0.20431
2763.49559,0.20902
2765.42406,0.21281
2767.35253,0.21397
2769.28099,0.21121
2771.20946,0.20522
2773.13793,0.20175
2775.06640,0.20356
2776.99487,0.20584
2778.92334,0.20595
2780.85181,0.20787
2782.78028,0.21097
2784.70874,0.21029
2786.63721,0.20744
2788.56568,0.20729
2790.49415,0.20869
2792.42262,0.20795
2794.35109,0.20584
2796.27956,0.20532
2798.20802,0.20636
2800.13649,0.20557
2802.06496,0.20214
2803.99343,0.20050
2805.92190,0.20269
2807.85037,0.20471
2809.77884,0.20570
2811.70731,0.20842
2813.63577,0.20943
2815.56424,0.20631
2817.49271,0.20449
2819.42118,0.20597
2821.34965,0.20550
2823.27812,0.20177
2825.20659,0.20083
2827.13505,0.20377
2829.06352,0.20686
2830.99199,0.20844
2832.92046,0.20647
2834.84893,0.20268
2836.77740,0.20218
2838.70587,0.20521
2840.63433,0.20785
2842.56280,0.20846
2844.49127,0.20724
2846.41974,0.20475
2848.34821,0.20541
2850.27668,0.20864
2852.20515,0.20688
2854.13362,0.20109
2856.06208,0.19840
2857.99055,0.20018
2859.91902,0.20296
2861.84749,0.20589
2863.77596,0.20888
2865.70443,0.20793
2867.63290,0.20496
2869.56136,0.20554
2871.48983,0.20579
2873.41830,0.20221
2875.34677,0.20084
2877.27524,0.20446
2879.20371,0.20772
2881.13218,0.20642
2883.06065,0.20261
2884.98911,0.20209
2886.91758,0.20605
2888.84605,0.20911
2890.77452,0.20814
2892.70299,0.20359
2894.63146,0.19854
2896.55993,0.19984
2898.48839,0.20613
2900.41686,0.20812
2902.34533,0.20479
2904.27380,0.20125
2906.20227,0.19947
2908.13074,0.19926
2910.05921,0.20054
2911.98768,0.20221
2913.91614,0.20013
2915.84461,0.19394
2917.77308,0.19124
2919.70155,0.19336
2921.63002,0.19410
2923.55849,0.19176
2925.48696,0.18617
2927.41542,0.18382
2929.34389,0.19185
2931.27236,0.20068
2933.20083,0.20315
2935.12930,0.20019
2937.05777,0.19206
2938.98624,0.18830
2940.91471,0.19298
2942.84317,0.19750
2944.77164,0.19370
2946.70011,0.18214
2948.62858,0.17915
2950.55705,0.19002
2952.48552,0.19999
2954.41399,0.20227
2956.34245,0.19496
2958.27092,0.18688
2960.19939,0.19276
2962.12786,0.20357
2964.05633,0.20482
2965.98480,0.19561
2967.91327,0.18611
2969.84174,0.19204
2971.77020,0.20587
2973.69867,0.20912
2975.62714,0.20205
2977.55561,0.19133
2979.48408,0.18724
2981.41255,0.19511
2983.34102,0.20454
2985.26948,0.20643
2987.19795,0.19986
2989.12642,0.19436
2991.05489,0.19886
2992.98336,0.20604
2994.91183,0.20886
2996.84030,0.20804
2998.76877,0.20634
3000.69723,0.20987
3002.62570,0.21693
3004.55417,0.21627
3006.48264,0.20765
3008.41111,0.20098
3010.33958,0.19046
3012.26805,0.16053
3014.19651,0.11478
3016.12498,0.08304
3018.05345,0.10140
3019.98192,0.15932
3021.91039,0.20265
3023.83886,0.21213
3025.76733,0.20852
3027.69579,0.20593
3029.62426,0.20767
3031.55273,0.21377
3033.48120,0.21803
3035.40967,0.21371
3037.33814,0.20534
3039.26661,0.20491
3041.19508,0.21193
3043.12354,0.21489
3045.05201,0.21146
3046.98048,0.20665
3048.90895,0.20473
3050.83742,0.20630
3052.76589,0.20871
3054.69436,0.20780
3056.62282,0.20176
3058.55129,0.20056
3060.47976,0.20760
3062.40823,0.21055
3064.33670,0.20210
3066.26517,0.19011
3068.19364,0.19051
3070.12211,0.20200
3072.05057,0.20829
3073.97904,0.20137
3075.90751,0.19104
3077.83598,0.19497
3079.76445,0.20801
3081.69292,0.20983
3083.62139,0.19426
3085.54985,0.17929
3087.47832,0.18689
3089.40679,0.20656
3091.33526,0.21301
3093.26373,0.20028
3095.19220,0.18776
3097.12067,0.19296
3099.04914,0.20343
3100.97760,0.20153
3102.90607,0.18803
3104.83454,0.18537
3106.76301,0.20337
3108.69148,0.21822
3110.61995,0.21368
3112.54842,0.20003
3114.47688,0.19635
3116.40535,0.20344
3118.33382,0.20741
3120.26229,0.20218
3122.19076,0.19454
3124.11923,0.19648
3126.04770,0.20438
3127.97617,0.20900
3129.90463,0.21018
3131.83310,0.21105
3133.76157,0.21473
3135.69004,0.21849
3137.61851,0.21543
3139.54698,0.20941
3141.47545,0.21294
3143.40391,0.22265
3145.33238,0.22637
3147.26085,0.22251
3149.18932,0.21864
3151.11779,0.21872
3153.04626,0.21770
3154.97473,0.21410
3156.90320,0.21110
3158.83166,0.21262
3160.76013,0.21730
3162.68860,0.21923
3164.61707,0.21810
3166.54554,0.21592
3168.47401,0.21235
3170.40248,0.20851
3172.33094,0.20894
3174.25941,0.21333
3176.18788,0.21742
3178.11635,0.22029
3180.04482,0.22106
3181.97329,0.21863
3183.90176,0.21697
3185.83022,0.21995
3187.75869,0.22158
3189.68716,0.21825
3191.61563,0.21529
3193.54410,0.21528
3195.47257,0.21634
3197.40104,0.21642
3199.32951,0.21689
3201.25797,0.21717
3203.18644,0.21235
3205.11491,0.20541
3207.04338,0.20505
3208.97185,0.21102
3210.90032,0.21814
3212.82879,0.22279
3214.75725,0.22115
3216.68572,0.21468
3218.61419,0.20970
3220.54266,0.20808
3222.47113,0.21116
3224.39960,0.21912
3226.32807,0.22551
3228.25654,0.22645
3230.18500,0.22269
3232.11347,0.21877
3234.04194,0.21948
3235.97041,0.21930
3237.89888,0.21617
3239.82735,0.21600
3241.75582,0.21773
3243.68428,0.21785
3245.61275,0.21614
3247.54122,0.21408
3249.46969,0.21245
3251.39816,0.21074
3253.32663,0.21043
3255.25510,0.21212
3257.18357,0.21349
3259.11203,0.21108
3261.04050,0.20830
3262.96897,0.21289
3264.89744,0.21875
3266.82591,0.21790
3268.75438,0.21609
3270.68285,0.21905
3272.61131,0.22439
3274.53978,0.22610
3276.46825,0.22239
3278.39672,0.21770
3280.32519,0.21556
3282.25366,0.21466
3284.18213,0.21368
3286.11060,0.21378
3288.03906,0.21368
3289.96753,0.21237
3291.89600,0.21237
3293.82447,0.21206
3295.75294,0.20948
3297.68141,0.20612
3299.60988,0.20305
3301.53834,0.20506
3303.46681,0.21023
3305.39528,0.20998
3307.32375,0.20775
3309.25222,0.21035
3311.18069,0.21521
3313.10916,0.21768
3315.03763,0.21665
3316.96609,0.21348
3318.89456,0.21208
3320.82303,0.21176
3322.75150,0.21031
3324.67997,0.21128
3326.60844,0.21408
3328.53691,0.21808
3330.46537,0.22304
3332.39384,0.22135
3334.32231,0.21401
3336.25078,0.21363
3338.17925,0.21950
3340.10772,0.22169
3342.03619,0.22202
3343.96466,0.22302
3345.89312,0.22374
3347.82159,0.22381
3349.75006,0.22047
3351.67853,0.21606
3353.60700,0.21340
3355.53547,0.20991
3357.46394,0.20729
3359.39240,0.20871
3361.32087,0.21090
3363.24934,0.21155
3365.17781,0.21226
3367.10628,0.21393
3369.03475,0.21553
3370.96322,0.21510
3372.89168,0.21318
3374.82015,0.21335
3376.74862,0.21661
3378.67709,0.21963
3380.60556,0.21920
3382.53403,0.21471
3384.46250,0.20970
3386.39097,0.20681
3388.31943,0.20730
3390.24790,0.21234
3392.17637,0.21506
3394.10484,0.21282
3396.03331,0.21347
3397.96178,0.21780
3399.89025,0.22060
3401.81871,0.22134
3403.74718,0.22035
3405.67565,0.21650
3407.60412,0.21372
3409.53259,0.21333
3411.46106,0.20941
3413.38953,0.20055
3415.31800,0.19391
3417.24646,0.19776
3419.17493,0.20955
3421.10340,0.21651
3423.03187,0.21282
3424.96034,0.20450
3426.88881,0.20002
3428.81728,0.20382
3430.74574,0.20893
3432.67421,0.20692
3434.60268,0.20185
3436.53115,0.20003
3438.45962,0.19931
3440.38809,0.19685
3442.31656,0.19782
3444.24503,0.20376
3446.17349,0.20827
3448.10196,0.20704
3450.03043,0.20268
3451.95890,0.19989
3453.88737,0.19887
3455.81584,0.19996
3457.74431,0.20272
3459.67277,0.20506
3461.60124,0.20490
3463.52971,0.20315
3465.45818,0.20362
3467.38665,0.20197
3469.31512,0.19472
3471.24359,0.18964
3473.17206,0.18981
3475.10052,0.18918
3477.02899,0.18886
3478.95746,0.19316
3480.88593,0.19707
3482.81440,0.19477
3484.74287,0.19014
3486.67134,0.19110
3488.59980,0.19624
3490.52827,0.19757
3492.45674,0.19649
3494.38521,0.19819
3496.31368,0.19834
3498.24215,0.19231
3500.17062,0.18399
3502.09909,0.17897
3504.02755,0.18095
3505.95602,0.18571
3507.88449,0.18632
3509.81296,0.18424
3511.74143,0.18271
3513.66990,0.18016
3515.59837,0.17854
3517.52683,0.18116
3519.45530,0.18568
3521.38377,0.18730
3523.31224,0.18275
3525.24071,0.17715
3527.16918,0.17741
3529.09765,0.17873
3531.02611,0.17465
3532.95458,0.17029
3534.88305,0.17214
3536.81152,0.17694
3538.73999,0.17736
3540.66846,0.17404
3542.59693,0.17367
3544.52540,0.17837
3546.45386,0.18351
3548.38233,0.18131
3550.31080,0.17121
3552.23927,0.16052
3554.16774,0.15610
3556.09621,0.15926
3558.02468,0.16495
3559.95314,0.16834
3561.88161,0.16854
3563.81008,0.16766
3565.73855,0.16942
3567.66702,0.17217
3569.59549,0.17104
3571.52396,0.16860
3573.45243,0.16802
3575.38089,0.16850
3577.30936,0.16576
3579.23783,0.15984
3581.16630,0.15706
3583.09477,0.15962
3585.02324,0.16545
3586.95171,0.16943
3588.88017,0.16271
3590.80864,0.15505
3592.73711,0.15407
3594.66558,0.15496
3596.59405,0.15646
3598.52252,0.15767
3600.45099,0.15395
3602.37946,0.15018
3604.30792,0.15463
3606.23639,0.16322
3608.16486,0.16544
3610.09333,0.16034
3612.02180,0.15738
3613.95027,0.15809
3615.87874,0.15886
3617.80720,0.15626
3619.73567,0.14931
3621.66414,0.14507
3623.59261,0.14520
3625.52108,0.14747
3627.44955,0.15466
3629.37802,0.16099
3631.30649,0.15479
3633.23495,0.14910
3635.16342,0.14779
3637.09189,0.14621
3639.02036,0.14397
3640.94883,0.14322
3642.87730,0.14605
3644.80577,0.15336
3646.73423,0.16678
3648.66270,0.17927
3650.59117,0.16674
3652.51964,0.14807
3654.44811,0.14268
3656.37658,0.14437
3658.30505,0.14247
3660.23352,0.13771
3662.16198,0.13431
3664.09045,0.13484
3666.01892,0.13819
3667.94739,0.13964
3669.87586,0.14206
3671.80433,0.15037
3673.73280,0.15940
3675.66126,0.16138
3677.58973,0.15050
3679.51820,0.13841
3681.44667,0.13073
3683.37514,0.13011
3685.30361,0.13678
3687.23208,0.14582
3689.16055,0.15214
3691.08901,0.15362
3693.01748,0.14954
3694.94595,0.14301
3696.87442,0.13480
3698.80289,0.12592
3700.73136,0.12148
3702.65983,0.12305
3704.58829,0.12816
3706.51676,0.13581
3708.44523,0.14585
3710.37370,0.15899
3712.30217,0.16452
3714.23064,0.15568
3716.15911,0.14647
3718.08757,0.14024
3720.01604,0.13659
3721.94451,0.13988
3723.87298,0.14939
3725.80145,0.15520
3727.72992,0.15065
3729.65839,0.14346
3731.58686,0.14460
3733.51532,0.15666
3735.44379,0.16358
3737.37226,0.15482
3739.30073,0.14836
3741.22920,0.15108
3743.15767,0.15898
3745.08614,0.16538
3747.01460,0.16499
3748.94307,0.16299
3750.87154,0.15723
3752.80001,0.14087
3754.72848,0.13186
3756.65695,0.13913
3758.58542,0.15044
3760.51389,0.14643
3762.44235,0.13394
3764.37082,0.12953
3766.29929,0.13417
3768.22776,0.14022
3770.15623,0.14058
3772.08470,0.13337
3774.01317,0.12788
3775.94163,0.12835
3777.87010,0.13253
3779.79857,0.13404
3781.72704,0.12758
3783.65551,0.11998
3785.58398,0.11727
3787.51245,0.11571
3789.44092,0.11337
3791.36938,0.11653
3793.29785,0.12496
3795.22632,0.13203
3797.15479,0.13753
3799.08326,0.14340
3801.01173,0.14051
3802.94020,0.12614
3804.86866,0.12059
3806.79713,0.12329
3808.72560,0.12344
3810.65407,0.12183
3812.58254,0.12531
3814.51101,0.13790
3816.43948,0.15133
3818.36795,0.15218
3820.29641,0.14880
3822.22488,0.14327
3824.15335,0.13628
3826.08182,0.12998
3828.01029,0.12355
3829.93876,0.12174
3831.86723,0.12484
3833.79569,0.12721
3835.72416,0.12890
3837.65263,0.13700
3839.58110,0.14568
3841.50957,0.14081
3843.43804,0.13116
3845.36651,0.12754
3847.29498,0.12933
3849.22344,0.13476
3851.15191,0.14609
3853.08038,0.16053
3855.00885,0.15786
3856.93732,0.14491
3858.86579,0.13405
3860.79426,0.12940
3862.72272,0.13042
3864.65119,0.12895
3866.57966,0.12420
3868.50813,0.12233
3870.43660,0.12328
3872.36507,0.12437
3874.29354,0.12437
3876.22200,0.12349
3878.15047,0.12746
3880.07894,0.13408
3882.00741,0.13186
3883.93588,0.12769
3885.86435,0.12715
3887.79282,0.12495
3889.72129,0.12429
3891.64975,0.12610
3893.57822,0.12376
3895.50669,0.11893
3897.43516,0.11828
3899.36363,0.12412
3901.29210,0.13211
3903.22057,0.13847
3905.14903,0.13822
3907.07750,0.12969
3909.00597,0.12154
3910.93444,0.11789
3912.86291,0.11734
3914.79138,0.11844
3916.71985,0.11941
3918.64832,0.11852
3920.57678,0.11778
3922.50525,0.11655
3924.43372,0.11230
3926.36219,0.11012
3928.29066,0.11461
3930.21913,0.12239
3932.14760,0.12685
3934.07606,0.12491
3936.00453,0.12134
3937.93300,0.12016
3939.86147,0.12125
3941.78994,0.12414
3943.71841,0.12656
3945.64688,0.12393
3947.57535,0.11922
3949.50381,0.11689
3951.43228,0.11511
3953.36075,0.11369
3955.28922,0.11424
3957.21769,0.11359
3959.14616,0.10755
3961.07463,0.10118
3963.00309,0.10198
3964.93156,0.10656
3966.86003,0.10980
3968.78850,0.11193
3970.71697,0.11329
3972.64544,0.11449
3974.57391,0.11467
3976.50238,0.11282
3978.43084,0.10978
3980.35931,0.10356
3982.28778,0.09880
3984.21625,0.10256
3986.14472,0.10638
3988.07319,0.10337
3990.00166,0.10037
3991.93012,0.10053
3993.85859,0.10035
3995.78706,0.10158
3997.71553,0.10607
3999.64400,0.10855
4001.57247,0.10625
4003.50094,0.10301
4005.42941,0.10063
4007.35787,0.10011
4009.28634,0.10400
4011.21481,0.10877
4013.14328,0.10874
4015.07175,0.10328
4017.00022,0.09794
4018.92869,0.09668
4020.85715,0.09514
4022.78562,0.09253
4024.71409,0.09395
4026.64256,0.10100
4028.57103,0.10651
4030.49950,0.10532
4032.42797,0.10234
4034.35644,0.09934
4036.28490,0.09744
4038.21337,0.09967
4040.14184,0.10117
4042.07031,0.09911
4043.99878,0.09681
4045.92725,0.09614
4047.85572,0.09926
4049.78418,0.10465
4051.71265,0.10748
4053.64112,0.10788
4055.56959,0.10858
4057.49806,0.10778
4059.42653,0.10045
4061.35500,0.09250
4063.28346,0.09317
4065.21193,0.09708
4067.14040,0.09885
4069.06887,0.10162
4070.99734,0.10248
4072.92581,0.09648
4074.85428,0.09207
4076.78275,0.09350
4078.71121,0.09205
4080.63968,0.08854
4082.56815,0.08871
4084.49662,0.09039
4086.42509,0.08910
4088.35356,0.08763
4090.28203,0.09442
4092.21049,0.10452
4094.13896,0.10425
4096.06743,0.09306
4097.99590,0.08001
4099.92437,0.07198
4101.85284,0.07378
4103.78131,0.08350
4105.70978,0.09014
4107.63824,0.09069
4109.56671,0.09476
4111.49518,0.10201
4113.42365,0.10087
4115.35212,0.09322
4117.28059,0.09194
4119.20906,0.09621
4121.13752,0.09508
4123.06599,0.08732
4124.99446,0.08187
4126.92293,0.08394
4128.85140,0.08689
4130.77987,0.08660
4132.70834,0.08726
4134.63681,0.08928
4136.56527,0.09226
4138.49374,0.09505
4140.42221,0.09398
4142.35068,0.09020
4144.27915,0.08570
4146.20762,0.07775
4148.13609,0.07072
4150.06455,0.07342
4151.99302,0.08231
4153.92149,0.08953
4155.84996,0.09369
4157.77843,0.09682
4159.70690,0.09652
4161.63537,0.09065
4163.56384,0.08720
4165.49230,0.08762
4167.42077,0.08517
4169.34924,0.08228
4171.27771,0.08533
4173.20618,0.09081
4175.13465,0.08750
4177.06312,0.07453
4178.99158,0.06491
4180.92005,0.06585
4182.84852,0.07076
4184.77699,0.07662
4186.70546,0.08415
4188.63393,0.08302
4190.56240,0.07282
4192.49087,0.07065
4194.41933,0.07808
4196.34780,0.08112
4198.27627,0.07622
4200.20474,0.07109
4202.13321,0.07105
4204.06168,0.07634
4205.99015,0.08264
4207.91861,0.08168
4209.84708,0.07247
4211.77555,0.06726
4213.70402,0.07245
4215.63249,0.07545
4217.56096,0.07083
4219.48943,0.07034
4221.41789,0.07426
4223.34636,0.07282
4225.27483,0.06699
4227.20330,0.06114
4229.13177,0.05887
4231.06024,0.06428
4232.98871,0.07050
4234.91718,0.07071
4236.84564,0.06970
4238.77411,0.06980
4240.70258,0.06846
4242.63105,0.06675
4244.55952,0.06690
4246.48799,0.06694
4248.41646,0.06558
4250.34492,0.06566
4252.27339,0.06860
4254.20186,0.07222
4256.13033,0.07234
4258.05880,0.06905
4259.98727,0.06600
4261.91574,0.06294
4263.84421,0.06294
4265.77267,0.06941
4267.70114,0.07284
4269.62961,0.06582
4271.55808,0.05658
4273.48655,0.05382
4275.41502,0.05535
4277.34349,0.05776
4279.27195,0.06221
4281.20042,0.06591
4283.12889,0.06533
4285.05736,0.06223
4286.98583,0.05970
4288.91430,0.05909
4290.84277,0.05679
4292.77124,0.05143
4294.69970,0.05024
4296.62817,0.05500
4298.55664,0.05925
4300.48511,0.06387
4302.41358,0.06930
4304.34205,0.06923
4306.27052,0.06705
4308.19898,0.06802
4310.12745,0.06499
4312.05592,0.05462
4313.98439,0.04612
4315.91286,0.04574
4317.84133,0.04965
4319.76980,0.05043
4321.69827,0.04744
4323.62673,0.04605
4325.55520,0.04722
4327.48367,0.05229
4329.41214,0.05740
4331.34061,0.05314
4333.26908,0.04612
4335.19755,0.04577
4337.12601,0.04865
4339.05448,0.05130
4340.98295,0.05195
4342.91142,0.04899
4344.83989,0.04593
4346.76836,0.04742
4348.69683,0.05038
4350.62530,0.05133
4352.55376,0.05240
4354.48223,0.05116
4356.41070,0.04681
4358.33917,0.04478
4360.26764,0.04423
4362.19611,0.04212
4364.12458,0.04184
4366.05304,0.04572
4367.98151,0.04729
4369.90998,0.04461
4371.83845,0.04289
4373.76692,0.04086
4375.69539,0.03681
4377.62386,0.03627
4379.55232,0.04150
4381.48079,0.04168
4383.40926,0.03572
4385.33773,0.04113
4387.26620,0.05506
4389.19467,0.05865
4391.12314,0.04947
4393.05161,0.03526
4394.98007,0.02616
4396.90854,0.02811
4398.83701,0.03594
4400.76548,0.04335
4402.69395,0.04330
4404.62242,0.03630
4406.55089,0.03644
4408.47935,0.04262
4410.40782,0.04050
4412.33629,0.03351
4414.26476,0.03365
4416.19323,0.03975
4418.12170,0.04407
4420.05017,0.04365
4421.97864,0.04254
4423.90710,0.04492
4425.83557,0.04523
4427.76404,0.04125
4429.69251,0.03936
4431.62098,0.03812
4433.54945,0.03606
4435.47792,0.03513
4437.40638,0.03155
4439.33485,0.02552
4441.26332,0.02337
4443.19179,0.03039
4445.12026,0.04129
4447.04873,0.04139
4448.97720,0.03287
4450.90567,0.02967
4452.83413,0.03233
4454.76260,0.03562
4456.69107,0.03607
4458.61954,0.03276
4460.54801,0.03213
4462.47648,0.03488
4464.40495,0.03247
4466.33341,0.02685
4468.26188,0.02803
4470.19035,0.03427
4472.11882,0.03964
4474.04729,0.04438
4475.97576,0.04434
4477.90423,0.03439
4479.83270,0.02265
4481.76116,0.02403
4483.68963,0.03397
4485.61810,0.03515
4487.54657,0.02879
4489.47504,0.02149
4491.40351,0.01525
4493.33198,0.01575
4495.26044,0.01768
4497.18891,0.01524
4499.11738,0.01656
4501.04585,0.01952
4502.97432,0.01943
4504.90279,0.02514
4506.83126,0.03216
4508.75973,0.03249
4510.68819,0.03228
4512.61666,0.03199
4514.54513,0.03041
4516.47360,0.02699
4518.40207,0.02066
4520.33054,0.01964
4522.25901,0.02399
4524.18747,0.02579
4526.11594,0.02671
4528.04441,0.02636
4529.97288,0.02209
4531.90135,0.01675
4533.82982,0.01136
4535.75829,0.00878
4537.68676,0.01504
4539.61522,0.02507
4541.54369,0.02888
4543.47216,0.03099
4545.40063,0.03352
4547.32910,0.02809
4549.25757,0.01846
4551.18604,0.01294
4553.11450,0.01098
4555.04297,0.00829
4556.97144,0.00569
4558.89991,0.00973
4560.82838,0.01590
4562.75685,0.01496
4564.68532,0.01292
4566.61378,0.01430
4568.54225,0.01118
4570.47072,0.00758
4572.39919,0.01287
4574.32766,0.01893
4576.25613,0.01574
4578.18460,0.00808
4580.11307,0.00348
4582.04153,-0.00275
4583.97000,-0.00986
4585.89847,-0.00469
4587.82694,0.00956
4589.75541,0.02178
4591.68388,0.02928
4593.61235,0.02728
4595.54081,0.01890
4597.46928,0.01117
4599.39775,0.00491
4601.32622,0.00661
4603.25469,0.01255
4605.18316,0.00728
4607.11163,-0.00054
4609.04010,0.00998
4610.96856,0.02864
4612.89703,0.02581
4614.82550,0.00532
4616.75397,-0.00797
4618.68244,-0.01219
4620.61091,-0.01188
4622.53938,-0.00180
4624.46784,0.01406
4626.39631,0.02041
4628.32478,0.01427
4630.25325,0.00658
4632.18172,0.00707
4634.11019,0.01589
4636.03866,0.01886
4637.96713,0.01344
4639.89559,0.00902
4641.82406,0.00406
4643.75253,0.00259
4645.68100,0.00830
4647.60947,0.01226
4649.53794,0.01149
4651.46641,0.00776
4653.39487,0.00497
4655.32334,0.00420
4657.25181,0.00243
4659.18028,0.00445
4661.10875,0.01182
4663.03722,0.02147
4664.96569,0.02572
4666.89416,0.01875
4668.82262,0.01337
4670.75109,0.01596
4672.67956,0.01831
4674.60803,0.01830
4676.53650,0.01799
4678.46497,0.01769
4680.39344,0.00955
4682.32190,-0.00261
4684.25037,0.00311
4686.17884,0.01717
4688.10731,0.01501
4690.03578,0.00876
4691.96425,0.01459
4693.89272,0.02778
4695.82119,0.03535
4697.74965,0.02732
4699.67812,0.01421
4701.60659,0.01040
4703.53506,0.00918
4705.46353,0.00329
4707.39200,0.00263
4709.32047,0.01122
4711.24893,0.01720
4713.17740,0.01495
4715.10587,0.00934
4717.03434,0.00617
4718.96281,0.00757
4720.89128,0.00757
4722.81975,0.00674
4724.74821,0.00908
4726.67668,0.00468
4728.60515,-0.00482
4730.53362,-0.00805
4732.46209,-0.00607
4734.39056,-0.00118
4736.31903,0.00209
4738.24750,0.00192
4740.17596,0.00425
4742.10443,0.00369
4744.03290,-0.00213
4745.96137,0.00041
4747.88984,0.01007
4749.81831,0.01024
4751.74678,0.00770
4753.67524,0.01666
4755.60371,0.02000
4757.53218,0.00762
4759.46065,-0.00026
4761.38912,0.00170
4763.31759,0.00373
4765.24606,0.00494
4767.17453,0.00424
4769.10299,0.00222
4771.03146,0.00202
4772.95993,0.00568
4774.88840,0.01303
4776.81687,0.01575
4778.74534,0.00703
4780.67381,-0.00565
4782.60227,-0.00687
4784.53074,0.00029
4786.45921,0.00178
4788.38768,0.00201
4790.31615,0.00955
4792.24462,0.02273
4794.17309,0.03137
4796.10156,0.02422
4798.03002,0.00544
4799.95849,-0.01162
4801.88696,-0.01467
4803.81543,-0.00617
4805.74390,-0.00425
4807.67237,-0.00514
4809.60084,0.00887
4811.52930,0.02767
4813.45777,0.03595
4815.38624,0.04024
4817.31471,0.04206
4819.24318,0.02930
4821.17165,0.00801
4823.10012,-0.00337
4825.02859,-0.00549
4826.95705,-0.00498
4828.88552,0.00069
4830.81399,0.00909
4832.74246,0.01583
4834.67093,0.01726
4836.59940,0.01137
4838.52787,0.00627
4840.45633,0.00561
4842.38480,0.00647
4844.31327,0.00729
4846.24174,0.00460
4848.17021,0.00266
4850.09868,0.00748
4852.02715,0.01381
4853.95562,0.01201
4855.88408,0.00155
4857.81255,-0.00741
4859.74102,-0.00851
4861.66949,-0.00297
4863.59796,0.00577
4865.52643,0.01030
4867.45490,0.00843
4869.38336,0.01002
4871.31183,0.01396
4873.24030,0.00795
4875.16877,0.00039
4877.09724,0.00406
4879.02571,0.01013
4880.95418,0.00691
4882.88265,-0.00485
4884.81111,-0.01291
4886.73958,-0.01322
4888.66805,-0.01468
4890.59652,-0.01672
4892.52499,-0.01362
4894.45346,-0.00125
4896.38193,0.01281
4898.31039,0.01443
4900.23886,0.01569
4902.16733,0.01944
4904.09580,0.01031
4906.02427,0.00179
4907.95274,0.00657
4909.88121,0.01235
4911.80967,0.01336
4913.73814,0.01724
4915.66661,0.02656
4917.59508,0.03304
4919.52355,0.03359
4921.45202,0.02571
4923.38049,0.00678
4925.30896,-0.00687
4927.23742,-0.00575
4929.16589,-0.00226
4931.09436,-0.00304
4933.02283,-0.00611
4934.95130,-0.00776
4936.87977,-0.00648
4938.80824,0.00056
4940.73670,0.01321
4942.66517,0.01871
4944.59364,0.01557
4946.52211,0.01323
4948.45058,0.00847
4950.37905,0.00443
4952.30752,0.01067
4954.23599,0.01612
4956.16445,0.01504
4958.09292,0.01792
4960.02139,0.01727
4961.94986,0.01340
4963.87833,0.02265
4965.80680,0.03406
4967.73527,0.03299
4969.66373,0.02552
4971.59220,0.01765
4973.52067,0.01195
4975.44914,0.00994
4977.37761,0.01211
4979.30608,0.01634
4981.23455,0.01863
4983.16302,0.01783
4985.09148,0.01449
4987.01995,0.00680
4988.94842,-0.00344
4990.87689,-0.00334
4992.80536,0.01185
4994.73383,0.02568
4996.66230,0.02413
4998.59076,0.01501
5000.51923,0.01235
5002.44770,0.01670
5004.37617,0.02275
5006.30464,0.02629
5008.23311,0.02362
5010.16158,0.01875
5012.09005,0.01421
5014.01851,0.00670
5015.94698,0.00415
5017.87545,0.01402
5019.80392,0.02631
5021.73239,0.02941
5023.66086,0.02527
5025.58933,0.02213
5027.51779,0.01684
5029.44626,0.00488
5031.37473,0.00088
5033.30320,0.01421
5035.23167,0.03051
5037.16014,0.03717
5039.08861,0.03493
5041.01708,0.03350
5042.94554,0.04065
5044.87401,0.04082
5046.80248,0.02501
5048.73095,0.02085
5050.65942,0.03409
5052.58789,0.03908
5054.51636,0.03472
5056.44482,0.02694
5058.37329,0.01312
5060.30176,0.00266
5062.23023,0.00159
5064.15870,0.00731
5066.08717,0.01890
5068.01564,0.02626
5069.94410,0.02093
5071.87257,0.00842
5073.80104,-0.00235
5075.72951,0.00226
5077.65798,0.01734
5079.58645,0.01703
5081.51492,0.00769
5083.44339,0.00536
5085.37185,0.00942
5087.30032,0.02558
5089.22879,0.04036
5091.15726,0.03211
5093.08573,0.01180
5095.01420,0.00007
5096.94267,0.00282
5098.87113,0.01420
5100.79960,0.02253
5102.72807,0.02380
5104.65654,0.02678
5106.58501,0.03222
5108.51348,0.02754
5110.44195,0.01242
5112.37042,0.00779
5114.29888,0.02596
5116.22735,0.04101
5118.15582,0.02815
5120.08429,0.00714
5122.01276,0.00573
5123.94123,0.01690
5125.86970,0.01838
5127.79816,0.00755
5129.72663,-0.00197
5131.65510,0.00103
5133.58357,0.01558
5135.51204,0.02946
5137.44051,0.04112
5139.36898,0.05119
5141.29745,0.05440
5143.22591,0.04994
5145.15438,0.02841
5147.08285,-0.00432
5149.01132,-0.01288
5150.93979,0.00915
5152.86826,0.02420
5154.79673,0.01717
5156.72519,0.01606
5158.65366,0.03175
5160.58213,0.04319
5162.51060,0.03442
5164.43907,0.01309
5166.36754,0.01420
5168.29601,0.04032
5170.22448,0.04399
5172.15294,0.01577
5174.08141,0.00285
5176.00988,0.02136
5177.93835,0.04665
5179.86682,0.06384
5181.79529,0.06657
5183.72376,0.05151
5185.65222,0.03462
5187.58069,0.03373
5189.50916,0.04815
5191.43763,0.06672
5193.36610,0.07386
5195.29457,0.05999
5197.22304,0.02989
5199.15151,0.00213
5201.07997,-0.00089
5203.00844,0.02531
5204.93691,0.06017
5206.86538,0.06916
5208.79385,0.04462
5210.72232,0.02602
5212.65079,0.03310
5214.57925,0.04700
5216.50772,0.04653
5218.43619,0.03252
5220.36466,0.02549
5222.29313,0.03711
5224.22160,0.05857
5226.15007,0.06873
5228.07854,0.05863
5230.00700,0.04611
5231.93547,0.03693
5233.86394,0.02637
5235.79241,0.02350
5237.72088,0.02962
5239.64935,0.03468
5241.57782,0.04386
5243.50628,0.05858
5245.43475,0.06648
5247.36322,0.05541
5249.29169,0.03023
5251.22016,0.02467
5253.14863,0.04182
5255.07710,0.05652
5257.00556,0.06100
5258.93403,0.06965
5260.86250,0.08833
5262.79097,0.08979
5264.71944,0.06242
5266.64791,0.03099
5268.57638,0.01725
5270.50485,0.02970
5272.43331,0.04795
5274.36178,0.05885
5276.29025,0.07355
5278.21872,0.08000
5280.14719,0.06666
5282.07566,0.05366
5284.00413,0.05436
5285.93259,0.06538
5287.86106,0.06730
5289.78953,0.04483
5291.71800,0.02469
5293.64647,0.03134
5295.57494,0.04848
5297.50341,0.05951
5299.43188,0.06529
5301.36034,0.06915
5303.28881,0.06419
5305.21728,0.05351
5307.14575,0.04705
5309.07422,0.03553
5311.00269,0.01946
5312.93116,0.01966
5314.85962,0.03153
5316.78809,0.03424
5318.71656,0.02675
5320.64503,0.02221
5322.57350,0.02874
5324.50197,0.04111
5326.43044,0.04745
5328.35891,0.04733
5330.28737,0.04997
5332.21584,0.04684
5334.14431,0.03032
5336.07278,0.01253
5338.00125,0.00228
5339.92972,0.00841
5341.85819,0.02683
5343.78665,0.04320
5345.71512,0.05775
5347.64359,0.06874
5349.57206,0.06038
5351.50053,0.04692
5353.42900,0.06250
5355.35747,0.08587
5357.28594,0.08125
5359.21440,0.06895
5361.14287,0.07041
5363.07134,0.07651
5364.99981,0.07043
5366.92828,0.05460
5368.85675,0.05429
5370.78522,0.07237
5372.71368,0.09006
5374.64215,0.10393
5376.57062,0.09904
5378.49909,0.07304
5380.42756,0.06003
5382.35603,0.06621
5384.28450,0.07145
5386.21297,0.07767
5388.14143,0.09061
5390.06990,0.08457
5391.99837,0.06686
5393.92684,0.07037
5395.85531,0.07342
5397.78378,0.04285
5399.71225,0.02630
5401.64071,0.05908
5403.56918,0.09355
5405.49765,0.09240
5407.42612,0.07048
5409.35459,0.05849
5411.28306,0.07540
5413.21153,0.09418
5415.13999,0.08397
5417.06846,0.06706
5418.99693,0.05465
5420.92540,0.03700
5422.85387,0.02916
5424.78234,0.04686
5426.71081,0.07162
5428.63928,0.07876
5430.56774,0.06682
5432.49621,0.04002
5434.42468,0.01971
5436.35315,0.03491
5438.28162,0.06167
5440.21009,0.07714
5442.13856,0.07299
5444.06702,0.05062
5445.99549,0.04163
5447.92396,0.06093
5449.85243,0.07408
5451.78090,0.06533
5453.70937,0.06115
5455.63784,0.06500
5457.56631,0.06103
5459.49477,0.05971
5461.42324,0.06751
5463.35171,0.07311
5465.28018,0.08356
5467.20865,0.09618
5469.13712,0.09122
5471.06559,0.08176
5472.99405,0.08682
5474.92252,0.09264
5476.85099,0.08046
5478.77946,0.06709
5480.70793,0.06495
5482.63640,0.05570
5484.56487,0.03623
5486.49334,0.02186
5488.42180,0.02346
5490.35027,0.03791
5492.27874,0.04302
5494.20721,0.05171
5496.13568,0.08722
5498.06415,0.11145
5499.99262,0.09720
5501.92108,0.06831
5503.84955,0.04279
5505.77802,0.02867
5507.70649,0.04544
5509.63496,0.09216
5511.56343,0.12478
5513.49190,0.11516
5515.42037,0.08159
5517.34883,0.05507
5519.27730,0.05003
5521.20577,0.04975
5523.13424,0.04629
5525.06271,0.04634
5526.99118,0.04857
5528.91965,0.05844
5530.84811,0.06657
5532.77658,0.06342
5534.70505,0.06881
5536.63352,0.08014
5538.56199,0.07151
5540.49046,0.05087
5542.41893,0.04993
5544.34740,0.06861
5546.27586,0.07587
5548.20433,0.07563
5550.13280,0.08938
5552.06127,0.10254
5553.98974,0.09844
5555.91821,0.09839
5557.84668,0.11938
5559.77514,0.12796
5561.70361,0.11663
5563.63208,0.11355
5565.56055,0.11698
5567.48902,0.11108
5569.41749,0.08762
5571.34596,0.05963
5573.27443,0.04150
5575.20289,0.03308
5577.13136,0.03917
5579.05983,0.04743
5580.98830,0.03585
5582.91677,0.02342
5584.84524,0.04070
5586.77371,0.07682
5588.70217,0.10177
5590.63064,0.10468
5592.55911,0.10041
5594.48758,0.09285
5596.41605,0.08569
5598.34452,0.08585
5600.27299,0.07237
5602.20145,0.05578
5604.12992,0.06315
5606.05839,0.07517
5607.98686,0.08022
5609.91533,0.08846
5611.84380,0.10542
5613.77227,0.12535
5615.70074,0.13404
5617.62920,0.13220
5619.55767,0.11708
5621.48614,0.08486
5623.41461,0.06686
5625.34308,0.07446
5627.27155,0.08294
5629.20002,0.09113
5631.12848,0.09693
5633.05695,0.09806
5634.98542,0.10519
5636.91389,0.10677
5638.84236,0.09454
5640.77083,0.07883
5642.69930,0.06006
5644.62777,0.03524
5646.55623,0.00574
5648.48470,-0.01454
5650.41317,0.00861
5652.34164,0.06941
5654.27011,0.10831
5656.19858,0.10868
5658.12705,0.09802
5660.05551,0.08777
5661.98398,0.08134
5663.91245,0.08100
5665.84092,0.07277
5667.76939,0.04858
5669.69786,0.02359
5671.62633,0.01661
5673.55480,0.04290
5675.48326,0.08247
5677.41173,0.08379
5679.34020,0.06252
5681.26867,0.05732
5683.19714,0.04775
5685.12561,0.03201
5687.05408,0.04036
5688.98254,0.06812
5690.91101,0.08535
5692.83948,0.08564
5694.76795,0.07639
5696.69642,0.06365
5698.62489,0.05709
5700.55336,0.05743
5702.48183,0.06860
5704.41029,0.09335
5706.33876,0.10663
5708.26723,0.09034
5710.19570,0.06718
5712.12417,0.06892
5714.05264,0.08892
5715.98111,0.10566
5717.90957,0.11005
5719.83804,0.09041
5721.76651,0.05853
5723.69498,0.04077
5725.62345,0.04777
5727.55192,0.07194
5729.48039,0.09141
5731.40886,0.10067
5733.33732,0.10484
5735.26579,0.09485
5737.19426,0.07499
5739.12273,0.06169
5741.05120,0.04665
5742.97967,0.03002
5744.90814,0.03204
5746.83660,0.05599
5748.76507,0.08361
5750.69354,0.08962
5752.62201,0.06903
5754.55048,0.04819
5756.47895,0.04908
5758.40742,0.05678
5760.33588,0.05179
5762.26435,0.04711
5764.19282,0.04765
5766.12129,0.04688
5768.04976,0.07359
5769.97823,0.13482
5771.90670,0.17449
5773.83517,0.16569
5775.76363,0.13079
5777.69210,0.08528
5779.62057,0.06163
5781.54904,0.06538
5783.47751,0.06453
5785.40598,0.07562
5787.33445,0.10258
5789.26291,0.10646
5791.19138,0.10437
5793.11985,0.12254
5795.04832,0.13451
5796.97679,0.11936
5798.90526,0.10290
5800.83373,0.11384
5802.76220,0.12712
5804.69066,0.10929
5806.61913,0.09359
5808.54760,0.12609
5810.47607,0.17698
5812.40454,0.18299
5814.33301,0.15086
5816.26148,0.12483
5818.18994,0.08952
5820.11841,0.03386
5822.04688,0.00585
5823.97535,0.02019
5825.90382,0.05291
5827.83229,0.06462
5829.76076,0.03447
5831.68923,0.03360
5833.61769,0.08189
5835.54616,0.09297
5837.47463,0.06142
5839.40310,0.05129
5841.33157,0.06612
5843.26004,0.07429
5845.18851,0.07496
5847.11697,0.06745
5849.04544,0.04872
5850.97391,0.05552
5852.90238,0.09065
5854.83085,0.09611
5856.75932,0.05941
5858.68779,0.03798
5860.61626,0.05990
5862.54472,0.10280
5864.47319,0.12390
5866.40166,0.09154
5868.33013,0.07176
5870.25860,0.10711
5872.18707,0.11196
5874.11554,0.06470
5876.04400,0.03155
5877.97247,0.03565
5879.90094,0.06744
5881.82941,0.09739
5883.75788,0.08871
5885.68635,0.05725
5887.61482,0.05461
5889.54329,0.08690
5891.47175,0.09157
5893.40022,0.04765
5895.32869,0.01407
5897.25716,0.02803
5899.18563,0.06513
5901.11410,0.09017
5903.04257,0.09500
5904.97103,0.09450
5906.89950,0.08930
5908.82797,0.07495
5910.75644,0.07374
5912.68491,0.10153
5914.61338,0.13062
5916.54185,0.13311
5918.47032,0.12864
5920.39878,0.11473
5922.32725,0.06834
5924.25572,0.01836
5926.18419,0.00051
5928.11266,0.02888
5930.04113,0.08852
5931.96960,0.13596
5933.89806,0.15287
5935.82653,0.15419
5937.75500,0.15431
5939.68347,0.15292
5941.61194,0.13867
5943.54041,0.10692
5945.46888,0.08497
5947.39734,0.09986
5949.32581,0.12611
5951.25428,0.10112
5953.18275,0.03409
5955.11122,0.00343
5957.03969,0.02480
5958.96816,0.04357
5960.89663,0.03317
5962.82509,0.03572
5964.75356,0.06756
5966.68203,0.11352
5968.61050,0.13878
5970.53897,0.10415
5972.46744,0.08360
5974.39591,0.12491
5976.32437,0.14453
5978.25284,0.11649
5980.18131,0.09056
5982.10978,0.09291
5984.03825,0.09366
5985.96672,0.08233
5987.89519,0.08775
5989.82366,0.10345
5991.75212,0.11279
5993.68059,0.11974
5995.60906,0.14448
5997.53753,0.17687
5999.46600,0.17105
6001.39447,0.12343
6003.32294,0.07749
6005.25140,0.07190
6007.17987,0.09009
6009.10834,0.09075
6011.03681,0.06454
6012.96528,0.05156
6014.89375,0.08350
6016.82222,0.11181
6018.75069,0.09779
6020.67915,0.07902
6022.60762,0.07393
6024.53609,0.06836
6026.46456,0.06850
6028.39303,0.10387
6030.32150,0.15005
6032.24997,0.14979
6034.17843,0.11603
6036.10690,0.09905
6038.03537,0.11317
6039.96384,0.12495
6041.89231,0.11087
6043.82078,0.10210
6045.74925,0.13854
6047.67772,0.16689
6049.60618,0.12055
6051.53465,0.07220
6053.46312,0.09236
6055.39159,0.13283
6057.32006,0.14380
6059.24853,0.13032
6061.17700,0.08728
6063.10546,0.04503
6065.03393,0.05298
6066.96240,0.06270
6068.89087,0.04848
6070.81934,0.05696
6072.74781,0.08306
6074.67628,0.09293
6076.60475,0.09683
6078.53321,0.10504
6080.46168,0.10286
6082.39015,0.08746
6084.31862,0.07768
6086.24709,0.06483
6088.17556,0.03907
6090.10403,0.06121
6092.03249,0.12946
6093.96096,0.14221
6095.88943,0.09309
6097.81790,0.06587
6099.74637,0.06259
6101.67484,0.05508
6103.60331,0.07193
6105.53177,0.08873
6107.46024,0.07219
6109.38871,0.05938
6111.31718,0.04819
6113.24565,0.05472
6115.17412,0.10294
6117.10259,0.12288
6119.03106,0.08996
6120.95952,0.05638
6122.88799,0.03445
6124.81646,0.03293
6126.74493,0.06183
6128.67340,0.10647
6130.60187,0.14067
6132.53034,0.12725
6134.45880,0.07089
6136.38727,0.04243
6138.31574,0.06750
6140.24421,0.08649
6142.17268,0.07754
6144.10115,0.07652
6146.02962,0.08800
6147.95809,0.09697
6149.88655,0.10235
6151.81502,0.10205
6153.74349,0.09383
6155.67196,0.09319
6157.60043,0.11796
6159.52890,0.16106
6161.45737,0.18164
6163.38583,0.12614
6165.31430,0.03048
6167.24277,0.01463
6169.17124,0.07091
6171.09971,0.10204
6173.02818,0.10487
6174.95665,0.12316
6176.88512,0.12896
6178.81358,0.09335
6180.74205,0.05671
6182.67052,0.05806
6184.59899,0.08954
6186.52746,0.11801
6188.45593,0.11309
6190.38440,0.08561
6192.31286,0.07446
6194.24133,0.10297
6196.16980,0.12101
6198.09827,0.09083
6200.02674,0.08762
6201.95521,0.12960
6203.88368,0.13100
6205.81215,0.09569
6207.74061,0.10289
6209.66908,0.10938
6211.59755,0.04764
6213.52602,-0.00080
6215.45449,0.05273
6217.38296,0.14993
6219.31143,0.17835
6221.23989,0.13755
6223.16836,0.06155
6225.09683,0.00031
6227.02530,0.01392
6228.95377,0.07731
6230.88224,0.13018
6232.81071,0.11150
6234.73918,0.05185
6236.66764,0.06519
6238.59611,0.13123
6240.52458,0.15259
6242.45305,0.12056
6244.38152,0.08010
6246.30999,0.07452
6248.23846,0.11695
6250.16692,0.17163
6252.09539,0.19221
6254.02386,0.16307
6255.95233,0.07935
6257.88080,-0.02770
6259.80927,-0.06327
6261.73774,-0.03352
6263.66621,-0.01864
6265.59467,-0.01756
6267.52314,0.00111
6269.45161,0.04027
6271.38008,0.09703
6273.30855,0.18384
6275.23702,0.25238
6277.16549,0.20502
6279.09395,0.10748
6281.02242,0.09020
6282.95089,0.12863
6284.87936,0.11454
6286.80783,0.05327
6288.73630,0.01924
6290.66477,0.04326
6292.59323,0.09282
6294.52170,0.09665
6296.45017,0.04434
6298.37864,0.00953
6300.30711,0.05008
6302.23558,0.13573
6304.16405,0.19975
6306.09252,0.23597
6308.02098,0.24923
6309.94945,0.22480
6311.87792,0.16119
6313.80639,0.09364
6315.73486,0.05808
6317.66333,0.05873
6319.59180,0.09411
6321.52026,0.14457
6323.44873,0.16225
6325.37720,0.16663
6327.30567,0.21286
6329.23414,0.23438
6331.16261,0.15328
6333.09108,0.05180
6335.01955,0.02160
6336.94801,0.08961
6338.87648,0.18787
6340.80495,0.16954
6342.73342,0.08432
6344.66189,0.09128
6346.59036,0.15024
6348.51883,0.14079
6350.44729,0.09234
6352.37576,0.06076
6354.30423,0.04538
6356.23270,0.05997
6358.16117,0.08062
6360.08964,0.07208
6362.01811,0.06847
6363.94658,0.07037
6365.87504,0.02563
6367.80351,-0.02515
6369.73198,0.00461
6371.66045,0.07231
6373.58892,0.06843
6375.51739,0.01441
6377.44586,0.03598
6379.37432,0.12418
6381.30279,0.18648
6383.23126,0.20772
6385.15973,0.17639
6387.08820,0.11187
6389.01667,0.07895
6390.94514,0.06305
6392.87361,0.06505
6394.80207,0.12618
6396.73054,0.18002
6398.65901,0.19576
6400.58748,0.21020
6402.51595,0.20004
6404.44442,0.13200
6406.37289,0.04948
6408.30135,0.03033
6410.22982,0.09810
6412.15829,0.15357
6414.08676,0.11396
6416.01523,0.06052
6417.94370,0.07425
6419.87217,0.09527
6421.80064,0.05206
6423.72910,0.00840
6425.65757,0.02223
6427.58604,0.02687
6429.51451,-0.02032
6431.44298,-0.02356
6433.37145,0.04359
6435.29992,0.06299
6437.22838,0.05502
6439.15685,0.06672
6441.08532,0.03000
6443.01379,-0.00520
6444.94226,0.03746
6446.87073,0.07959
6448.79920,0.06280
6450.72766,0.04486
6452.65613,0.06244
6454.58460,0.07032
6456.51307,0.08479
6458.44154,0.12736
6460.37001,0.14107
6462.29848,0.10037
6464.22695,0.04402
6466.15541,0.03834
6468.08388,0.13922
6470.01235,0.26433
6471.94082,0.24251
6473.86929,0.13558
6475.79776,0.08954
6477.72623,0.07463
6479.65469,0.04876
6481.58316,0.01158
6483.51163,-0.05047
6485.44010,-0.08914
6487.36857,-0.06640
6489.29704,-0.00094
6491.22551,0.08508
6493.15398,0.14406
6495.08244,0.10308
6497.01091,0.02014
6498.93938,0.01975
6500.86785,0.06189
6502.79632,0.05233
6504.72479,0.05388
6506.65326,0.08360
6508.58172,0.08251
6510.51019,0.04943
6512.43866,0.01370
6514.36713,0.01465
6516.29560,0.04382
6518.22407,0.04985
6520.15254,0.06081
6522.08101,0.10418
6524.00947,0.11932
6525.93794,0.09099
6527.86641,0.08013
6529.79488,0.09886
6531.72335,0.12432
6533.65182,0.12877
6535.58029,0.11156
6537.50875,0.09173
6539.43722,0.08352
6541.36569,0.12120
6543.29416,0.16570
6545.22263,0.13259
6547.15110,0.06679
6549.07957,0.03006
6551.00804,0.01775
6552.93650,0.01165
6554.86497,0.04565
6556.79344,0.14582
6558.72191,0.20283
6560.65038,0.13160
6562.57885,0.06107
6564.50732,0.09388
6566.43578,0.16337
6568.36425,0.20024
6570.29272,0.16129
6572.22119,0.05695
6574.14966,-0.01428
6576.07813,-0.01962
6578.00660,-0.01472
6579.93507,-0.01684
6581.86353,0.03551
6583.79200,0.10838
6585.72047,0.08969
6587.64894,0.03038
6589.57741,0.04298
6591.50588,0.09118
6593.43435,0.07399
6595.36281,0.04183
6597.29128,0.07864
6599.21975,0.13118
6601.14822,0.13364
6603.07669,0.07476
6605.00516,0.01677
6606.93363,0.03980
6608.86210,0.09289
6610.79056,0.04065
6612.71903,-0.06151
6614.64750,-0.02912
6616.57597,0.13719
6618.50444,0.25533
6620.43291,0.24635
6622.36138,0.19829
6624.28984,0.17298
6626.21831,0.15029
6628.14678,0.10140
6630.07525,0.06075
6632.00372,0.09464
6633.93219,0.15920
6635.86066,0.16108
6637.78912,0.08852
6639.71759,0.03012
6641.64606,0.06771
6643.57453,0.15251
6645.50300,0.14649
6647.43147,0.09192
6649.35994,0.13173
6651.28841,0.21219
6653.21687,0.20984
6655.14534,0.14049
6657.07381,0.07502
6659.00228,0.01206
6660.93075,-0.01388
6662.85922,0.05018
6664.78769,0.14975
6666.71615,0.17338
6668.64462,0.10086
6670.57309,0.08077
6672.50156,0.15863
6674.43003,0.15306
6676.35850,0.04696
6678.28697,-0.02628
6680.21544,-0.05663
6682.14390,-0.05811
6684.07237,-0.00704
6686.00084,0.05162
6687.92931,0.07731
6689.85778,0.07422
6691.78625,0.05167
6693.71472,0.03584
6695.64318,0.04007
6697.57165,0.05372
6699.50012,0.07152
6701.42859,0.10101
6703.35706,0.12805
6705.28553,0.11060
6707.21400,0.06660
6709.14247,0.05326
6711.07093,0.06671
6712.99940,0.11108
6714.92787,0.15861
6716.85634,0.16992
6718.78481,0.18040
6720.71328,0.15223
6722.64175,0.05396
6724.57021,-0.02271
6726.49868,-0.03203
6728.42715,0.00976
6730.35562,0.07133
6732.28409,0.08466
6734.21256,0.04320
6736.14103,0.04775
6738.06950,0.12672
6739.99796,0.17860
6741.92643,0.13472
6743.85490,0.08957
6745.78337,0.13186
6747.71184,0.17625
6749.64031,0.12375
6751.56878,0.02459
6753.49724,-0.01125
6755.42571,-0.00461
6757.35418,-0.05695
6759.28265,-0.08724
6761.21112,0.03131
6763.13959,0.15255
6765.06806,0.15875
6766.99653,0.11129
6768.92499,0.06601
6770.85346,0.05423
6772.78193,0.09775
6774.71040,0.15061
6776.63887,0.15610
6778.56734,0.11179
6780.49581,0.07203
6782.42427,0.10275
6784.35274,0.15180
6786.28121,0.13530
6788.20968,0.10189
6790.13815,0.06993
6792.06662,-0.01782
6793.99509,-0.10656
6795.92355,-0.12434
6797.85202,-0.07873
6799.78049,-0.01534
6801.70896,-0.00130
6803.63743,-0.03227
6805.56590,-0.04387
6807.49437,-0.05652
6809.42284,-0.03159
6811.35130,0.08283
6813.27977,0.15100
6815.20824,0.13928
6817.13671,0.12144
6819.06518,0.02630
6820.99365,-0.11890
6822.92212,-0.17409
6824.85058,-0.14494
6826.77905,-0.08298
6828.70752,0.05350
6830.63599,0.18574
6832.56446,0.22036
6834.49293,0.21565
6836.42140,0.19639
6838.34987,0.15887
6840.27833,0.14752
6842.20680,0.12788
6844.13527,0.04686
6846.06374,-0.05320
6847.99221,-0.10507
6849.92068,-0.05310
6851.84915,0.04622
6853.77761,0.10583
6855.70608,0.06545
6857.63455,-0.01778
6859.56302,0.00434
6861.49149,0.11473
6863.41996,0.14744
6865.34843,0.06585
6867.27690,0.01308
6869.20536,0.08334
6871.13383,0.20589
6873.06230,0.23550
6874.99077,0.13434
6876.91924,0.03517
6878.84771,0.01755
6880.77618,0.05562
6882.70464,0.07903
6884.63311,0.09121
6886.56158,0.08868
6888.49005,0.09866
6890.41852,0.13979
6892.34699,0.14271
6894.27546,0.08942
6896.20393,0.04176
6898.13239,0.03132
6900.06086,0.03642
6901.98933,0.05666
6903.91780,0.10251
6905.84627,0.09642
6907.77474,0.03154
6909.70321,0.01100
6911.63167,0.07196
6913.56014,0.19035
6915.48861,0.23097
6917.41708,0.10870
6919.34555,0.01518
6921.27402,0.12239
6923.20249,0.22151
6925.13096,0.19384
6927.05942,0.16133
6928.98789,0.17403
6930.91636,0.20074
6932.84483,0.26548
6934.77330,0.30190
6936.70177,0.25514
6938.63024,0.16422
6940.55870,0.09580
6942.48717,0.10471
6944.41564,0.08335
6946.34411,-0.01596
6948.27258,-0.04743
6950.20105,0.04449
6952.12952,0.12597
6954.05799,0.11142
6955.98645,0.07386
6957.91492,0.08278
6959.84339,0.09040
6961.77186,0.09938
6963.70033,0.08103
6965.62880,0.00949
6967.55727,0.01148
6969.48573,0.14336
6971.41420,0.23002
6973.34267,0.18899
6975.27114,0.13828
6977.19961,0.14097
6979.12808,0.18231
6981.05655,0.27090
6982.98501,0.35241
6984.91348,0.26570
6986.84195,0.02853
6988.77042,-0.09300
6990.69889,-0.02784
6992.62736,0.05740
6994.55583,0.06113
6996.48430,-0.03193
6998.41276,-0.10844
7000.34123,-0.07915
7002.26970,-0.04101
7004.19817,-0.01375
7006.12664,0.03350
7008.05511,0.03099
7009.98358,-0.01302
7011.91204,-0.00011
7013.84051,0.00463
7015.76898,-0.04396
7017.69745,-0.03364
7019.62592,0.02265
7021.55439,0.02757
7023.48286,0.00366
7025.41133,0.07848
7027.33979,0.22289
7029.26826,0.22312
7031.19673,0.16635
7033.12520,0.24894
7035.05367,0.31802
7036.98214,0.25373
7038.91061,0.20955
7040.83907,0.22013
7042.76754,0.15775
7044.69601,0.00584
7046.62448,-0.02692
7048.55295,0.09489
7050.48142,0.13062
7052.40989,0.07261
7054.33836,0.06377
7056.26682,0.04021
7058.19529,-0.01410
7060.12376,0.02571
7062.05223,0.09278
7063.98070,0.11865
7065.90917,0.16991
7067.83764,0.21845
7069.76610,0.16245
7071.69457,0.10484
7073.62304,0.17115
7075.55151,0.20159
7077.47998,0.14257
7079.40845,0.09730
7081.33692,0.05473
7083.26539,0.01987
7085.19385,0.10576
7087.12232,0.20847
7089.05079,0.18664
7090.97926,0.18932
7092.90773,0.18309
7094.83620,-0.00622
7096.76467,-0.15972
7098.69313,-0.05110
7100.62160,0.11918
7102.55007,0.17114
7104.47854,0.08555
7106.40701,-0.12477
7108.33548,-0.24183
7110.26395,-0.20235
7112.19242,-0.15495
7114.12088,-0.11004
7116.04935,0.01190
7117.97782,0.23520
7119.90629,0.37797
7121.83476,0.33053
7123.76323,0.26760
7125.69170,0.26342
7127.62016,0.21794
7129.54863,0.13933
7131.47710,0.06435
7133.40557,0.00109
7135.33404,0.02494
7137.26251,0.07286
7139.19098,0.05129
7141.11944,0.06957
7143.04791,0.17097
7144.97638,0.23056
7146.90485,0.13564
7148.83332,-0.09157
7150.76179,-0.31175
7152.69026,-0.34073
7154.61873,-0.15512
7156.54719,0.00034
7158.47566,0.01744
7160.40413,-0.00596
7162.33260,0.00190
7164.26107,-0.00050
7166.18954,-0.04358
7168.11801,-0.15341
7170.04647,-0.21923
7171.97494,-0.07679
7173.90341,0.10292
7175.83188,0.16852
7177.76035,0.13204
7179.68882,0.09980
7181.61729,0.20506
7183.54576,0.33471
7185.47422,0.30510
7187.40269,0.24981
7189.33116,0.30508
7191.25963,0.39606
7193.18810,0.33245
7195.11657,0.18675
7197.04504,0.12922
7198.97350,0.07299
7200.90197,-0.05639
7202.83044,-0.19732
7204.75891,-0.23777
7206.68738,-0.15371
7208.61585,-0.09006
7210.54432,-0.03788
7212.47279,0.01467
7214.40125,-0.02829
7216.32972,-0.20407
7218.25819,-0.36049
7220.18666,-0.25101
7222.11513,-0.00984
7224.04360,0.12361
7225.97207,0.13969
7227.90053,0.18906
7229.82900,0.21919
7231.75747,0.09696
7233.68594,0.01182
7235.61441,-0.00112
7237.54288,-0.14121
7239.47135,-0.27600
7241.39982,-0.21581
7243.32828,-0.02556
7245.25675,0.13951
7247.18522,0.16559
7249.11369,0.10645
7251.04216,0.15619
7252.97063,0.29914
7254.89910,0.21797
7256.82756,0.01301
7258.75603,-0.06505
7260.68450,0.06810
7262.61297,0.18583
7264.54144,0.12222
7266.46991,0.05722
7268.39838,0.10563
7270.32685,0.29223
7272.25531,0.42139
7274.18378,0.22759
7276.11225,0.07980
7278.04072,0.18485
7279.96919,0.33939
7281.89766,0.33402
7283.82613,0.19843
7285.75459,0.03016
7287.68306,-0.05163
7289.61153,-0.05951
7291.54000,0.01058
7293.46847,0.04986
7295.39694,-0.05335
7297.32541,-0.02638
7299.25387,0.17373
7301.18234,0.24281
7303.11081,0.16392
7305.03928,0.18395
7306.96775,0.27474
7308.89622,0.18990
7310.82469,0.06259
7312.75316,0.11605
7314.68162,0.19847
7316.61009,0.23243
7318.53856,0.26993
7320.46703,0.23202
7322.39550,0.16113
7324.32397,0.15565
7326.25244,0.21381
7328.18090,0.31394
7330.10937,0.31139
7332.03784,0.19916
7333.96631,0.15637
7335.89478,0.15181
7337.82325,0.07713
7339.75172,-0.18498
7341.68019,-0.35623
7343.60865,-0.09661
7345.53712,0.24528
7347.46559,0.29661
7349.39406,0.17989
7351.32253,0.10535
7353.25100,0.05831
7355.17947,0.07939
7357.10793,0.15948
7359.03640,0.10693
7360.96487,-0.01763
7362.89334,0.04747
7364.82181,0.15087
7366.75028,0.13073
7368.67875,0.08430
7370.60722,0.07359
7372.53568,0.03932
7374.46415,-0.02295
7376.39262,0.04948
7378.32109,0.13297
7380.24956,0.04812
7382.17803,-0.10229
7384.10650,-0.14392
7386.03496,-0.06132
7387.96343,-0.02187
7389.89190,-0.08243
7391.82037,-0.12320
7393.74884,-0.10543
7395.67731,-0.08486
7397.60578,-0.05412
7399.53425,0.01491
7401.46271,0.08178
7403.39118,0.08614
7405.31965,0.03582
7407.24812,0.02194
7409.17659,0.04589
7411.10506,0.07613
7413.03353,0.13375
7414.96199,0.19081
7416.89046,0.25366
7418.81893,0.18614
7420.74740,-0.04001
7422.67587,-0.17282
7424.60434,-0.10641
7426.53281,0.15519
7428.46128,0.35823
7430.38974,0.19381
7432.31821,-0.03419
7434.24668,-0.09987
7436.17515,-0.13177
7438.10362,0.01301
7440.03209,0.22834
7441.96056,0.19850
7443.88902,0.01294
7445.81749,-0.06600
7447.74596,-0.00937
7449.67443,0.07797
7451.60290,0.11408
7453.53137,0.14984
7455.45984,0.16346
7457.38831,0.11357
7459.31677,0.07101
7461.24524,0.10317
7463.17371,0.04926
7465.10218,-0.19193
7467.03065,-0.34156
7468.95912,-0.26455
7470.88759,-0.09336
7472.81605,0.08854
7474.74452,0.14836
7476.67299,0.07301
7478.60146,-0.00324
7480.52993,-0.01116
7482.45840,0.00391
7484.38687,0.02518
7486.31533,0.04474
7488.24380,0.12582
7490.17227,0.32176
7492.10074,0.34841
7494.02921,0.16690
7495.95768,0.11702
7497.88615,0.24209
