399.19301,1.12322
401.12148,0.83588
403.04995,0.35857
404.97842,0.00456
406.90689,-0.06323
408.83536,0.05843
410.76382,0.20685
412.69229,0.13118
414.62076,-0.08524
416.54923,-0.21725
418.47770,-0.20813
420.40617,-0.10094
422.33464,-0.03364
424.26311,-0.01111
426.19157,0.00834
428.12004,-0.00626
430.04851,-0.04702
431.97698,-0.05316
433.90545,-0.03280
435.83392,0.02748
437.76239,0.09217
439.69085,0.05892
441.61932,-0.02809
443.54779,-0.03447
445.47626,0.03412
447.40473,0.15946
449.33320,0.24616
451.26167,0.18413
453.19013,0.06842
455.11860,0.02800
457.04707,0.08344
458.97554,0.14388
460.90401,0.12346
462.83248,0.07645
464.76095,0.06471
466.68942,0.09446
468.61788,0.17074
470.54635,0.25133
472.47482,0.26132
474.40329,0.17792
476.33176,0.14095
478.26023,0.16828
480.18870,0.17243
482.11716,0.14626
484.04563,0.12530
485.97410,0.11129
487.90257,0.14799
489.83104,0.21471
491.75951,0.18046
493.68798,0.09993
495.61645,0.09875
497.54491,0.13326
499.47338,0.16152
501.40185,0.16828
503.33032,0.13288
505.25879,0.08910
507.18726,0.05934
509.11573,0.06376
511.04419,0.07801
512.97266,0.06561
514.90113,0.07734
516.82960,0.15105
518.75807,0.20312
520.68654,0.19354
522.61501,0.16976
524.54348,0.14600
526.47194,0.13022
528.40041,0.12883
530.32888,0.12604
532.25735,0.12583
534.18582,0.13732
536.11429,0.13739
538.04276,0.10207
539.97122,0.04844
541.89969,0.02651
543.82816,0.05601
545.75663,0.07709
547.68510,0.06342
549.61357,0.04993
551.54204,0.03494
553.47051,0.03512
555.39897,0.08829
557.32744,0.13751
559.25591,0.11741
561.18438,0.08147
563.11285,0.10051
565.04132,0.13865
566.96979,0.13353
568.89825,0.11278
570.82672,0.11543
572.75519,0.12364
574.68366,0.12194
576.61213,0.12442
578.54060,0.12738
580.46907,0.09998
582.39754,0.05799
584.32600,0.04405
586.25447,0.04965
588.18294,0.06601
590.11141,0.10229
592.03988,0.12724
593.96835,0.11959
595.89682,0.12011
597.82528,0.14473
599.75375,0.16333
601.68222,0.15913
603.61069,0.14200
605.53916,0.12328
607.46763,0.10922
609.39610,0.11021
611.32456,0.11886
613.25303,0.11814
615.18150,0.11367
617.10997,0.11401
619.03844,0.11864
620.96691,0.12113
622.89538,0.11556
624.82385,0.11108
626.75231,0.11156
628.68078,0.10553
630.60925,0.10031
632.53772,0.11568
634.46619,0.13540
636.39466,0.13680
638.32313,0.13925
640.25159,0.15707
642.18006,0.16585
644.10853,0.15763
646.03700,0.14601
647.96547,0.13457
649.89394,0.13317
651.82241,0.14435
653.75088,0.14914
655.67934,0.13988
657.60781,0.13736
659.53628,0.14519
661.46475,0.14815
663.39322,0.15326
665.32169,0.16663
667.25016,0.18442
669.17862,0.18672
671.10709,0.16932
673.03556,0.15440
674.96403,0.14366
676.89250,0.13036
678.82097,0.11125
680.74944,0.09697
682.67791,0.09707
684.60637,0.11084
686.53484,0.12617
688.46331,0.13236
690.39178,0.13664
692.32025,0.14665
694.24872,0.15627
696.17719,0.16091
698.10565,0.16024
700.03412,0.15605
701.96259,0.14949
703.89106,0.14137
705.81953,0.14285
707.74800,0.18324
709.67647,0.30869
711.60494,0.43122
713.53340,0.37674
715.46187,0.22334
717.39034,0.14426
719.31881,0.12987
721.24728,0.13156
723.17575,0.13187
725.10422,0.13158
727.03268,0.14028
728.96115,0.14951
730.88962,0.15764
732.81809,0.16488
734.74656,0.16017
736.67503,0.14805
738.60350,0.14157
740.53197,0.13920
742.46043,0.14191
744.38890,0.15164
746.31737,0.15965
748.24584,0.14986
750.17431,0.12343
752.10278,0.11394
754.03125,0.12868
755.95971,0.13962
757.88818,0.13560
759.81665,0.13203
761.74512,0.14314
763.67359,0.16122
765.60206,0.17408
767.53053,0.17481
769.45900,0.16727
771.38746,0.16115
773.31593,0.15217
775.24440,0.14068
777.17287,0.13733
779.10134,0.14120
781.02981,0.14375
782.95828,0.14502
784.88674,0.14673
786.81521,0.13798
788.74368,0.12391
790.67215,0.12914
792.60062,0.13943
794.52909,0.13241
796.45756,0.12822
798.38602,0.13256
800.31449,0.13702
802.24296,0.15032
804.17143,0.16139
806.09990,0.15579
808.02837,0.14393
809.95684,0.13833
811.88531,0.13607
813.81377,0.12445
815.74224,0.10887
817.67071,0.11260
819.59918,0.13302
821.52765,0.14457
823.45612,0.13760
825.38459,0.12817
827.31305,0.13486
829.24152,0.14669
831.16999,0.14459
833.09846,0.13481
835.02693,0.12954
836.95540,0.12943
838.88387,0.13378
840.81234,0.14002
842.74080,0.14236
844.66927,0.13973
846.59774,0.13619
848.52621,0.13687
850.45468,0.13835
852.38315,0.13389
854.31162,0.12827
856.24008,0.12455
858.16855,0.12587
860.09702,0.13556
862.02549,0.14641
863.95396,0.15147
865.88243,0.15619
867.81090,0.18365
869.73937,0.21084
871.66783,0.18928
873.59630,0.15404
875.52477,0.14595
877.45324,0.14707
879.38171,0.14343
881.31018,0.13477
883.23865,0.12433
885.16711,0.12325
887.09558,0.13937
889.02405,0.15541
890.95252,0.15369
892.88099,0.14506
894.80946,0.14283
896.73793,0.14331
898.66640,0.13860
900.59486,0.13266
902.52333,0.13205
904.45180,0.13776
906.38027,0.14607
908.30874,0.14734
910.23721,0.14143
912.16568,0.13773
914.09414,0.13796
916.02261,0.14012
917.95108,0.14433
919.87955,0.14880
921.80802,0.15167
923.73649,0.15007
925.66496,0.14120
927.59343,0.13232
929.52189,0.13397
931.45036,0.14168
933.37883,0.14512
935.30730,0.14403
937.23577,0.14017
939.16424,0.13880
941.09271,0.14582
943.02117,0.15317
944.94964,0.15281
946.87811,0.14810
948.80658,0.14608
950.73505,0.14796
952.66352,0.15094
954.59199,0.15527
956.52045,0.15569
958.44892,0.14844
960.37739,0.14162
962.30586,0.14018
964.23433,0.14119
966.16280,0.14471
968.09127,0.15198
970.01974,0.15495
971.94820,0.15168
973.87667,0.15062
975.80514,0.14696
977.73361,0.13845
979.66208,0.13751
981.59055,0.14328
983.51902,0.14414
985.44748,0.14021
987.37595,0.13796
989.30442,0.14117
991.23289,0.14772
993.16136,0.15030
995.08983,0.14619
997.01830,0.13700
998.94677,0.13060
1000.87523,0.13534
1002.80370,0.14321
1004.73217,0.14662
1006.66064,0.14956
1008.58911,0.15273
1010.51758,0.15408
1012.44605,0.15388
1014.37451,0.15480
1016.30298,0.15755
1018.23145,0.15571
1020.15992,0.14686
1022.08839,0.14005
1024.01686,0.14708
1025.94533,0.17241
1027.87380,0.19444
1029.80226,0.18636
1031.73073,0.16735
1033.65920,0.16465
1035.58767,0.16693
1037.51614,0.16063
1039.44461,0.15219
1041.37308,0.14972
1043.30154,0.15313
1045.23001,0.16000
1047.15848,0.16333
1049.08695,0.15522
1051.01542,0.14981
1052.94389,0.15950
1054.87236,0.16702
1056.80083,0.16103
1058.72929,0.15357
1060.65776,0.15484
1062.58623,0.15917
1064.51470,0.16238
1066.44317,0.16497
1068.37164,0.16526
1070.30011,0.16698
1072.22857,0.16804
1074.15704,0.16248
1076.08551,0.15315
1078.01398,0.15060
1079.94245,0.15750
1081.87092,0.16245
1083.79939,0.16266
1085.72786,0.16059
1087.65632,0.15530
1089.58479,0.14659
1091.51326,0.13989
1093.44173,0.14359
1095.37020,0.15162
1097.29867,0.15640
1099.22714,0.16350
1101.15560,0.17485
1103.08407,0.18138
1105.01254,0.17991
1106.94101,0.17654
1108.86948,0.17209
1110.79795,0.16536
1112.72642,0.16260
1114.65489,0.16721
1116.58335,0.16838
1118.51182,0.15916
1120.44029,0.15203
1122.36876,0.15801
1124.29723,0.16720
1126.22570,0.16802
1128.15417,0.16620
1130.08263,0.16292
1132.01110,0.15354
1133.93957,0.14597
1135.86804,0.14842
1137.79651,0.15639
1139.72498,0.15949
1141.65345,0.15948
1143.58191,0.16373
1145.51038,0.16822
1147.43885,0.16675
1149.36732,0.15959
1151.29579,0.15562
1153.22426,0.16142
1155.15273,0.16772
1157.08120,0.16737
1159.00966,0.16776
1160.93813,0.17143
1162.86660,0.17003
1164.79507,0.16051
1166.72354,0.15236
1168.65201,0.15599
1170.58048,0.16390
1172.50894,0.16509
1174.43741,0.16524
1176.36588,0.16851
1178.29435,0.17050
1180.22282,0.16900
1182.15129,0.16464
1184.07976,0.15944
1186.00823,0.15547
1187.93669,0.15537
1189.86516,0.15948
1191.79363,0.16335
1193.72210,0.16348
1195.65057,0.16246
1197.57904,0.16279
1199.50751,0.16260
1201.43597,0.16124
1203.36444,0.16050
1205.29291,0.16229
1207.22138,0.16424
1209.14985,0.16485
1211.07832,0.16846
1213.00679,0.17471
1214.93526,0.17740
1216.86372,0.17334
1218.79219,0.16827
1220.72066,0.16820
1222.64913,0.16978
1224.57760,0.17053
1226.50607,0.17112
1228.43454,0.17153
1230.36300,0.17151
1232.29147,0.16877
1234.21994,0.16554
1236.14841,0.16601
1238.07688,0.16719
1240.00535,0.16521
1241.93382,0.16087
1243.86229,0.15873
1245.79075,0.16201
1247.71922,0.16693
1249.64769,0.16952
1251.57616,0.17024
1253.50463,0.17000
1255.43310,0.16988
1257.36157,0.16905
1259.29003,0.16701
1261.21850,0.16814
1263.14697,0.17033
1265.07544,0.16681
1267.00391,0.16389
1268.93238,0.16870
1270.86085,0.17531
1272.78932,0.17649
1274.71778,0.17241
1276.64625,0.17011
1278.57472,0.17166
1280.50319,0.17182
1282.43166,0.17236
1284.36013,0.17706
1286.28860,0.18103
1288.21706,0.18083
1290.14553,0.17892
1292.07400,0.17540
1294.00247,0.16975
1295.93094,0.16493
1297.85941,0.16364
1299.78788,0.16394
1301.71634,0.16215
1303.64481,0.15973
1305.57328,0.16085
1307.50175,0.16595
1309.43022,0.17185
1311.35869,0.17577
1313.28716,0.17769
1315.21563,0.17985
1317.14409,0.18309
1319.07256,0.18402
1321.00103,0.18208
1322.92950,0.17938
1324.85797,0.17469
1326.78644,0.17032
1328.71491,0.16990
1330.64337,0.17114
1332.57184,0.17039
1334.50031,0.16825
1336.42878,0.16931
1338.35725,0.17358
1340.28572,0.17105
1342.21419,0.16064
1344.14266,0.15490
1346.07112,0.15820
1347.99959,0.16501
1349.92806,0.17097
1351.85653,0.17481
1353.78500,0.17479
1355.71347,0.17199
1357.64194,0.17044
1359.57040,0.17214
1361.49887,0.17536
1363.42734,0.17586
1365.35581,0.17334
1367.28428,0.17062
1369.21275,0.17055
1371.14122,0.17538
1373.06969,0.18229
1374.99815,0.18395
1376.92662,0.17822
1378.85509,0.17274
1380.78356,0.17217
1382.71203,0.17673
1384.64050,0.18524
1386.56897,0.19291
1388.49743,0.19338
1390.42590,0.19125
1392.35437,0.19285
1394.28284,0.19335
1396.21131,0.18908
1398.13978,0.18616
1400.06825,0.18406
1401.99672,0.17876
1403.92518,0.17309
1405.85365,0.17326
1407.78212,0.17767
1409.71059,0.17986
1411.63906,0.18044
1413.56753,0.18162
1415.49600,0.18459
1417.42446,0.19196
1419.35293,0.19785
1421.28140,0.19495
1423.20987,0.18908
1425.13834,0.18145
1427.06681,0.17907
1428.99528,0.18674
1430.92375,0.19342
1432.85221,0.19404
1434.78068,0.19514
1436.70915,0.19379
1438.63762,0.18838
1440.56609,0.18498
1442.49456,0.18360
1444.42303,0.18448
1446.35149,0.18798
1448.27996,0.19051
1450.20843,0.19140
1452.13690,0.19541
1454.06537,0.20337
1455.99384,0.21510
1457.92231,0.21708
1459.85077,0.20314
1461.77924,0.19658
1463.70771,0.19775
1465.63618,0.19640
1467.56465,0.19213
1469.49312,0.19467
1471.42159,0.20754
1473.35006,0.21631
1475.27852,0.20582
1477.20699,0.19342
1479.13546,0.18894
1481.06393,0.18861
1482.99240,0.18741
1484.92087,0.18875
1486.84934,0.19919
1488.77780,0.21325
1490.70627,0.21152
1492.63474,0.20115
1494.56321,0.19881
1496.49168,0.20381
1498.42015,0.20427
1500.34862,0.20064
1502.27709,0.20406
1504.20555,0.21991
1506.13402,0.25105
1508.06249,0.25480
1509.99096,0.22846
1511.91943,0.21177
1513.84790,0.20660
1515.77637,0.21312
1517.70483,0.22567
1519.63330,0.23567
1521.56177,0.23407
1523.49024,0.21556
1525.41871,0.20247
1527.34718,0.19917
1529.27565,0.19905
1531.20412,0.20383
1533.13258,0.21280
1535.06105,0.21720
1536.98952,0.22473
1538.91799,0.24648
1540.84646,0.25892
1542.77493,0.24180
1544.70340,0.22110
1546.63186,0.20372
1548.56033,0.19708
1550.48880,0.19804
1552.41727,0.20126
1554.34574,0.20945
1556.27421,0.22492
1558.20268,0.23818
1560.13115,0.21708
1562.05961,0.19965
1563.98808,0.19715
1565.91655,0.19960
1567.84502,0.20456
1569.77349,0.20578
1571.70196,0.20016
1573.63043,0.20130
1575.55889,0.20836
1577.48736,0.20288
1579.41583,0.19136
1581.34430,0.18339
1583.27277,0.17681
1585.20124,0.17665
1587.12971,0.18470
1589.05818,0.18943
1590.98664,0.18451
1592.91511,0.17951
1594.84358,0.18002
1596.77205,0.18006
1598.70052,0.17829
1600.62899,0.17863
1602.55746,0.17985
1604.48592,0.18034
1606.41439,0.18199
1608.34286,0.18361
1610.27133,0.18345
1612.19980,0.18473
1614.12827,0.19223
1616.05674,0.20252
1617.98521,0.20034
1619.91367,0.19591
1621.84214,0.20072
1623.77061,0.20479
1625.69908,0.20327
1627.62755,0.20095
1629.55602,0.19542
1631.48449,0.19177
1633.41295,0.19941
1635.34142,0.22061
1637.26989,0.22537
1639.19836,0.21015
1641.12683,0.20049
1643.05530,0.20159
1644.98377,0.21412
1646.91223,0.22898
1648.84070,0.22581
1650.76917,0.22431
1652.69764,0.23199
1654.62611,0.21903
1656.55458,0.20288
1658.48305,0.19647
1660.41152,0.19632
1662.33998,0.20009
1664.26845,0.20271
1666.19692,0.20941
1668.12539,0.22406
1670.05386,0.23062
1671.98233,0.22162
1673.91080,0.21465
1675.83926,0.21046
1677.76773,0.20799
1679.69620,0.21144
1681.62467,0.22492
1683.55314,0.24575
1685.48161,0.24171
1687.41008,0.22357
1689.33855,0.21231
1691.26701,0.20407
1693.19548,0.20374
1695.12395,0.21544
1697.05242,0.22920
1698.98089,0.23562
1700.90936,0.23212
1702.83783,0.22368
1704.76629,0.21876
1706.69476,0.20904
1708.62323,0.19710
1710.55170,0.19351
1712.48017,0.19820
1714.40864,0.21096
1716.33711,0.22536
1718.26558,0.21740
1720.19404,0.19961
1722.12251,0.19247
1724.05098,0.19209
1725.97945,0.19261
1727.90792,0.19383
1729.83639,0.19640
1731.76486,0.20327
1733.69332,0.21335
1735.62179,0.20901
1737.55026,0.20172
1739.47873,0.20257
1741.40720,0.20407
1743.33567,0.20483
1745.26414,0.20974
1747.19261,0.21567
1749.12107,0.21616
1751.04954,0.20795
1752.97801,0.20109
1754.90648,0.20288
1756.83495,0.20553
1758.76342,0.20221
1760.69189,0.19781
1762.62035,0.19364
1764.54882,0.19077
1766.47729,0.19390
1768.40576,0.20263
1770.33423,0.21271
1772.26270,0.21861
1774.19117,0.21336
1776.11964,0.20281
1778.04810,0.19725
1779.97657,0.19768
1781.90504,0.19597
1783.83351,0.19386
1785.76198,0.19485
1787.69045,0.19643
1789.61892,0.20210
1791.54738,0.20899
1793.47585,0.20646
1795.40432,0.20021
1797.33279,0.19639
1799.26126,0.19654
1801.18973,0.19991
1803.11820,0.19903
1805.04666,0.19490
1806.97513,0.19207
1808.90360,0.19067
1810.83207,0.19099
1812.76054,0.19072
1814.68901,0.18837
1816.61748,0.18645
1818.54595,0.18657
1820.47441,0.18896
1822.40288,0.19480
1824.33135,0.20191
1826.25982,0.20408
1828.18829,0.20252
1830.11676,0.19786
1832.04523,0.19074
1833.97369,0.18842
1835.90216,0.19102
1837.83063,0.19330
1839.75910,0.19487
1841.68757,0.19988
1843.61604,0.20601
1845.54451,0.20297
1847.47298,0.19331
1849.40144,0.18702
1851.32991,0.18636
1853.25838,0.18860
1855.18685,0.19051
1857.11532,0.19118
1859.04379,0.19121
1860.97226,0.19022
1862.90072,0.18899
1864.82919,0.19019
1866.75766,0.19621
1868.68613,0.20348
1870.61460,0.20170
1872.54307,0.19464
1874.47154,0.19170
1876.40001,0.19291
1878.32847,0.19215
1880.25694,0.18730
1882.18541,0.18439
1884.11388,0.18645
1886.04235,0.18827
1887.97082,0.18869
1889.89929,0.19038
1891.82775,0.19128
1893.75622,0.18963
1895.68469,0.18609
1897.61316,0.18352
1899.54163,0.18481
1901.47010,0.18801
1903.39857,0.18946
1905.32704,0.18877
1907.25550,0.18751
1909.18397,0.18712
1911.11244,0.18708
1913.04091,0.18570
1914.96938,0.18585
1916.89785,0.18928
1918.82632,0.19191
1920.75478,0.19365
1922.68325,0.19556
1924.61172,0.19436
1926.54019,0.19078
1928.46866,0.18713
1930.39713,0.18425
1932.32560,0.18337
1934.25407,0.18439
1936.18253,0.18560
1938.11100,0.18699
1940.03947,0.19194
1941.96794,0.19862
1943.89641,0.19871
1945.82488,0.19273
1947.75335,0.18607
1949.68181,0.18140
1951.61028,0.18205
1953.53875,0.18760
1955.46722,0.19272
1957.39569,0.19328
1959.32416,0.19056
1961.25263,0.18955
1963.18110,0.19278
1965.10956,0.19683
1967.03803,0.19548
1968.96650,0.18975
1970.89497,0.18806
1972.82344,0.19026
1974.75191,0.19000
1976.68038,0.18736
1978.60884,0.18684
1980.53731,0.18935
1982.46578,0.19098
1984.39425,0.18965
1986.32272,0.18720
1988.25119,0.18538
1990.17966,0.18377
1992.10812,0.18205
1994.03659,0.18213
1995.96506,0.18357
1997.89353,0.18388
1999.82200,0.18290
2001.75047,0.18315
2003.67894,0.18568
2005.60741,0.18847
2007.53587,0.19048
2009.46434,0.19069
2011.39281,0.18908
2013.32128,0.18927
2015.24975,0.19165
2017.17822,0.19224
2019.10669,0.19030
2021.03515,0.18861
2022.96362,0.18901
2024.89209,0.19022
2026.82056,0.18933
2028.74903,0.18738
2030.67750,0.18782
2032.60597,0.19010
2034.53444,0.19104
2036.46290,0.19140
2038.39137,0.19343
2040.31984,0.19474
2042.24831,0.19306
2044.17678,0.19149
2046.10525,0.19235
2048.03372,0.19287
2049.96218,0.19098
2051.89065,0.18902
2053.81912,0.18938
2055.74759,0.19016
2057.67606,0.19070
2059.60453,0.19418
2061.53300,0.19827
2063.46147,0.19745
2065.38993,0.19313
2067.31840,0.19099
2069.24687,0.19155
2071.17534,0.19073
2073.10381,0.18879
2075.03228,0.18885
2076.96075,0.18956
2078.88921,0.18935
2080.81768,0.19012
2082.74615,0.18998
2084.67462,0.18653
2086.60309,0.18468
2088.53156,0.18721
2090.46003,0.19059
2092.38850,0.19228
2094.31696,0.19161
2096.24543,0.19003
2098.17390,0.18969
2100.10237,0.19058
2102.03084,0.19210
2103.95931,0.19313
2105.88778,0.19291
2107.81624,0.19141
2109.74471,0.18900
2111.67318,0.18737
2113.60165,0.18835
2115.53012,0.19018
2117.45859,0.18960
2119.38706,0.18933
2121.31553,0.19125
2123.24399,0.19108
2125.17246,0.18743
2127.10093,0.18499
2129.02940,0.18710
2130.95787,0.19186
2132.88634,0.19528
2134.81481,0.19386
2136.74327,0.19042
2138.67174,0.18979
2140.60021,0.19100
2142.52868,0.19280
2144.45715,0.19338
2146.38562,0.19140
2148.31409,0.18915
2150.24255,0.18877
2152.17102,0.19040
2154.09949,0.19265
2156.02796,0.19312
2157.95643,0.19169
2159.88490,0.19177
2161.81337,0.19221
2163.74184,0.19016
2165.67030,0.18917
2167.59877,0.19188
2169.52724,0.19516
2171.45571,0.19504
2173.38418,0.19197
2175.31265,0.18948
2177.24112,0.18854
2179.16958,0.18786
2181.09805,0.18654
2183.02652,0.18393
2184.95499,0.18313
2186.88346,0.18652
2188.81193,0.18866
2190.74040,0.18771
2192.66887,0.18825
2194.59733,0.19085
2196.52580,0.19345
2198.45427,0.19505
2200.38274,0.19430
2202.31121,0.19076
2204.23968,0.18747
2206.16815,0.18707
2208.09661,0.18807
2210.02508,0.18821
2211.95355,0.18828
2213.88202,0.19085
2215.81049,0.19468
2217.73896,0.19600
2219.66743,0.19505
2221.59590,0.19400
2223.52436,0.19271
2225.45283,0.19047
2227.38130,0.18800
2229.30977,0.18654
2231.23824,0.18692
2233.16671,0.18953
2235.09518,0.19379
2237.02364,0.19687
2238.95211,0.19515
2240.88058,0.19042
2242.80905,0.18899
2244.73752,0.18985
2246.66599,0.18739
2248.59446,0.18520
2250.52293,0.18650
2252.45139,0.18608
2254.37986,0.18423
2256.30833,0.18521
2258.23680,0.18763
2260.16527,0.18917
2262.09374,0.18856
2264.02221,0.18697
2265.95067,0.18836
2267.87914,0.19206
2269.80761,0.19329
2271.73608,0.19092
2273.66455,0.18874
2275.59302,0.18942
2277.52149,0.18983
2279.44996,0.18846
2281.37842,0.18836
2283.30689,0.18843
2285.23536,0.18773
2287.16383,0.18904
2289.09230,0.19088
2291.02077,0.19192
2292.94924,0.19350
2294.87770,0.19413
2296.80617,0.19390
2298.73464,0.19330
2300.66311,0.19263
2302.59158,0.19379
2304.52005,0.19529
2306.44852,0.19604
2308.37699,0.19786
2310.30545,0.19907
2312.23392,0.19781
2314.16239,0.19810
2316.09086,0.20004
2318.01933,0.20290
2319.94780,0.21114
2321.87627,0.21545
2323.80473,0.20728
2325.73320,0.20112
2327.66167,0.20469
2329.59014,0.21144
2331.51861,0.21330
2333.44708,0.20832
2335.37555,0.20685
2337.30401,0.21456
2339.23248,0.22222
2341.16095,0.22083
2343.08942,0.21218
2345.01789,0.20514
2346.94636,0.20604
2348.87483,0.21251
2350.80330,0.21986
2352.73176,0.22468
2354.66023,0.22833
2356.58870,0.23589
2358.51717,0.24917
2360.44564,0.25767
2362.37411,0.25060
2364.30258,0.24131
2366.23104,0.23635
2368.15951,0.22596
2370.08798,0.21272
2372.01645,0.20547
2373.94492,0.20107
2375.87339,0.19582
2377.80186,0.19360
2379.73033,0.19336
2381.65879,0.19191
2383.58726,0.19037
2385.51573,0.18906
2387.44420,0.18845
2389.37267,0.18841
2391.30114,0.18754
2393.22961,0.18699
2395.15807,0.18659
2397.08654,0.18554
2399.01501,0.18517
2400.94348,0.18553
2402.87195,0.18628
2404.80042,0.18794
2406.72889,0.18983
2408.65736,0.18987
2410.58582,0.18846
2412.51429,0.18700
2414.44276,0.18664
2416.37123,0.18942
2418.29970,0.19239
2420.22817,0.19140
2422.15664,0.18958
2424.08510,0.19055
2426.01357,0.19134
2427.94204,0.18950
2429.87051,0.18728
2431.79898,0.18655
2433.72745,0.18797
2435.65592,0.19003
2437.58439,0.19058
2439.51285,0.19093
2441.44132,0.19199
2443.36979,0.19203
2445.29826,0.19059
2447.22673,0.18852
2449.15520,0.18639
2451.08367,0.18405
2453.01213,0.18244
2454.94060,0.18470
2456.86907,0.18846
2458.79754,0.18991
2460.72601,0.19111
2462.65448,0.19248
2464.58295,0.19260
2466.51142,0.19174
2468.43988,0.18955
2470.36835,0.18630
2472.29682,0.18593
2474.22529,0.18920
2476.15376,0.19132
2478.08223,0.19132
2480.01070,0.19189
2481.93916,0.19439
2483.86763,0.19683
2485.79610,0.19692
2487.72457,0.19616
2489.65304,0.19504
2491.58151,0.19211
2493.50998,0.18910
2495.43844,0.18927
2497.36691,0.19192
2499.29538,0.19383
2501.22385,0.19352
2503.15232,0.19187
2505.08079,0.19153
2507.00926,0.19492
2508.93773,0.19864
2510.86619,0.19748
2512.79466,0.19389
2514.72313,0.19256
2516.65160,0.19416
2518.58007,0.19814
2520.50854,0.20180
2522.43701,0.20071
2524.36547,0.19606
2526.29394,0.19347
2528.22241,0.19352
2530.15088,0.19316
2532.07935,0.19213
2534.00782,0.19183
2535.93629,0.19243
2537.86476,0.19353
2539.79322,0.19386
2541.72169,0.19279
2543.65016,0.19204
2545.57863,0.19298
2547.50710,0.19447
2549.43557,0.19379
2551.36404,0.19140
2553.29250,0.19000
2555.22097,0.18999
2557.14944,0.19142
2559.07791,0.19304
2561.00638,0.19308
2562.93485,0.19306
2564.86332,0.19370
2566.79179,0.19316
2568.72025,0.19235
2570.64872,0.19367
2572.57719,0.19556
2574.50566,0.19556
2576.43413,0.19484
2578.36260,0.19469
2580.29107,0.19395
2582.21953,0.19286
2584.14800,0.19312
2586.07647,0.19537
2588.00494,0.19816
2589.93341,0.19785
2591.86188,0.19476
2593.79035,0.19377
2595.71882,0.19525
2597.64728,0.19735
2599.57575,0.19918
2601.50422,0.19841
2603.43269,0.19628
2605.36116,0.19666
2607.28963,0.19953
2609.21810,0.20233
2611.14656,0.20211
2613.07503,0.19783
2615.00350,0.19230
2616.93197,0.19015
2618.86044,0.19247
2620.78891,0.19465
2622.71738,0.19481
2624.64585,0.19485
2626.57431,0.19441
2628.50278,0.19376
2630.43125,0.19256
2632.35972,0.19079
2634.28819,0.19265
2636.21666,0.19695
2638.14513,0.19931
2640.07359,0.20111
2642.00206,0.20268
2643.93053,0.20175
2645.85900,0.19794
2647.78747,0.19464
2649.71594,0.19596
2651.64441,0.19787
2653.57288,0.19554
2655.50134,0.19223
2657.42981,0.19161
2659.35828,0.19344
2661.28675,0.19569
2663.21522,0.19628
2665.14369,0.19431
2667.07216,0.19197
2669.00062,0.19214
2670.92909,0.19442
2672.85756,0.19719
2674.78603,0.19812
2676.71450,0.19726
2678.64297,0.19743
2680.57144,0.19740
2682.49990,0.19578
2684.42837,0.19437
2686.35684,0.19492
2688.28531,0.19675
2690.21378,0.19686
2692.14225,0.19619
2694.07072,0.19714
2695.99919,0.19896
2697.92765,0.20128
2699.85612,0.20204
2701.78459,0.19939
2703.71306,0.19790
2705.64153,0.19998
2707.57000,0.20061
2709.49847,0.19849
2711.42693,0.19768
2713.35540,0.19784
2715.28387,0.19671
2717.21234,0.19569
2719.14081,0.19614
2721.06928,0.19793
2722.99775,0.20029
2724.92622,0.20093
2726.85468,0.19879
2728.78315,0.19598
2730.71162,0.19525
2732.64009,0.19658
2734.56856,0.19774
2736.49703,0.19777
2738.42550,0.19687
2740.35396,0.19648
2742.28243,0.19805
2744.21090,0.20004
2746.13937,0.20087
2748.06784,0.20005
2749.99631,0.19803
2751.92478,0.19717
2753.85325,0.19761
2755.78171,0.19743
2757.71018,0.19850
2759.63865,0.20273
2761.56712,0.20643
2763.49559,0.20695
2765.42406,0.20591
2767.35253,0.20374
2769.28099,0.20193
2771.20946,0.20282
2773.13793,0.20465
2775.06640,0.20549
2776.99487,0.20639
2778.92334,0.20825
2780.85181,0.20838
2782.78028,0.20519
2784.70874,0.20177
2786.63721,0.20017
2788.56568,0.20008
2790.49415,0.20087
2792.42262,0.20318
2794.35109,0.20709
2796.27956,0.20907
2798.20802,0.20726
2800.13649,0.20551
2802.06496,0.20626
2803.99343,0.20670
2805.92190,0.20688
2807.85037,0.20849
2809.77884,0.20903
2811.70731,0.20656
2813.63577,0.20451
2815.56424,0.20666
2817.49271,0.21030
2819.42118,0.21148
2821.34965,0.20892
2823.27812,0.20397
2825.20659,0.20055
2827.13505,0.19985
2829.06352,0.20160
2830.99199,0.20492
2832.92046,0.20755
2834.84893,0.20847
2836.77740,0.20794
2838.70587,0.20796
2840.63433,0.20787
2842.56280,0.20564
2844.49127,0.20415
2846.41974,0.20365
2848.34821,0.20233
2850.27668,0.20232
2852.20515,0.20424
2854.13362,0.20710
2856.06208,0.20893
2857.99055,0.20619
2859.91902,0.20055
2861.84749,0.19895
2863.77596,0.20321
2865.70443,0.20729
2867.63290,0.20691
2869.56136,0.20463
2871.48983,0.20343
2873.41830,0.20232
2875.34677,0.20217
2877.27524,0.20357
2879.20371,0.20307
2881.13218,0.20228
2883.06065,0.20511
2884.98911,0.20923
2886.91758,0.21159
2888.84605,0.21313
2890.77452,0.21524
2892.70299,0.21615
2894.63146,0.21251
2896.55993,0.20526
2898.48839,0.20323
2900.41686,0.20969
2902.34533,0.21311
2904.27380,0.20839
2906.20227,0.20446
2908.13074,0.20406
2910.05921,0.20268
2911.98768,0.20100
2913.91614,0.20154
2915.84461,0.20235
2917.77308,0.19987
2919.70155,0.19452
2921.63002,0.19132
2923.55849,0.19397
2925.48696,0.20195
2927.41542,0.20596
2929.34389,0.19918
2931.27236,0.19461
2933.20083,0.19975
2935.12930,0.20355
2937.05777,0.20254
2938.98624,0.20369
2940.91471,0.20816
2942.84317,0.20950
2944.77164,0.20664
2946.70011,0.20453
2948.62858,0.20599
2950.55705,0.21027
2952.48552,0.21324
2954.41399,0.21286
2956.34245,0.20942
2958.27092,0.20622
2960.19939,0.20797
2962.12786,0.21157
2964.05633,0.21230
2965.98480,0.21163
2967.91327,0.21252
2969.84174,0.21572
2971.77020,0.21845
2973.69867,0.21770
2975.62714,0.21301
2977.55561,0.20712
2979.48408,0.20606
2981.41255,0.21017
2983.34102,0.21280
2985.26948,0.21184
2987.19795,0.21122
2989.12642,0.21251
2991.05489,0.21373
2992.98336,0.21386
2994.91183,0.21334
2996.84030,0.21248
2998.76877,0.21057
3000.69723,0.20962
3002.62570,0.21067
3004.55417,0.21095
3006.48264,0.21000
3008.41111,0.20591
3010.33958,0.20039
3012.26805,0.19796
3014.19651,0.19304
3016.12498,0.18613
3018.05345,0.19107
3019.98192,0.20650
3021.91039,0.21450
3023.83886,0.21138
3025.76733,0.20757
3027.69579,0.20704
3029.62426,0.20748
3031.55273,0.20725
3033.48120,0.20549
3035.40967,0.20496
3037.33814,0.20766
3039.26661,0.20871
3041.19508,0.20847
3043.12354,0.21050
3045.05201,0.20977
3046.98048,0.20551
3048.90895,0.20498
3050.83742,0.20809
3052.76589,0.21000
3054.69436,0.21184
3056.62282,0.21357
3058.55129,0.21181
3060.47976,0.20934
3062.40823,0.21094
3064.33670,0.21441
3066.26517,0.21378
3068.19364,0.20917
3070.12211,0.20627
3072.05057,0.20742
3073.97904,0.20898
3075.90751,0.20821
3077.83598,0.20875
3079.76445,0.21216
3081.69292,0.21470
3083.62139,0.21506
3085.54985,0.21450
3087.47832,0.21218
3089.40679,0.20785
3091.33526,0.20483
3093.26373,0.20324
3095.19220,0.20308
3097.12067,0.20635
3099.04914,0.20930
3100.97760,0.20868
3102.90607,0.20643
3104.83454,0.20617
3106.76301,0.20919
3108.69148,0.21268
3110.61995,0.21380
3112.54842,0.21259
3114.47688,0.21200
3116.40535,0.21223
3118.33382,0.21078
3120.26229,0.21031
3122.19076,0.21244
3124.11923,0.21206
3126.04770,0.20883
3127.97617,0.20700
3129.90463,0.20664
3131.83310,0.20833
3133.76157,0.21191
3135.69004,0.21495
3137.61851,0.21660
3139.54698,0.21728
3141.47545,0.21793
3143.40391,0.21741
3145.33238,0.21662
3147.26085,0.21820
3149.18932,0.22205
3151.11779,0.22439
3153.04626,0.22025
3154.97473,0.21352
3156.90320,0.21071
3158.83166,0.21099
3160.76013,0.21156
3162.68860,0.21368
3164.61707,0.21955
3166.54554,0.22286
3168.47401,0.21951
3170.40248,0.21702
3172.33094,0.21827
3174.25941,0.21880
3176.18788,0.21766
3178.11635,0.21586
3180.04482,0.21232
3181.97329,0.20942
3183.90176,0.21119
3185.83022,0.21398
3187.75869,0.21298
3189.68716,0.21026
3191.61563,0.20661
3193.54410,0.20368
3195.47257,0.20826
3197.40104,0.21692
3199.32951,0.21836
3201.25797,0.21347
3203.18644,0.21110
3205.11491,0.21260
3207.04338,0.21231
3208.97185,0.20950
3210.90032,0.21033
3212.82879,0.21582
3214.75725,0.21551
3216.68572,0.20612
3218.61419,0.20020
3220.54266,0.20392
3222.47113,0.20954
3224.39960,0.21038
3226.32807,0.21235
3228.25654,0.21958
3230.18500,0.22341
3232.11347,0.22112
3234.04194,0.22042
3235.97041,0.22200
3237.89888,0.21970
3239.82735,0.21550
3241.75582,0.21506
3243.68428,0.21765
3245.61275,0.21842
3247.54122,0.21473
3249.46969,0.21173
3251.39816,0.21363
3253.32663,0.21539
3255.25510,0.21357
3257.18357,0.21406
3259.11203,0.21904
3261.04050,0.21974
3262.96897,0.21239
3264.89744,0.20648
3266.82591,0.20766
3268.75438,0.20848
3270.68285,0.20671
3272.61131,0.20899
3274.53978,0.21556
3276.46825,0.22044
3278.39672,0.22012
3280.32519,0.21646
3282.25366,0.21340
3284.18213,0.21321
3286.11060,0.21471
3288.03906,0.21404
3289.96753,0.20959
3291.89600,0.20631
3293.82447,0.20854
3295.75294,0.21247
3297.68141,0.21192
3299.60988,0.20755
3301.53834,0.20714
3303.46681,0.20887
3305.39528,0.20605
3307.32375,0.20337
3309.25222,0.20214
3311.18069,0.20114
3313.10916,0.20262
3315.03763,0.20279
3316.96609,0.20277
3318.89456,0.20843
3320.82303,0.21707
3322.75150,0.22360
3324.67997,0.22619
3326.60844,0.22356
3328.53691,0.21703
3330.46537,0.21112
3332.39384,0.20837
3334.32231,0.20929
3336.25078,0.21352
3338.17925,0.21745
3340.10772,0.21782
3342.03619,0.21470
3343.96466,0.21145
3345.89312,0.21243
3347.82159,0.21571
3349.75006,0.21641
3351.67853,0.21330
3353.60700,0.20886
3355.53547,0.20869
3357.46394,0.21325
3359.39240,0.21632
3361.32087,0.21774
3363.24934,0.21903
3365.17781,0.21557
3367.10628,0.21146
3369.03475,0.21502
3370.96322,0.21975
3372.89168,0.21837
3374.82015,0.21427
3376.74862,0.21075
3378.67709,0.20826
3380.60556,0.20538
3382.53403,0.20132
3384.46250,0.20169
3386.39097,0.21043
3388.31943,0.21904
3390.24790,0.21864
3392.17637,0.21325
3394.10484,0.21041
3396.03331,0.20906
3397.96178,0.20845
3399.89025,0.21083
3401.81871,0.21208
3403.74718,0.21199
3405.67565,0.21598
3407.60412,0.22058
3409.53259,0.21679
3411.46106,0.20720
3413.38953,0.20359
3415.31800,0.20697
3417.24646,0.21181
3419.17493,0.21551
3421.10340,0.21380
3423.03187,0.20713
3424.96034,0.20254
3426.88881,0.20241
3428.81728,0.20320
3430.74574,0.20387
3432.67421,0.20587
3434.60268,0.20745
3436.53115,0.20755
3438.45962,0.20947
3440.38809,0.21471
3442.31656,0.21839
3444.24503,0.21743
3446.17349,0.21263
3448.10196,0.20328
3450.03043,0.19476
3451.95890,0.19495
3453.88737,0.20101
3455.81584,0.20418
3457.74431,0.20207
3459.67277,0.19768
3461.60124,0.19286
3463.52971,0.18917
3465.45818,0.18885
3467.38665,0.19182
3469.31512,0.19527
3471.24359,0.19582
3473.17206,0.19396
3475.10052,0.19364
3477.02899,0.19416
3478.95746,0.19392
3480.88593,0.19648
3482.81440,0.20057
3484.74287,0.20092
3486.67134,0.19539
3488.59980,0.18616
3490.52827,0.18033
3492.45674,0.17940
3494.38521,0.18339
3496.31368,0.19099
3498.24215,0.19389
3500.17062,0.19358
3502.09909,0.19420
3504.02755,0.19285
3505.95602,0.19209
3507.88449,0.19176
3509.81296,0.18855
3511.74143,0.18428
3513.66990,0.17942
3515.59837,0.17552
3517.52683,0.17407
3519.45530,0.17476
3521.38377,0.18043
3523.31224,0.18836
3525.24071,0.19255
3527.16918,0.19279
3529.09765,0.18809
3531.02611,0.18052
3532.95458,0.17571
3534.88305,0.17648
3536.81152,0.18127
3538.73999,0.18301
3540.66846,0.17916
3542.59693,0.17650
3544.52540,0.17919
3546.45386,0.18162
3548.38233,0.17773
3550.31080,0.16981
3552.23927,0.16405
3554.16774,0.16598
3556.09621,0.17129
3558.02468,0.17139
3559.95314,0.16869
3561.88161,0.17069
3563.81008,0.17849
3565.73855,0.18667
3567.66702,0.18186
3569.59549,0.16730
3571.52396,0.15974
3573.45243,0.16196
3575.38089,0.16803
3577.30936,0.17018
3579.23783,0.16891
3581.16630,0.16624
3583.09477,0.16269
3585.02324,0.16305
3586.95171,0.16650
3588.88017,0.16439
3590.80864,0.16089
3592.73711,0.15885
3594.66558,0.15620
3596.59405,0.15749
3598.52252,0.16040
3600.45099,0.15868
3602.37946,0.15623
3604.30792,0.15854
3606.23639,0.16247
3608.16486,0.15919
3610.09333,0.15228
3612.02180,0.15312
3613.95027,0.15759
3615.87874,0.16052
3617.80720,0.16547
3619.73567,0.16915
3621.66414,0.16392
3623.59261,0.15814
3625.52108,0.15887
3627.44955,0.16190
3629.37802,0.15949
3631.30649,0.15623
3633.23495,0.15345
3635.16342,0.14781
3637.09189,0.14496
3639.02036,0.14583
3640.94883,0.14464
3642.87730,0.14437
3644.80577,0.15028
3646.73423,0.15979
3648.66270,0.16393
3650.59117,0.15548
3652.51964,0.14815
3654.44811,0.14598
3656.37658,0.14253
3658.30505,0.13737
3660.23352,0.13454
3662.16198,0.13222
3664.09045,0.13058
3666.01892,0.13209
3667.94739,0.13821
3669.87586,0.14664
3671.80433,0.15006
3673.73280,0.15429
3675.66126,0.15665
3677.58973,0.14476
3679.51820,0.13340
3681.44667,0.13104
3683.37514,0.13592
3685.30361,0.14387
3687.23208,0.15287
3689.16055,0.15930
3691.08901,0.15330
3693.01748,0.14141
3694.94595,0.13440
3696.87442,0.13252
3698.80289,0.13484
3700.73136,0.14230
3702.65983,0.14832
3704.58829,0.14402
3706.51676,0.13491
3708.44523,0.13194
3710.37370,0.13979
3712.30217,0.14744
3714.23064,0.14675
3716.15911,0.14155
3718.08757,0.13842
3720.01604,0.14572
3721.94451,0.15359
3723.87298,0.14819
3725.80145,0.14010
3727.72992,0.13878
3729.65839,0.13955
3731.58686,0.14186
3733.51532,0.15115
3735.44379,0.15979
3737.37226,0.15417
3739.30073,0.14590
3741.22920,0.14473
3743.15767,0.15308
3745.08614,0.16096
3747.01460,0.15652
3748.94307,0.15397
3750.87154,0.15274
3752.80001,0.14601
3754.72848,0.14227
3756.65695,0.13912
3758.58542,0.13182
3760.51389,0.12530
3762.44235,0.12470
3764.37082,0.12816
3766.29929,0.13334
3768.22776,0.13542
3770.15623,0.12997
3772.08470,0.12215
3774.01317,0.11964
3775.94163,0.12129
3777.87010,0.12393
3779.79857,0.12549
3781.72704,0.12778
3783.65551,0.13159
3785.58398,0.13091
3787.51245,0.12741
3789.44092,0.12611
3791.36938,0.12349
3793.29785,0.12289
3795.22632,0.13048
3797.15479,0.14180
3799.08326,0.15127
3801.01173,0.15508
3802.94020,0.14394
3804.86866,0.13340
3806.79713,0.13413
3808.72560,0.13779
3810.65407,0.13620
3812.58254,0.13117
3814.51101,0.12975
3816.43948,0.13926
3818.36795,0.15430
3820.29641,0.16161
3822.22488,0.14553
3824.15335,0.12743
3826.08182,0.12362
3828.01029,0.12456
3829.93876,0.12442
3831.86723,0.12536
3833.79569,0.12870
3835.72416,0.13457
3837.65263,0.14139
3839.58110,0.13987
3841.50957,0.13206
3843.43804,0.12825
3845.36651,0.12581
3847.29498,0.12261
3849.22344,0.12452
3851.15191,0.13587
3853.08038,0.14915
3855.00885,0.14378
3856.93732,0.13810
3858.86579,0.13731
3860.79426,0.13337
3862.72272,0.13006
3864.65119,0.13118
3866.57966,0.13053
3868.50813,0.13107
3870.43660,0.13405
3872.36507,0.13098
3874.29354,0.12045
3876.22200,0.11126
3878.15047,0.11226
3880.07894,0.12116
3882.00741,0.12876
3883.93588,0.13256
3885.86435,0.13151
3887.79282,0.12772
3889.72129,0.12632
3891.64975,0.12293
3893.57822,0.11871
3895.50669,0.11980
3897.43516,0.12649
3899.36363,0.13455
3901.29210,0.13664
3903.22057,0.13683
3905.14903,0.13199
3907.07750,0.12043
3909.00597,0.11484
3910.93444,0.11723
3912.86291,0.12104
3914.79138,0.12025
3916.71985,0.11448
3918.64832,0.11079
3920.57678,0.11166
3922.50525,0.11264
3924.43372,0.11035
3926.36219,0.10714
3928.29066,0.10888
3930.21913,0.11537
3932.14760,0.11923
3934.07606,0.11231
3936.00453,0.10167
3937.93300,0.10235
3939.86147,0.11400
3941.78994,0.12033
3943.71841,0.11198
3945.64688,0.10101
3947.57535,0.10002
3949.50381,0.10533
3951.43228,0.10717
3953.36075,0.10468
3955.28922,0.10384
3957.21769,0.10941
3959.14616,0.11904
3961.07463,0.12303
3963.00309,0.11599
3964.93156,0.10655
3966.86003,0.10220
3968.78850,0.10006
3970.71697,0.09813
3972.64544,0.09680
3974.57391,0.09629
3976.50238,0.09883
3978.43084,0.10540
3980.35931,0.11177
3982.28778,0.11232
3984.21625,0.10706
3986.14472,0.10277
3988.07319,0.10358
3990.00166,0.10484
3991.93012,0.10383
3993.85859,0.10454
3995.78706,0.10622
3997.71553,0.10513
3999.64400,0.10322
4001.57247,0.10184
4003.50094,0.09983
4005.42941,0.09881
4007.35787,0.09939
4009.28634,0.09867
4011.21481,0.09639
4013.14328,0.09701
4015.07175,0.10035
4017.00022,0.09993
4018.92869,0.09504
4020.85715,0.09290
4022.78562,0.09624
4024.71409,0.10016
4026.64256,0.10461
4028.57103,0.11040
4030.49950,0.10829
4032.42797,0.09582
4034.35644,0.08493
4036.28490,0.08508
4038.21337,0.09376
4040.14184,0.10115
4042.07031,0.10312
4043.99878,0.10311
4045.92725,0.10078
4047.85572,0.09253
4049.78418,0.08415
4051.71265,0.08361
4053.64112,0.08656
4055.56959,0.08788
4057.49806,0.08821
4059.42653,0.08934
4061.35500,0.09453
4063.28346,0.10134
4065.21193,0.10253
4067.14040,0.09745
4069.06887,0.09369
4070.99734,0.09619
4072.92581,0.09866
4074.85428,0.09520
4076.78275,0.09049
4078.71121,0.08803
4080.63968,0.08599
4082.56815,0.08618
4084.49662,0.08958
4086.42509,0.09379
4088.35356,0.09667
4090.28203,0.09575
4092.21049,0.09273
4094.13896,0.08872
4096.06743,0.08439
4097.99590,0.08559
4099.92437,0.09039
4101.85284,0.09137
4103.78131,0.08797
4105.70978,0.08596
4107.63824,0.08837
4109.56671,0.09007
4111.49518,0.08938
4113.42365,0.08793
4115.35212,0.08322
4117.28059,0.07695
4119.20906,0.07666
4121.13752,0.08171
4123.06599,0.08441
4124.99446,0.08339
4126.92293,0.08005
4128.85140,0.07688
4130.77987,0.07775
4132.70834,0.08042
4134.63681,0.07928
4136.56527,0.07531
4138.49374,0.07425
4140.42221,0.07644
4142.35068,0.07970
4144.27915,0.08158
4146.20762,0.08135
4148.13609,0.08053
4150.06455,0.07570
4151.99302,0.06762
4153.92149,0.06421
4155.84996,0.06885
4157.77843,0.07999
4159.70690,0.09043
4161.63537,0.09215
4163.56384,0.08861
4165.49230,0.08496
4167.42077,0.08166
4169.34924,0.07990
4171.27771,0.07567
4173.20618,0.07033
4175.13465,0.07462
4177.06312,0.08377
4178.99158,0.08210
4180.92005,0.07310
4182.84852,0.07306
4184.77699,0.07915
4186.70546,0.07774
4188.63393,0.07281
4190.56240,0.07544
4192.49087,0.08187
4194.41933,0.08033
4196.34780,0.07154
4198.27627,0.06723
4200.20474,0.06962
4202.13321,0.07003
4204.06168,0.06575
4205.99015,0.06383
4207.91861,0.06639
4209.84708,0.06800
4211.77555,0.06886
4213.70402,0.06923
4215.63249,0.06719
4217.56096,0.06436
4219.48943,0.06059
4221.41789,0.06074
4223.34636,0.07015
4225.27483,0.07973
4227.20330,0.08161
4229.13177,0.07940
4231.06024,0.07750
4232.98871,0.07495
4234.91718,0.06926
4236.84564,0.06433
4238.77411,0.06467
4240.70258,0.06848
4242.63105,0.07159
4244.55952,0.07279
4246.48799,0.07624
4248.41646,0.08417
4250.34492,0.08889
4252.27339,0.08334
4254.20186,0.07620
4256.13033,0.07796
4258.05880,0.08135
4259.98727,0.07733
4261.91574,0.07082
4263.84421,0.06613
4265.77267,0.06088
4267.70114,0.05518
4269.62961,0.05113
4271.55808,0.05252
4273.48655,0.05624
4275.41502,0.05453
4277.34349,0.05216
4279.27195,0.05618
4281.20042,0.06475
4283.12889,0.07125
4285.05736,0.07078
4286.98583,0.06492
4288.91430,0.05849
4290.84277,0.05510
4292.77124,0.05345
4294.69970,0.05191
4296.62817,0.05356
4298.55664,0.05763
4300.48511,0.05631
4302.41358,0.04892
4304.34205,0.04542
4306.27052,0.05160
4308.19898,0.06038
4310.12745,0.06067
4312.05592,0.05386
4313.98439,0.05081
4315.91286,0.05500
4317.84133,0.06247
4319.76980,0.06857
4321.69827,0.06859
4323.62673,0.06579
4325.55520,0.06429
4327.48367,0.05891
4329.41214,0.05217
4331.34061,0.05057
4333.26908,0.04907
4335.19755,0.04549
4337.12601,0.04851
4339.05448,0.05881
4340.98295,0.06369
4342.91142,0.05996
4344.83989,0.05610
4346.76836,0.05292
4348.69683,0.04821
4350.62530,0.04590
4352.55376,0.04654
4354.48223,0.04889
4356.41070,0.05300
4358.33917,0.05386
4360.26764,0.05325
4362.19611,0.05758
4364.12458,0.05830
4366.05304,0.04820
4367.98151,0.04289
4369.90998,0.04981
4371.83845,0.05399
4373.76692,0.05289
4375.69539,0.05235
4377.62386,0.04803
4379.55232,0.03947
4381.48079,0.03317
4383.40926,0.03023
4385.33773,0.02717
4387.26620,0.02821
4389.19467,0.03633
4391.12314,0.04186
4393.05161,0.03831
4394.98007,0.03205
4396.90854,0.03100
4398.83701,0.03552
4400.76548,0.04112
4402.69395,0.04184
4404.62242,0.03668
4406.55089,0.03298
4408.47935,0.03285
4410.40782,0.03491
4412.33629,0.04212
4414.26476,0.04847
4416.19323,0.04718
4418.12170,0.04008
4420.05017,0.03098
4421.97864,0.03186
4423.90710,0.04573
4425.83557,0.05200
4427.76404,0.03808
4429.69251,0.02368
4431.62098,0.02700
4433.54945,0.03540
4435.47792,0.03728
4437.40638,0.03783
4439.33485,0.04137
4441.26332,0.04786
4443.19179,0.05288
4445.12026,0.05336
4447.04873,0.05382
4448.97720,0.05383
4450.90567,0.04753
4452.83413,0.03922
4454.76260,0.03591
4456.69107,0.03857
4458.61954,0.04614
4460.54801,0.04769
4462.47648,0.03529
4464.40495,0.02242
4466.33341,0.01934
4468.26188,0.01786
4470.19035,0.01238
4472.11882,0.01049
4474.04729,0.01481
4475.97576,0.01326
4477.90423,0.00695
4479.83270,0.00959
4481.76116,0.01716
4483.68963,0.02134
4485.61810,0.02135
4487.54657,0.01706
4489.47504,0.01336
4491.40351,0.01102
4493.33198,0.00704
4495.26044,0.00802
4497.18891,0.01306
4499.11738,0.01298
4501.04585,0.01192
4502.97432,0.01365
4504.90279,0.01210
4506.83126,0.00958
4508.75973,0.01350
4510.68819,0.01559
4512.61666,0.01015
4514.54513,0.01310
4516.47360,0.02476
4518.40207,0.02721
4520.33054,0.02293
4522.25901,0.01957
4524.18747,0.01413
4526.11594,0.00812
4528.04441,0.00343
4529.97288,0.00461
4531.90135,0.01229
4533.82982,0.01353
4535.75829,0.00703
4537.68676,0.00314
4539.61522,0.00492
4541.54369,0.00782
4543.47216,0.00901
4545.40063,0.01186
4547.32910,0.01494
4549.25757,0.01249
4551.18604,0.00654
4553.11450,0.00796
4555.04297,0.01688
4556.97144,0.01804
4558.89991,0.01120
4560.82838,0.00689
4562.75685,0.00209
4564.68532,-0.00310
4566.61378,-0.00360
4568.54225,-0.00415
4570.47072,-0.00522
4572.39919,-0.00367
4574.32766,-0.00036
4576.25613,0.00689
4578.18460,0.01344
4580.11307,0.01112
4582.04153,0.01175
4583.97000,0.02525
4585.89847,0.03449
4587.82694,0.02869
4589.75541,0.01888
4591.68388,0.01370
4593.61235,0.01541
4595.54081,0.02063
4597.46928,0.01899
4599.39775,0.01243
4601.32622,0.00853
4603.25469,0.00331
4605.18316,-0.00207
4607.11163,-0.00262
4609.04010,0.00256
4610.96856,0.00869
4612.89703,0.00949
4614.82550,0.01002
4616.75397,0.01351
4618.68244,0.01872
4620.61091,0.02069
4622.53938,0.01349
4624.46784,0.01143
4626.39631,0.02185
4628.32478,0.02379
4630.25325,0.01423
4632.18172,0.01029
4634.11019,0.00606
4636.03866,-0.00355
4637.96713,-0.00228
4639.89559,0.00860
4641.82406,0.01533
4643.75253,0.01767
4645.68100,0.01997
4647.60947,0.02364
4649.53794,0.02539
4651.46641,0.02222
4653.39487,0.01666
4655.32334,0.01254
4657.25181,0.01022
4659.18028,0.00713
4661.10875,0.00695
4663.03722,0.01276
4664.96569,0.01333
4666.89416,0.00776
4668.82262,0.01439
4670.75109,0.02172
4672.67956,0.00728
4674.60803,-0.00648
4676.53650,-0.00106
4678.46497,0.00591
4680.39344,0.00511
4682.32190,0.00333
4684.25037,0.00667
4686.17884,0.01618
4688.10731,0.02166
4690.03578,0.01440
4691.96425,0.00394
4693.89272,0.00124
4695.82119,0.00225
4697.74965,-0.00221
4699.67812,-0.01108
4701.60659,-0.01102
4703.53506,0.00137
4705.46353,0.01294
4707.39200,0.01817
4709.32047,0.01544
4711.24893,0.00542
4713.17740,0.00817
4715.10587,0.02398
4717.03434,0.03007
4718.96281,0.02812
4720.89128,0.01793
4722.81975,-0.00369
4724.74821,-0.01265
4726.67668,-0.00151
4728.60515,0.00651
4730.53362,0.00210
4732.46209,-0.00381
4734.39056,-0.00574
4736.31903,-0.00325
4738.24750,0.00687
4740.17596,0.01786
4742.10443,0.02156
4744.03290,0.02333
4745.96137,0.02700
4747.88984,0.02878
4749.81831,0.02455
4751.74678,0.01174
4753.67524,-0.00149
4755.60371,-0.00394
4757.53218,0.00031
4759.46065,0.00112
4761.38912,-0.00260
4763.31759,0.00016
4765.24606,0.01079
4767.17453,0.01683
4769.10299,0.01736
4771.03146,0.01796
4772.95993,0.01237
4774.88840,-0.00347
4776.81687,-0.01556
4778.74534,-0.01382
4780.67381,-0.00067
4782.60227,0.01479
4784.53074,0.01679
4786.45921,0.00833
4788.38768,0.00413
4790.31615,0.00224
4792.24462,0.00059
4794.17309,0.00706
4796.10156,0.01864
4798.03002,0.02447
4799.95849,0.02277
4801.88696,0.02442
4803.81543,0.03298
4805.74390,0.03086
4807.67237,0.01362
4809.60084,-0.00459
4811.52930,-0.00951
4813.45777,0.00646
4815.38624,0.01993
4817.31471,0.01182
4819.24318,0.00652
4821.17165,0.01086
4823.10012,0.00453
4825.02859,-0.01060
4826.95705,-0.01775
4828.88552,-0.00695
4830.81399,0.01549
4832.74246,0.02987
4834.67093,0.03001
4836.59940,0.02653
4838.52787,0.02398
4840.45633,0.01913
4842.38480,0.01234
4844.31327,0.01087
4846.24174,0.01673
4848.17021,0.01703
4850.09868,0.00781
4852.02715,-0.00125
4853.95562,-0.00835
4855.88408,-0.01280
4857.81255,-0.01289
4859.74102,-0.01310
4861.66949,-0.01302
4863.59796,-0.00512
4865.52643,0.00466
4867.45490,0.00467
4869.38336,0.00210
4871.31183,0.00106
4873.24030,0.00041
4875.16877,0.00703
4877.09724,0.00955
4879.02571,-0.00085
4880.95418,-0.01279
4882.88265,-0.02109
4884.81111,-0.02089
4886.73958,-0.00664
4888.66805,0.01164
4890.59652,0.01948
4892.52499,0.02330
4894.45346,0.03184
4896.38193,0.02679
4898.31039,0.00282
4900.23886,-0.01474
4902.16733,-0.01190
4904.09580,0.00347
4906.02427,0.01779
4907.95274,0.02305
4909.88121,0.01796
4911.80967,0.00786
4913.73814,0.00361
4915.66661,0.00882
4917.59508,0.01073
4919.52355,0.00188
4921.45202,-0.01371
4923.38049,-0.02478
4925.30896,-0.01625
4927.23742,-0.00237
4929.16589,-0.00411
4931.09436,-0.00969
4933.02283,-0.00250
4934.95130,0.00990
4936.87977,0.01354
4938.80824,0.00574
4940.73670,-0.00323
4942.66517,0.00192
4944.59364,0.00991
4946.52211,0.00657
4948.45058,0.00432
4950.37905,0.00966
4952.30752,0.01392
4954.23599,0.00729
4956.16445,-0.00475
4958.09292,-0.00739
4960.02139,-0.00073
4961.94986,-0.00063
4963.87833,-0.00840
4965.80680,-0.00626
4967.73527,0.00598
4969.66373,0.01612
4971.59220,0.01865
4973.52067,0.01103
4975.44914,0.00233
4977.37761,0.00754
4979.30608,0.02318
4981.23455,0.03782
4983.16302,0.04293
4985.09148,0.03020
4987.01995,0.01393
4988.94842,0.01402
4990.87689,0.02147
4992.80536,0.01830
4994.73383,0.00608
4996.66230,-0.00147
4998.59076,0.00056
5000.51923,0.00929
5002.44770,0.02265
5004.37617,0.03451
5006.30464,0.03760
5008.23311,0.03187
5010.16158,0.02265
5012.09005,0.01368
5014.01851,0.00625
5015.94698,0.00446
5017.87545,0.01197
5019.80392,0.02629
5021.73239,0.03428
5023.66086,0.02798
5025.58933,0.02473
5027.51779,0.02458
5029.44626,0.01566
5031.37473,0.01591
5033.30320,0.02263
5035.23167,0.01457
5037.16014,0.00245
5039.08861,-0.00252
5041.01708,-0.00222
5042.94554,0.01199
5044.87401,0.03014
5046.80248,0.02737
5048.73095,0.01419
5050.65942,0.00660
5052.58789,0.00056
5054.51636,-0.00146
5056.44482,0.00404
5058.37329,0.00672
5060.30176,0.00024
5062.23023,-0.00014
5064.15870,0.01015
5066.08717,0.02052
5068.01564,0.03539
5069.94410,0.04810
5071.87257,0.04153
5073.80104,0.02254
5075.72951,0.00934
5077.65798,0.01486
5079.58645,0.02965
5081.51492,0.03557
5083.44339,0.03086
5085.37185,0.01768
5087.30032,0.00895
5089.22879,0.01595
5091.15726,0.03814
5093.08573,0.06383
5095.01420,0.06772
5096.94267,0.05172
5098.87113,0.03641
5100.79960,0.02586
5102.72807,0.02614
5104.65654,0.03764
5106.58501,0.04436
5108.51348,0.04712
5110.44195,0.05381
5112.37042,0.05109
5114.29888,0.03806
5116.22735,0.03519
5118.15582,0.04113
5120.08429,0.04241
5122.01276,0.04132
5123.94123,0.03256
5125.86970,0.01682
5127.79816,0.01652
5129.72663,0.03461
5131.65510,0.05438
5133.58357,0.05898
5135.51204,0.03972
5137.44051,0.00564
5139.36898,-0.02196
5141.29745,-0.03151
5143.22591,-0.02913
5145.15438,-0.01115
5147.08285,0.02105
5149.01132,0.04041
5150.93979,0.03855
5152.86826,0.03517
5154.79673,0.03091
5156.72519,0.01828
5158.65366,0.02099
5160.58213,0.04274
5162.51060,0.04212
5164.43907,0.01309
5166.36754,0.00116
5168.29601,0.01591
5170.22448,0.03193
5172.15294,0.03417
5174.08141,0.02590
5176.00988,0.02560
5177.93835,0.03619
5179.86682,0.04245
5181.79529,0.03741
5183.72376,0.02544
5185.65222,0.02252
5187.58069,0.02990
5189.50916,0.02978
5191.43763,0.02970
5193.36610,0.04649
5195.29457,0.06846
5197.22304,0.07348
5199.15151,0.05974
5201.07997,0.03826
5203.00844,0.01547
5204.93691,0.00568
5206.86538,0.01355
5208.79385,0.02834
5210.72232,0.04777
5212.65079,0.05236
5214.57925,0.03718
5216.50772,0.02675
5218.43619,0.01919
5220.36466,0.00628
5222.29313,0.00895
5224.22160,0.03466
5226.15007,0.05803
5228.07854,0.06227
5230.00700,0.05788
5231.93547,0.05289
5233.86394,0.05074
5235.79241,0.05305
5237.72088,0.06069
5239.64935,0.07187
5241.57782,0.08046
5243.50628,0.07170
5245.43475,0.04117
5247.36322,0.02140
5249.29169,0.03613
5251.22016,0.05863
5253.14863,0.05992
5255.07710,0.05451
5257.00556,0.06264
5258.93403,0.07175
5260.86250,0.07370
5262.79097,0.08414
5264.71944,0.09872
5266.64791,0.09268
5268.57638,0.08054
5270.50485,0.08071
5272.43331,0.08513
5274.36178,0.08850
5276.29025,0.08527
5278.21872,0.07048
5280.14719,0.05333
5282.07566,0.04349
5284.00413,0.04099
5285.93259,0.04701
5287.86106,0.05386
5289.78953,0.04403
5291.71800,0.02554
5293.64647,0.02728
5295.57494,0.03793
5297.50341,0.02511
5299.43188,0.00373
5301.36034,0.00427
5303.28881,0.02344
5305.21728,0.05217
5307.14575,0.07736
5309.07422,0.07320
5311.00269,0.04554
5312.93116,0.03231
5314.85962,0.03900
5316.78809,0.05386
5318.71656,0.07347
5320.64503,0.08011
5322.57350,0.07108
5324.50197,0.06445
5326.43044,0.06879
5328.35891,0.07298
5330.28737,0.07049
5332.21584,0.06623
5334.14431,0.06358
5336.07278,0.06725
5338.00125,0.06459
5339.92972,0.04945
5341.85819,0.04025
5343.78665,0.04417
5345.71512,0.05470
5347.64359,0.06592
5349.57206,0.08199
5351.50053,0.08280
5353.42900,0.05348
5355.35747,0.04374
5357.28594,0.07176
5359.21440,0.08954
5361.14287,0.08397
5363.07134,0.07549
5364.99981,0.06683
5366.92828,0.05848
5368.85675,0.05923
5370.78522,0.07365
5372.71368,0.09335
5374.64215,0.10267
5376.57062,0.09870
5378.49909,0.08913
5380.42756,0.06866
5382.35603,0.04274
5384.28450,0.04730
5386.21297,0.07233
5388.14143,0.06904
5390.06990,0.06311
5391.99837,0.07847
5393.92684,0.09346
5395.85531,0.09506
5397.78378,0.08097
5399.71225,0.05502
5401.64071,0.04433
5403.56918,0.05717
5405.49765,0.07111
5407.42612,0.07384
5409.35459,0.07260
5411.28306,0.06955
5413.21153,0.04920
5415.13999,0.02770
5417.06846,0.03367
5418.99693,0.04473
5420.92540,0.03828
5422.85387,0.02967
5424.78234,0.03142
5426.71081,0.04211
5428.63928,0.05168
5430.56774,0.04509
5432.49621,0.04029
5434.42468,0.05313
5436.35315,0.07443
5438.28162,0.09102
5440.21009,0.09351
5442.13856,0.10022
5444.06702,0.12989
5445.99549,0.15024
5447.92396,0.13430
5449.85243,0.10419
5451.78090,0.08949
5453.70937,0.08893
5455.63784,0.07646
5457.56631,0.05327
5459.49477,0.04900
5461.42324,0.05674
5463.35171,0.06011
5465.28018,0.06075
5467.20865,0.05530
5469.13712,0.05205
5471.06559,0.07109
5472.99405,0.10085
5474.92252,0.11250
5476.85099,0.09258
5478.77946,0.06137
5480.70793,0.04722
5482.63640,0.04886
5484.56487,0.04856
5486.49334,0.05056
5488.42180,0.06286
5490.35027,0.06369
5492.27874,0.04428
5494.20721,0.02848
5496.13568,0.01993
5498.06415,0.03077
5499.99262,0.06447
5501.92108,0.07833
5503.84955,0.06447
5505.77802,0.04620
5507.70649,0.03712
5509.63496,0.04036
5511.56343,0.03997
5513.49190,0.02710
5515.42037,0.02275
5517.34883,0.04962
5519.27730,0.08089
5521.20577,0.08180
5523.13424,0.07440
5525.06271,0.07928
5526.99118,0.07447
5528.91965,0.05066
5530.84811,0.03003
5532.77658,0.03230
5534.70505,0.05206
5536.63352,0.07463
5538.56199,0.09467
5540.49046,0.11425
5542.41893,0.11866
5544.34740,0.08918
5546.27586,0.05907
5548.20433,0.06733
5550.13280,0.08328
5552.06127,0.07397
5553.98974,0.05557
5555.91821,0.04810
5557.84668,0.06004
5559.77514,0.08710
5561.70361,0.09755
5563.63208,0.07560
5565.56055,0.05614
5567.48902,0.06869
5569.41749,0.08788
5571.34596,0.09397
5573.27443,0.10472
5575.20289,0.10752
5577.13136,0.08403
5579.05983,0.06780
5580.98830,0.07938
5582.91677,0.08825
5584.84524,0.07993
5586.77371,0.07942
5588.70217,0.09427
5590.63064,0.09642
5592.55911,0.07887
5594.48758,0.07700
5596.41605,0.09980
5598.34452,0.10370
5600.27299,0.08184
5602.20145,0.07642
5604.12992,0.07906
5606.05839,0.06367
5607.98686,0.04571
5609.91533,0.04808
5611.84380,0.06790
5613.77227,0.07019
5615.70074,0.04349
5617.62920,0.01431
5619.55767,0.00995
5621.48614,0.04198
5623.41461,0.08802
5625.34308,0.11348
5627.27155,0.10067
5629.20002,0.07452
5631.12848,0.07465
5633.05695,0.08917
5634.98542,0.09357
5636.91389,0.09131
5638.84236,0.09190
5640.77083,0.10628
5642.69930,0.13160
5644.62777,0.14866
5646.55623,0.14323
5648.48470,0.12485
5650.41317,0.11506
5652.34164,0.11341
5654.27011,0.12063
5656.19858,0.12496
5658.12705,0.10668
5660.05551,0.09793
5661.98398,0.10808
5663.91245,0.09834
5665.84092,0.09399
5667.76939,0.11115
5669.69786,0.09721
5671.62633,0.05892
5673.55480,0.05087
5675.48326,0.07467
5677.41173,0.09339
5679.34020,0.09055
5681.26867,0.08305
5683.19714,0.07801
5685.12561,0.07969
5687.05408,0.10053
5688.98254,0.12826
5690.91101,0.14140
5692.83948,0.14614
5694.76795,0.13510
5696.69642,0.09802
5698.62489,0.06714
5700.55336,0.06862
5702.48183,0.09805
5704.41029,0.12084
5706.33876,0.11028
5708.26723,0.09180
5710.19570,0.09499
5712.12417,0.11801
5714.05264,0.13257
5715.98111,0.11479
5717.90957,0.07653
5719.83804,0.04249
5721.76651,0.02238
5723.69498,0.03018
5725.62345,0.05853
5727.55192,0.06551
5729.48039,0.05522
5731.40886,0.06770
5733.33732,0.09720
5735.26579,0.10755
5737.19426,0.10331
5739.12273,0.12075
5741.05120,0.13505
5742.97967,0.11883
5744.90814,0.10924
5746.83660,0.12179
5748.76507,0.13144
5750.69354,0.13730
5752.62201,0.14375
5754.55048,0.14353
5756.47895,0.12897
5758.40742,0.09405
5760.33588,0.06688
5762.26435,0.05400
5764.19282,0.02705
5766.12129,0.02255
5768.04976,0.06980
5769.97823,0.11452
5771.90670,0.10087
5773.83517,0.04875
5775.76363,0.02801
5777.69210,0.04369
5779.62057,0.04326
5781.54904,0.03315
5783.47751,0.04854
5785.40598,0.07749
5787.33445,0.09174
5789.26291,0.08932
5791.19138,0.08726
5793.11985,0.09472
5795.04832,0.09947
5796.97679,0.09689
5798.90526,0.11233
5800.83373,0.13728
5802.76220,0.13260
5804.69066,0.10414
5806.61913,0.07669
5808.54760,0.04533
5810.47607,0.01694
5812.40454,0.01508
5814.33301,0.01458
5816.26148,0.01041
5818.18994,0.04478
5820.11841,0.09228
5822.04688,0.12128
5823.97535,0.11985
5825.90382,0.07231
5827.83229,0.03725
5829.76076,0.04423
5831.68923,0.04083
5833.61769,0.03538
5835.54616,0.06668
5837.47463,0.09372
5839.40310,0.07479
5841.33157,0.02730
5843.26004,-0.00891
5845.18851,0.01062
5847.11697,0.08229
5849.04544,0.14013
5850.97391,0.14022
5852.90238,0.11836
5854.83085,0.10500
5856.75932,0.08084
5858.68779,0.04145
5860.61626,0.02696
5862.54472,0.04468
5864.47319,0.05129
5866.40166,0.03583
5868.33013,0.02323
5870.25860,0.02946
5872.18707,0.04885
5874.11554,0.06321
5876.04400,0.07729
5877.97247,0.09303
5879.90094,0.07557
5881.82941,0.04710
5883.75788,0.06396
5885.68635,0.09407
5887.61482,0.10071
5889.54329,0.10274
5891.47175,0.11046
5893.40022,0.12089
5895.32869,0.11672
5897.25716,0.08334
5899.18563,0.04075
5901.11410,0.01940
5903.04257,0.02187
5904.97103,0.02634
5906.89950,0.03587
5908.82797,0.06010
5910.75644,0.07507
5912.68491,0.08835
5914.61338,0.11715
5916.54185,0.12544
5918.47032,0.12508
5920.39878,0.14591
5922.32725,0.15758
5924.25572,0.15875
5926.18419,0.15709
5928.11266,0.14946
5930.04113,0.14058
5931.96960,0.11959
5933.89806,0.09338
5935.82653,0.07284
5937.75500,0.06407
5939.68347,0.07072
5941.61194,0.06583
5943.54041,0.03818
5945.46888,0.01660
5947.39734,0.01440
5949.32581,0.03085
5951.25428,0.06339
5953.18275,0.08925
5955.11122,0.10922
5957.03969,0.12953
5958.96816,0.12361
5960.89663,0.09772
5962.82509,0.09028
5964.75356,0.10677
5966.68203,0.11923
5968.61050,0.12131
5970.53897,0.12096
5972.46744,0.11189
5974.39591,0.11416
5976.32437,0.11098
5978.25284,0.06936
5980.18131,0.01322
5982.10978,-0.00353
5984.03825,0.04929
5985.96672,0.09816
5987.89519,0.09026
5989.82366,0.09561
5991.75212,0.12584
5993.68059,0.11473
5995.60906,0.06754
5997.53753,0.05482
5999.46600,0.08189
6001.39447,0.10556
6003.32294,0.10350
6005.25140,0.09315
6007.17987,0.09761
6009.10834,0.10382
6011.03681,0.11142
6012.96528,0.11678
6014.89375,0.09274
6016.82222,0.06245
6018.75069,0.08214
6020.67915,0.12636
6022.60762,0.11942
6024.53609,0.07610
6026.46456,0.04102
6028.39303,0.01223
6030.32150,0.00856
6032.24997,0.03388
6034.17843,0.04461
6036.10690,0.03817
6038.03537,0.04637
6039.96384,0.06010
6041.89231,0.05993
6043.82078,0.05582
6045.74925,0.06031
6047.67772,0.06347
6049.60618,0.06355
6051.53465,0.09820
6053.46312,0.13705
6055.39159,0.09619
6057.32006,0.05452
6059.24853,0.10112
6061.17700,0.12327
6063.10546,0.07810
6065.03393,0.06964
6066.96240,0.09597
6068.89087,0.10212
6070.81934,0.09626
6072.74781,0.08663
6074.67628,0.07315
6076.60475,0.05934
6078.53321,0.05606
6080.46168,0.08189
6082.39015,0.10875
6084.31862,0.10103
6086.24709,0.05589
6088.17556,-0.00315
6090.10403,-0.01662
6092.03249,0.03876
6093.96096,0.11430
6095.88943,0.14913
6097.81790,0.12445
6099.74637,0.08725
6101.67484,0.07578
6103.60331,0.06943
6105.53177,0.06040
6107.46024,0.04896
6109.38871,0.04229
6111.31718,0.05861
6113.24565,0.06578
6115.17412,0.04386
6117.10259,0.04802
6119.03106,0.11570
6120.95952,0.15520
6122.88799,0.10280
6124.81646,0.03851
6126.74493,0.03771
6128.67340,0.06514
6130.60187,0.04246
6132.53034,-0.01437
6134.45880,-0.04123
6136.38727,-0.02677
6138.31574,0.00192
6140.24421,0.00816
6142.17268,-0.00114
6144.10115,0.00989
6146.02962,0.01813
6147.95809,0.01584
6149.88655,0.02859
6151.81502,0.03361
6153.74349,0.00950
6155.67196,-0.01831
6157.60043,-0.01568
6159.52890,0.03951
6161.45737,0.11042
6163.38583,0.14439
6165.31430,0.13915
6167.24277,0.11968
6169.17124,0.11853
6171.09971,0.13289
6173.02818,0.12574
6174.95665,0.09348
6176.88512,0.05959
6178.81358,0.06781
6180.74205,0.12841
6182.67052,0.17741
6184.59899,0.16795
6186.52746,0.09408
6188.45593,0.00994
6190.38440,0.00546
6192.31286,0.05226
6194.24133,0.08252
6196.16980,0.09090
6198.09827,0.09441
6200.02674,0.09618
6201.95521,0.09292
6203.88368,0.08599
6205.81215,0.07000
6207.74061,0.04086
6209.66908,0.02762
6211.59755,0.05497
6213.52602,0.07791
6215.45449,0.06643
6217.38296,0.05764
6219.31143,0.05589
6221.23989,0.03106
6223.16836,0.02031
6225.09683,0.05136
6227.02530,0.06078
6228.95377,0.02939
6230.88224,0.01986
6232.81071,0.04491
6234.73918,0.03367
6236.66764,-0.01885
6238.59611,-0.04063
6240.52458,-0.00380
6242.45305,0.04785
6244.38152,0.05789
6246.30999,0.03044
6248.23846,0.03469
6250.16692,0.09719
6252.09539,0.16317
6254.02386,0.17359
6255.95233,0.12012
6257.88080,0.05610
6259.80927,0.04191
6261.73774,0.08169
6263.66621,0.12277
6265.59467,0.12716
6267.52314,0.13452
6269.45161,0.13080
6271.38008,0.09378
6273.30855,0.07902
6275.23702,0.08552
6277.16549,0.05618
6279.09395,0.00107
6281.02242,-0.02286
6282.95089,0.01593
6284.87936,0.05353
6286.80783,0.05369
6288.73630,0.06827
6290.66477,0.08147
6292.59323,0.05116
6294.52170,0.02595
6296.45017,0.05474
6298.37864,0.08806
6300.30711,0.07755
6302.23558,0.06099
6304.16405,0.03262
6306.09252,-0.04083
6308.02098,-0.06472
6309.94945,0.01927
6311.87792,0.09550
6313.80639,0.10994
6315.73486,0.11318
6317.66333,0.11125
6319.59180,0.09581
6321.52026,0.07081
6323.44873,0.05680
6325.37720,0.03688
6327.30567,0.00374
6329.23414,0.01178
6331.16261,0.05767
6333.09108,0.09965
6335.01955,0.10000
6336.94801,0.05612
6338.87648,0.04017
6340.80495,0.06579
6342.73342,0.06104
6344.66189,0.01277
6346.59036,-0.00517
6348.51883,0.04303
6350.44729,0.08851
6352.37576,0.05432
6354.30423,-0.02263
6356.23270,-0.04204
6358.16117,0.01658
6360.08964,0.08981
6362.01811,0.13029
6363.94658,0.10806
6365.87504,0.03983
6367.80351,0.00433
6369.73198,0.00415
6371.66045,0.01030
6373.58892,0.03114
6375.51739,0.05796
6377.44586,0.08327
6379.37432,0.09210
6381.30279,0.06206
6383.23126,0.02179
6385.15973,0.05564
6387.08820,0.12600
6389.01667,0.12128
6390.94514,0.07957
6392.87361,0.08691
6394.80207,0.07257
6396.73054,0.00420
6398.65901,-0.01656
6400.58748,0.03384
6402.51595,0.07386
6404.44442,0.10451
6406.37289,0.15893
6408.30135,0.15499
6410.22982,0.08810
6412.15829,0.06716
6414.08676,0.10721
6416.01523,0.15419
6417.94370,0.11719
6419.87217,-0.01560
6421.80064,-0.07099
6423.72910,-0.05439
6425.65757,-0.08762
6427.58604,-0.11694
6429.51451,-0.08624
6431.44298,-0.00809
6433.37145,0.11718
6435.29992,0.19967
6437.22838,0.18361
6439.15685,0.13222
6441.08532,0.07690
6443.01379,0.04736
6444.94226,0.10482
6446.87073,0.18054
6448.79920,0.21068
6450.72766,0.21403
6452.65613,0.18326
6454.58460,0.12591
6456.51307,0.08286
6458.44154,0.07163
6460.37001,0.09650
6462.29848,0.13676
6464.22695,0.12339
6466.15541,0.04428
6468.08388,-0.02999
6470.01235,-0.06427
6471.94082,-0.07167
6473.86929,-0.04825
6475.79776,0.00160
6477.72623,0.07165
6479.65469,0.14205
6481.58316,0.16618
6483.51163,0.17435
6485.44010,0.18943
6487.36857,0.15528
6489.29704,0.10133
6491.22551,0.10469
6493.15398,0.10376
6495.08244,0.01646
6497.01091,-0.07015
6498.93938,-0.04735
6500.86785,0.04887
6502.79632,0.07120
6504.72479,0.00355
6506.65326,-0.06346
6508.58172,-0.08721
6510.51019,-0.05374
6512.43866,0.01897
6514.36713,0.10718
6516.29560,0.17289
6518.22407,0.15356
6520.15254,0.09660
6522.08101,0.09822
6524.00947,0.14586
6525.93794,0.13934
6527.86641,0.08567
6529.79488,0.10355
6531.72335,0.21805
6533.65182,0.27969
6535.58029,0.21037
6537.50875,0.11597
6539.43722,0.04817
6541.36569,0.02742
6543.29416,0.07604
6545.22263,0.12670
6547.15110,0.14693
6549.07957,0.14815
6551.00804,0.13227
6552.93650,0.12782
6554.86497,0.09454
6556.79344,-0.00370
6558.72191,-0.05099
6560.65038,0.01483
6562.57885,0.10360
6564.50732,0.14794
6566.43578,0.11576
6568.36425,0.04689
6570.29272,0.02698
6572.22119,0.03938
6574.14966,0.03181
6576.07813,0.03170
6578.00660,0.04728
6579.93507,0.05482
6581.86353,0.05781
6583.79200,0.04141
6585.72047,0.03592
6587.64894,0.07531
6589.57741,0.12101
6591.50588,0.15701
6593.43435,0.16929
6595.36281,0.10847
6597.29128,0.02799
6599.21975,0.01790
6601.14822,0.03878
6603.07669,0.06172
6605.00516,0.14074
6606.93363,0.18615
6608.86210,0.13710
6610.79056,0.08681
6612.71903,0.05396
6614.64750,0.05696
6616.57597,0.11562
6618.50444,0.15404
6620.43291,0.13873
6622.36138,0.09551
6624.28984,0.09077
6626.21831,0.13243
6628.14678,0.13927
6630.07525,0.09280
6632.00372,0.04038
6633.93219,0.00939
6635.86066,0.01779
6637.78912,0.05606
6639.71759,0.10532
6641.64606,0.16930
6643.57453,0.18846
6645.50300,0.12856
6647.43147,0.10349
6649.35994,0.13058
6651.28841,0.11551
6653.21687,0.04842
6655.14534,0.00083
6657.07381,0.03757
6659.00228,0.07950
6660.93075,0.06687
6662.85922,0.05569
6664.78769,0.06258
6666.71615,0.05170
6668.64462,-0.02181
6670.57309,-0.09893
6672.50156,-0.04706
6674.43003,0.12587
6676.35850,0.25839
6678.28697,0.26506
6680.21544,0.22399
6682.14390,0.20021
6684.07237,0.12366
6686.00084,0.00536
6687.92931,-0.01221
6689.85778,0.04319
6691.78625,0.03955
6693.71472,0.01020
6695.64318,0.00809
6697.57165,0.07103
6699.50012,0.17598
6701.42859,0.21653
6703.35706,0.18218
6705.28553,0.14248
6707.21400,0.11371
6709.14247,0.10489
6711.07093,0.11080
6712.99940,0.09723
6714.92787,0.07733
6716.85634,0.09956
6718.78481,0.13926
6720.71328,0.15378
6722.64175,0.16491
6724.57021,0.14301
6726.49868,0.08917
6728.42715,0.07251
6730.35562,0.11251
6732.28409,0.18495
6734.21256,0.18425
6736.14103,0.07406
6738.06950,0.01146
6739.99796,0.03868
6741.92643,0.05846
6743.85490,0.03759
6745.78337,-0.00731
6747.71184,-0.07003
6749.64031,-0.12058
6751.56878,-0.11012
6753.49724,-0.05301
6755.42571,-0.02461
6757.35418,-0.01977
6759.28265,0.03189
6761.21112,0.10642
6763.13959,0.10486
6765.06806,0.06002
6766.99653,0.05602
6768.92499,0.07514
6770.85346,0.04816
6772.78193,0.00227
6774.71040,0.01761
6776.63887,0.05588
6778.56734,0.03398
6780.49581,-0.02500
6782.42427,-0.07604
6784.35274,-0.10753
6786.28121,-0.12694
6788.20968,-0.13628
6790.13815,-0.13170
6792.06662,-0.06037
6793.99509,0.08931
6795.92355,0.17067
6797.85202,0.14112
6799.78049,0.12544
6801.70896,0.08158
6803.63743,-0.03935
6805.56590,-0.02672
6807.49437,0.15186
6809.42284,0.26603
6811.35130,0.15992
6813.27977,0.00305
6815.20824,0.00558
6817.13671,0.05158
6819.06518,0.06973
6820.99365,0.12814
6822.92212,0.20582
6824.85058,0.22310
6826.77905,0.17706
6828.70752,0.10088
6830.63599,0.06599
6832.56446,0.08908
6834.49293,0.09830
6836.42140,0.10563
6838.34987,0.15321
6840.27833,0.19069
6842.20680,0.19072
6844.13527,0.17769
6846.06374,0.13090
6847.99221,-0.01385
6849.92068,-0.10773
6851.84915,0.00790
6853.77761,0.09677
6855.70608,0.01461
6857.63455,-0.05285
6859.56302,-0.02300
6861.49149,0.04348
6863.41996,0.07934
6865.34843,-0.00105
6867.27690,-0.10915
6869.20536,-0.10146
6871.13383,-0.04044
6873.06230,0.00220
6874.99077,0.04701
6876.91924,0.09705
6878.84771,0.14334
6880.77618,0.20554
6882.70464,0.23981
6884.63311,0.19469
6886.56158,0.11632
6888.49005,0.07419
6890.41852,0.07306
6892.34699,0.05112
6894.27546,-0.05101
6896.20393,-0.17652
6898.13239,-0.18628
6900.06086,-0.10344
6901.98933,-0.04946
6903.91780,0.00133
6905.84627,0.06967
6907.77474,0.07912
6909.70321,0.09848
6911.63167,0.20579
6913.56014,0.25043
6915.48861,0.21318
6917.41708,0.22997
6919.34555,0.21688
6921.27402,0.09415
6923.20249,-0.02429
6925.13096,-0.04559
6927.05942,0.01447
6928.98789,0.08350
6930.91636,0.11287
6932.84483,0.10921
6934.77330,0.08200
6936.70177,0.02312
6938.63024,0.01684
6940.55870,0.13745
6942.48717,0.20964
6944.41564,0.11799
6946.34411,-0.03689
6948.27258,-0.13122
6950.20105,-0.17630
6952.12952,-0.20094
6954.05799,-0.12240
6955.98645,0.01786
6957.91492,0.02926
6959.84339,-0.01964
6961.77186,0.05328
6963.70033,0.17456
6965.62880,0.15949
6967.55727,0.05472
6969.48573,0.07609
6971.41420,0.24958
6973.34267,0.30965
6975.27114,0.08019
6977.19961,-0.15716
6979.12808,-0.12029
6981.05655,0.07524
6982.98501,0.11672
6984.91348,-0.06789
6986.84195,-0.16912
6988.77042,-0.06134
6990.69889,0.05249
6992.62736,0.03851
6994.55583,0.00290
6996.48430,0.08943
6998.41276,0.26526
7000.34123,0.35689
7002.26970,0.27439
7004.19817,0.11568
7006.12664,0.03871
7008.05511,0.09071
7009.98358,0.18731
7011.91204,0.20623
7013.84051,0.09879
7015.76898,0.04431
7017.69745,0.07880
7019.62592,0.02836
7021.55439,-0.09329
7023.48286,-0.14753
7025.41133,-0.04801
7027.33979,0.12424
7029.26826,0.20728
7031.19673,0.23360
7033.12520,0.25783
7035.05367,0.22231
7036.98214,0.09853
7038.91061,-0.06057
7040.83907,-0.12292
7042.76754,-0.00025
7044.69601,0.17441
7046.62448,0.18968
7048.55295,0.11448
7050.48142,0.16238
7052.40989,0.26077
7054.33836,0.24896
7056.26682,0.13241
7058.19529,-0.02975
7060.12376,-0.08767
7062.05223,0.03180
7063.98070,0.13681
7065.90917,0.07807
7067.83764,0.00712
7069.76610,0.07647
7071.69457,0.24767
7073.62304,0.33156
7075.55151,0.29357
7077.47998,0.15338
7079.40845,-0.04887
7081.33692,-0.14480
7083.26539,-0.08514
7085.19385,0.02885
7087.12232,0.16887
7089.05079,0.28597
7090.97926,0.29244
7092.90773,0.15833
7094.83620,-0.00149
7096.76467,-0.08802
7098.69313,-0.04302
7100.62160,0.10731
7102.55007,0.22163
7104.47854,0.21860
7106.40701,0.11984
7108.33548,0.03403
7110.26395,-0.04135
7112.19242,-0.11731
7114.12088,-0.08876
7116.04935,0.05119
7117.97782,0.18219
7119.90629,0.27728
7121.83476,0.30238
7123.76323,0.16308
7125.69170,-0.00533
7127.62016,-0.02631
7129.54863,0.00874
7131.47710,-0.00835
7133.40557,0.03201
7135.33404,0.15052
7137.26251,0.22988
7139.19098,0.22471
7141.11944,0.10205
7143.04791,-0.05970
7144.97638,-0.05831
7146.90485,0.10710
7148.83332,0.23208
7150.76179,0.26603
7152.69026,0.23246
7154.61873,0.13844
7156.54719,0.02107
7158.47566,-0.01243
7160.40413,0.06667
7162.33260,0.08413
7164.26107,0.00294
7166.18954,0.02959
7168.11801,0.08568
7170.04647,0.05620
7171.97494,0.17679
7173.90341,0.39309
7175.83188,0.41788
7177.76035,0.28694
7179.68882,0.25854
7181.61729,0.35093
7183.54576,0.34039
7185.47422,0.15784
7187.40269,0.01897
7189.33116,0.03478
7191.25963,0.09113
7193.18810,0.03202
7195.11657,-0.00880
7197.04504,0.02438
7198.97350,0.03031
7200.90197,0.01827
7202.83044,0.06397
7204.75891,0.09296
7206.68738,0.02865
7208.61585,0.04000
7210.54432,0.08988
7212.47279,0.09565
7214.40125,0.13372
7216.32972,0.23148
7218.25819,0.16361
7220.18666,-0.05929
7222.11513,-0.14206
7224.04360,-0.10194
7225.97207,-0.03106
7227.90053,0.00782
7229.82900,0.03467
7231.75747,0.11700
7233.68594,0.17170
7235.61441,0.16556
7237.54288,0.20600
7239.47135,0.31677
7241.39982,0.29370
7243.32828,0.04001
7245.25675,-0.11017
7247.18522,-0.05940
7249.11369,0.04271
7251.04216,0.14390
7252.97063,0.16247
7254.89910,0.03438
7256.82756,-0.06725
7258.75603,-0.06433
7260.68450,0.02315
7262.61297,0.04468
7264.54144,-0.10334
7266.46991,-0.29278
7268.39838,-0.29991
7270.32685,0.05686
7272.25531,0.52390
7274.18378,0.57853
7276.11225,0.46933
7278.04072,0.39756
7279.96919,0.36892
7281.89766,0.45988
7283.82613,0.51230
7285.75459,0.41914
7287.68306,0.29081
7289.61153,0.26731
7291.54000,0.35045
7293.46847,0.28315
7295.39694,0.09989
7297.32541,0.08972
7299.25387,0.20772
7301.18234,0.28351
7303.11081,0.20612
7305.03928,0.09916
7306.96775,0.11943
7308.89622,-0.02548
7310.82469,-0.29061
7312.75316,-0.29964
7314.68162,-0.14575
7316.61009,0.04403
7318.53856,0.15768
7320.46703,0.14989
7322.39550,0.11585
7324.32397,0.20366
7326.25244,0.27763
7328.18090,0.14404
7330.10937,-0.00129
7332.03784,0.00182
7333.96631,0.01830
7335.89478,0.07881
7337.82325,0.23426
7339.75172,0.37254
7341.68019,0.28530
7343.60865,0.17328
7345.53712,0.19183
7347.46559,0.31588
7349.39406,0.40983
7351.32253,0.39417
7353.25100,0.30894
7355.17947,0.22918
7357.10793,0.17541
7359.03640,0.07109
7360.96487,0.02285
7362.89334,0.20806
7364.82181,0.34069
7366.75028,0.23301
7368.67875,0.11186
7370.60722,0.05126
7372.53568,-0.06156
7374.46415,-0.18037
7376.39262,-0.07063
7378.32109,0.18417
7380.24956,0.34378
7382.17803,0.33299
7384.10650,0.26216
7386.03496,0.12150
7387.96343,-0.07883
7389.89190,-0.03736
7391.82037,0.21872
7393.74884,0.39959
7395.67731,0.35840
7397.60578,0.25592
7399.53425,0.22998
7401.46271,0.19653
7403.39118,0.12225
7405.31965,0.01154
7407.24812,-0.08107
7409.17659,-0.06103
7411.10506,0.05086
7413.03353,0.12342
7414.96199,0.16526
7416.89046,0.15737
7418.81893,0.00079
7420.74740,-0.02551
7422.67587,0.18270
7424.60434,0.28313
7426.53281,0.14182
7428.46128,-0.20643
7430.38974,-0.48568
7432.31821,-0.38506
7434.24668,-0.15690
7436.17515,-0.06249
7438.10362,-0.10724
7440.03209,-0.13218
7441.96056,-0.03143
7443.88902,0.09889
7445.81749,0.15086
7447.74596,0.13427
7449.67443,0.08698
7451.60290,0.02277
7453.53137,0.00773
7455.45984,0.12782
7457.38831,0.28226
7459.31677,0.37084
7461.24524,0.41196
7463.17371,0.37854
7465.10218,0.27545
7467.03065,0.19262
7468.95912,0.07747
7470.88759,-0.11162
7472.81605,-0.21141
7474.74452,-0.14538
7476.67299,-0.04080
7478.60146,-0.03248
7480.52993,-0.08114
7482.45840,0.05174
7484.38687,0.32415
7486.31533,0.46607
7488.24380,0.41686
7490.17227,0.34886
7492.10074,0.29856
7494.02921,0.20861
7495.95768,0.12457
7497.88615,0.05693
