399.19301,1.94441
401.12148,-0.32323
403.04995,-0.47922
404.97842,-0.36229
406.90689,-0.28227
408.83536,-0.15939
410.76382,-0.07186
412.69229,-0.17132
414.62076,-0.26331
416.54923,-0.17321
418.47770,0.08153
420.40617,0.21490
422.33464,0.13155
424.26311,0.02950
426.19157,-0.00222
428.12004,-0.00398
430.04851,-0.00890
431.97698,0.04857
433.90545,0.12350
435.83392,0.13267
437.76239,0.14583
439.69085,0.19997
441.61932,0.21468
443.54779,0.20088
445.47626,0.25144
447.40473,0.30067
449.33320,0.29046
451.26167,0.24211
453.19013,0.18450
455.11860,0.13576
457.04707,0.15099
458.97554,0.23416
460.90401,0.25780
462.83248,0.22445
464.76095,0.22392
466.68942,0.22232
468.61788,0.16591
470.54635,0.12565
472.47482,0.14285
474.40329,0.16581
476.33176,0.17428
478.26023,0.17391
480.18870,0.16972
482.11716,0.17982
484.04563,0.18431
485.97410,0.17204
487.90257,0.17813
489.83104,0.16643
491.75951,0.13025
493.68798,0.16383
495.61645,0.24482
497.54491,0.24732
499.47338,0.19194
501.40185,0.16607
503.33032,0.16297
505.25879,0.14786
507.18726,0.12001
509.11573,0.10774
511.04419,0.10916
512.97266,0.10203
514.90113,0.07876
516.82960,0.06817
518.75807,0.10812
520.68654,0.16522
522.61501,0.18722
524.54348,0.13779
526.47194,0.07317
528.40041,0.08094
530.32888,0.11936
532.25735,0.11633
534.18582,0.10656
536.11429,0.14173
538.04276,0.15606
539.97122,0.12515
541.89969,0.11003
543.82816,0.11637
545.75663,0.10346
547.68510,0.08455
549.61357,0.19933
551.54204,0.68620
553.47051,1.22313
555.39897,1.07391
557.32744,0.46117
559.25591,0.14948
561.18438,0.13456
563.11285,0.15702
565.04132,0.14916
566.96979,0.11737
568.89825,0.10236
570.82672,0.09556
572.75519,0.07870
574.68366,0.06437
576.61213,0.07539
578.54060,0.11269
580.46907,0.14382
582.39754,0.15204
584.32600,0.15434
586.25447,0.15412
588.18294,0.16073
590.11141,0.18622
592.03988,0.20652
593.96835,0.19737
595.89682,0.16236
597.82528,0.11701
599.75375,0.08542
601.68222,0.06770
603.61069,0.03615
605.53916,0.00885
607.46763,0.03367
609.39610,0.09914
611.32456,0.14777
613.25303,0.15609
615.18150,0.14423
617.10997,0.13839
619.03844,0.14999
620.96691,0.15544
622.89538,0.14061
624.82385,0.12390
626.75231,0.11810
628.68078,0.12047
630.60925,0.12604
632.53772,0.13560
634.46619,0.14108
636.39466,0.13823
638.32313,0.14033
640.25159,0.15016
642.18006,0.15838
644.10853,0.16627
646.03700,0.16542
647.96547,0.15073
649.89394,0.14697
651.82241,0.15206
653.75088,0.14380
655.67934,0.12873
657.60781,0.11706
659.53628,0.11566
661.46475,0.13087
663.39322,0.14757
665.32169,0.15279
667.25016,0.15834
669.17862,0.15199
671.10709,0.12019
673.03556,0.10816
674.96403,0.12540
676.89250,0.13952
678.82097,0.13113
680.74944,0.11390
682.67791,0.10587
684.60637,0.10993
686.53484,0.11131
688.46331,0.11357
690.39178,0.12538
692.32025,0.13095
694.24872,0.13659
696.17719,0.14388
698.10565,0.12887
700.03412,0.11255
701.96259,0.11785
703.89106,0.12301
705.81953,0.12200
707.74800,0.13000
709.67647,0.14636
711.60494,0.15254
713.53340,0.13883
715.46187,0.12497
717.39034,0.12478
719.31881,0.12801
721.24728,0.13122
723.17575,0.14108
725.10422,0.15590
727.03268,0.16691
728.96115,0.16390
730.88962,0.14407
732.81809,0.12250
734.74656,0.12044
736.67503,0.13538
738.60350,0.14736
740.53197,0.15377
742.46043,0.15529
744.38890,0.14307
746.31737,0.13342
748.24584,0.14569
750.17431,0.16790
752.10278,0.17924
754.03125,0.17290
755.95971,0.15965
757.88818,0.14341
759.81665,0.12306
761.74512,0.11215
763.67359,0.11494
765.60206,0.12153
767.53053,0.12720
769.45900,0.13528
771.38746,0.14514
773.31593,0.14717
775.24440,0.13982
777.17287,0.13202
779.10134,0.12731
781.02981,0.11870
782.95828,0.11122
784.88674,0.11935
786.81521,0.13708
788.74368,0.15010
790.67215,0.15646
792.60062,0.15536
794.52909,0.14043
796.45756,0.12481
798.38602,0.12635
800.31449,0.13223
802.24296,0.13531
804.17143,0.14492
806.09990,0.15198
808.02837,0.14798
809.95684,0.14179
811.88531,0.13835
813.81377,0.14368
815.74224,0.15689
817.67071,0.15573
819.59918,0.14090
821.52765,0.13549
823.45612,0.14333
825.38459,0.15187
827.31305,0.14793
829.24152,0.13724
831.16999,0.13330
833.09846,0.13675
835.02693,0.13931
836.95540,0.13099
838.88387,0.12587
840.81234,0.14100
842.74080,0.15880
844.66927,0.16150
846.59774,0.15288
848.52621,0.14357
850.45468,0.14299
852.38315,0.14982
854.31162,0.15271
856.24008,0.14768
858.16855,0.14680
860.09702,0.15324
862.02549,0.15403
863.95396,0.14713
865.88243,0.13748
867.81090,0.12708
869.73937,0.12727
871.66783,0.14032
873.59630,0.14906
875.52477,0.15085
877.45324,0.15225
879.38171,0.15129
881.31018,0.15098
883.23865,0.15234
885.16711,0.14780
887.09558,0.13774
889.02405,0.13409
890.95252,0.13579
892.88099,0.13213
894.80946,0.13223
896.73793,0.14191
898.66640,0.14420
900.59486,0.13345
902.52333,0.12156
904.45180,0.11905
906.38027,0.12891
908.30874,0.14469
910.23721,0.15673
912.16568,0.15767
914.09414,0.15026
916.02261,0.14586
917.95108,0.14316
919.87955,0.13803
921.80802,0.13668
923.73649,0.13671
925.66496,0.13553
927.59343,0.13869
929.52189,0.14243
931.45036,0.14499
933.37883,0.14955
935.30730,0.14995
937.23577,0.14506
939.16424,0.14243
941.09271,0.14211
943.02117,0.13860
944.94964,0.13201
946.87811,0.12709
948.80658,0.12903
950.73505,0.13760
952.66352,0.14813
954.59199,0.15608
956.52045,0.15744
958.44892,0.15352
960.37739,0.14639
962.30586,0.14428
964.23433,0.15362
966.16280,0.16111
968.09127,0.15899
970.01974,0.15221
971.94820,0.14810
973.87667,0.14966
975.80514,0.14858
977.73361,0.14411
979.66208,0.14651
981.59055,0.15571
983.51902,0.15695
985.44748,0.14882
987.37595,0.14609
989.30442,0.14951
991.23289,0.14922
993.16136,0.14733
995.08983,0.15042
997.01830,0.15208
998.94677,0.14741
1000.87523,0.14126
1002.80370,0.14120
1004.73217,0.15390
1006.66064,0.16942
1008.58911,0.17435
1010.51758,0.17252
1012.44605,0.16770
1014.37451,0.15871
1016.30298,0.15241
1018.23145,0.15257
1020.15992,0.15334
1022.08839,0.15535
1024.01686,0.15824
1025.94533,0.14698
1027.87380,0.11970
1029.80226,0.10805
1031.73073,0.12865
1033.65920,0.14801
1035.58767,0.14363
1037.51614,0.13537
1039.44461,0.13798
1041.37308,0.14408
1043.30154,0.14646
1045.23001,0.14777
1047.15848,0.15066
1049.08695,0.15132
1051.01542,0.14928
1052.94389,0.14941
1054.87236,0.15426
1056.80083,0.16096
1058.72929,0.16628
1060.65776,0.17043
1062.58623,0.17238
1064.51470,0.17075
1066.44317,0.17261
1068.37164,0.18129
1070.30011,0.18702
1072.22857,0.18327
1074.15704,0.17532
1076.08551,0.17048
1078.01398,0.16661
1079.94245,0.15972
1081.87092,0.15009
1083.79939,0.14442
1085.72786,0.15167
1087.65632,0.16384
1089.58479,0.16963
1091.51326,0.16860
1093.44173,0.16841
1095.37020,0.17362
1097.29867,0.17262
1099.22714,0.16823
1101.15560,0.17216
1103.08407,0.17142
1105.01254,0.16490
1106.94101,0.16383
1108.86948,0.15680
1110.79795,0.14464
1112.72642,0.14820
1114.65489,0.16501
1116.58335,0.17521
1118.51182,0.17520
1120.44029,0.17087
1122.36876,0.15928
1124.29723,0.14757
1126.22570,0.14847
1128.15417,0.15337
1130.08263,0.15200
1132.01110,0.15146
1133.93957,0.15586
1135.86804,0.15973
1137.79651,0.16042
1139.72498,0.15503
1141.65345,0.14436
1143.58191,0.14044
1145.51038,0.15140
1147.43885,0.16810
1149.36732,0.17411
1151.29579,0.16825
1153.22426,0.16363
1155.15273,0.16679
1157.08120,0.17302
1159.00966,0.17665
1160.93813,0.17387
1162.86660,0.16440
1164.79507,0.15839
1166.72354,0.16026
1168.65201,0.16192
1170.58048,0.16239
1172.50894,0.16400
1174.43741,0.16481
1176.36588,0.16498
1178.29435,0.16461
1180.22282,0.16231
1182.15129,0.15673
1184.07976,0.15099
1186.00823,0.15135
1187.93669,0.15519
1189.86516,0.15671
1191.79363,0.15595
1193.72210,0.15587
1195.65057,0.15894
1197.57904,0.16376
1199.50751,0.17009
1201.43597,0.17607
1203.36444,0.17583
1205.29291,0.17112
1207.22138,0.16753
1209.14985,0.16510
1211.07832,0.16240
1213.00679,0.16065
1214.93526,0.16229
1216.86372,0.16624
1218.79219,0.16852
1220.72066,0.16860
1222.64913,0.16665
1224.57760,0.16417
1226.50607,0.16538
1228.43454,0.16798
1230.36300,0.16903
1232.29147,0.17006
1234.21994,0.17022
1236.14841,0.16996
1238.07688,0.17130
1240.00535,0.17155
1241.93382,0.16617
1243.86229,0.15895
1245.79075,0.15893
1247.71922,0.16526
1249.64769,0.17030
1251.57616,0.17015
1253.50463,0.16725
1255.43310,0.16684
1257.36157,0.16911
1259.29003,0.17011
1261.21850,0.16894
1263.14697,0.17034
1265.07544,0.17573
1267.00391,0.17857
1268.93238,0.17634
1270.86085,0.17360
1272.78932,0.17435
1274.71778,0.17713
1276.64625,0.17890
1278.57472,0.17833
1280.50319,0.17300
1282.43166,0.16634
1284.36013,0.16541
1286.28860,0.16757
1288.21706,0.16683
1290.14553,0.16537
1292.07400,0.16565
1294.00247,0.16596
1295.93094,0.16661
1297.85941,0.16884
1299.78788,0.17029
1301.71634,0.16693
1303.64481,0.16070
1305.57328,0.15727
1307.50175,0.15964
1309.43022,0.16640
1311.35869,0.17162
1313.28716,0.17237
1315.21563,0.17162
1317.14409,0.17318
1319.07256,0.17643
1321.00103,0.17750
1322.92950,0.17702
1324.85797,0.17682
1326.78644,0.17631
1328.71491,0.17507
1330.64337,0.17310
1332.57184,0.17244
1334.50031,0.17303
1336.42878,0.17355
1338.35725,0.17716
1340.28572,0.17909
1342.21419,0.17710
1344.14266,0.18184
1346.07112,0.18856
1347.99959,0.18650
1349.92806,0.18041
1351.85653,0.17480
1353.78500,0.16910
1355.71347,0.16685
1357.64194,0.16956
1359.57040,0.17642
1361.49887,0.18389
1363.42734,0.18325
1365.35581,0.17794
1367.28428,0.17704
1369.21275,0.17918
1371.14122,0.18186
1373.06969,0.18509
1374.99815,0.18431
1376.92662,0.17920
1378.85509,0.17739
1380.78356,0.17923
1382.71203,0.18105
1384.64050,0.18329
1386.56897,0.18630
1388.49743,0.18691
1390.42590,0.18390
1392.35437,0.18164
1394.28284,0.18436
1396.21131,0.18958
1398.13978,0.19077
1400.06825,0.18515
1401.99672,0.17750
1403.92518,0.17379
1405.85365,0.17389
1407.78212,0.17634
1409.71059,0.17908
1411.63906,0.18114
1413.56753,0.18625
1415.49600,0.19555
1417.42446,0.20415
1419.35293,0.20130
1421.28140,0.18987
1423.20987,0.18234
1425.13834,0.17827
1427.06681,0.17701
1428.99528,0.17884
1430.92375,0.18095
1432.85221,0.18182
1434.78068,0.18295
1436.70915,0.18226
1438.63762,0.17811
1440.56609,0.17483
1442.49456,0.17475
1444.42303,0.17827
1446.35149,0.18214
1448.27996,0.18403
1450.20843,0.18652
1452.13690,0.19171
1454.06537,0.20299
1455.99384,0.22463
1457.92231,0.23302
1459.85077,0.21487
1461.77924,0.20598
1463.70771,0.20832
1465.63618,0.20699
1467.56465,0.20062
1469.49312,0.20220
1471.42159,0.21367
1473.35006,0.22157
1475.27852,0.21434
1477.20699,0.20156
1479.13546,0.19241
1481.06393,0.18953
1482.99240,0.18833
1484.92087,0.18902
1486.84934,0.19642
1488.77780,0.21088
1490.70627,0.21570
1492.63474,0.20576
1494.56321,0.20095
1496.49168,0.20635
1498.42015,0.20896
1500.34862,0.20095
1502.27709,0.19054
1504.20555,0.19080
1506.13402,0.21651
1508.06249,0.23522
1509.99096,0.21820
1511.91943,0.20616
1513.84790,0.20794
1515.77637,0.21936
1517.70483,0.22709
1519.63330,0.22905
1521.56177,0.23702
1523.49024,0.23927
1525.41871,0.22999
1527.34718,0.21596
1529.27565,0.20648
1531.20412,0.21078
1533.13258,0.22196
1535.06105,0.22001
1536.98952,0.21704
1538.91799,0.23280
1540.84646,0.25227
1542.77493,0.23926
1544.70340,0.21557
1546.63186,0.20008
1548.56033,0.19815
1550.48880,0.20043
1552.41727,0.20052
1554.34574,0.20452
1556.27421,0.21937
1558.20268,0.24281
1560.13115,0.22768
1562.05961,0.20418
1563.98808,0.19836
1565.91655,0.19965
1567.84502,0.20487
1569.77349,0.20651
1571.70196,0.19928
1573.63043,0.19626
1575.55889,0.19941
1577.48736,0.19742
1579.41583,0.18863
1581.34430,0.18157
1583.27277,0.17918
1585.20124,0.18001
1587.12971,0.18250
1589.05818,0.18506
1590.98664,0.18604
1592.91511,0.18650
1594.84358,0.18609
1596.77205,0.18288
1598.70052,0.17915
1600.62899,0.17903
1602.55746,0.18191
1604.48592,0.18239
1606.41439,0.17974
1608.34286,0.17751
1610.27133,0.17844
1612.19980,0.18429
1614.12827,0.19328
1616.05674,0.20086
1617.98521,0.19967
1619.91367,0.19824
1621.84214,0.20393
1623.77061,0.20679
1625.69908,0.20360
1627.62755,0.20376
1629.55602,0.20338
1631.48449,0.20135
1633.41295,0.20621
1635.34142,0.21799
1637.26989,0.21517
1639.19836,0.20384
1641.12683,0.20059
1643.05530,0.20797
1644.98377,0.22592
1646.91223,0.23858
1648.84070,0.22810
1650.76917,0.22547
1652.69764,0.23798
1654.62611,0.22869
1656.55458,0.21306
1658.48305,0.21088
1660.41152,0.21776
1662.33998,0.22291
1664.26845,0.21588
1666.19692,0.20745
1668.12539,0.20770
1670.05386,0.21396
1671.98233,0.21904
1673.91080,0.22200
1675.83926,0.21516
1677.76773,0.20518
1679.69620,0.20687
1681.62467,0.21874
1683.55314,0.23004
1685.48161,0.22451
1687.41008,0.21567
1689.33855,0.21052
1691.26701,0.20394
1693.19548,0.20031
1695.12395,0.20744
1697.05242,0.22319
1698.98089,0.22998
1700.90936,0.21809
1702.83783,0.20720
1704.76629,0.20787
1706.69476,0.20771
1708.62323,0.20143
1710.55170,0.19736
1712.48017,0.20069
1714.40864,0.21284
1716.33711,0.22827
1718.26558,0.22439
1720.19404,0.20568
1722.12251,0.19374
1724.05098,0.18967
1725.97945,0.19026
1727.90792,0.19585
1729.83639,0.20504
1731.76486,0.21310
1733.69332,0.21486
1735.62179,0.20545
1737.55026,0.19870
1739.47873,0.19882
1741.40720,0.20120
1743.33567,0.20261
1745.26414,0.20361
1747.19261,0.20854
1749.12107,0.21343
1751.04954,0.20628
1752.97801,0.19517
1754.90648,0.19342
1756.83495,0.19675
1758.76342,0.19426
1760.69189,0.18915
1762.62035,0.18757
1764.54882,0.18931
1766.47729,0.19452
1768.40576,0.20099
1770.33423,0.20758
1772.26270,0.21340
1774.19117,0.21136
1776.11964,0.20581
1778.04810,0.20305
1779.97657,0.19981
1781.90504,0.19418
1783.83351,0.19221
1785.76198,0.19290
1787.69045,0.19318
1789.61892,0.19608
1791.54738,0.20012
1793.47585,0.19949
1795.40432,0.19641
1797.33279,0.19516
1799.26126,0.19686
1801.18973,0.19817
1803.11820,0.19577
1805.04666,0.19433
1806.97513,0.19669
1808.90360,0.19950
1810.83207,0.19901
1812.76054,0.19611
1814.68901,0.19440
1816.61748,0.19517
1818.54595,0.19816
1820.47441,0.19887
1822.40288,0.19579
1824.33135,0.19580
1826.25982,0.20055
1828.18829,0.20532
1830.11676,0.20595
1832.04523,0.20035
1833.97369,0.19494
1835.90216,0.19239
1837.83063,0.19012
1839.75910,0.18879
1841.68757,0.19254
1843.61604,0.20002
1845.54451,0.20200
1847.47298,0.19809
1849.40144,0.19449
1851.32991,0.19280
1853.25838,0.19136
1855.18685,0.18947
1857.11532,0.18829
1859.04379,0.18668
1860.97226,0.18417
1862.90072,0.18456
1864.82919,0.19169
1866.75766,0.20289
1868.68613,0.20597
1870.61460,0.19613
1872.54307,0.18738
1874.47154,0.18472
1876.40001,0.18504
1878.32847,0.18657
1880.25694,0.18692
1882.18541,0.18621
1884.11388,0.18709
1886.04235,0.18781
1887.97082,0.18703
1889.89929,0.18668
1891.82775,0.18762
1893.75622,0.19000
1895.68469,0.19216
1897.61316,0.19118
1899.54163,0.18809
1901.47010,0.18697
1903.39857,0.18928
1905.32704,0.19194
1907.25550,0.19308
1909.18397,0.19343
1911.11244,0.19359
1913.04091,0.19394
1914.96938,0.19484
1916.89785,0.19584
1918.82632,0.19468
1920.75478,0.19218
1922.68325,0.19110
1924.61172,0.18997
1926.54019,0.18785
1928.46866,0.18739
1930.39713,0.18901
1932.32560,0.19084
1934.25407,0.19191
1936.18253,0.19082
1938.11100,0.18902
1940.03947,0.18998
1941.96794,0.19224
1943.89641,0.19268
1945.82488,0.19161
1947.75335,0.19003
1949.68181,0.18864
1951.61028,0.18789
1953.53875,0.18694
1955.46722,0.18657
1957.39569,0.18827
1959.32416,0.19010
1961.25263,0.19016
1963.18110,0.18991
1965.10956,0.19097
1967.03803,0.19186
1968.96650,0.19039
1970.89497,0.18784
1972.82344,0.18784
1974.75191,0.19038
1976.68038,0.19109
1978.60884,0.18900
1980.53731,0.18751
1982.46578,0.19026
1984.39425,0.19532
1986.32272,0.19571
1988.25119,0.19275
1990.17966,0.19277
1992.10812,0.19323
1994.03659,0.19069
1995.96506,0.18803
1997.89353,0.18751
1999.82200,0.18790
2001.75047,0.18641
2003.67894,0.18512
2005.60741,0.18714
2007.53587,0.18902
2009.46434,0.18837
2011.39281,0.18752
2013.32128,0.18843
2015.24975,0.19155
2017.17822,0.19425
2019.10669,0.19393
2021.03515,0.19299
2022.96362,0.19250
2024.89209,0.18951
2026.82056,0.18430
2028.74903,0.18148
2030.67750,0.18383
2032.60597,0.18834
2034.53444,0.19036
2036.46290,0.19012
2038.39137,0.18961
2040.31984,0.18878
2042.24831,0.18807
2044.17678,0.18887
2046.10525,0.19042
2048.03372,0.19099
2049.96218,0.19193
2051.89065,0.19272
2053.81912,0.18986
2055.74759,0.18642
2057.67606,0.18814
2059.60453,0.19289
2061.53300,0.19393
2063.46147,0.19058
2065.38993,0.18939
2067.31840,0.19379
2069.24687,0.19772
2071.17534,0.19554
2073.10381,0.19128
2075.03228,0.18860
2076.96075,0.18691
2078.88921,0.18703
2080.81768,0.18742
2082.74615,0.18636
2084.67462,0.18553
2086.60309,0.18710
2088.53156,0.18945
2090.46003,0.18809
2092.38850,0.18529
2094.31696,0.18547
2096.24543,0.18713
2098.17390,0.19049
2100.10237,0.19475
2102.03084,0.19534
2103.95931,0.19344
2105.88778,0.19229
2107.81624,0.19163
2109.74471,0.19173
2111.67318,0.19210
2113.60165,0.19094
2115.53012,0.18887
2117.45859,0.18805
2119.38706,0.18867
2121.31553,0.18845
2123.24399,0.18734
2125.17246,0.18844
2127.10093,0.19078
2129.02940,0.19046
2130.95787,0.18765
2132.88634,0.18678
2134.81481,0.19265
2136.74327,0.20017
2138.67174,0.19852
2140.60021,0.19028
2142.52868,0.18567
2144.45715,0.18612
2146.38562,0.18796
2148.31409,0.19016
2150.24255,0.19205
2152.17102,0.19290
2154.09949,0.19335
2156.02796,0.19279
2157.95643,0.19170
2159.88490,0.19265
2161.81337,0.19357
2163.74184,0.19246
2165.67030,0.19250
2167.59877,0.19283
2169.52724,0.19150
2171.45571,0.18980
2173.38418,0.18757
2175.31265,0.18558
2177.24112,0.18567
2179.16958,0.18871
2181.09805,0.19309
2183.02652,0.19463
2184.95499,0.19285
2186.88346,0.19218
2188.81193,0.19485
2190.74040,0.19741
2192.66887,0.19658
2194.59733,0.19343
2196.52580,0.19107
2198.45427,0.19016
2200.38274,0.19013
2202.31121,0.19169
2204.23968,0.19305
2206.16815,0.19154
2208.09661,0.18787
2210.02508,0.18476
2211.95355,0.18510
2213.88202,0.18899
2215.81049,0.19242
2217.73896,0.19317
2219.66743,0.19261
2221.59590,0.19246
2223.52436,0.19196
2225.45283,0.18890
2227.38130,0.18598
2229.30977,0.18609
2231.23824,0.18765
2233.16671,0.19033
2235.09518,0.19302
2237.02364,0.19334
2238.95211,0.19176
2240.88058,0.19007
2242.80905,0.18973
2244.73752,0.19107
2246.66599,0.19246
2248.59446,0.19218
2250.52293,0.19115
2252.45139,0.19181
2254.37986,0.19325
2256.30833,0.19298
2258.23680,0.19066
2260.16527,0.18744
2262.09374,0.18632
2264.02221,0.18857
2265.95067,0.19166
2267.87914,0.19165
2269.80761,0.18739
2271.73608,0.18471
2273.66455,0.18739
2275.59302,0.19097
2277.52149,0.19163
2279.44996,0.19060
2281.37842,0.19030
2283.30689,0.19096
2285.23536,0.19122
2287.16383,0.18961
2289.09230,0.18790
2291.02077,0.18873
2292.94924,0.18980
2294.87770,0.19097
2296.80617,0.19319
2298.73464,0.19372
2300.66311,0.19328
2302.59158,0.19332
2304.52005,0.19312
2306.44852,0.19201
2308.37699,0.19107
2310.30545,0.19367
2312.23392,0.19892
2314.16239,0.20278
2316.09086,0.20411
2318.01933,0.20499
2319.94780,0.20484
2321.87627,0.20045
2323.80473,0.19695
2325.73320,0.20120
2327.66167,0.21016
2329.59014,0.21402
2331.51861,0.20996
2333.44708,0.21240
2335.37555,0.22878
2337.30401,0.24107
2339.23248,0.23360
2341.16095,0.21860
2343.08942,0.20839
2345.01789,0.20372
2346.94636,0.20728
2348.87483,0.21422
2350.80330,0.21721
2352.73176,0.21747
2354.66023,0.22412
2356.58870,0.22775
2358.51717,0.21994
2360.44564,0.21217
2362.37411,0.20546
2364.30258,0.20825
2366.23104,0.21128
2368.15951,0.20348
2370.08798,0.19813
2372.01645,0.20123
2373.94492,0.20795
2375.87339,0.21144
2377.80186,0.20971
2379.73033,0.20622
2381.65879,0.20238
2383.58726,0.19664
2385.51573,0.19107
2387.44420,0.18935
2389.37267,0.18962
2391.30114,0.18890
2393.22961,0.18804
2395.15807,0.18833
2397.08654,0.18914
2399.01501,0.18874
2400.94348,0.18770
2402.87195,0.18750
2404.80042,0.18708
2406.72889,0.18542
2408.65736,0.18317
2410.58582,0.18315
2412.51429,0.18668
2414.44276,0.18947
2416.37123,0.18964
2418.29970,0.19040
2420.22817,0.19172
2422.15664,0.19103
2424.08510,0.18968
2426.01357,0.19024
2427.94204,0.19120
2429.87051,0.19162
2431.79898,0.19333
2433.72745,0.19534
2435.65592,0.19556
2437.58439,0.19526
2439.51285,0.19587
2441.44132,0.19606
2443.36979,0.19433
2445.29826,0.19053
2447.22673,0.18632
2449.15520,0.18580
2451.08367,0.18933
2453.01213,0.19102
2454.94060,0.18939
2456.86907,0.18834
2458.79754,0.18886
2460.72601,0.18948
2462.65448,0.18855
2464.58295,0.18714
2466.51142,0.18786
2468.43988,0.19111
2470.36835,0.19421
2472.29682,0.19301
2474.22529,0.18958
2476.15376,0.19035
2478.08223,0.19412
2480.01070,0.19522
2481.93916,0.19427
2483.86763,0.19471
2485.79610,0.19431
2487.72457,0.19035
2489.65304,0.18802
2491.58151,0.19107
2493.50998,0.19392
2495.43844,0.19456
2497.36691,0.19586
2499.29538,0.19575
2501.22385,0.19342
2503.15232,0.19186
2505.08079,0.19202
2507.00926,0.19405
2508.93773,0.19614
2510.86619,0.19554
2512.79466,0.19371
2514.72313,0.19309
2516.65160,0.19324
2518.58007,0.19303
2520.50854,0.19242
2522.43701,0.19263
2524.36547,0.19377
2526.29394,0.19360
2528.22241,0.19209
2530.15088,0.19193
2532.07935,0.19303
2534.00782,0.19333
2535.93629,0.19241
2537.86476,0.19109
2539.79322,0.19175
2541.72169,0.19457
2543.65016,0.19576
2545.57863,0.19493
2547.50710,0.19534
2549.43557,0.19740
2551.36404,0.19817
2553.29250,0.19600
2555.22097,0.19332
2557.14944,0.19254
2559.07791,0.19321
2561.00638,0.19473
2562.93485,0.19624
2564.86332,0.19563
2566.79179,0.19353
2568.72025,0.19356
2570.64872,0.19597
2572.57719,0.19702
2574.50566,0.19548
2576.43413,0.19344
2578.36260,0.19256
2580.29107,0.19334
2582.21953,0.19386
2584.14800,0.19316
2586.07647,0.19305
2588.00494,0.19326
2589.93341,0.19404
2591.86188,0.19550
2593.79035,0.19538
2595.71882,0.19520
2597.64728,0.19719
2599.57575,0.19911
2601.50422,0.19822
2603.43269,0.19475
2605.36116,0.19298
2607.28963,0.19439
2609.21810,0.19445
2611.14656,0.19268
2613.07503,0.19220
2615.00350,0.19272
2616.93197,0.19325
2618.86044,0.19366
2620.78891,0.19296
2622.71738,0.19059
2624.64585,0.18846
2626.57431,0.18759
2628.50278,0.18694
2630.43125,0.18808
2632.35972,0.19152
2634.28819,0.19329
2636.21666,0.19252
2638.14513,0.19334
2640.07359,0.19639
2642.00206,0.19700
2643.93053,0.19484
2645.85900,0.19437
2647.78747,0.19588
2649.71594,0.19760
2651.64441,0.19871
2653.57288,0.19826
2655.50134,0.19732
2657.42981,0.19871
2659.35828,0.20202
2661.28675,0.20320
2663.21522,0.20155
2665.14369,0.20024
2667.07216,0.20019
2669.00062,0.19884
2670.92909,0.19557
2672.85756,0.19378
2674.78603,0.19532
2676.71450,0.19672
2678.64297,0.19483
2680.57144,0.19343
2682.49990,0.19573
2684.42837,0.19971
2686.35684,0.20352
2688.28531,0.20507
2690.21378,0.20331
2692.14225,0.20184
2694.07072,0.20265
2695.99919,0.20324
2697.92765,0.20281
2699.85612,0.20228
2701.78459,0.20314
2703.71306,0.20439
2705.64153,0.20161
2707.57000,0.19567
2709.49847,0.19247
2711.42693,0.19435
2713.35540,0.19653
2715.28387,0.19522
2717.21234,0.19323
2719.14081,0.19378
2721.06928,0.19650
2722.99775,0.19847
2724.92622,0.19932
2726.85468,0.20031
2728.78315,0.20004
2730.71162,0.19831
2732.64009,0.19739
2734.56856,0.19903
2736.49703,0.20317
2738.42550,0.20537
2740.35396,0.20317
2742.28243,0.20098
2744.21090,0.19961
2746.13937,0.19831
2748.06784,0.19939
2749.99631,0.20097
2751.92478,0.20062
2753.85325,0.20013
2755.78171,0.20204
2757.71018,0.20463
2759.63865,0.20424
2761.56712,0.20240
2763.49559,0.20257
2765.42406,0.20498
2767.35253,0.20690
2769.28099,0.20626
2771.20946,0.20598
2773.13793,0.20678
2775.06640,0.20490
2776.99487,0.20407
2778.92334,0.20734
2780.85181,0.20791
2782.78028,0.20516
2784.70874,0.20557
2786.63721,0.20948
2788.56568,0.21325
2790.49415,0.21420
2792.42262,0.21176
2794.35109,0.21003
2796.27956,0.21156
2798.20802,0.21041
2800.13649,0.20498
2802.06496,0.20278
2803.99343,0.20473
2805.92190,0.20462
2807.85037,0.20108
2809.77884,0.19895
2811.70731,0.20056
2813.63577,0.20318
2815.56424,0.20391
2817.49271,0.20237
2819.42118,0.20111
2821.34965,0.20328
2823.27812,0.20871
2825.20659,0.21222
2827.13505,0.21073
2829.06352,0.20788
2830.99199,0.20599
2832.92046,0.20324
2834.84893,0.19992
2836.77740,0.20018
2838.70587,0.20393
2840.63433,0.20501
2842.56280,0.20209
2844.49127,0.20163
2846.41974,0.20490
2848.34821,0.20536
2850.27668,0.20233
2852.20515,0.20038
2854.13362,0.20064
2856.06208,0.20204
2857.99055,0.20528
2859.91902,0.20968
2861.84749,0.21088
2863.77596,0.20954
2865.70443,0.20870
2867.63290,0.20734
2869.56136,0.20569
2871.48983,0.20617
2873.41830,0.20990
2875.34677,0.21345
2877.27524,0.21186
2879.20371,0.20886
2881.13218,0.21017
2883.06065,0.21166
2884.98911,0.20883
2886.91758,0.20482
2888.84605,0.20496
2890.77452,0.20913
2892.70299,0.21258
2894.63146,0.21275
2896.55993,0.21000
2898.48839,0.20724
2900.41686,0.20699
2902.34533,0.20869
2904.27380,0.20855
2906.20227,0.20413
2908.13074,0.19991
2910.05921,0.19835
2911.98768,0.19705
2913.91614,0.19685
2915.84461,0.19986
2917.77308,0.20367
2919.70155,0.20474
2921.63002,0.20594
2923.55849,0.20951
2925.48696,0.21025
2927.41542,0.20931
2929.34389,0.21350
2931.27236,0.21635
2933.20083,0.20852
2935.12930,0.19724
2937.05777,0.19365
2938.98624,0.19713
2940.91471,0.20034
2942.84317,0.20191
2944.77164,0.20503
2946.70011,0.20554
2948.62858,0.20160
2950.55705,0.20077
2952.48552,0.20452
2954.41399,0.20702
2956.34245,0.20581
2958.27092,0.20441
2960.19939,0.20362
2962.12786,0.20146
2964.05633,0.20112
2965.98480,0.20369
2967.91327,0.20761
2969.84174,0.21250
2971.77020,0.21550
2973.69867,0.21588
2975.62714,0.21464
2977.55561,0.21042
2979.48408,0.20572
2981.41255,0.20614
2983.34102,0.21123
2985.26948,0.21397
2987.19795,0.20965
2989.12642,0.20471
2991.05489,0.20437
2992.98336,0.20463
2994.91183,0.20569
2996.84030,0.20812
2998.76877,0.20749
3000.69723,0.20574
3002.62570,0.20924
3004.55417,0.21360
3006.48264,0.21226
3008.41111,0.20998
3010.33958,0.20769
3012.26805,0.20196
3014.19651,0.19420
3016.12498,0.18765
3018.05345,0.18991
3019.98192,0.20281
3021.91039,0.21564
3023.83886,0.21951
3025.76733,0.21487
3027.69579,0.20988
3029.62426,0.21218
3031.55273,0.21800
3033.48120,0.21901
3035.40967,0.21425
3037.33814,0.20887
3039.26661,0.20918
3041.19508,0.21294
3043.12354,0.21249
3045.05201,0.21037
3046.98048,0.21155
3048.90895,0.21288
3050.83742,0.21047
3052.76589,0.20509
3054.69436,0.20223
3056.62282,0.20611
3058.55129,0.21278
3060.47976,0.21511
3062.40823,0.21110
3064.33670,0.20586
3066.26517,0.20475
3068.19364,0.20681
3070.12211,0.20900
3072.05057,0.20973
3073.97904,0.20865
3075.90751,0.21097
3077.83598,0.21907
3079.76445,0.22372
3081.69292,0.21848
3083.62139,0.20797
3085.54985,0.20341
3087.47832,0.20816
3089.40679,0.21134
3091.33526,0.20927
3093.26373,0.20774
3095.19220,0.21043
3097.12067,0.21586
3099.04914,0.21698
3100.97760,0.21267
3102.90607,0.20825
3104.83454,0.20544
3106.76301,0.20515
3108.69148,0.20996
3110.61995,0.21467
3112.54842,0.21337
3114.47688,0.21125
3116.40535,0.21150
3118.33382,0.21232
3120.26229,0.21169
3122.19076,0.20782
3124.11923,0.20505
3126.04770,0.20662
3127.97617,0.20976
3129.90463,0.21302
3131.83310,0.21541
3133.76157,0.21375
3135.69004,0.20870
3137.61851,0.20586
3139.54698,0.20751
3141.47545,0.20936
3143.40391,0.20710
3145.33238,0.20238
3147.26085,0.20153
3149.18932,0.20726
3151.11779,0.21275
3153.04626,0.21183
3154.97473,0.20815
3156.90320,0.20707
3158.83166,0.20972
3160.76013,0.21394
3162.68860,0.21705
3164.61707,0.21873
3166.54554,0.21878
3168.47401,0.21868
3170.40248,0.21891
3172.33094,0.21644
3174.25941,0.21265
3176.18788,0.20924
3178.11635,0.20759
3180.04482,0.21091
3181.97329,0.21368
3183.90176,0.21230
3185.83022,0.21264
3187.75869,0.21296
3189.68716,0.20989
3191.61563,0.20892
3193.54410,0.21075
3195.47257,0.21136
3197.40104,0.21320
3199.32951,0.21797
3201.25797,0.22009
3203.18644,0.21831
3205.11491,0.21646
3207.04338,0.21231
3208.97185,0.20525
3210.90032,0.20099
3212.82879,0.20246
3214.75725,0.20809
3216.68572,0.21184
3218.61419,0.21002
3220.54266,0.20911
3222.47113,0.21484
3224.39960,0.22051
3226.32807,0.21982
3228.25654,0.21772
3230.18500,0.21993
3232.11347,0.22388
3234.04194,0.22101
3235.97041,0.21126
3237.89888,0.20503
3239.82735,0.20599
3241.75582,0.20973
3243.68428,0.21200
3245.61275,0.21175
3247.54122,0.21163
3249.46969,0.21363
3251.39816,0.21518
3253.32663,0.21305
3255.25510,0.20823
3257.18357,0.20429
3259.11203,0.20354
3261.04050,0.20488
3262.96897,0.20833
3264.89744,0.21491
3266.82591,0.21849
3268.75438,0.21709
3270.68285,0.21720
3272.61131,0.21759
3274.53978,0.21504
3276.46825,0.21250
3278.39672,0.21143
3280.32519,0.20979
3282.25366,0.20753
3284.18213,0.20914
3286.11060,0.21382
3288.03906,0.21401
3289.96753,0.21114
3291.89600,0.21266
3293.82447,0.21834
3295.75294,0.22314
3297.68141,0.21979
3299.60988,0.20916
3301.53834,0.20643
3303.46681,0.21432
3305.39528,0.21975
3307.32375,0.21953
3309.25222,0.21824
3311.18069,0.21534
3313.10916,0.21172
3315.03763,0.21057
3316.96609,0.20815
3318.89456,0.20474
3320.82303,0.20705
3322.75150,0.21163
3324.67997,0.21192
3326.60844,0.21117
3328.53691,0.21372
3330.46537,0.21486
3332.39384,0.21250
3334.32231,0.21402
3336.25078,0.21815
3338.17925,0.21689
3340.10772,0.21470
3342.03619,0.21664
3343.96466,0.21398
3345.89312,0.20645
3347.82159,0.20801
3349.75006,0.21671
3351.67853,0.21946
3353.60700,0.21742
3355.53547,0.21497
3357.46394,0.21116
3359.39240,0.21036
3361.32087,0.21440
3363.24934,0.21861
3365.17781,0.22075
3367.10628,0.22059
3369.03475,0.22027
3370.96322,0.22038
3372.89168,0.22171
3374.82015,0.22585
3376.74862,0.22548
3378.67709,0.21622
3380.60556,0.20764
3382.53403,0.21057
3384.46250,0.22018
3386.39097,0.22486
3388.31943,0.22517
3390.24790,0.22345
3392.17637,0.21824
3394.10484,0.21322
3396.03331,0.21245
3397.96178,0.21273
3399.89025,0.20856
3401.81871,0.20106
3403.74718,0.19621
3405.67565,0.19807
3407.60412,0.20567
3409.53259,0.21280
3411.46106,0.21117
3413.38953,0.20109
3415.31800,0.19321
3417.24646,0.19505
3419.17493,0.20444
3421.10340,0.21523
3423.03187,0.22167
3424.96034,0.21995
3426.88881,0.21245
3428.81728,0.20374
3430.74574,0.19678
3432.67421,0.19811
3434.60268,0.20841
3436.53115,0.21533
3438.45962,0.21186
3440.38809,0.20440
3442.31656,0.19826
3444.24503,0.19261
3446.17349,0.18905
3448.10196,0.19139
3450.03043,0.19777
3451.95890,0.20321
3453.88737,0.20485
3455.81584,0.20095
3457.74431,0.19501
3459.67277,0.19169
3461.60124,0.18932
3463.52971,0.18750
3465.45818,0.18733
3467.38665,0.18860
3469.31512,0.19013
3471.24359,0.18826
3473.17206,0.18393
3475.10052,0.18164
3477.02899,0.18391
3478.95746,0.19046
3480.88593,0.19423
3482.81440,0.18924
3484.74287,0.18541
3486.67134,0.19118
3488.59980,0.19638
3490.52827,0.19340
3492.45674,0.18754
3494.38521,0.18511
3496.31368,0.18643
3498.24215,0.18693
3500.17062,0.18673
3502.09909,0.18531
3504.02755,0.17970
3505.95602,0.17639
3507.88449,0.18033
3509.81296,0.18160
3511.74143,0.17467
3513.66990,0.16937
3515.59837,0.17065
3517.52683,0.17712
3519.45530,0.18369
3521.38377,0.18375
3523.31224,0.17820
3525.24071,0.17400
3527.16918,0.17567
3529.09765,0.17888
3531.02611,0.17845
3532.95458,0.17654
3534.88305,0.17570
3536.81152,0.17398
3538.73999,0.17011
3540.66846,0.16867
3542.59693,0.17031
3544.52540,0.17049
3546.45386,0.16937
3548.38233,0.16824
3550.31080,0.16819
3552.23927,0.17088
3554.16774,0.17276
3556.09621,0.16823
3558.02468,0.15758
3559.95314,0.15076
3561.88161,0.15332
3563.81008,0.15790
3565.73855,0.16306
3567.66702,0.17015
3569.59549,0.17106
3571.52396,0.16815
3573.45243,0.16679
3575.38089,0.16417
3577.30936,0.16042
3579.23783,0.16039
3581.16630,0.16376
3583.09477,0.16762
3585.02324,0.17046
3586.95171,0.17164
3588.88017,0.16562
3590.80864,0.15814
3592.73711,0.16214
3594.66558,0.17130
3596.59405,0.17179
3598.52252,0.17170
3600.45099,0.17579
3602.37946,0.17430
3604.30792,0.17102
3606.23639,0.17253
3608.16486,0.17204
3610.09333,0.16833
3612.02180,0.16745
3613.95027,0.16529
3615.87874,0.15994
3617.80720,0.15903
3619.73567,0.16677
3621.66414,0.16953
3623.59261,0.16099
3625.52108,0.15433
3627.44955,0.16060
3629.37802,0.16853
3631.30649,0.16299
3633.23495,0.15624
3635.16342,0.15114
3637.09189,0.14779
3639.02036,0.14614
3640.94883,0.14410
3642.87730,0.14422
3644.80577,0.15178
3646.73423,0.16705
3648.66270,0.17985
3650.59117,0.17409
3652.51964,0.15974
3654.44811,0.14892
3656.37658,0.14399
3658.30505,0.14097
3660.23352,0.13663
3662.16198,0.13435
3664.09045,0.13515
3666.01892,0.13839
3667.94739,0.14761
3669.87586,0.16127
3671.80433,0.16487
3673.73280,0.16542
3675.66126,0.16966
3677.58973,0.16452
3679.51820,0.15329
3681.44667,0.14325
3683.37514,0.13561
3685.30361,0.13227
3687.23208,0.13735
3689.16055,0.15080
3691.08901,0.15505
3693.01748,0.14336
3694.94595,0.13188
3696.87442,0.12990
3698.80289,0.13388
3700.73136,0.13670
3702.65983,0.13555
3704.58829,0.13348
3706.51676,0.13389
3708.44523,0.13967
3710.37370,0.15073
3712.30217,0.15281
3714.23064,0.14308
3716.15911,0.13677
3718.08757,0.14049
3720.01604,0.14943
3721.94451,0.15089
3723.87298,0.14714
3725.80145,0.14694
3727.72992,0.14424
3729.65839,0.14156
3731.58686,0.14874
3733.51532,0.16231
3735.44379,0.16412
3737.37226,0.15100
3739.30073,0.14243
3741.22920,0.14489
3743.15767,0.15443
3745.08614,0.16305
3747.01460,0.16713
3748.94307,0.17004
3750.87154,0.16146
3752.80001,0.14467
3754.72848,0.13668
3756.65695,0.13388
3758.58542,0.13341
3760.51389,0.13568
3762.44235,0.13964
3764.37082,0.14076
3766.29929,0.13739
3768.22776,0.13679
3770.15623,0.13789
3772.08470,0.13252
3774.01317,0.12580
3775.94163,0.12554
3777.87010,0.13036
3779.79857,0.13031
3781.72704,0.12785
3783.65551,0.13023
3785.58398,0.13046
3787.51245,0.12591
3789.44092,0.12350
3791.36938,0.12659
3793.29785,0.13309
3795.22632,0.13848
3797.15479,0.14162
3799.08326,0.14834
3801.01173,0.15573
3802.94020,0.14843
3804.86866,0.13810
3806.79713,0.13258
3808.72560,0.12616
3810.65407,0.12430
3812.58254,0.13004
3814.51101,0.13823
3816.43948,0.14193
3818.36795,0.14259
3820.29641,0.14788
3822.22488,0.15031
3824.15335,0.14406
3826.08182,0.13907
3828.01029,0.13767
3829.93876,0.13779
3831.86723,0.14092
3833.79569,0.14628
3835.72416,0.14953
3837.65263,0.15052
3839.58110,0.14954
3841.50957,0.14679
3843.43804,0.14232
3845.36651,0.13429
3847.29498,0.12957
3849.22344,0.13840
3851.15191,0.16106
3853.08038,0.17379
3855.00885,0.14875
3856.93732,0.13147
3858.86579,0.12998
3860.79426,0.13452
3862.72272,0.13857
3864.65119,0.13532
3866.57966,0.13116
3868.50813,0.13362
3870.43660,0.13586
3872.36507,0.13495
3874.29354,0.13490
3876.22200,0.13175
3878.15047,0.12703
3880.07894,0.12618
3882.00741,0.12942
3883.93588,0.13255
3885.86435,0.13318
3887.79282,0.13325
3889.72129,0.13520
3891.64975,0.13448
3893.57822,0.13069
3895.50669,0.13134
3897.43516,0.13414
3899.36363,0.13316
3901.29210,0.13150
3903.22057,0.13365
3905.14903,0.13538
3907.07750,0.13148
3909.00597,0.12101
3910.93444,0.11047
3912.86291,0.10807
3914.79138,0.11287
3916.71985,0.11715
3918.64832,0.11661
3920.57678,0.11530
3922.50525,0.11456
3924.43372,0.11274
3926.36219,0.11129
3928.29066,0.11270
3930.21913,0.11716
3932.14760,0.12187
3934.07606,0.12077
3936.00453,0.11412
3937.93300,0.11130
3939.86147,0.11494
3941.78994,0.11994
3943.71841,0.12265
3945.64688,0.12359
3947.57535,0.12577
3949.50381,0.12598
3951.43228,0.12172
3953.36075,0.11678
3955.28922,0.11228
3957.21769,0.10736
3959.14616,0.10276
3961.07463,0.10009
3963.00309,0.09983
3964.93156,0.10112
3966.86003,0.10232
3968.78850,0.10520
3970.71697,0.11199
3972.64544,0.11357
3974.57391,0.10426
3976.50238,0.09661
3978.43084,0.09712
3980.35931,0.10309
3982.28778,0.11236
3984.21625,0.11452
3986.14472,0.10736
3988.07319,0.10118
3990.00166,0.09836
3991.93012,0.09807
3993.85859,0.10315
3995.78706,0.10905
3997.71553,0.10847
3999.64400,0.10506
4001.57247,0.10466
4003.50094,0.10790
4005.42941,0.11075
4007.35787,0.10682
4009.28634,0.09798
4011.21481,0.09437
4013.14328,0.10263
4015.07175,0.11754
4017.00022,0.12499
4018.92869,0.11881
4020.85715,0.10758
4022.78562,0.10228
4024.71409,0.10295
4026.64256,0.10167
4028.57103,0.09887
4030.49950,0.09894
4032.42797,0.09869
4034.35644,0.09886
4036.28490,0.10169
4038.21337,0.10269
4040.14184,0.10134
4042.07031,0.10105
4043.99878,0.10148
4045.92725,0.10108
4047.85572,0.09969
4049.78418,0.09625
4051.71265,0.09026
4053.64112,0.08883
4055.56959,0.09749
4057.49806,0.10630
4059.42653,0.10601
4061.35500,0.10007
4063.28346,0.09553
4065.21193,0.09524
4067.14040,0.09623
4069.06887,0.09725
4070.99734,0.09777
4072.92581,0.09435
4074.85428,0.08712
4076.78275,0.08193
4078.71121,0.08707
4080.63968,0.09806
4082.56815,0.09986
4084.49662,0.09395
4086.42509,0.08976
4088.35356,0.08740
4090.28203,0.09061
4092.21049,0.10308
4094.13896,0.11552
4096.06743,0.11712
4097.99590,0.10909
4099.92437,0.10104
4101.85284,0.09757
4103.78131,0.09504
4105.70978,0.09106
4107.63824,0.08833
4109.56671,0.08906
4111.49518,0.08963
4113.42365,0.08527
4115.35212,0.07794
4117.28059,0.07078
4119.20906,0.06655
4121.13752,0.07062
4123.06599,0.08157
4124.99446,0.09050
4126.92293,0.09474
4128.85140,0.09903
4130.77987,0.10153
4132.70834,0.09734
4134.63681,0.09237
4136.56527,0.09352
4138.49374,0.09468
4140.42221,0.08804
4142.35068,0.07969
4144.27915,0.07740
4146.20762,0.08034
4148.13609,0.08618
4150.06455,0.08956
4151.99302,0.08810
4153.92149,0.08711
4155.84996,0.08777
4157.77843,0.08847
4159.70690,0.08668
4161.63537,0.07742
4163.56384,0.06585
4165.49230,0.06268
4167.42077,0.06868
4169.34924,0.07604
4171.27771,0.07992
4173.20618,0.08314
4175.13465,0.08474
4177.06312,0.08152
4178.99158,0.07965
4180.92005,0.08153
4182.84852,0.08054
4184.77699,0.07881
4186.70546,0.08231
4188.63393,0.08774
4190.56240,0.08940
4192.49087,0.08581
4194.41933,0.07828
4196.34780,0.07127
4198.27627,0.07126
4200.20474,0.07754
4202.13321,0.08253
4204.06168,0.08261
4205.99015,0.08066
4207.91861,0.07900
4209.84708,0.07657
4211.77555,0.07636
4213.70402,0.07839
4215.63249,0.07807
4217.56096,0.07727
4219.48943,0.07680
4221.41789,0.07448
4223.34636,0.07132
4225.27483,0.06781
4227.20330,0.06373
4229.13177,0.06171
4231.06024,0.06444
4232.98871,0.06847
4234.91718,0.06954
4236.84564,0.07025
4238.77411,0.07221
4240.70258,0.07308
4242.63105,0.07344
4244.55952,0.07424
4246.48799,0.07278
4248.41646,0.06941
4250.34492,0.06814
4252.27339,0.06662
4254.20186,0.06355
4256.13033,0.06390
4258.05880,0.06719
4259.98727,0.06879
4261.91574,0.06630
4263.84421,0.06105
4265.77267,0.05662
4267.70114,0.05512
4269.62961,0.05768
4271.55808,0.06415
4273.48655,0.06518
4275.41502,0.05322
4277.34349,0.04327
4279.27195,0.04582
4281.20042,0.04985
4283.12889,0.05444
4285.05736,0.06542
4286.98583,0.07245
4288.91430,0.06869
4290.84277,0.06314
4292.77124,0.05976
4294.69970,0.05576
4296.62817,0.05331
4298.55664,0.05547
4300.48511,0.05916
4302.41358,0.05944
4304.34205,0.05554
4306.27052,0.05003
4308.19898,0.04670
4310.12745,0.04744
4312.05592,0.04911
4313.98439,0.04637
4315.91286,0.04277
4317.84133,0.04635
4319.76980,0.05282
4321.69827,0.05408
4323.62673,0.05000
4325.55520,0.04371
4327.48367,0.03991
4329.41214,0.04071
4331.34061,0.04196
4333.26908,0.04384
4335.19755,0.04825
4337.12601,0.04973
4339.05448,0.05042
4340.98295,0.05651
4342.91142,0.06434
4344.83989,0.06867
4346.76836,0.06606
4348.69683,0.05806
4350.62530,0.05283
4352.55376,0.05434
4354.48223,0.05734
4356.41070,0.05553
4358.33917,0.05124
4360.26764,0.04887
4362.19611,0.04964
4364.12458,0.05305
4366.05304,0.05408
4367.98151,0.05315
4369.90998,0.05567
4371.83845,0.05548
4373.76692,0.04823
4375.69539,0.04426
4377.62386,0.04734
4379.55232,0.05121
4381.48079,0.05372
4383.40926,0.05158
4385.33773,0.04333
4387.26620,0.03541
4389.19467,0.03258
4391.12314,0.03428
4393.05161,0.04045
4394.98007,0.04771
4396.90854,0.04656
4398.83701,0.03717
4400.76548,0.03185
4402.69395,0.03645
4404.62242,0.04144
4406.55089,0.03818
4408.47935,0.03146
4410.40782,0.02571
4412.33629,0.02166
4414.26476,0.02321
4416.19323,0.02722
4418.12170,0.02451
4420.05017,0.01862
4421.97864,0.01773
4423.90710,0.02113
4425.83557,0.02966
4427.76404,0.04179
4429.69251,0.04436
4431.62098,0.03042
4433.54945,0.01164
4435.47792,0.00368
4437.40638,0.01201
4439.33485,0.02908
4441.26332,0.04231
4443.19179,0.04582
4445.12026,0.04105
4447.04873,0.03664
4448.97720,0.03563
4450.90567,0.03186
4452.83413,0.02821
4454.76260,0.02981
4456.69107,0.03036
4458.61954,0.02731
4460.54801,0.02671
4462.47648,0.02901
4464.40495,0.02910
4466.33341,0.02362
4468.26188,0.01793
4470.19035,0.02063
4472.11882,0.02984
4474.04729,0.03894
4475.97576,0.04537
4477.90423,0.04784
4479.83270,0.04216
4481.76116,0.02827
4483.68963,0.01623
4485.61810,0.01747
4487.54657,0.02952
4489.47504,0.03499
4491.40351,0.02640
4493.33198,0.01589
4495.26044,0.01457
4497.18891,0.02362
4499.11738,0.03797
4501.04585,0.04613
4502.97432,0.04470
4504.90279,0.03879
4506.83126,0.03047
4508.75973,0.02367
4510.68819,0.02174
4512.61666,0.02525
4514.54513,0.03179
4516.47360,0.03420
4518.40207,0.02762
4520.33054,0.01445
4522.25901,0.00459
4524.18747,0.00672
4526.11594,0.01680
4528.04441,0.02506
4529.97288,0.03035
4531.90135,0.03358
4533.82982,0.03123
4535.75829,0.02583
4537.68676,0.02661
4539.61522,0.03152
4541.54369,0.02911
4543.47216,0.02260
4545.40063,0.01838
4547.32910,0.01378
4549.25757,0.00921
4551.18604,0.00759
4553.11450,0.01444
4555.04297,0.02953
4556.97144,0.03748
4558.89991,0.03480
4560.82838,0.03337
4562.75685,0.02695
4564.68532,0.00622
4566.61378,-0.01418
4568.54225,-0.01655
4570.47072,-0.00551
4572.39919,0.00666
4574.32766,0.01536
4576.25613,0.01677
4578.18460,0.01509
4580.11307,0.01509
4582.04153,0.01151
4583.97000,0.00539
4585.89847,0.00366
4587.82694,0.00608
4589.75541,0.00973
4591.68388,0.01444
4593.61235,0.01593
4595.54081,0.01208
4597.46928,0.00466
4599.39775,-0.00199
4601.32622,0.00027
4603.25469,0.00904
4605.18316,0.01302
4607.11163,0.00962
4609.04010,0.00835
4610.96856,0.01165
4612.89703,0.01153
4614.82550,0.00965
4616.75397,0.01037
4618.68244,0.00853
4620.61091,0.00537
4622.53938,0.00937
4624.46784,0.01579
4626.39631,0.01564
4628.32478,0.01156
4630.25325,0.00866
4632.18172,0.00965
4634.11019,0.01398
4636.03866,0.01433
4637.96713,0.00558
4639.89559,-0.00364
4641.82406,-0.00107
4643.75253,0.00841
4645.68100,0.00656
4647.60947,-0.00582
4649.53794,-0.00816
4651.46641,0.00030
4653.39487,0.00363
4655.32334,0.00001
4657.25181,0.00072
4659.18028,0.00883
4661.10875,0.01263
4663.03722,0.00826
4664.96569,0.00260
4666.89416,-0.00849
4668.82262,-0.01821
4670.75109,-0.00659
4672.67956,0.01456
4674.60803,0.02220
4676.53650,0.01730
4678.46497,0.01012
4680.39344,0.00579
4682.32190,0.00731
4684.25037,0.01572
4686.17884,0.02585
4688.10731,0.03514
4690.03578,0.03912
4691.96425,0.03223
4693.89272,0.02017
4695.82119,0.00836
4697.74965,-0.00288
4699.67812,-0.00983
4701.60659,-0.00802
4703.53506,-0.00530
4705.46353,-0.01119
4707.39200,-0.01323
4709.32047,-0.00112
4711.24893,0.00894
4713.17740,0.01108
4715.10587,0.01728
4717.03434,0.02062
4718.96281,0.01458
4720.89128,0.01370
4722.81975,0.02354
4724.74821,0.02843
4726.67668,0.02040
4728.60515,0.01216
4730.53362,0.01177
4732.46209,0.00825
4734.39056,-0.00529
4736.31903,-0.01371
4738.24750,-0.00898
4740.17596,-0.00573
4742.10443,-0.01034
4744.03290,-0.01176
4745.96137,-0.00114
4747.88984,0.01693
4749.81831,0.02829
4751.74678,0.03036
4753.67524,0.02886
4755.60371,0.01840
4757.53218,0.00612
4759.46065,0.00886
4761.38912,0.01732
4763.31759,0.01841
4765.24606,0.01679
4767.17453,0.01360
4769.10299,0.00950
4771.03146,0.01077
4772.95993,0.01001
4774.88840,0.00004
4776.81687,-0.00625
4778.74534,0.00115
4780.67381,0.01435
4782.60227,0.02057
4784.53074,0.01406
4786.45921,0.00340
4788.38768,0.00543
4790.31615,0.01266
4792.24462,0.00358
4794.17309,-0.00735
4796.10156,0.00237
4798.03002,0.01662
4799.95849,0.02330
4801.88696,0.02850
4803.81543,0.02670
4805.74390,0.02194
4807.67237,0.02452
4809.60084,0.02198
4811.52930,0.00517
4813.45777,-0.00938
4815.38624,-0.00296
4817.31471,0.00782
4819.24318,-0.00054
4821.17165,-0.01092
4823.10012,-0.00257
4825.02859,0.01310
4826.95705,0.01744
4828.88552,0.01327
4830.81399,0.01097
4832.74246,0.00446
4834.67093,-0.00974
4836.59940,-0.01883
4838.52787,-0.01611
4840.45633,-0.01152
4842.38480,-0.00577
4844.31327,0.00920
4846.24174,0.01731
4848.17021,0.01004
4850.09868,0.00592
4852.02715,0.00856
4853.95562,0.00777
4855.88408,-0.00260
4857.81255,-0.02150
4859.74102,-0.02930
4861.66949,-0.01546
4863.59796,0.00216
4865.52643,0.01301
4867.45490,0.01361
4869.38336,0.00117
4871.31183,-0.00566
4873.24030,0.00405
4875.16877,0.01101
4877.09724,0.00813
4879.02571,0.00532
4880.95418,0.00588
4882.88265,0.00840
4884.81111,0.00622
4886.73958,-0.00152
4888.66805,-0.00850
4890.59652,-0.00806
4892.52499,0.00422
4894.45346,0.01953
4896.38193,0.02460
4898.31039,0.01600
4900.23886,0.00139
4902.16733,-0.00553
4904.09580,0.00459
4906.02427,0.02259
4907.95274,0.03188
4909.88121,0.02619
4911.80967,0.01354
4913.73814,0.01135
4915.66661,0.01823
4917.59508,0.01970
4919.52355,0.01462
4921.45202,0.01425
4923.38049,0.02089
4925.30896,0.01761
4927.23742,0.00642
4929.16589,0.00967
4931.09436,0.01615
4933.02283,0.00476
4934.95130,-0.00369
4936.87977,0.00349
4938.80824,0.00172
4940.73670,-0.01136
4942.66517,-0.00968
4944.59364,0.00475
4946.52211,0.00815
4948.45058,0.00523
4950.37905,0.00725
4952.30752,0.00973
4954.23599,0.01544
4956.16445,0.02112
4958.09292,0.02035
4960.02139,0.02433
4961.94986,0.03067
4963.87833,0.02761
4965.80680,0.02384
4967.73527,0.01766
4969.66373,0.00535
4971.59220,-0.00099
4973.52067,0.00169
4975.44914,0.01254
4977.37761,0.02586
4979.30608,0.02918
4981.23455,0.02397
4983.16302,0.02367
4985.09148,0.02966
4987.01995,0.02871
4988.94842,0.01691
4990.87689,0.00893
4992.80536,0.01026
4994.73383,0.00821
4996.66230,0.00320
4998.59076,0.00182
5000.51923,0.00387
5002.44770,0.01255
5004.37617,0.02282
5006.30464,0.02538
5008.23311,0.02141
5010.16158,0.01931
5012.09005,0.02499
5014.01851,0.03269
5015.94698,0.03055
5017.87545,0.01936
5019.80392,0.01062
5021.73239,0.00884
5023.66086,0.01333
5025.58933,0.01867
5027.51779,0.01563
5029.44626,0.00454
5031.37473,0.00081
5033.30320,0.00833
5035.23167,0.00436
5037.16014,-0.01091
5039.08861,-0.01123
5041.01708,0.00200
5042.94554,0.01184
5044.87401,0.01988
5046.80248,0.02192
5048.73095,0.00727
5050.65942,-0.00041
5052.58789,0.01800
5054.51636,0.03676
5056.44482,0.03055
5058.37329,0.00158
5060.30176,-0.02000
5062.23023,-0.00963
5064.15870,0.01825
5066.08717,0.03745
5068.01564,0.03218
5069.94410,0.01249
5071.87257,-0.00005
5073.80104,-0.00447
5075.72951,-0.00019
5077.65798,0.01017
5079.58645,0.01039
5081.51492,0.00939
5083.44339,0.01737
5085.37185,0.02075
5087.30032,0.02325
5089.22879,0.03819
5091.15726,0.05128
5093.08573,0.04527
5095.01420,0.03282
5096.94267,0.03016
5098.87113,0.03251
5100.79960,0.03164
5102.72807,0.03056
5104.65654,0.03016
5106.58501,0.02647
5108.51348,0.02614
5110.44195,0.03159
5112.37042,0.02971
5114.29888,0.02975
5116.22735,0.04531
5118.15582,0.05118
5120.08429,0.04062
5122.01276,0.03673
5123.94123,0.03872
5125.86970,0.03732
5127.79816,0.04155
5129.72663,0.05500
5131.65510,0.06257
5133.58357,0.06923
5135.51204,0.08008
5137.44051,0.07131
5139.36898,0.03930
5141.29745,0.00678
5143.22591,-0.00130
5145.15438,0.01854
5147.08285,0.03995
5149.01132,0.04671
5150.93979,0.04168
5152.86826,0.03318
5154.79673,0.03064
5156.72519,0.03232
5158.65366,0.03534
5160.58213,0.04646
5162.51060,0.05964
5164.43907,0.06110
5166.36754,0.05687
5168.29601,0.05695
5170.22448,0.05649
5172.15294,0.05885
5174.08141,0.06980
5176.00988,0.06752
5177.93835,0.04933
5179.86682,0.04081
5181.79529,0.03589
5183.72376,0.02849
5185.65222,0.03333
5187.58069,0.04399
5189.50916,0.04847
5191.43763,0.04004
5193.36610,0.02283
5195.29457,0.01464
5197.22304,0.02356
5199.15151,0.04331
5201.07997,0.05485
5203.00844,0.05511
5204.93691,0.05397
5206.86538,0.04922
5208.79385,0.04144
5210.72232,0.03925
5212.65079,0.04982
5214.57925,0.06792
5216.50772,0.07660
5218.43619,0.07053
5220.36466,0.06357
5222.29313,0.06801
5224.22160,0.07677
5226.15007,0.07360
5228.07854,0.06282
5230.00700,0.06060
5231.93547,0.06160
5233.86394,0.06221
5235.79241,0.06535
5237.72088,0.06342
5239.64935,0.05952
5241.57782,0.05803
5243.50628,0.05174
5245.43475,0.04830
5247.36322,0.05942
5249.29169,0.06650
5251.22016,0.05143
5253.14863,0.03667
5255.07710,0.03857
5257.00556,0.03333
5258.93403,0.01446
5260.86250,0.00829
5262.79097,0.02182
5264.71944,0.04503
5266.64791,0.06858
5268.57638,0.07339
5270.50485,0.05816
5272.43331,0.05018
5274.36178,0.05357
5276.29025,0.05290
5278.21872,0.04594
5280.14719,0.02732
5282.07566,0.00161
5284.00413,0.00502
5285.93259,0.05017
5287.86106,0.09001
5289.78953,0.08697
5291.71800,0.05502
5293.64647,0.02992
5295.57494,0.01725
5297.50341,0.00857
5299.43188,0.01472
5301.36034,0.03865
5303.28881,0.05645
5305.21728,0.05557
5307.14575,0.05978
5309.07422,0.09108
5311.00269,0.11563
5312.93116,0.11012
5314.85962,0.09365
5316.78809,0.07498
5318.71656,0.06657
5320.64503,0.08101
5322.57350,0.10042
5324.50197,0.09487
5326.43044,0.06046
5328.35891,0.03046
5330.28737,0.02584
5332.21584,0.03794
5334.14431,0.05080
5336.07278,0.05194
5338.00125,0.04898
5339.92972,0.06193
5341.85819,0.08528
5343.78665,0.10354
5345.71512,0.12059
5347.64359,0.12854
5349.57206,0.10396
5351.50053,0.05569
5353.42900,0.02498
5355.35747,0.03311
5357.28594,0.05988
5359.21440,0.07990
5361.14287,0.08347
5363.07134,0.07663
5364.99981,0.06612
5366.92828,0.06712
5368.85675,0.07671
5370.78522,0.07599
5372.71368,0.06455
5374.64215,0.04698
5376.57062,0.04226
5378.49909,0.05667
5380.42756,0.05714
5382.35603,0.03808
5384.28450,0.02278
5386.21297,0.02047
5388.14143,0.02767
5390.06990,0.03796
5391.99837,0.03767
5393.92684,0.03675
5395.85531,0.05794
5397.78378,0.07979
5399.71225,0.07921
5401.64071,0.07508
5403.56918,0.07322
5405.49765,0.06007
5407.42612,0.04936
5409.35459,0.05352
5411.28306,0.06297
5413.21153,0.06400
5415.13999,0.06086
5417.06846,0.05685
5418.99693,0.04612
5420.92540,0.03752
5422.85387,0.03383
5424.78234,0.03876
5426.71081,0.05920
5428.63928,0.07199
5430.56774,0.06371
5432.49621,0.05252
5434.42468,0.05010
5436.35315,0.06344
5438.28162,0.08184
5440.21009,0.09485
5442.13856,0.10504
5444.06702,0.11746
5445.99549,0.13310
5447.92396,0.13277
5449.85243,0.09280
5451.78090,0.04219
5453.70937,0.03556
5455.63784,0.06445
5457.56631,0.07739
5459.49477,0.07010
5461.42324,0.05680
5463.35171,0.04064
5465.28018,0.04426
5467.20865,0.06070
5469.13712,0.06843
5471.06559,0.07745
5472.99405,0.07773
5474.92252,0.06469
5476.85099,0.05854
5478.77946,0.05115
5480.70793,0.05556
5482.63640,0.08206
5484.56487,0.09069
5486.49334,0.08260
5488.42180,0.09567
5490.35027,0.10264
5492.27874,0.07533
5494.20721,0.05667
5496.13568,0.06798
5498.06415,0.07848
5499.99262,0.07395
5501.92108,0.07185
5503.84955,0.06921
5505.77802,0.05619
5507.70649,0.03740
5509.63496,0.03070
5511.56343,0.05326
5513.49190,0.07494
5515.42037,0.07171
5517.34883,0.05970
5519.27730,0.04578
5521.20577,0.04365
5523.13424,0.06627
5525.06271,0.09300
5526.99118,0.10959
5528.91965,0.10900
5530.84811,0.07860
5532.77658,0.05849
5534.70505,0.08042
5536.63352,0.09881
5538.56199,0.08127
5540.49046,0.06359
5542.41893,0.06144
5544.34740,0.05457
5546.27586,0.04895
5548.20433,0.05503
5550.13280,0.06524
5552.06127,0.06006
5553.98974,0.03561
5555.91821,0.03200
5557.84668,0.06618
5559.77514,0.08729
5561.70361,0.07188
5563.63208,0.05633
5565.56055,0.06452
5567.48902,0.08805
5569.41749,0.08959
5571.34596,0.05408
5573.27443,0.03516
5575.20289,0.06576
5577.13136,0.10708
5579.05983,0.12688
5580.98830,0.11115
5582.91677,0.07056
5584.84524,0.04885
5586.77371,0.05478
5588.70217,0.06163
5590.63064,0.05613
5592.55911,0.04989
5594.48758,0.05200
5596.41605,0.05525
5598.34452,0.06122
5600.27299,0.07872
5602.20145,0.10296
5604.12992,0.11586
5606.05839,0.10907
5607.98686,0.08751
5609.91533,0.06163
5611.84380,0.05418
5613.77227,0.06485
5615.70074,0.08618
5617.62920,0.12769
5619.55767,0.15744
5621.48614,0.14505
5623.41461,0.10599
5625.34308,0.05767
5627.27155,0.02231
5629.20002,0.02273
5631.12848,0.05936
5633.05695,0.10002
5634.98542,0.10816
5636.91389,0.09668
5638.84236,0.08699
5640.77083,0.07504
5642.69930,0.06399
5644.62777,0.05568
5646.55623,0.04466
5648.48470,0.04717
5650.41317,0.08639
5652.34164,0.13095
5654.27011,0.12364
5656.19858,0.07968
5658.12705,0.05336
5660.05551,0.04061
5661.98398,0.02322
5663.91245,0.01680
5665.84092,0.03091
5667.76939,0.04806
5669.69786,0.03322
5671.62633,0.01188
5673.55480,0.04980
5675.48326,0.12417
5677.41173,0.14127
5679.34020,0.06894
5681.26867,-0.00106
5683.19714,0.00688
5685.12561,0.03855
5687.05408,0.05053
5688.98254,0.07131
5690.91101,0.09098
5692.83948,0.08258
5694.76795,0.05598
5696.69642,0.02863
5698.62489,0.02738
5700.55336,0.06191
5702.48183,0.09261
5704.41029,0.09154
5706.33876,0.08481
5708.26723,0.08494
5710.19570,0.07635
5712.12417,0.07389
5714.05264,0.08498
5715.98111,0.08231
5717.90957,0.05252
5719.83804,0.01829
5721.76651,0.02906
5723.69498,0.07278
5725.62345,0.08276
5727.55192,0.07272
5729.48039,0.09035
5731.40886,0.10570
5733.33732,0.09078
5735.26579,0.05658
5737.19426,0.03198
5739.12273,0.04612
5741.05120,0.06663
5742.97967,0.07722
5744.90814,0.10835
5746.83660,0.13970
5748.76507,0.14728
5750.69354,0.11704
5752.62201,0.05407
5754.55048,0.03414
5756.47895,0.07835
5758.40742,0.12048
5760.33588,0.11739
5762.26435,0.08972
5764.19282,0.07686
5766.12129,0.08173
5768.04976,0.07296
5769.97823,0.03648
5771.90670,0.00620
5773.83517,-0.00261
5775.76363,-0.00144
5777.69210,0.00836
5779.62057,0.01747
5781.54904,0.03226
5783.47751,0.07571
5785.40598,0.12854
5787.33445,0.13239
5789.26291,0.08975
5791.19138,0.07217
5793.11985,0.09375
5795.04832,0.10114
5796.97679,0.08747
5798.90526,0.07212
5800.83373,0.05806
5802.76220,0.06012
5804.69066,0.06281
5806.61913,0.04819
5808.54760,0.04465
5810.47607,0.07230
5812.40454,0.10176
5814.33301,0.10179
5816.26148,0.09912
5818.18994,0.10789
5820.11841,0.10120
5822.04688,0.07217
5823.97535,0.04552
5825.90382,0.04021
5827.83229,0.04782
5829.76076,0.05724
5831.68923,0.07433
5833.61769,0.10310
5835.54616,0.13889
5837.47463,0.16871
5839.40310,0.16487
5841.33157,0.12211
5843.26004,0.07318
5845.18851,0.05301
5847.11697,0.06842
5849.04544,0.09479
5850.97391,0.10683
5852.90238,0.11144
5854.83085,0.12280
5856.75932,0.12070
5858.68779,0.08664
5860.61626,0.05857
5862.54472,0.06972
5864.47319,0.08947
5866.40166,0.09020
5868.33013,0.08512
5870.25860,0.09402
5872.18707,0.11368
5874.11554,0.12624
5876.04400,0.13365
5877.97247,0.11929
5879.90094,0.08753
5881.82941,0.08542
5883.75788,0.08945
5885.68635,0.08723
5887.61482,0.11121
5889.54329,0.13505
5891.47175,0.12756
5893.40022,0.10218
5895.32869,0.06572
5897.25716,0.03060
5899.18563,0.02701
5901.11410,0.05346
5903.04257,0.08079
5904.97103,0.09059
5906.89950,0.09366
5908.82797,0.08700
5910.75644,0.06038
5912.68491,0.05664
5914.61338,0.08855
5916.54185,0.11387
5918.47032,0.12579
5920.39878,0.12290
5922.32725,0.09818
5924.25572,0.08688
5926.18419,0.11027
5928.11266,0.13335
5930.04113,0.13123
5931.96960,0.11139
5933.89806,0.08778
5935.82653,0.07114
5937.75500,0.06228
5939.68347,0.06058
5941.61194,0.05826
5943.54041,0.03777
5945.46888,0.00060
5947.39734,-0.01695
5949.32581,0.00536
5951.25428,0.03223
5953.18275,0.03240
5955.11122,0.01390
5957.03969,0.01468
5958.96816,0.04228
5960.89663,0.04523
5962.82509,0.04505
5964.75356,0.09375
5966.68203,0.14796
5968.61050,0.16644
5970.53897,0.17598
5972.46744,0.17591
5974.39591,0.15554
5976.32437,0.14227
5978.25284,0.13719
5980.18131,0.11982
5982.10978,0.09445
5984.03825,0.09152
5985.96672,0.11811
5987.89519,0.11602
5989.82366,0.07557
5991.75212,0.07744
5993.68059,0.11868
5995.60906,0.11635
5997.53753,0.07791
5999.46600,0.07063
6001.39447,0.09388
6003.32294,0.09739
6005.25140,0.07954
6007.17987,0.06867
6009.10834,0.05183
6011.03681,0.03549
6012.96528,0.03252
6014.89375,0.03006
6016.82222,0.04840
6018.75069,0.10729
6020.67915,0.15450
6022.60762,0.16063
6024.53609,0.16178
6026.46456,0.17339
6028.39303,0.19868
6030.32150,0.22694
6032.24997,0.20839
6034.17843,0.15780
6036.10690,0.12903
6038.03537,0.11385
6039.96384,0.12112
6041.89231,0.13475
6043.82078,0.10608
6045.74925,0.08086
6047.67772,0.09643
6049.60618,0.10308
6051.53465,0.08968
6053.46312,0.09774
6055.39159,0.13136
6057.32006,0.15310
6059.24853,0.11630
6061.17700,0.06096
6063.10546,0.07359
6065.03393,0.11611
6066.96240,0.13104
6068.89087,0.12930
6070.81934,0.11105
6072.74781,0.08671
6074.67628,0.08140
6076.60475,0.09796
6078.53321,0.10684
6080.46168,0.06901
6082.39015,0.03946
6084.31862,0.10239
6086.24709,0.15293
6088.17556,0.07581
6090.10403,0.00186
6092.03249,0.00569
6093.96096,0.02331
6095.88943,0.05214
6097.81790,0.06828
6099.74637,0.05458
6101.67484,0.06127
6103.60331,0.06430
6105.53177,0.04836
6107.46024,0.03767
6109.38871,0.01241
6111.31718,-0.01271
6113.24565,0.00094
6115.17412,0.04209
6117.10259,0.08146
6119.03106,0.10352
6120.95952,0.11203
6122.88799,0.13350
6124.81646,0.17366
6126.74493,0.19707
6128.67340,0.17429
6130.60187,0.12763
6132.53034,0.14358
6134.45880,0.22610
6136.38727,0.23277
6138.31574,0.12618
6140.24421,0.05624
6142.17268,0.08661
6144.10115,0.11533
6146.02962,0.08885
6147.95809,0.05291
6149.88655,0.06910
6151.81502,0.15125
6153.74349,0.22276
6155.67196,0.19986
6157.60043,0.11771
6159.52890,0.09410
6161.45737,0.13531
6163.38583,0.13383
6165.31430,0.09827
6167.24277,0.10715
6169.17124,0.14383
6171.09971,0.15360
6173.02818,0.11271
6174.95665,0.03721
6176.88512,-0.00454
6178.81358,0.04277
6180.74205,0.13021
6182.67052,0.15775
6184.59899,0.10203
6186.52746,0.03389
6188.45593,0.01097
6190.38440,0.02934
6192.31286,0.06024
6194.24133,0.08755
6196.16980,0.11526
6198.09827,0.13751
6200.02674,0.14429
6201.95521,0.13107
6203.88368,0.11549
6205.81215,0.12155
6207.74061,0.12262
6209.66908,0.10348
6211.59755,0.09143
6213.52602,0.08603
6215.45449,0.05567
6217.38296,0.01182
6219.31143,0.01719
6221.23989,0.08737
6223.16836,0.15178
6225.09683,0.15398
6227.02530,0.13356
6228.95377,0.12424
6230.88224,0.11293
6232.81071,0.11273
6234.73918,0.14049
6236.66764,0.17280
6238.59611,0.21110
6240.52458,0.23204
6242.45305,0.16144
6244.38152,0.05832
6246.30999,0.05177
6248.23846,0.09776
6250.16692,0.10111
6252.09539,0.07831
6254.02386,0.06157
6255.95233,0.05788
6257.88080,0.05863
6259.80927,0.06787
6261.73774,0.10594
6263.66621,0.10841
6265.59467,0.05117
6267.52314,0.01413
6269.45161,0.01157
6271.38008,0.04638
6273.30855,0.10585
6275.23702,0.09899
6277.16549,0.02926
6279.09395,0.00353
6281.02242,0.01038
6282.95089,0.02955
6284.87936,0.10647
6286.80783,0.16352
6288.73630,0.12246
6290.66477,0.06313
6292.59323,0.04623
6294.52170,0.02499
6296.45017,0.01004
6298.37864,0.03007
6300.30711,0.01609
6302.23558,-0.06739
6304.16405,-0.11523
6306.09252,-0.06629
6308.02098,0.01526
6309.94945,0.05932
6311.87792,0.06580
6313.80639,0.08625
6315.73486,0.14691
6317.66333,0.20648
6319.59180,0.20826
6321.52026,0.10733
6323.44873,-0.04191
6325.37720,-0.11423
6327.30567,-0.08105
6329.23414,0.01578
6331.16261,0.08990
6333.09108,0.10062
6335.01955,0.10574
6336.94801,0.16247
6338.87648,0.24966
6340.80495,0.24993
6342.73342,0.12245
6344.66189,-0.01187
6346.59036,-0.04570
6348.51883,0.00381
6350.44729,0.06358
6352.37576,0.08312
6354.30423,0.07603
6356.23270,0.07279
6358.16117,0.06974
6360.08964,0.08235
6362.01811,0.11733
6363.94658,0.13945
6365.87504,0.14944
6367.80351,0.19433
6369.73198,0.23365
6371.66045,0.16951
6373.58892,0.06626
6375.51739,0.03418
6377.44586,0.03007
6379.37432,0.04341
6381.30279,0.08221
6383.23126,0.08234
6385.15973,0.06580
6387.08820,0.08841
6389.01667,0.07913
6390.94514,0.05546
6392.87361,0.12192
6394.80207,0.19848
6396.73054,0.18329
6398.65901,0.12450
6400.58748,0.05104
6402.51595,0.00064
6404.44442,-0.00128
6406.37289,0.02218
6408.30135,0.07268
6410.22982,0.14033
6412.15829,0.18126
6414.08676,0.17155
6416.01523,0.13484
6417.94370,0.11760
6419.87217,0.10444
6421.80064,0.05933
6423.72910,0.02899
6425.65757,0.05528
6427.58604,0.14070
6429.51451,0.25328
6431.44298,0.26234
6433.37145,0.15462
6435.29992,0.08474
6437.22838,0.08690
6439.15685,0.10908
6441.08532,0.08794
6443.01379,0.01689
6444.94226,-0.00596
6446.87073,0.02647
6448.79920,0.03529
6450.72766,0.02699
6452.65613,0.03971
6454.58460,0.04224
6456.51307,0.00485
6458.44154,-0.02279
6460.37001,-0.01032
6462.29848,0.03360
6464.22695,0.10798
6466.15541,0.14381
6468.08388,0.11414
6470.01235,0.08252
6471.94082,0.02648
6473.86929,-0.03070
6475.79776,-0.00751
6477.72623,0.03596
6479.65469,0.04175
6481.58316,0.07711
6483.51163,0.16360
6485.44010,0.21386
6487.36857,0.17210
6489.29704,0.09283
6491.22551,0.06358
6493.15398,0.07416
6495.08244,0.10426
6497.01091,0.16449
6498.93938,0.17887
6500.86785,0.12545
6502.79632,0.12798
6504.72479,0.18324
6506.65326,0.18103
6508.58172,0.14709
6510.51019,0.13765
6512.43866,0.12726
6514.36713,0.10295
6516.29560,0.08103
6518.22407,0.08414
6520.15254,0.09667
6522.08101,0.08937
6524.00947,0.07490
6525.93794,0.04833
6527.86641,-0.00405
6529.79488,-0.01211
6531.72335,0.06699
6533.65182,0.13491
6535.58029,0.12655
6537.50875,0.11751
6539.43722,0.15419
6541.36569,0.18897
6543.29416,0.20013
6545.22263,0.18565
6547.15110,0.13164
6549.07957,0.05221
6551.00804,0.01283
6552.93650,0.05672
6554.86497,0.10818
6556.79344,0.11421
6558.72191,0.13487
6560.65038,0.16558
6562.57885,0.09321
6564.50732,-0.05174
6566.43578,-0.04135
6568.36425,0.09920
6570.29272,0.09756
6572.22119,-0.02830
6574.14966,-0.03985
6576.07813,0.03389
6578.00660,0.02173
6579.93507,-0.02784
6581.86353,0.01165
6583.79200,0.12188
6585.72047,0.19213
6587.64894,0.18373
6589.57741,0.14001
6591.50588,0.08125
6593.43435,0.01609
6595.36281,-0.00870
6597.29128,0.00449
6599.21975,0.02157
6601.14822,0.06966
6603.07669,0.10149
6605.00516,0.05367
6606.93363,0.01993
6608.86210,0.05205
6610.79056,0.09676
6612.71903,0.10165
6614.64750,0.04650
6616.57597,0.00267
6618.50444,0.01221
6620.43291,0.05824
6622.36138,0.15471
6624.28984,0.25016
6626.21831,0.27823
6628.14678,0.24159
6630.07525,0.16242
6632.00372,0.07219
6633.93219,0.02004
6635.86066,0.05572
6637.78912,0.08847
6639.71759,0.06170
6641.64606,0.09277
6643.57453,0.18080
6645.50300,0.21439
6647.43147,0.18019
6649.35994,0.13257
6651.28841,0.09999
6653.21687,0.07154
6655.14534,0.03831
6657.07381,0.05512
6659.00228,0.09883
6660.93075,0.06318
6662.85922,0.03655
6664.78769,0.08071
6666.71615,0.11228
6668.64462,0.11484
6670.57309,0.10311
6672.50156,0.07798
6674.43003,0.10758
6676.35850,0.21154
6678.28697,0.25972
6680.21544,0.15920
6682.14390,0.00363
6684.07237,-0.05417
6686.00084,0.00737
6687.92931,0.09357
6689.85778,0.14625
6691.78625,0.14576
6693.71472,0.13361
6695.64318,0.17233
6697.57165,0.18920
6699.50012,0.12109
6701.42859,0.09400
6703.35706,0.13240
6705.28553,0.13832
6707.21400,0.13038
6709.14247,0.13990
6711.07093,0.12050
6712.99940,0.04990
6714.92787,-0.02824
6716.85634,-0.05134
6718.78481,-0.03186
6720.71328,-0.04114
6722.64175,-0.07987
6724.57021,-0.07270
6726.49868,-0.02831
6728.42715,0.02940
6730.35562,0.08733
6732.28409,0.08459
6734.21256,0.06127
6736.14103,0.10255
6738.06950,0.16770
6739.99796,0.19107
6741.92643,0.19289
6743.85490,0.15465
6745.78337,0.04244
6747.71184,-0.02641
6749.64031,0.03322
6751.56878,0.10885
6753.49724,0.11607
6755.42571,0.12490
6757.35418,0.19850
6759.28265,0.25861
6761.21112,0.24037
6763.13959,0.17335
6765.06806,0.04132
6766.99653,-0.07228
6768.92499,-0.06607
6770.85346,-0.07597
6772.78193,-0.17212
6774.71040,-0.18855
6776.63887,-0.06769
6778.56734,0.04855
6780.49581,0.13084
6782.42427,0.18139
6784.35274,0.13233
6786.28121,0.00836
6788.20968,-0.07211
6790.13815,-0.03889
6792.06662,0.06357
6793.99509,0.14494
6795.92355,0.20768
6797.85202,0.26497
6799.78049,0.29537
6801.70896,0.24953
6803.63743,0.12301
6805.56590,0.04999
6807.49437,0.06514
6809.42284,0.06797
6811.35130,0.07502
6813.27977,0.14161
6815.20824,0.21824
6817.13671,0.23741
6819.06518,0.18974
6820.99365,0.14652
6822.92212,0.14145
6824.85058,0.05528
6826.77905,-0.09278
6828.70752,-0.05357
6830.63599,0.14890
6832.56446,0.22458
6834.49293,0.20065
6836.42140,0.16141
6838.34987,0.08308
6840.27833,0.00383
6842.20680,-0.02262
6844.13527,-0.00821
6846.06374,-0.01281
6847.99221,0.00013
6849.92068,0.05313
6851.84915,0.04093
6853.77761,-0.00960
6855.70608,-0.05387
6857.63455,-0.09086
6859.56302,-0.02663
6861.49149,0.12428
6863.41996,0.13092
6865.34843,0.01017
6867.27690,0.02714
6869.20536,0.16843
6871.13383,0.24231
6873.06230,0.21472
6874.99077,0.15172
6876.91924,0.10871
6878.84771,0.12968
6880.77618,0.19658
6882.70464,0.20221
6884.63311,0.12880
6886.56158,0.05228
6888.49005,0.03496
6890.41852,0.11056
6892.34699,0.17007
6894.27546,0.04612
6896.20393,-0.13597
6898.13239,-0.19893
6900.06086,-0.17672
6901.98933,-0.10170
6903.91780,0.01671
6905.84627,0.13028
6907.77474,0.17770
6909.70321,0.12515
6911.63167,0.03898
6913.56014,-0.01142
6915.48861,-0.00666
6917.41708,0.03591
6919.34555,0.06171
6921.27402,0.06241
6923.20249,0.08046
6925.13096,0.12553
6927.05942,0.15430
6928.98789,0.14057
6930.91636,0.14568
6932.84483,0.17603
6934.77330,0.15515
6936.70177,0.07028
6938.63024,-0.06105
6940.55870,-0.13332
6942.48717,-0.04263
6944.41564,0.06274
6946.34411,0.06904
6948.27258,0.05838
6950.20105,0.08421
6952.12952,0.11210
6954.05799,0.17779
6955.98645,0.28546
6957.91492,0.32725
6959.84339,0.23237
6961.77186,0.05397
6963.70033,-0.10751
6965.62880,-0.17978
6967.55727,-0.08443
6969.48573,0.06315
6971.41420,0.10916
6973.34267,0.09926
6975.27114,0.01798
6977.19961,-0.03091
6979.12808,0.03088
6981.05655,0.08345
6982.98501,0.15329
6984.91348,0.29912
6986.84195,0.40796
6988.77042,0.38387
6990.69889,0.27373
6992.62736,0.16495
6994.55583,0.05186
6996.48430,-0.03932
6998.41276,-0.05665
7000.34123,-0.04097
7002.26970,-0.02330
7004.19817,-0.02162
7006.12664,-0.00983
7008.05511,0.00533
7009.98358,-0.03187
7011.91204,-0.07138
7013.84051,-0.07744
7015.76898,-0.06855
7017.69745,-0.00181
7019.62592,0.15679
7021.55439,0.27270
7023.48286,0.18289
7025.41133,-0.00322
7027.33979,-0.00841
7029.26826,0.17924
7031.19673,0.28552
7033.12520,0.26739
7035.05367,0.15524
7036.98214,-0.01374
7038.91061,-0.07248
7040.83907,0.02580
7042.76754,0.17176
7044.69601,0.23041
7046.62448,0.17737
7048.55295,0.06596
7050.48142,-0.02912
7052.40989,-0.07725
7054.33836,-0.11843
7056.26682,-0.15306
7058.19529,-0.13525
7060.12376,-0.10390
7062.05223,-0.06421
7063.98070,0.00527
7065.90917,0.08208
7067.83764,0.14270
7069.76610,0.12415
7071.69457,0.10414
7073.62304,0.18353
7075.55151,0.22489
7077.47998,0.20070
7079.40845,0.15475
7081.33692,0.08617
7083.26539,0.07178
7085.19385,0.11942
7087.12232,0.19240
7089.05079,0.22976
7090.97926,0.13409
7092.90773,0.01448
7094.83620,-0.01246
7096.76467,-0.06383
7098.69313,-0.10982
7100.62160,-0.04981
7102.55007,-0.01148
7104.47854,-0.01302
7106.40701,0.03799
7108.33548,0.13338
7110.26395,0.21150
7112.19242,0.21414
7114.12088,0.14799
7116.04935,0.10230
7117.97782,0.12067
7119.90629,0.15007
7121.83476,0.09879
7123.76323,0.01956
7125.69170,0.07773
7127.62016,0.21413
7129.54863,0.21721
7131.47710,0.09230
7133.40557,-0.03554
7135.33404,-0.07982
7137.26251,-0.02125
7139.19098,0.07830
7141.11944,0.14768
7143.04791,0.17725
7144.97638,0.14406
7146.90485,0.05046
7148.83332,0.03093
7150.76179,0.17106
7152.69026,0.35502
7154.61873,0.45960
7156.54719,0.47453
7158.47566,0.33735
7160.40413,0.19104
7162.33260,0.24712
7164.26107,0.35608
7166.18954,0.28318
7168.11801,0.09057
7170.04647,-0.04508
7171.97494,-0.07034
7173.90341,-0.06916
7175.83188,-0.11052
7177.76035,-0.15751
7179.68882,-0.13555
7181.61729,-0.03561
7183.54576,0.09536
7185.47422,0.18125
7187.40269,0.12492
7189.33116,-0.06861
7191.25963,-0.21840
7193.18810,-0.23441
7195.11657,-0.20889
7197.04504,-0.20438
7198.97350,-0.18587
7200.90197,-0.04393
7202.83044,0.12953
7204.75891,0.04109
7206.68738,-0.15029
7208.61585,-0.15195
7210.54432,-0.08765
7212.47279,0.01597
7214.40125,0.08442
7216.32972,0.00566
7218.25819,-0.05345
7220.18666,0.01293
7222.11513,0.03453
7224.04360,0.01107
7225.97207,-0.01838
7227.90053,-0.04638
7229.82900,0.01265
7231.75747,0.17014
7233.68594,0.23043
7235.61441,0.22192
7237.54288,0.21456
7239.47135,0.20877
7241.39982,0.21324
7243.32828,0.13107
7245.25675,0.02635
7247.18522,0.01494
7249.11369,0.05994
7251.04216,0.10349
7252.97063,0.06586
7254.89910,0.00858
7256.82756,0.02713
7258.75603,0.00178
7260.68450,-0.10568
7262.61297,-0.15426
7264.54144,-0.12527
7266.46991,-0.03898
7268.39838,0.11937
7270.32685,0.29486
7272.25531,0.32520
7274.18378,0.14473
7276.11225,0.10648
7278.04072,0.32576
7279.96919,0.54229
7281.89766,0.43677
7283.82613,0.15046
7285.75459,0.02520
7287.68306,0.13583
7289.61153,0.17921
7291.54000,-0.04018
7293.46847,-0.23694
7295.39694,-0.18650
7297.32541,-0.08294
7299.25387,-0.03513
7301.18234,0.04124
7303.11081,0.08719
7305.03928,0.10011
7306.96775,0.18288
7308.89622,0.20751
7310.82469,0.11991
7312.75316,0.10050
7314.68162,0.14330
7316.61009,0.16619
7318.53856,0.17318
7320.46703,0.11234
7322.39550,-0.12473
7324.32397,-0.32628
7326.25244,-0.32368
7328.18090,-0.32437
7330.10937,-0.25782
7332.03784,0.05811
7333.96631,0.30658
7335.89478,0.35985
7337.82325,0.42853
7339.75172,0.52268
7341.68019,0.41931
7343.60865,0.30416
7345.53712,0.29842
7347.46559,0.23889
7349.39406,0.07453
7351.32253,0.00300
7353.25100,0.05850
7355.17947,0.14431
7357.10793,0.22029
7359.03640,0.16226
7360.96487,-0.04482
7362.89334,-0.21166
7364.82181,-0.23059
7366.75028,-0.13156
7368.67875,-0.02230
7370.60722,0.00098
7372.53568,-0.09471
7374.46415,-0.23165
7376.39262,-0.18709
7378.32109,-0.00763
7380.24956,0.14728
7382.17803,0.20583
7384.10650,0.17391
7386.03496,0.07631
7387.96343,-0.07039
7389.89190,-0.13200
7391.82037,-0.03839
7393.74884,0.12371
7395.67731,0.15557
7397.60578,0.02474
7399.53425,-0.05316
7401.46271,0.06901
7403.39118,0.29655
7405.31965,0.36884
7407.24812,0.29495
7409.17659,0.24772
7411.10506,0.19218
7413.03353,0.12115
7414.96199,0.16798
7416.89046,0.33472
7418.81893,0.43757
7420.74740,0.32984
7422.67587,0.03404
7424.60434,-0.19088
7426.53281,-0.12275
7428.46128,0.09862
7430.38974,0.17758
7432.31821,0.09890
7434.24668,0.05123
7436.17515,0.05515
7438.10362,0.07212
7440.03209,0.06913
7441.96056,0.08644
7443.88902,0.18049
7445.81749,0.24386
7447.74596,0.16858
7449.67443,-0.00588
7451.60290,-0.11121
7453.53137,-0.00541
7455.45984,0.14988
7457.38831,0.14916
7459.31677,0.08605
7461.24524,0.20067
7463.17371,0.24181
7465.10218,0.11218
7467.03065,0.09560
7468.95912,0.15072
7470.88759,0.11196
7472.81605,0.00119
7474.74452,-0.04885
7476.67299,0.03246
7478.60146,0.13640
7480.52993,0.13652
7482.45840,0.06986
7484.38687,0.01089
7486.31533,-0.02934
7488.24380,-0.07565
7490.17227,-0.11645
7492.10074,-0.13596
7494.02921,-0.08791
7495.95768,0.04173
7497.88615,0.15389
