399.19301,0.12770
401.12148,-0.45547
403.04995,-0.18706
404.97842,0.00345
406.90689,-0.00440
408.83536,-0.11502
410.76382,-0.16048
412.69229,-0.16629
414.62076,-0.16641
416.54923,-0.05200
418.47770,0.11920
420.40617,0.14513
422.33464,0.20245
424.26311,0.30062
426.19157,0.30136
428.12004,0.22333
430.04851,0.14444
431.97698,0.08771
433.90545,0.08546
435.83392,0.08451
437.76239,0.03923
439.69085,-0.01567
441.61932,-0.07085
443.54779,-0.09961
445.47626,-0.08248
447.40473,-0.01047
449.33320,0.06751
451.26167,0.12278
453.19013,0.16374
455.11860,0.18398
457.04707,0.17269
458.97554,0.13174
460.90401,0.09773
462.83248,0.06630
464.76095,0.07335
466.68942,0.12631
468.61788,0.19532
470.54635,0.27475
472.47482,0.37327
474.40329,0.36759
476.33176,0.18074
478.26023,0.04228
480.18870,0.01896
482.11716,0.08396
484.04563,0.10880
485.97410,0.06550
487.90257,0.04236
489.83104,0.08135
491.75951,0.14256
493.68798,0.12849
495.61645,0.05155
497.54491,-0.01341
499.47338,-0.00717
501.40185,0.06918
503.33032,0.15299
505.25879,0.17321
507.18726,0.12451
509.11573,0.09740
511.04419,0.14063
512.97266,0.18008
514.90113,0.16759
516.82960,0.15394
518.75807,0.15482
520.68654,0.14069
522.61501,0.13244
524.54348,0.17092
526.47194,0.20552
528.40041,0.18163
530.32888,0.14633
532.25735,0.12596
534.18582,0.13151
536.11429,0.14839
538.04276,0.13492
539.97122,0.09404
541.89969,0.07017
543.82816,0.09051
545.75663,0.11739
547.68510,0.12001
549.61357,0.10493
551.54204,0.04576
553.47051,-0.00314
555.39897,0.06550
557.32744,0.16871
559.25591,0.19236
561.18438,0.16435
563.11285,0.14173
565.04132,0.14482
566.96979,0.14925
568.89825,0.14708
570.82672,0.15138
572.75519,0.16230
574.68366,0.16625
576.61213,0.15234
578.54060,0.12337
580.46907,0.09671
582.39754,0.08943
584.32600,0.09785
586.25447,0.10826
588.18294,0.10108
590.11141,0.08390
592.03988,0.07899
593.96835,0.08773
595.89682,0.09854
597.82528,0.10306
599.75375,0.11247
601.68222,0.13491
603.61069,0.14948
605.53916,0.15140
607.46763,0.14866
609.39610,0.11999
611.32456,0.07971
613.25303,0.07177
615.18150,0.08503
617.10997,0.09064
619.03844,0.09297
620.96691,0.09311
622.89538,0.08137
624.82385,0.06889
626.75231,0.07745
628.68078,0.10441
630.60925,0.12886
632.53772,0.14974
634.46619,0.16701
636.39466,0.15813
638.32313,0.12914
640.25159,0.11828
642.18006,0.13189
644.10853,0.14136
646.03700,0.13032
647.96547,0.11570
649.89394,0.11475
651.82241,0.11596
653.75088,0.12019
655.67934,0.13659
657.60781,0.15005
659.53628,0.14536
661.46475,0.13292
663.39322,0.12273
665.32169,0.11649
667.25016,0.12874
669.17862,0.15862
671.10709,0.15541
673.03556,0.13547
674.96403,0.12817
676.89250,0.13716
678.82097,0.15204
680.74944,0.16739
682.67791,0.18042
684.60637,0.18154
686.53484,0.16836
688.46331,0.14861
690.39178,0.13501
692.32025,0.14239
694.24872,0.15758
696.17719,0.16121
698.10565,0.15263
700.03412,0.14280
701.96259,0.13872
703.89106,0.13485
705.81953,0.13555
707.74800,0.15617
709.67647,0.18920
711.60494,0.19922
713.53340,0.17759
715.46187,0.15582
717.39034,0.14567
719.31881,0.14029
721.24728,0.14840
723.17575,0.15733
725.10422,0.15081
727.03268,0.15030
728.96115,0.16065
730.88962,0.16192
732.81809,0.15428
734.74656,0.14897
736.67503,0.13880
738.60350,0.13011
740.53197,0.13574
742.46043,0.13934
744.38890,0.13658
746.31737,0.13468
748.24584,0.13411
750.17431,0.13884
752.10278,0.15056
754.03125,0.15782
755.95971,0.15144
757.88818,0.14236
759.81665,0.13947
761.74512,0.14058
763.67359,0.14312
765.60206,0.14869
767.53053,0.15569
769.45900,0.15892
771.38746,0.15609
773.31593,0.14746
775.24440,0.13412
777.17287,0.12238
779.10134,0.12600
781.02981,0.14089
782.95828,0.14486
784.88674,0.13654
786.81521,0.13243
788.74368,0.13182
790.67215,0.13279
792.60062,0.14046
794.52909,0.14827
796.45756,0.14678
798.38602,0.13425
800.31449,0.12003
802.24296,0.11854
804.17143,0.13548
806.09990,0.15648
808.02837,0.16081
809.95684,0.14616
811.88531,0.12956
813.81377,0.13041
815.74224,0.14048
817.67071,0.13914
819.59918,0.13609
821.52765,0.14091
823.45612,0.14050
825.38459,0.13648
827.31305,0.13908
829.24152,0.14976
831.16999,0.16381
833.09846,0.16596
835.02693,0.15070
836.95540,0.13235
838.88387,0.12769
840.81234,0.13670
842.74080,0.14595
844.66927,0.14689
846.59774,0.14055
848.52621,0.13678
850.45468,0.14162
852.38315,0.14642
854.31162,0.14968
856.24008,0.15895
858.16855,0.16452
860.09702,0.15881
862.02549,0.15291
863.95396,0.15453
865.88243,0.15589
867.81090,0.14407
869.73937,0.12844
871.66783,0.12973
873.59630,0.14444
875.52477,0.15230
877.45324,0.14532
879.38171,0.13954
881.31018,0.14568
883.23865,0.15057
885.16711,0.14582
887.09558,0.13733
889.02405,0.13057
890.95252,0.12775
892.88099,0.13122
894.80946,0.13650
896.73793,0.13899
898.66640,0.14644
900.59486,0.15462
902.52333,0.15112
904.45180,0.14370
906.38027,0.14202
908.30874,0.14642
910.23721,0.15330
912.16568,0.15163
914.09414,0.14118
916.02261,0.13420
917.95108,0.13447
919.87955,0.13843
921.80802,0.14312
923.73649,0.14938
925.66496,0.15582
927.59343,0.15781
929.52189,0.15547
931.45036,0.15199
933.37883,0.15056
935.30730,0.15011
937.23577,0.14745
939.16424,0.14440
941.09271,0.14052
943.02117,0.13407
944.94964,0.13453
946.87811,0.14349
948.80658,0.14722
950.73505,0.14736
952.66352,0.15061
954.59199,0.15194
956.52045,0.15397
958.44892,0.15785
960.37739,0.15715
962.30586,0.15548
964.23433,0.15260
966.16280,0.14421
968.09127,0.13864
970.01974,0.14232
971.94820,0.14793
973.87667,0.14610
975.80514,0.13880
977.73361,0.13932
979.66208,0.15109
981.59055,0.15966
983.51902,0.15898
985.44748,0.15198
987.37595,0.14171
989.30442,0.13577
991.23289,0.13796
993.16136,0.14262
995.08983,0.14284
997.01830,0.14207
998.94677,0.14556
1000.87523,0.15034
1002.80370,0.14655
1004.73217,0.13382
1006.66064,0.12856
1008.58911,0.13386
1010.51758,0.13981
1012.44605,0.14658
1014.37451,0.15467
1016.30298,0.15877
1018.23145,0.15763
1020.15992,0.15122
1022.08839,0.14234
1024.01686,0.13863
1025.94533,0.14547
1027.87380,0.15799
1029.80226,0.16169
1031.73073,0.15479
1033.65920,0.14545
1035.58767,0.13854
1037.51614,0.14343
1039.44461,0.16075
1041.37308,0.17138
1043.30154,0.16488
1045.23001,0.15393
1047.15848,0.15246
1049.08695,0.15829
1051.01542,0.15991
1052.94389,0.15871
1054.87236,0.15877
1056.80083,0.15890
1058.72929,0.16211
1060.65776,0.16550
1062.58623,0.16404
1064.51470,0.16185
1066.44317,0.16786
1068.37164,0.17708
1070.30011,0.17444
1072.22857,0.16311
1074.15704,0.15713
1076.08551,0.15369
1078.01398,0.14975
1079.94245,0.15512
1081.87092,0.16420
1083.79939,0.16508
1085.72786,0.16499
1087.65632,0.16867
1089.58479,0.16409
1091.51326,0.15303
1093.44173,0.15579
1095.37020,0.17021
1097.29867,0.17450
1099.22714,0.17300
1101.15560,0.18016
1103.08407,0.18596
1105.01254,0.18241
1106.94101,0.17838
1108.86948,0.17670
1110.79795,0.17135
1112.72642,0.16503
1114.65489,0.16433
1116.58335,0.16769
1118.51182,0.16743
1120.44029,0.15977
1122.36876,0.15616
1124.29723,0.16350
1126.22570,0.16842
1128.15417,0.16502
1130.08263,0.16571
1132.01110,0.16889
1133.93957,0.16199
1135.86804,0.15132
1137.79651,0.14904
1139.72498,0.15152
1141.65345,0.15226
1143.58191,0.15593
1145.51038,0.16279
1147.43885,0.16371
1149.36732,0.15895
1151.29579,0.15888
1153.22426,0.16496
1155.15273,0.16969
1157.08120,0.17050
1159.00966,0.16638
1160.93813,0.15856
1162.86660,0.15317
1164.79507,0.15446
1166.72354,0.16197
1168.65201,0.16834
1170.58048,0.16701
1172.50894,0.16211
1174.43741,0.15869
1176.36588,0.15449
1178.29435,0.15043
1180.22282,0.15134
1182.15129,0.15554
1184.07976,0.15869
1186.00823,0.16177
1187.93669,0.16666
1189.86516,0.17099
1191.79363,0.17114
1193.72210,0.16708
1195.65057,0.16311
1197.57904,0.16268
1199.50751,0.16332
1201.43597,0.16199
1203.36444,0.16062
1205.29291,0.15918
1207.22138,0.15809
1209.14985,0.16143
1211.07832,0.16577
1213.00679,0.16576
1214.93526,0.16450
1216.86372,0.16472
1218.79219,0.16291
1220.72066,0.15900
1222.64913,0.15985
1224.57760,0.16546
1226.50607,0.16812
1228.43454,0.16875
1230.36300,0.17164
1232.29147,0.17215
1234.21994,0.16893
1236.14841,0.16537
1238.07688,0.16150
1240.00535,0.16130
1241.93382,0.16667
1243.86229,0.17194
1245.79075,0.17289
1247.71922,0.17010
1249.64769,0.16817
1251.57616,0.16714
1253.50463,0.16397
1255.43310,0.16327
1257.36157,0.16745
1259.29003,0.16975
1261.21850,0.16539
1263.14697,0.15975
1265.07544,0.16138
1267.00391,0.16795
1268.93238,0.17034
1270.86085,0.16963
1272.78932,0.17144
1274.71778,0.17432
1276.64625,0.17443
1278.57472,0.17147
1280.50319,0.16798
1282.43166,0.16770
1284.36013,0.17329
1286.28860,0.17970
1288.21706,0.18121
1290.14553,0.18083
1292.07400,0.18010
1294.00247,0.17842
1295.93094,0.17587
1297.85941,0.17061
1299.78788,0.16331
1301.71634,0.15698
1303.64481,0.15434
1305.57328,0.15755
1307.50175,0.16504
1309.43022,0.17123
1311.35869,0.17346
1313.28716,0.17367
1315.21563,0.17467
1317.14409,0.17499
1319.07256,0.17301
1321.00103,0.17288
1322.92950,0.17372
1324.85797,0.17146
1326.78644,0.16922
1328.71491,0.17019
1330.64337,0.17124
1332.57184,0.17106
1334.50031,0.17303
1336.42878,0.17863
1338.35725,0.18172
1340.28572,0.17860
1342.21419,0.19030
1344.14266,0.20714
1346.07112,0.19383
1347.99959,0.16944
1349.92806,0.16336
1351.85653,0.16420
1353.78500,0.16513
1355.71347,0.16754
1357.64194,0.17010
1359.57040,0.17428
1361.49887,0.18062
1363.42734,0.18234
1365.35581,0.17768
1367.28428,0.17421
1369.21275,0.17489
1371.14122,0.17966
1373.06969,0.18551
1374.99815,0.18718
1376.92662,0.18457
1378.85509,0.18332
1380.78356,0.18226
1382.71203,0.17790
1384.64050,0.17512
1386.56897,0.17825
1388.49743,0.18251
1390.42590,0.18439
1392.35437,0.18770
1394.28284,0.19176
1396.21131,0.19435
1398.13978,0.19544
1400.06825,0.19211
1401.99672,0.18872
1403.92518,0.18991
1405.85365,0.18934
1407.78212,0.18338
1409.71059,0.17763
1411.63906,0.17232
1413.56753,0.16929
1415.49600,0.17384
1417.42446,0.18361
1419.35293,0.18990
1421.28140,0.19096
1423.20987,0.19139
1425.13834,0.18791
1427.06681,0.18332
1428.99528,0.18443
1430.92375,0.18635
1432.85221,0.18497
1434.78068,0.18614
1436.70915,0.18849
1438.63762,0.18473
1440.56609,0.17886
1442.49456,0.17552
1444.42303,0.17715
1446.35149,0.18394
1448.27996,0.19121
1450.20843,0.19195
1452.13690,0.18919
1454.06537,0.19139
1455.99384,0.20387
1457.92231,0.21161
1459.85077,0.19943
1461.77924,0.19177
1463.70771,0.19348
1465.63618,0.19443
1467.56465,0.19183
1469.49312,0.19673
1471.42159,0.21100
1473.35006,0.21970
1475.27852,0.21115
1477.20699,0.19779
1479.13546,0.19003
1481.06393,0.18748
1482.99240,0.18724
1484.92087,0.19301
1486.84934,0.20511
1488.77780,0.21183
1490.70627,0.20258
1492.63474,0.19358
1494.56321,0.19503
1496.49168,0.19902
1498.42015,0.18532
1500.34862,0.15963
1502.27709,0.14895
1504.20555,0.16505
1506.13402,0.21174
1508.06249,0.23662
1509.99096,0.21719
1511.91943,0.20333
1513.84790,0.20347
1515.77637,0.21435
1517.70483,0.22594
1519.63330,0.23762
1521.56177,0.24340
1523.49024,0.22723
1525.41871,0.21220
1527.34718,0.20631
1529.27565,0.20203
1531.20412,0.20249
1533.13258,0.20474
1535.06105,0.19882
1536.98952,0.19582
1538.91799,0.20889
1540.84646,0.23256
1542.77493,0.23225
1544.70340,0.21511
1546.63186,0.19960
1548.56033,0.19607
1550.48880,0.20216
1552.41727,0.20994
1554.34574,0.21692
1556.27421,0.22985
1558.20268,0.25039
1560.13115,0.22983
1562.05961,0.20360
1563.98808,0.19703
1565.91655,0.19761
1567.84502,0.20269
1569.77349,0.20642
1571.70196,0.20231
1573.63043,0.20267
1575.55889,0.20798
1577.48736,0.20040
1579.41583,0.18546
1581.34430,0.17594
1583.27277,0.17338
1585.20124,0.17720
1587.12971,0.18268
1589.05818,0.18592
1590.98664,0.18741
1592.91511,0.18874
1594.84358,0.18912
1596.77205,0.18539
1598.70052,0.18159
1600.62899,0.18325
1602.55746,0.18468
1604.48592,0.18286
1606.41439,0.18267
1608.34286,0.18272
1610.27133,0.18036
1612.19980,0.18112
1614.12827,0.18946
1616.05674,0.19948
1617.98521,0.19779
1619.91367,0.19385
1621.84214,0.19824
1623.77061,0.20334
1625.69908,0.20246
1627.62755,0.19874
1629.55602,0.19172
1631.48449,0.18944
1633.41295,0.20093
1635.34142,0.22155
1637.26989,0.22295
1639.19836,0.21152
1641.12683,0.20593
1643.05530,0.20807
1644.98377,0.21764
1646.91223,0.22488
1648.84070,0.21714
1650.76917,0.21452
1652.69764,0.22801
1654.62611,0.22930
1656.55458,0.21308
1658.48305,0.19597
1660.41152,0.18633
1662.33998,0.19463
1664.26845,0.20534
1666.19692,0.20951
1668.12539,0.21650
1670.05386,0.21806
1671.98233,0.21119
1673.91080,0.20867
1675.83926,0.20660
1677.76773,0.20337
1679.69620,0.20809
1681.62467,0.22241
1683.55314,0.23715
1685.48161,0.23223
1687.41008,0.22009
1689.33855,0.21312
1691.26701,0.20997
1693.19548,0.21352
1695.12395,0.22513
1697.05242,0.23433
1698.98089,0.23419
1700.90936,0.22662
1702.83783,0.21739
1704.76629,0.21446
1706.69476,0.21048
1708.62323,0.20195
1710.55170,0.19771
1712.48017,0.20211
1714.40864,0.21384
1716.33711,0.22264
1718.26558,0.21350
1720.19404,0.20058
1722.12251,0.19483
1724.05098,0.19163
1725.97945,0.18970
1727.90792,0.19168
1729.83639,0.19689
1731.76486,0.20557
1733.69332,0.21456
1735.62179,0.21033
1737.55026,0.20472
1739.47873,0.20535
1741.40720,0.20385
1743.33567,0.19989
1745.26414,0.20109
1747.19261,0.20621
1749.12107,0.20823
1751.04954,0.20288
1752.97801,0.19615
1754.90648,0.19339
1756.83495,0.19241
1758.76342,0.19387
1760.69189,0.20070
1762.62035,0.20281
1764.54882,0.19588
1766.47729,0.19423
1768.40576,0.20284
1770.33423,0.21440
1772.26270,0.21757
1774.19117,0.20746
1776.11964,0.19786
1778.04810,0.19638
1779.97657,0.19868
1781.90504,0.19842
1783.83351,0.19584
1785.76198,0.19190
1787.69045,0.18998
1789.61892,0.19613
1791.54738,0.20806
1793.47585,0.21135
1795.40432,0.20482
1797.33279,0.20027
1799.26126,0.20254
1801.18973,0.20458
1803.11820,0.19922
1805.04666,0.19169
1806.97513,0.18719
1808.90360,0.18733
1810.83207,0.18993
1812.76054,0.18614
1814.68901,0.17353
1816.61748,0.16871
1818.54595,0.17009
1820.47441,0.16454
1822.40288,0.17176
1824.33135,0.19184
1826.25982,0.19959
1828.18829,0.19938
1830.11676,0.19844
1832.04523,0.19491
1833.97369,0.19122
1835.90216,0.19018
1837.83063,0.19084
1839.75910,0.19149
1841.68757,0.19429
1843.61604,0.19817
1845.54451,0.19836
1847.47298,0.19616
1849.40144,0.19544
1851.32991,0.19439
1853.25838,0.19181
1855.18685,0.19068
1857.11532,0.19029
1859.04379,0.18678
1860.97226,0.18224
1862.90072,0.18202
1864.82919,0.18856
1866.75766,0.20064
1868.68613,0.20695
1870.61460,0.19785
1872.54307,0.18593
1874.47154,0.18168
1876.40001,0.18421
1878.32847,0.18751
1880.25694,0.18902
1882.18541,0.18981
1884.11388,0.18868
1886.04235,0.18752
1887.97082,0.19085
1889.89929,0.19302
1891.82775,0.18864
1893.75622,0.18491
1895.68469,0.18498
1897.61316,0.18540
1899.54163,0.18563
1901.47010,0.18591
1903.39857,0.18550
1905.32704,0.18632
1907.25550,0.18909
1909.18397,0.19117
1911.11244,0.18904
1913.04091,0.18423
1914.96938,0.18440
1916.89785,0.19008
1918.82632,0.19376
1920.75478,0.19534
1922.68325,0.19509
1924.61172,0.19006
1926.54019,0.18672
1928.46866,0.18918
1930.39713,0.19252
1932.32560,0.19297
1934.25407,0.19127
1936.18253,0.18932
1938.11100,0.18912
1940.03947,0.19180
1941.96794,0.19467
1943.89641,0.19446
1945.82488,0.19262
1947.75335,0.19086
1949.68181,0.18994
1951.61028,0.19066
1953.53875,0.19197
1955.46722,0.19337
1957.39569,0.19469
1959.32416,0.19438
1961.25263,0.19367
1963.18110,0.19435
1965.10956,0.19498
1967.03803,0.19321
1968.96650,0.18784
1970.89497,0.18260
1972.82344,0.18708
1974.75191,0.20395
1976.68038,0.21474
1978.60884,0.20622
1980.53731,0.19336
1982.46578,0.18923
1984.39425,0.18974
1986.32272,0.19006
1988.25119,0.18923
1990.17966,0.18748
1992.10812,0.18426
1994.03659,0.18164
1995.96506,0.18227
1997.89353,0.18333
1999.82200,0.18324
2001.75047,0.18452
2003.67894,0.18643
2005.60741,0.18619
2007.53587,0.18652
2009.46434,0.19032
2011.39281,0.19347
2013.32128,0.19374
2015.24975,0.19426
2017.17822,0.19401
2019.10669,0.19072
2021.03515,0.18795
2022.96362,0.18728
2024.89209,0.18789
2026.82056,0.19074
2028.74903,0.19316
2030.67750,0.19253
2032.60597,0.19084
2034.53444,0.18885
2036.46290,0.18762
2038.39137,0.18825
2040.31984,0.18894
2042.24831,0.18910
2044.17678,0.18912
2046.10525,0.19003
2048.03372,0.19234
2049.96218,0.19432
2051.89065,0.19463
2053.81912,0.19227
2055.74759,0.18832
2057.67606,0.18626
2059.60453,0.18664
2061.53300,0.18742
2063.46147,0.18773
2065.38993,0.18791
2067.31840,0.18880
2069.24687,0.19077
2071.17534,0.19346
2073.10381,0.19471
2075.03228,0.19291
2076.96075,0.18984
2078.88921,0.18669
2080.81768,0.18506
2082.74615,0.18653
2084.67462,0.18788
2086.60309,0.18722
2088.53156,0.18703
2090.46003,0.18673
2092.38850,0.18531
2094.31696,0.18708
2096.24543,0.19230
2098.17390,0.19448
2100.10237,0.19185
2102.03084,0.18978
2103.95931,0.19078
2105.88778,0.19201
2107.81624,0.19298
2109.74471,0.19429
2111.67318,0.19479
2113.60165,0.19457
2115.53012,0.19385
2117.45859,0.19312
2119.38706,0.19297
2121.31553,0.19168
2123.24399,0.18901
2125.17246,0.18840
2127.10093,0.18972
2129.02940,0.18955
2130.95787,0.19005
2132.88634,0.19393
2134.81481,0.19610
2136.74327,0.19397
2138.67174,0.19288
2140.60021,0.19371
2142.52868,0.19287
2144.45715,0.19125
2146.38562,0.19027
2148.31409,0.18979
2150.24255,0.18867
2152.17102,0.18590
2154.09949,0.18528
2156.02796,0.18801
2157.95643,0.18974
2159.88490,0.19073
2161.81337,0.19263
2163.74184,0.19316
2165.67030,0.19102
2167.59877,0.18838
2169.52724,0.18746
2171.45571,0.18720
2173.38418,0.18767
2175.31265,0.19056
2177.24112,0.19391
2179.16958,0.19544
2181.09805,0.19553
2183.02652,0.19529
2184.95499,0.19413
2186.88346,0.19123
2188.81193,0.19024
2190.74040,0.19223
2192.66887,0.19219
2194.59733,0.18978
2196.52580,0.18945
2198.45427,0.19134
2200.38274,0.19114
2202.31121,0.18843
2204.23968,0.18671
2206.16815,0.18715
2208.09661,0.18757
2210.02508,0.18599
2211.95355,0.18614
2213.88202,0.19071
2215.81049,0.19417
2217.73896,0.19294
2219.66743,0.19047
2221.59590,0.18863
2223.52436,0.18612
2225.45283,0.18538
2227.38130,0.18893
2229.30977,0.19363
2231.23824,0.19542
2233.16671,0.19342
2235.09518,0.18847
2237.02364,0.18437
2238.95211,0.18607
2240.88058,0.19167
2242.80905,0.19526
2244.73752,0.19443
2246.66599,0.19187
2248.59446,0.19200
2250.52293,0.19388
2252.45139,0.19266
2254.37986,0.18944
2256.30833,0.18925
2258.23680,0.19179
2260.16527,0.19411
2262.09374,0.19376
2264.02221,0.19086
2265.95067,0.18968
2267.87914,0.19102
2269.80761,0.19133
2271.73608,0.19072
2273.66455,0.19259
2275.59302,0.19541
2277.52149,0.19509
2279.44996,0.19187
2281.37842,0.18818
2283.30689,0.18667
2285.23536,0.18831
2287.16383,0.18949
2289.09230,0.18760
2291.02077,0.18776
2292.94924,0.19176
2294.87770,0.19396
2296.80617,0.19489
2298.73464,0.19545
2300.66311,0.19267
2302.59158,0.18982
2304.52005,0.18971
2306.44852,0.18992
2308.37699,0.19080
2310.30545,0.19427
2312.23392,0.19788
2314.16239,0.19827
2316.09086,0.19564
2318.01933,0.19551
2319.94780,0.20492
2321.87627,0.21441
2323.80473,0.21005
2325.73320,0.20296
2327.66167,0.20632
2329.59014,0.21120
2331.51861,0.20210
2333.44708,0.18935
2335.37555,0.19514
2337.30401,0.21797
2339.23248,0.24197
2341.16095,0.25080
2343.08942,0.23698
2345.01789,0.21447
2346.94636,0.20338
2348.87483,0.20364
2350.80330,0.20557
2352.73176,0.20036
2354.66023,0.19125
2356.58870,0.19562
2358.51717,0.21466
2360.44564,0.23864
2362.37411,0.25794
2364.30258,0.25597
2366.23104,0.22782
2368.15951,0.20208
2370.08798,0.20345
2372.01645,0.20969
2373.94492,0.20086
2375.87339,0.19223
2377.80186,0.19381
2379.73033,0.19708
2381.65879,0.19653
2383.58726,0.19314
2385.51573,0.18929
2387.44420,0.18682
2389.37267,0.18521
2391.30114,0.18382
2393.22961,0.18284
2395.15807,0.18279
2397.08654,0.18483
2399.01501,0.18792
2400.94348,0.18945
2402.87195,0.18939
2404.80042,0.18888
2406.72889,0.18818
2408.65736,0.18720
2410.58582,0.18718
2412.51429,0.18914
2414.44276,0.19018
2416.37123,0.18915
2418.29970,0.18998
2420.22817,0.19315
2422.15664,0.19532
2424.08510,0.19622
2426.01357,0.19633
2427.94204,0.19477
2429.87051,0.19326
2431.79898,0.19406
2433.72745,0.19478
2435.65592,0.19252
2437.58439,0.18898
2439.51285,0.18762
2441.44132,0.18887
2443.36979,0.18988
2445.29826,0.19009
2447.22673,0.19013
2449.15520,0.18724
2451.08367,0.18258
2453.01213,0.18264
2454.94060,0.18679
2456.86907,0.18846
2458.79754,0.18756
2460.72601,0.18810
2462.65448,0.19009
2464.58295,0.19134
2466.51142,0.19179
2468.43988,0.19258
2470.36835,0.19276
2472.29682,0.19242
2474.22529,0.19216
2476.15376,0.19079
2478.08223,0.18995
2480.01070,0.19098
2481.93916,0.19245
2483.86763,0.19380
2485.79610,0.19335
2487.72457,0.19215
2489.65304,0.19346
2491.58151,0.19591
2493.50998,0.19716
2495.43844,0.19549
2497.36691,0.19101
2499.29538,0.18757
2501.22385,0.18668
2503.15232,0.18708
2505.08079,0.18825
2507.00926,0.18989
2508.93773,0.19182
2510.86619,0.19335
2512.79466,0.19380
2514.72313,0.19453
2516.65160,0.19659
2518.58007,0.19790
2520.50854,0.19578
2522.43701,0.19210
2524.36547,0.19177
2526.29394,0.19363
2528.22241,0.19256
2530.15088,0.18937
2532.07935,0.18699
2534.00782,0.18603
2535.93629,0.18782
2537.86476,0.19129
2539.79322,0.19316
2541.72169,0.19354
2543.65016,0.19480
2545.57863,0.19682
2547.50710,0.19713
2549.43557,0.19616
2551.36404,0.19560
2553.29250,0.19426
2555.22097,0.19086
2557.14944,0.18727
2559.07791,0.18755
2561.00638,0.19142
2562.93485,0.19493
2564.86332,0.19718
2566.79179,0.19768
2568.72025,0.19566
2570.64872,0.19560
2572.57719,0.19998
2574.50566,0.20198
2576.43413,0.19964
2578.36260,0.19920
2580.29107,0.20045
2582.21953,0.19943
2584.14800,0.19763
2586.07647,0.19726
2588.00494,0.19661
2589.93341,0.19468
2591.86188,0.19360
2593.79035,0.19455
2595.71882,0.19623
2597.64728,0.19628
2599.57575,0.19364
2601.50422,0.19024
2603.43269,0.18826
2605.36116,0.18986
2607.28963,0.19423
2609.21810,0.19714
2611.14656,0.19834
2613.07503,0.19719
2615.00350,0.19366
2616.93197,0.19238
2618.86044,0.19349
2620.78891,0.19338
2622.71738,0.19281
2624.64585,0.19441
2626.57431,0.19482
2628.50278,0.19164
2630.43125,0.19125
2632.35972,0.19528
2634.28819,0.19746
2636.21666,0.19578
2638.14513,0.19306
2640.07359,0.19249
2642.00206,0.19416
2643.93053,0.19543
2645.85900,0.19626
2647.78747,0.19783
2649.71594,0.19976
2651.64441,0.20122
2653.57288,0.20070
2655.50134,0.19852
2657.42981,0.19815
2659.35828,0.20058
2661.28675,0.20217
2663.21522,0.20144
2665.14369,0.20099
2667.07216,0.20232
2669.00062,0.20373
2670.92909,0.20260
2672.85756,0.19955
2674.78603,0.19660
2676.71450,0.19485
2678.64297,0.19500
2680.57144,0.19425
2682.49990,0.19121
2684.42837,0.19102
2686.35684,0.19497
2688.28531,0.19733
2690.21378,0.19652
2692.14225,0.19474
2694.07072,0.19239
2695.99919,0.19134
2697.92765,0.19322
2699.85612,0.19591
2701.78459,0.19805
2703.71306,0.20046
2705.64153,0.20258
2707.57000,0.20269
2709.49847,0.20105
2711.42693,0.19927
2713.35540,0.19823
2715.28387,0.19817
2717.21234,0.19824
2719.14081,0.19852
2721.06928,0.20162
2722.99775,0.20718
2724.92622,0.21072
2726.85468,0.20991
2728.78315,0.20507
2730.71162,0.19820
2732.64009,0.19473
2734.56856,0.19749
2736.49703,0.20107
2738.42550,0.20046
2740.35396,0.19953
2742.28243,0.20157
2744.21090,0.20283
2746.13937,0.20250
2748.06784,0.20196
2749.99631,0.19966
2751.92478,0.19682
2753.85325,0.19571
2755.78171,0.19550
2757.71018,0.19722
2759.63865,0.20139
2761.56712,0.20437
2763.49559,0.20560
2765.42406,0.20873
2767.35253,0.21143
2769.28099,0.20730
2771.20946,0.20108
2773.13793,0.20144
2775.06640,0.20638
2776.99487,0.21008
2778.92334,0.20833
2780.85181,0.20289
2782.78028,0.19958
2784.70874,0.19964
2786.63721,0.20209
2788.56568,0.20534
2790.49415,0.20833
2792.42262,0.20920
2794.35109,0.20586
2796.27956,0.20256
2798.20802,0.20267
2800.13649,0.20397
2802.06496,0.20572
2803.99343,0.20630
2805.92190,0.20543
2807.85037,0.20617
2809.77884,0.20761
2811.70731,0.20854
2813.63577,0.20817
2815.56424,0.20527
2817.49271,0.20423
2819.42118,0.20737
2821.34965,0.20832
2823.27812,0.20484
2825.20659,0.20336
2827.13505,0.20554
2829.06352,0.20816
2830.99199,0.21025
2832.92046,0.21119
2834.84893,0.21175
2836.77740,0.21312
2838.70587,0.21410
2840.63433,0.21478
2842.56280,0.21553
2844.49127,0.21353
2846.41974,0.20929
2848.34821,0.20605
2850.27668,0.20491
2852.20515,0.20579
2854.13362,0.20551
2856.06208,0.20307
2857.99055,0.20232
2859.91902,0.20419
2861.84749,0.20619
2863.77596,0.20791
2865.70443,0.20951
2867.63290,0.20828
2869.56136,0.20367
2871.48983,0.20141
2873.41830,0.20506
2875.34677,0.20885
2877.27524,0.20796
2879.20371,0.20530
2881.13218,0.20403
2883.06065,0.20470
2884.98911,0.20575
2886.91758,0.20570
2888.84605,0.20677
2890.77452,0.21057
2892.70299,0.21339
2894.63146,0.21114
2896.55993,0.20713
2898.48839,0.20606
2900.41686,0.20692
2902.34533,0.20866
2904.27380,0.21035
2906.20227,0.21042
2908.13074,0.20876
2910.05921,0.20750
2911.98768,0.20885
2913.91614,0.20719
2915.84461,0.19927
2917.77308,0.19353
2919.70155,0.19420
2921.63002,0.19438
2923.55849,0.19036
2925.48696,0.18833
2927.41542,0.19201
2929.34389,0.19857
2931.27236,0.20400
2933.20083,0.20648
2935.12930,0.20653
2937.05777,0.20358
2938.98624,0.20182
2940.91471,0.20553
2942.84317,0.20956
2944.77164,0.20855
2946.70011,0.20470
2948.62858,0.20583
2950.55705,0.21204
2952.48552,0.21202
2954.41399,0.20623
2956.34245,0.20455
2958.27092,0.20690
2960.19939,0.21025
2962.12786,0.21162
2964.05633,0.21061
2965.98480,0.21107
2967.91327,0.20967
2969.84174,0.20581
2971.77020,0.20526
2973.69867,0.20765
2975.62714,0.20954
2977.55561,0.20807
2979.48408,0.20538
2981.41255,0.20659
2983.34102,0.20973
2985.26948,0.20997
2987.19795,0.20659
2989.12642,0.20411
2991.05489,0.20564
2992.98336,0.20700
2994.91183,0.20570
2996.84030,0.20448
2998.76877,0.20528
3000.69723,0.20804
3002.62570,0.21052
3004.55417,0.21068
3006.48264,0.20984
3008.41111,0.20880
3010.33958,0.20789
3012.26805,0.20539
3014.19651,0.19656
3016.12498,0.18614
3018.05345,0.18617
3019.98192,0.19758
3021.91039,0.21135
3023.83886,0.22116
3025.76733,0.22369
3027.69579,0.22082
3029.62426,0.21815
3031.55273,0.21508
3033.48120,0.21207
3035.40967,0.21259
3037.33814,0.21250
3039.26661,0.21019
3041.19508,0.21080
3043.12354,0.21210
3045.05201,0.20994
3046.98048,0.20850
3048.90895,0.20883
3050.83742,0.20763
3052.76589,0.20883
3054.69436,0.21301
3056.62282,0.21408
3058.55129,0.21393
3060.47976,0.21483
3062.40823,0.21408
3064.33670,0.21012
3066.26517,0.20378
3068.19364,0.20037
3070.12211,0.20105
3072.05057,0.20339
3073.97904,0.20591
3075.90751,0.20455
3077.83598,0.20275
3079.76445,0.20888
3081.69292,0.21681
3083.62139,0.21680
3085.54985,0.21490
3087.47832,0.21602
3089.40679,0.21516
3091.33526,0.21162
3093.26373,0.20764
3095.19220,0.20522
3097.12067,0.20449
3099.04914,0.20193
3100.97760,0.20008
3102.90607,0.20344
3104.83454,0.20936
3106.76301,0.21452
3108.69148,0.21721
3110.61995,0.21581
3112.54842,0.21262
3114.47688,0.21407
3116.40535,0.21878
3118.33382,0.21839
3120.26229,0.21458
3122.19076,0.21433
3124.11923,0.21648
3126.04770,0.21515
3127.97617,0.21019
3129.90463,0.20779
3131.83310,0.21059
3133.76157,0.21462
3135.69004,0.21750
3137.61851,0.22048
3139.54698,0.22091
3141.47545,0.21649
3143.40391,0.21304
3145.33238,0.21467
3147.26085,0.21685
3149.18932,0.21674
3151.11779,0.21624
3153.04626,0.21491
3154.97473,0.21230
3156.90320,0.20979
3158.83166,0.20650
3160.76013,0.20201
3162.68860,0.20084
3164.61707,0.20722
3166.54554,0.21879
3168.47401,0.22768
3170.40248,0.22871
3172.33094,0.22461
3174.25941,0.21926
3176.18788,0.21339
3178.11635,0.20978
3180.04482,0.21237
3181.97329,0.21709
3183.90176,0.21914
3185.83022,0.22065
3187.75869,0.22217
3189.68716,0.22013
3191.61563,0.21443
3193.54410,0.21112
3195.47257,0.21211
3197.40104,0.21447
3199.32951,0.21607
3201.25797,0.21331
3203.18644,0.20750
3205.11491,0.20551
3207.04338,0.20953
3208.97185,0.21363
3210.90032,0.21253
3212.82879,0.20875
3214.75725,0.20465
3216.68572,0.20076
3218.61419,0.20236
3220.54266,0.20972
3222.47113,0.21609
3224.39960,0.21966
3226.32807,0.22005
3228.25654,0.21746
3230.18500,0.21529
3232.11347,0.21399
3234.04194,0.21344
3235.97041,0.21404
3237.89888,0.21310
3239.82735,0.21231
3241.75582,0.21417
3243.68428,0.21570
3245.61275,0.21672
3247.54122,0.21794
3249.46969,0.21896
3251.39816,0.21687
3253.32663,0.20980
3255.25510,0.20562
3257.18357,0.20947
3259.11203,0.21665
3261.04050,0.22013
3262.96897,0.21627
3264.89744,0.20861
3266.82591,0.20413
3268.75438,0.20644
3270.68285,0.21230
3272.61131,0.21454
3274.53978,0.21241
3276.46825,0.21055
3278.39672,0.20908
3280.32519,0.20806
3282.25366,0.20862
3284.18213,0.21036
3286.11060,0.21149
3288.03906,0.21078
3289.96753,0.21154
3291.89600,0.21263
3293.82447,0.21059
3295.75294,0.20914
3297.68141,0.20916
3299.60988,0.20607
3301.53834,0.20348
3303.46681,0.20718
3305.39528,0.21268
3307.32375,0.21515
3309.25222,0.21523
3311.18069,0.21535
3313.10916,0.21557
3315.03763,0.21561
3316.96609,0.21783
3318.89456,0.21938
3320.82303,0.21728
3322.75150,0.21444
3324.67997,0.21160
3326.60844,0.21035
3328.53691,0.21505
3330.46537,0.22126
3332.39384,0.21903
3334.32231,0.20831
3336.25078,0.20206
3338.17925,0.20734
3340.10772,0.21474
3342.03619,0.21747
3343.96466,0.21535
3345.89312,0.20895
3347.82159,0.20553
3349.75006,0.20992
3351.67853,0.21568
3353.60700,0.21778
3355.53547,0.21697
3357.46394,0.21444
3359.39240,0.21294
3361.32087,0.21186
3363.24934,0.20956
3365.17781,0.20900
3367.10628,0.21208
3369.03475,0.21737
3370.96322,0.21977
3372.89168,0.21666
3374.82015,0.21424
3376.74862,0.21484
3378.67709,0.21500
3380.60556,0.21656
3382.53403,0.22017
3384.46250,0.22071
3386.39097,0.21622
3388.31943,0.21464
3390.24790,0.22040
3392.17637,0.22294
3394.10484,0.21704
3396.03331,0.21118
3397.96178,0.20816
3399.89025,0.20355
3401.81871,0.19953
3403.74718,0.19940
3405.67565,0.20158
3407.60412,0.20535
3409.53259,0.20689
3411.46106,0.20503
3413.38953,0.20342
3415.31800,0.20227
3417.24646,0.20350
3419.17493,0.20857
3421.10340,0.21288
3423.03187,0.21290
3424.96034,0.21074
3426.88881,0.20803
3428.81728,0.20419
3430.74574,0.20019
3432.67421,0.19558
3434.60268,0.19056
3436.53115,0.19123
3438.45962,0.19993
3440.38809,0.20908
3442.31656,0.21025
3444.24503,0.20576
3446.17349,0.20419
3448.10196,0.20225
3450.03043,0.19304
3451.95890,0.18570
3453.88737,0.18835
3455.81584,0.19309
3457.74431,0.19397
3459.67277,0.19478
3461.60124,0.19558
3463.52971,0.19667
3465.45818,0.20046
3467.38665,0.20037
3469.31512,0.19213
3471.24359,0.18729
3473.17206,0.19318
3475.10052,0.19885
3477.02899,0.19835
3478.95746,0.19753
3480.88593,0.19577
3482.81440,0.19155
3484.74287,0.18830
3486.67134,0.18550
3488.59980,0.18285
3490.52827,0.18314
3492.45674,0.18741
3494.38521,0.19270
3496.31368,0.19306
3498.24215,0.18856
3500.17062,0.18842
3502.09909,0.19321
3504.02755,0.19010
3505.95602,0.18064
3507.88449,0.17699
3509.81296,0.17682
3511.74143,0.17403
3513.66990,0.17186
3515.59837,0.17408
3517.52683,0.17640
3519.45530,0.17505
3521.38377,0.17374
3523.31224,0.17320
3525.24071,0.17372
3527.16918,0.17758
3529.09765,0.17859
3531.02611,0.17442
3532.95458,0.17216
3534.88305,0.17392
3536.81152,0.17708
3538.73999,0.17855
3540.66846,0.17823
3542.59693,0.17877
3544.52540,0.17952
3546.45386,0.17659
3548.38233,0.17190
3550.31080,0.17237
3552.23927,0.17505
3554.16774,0.17047
3556.09621,0.16095
3558.02468,0.15583
3559.95314,0.15736
3561.88161,0.16079
3563.81008,0.16717
3565.73855,0.18035
3567.66702,0.18554
3569.59549,0.17240
3571.52396,0.16068
3573.45243,0.15945
3575.38089,0.16205
3577.30936,0.16286
3579.23783,0.16225
3581.16630,0.15836
3583.09477,0.15498
3585.02324,0.16086
3586.95171,0.17332
3588.88017,0.17513
3590.80864,0.16848
3592.73711,0.16487
3594.66558,0.16325
3596.59405,0.16044
3598.52252,0.15713
3600.45099,0.15735
3602.37946,0.16016
3604.30792,0.16055
3606.23639,0.16064
3608.16486,0.16231
3610.09333,0.16341
3612.02180,0.16553
3613.95027,0.16842
3615.87874,0.17024
3617.80720,0.17332
3619.73567,0.17021
3621.66414,0.15500
3623.59261,0.14458
3625.52108,0.14831
3627.44955,0.16074
3629.37802,0.16454
3631.30649,0.15576
3633.23495,0.14922
3635.16342,0.14556
3637.09189,0.14509
3639.02036,0.14678
3640.94883,0.14595
3642.87730,0.14540
3644.80577,0.15358
3646.73423,0.17152
3648.66270,0.18405
3650.59117,0.16956
3652.51964,0.15094
3654.44811,0.14287
3656.37658,0.14131
3658.30505,0.13959
3660.23352,0.13571
3662.16198,0.13451
3664.09045,0.13705
3666.01892,0.13936
3667.94739,0.14438
3669.87586,0.15429
3671.80433,0.15732
3673.73280,0.15541
3675.66126,0.15010
3677.58973,0.13980
3679.51820,0.13312
3681.44667,0.12964
3683.37514,0.13017
3685.30361,0.13711
3687.23208,0.14910
3689.16055,0.15615
3691.08901,0.14503
3693.01748,0.13110
3694.94595,0.12682
3696.87442,0.13046
3698.80289,0.13823
3700.73136,0.14492
3702.65983,0.14414
3704.58829,0.13798
3706.51676,0.13480
3708.44523,0.13632
3710.37370,0.13618
3712.30217,0.13243
3714.23064,0.13257
3716.15911,0.13359
3718.08757,0.13445
3720.01604,0.13802
3721.94451,0.14027
3723.87298,0.13701
3725.80145,0.12989
3727.72992,0.12525
3729.65839,0.13008
3731.58686,0.14097
3733.51532,0.15329
3735.44379,0.15973
3737.37226,0.15213
3739.30073,0.14820
3741.22920,0.15248
3743.15767,0.15537
3745.08614,0.15140
3747.01460,0.14401
3748.94307,0.13926
3750.87154,0.14149
3752.80001,0.14338
3754.72848,0.14138
3756.65695,0.14396
3758.58542,0.14606
3760.51389,0.13830
3762.44235,0.13268
3764.37082,0.13307
3766.29929,0.13122
3768.22776,0.12910
3770.15623,0.12870
3772.08470,0.12395
3774.01317,0.11855
3775.94163,0.11950
3777.87010,0.12679
3779.79857,0.13336
3781.72704,0.13446
3783.65551,0.13450
3785.58398,0.13553
3787.51245,0.13347
3789.44092,0.12705
3791.36938,0.12225
3793.29785,0.12233
3795.22632,0.12562
3797.15479,0.13343
3799.08326,0.14689
3801.01173,0.15886
3802.94020,0.15485
3804.86866,0.14924
3806.79713,0.14775
3808.72560,0.13598
3810.65407,0.12329
3812.58254,0.12136
3814.51101,0.12875
3816.43948,0.13889
3818.36795,0.14645
3820.29641,0.14879
3822.22488,0.13825
3824.15335,0.12699
3826.08182,0.12242
3828.01029,0.12103
3829.93876,0.12227
3831.86723,0.12484
3833.79569,0.12672
3835.72416,0.13241
3837.65263,0.14395
3839.58110,0.14833
3841.50957,0.14110
3843.43804,0.13197
3845.36651,0.12778
3847.29498,0.12849
3849.22344,0.13272
3851.15191,0.14359
3853.08038,0.15644
3855.00885,0.14795
3856.93732,0.13486
3858.86579,0.13156
3860.79426,0.13537
3862.72272,0.13733
3864.65119,0.13234
3866.57966,0.13101
3868.50813,0.13725
3870.43660,0.14221
3872.36507,0.13765
3874.29354,0.12840
3876.22200,0.12351
3878.15047,0.12688
3880.07894,0.13426
3882.00741,0.13912
3883.93588,0.13804
3885.86435,0.12535
3887.79282,0.11199
3889.72129,0.11210
3891.64975,0.11977
3893.57822,0.12336
3895.50669,0.12064
3897.43516,0.11646
3899.36363,0.11690
3901.29210,0.12176
3903.22057,0.11988
3905.14903,0.11126
3907.07750,0.10793
3909.00597,0.10990
3910.93444,0.11035
3912.86291,0.10982
3914.79138,0.11357
3916.71985,0.11741
3918.64832,0.11517
3920.57678,0.11197
3922.50525,0.11133
3924.43372,0.11158
3926.36219,0.11205
3928.29066,0.11123
3930.21913,0.10924
3932.14760,0.11121
3934.07606,0.11393
3936.00453,0.10990
3937.93300,0.10419
3939.86147,0.10475
3941.78994,0.10824
3943.71841,0.10639
3945.64688,0.10441
3947.57535,0.10843
3949.50381,0.11023
3951.43228,0.10272
3953.36075,0.09410
3955.28922,0.09495
3957.21769,0.10406
3959.14616,0.11225
3961.07463,0.11491
3963.00309,0.11447
3964.93156,0.11437
3966.86003,0.11479
3968.78850,0.11434
3970.71697,0.11127
3972.64544,0.10581
3974.57391,0.10285
3976.50238,0.10598
3978.43084,0.11043
3980.35931,0.10921
3982.28778,0.10318
3984.21625,0.09843
3986.14472,0.09860
3988.07319,0.10532
3990.00166,0.11360
3991.93012,0.11231
3993.85859,0.10480
3995.78706,0.10383
3997.71553,0.10914
3999.64400,0.11333
4001.57247,0.11001
4003.50094,0.10163
4005.42941,0.09770
4007.35787,0.09808
4009.28634,0.09887
4011.21481,0.09830
4013.14328,0.09294
4015.07175,0.08771
4017.00022,0.09017
4018.92869,0.09557
4020.85715,0.09943
4022.78562,0.10425
4024.71409,0.10857
4026.64256,0.10827
4028.57103,0.10446
4030.49950,0.10228
4032.42797,0.09960
4034.35644,0.09137
4036.28490,0.08297
4038.21337,0.08137
4040.14184,0.08539
4042.07031,0.09067
4043.99878,0.09495
4045.92725,0.09898
4047.85572,0.10099
4049.78418,0.09755
4051.71265,0.09382
4053.64112,0.09325
4055.56959,0.09109
4057.49806,0.08840
4059.42653,0.08918
4061.35500,0.09371
4063.28346,0.09864
4065.21193,0.09762
4067.14040,0.09185
4069.06887,0.08713
4070.99734,0.08337
4072.92581,0.08173
4074.85428,0.08405
4076.78275,0.08778
4078.71121,0.08910
4080.63968,0.08739
4082.56815,0.08809
4084.49662,0.09425
4086.42509,0.10281
4088.35356,0.10540
4090.28203,0.09887
4092.21049,0.09208
4094.13896,0.08938
4096.06743,0.09015
4097.99590,0.09167
4099.92437,0.09284
4101.85284,0.09636
4103.78131,0.09860
4105.70978,0.09649
4107.63824,0.09270
4109.56671,0.09150
4111.49518,0.09541
4113.42365,0.10056
4115.35212,0.09991
4117.28059,0.09195
4119.20906,0.08467
4121.13752,0.08424
4123.06599,0.08705
4124.99446,0.08884
4126.92293,0.08923
4128.85140,0.08678
4130.77987,0.08059
4132.70834,0.07463
4134.63681,0.07347
4136.56527,0.07517
4138.49374,0.07705
4140.42221,0.08133
4142.35068,0.08581
4144.27915,0.08862
4146.20762,0.09203
4148.13609,0.09197
4150.06455,0.08628
4151.99302,0.07954
4153.92149,0.07738
4155.84996,0.08295
4157.77843,0.08957
4159.70690,0.08931
4161.63537,0.08476
4163.56384,0.08000
4165.49230,0.07613
4167.42077,0.07611
4169.34924,0.07961
4171.27771,0.08226
4173.20618,0.08313
4175.13465,0.08367
4177.06312,0.08447
4178.99158,0.08229
4180.92005,0.07708
4182.84852,0.07608
4184.77699,0.07994
4186.70546,0.08402
4188.63393,0.08524
4190.56240,0.08109
4192.49087,0.07421
4194.41933,0.07223
4196.34780,0.07738
4198.27627,0.08373
4200.20474,0.08717
4202.13321,0.08641
4204.06168,0.08036
4205.99015,0.07375
4207.91861,0.07215
4209.84708,0.07389
4211.77555,0.07378
4213.70402,0.07013
4215.63249,0.06835
4217.56096,0.07362
4219.48943,0.08038
4221.41789,0.08330
4223.34636,0.08197
4225.27483,0.07489
4227.20330,0.07003
4229.13177,0.07327
4231.06024,0.07544
4232.98871,0.07223
4234.91718,0.06672
4236.84564,0.06158
4238.77411,0.05992
4240.70258,0.06218
4242.63105,0.06407
4244.55952,0.06116
4246.48799,0.06015
4248.41646,0.06676
4250.34492,0.07342
4252.27339,0.07417
4254.20186,0.06873
4256.13033,0.06570
4258.05880,0.07146
4259.98727,0.07678
4261.91574,0.07489
4263.84421,0.06874
4265.77267,0.06544
4267.70114,0.06670
4269.62961,0.06533
4271.55808,0.06529
4273.48655,0.07317
4275.41502,0.07738
4277.34349,0.07366
4279.27195,0.07155
4281.20042,0.06898
4283.12889,0.06243
4285.05736,0.05857
4286.98583,0.06097
4288.91430,0.06491
4290.84277,0.06682
4292.77124,0.06636
4294.69970,0.06342
4296.62817,0.06416
4298.55664,0.06913
4300.48511,0.06609
4302.41358,0.05781
4304.34205,0.05801
4306.27052,0.05908
4308.19898,0.05179
4310.12745,0.05073
4312.05592,0.06280
4313.98439,0.07140
4315.91286,0.06800
4317.84133,0.06129
4319.76980,0.05718
4321.69827,0.05453
4323.62673,0.05092
4325.55520,0.04727
4327.48367,0.04589
4329.41214,0.04673
4331.34061,0.04573
4333.26908,0.03931
4335.19755,0.03398
4337.12601,0.03624
4339.05448,0.04245
4340.98295,0.04507
4342.91142,0.04618
4344.83989,0.05195
4346.76836,0.05462
4348.69683,0.05151
4350.62530,0.05179
4352.55376,0.05547
4354.48223,0.05455
4356.41070,0.04802
4358.33917,0.04208
4360.26764,0.04223
4362.19611,0.04993
4364.12458,0.05567
4366.05304,0.05203
4367.98151,0.04430
4369.90998,0.03693
4371.83845,0.03184
4373.76692,0.03325
4375.69539,0.04126
4377.62386,0.04604
4379.55232,0.04269
4381.48079,0.03700
4383.40926,0.03413
4385.33773,0.03909
4387.26620,0.04987
4389.19467,0.05614
4391.12314,0.05779
4393.05161,0.05840
4394.98007,0.05147
4396.90854,0.03906
4398.83701,0.03304
4400.76548,0.03422
4402.69395,0.03591
4404.62242,0.03294
4406.55089,0.02784
4408.47935,0.03022
4410.40782,0.03683
4412.33629,0.03532
4414.26476,0.03046
4416.19323,0.03213
4418.12170,0.03478
4420.05017,0.03411
4421.97864,0.03478
4423.90710,0.03589
4425.83557,0.03472
4427.76404,0.03533
4429.69251,0.03844
4431.62098,0.03647
4433.54945,0.02733
4435.47792,0.02076
4437.40638,0.02111
4439.33485,0.02052
4441.26332,0.01886
4443.19179,0.02536
4445.12026,0.03550
4447.04873,0.03534
4448.97720,0.02751
4450.90567,0.02555
4452.83413,0.02744
4454.76260,0.02550
4456.69107,0.02818
4458.61954,0.03711
4460.54801,0.03738
4462.47648,0.03181
4464.40495,0.03493
4466.33341,0.03810
4468.26188,0.03143
4470.19035,0.02654
4472.11882,0.02755
4474.04729,0.02668
4475.97576,0.02599
4477.90423,0.02537
4479.83270,0.01911
4481.76116,0.01156
4483.68963,0.01052
4485.61810,0.01621
4487.54657,0.02494
4489.47504,0.03608
4491.40351,0.04207
4493.33198,0.03265
4495.26044,0.02060
4497.18891,0.01857
4499.11738,0.01893
4501.04585,0.01880
4502.97432,0.01834
4504.90279,0.01591
4506.83126,0.01667
4508.75973,0.01914
4510.68819,0.01911
4512.61666,0.01841
4514.54513,0.01592
4516.47360,0.01114
4518.40207,0.00896
4520.33054,0.01265
4522.25901,0.01803
4524.18747,0.02264
4526.11594,0.02401
4528.04441,0.01874
4529.97288,0.01560
4531.90135,0.01921
4533.82982,0.02139
4535.75829,0.02050
4537.68676,0.02112
4539.61522,0.02097
4541.54369,0.01539
4543.47216,0.01016
4545.40063,0.01370
4547.32910,0.01896
4549.25757,0.01641
4551.18604,0.01161
4553.11450,0.00940
4555.04297,0.00958
4556.97144,0.01196
4558.89991,0.01297
4560.82838,0.01211
4562.75685,0.01120
4564.68532,0.00806
4566.61378,0.00095
4568.54225,-0.00304
4570.47072,-0.00029
4572.39919,0.00536
4574.32766,0.01391
4576.25613,0.01959
4578.18460,0.01816
4580.11307,0.01622
4582.04153,0.01752
4583.97000,0.02314
4585.89847,0.03075
4587.82694,0.03238
4589.75541,0.02428
4591.68388,0.01147
4593.61235,0.00565
4595.54081,0.01207
4597.46928,0.01970
4599.39775,0.02132
4601.32622,0.02633
4603.25469,0.03335
4605.18316,0.02860
4607.11163,0.01586
4609.04010,0.00338
4610.96856,-0.00886
4612.89703,-0.01240
4614.82550,-0.00287
4616.75397,0.00519
4618.68244,0.00403
4620.61091,0.00499
4622.53938,0.01121
4624.46784,0.01480
4626.39631,0.01731
4628.32478,0.02450
4630.25325,0.03097
4632.18172,0.02958
4634.11019,0.02515
4636.03866,0.02393
4637.96713,0.01984
4639.89559,0.00797
4641.82406,-0.00264
4643.75253,-0.00366
4645.68100,0.00195
4647.60947,0.00576
4649.53794,0.00565
4651.46641,0.00804
4653.39487,0.01076
4655.32334,0.00657
4657.25181,0.00351
4659.18028,0.01116
4661.10875,0.02009
4663.03722,0.02185
4664.96569,0.02085
4666.89416,0.01919
4668.82262,0.01697
4670.75109,0.01456
4672.67956,0.00948
4674.60803,0.00348
4676.53650,0.00224
4678.46497,0.00740
4680.39344,0.01515
4682.32190,0.01592
4684.25037,0.01165
4686.17884,0.01147
4688.10731,0.00990
4690.03578,0.00836
4691.96425,0.01062
4693.89272,0.00997
4695.82119,0.01195
4697.74965,0.01866
4699.67812,0.01768
4701.60659,0.01222
4703.53506,0.01572
4705.46353,0.02336
4707.39200,0.02309
4709.32047,0.02048
4711.24893,0.02732
4713.17740,0.03361
4715.10587,0.02867
4717.03434,0.01962
4718.96281,0.00884
4720.89128,-0.00087
4722.81975,-0.00455
4724.74821,-0.00457
4726.67668,0.00091
4728.60515,0.01282
4730.53362,0.02019
4732.46209,0.01982
4734.39056,0.02137
4736.31903,0.02077
4738.24750,0.01331
4740.17596,0.00506
4742.10443,-0.00274
4744.03290,-0.00761
4745.96137,-0.00850
4747.88984,-0.00150
4749.81831,0.01328
4751.74678,0.01794
4753.67524,0.01149
4755.60371,0.00866
4757.53218,0.00668
4759.46065,-0.00146
4761.38912,-0.00784
4763.31759,-0.00515
4765.24606,-0.00028
4767.17453,-0.00159
4769.10299,-0.00571
4771.03146,-0.00069
4772.95993,0.01444
4774.88840,0.02508
4776.81687,0.01828
4778.74534,0.00106
4780.67381,-0.00318
4782.60227,0.00304
4784.53074,0.00164
4786.45921,0.00032
4788.38768,0.00613
4790.31615,0.01027
4792.24462,0.00577
4794.17309,-0.00547
4796.10156,-0.01217
4798.03002,-0.00883
4799.95849,-0.00058
4801.88696,0.00290
4803.81543,-0.00631
4805.74390,-0.01627
4807.67237,-0.00733
4809.60084,0.00976
4811.52930,0.00944
4813.45777,-0.00377
4815.38624,-0.00666
4817.31471,0.00241
4819.24318,0.01110
4821.17165,0.01628
4823.10012,0.01391
4825.02859,0.00537
4826.95705,0.00152
4828.88552,0.00251
4830.81399,0.00190
4832.74246,0.00869
4834.67093,0.02630
4836.59940,0.03519
4838.52787,0.03022
4840.45633,0.01948
4842.38480,0.00241
4844.31327,-0.00881
4846.24174,0.00013
4848.17021,0.01380
4850.09868,0.01435
4852.02715,0.00658
4853.95562,0.00256
4855.88408,0.00815
4857.81255,0.01882
4859.74102,0.02879
4861.66949,0.03264
4863.59796,0.02986
4865.52643,0.02944
4867.45490,0.02980
4869.38336,0.02555
4871.31183,0.02183
4873.24030,0.02029
4875.16877,0.02190
4877.09724,0.02557
4879.02571,0.01867
4880.95418,0.00361
4882.88265,-0.00429
4884.81111,-0.00554
4886.73958,-0.00168
4888.66805,0.01053
4890.59652,0.02032
4892.52499,0.01210
4894.45346,-0.00019
4896.38193,0.00328
4898.31039,0.01147
4900.23886,0.01168
4902.16733,0.00677
4904.09580,0.00371
4906.02427,0.01184
4907.95274,0.02399
4909.88121,0.02350
4911.80967,0.01368
4913.73814,0.00408
4915.66661,-0.00195
4917.59508,-0.00334
4919.52355,-0.00267
4921.45202,0.00114
4923.38049,0.00116
4925.30896,-0.00629
4927.23742,-0.01024
4929.16589,-0.00991
4931.09436,-0.00482
4933.02283,0.00289
4934.95130,0.00423
4936.87977,0.00796
4938.80824,0.01323
4940.73670,0.00642
4942.66517,-0.00044
4944.59364,0.00295
4946.52211,0.00260
4948.45058,-0.00897
4950.37905,-0.01726
4952.30752,-0.00798
4954.23599,0.00622
4956.16445,0.00939
4958.09292,0.01549
4960.02139,0.03029
4961.94986,0.02978
4963.87833,0.01110
4965.80680,-0.00466
4967.73527,-0.01061
4969.66373,-0.00449
4971.59220,0.00884
4973.52067,0.00974
4975.44914,0.00002
4977.37761,-0.00157
4979.30608,0.00171
4981.23455,-0.00015
4983.16302,-0.00271
4985.09148,0.00436
4987.01995,0.01821
4988.94842,0.02245
4990.87689,0.01902
4992.80536,0.01612
4994.73383,0.00927
4996.66230,0.00508
4998.59076,0.01124
5000.51923,0.02581
5002.44770,0.04261
5004.37617,0.04322
5006.30464,0.02741
5008.23311,0.01770
5010.16158,0.01466
5012.09005,0.01453
5014.01851,0.02534
5015.94698,0.03455
5017.87545,0.03016
5019.80392,0.02191
5021.73239,0.02360
5023.66086,0.03446
5025.58933,0.03350
5027.51779,0.01411
5029.44626,-0.00322
5031.37473,-0.00052
5033.30320,0.01857
5035.23167,0.03058
5037.16014,0.02168
5039.08861,0.00477
5041.01708,-0.00155
5042.94554,0.00098
5044.87401,0.00300
5046.80248,0.01009
5048.73095,0.02083
5050.65942,0.02309
5052.58789,0.01873
5054.51636,0.01290
5056.44482,0.00096
5058.37329,-0.01567
5060.30176,-0.00947
5062.23023,0.02206
5064.15870,0.03342
5066.08717,0.01836
5068.01564,0.00727
5069.94410,0.00495
5071.87257,0.00191
5073.80104,-0.00166
5075.72951,0.00023
5077.65798,0.00340
5079.58645,0.00741
5081.51492,0.01512
5083.44339,0.01758
5085.37185,0.01916
5087.30032,0.02665
5089.22879,0.02770
5091.15726,0.02634
5093.08573,0.03367
5095.01420,0.03815
5096.94267,0.03790
5098.87113,0.04078
5100.79960,0.03890
5102.72807,0.02144
5104.65654,-0.00342
5106.58501,-0.00371
5108.51348,0.02527
5110.44195,0.04692
5112.37042,0.05595
5114.29888,0.06530
5116.22735,0.06426
5118.15582,0.05514
5120.08429,0.05146
5122.01276,0.05081
5123.94123,0.04231
5125.86970,0.02686
5127.79816,0.02660
5129.72663,0.04468
5131.65510,0.04648
5133.58357,0.03011
5135.51204,0.03156
5137.44051,0.04673
5139.36898,0.04443
5141.29745,0.02406
5143.22591,0.01462
5145.15438,0.02718
5147.08285,0.04030
5149.01132,0.04096
5150.93979,0.03013
5152.86826,0.02150
5154.79673,0.02819
5156.72519,0.02962
5158.65366,0.01539
5160.58213,0.00678
5162.51060,0.00726
5164.43907,0.01842
5166.36754,0.04081
5168.29601,0.05011
5170.22448,0.03945
5172.15294,0.03573
5174.08141,0.04775
5176.00988,0.05637
5177.93835,0.05846
5179.86682,0.05979
5181.79529,0.05922
5183.72376,0.06075
5185.65222,0.05922
5187.58069,0.04936
5189.50916,0.04194
5191.43763,0.04460
5193.36610,0.04811
5195.29457,0.04074
5197.22304,0.02974
5199.15151,0.02669
5201.07997,0.03036
5203.00844,0.03655
5204.93691,0.04101
5206.86538,0.04433
5208.79385,0.05498
5210.72232,0.06143
5212.65079,0.05444
5214.57925,0.04943
5216.50772,0.04681
5218.43619,0.03436
5220.36466,0.02415
5222.29313,0.03329
5224.22160,0.05369
5226.15007,0.06890
5228.07854,0.07562
5230.00700,0.07173
5231.93547,0.05253
5233.86394,0.03306
5235.79241,0.02879
5237.72088,0.02850
5239.64935,0.02452
5241.57782,0.02710
5243.50628,0.03925
5245.43475,0.04640
5247.36322,0.04159
5249.29169,0.03909
5251.22016,0.03648
5253.14863,0.03473
5255.07710,0.05523
5257.00556,0.08009
5258.93403,0.07870
5260.86250,0.06327
5262.79097,0.06192
5264.71944,0.07553
5266.64791,0.08267
5268.57638,0.07369
5270.50485,0.05377
5272.43331,0.04522
5274.36178,0.04877
5276.29025,0.03961
5278.21872,0.02478
5280.14719,0.02213
5282.07566,0.02213
5284.00413,0.01337
5285.93259,0.00283
5287.86106,0.01184
5289.78953,0.04111
5291.71800,0.05603
5293.64647,0.04812
5295.57494,0.04443
5297.50341,0.04757
5299.43188,0.04972
5301.36034,0.05115
5303.28881,0.04907
5305.21728,0.04972
5307.14575,0.05676
5309.07422,0.05991
5311.00269,0.06253
5312.93116,0.07469
5314.85962,0.08216
5316.78809,0.07268
5318.71656,0.06704
5320.64503,0.07884
5322.57350,0.09427
5324.50197,0.08876
5326.43044,0.06301
5328.35891,0.05576
5330.28737,0.06341
5332.21584,0.05546
5334.14431,0.05124
5336.07278,0.06436
5338.00125,0.06964
5339.92972,0.07005
5341.85819,0.08224
5343.78665,0.07685
5345.71512,0.04042
5347.64359,0.01254
5349.57206,0.01554
5351.50053,0.06157
5353.42900,0.11776
5355.35747,0.12458
5357.28594,0.10917
5359.21440,0.10493
5361.14287,0.08909
5363.07134,0.04376
5364.99981,0.00685
5366.92828,0.00614
5368.85675,0.01688
5370.78522,0.02948
5372.71368,0.04223
5374.64215,0.04369
5376.57062,0.03732
5378.49909,0.04115
5380.42756,0.05498
5382.35603,0.06728
5384.28450,0.06967
5386.21297,0.05842
5388.14143,0.04998
5390.06990,0.04849
5391.99837,0.05131
5393.92684,0.06489
5395.85531,0.06929
5397.78378,0.05504
5399.71225,0.03848
5401.64071,0.02791
5403.56918,0.03068
5405.49765,0.04452
5407.42612,0.05827
5409.35459,0.06683
5411.28306,0.06598
5413.21153,0.05539
5415.13999,0.05204
5417.06846,0.06154
5418.99693,0.06146
5420.92540,0.04582
5422.85387,0.03493
5424.78234,0.03784
5426.71081,0.04905
5428.63928,0.05886
5430.56774,0.05863
5432.49621,0.05124
5434.42468,0.05000
5436.35315,0.05794
5438.28162,0.06217
5440.21009,0.07001
5442.13856,0.09418
5444.06702,0.11205
5445.99549,0.09445
5447.92396,0.05704
5449.85243,0.03402
5451.78090,0.03756
5453.70937,0.06436
5455.63784,0.08985
5457.56631,0.08351
5459.49477,0.07131
5461.42324,0.08162
5463.35171,0.06840
5465.28018,0.03244
5467.20865,0.03634
5469.13712,0.06519
5471.06559,0.06235
5472.99405,0.03715
5474.92252,0.02967
5476.85099,0.03690
5478.77946,0.03144
5480.70793,0.03233
5482.63640,0.04992
5484.56487,0.05609
5486.49334,0.05640
5488.42180,0.06372
5490.35027,0.06143
5492.27874,0.06401
5494.20721,0.08199
5496.13568,0.09227
5498.06415,0.07195
5499.99262,0.03044
5501.92108,0.03050
5503.84955,0.07384
5505.77802,0.09250
5507.70649,0.06517
5509.63496,0.03950
5511.56343,0.04004
5513.49190,0.03980
5515.42037,0.02949
5517.34883,0.02674
5519.27730,0.04176
5521.20577,0.06229
5523.13424,0.06383
5525.06271,0.05155
5526.99118,0.05041
5528.91965,0.05572
5530.84811,0.05199
5532.77658,0.04467
5534.70505,0.04216
5536.63352,0.05159
5538.56199,0.07180
5540.49046,0.07920
5542.41893,0.07076
5544.34740,0.06853
5546.27586,0.06723
5548.20433,0.05850
5550.13280,0.04927
5552.06127,0.04326
5553.98974,0.04710
5555.91821,0.05267
5557.84668,0.04600
5559.77514,0.04316
5561.70361,0.06291
5563.63208,0.08797
5565.56055,0.09431
5567.48902,0.08218
5569.41749,0.07073
5571.34596,0.07549
5573.27443,0.08005
5575.20289,0.07758
5577.13136,0.08467
5579.05983,0.08415
5580.98830,0.05539
5582.91677,0.03203
5584.84524,0.05244
5586.77371,0.08872
5588.70217,0.09089
5590.63064,0.05684
5592.55911,0.02562
5594.48758,0.02744
5596.41605,0.04911
5598.34452,0.05071
5600.27299,0.02759
5602.20145,0.02233
5604.12992,0.05848
5606.05839,0.09619
5607.98686,0.10225
5609.91533,0.10194
5611.84380,0.11313
5613.77227,0.12276
5615.70074,0.11040
5617.62920,0.06879
5619.55767,0.03291
5621.48614,0.03400
5623.41461,0.05400
5625.34308,0.07052
5627.27155,0.07852
5629.20002,0.07123
5631.12848,0.07255
5633.05695,0.09931
5634.98542,0.10055
5636.91389,0.05397
5638.84236,0.00995
5640.77083,0.00378
5642.69930,0.02867
5644.62777,0.05813
5646.55623,0.08595
5648.48470,0.11638
5650.41317,0.13096
5652.34164,0.12615
5654.27011,0.11880
5656.19858,0.11104
5658.12705,0.09937
5660.05551,0.08120
5661.98398,0.06170
5663.91245,0.06277
5665.84092,0.08143
5667.76939,0.09160
5669.69786,0.08538
5671.62633,0.05996
5673.55480,0.03755
5675.48326,0.05499
5677.41173,0.09070
5679.34020,0.09830
5681.26867,0.07020
5683.19714,0.03578
5685.12561,0.03031
5687.05408,0.04213
5688.98254,0.04481
5690.91101,0.04143
5692.83948,0.05145
5694.76795,0.08155
5696.69642,0.09977
5698.62489,0.08634
5700.55336,0.07795
5702.48183,0.08999
5704.41029,0.09057
5706.33876,0.07065
5708.26723,0.04875
5710.19570,0.02518
5712.12417,0.00313
5714.05264,0.01480
5715.98111,0.05648
5717.90957,0.09288
5719.83804,0.12545
5721.76651,0.14090
5723.69498,0.10995
5725.62345,0.06433
5727.55192,0.04894
5729.48039,0.06933
5731.40886,0.11298
5733.33732,0.14785
5735.26579,0.14621
5737.19426,0.13517
5739.12273,0.11618
5741.05120,0.06761
5742.97967,0.04780
5744.90814,0.07502
5746.83660,0.08619
5748.76507,0.06599
5750.69354,0.06155
5752.62201,0.08384
5754.55048,0.09460
5756.47895,0.08884
5758.40742,0.08802
5760.33588,0.09917
5762.26435,0.10355
5764.19282,0.07689
5766.12129,0.05367
5768.04976,0.06380
5769.97823,0.06309
5771.90670,0.03996
5773.83517,0.02769
5775.76363,0.02622
5777.69210,0.03289
5779.62057,0.04811
5781.54904,0.05267
5783.47751,0.04909
5785.40598,0.07731
5787.33445,0.11627
5789.26291,0.10199
5791.19138,0.06435
5793.11985,0.04038
5795.04832,0.02745
5796.97679,0.04424
5798.90526,0.07783
5800.83373,0.09147
5802.76220,0.09555
5804.69066,0.10955
5806.61913,0.11817
5808.54760,0.12334
5810.47607,0.11639
5812.40454,0.08151
5814.33301,0.06539
5816.26148,0.09705
5818.18994,0.14296
5820.11841,0.16224
5822.04688,0.13662
5823.97535,0.10527
5825.90382,0.10056
5827.83229,0.08188
5829.76076,0.04002
5831.68923,0.02280
5833.61769,0.05509
5835.54616,0.11879
5837.47463,0.15949
5839.40310,0.14422
5841.33157,0.09309
5843.26004,0.06331
5845.18851,0.07418
5847.11697,0.07805
5849.04544,0.05717
5850.97391,0.04480
5852.90238,0.03420
5854.83085,0.00816
5856.75932,-0.00077
5858.68779,0.01854
5860.61626,0.04374
5862.54472,0.06299
5864.47319,0.06423
5866.40166,0.05628
5868.33013,0.06453
5870.25860,0.07889
5872.18707,0.07963
5874.11554,0.08313
5876.04400,0.08395
5877.97247,0.05003
5879.90094,0.02034
5881.82941,0.04609
5883.75788,0.08712
5885.68635,0.09693
5887.61482,0.09368
5889.54329,0.10697
5891.47175,0.12374
5893.40022,0.10944
5895.32869,0.07365
5897.25716,0.04594
5899.18563,0.05338
5901.11410,0.11215
5903.04257,0.14935
5904.97103,0.10657
5906.89950,0.04385
5908.82797,0.00424
5910.75644,-0.01034
5912.68491,0.00625
5914.61338,0.02306
5916.54185,0.02103
5918.47032,0.04066
5920.39878,0.08447
5922.32725,0.11059
5924.25572,0.09535
5926.18419,0.05393
5928.11266,0.02503
5930.04113,0.02516
5931.96960,0.05649
5933.89806,0.09617
5935.82653,0.11300
5937.75500,0.11964
5939.68347,0.13055
5941.61194,0.14158
5943.54041,0.14198
5945.46888,0.12175
5947.39734,0.09784
5949.32581,0.11897
5951.25428,0.17967
5953.18275,0.17417
5955.11122,0.09626
5957.03969,0.05425
5958.96816,0.05029
5960.89663,0.04116
5962.82509,0.04998
5964.75356,0.06231
5966.68203,0.06559
5968.61050,0.08577
5970.53897,0.09121
5972.46744,0.05421
5974.39591,0.02160
5976.32437,0.03912
5978.25284,0.10309
5980.18131,0.16512
5982.10978,0.18265
5984.03825,0.14586
5985.96672,0.07486
5987.89519,0.03257
5989.82366,0.05781
5991.75212,0.11566
5993.68059,0.15426
5995.60906,0.15482
5997.53753,0.14790
5999.46600,0.16621
6001.39447,0.18226
6003.32294,0.16095
6005.25140,0.12022
6007.17987,0.08272
6009.10834,0.06716
6011.03681,0.07836
6012.96528,0.07186
6014.89375,0.04463
6016.82222,0.03576
6018.75069,0.06648
6020.67915,0.11997
6022.60762,0.12957
6024.53609,0.10835
6026.46456,0.10331
6028.39303,0.07187
6030.32150,0.02202
6032.24997,0.01287
6034.17843,0.04622
6036.10690,0.09452
6038.03537,0.10582
6039.96384,0.06683
6041.89231,0.02702
6043.82078,0.02802
6045.74925,0.04959
6047.67772,0.05280
6049.60618,0.05747
6051.53465,0.09116
6053.46312,0.11062
6055.39159,0.08708
6057.32006,0.06394
6059.24853,0.06828
6061.17700,0.08996
6063.10546,0.10492
6065.03393,0.08267
6066.96240,0.06882
6068.89087,0.11961
6070.81934,0.18000
6072.74781,0.18993
6074.67628,0.16550
6076.60475,0.12092
6078.53321,0.07140
6080.46168,0.04909
6082.39015,0.06513
6084.31862,0.09810
6086.24709,0.10458
6088.17556,0.06986
6090.10403,0.04140
6092.03249,0.05327
6093.96096,0.07208
6095.88943,0.07853
6097.81790,0.10842
6099.74637,0.13809
6101.67484,0.11324
6103.60331,0.07370
6105.53177,0.06024
6107.46024,0.04812
6109.38871,0.02466
6111.31718,0.02277
6113.24565,0.05881
6115.17412,0.10077
6117.10259,0.14188
6119.03106,0.16730
6120.95952,0.13882
6122.88799,0.09390
6124.81646,0.06822
6126.74493,0.06022
6128.67340,0.05706
6130.60187,0.03676
6132.53034,0.02991
6134.45880,0.06389
6136.38727,0.08623
6138.31574,0.04176
6140.24421,-0.02034
6142.17268,-0.01423
6144.10115,0.02345
6146.02962,0.04680
6147.95809,0.07933
6149.88655,0.10183
6151.81502,0.11860
6153.74349,0.15744
6155.67196,0.16911
6157.60043,0.12726
6159.52890,0.06416
6161.45737,0.00217
6163.38583,-0.05920
6165.31430,-0.07562
6167.24277,-0.00352
6169.17124,0.07307
6171.09971,0.09608
6173.02818,0.13239
6174.95665,0.15650
6176.88512,0.08744
6178.81358,0.00005
6180.74205,-0.01056
6182.67052,0.03750
6184.59899,0.10470
6186.52746,0.15474
6188.45593,0.14859
6190.38440,0.09943
6192.31286,0.03922
6194.24133,-0.00581
6196.16980,-0.02227
6198.09827,0.00452
6200.02674,0.07880
6201.95521,0.13351
6203.88368,0.13018
6205.81215,0.11262
6207.74061,0.11422
6209.66908,0.11763
6211.59755,0.09317
6213.52602,0.07241
6215.45449,0.09442
6217.38296,0.11128
6219.31143,0.08484
6221.23989,0.09760
6223.16836,0.18224
6225.09683,0.20329
6227.02530,0.10420
6228.95377,0.01914
6230.88224,0.02194
6232.81071,0.03816
6234.73918,0.04101
6236.66764,0.06609
6238.59611,0.07419
6240.52458,0.04498
6242.45305,0.02237
6244.38152,0.02354
6246.30999,0.03741
6248.23846,0.06088
6250.16692,0.07270
6252.09539,0.06303
6254.02386,0.08198
6255.95233,0.16453
6257.88080,0.24676
6259.80927,0.22735
6261.73774,0.13980
6263.66621,0.11457
6265.59467,0.17283
6267.52314,0.19852
6269.45161,0.17827
6271.38008,0.17253
6273.30855,0.16764
6275.23702,0.16035
6277.16549,0.15838
6279.09395,0.15970
6281.02242,0.17661
6282.95089,0.19258
6284.87936,0.19694
6286.80783,0.16420
6288.73630,0.07791
6290.66477,-0.00291
6292.59323,-0.03707
6294.52170,-0.01961
6296.45017,0.04399
6298.37864,0.08172
6300.30711,0.06442
6302.23558,0.04658
6304.16405,0.03692
6306.09252,0.01564
6308.02098,0.02151
6309.94945,0.08888
6311.87792,0.14080
6313.80639,0.12769
6315.73486,0.11673
6317.66333,0.10617
6319.59180,0.07845
6321.52026,0.04959
6323.44873,0.01963
6325.37720,0.03176
6327.30567,0.07111
6329.23414,0.08107
6331.16261,0.10288
6333.09108,0.17380
6335.01955,0.23992
6336.94801,0.24212
6338.87648,0.17363
6340.80495,0.07942
6342.73342,0.02642
6344.66189,0.04913
6346.59036,0.11182
6348.51883,0.15949
6350.44729,0.19259
6352.37576,0.20471
6354.30423,0.18663
6356.23270,0.17865
6358.16117,0.19205
6360.08964,0.15532
6362.01811,0.04807
6363.94658,-0.03337
6365.87504,-0.02321
6367.80351,0.03736
6369.73198,0.07232
6371.66045,0.07374
6373.58892,0.08983
6375.51739,0.11718
6377.44586,0.14854
6379.37432,0.18322
6381.30279,0.15297
6383.23126,0.06470
6385.15973,0.02456
6387.08820,0.03127
6389.01667,0.04520
6390.94514,0.06181
6392.87361,0.10787
6394.80207,0.16030
6396.73054,0.13556
6398.65901,0.09729
6400.58748,0.13820
6402.51595,0.19011
6404.44442,0.16492
6406.37289,0.11323
6408.30135,0.12108
6410.22982,0.18569
6412.15829,0.21372
6414.08676,0.14951
6416.01523,0.07291
6417.94370,0.06438
6419.87217,0.09084
6421.80064,0.08397
6423.72910,0.03332
6425.65757,-0.01346
6427.58604,0.02318
6429.51451,0.12110
6431.44298,0.18159
6433.37145,0.19089
6435.29992,0.14539
6437.22838,0.03121
6439.15685,-0.03968
6441.08532,-0.00315
6443.01379,0.06789
6444.94226,0.08085
6446.87073,0.04891
6448.79920,0.07231
6450.72766,0.15229
6452.65613,0.15853
6454.58460,0.06052
6456.51307,-0.01388
6458.44154,-0.01156
6460.37001,-0.00817
6462.29848,0.00504
6464.22695,0.04496
6466.15541,0.06564
6468.08388,0.07431
6470.01235,0.08186
6471.94082,0.09778
6473.86929,0.14528
6475.79776,0.14340
6477.72623,0.04770
6479.65469,-0.02310
6481.58316,-0.00743
6483.51163,0.03924
6485.44010,0.05814
6487.36857,0.03828
6489.29704,0.00356
6491.22551,-0.04748
6493.15398,-0.09220
6495.08244,-0.05933
6497.01091,0.00224
6498.93938,0.00435
6500.86785,-0.04569
6502.79632,-0.07333
6504.72479,-0.03020
6506.65326,0.05356
6508.58172,0.11636
6510.51019,0.10584
6512.43866,0.06878
6514.36713,0.12051
6516.29560,0.21824
6518.22407,0.22263
6520.15254,0.15083
6522.08101,0.10826
6524.00947,0.11441
6525.93794,0.13428
6527.86641,0.13697
6529.79488,0.11037
6531.72335,0.08127
6533.65182,0.08330
6535.58029,0.11044
6537.50875,0.13049
6539.43722,0.13113
6541.36569,0.12512
6543.29416,0.14521
6545.22263,0.19395
6547.15110,0.21739
6549.07957,0.18247
6551.00804,0.11321
6552.93650,0.07419
6554.86497,0.04648
6556.79344,-0.00702
6558.72191,-0.00476
6560.65038,0.11524
6562.57885,0.24519
6564.50732,0.25723
6566.43578,0.16595
6568.36425,0.04412
6570.29272,-0.04508
6572.22119,-0.05529
6574.14966,-0.02417
6576.07813,0.01121
6578.00660,0.01763
6579.93507,-0.00891
6581.86353,-0.01142
6583.79200,-0.02858
6585.72047,-0.08808
6587.64894,-0.10179
6589.57741,-0.02988
6591.50588,0.08452
6593.43435,0.13699
6595.36281,0.07872
6597.29128,0.02704
6599.21975,0.02023
6601.14822,0.04020
6603.07669,0.07600
6605.00516,0.06660
6606.93363,0.05035
6608.86210,0.09661
6610.79056,0.14381
6612.71903,0.14015
6614.64750,0.11813
6616.57597,0.07837
6618.50444,0.02310
6620.43291,0.02663
6622.36138,0.10000
6624.28984,0.15740
6626.21831,0.13047
6628.14678,-0.01578
6630.07525,-0.14475
6632.00372,-0.06941
6633.93219,0.03526
6635.86066,0.00226
6637.78912,-0.04443
6639.71759,-0.01187
6641.64606,0.05675
6643.57453,0.08020
6645.50300,0.02925
6647.43147,0.03902
6649.35994,0.15188
6651.28841,0.22998
6653.21687,0.22278
6655.14534,0.17694
6657.07381,0.12986
6659.00228,0.08829
6660.93075,0.02901
6662.85922,-0.00575
6664.78769,0.00447
6666.71615,-0.01501
6668.64462,-0.03220
6670.57309,0.01150
6672.50156,0.03791
6674.43003,0.04704
6676.35850,0.04880
6678.28697,-0.00633
6680.21544,-0.02194
6682.14390,0.05090
6684.07237,0.07656
6686.00084,0.01461
6687.92931,0.04276
6689.85778,0.17554
6691.78625,0.19843
6693.71472,0.13813
6695.64318,0.10020
6697.57165,0.10951
6699.50012,0.14297
6701.42859,0.12638
6703.35706,0.06263
6705.28553,0.01557
6707.21400,0.00322
6709.14247,0.04411
6711.07093,0.08586
6712.99940,0.07353
6714.92787,0.06063
6716.85634,0.05604
6718.78481,0.00496
6720.71328,-0.03653
6722.64175,-0.01987
6724.57021,0.00989
6726.49868,0.04356
6728.42715,0.08430
6730.35562,0.10688
6732.28409,0.11635
6734.21256,0.11021
6736.14103,0.03185
6738.06950,-0.06944
6739.99796,-0.08553
6741.92643,0.00752
6743.85490,0.09158
6745.78337,0.06623
6747.71184,0.00470
6749.64031,-0.01740
6751.56878,-0.02787
6753.49724,-0.01855
6755.42571,0.02103
6757.35418,0.06978
6759.28265,0.15560
6761.21112,0.21784
6763.13959,0.14449
6765.06806,0.04899
6766.99653,0.06914
6768.92499,0.12510
6770.85346,0.08766
6772.78193,0.02620
6774.71040,0.04095
6776.63887,0.09317
6778.56734,0.11897
6780.49581,0.12290
6782.42427,0.14095
6784.35274,0.11758
6786.28121,0.02651
6788.20968,-0.02519
6790.13815,-0.00239
6792.06662,0.07795
6793.99509,0.12984
6795.92355,0.06619
6797.85202,-0.00316
6799.78049,0.03215
6801.70896,0.12615
6803.63743,0.18620
6805.56590,0.15655
6807.49437,0.08613
6809.42284,0.08053
6811.35130,0.13845
6813.27977,0.14934
6815.20824,0.08626
6817.13671,0.07386
6819.06518,0.12572
6820.99365,0.10696
6822.92212,-0.01589
6824.85058,-0.11376
6826.77905,-0.08426
6828.70752,0.03329
6830.63599,0.15538
6832.56446,0.24775
6834.49293,0.29784
6836.42140,0.26390
6838.34987,0.15045
6840.27833,0.07536
6842.20680,0.04405
6844.13527,-0.01440
6846.06374,-0.05008
6847.99221,-0.03562
6849.92068,-0.01315
6851.84915,-0.00637
6853.77761,-0.00464
6855.70608,0.02633
6857.63455,0.08006
6859.56302,0.08653
6861.49149,0.02057
6863.41996,-0.03783
6865.34843,-0.00930
6867.27690,0.08142
6869.20536,0.13386
6871.13383,0.12144
6873.06230,0.07346
6874.99077,0.03841
6876.91924,0.04213
6878.84771,0.01375
6880.77618,-0.01486
6882.70464,0.08117
6884.63311,0.20449
6886.56158,0.23969
6888.49005,0.21445
6890.41852,0.14875
6892.34699,0.07865
6894.27546,0.06067
6896.20393,0.01789
6898.13239,-0.05658
6900.06086,-0.04507
6901.98933,0.02936
6903.91780,0.06969
6905.84627,0.07683
6907.77474,0.07434
6909.70321,0.03445
6911.63167,0.06342
6913.56014,0.15570
6915.48861,0.12053
6917.41708,-0.01919
6919.34555,-0.10523
6921.27402,-0.06588
6923.20249,-0.01309
6925.13096,-0.02790
6927.05942,0.00851
6928.98789,0.18238
6930.91636,0.30765
6932.84483,0.22240
6934.77330,0.11317
6936.70177,0.05378
6938.63024,-0.05140
6940.55870,-0.13297
6942.48717,-0.06264
6944.41564,0.03482
6946.34411,0.06494
6948.27258,0.10159
6950.20105,0.12836
6952.12952,0.10570
6954.05799,0.10201
6955.98645,0.12246
6957.91492,0.06794
6959.84339,-0.02114
6961.77186,-0.03702
6963.70033,0.00453
6965.62880,0.04371
6967.55727,0.05313
6969.48573,0.08919
6971.41420,0.19894
6973.34267,0.23435
6975.27114,0.13778
6977.19961,0.07895
6979.12808,0.10865
6981.05655,0.16502
6982.98501,0.23604
6984.91348,0.27789
6986.84195,0.16949
6988.77042,-0.02550
6990.69889,-0.14020
6992.62736,-0.17217
6994.55583,-0.10886
6996.48430,0.05444
6998.41276,0.14728
7000.34123,0.10255
7002.26970,0.03938
7004.19817,0.00490
7006.12664,0.00028
7008.05511,-0.03364
7009.98358,-0.09176
7011.91204,-0.10222
7013.84051,-0.03676
7015.76898,0.06413
7017.69745,0.14561
7019.62592,0.18105
7021.55439,0.12160
7023.48286,0.00775
7025.41133,-0.05258
7027.33979,-0.10678
7029.26826,-0.14757
7031.19673,-0.03254
7033.12520,0.14313
7035.05367,0.17601
7036.98214,0.10154
7038.91061,0.01837
7040.83907,-0.10049
7042.76754,-0.18878
7044.69601,-0.14660
7046.62448,0.03720
7048.55295,0.22897
7050.48142,0.22563
7052.40989,0.09377
7054.33836,0.00401
7056.26682,0.03127
7058.19529,0.09138
7060.12376,0.05112
7062.05223,-0.04379
7063.98070,-0.11363
7065.90917,-0.08864
7067.83764,0.02871
7069.76610,0.14456
7071.69457,0.20308
7073.62304,0.15005
7075.55151,0.00971
7077.47998,-0.09157
7079.40845,-0.12757
7081.33692,-0.12002
7083.26539,-0.06754
7085.19385,-0.01998
7087.12232,0.00216
7089.05079,0.03224
7090.97926,0.06399
7092.90773,0.03801
7094.83620,0.00176
7096.76467,0.05217
7098.69313,0.11655
7100.62160,0.13943
7102.55007,0.21062
7104.47854,0.29690
7106.40701,0.27579
7108.33548,0.16673
7110.26395,0.11242
7112.19242,0.14834
7114.12088,0.17813
7116.04935,0.12633
7117.97782,0.01850
7119.90629,0.01231
7121.83476,0.15961
7123.76323,0.24865
7125.69170,0.14148
7127.62016,0.00804
7129.54863,-0.00729
7131.47710,0.11510
7133.40557,0.30531
7135.33404,0.30889
7137.26251,0.11711
7139.19098,-0.04275
7141.11944,-0.09277
7143.04791,-0.03689
7144.97638,0.08922
7146.90485,0.05383
7148.83332,-0.15767
7150.76179,-0.23294
7152.69026,-0.11166
7154.61873,-0.03687
7156.54719,-0.06653
7158.47566,-0.06296
7160.40413,-0.04744
7162.33260,-0.12264
7164.26107,-0.15160
7166.18954,-0.04649
7168.11801,0.08779
7170.04647,0.21221
7171.97494,0.21386
7173.90341,0.06322
7175.83188,-0.05450
7177.76035,-0.05625
7179.68882,-0.05970
7181.61729,-0.01752
7183.54576,0.11604
7185.47422,0.09935
7187.40269,-0.04780
7189.33116,-0.08361
7191.25963,0.06483
7193.18810,0.20058
7195.11657,0.19101
7197.04504,0.09969
7198.97350,0.05613
7200.90197,0.08093
7202.83044,0.12834
7204.75891,0.20066
7206.68738,0.20056
7208.61585,0.13821
7210.54432,0.13442
7212.47279,0.19530
7214.40125,0.19037
7216.32972,-0.07061
7218.25819,-0.42849
7220.18666,-0.40714
7222.11513,-0.15392
7224.04360,0.04447
7225.97207,0.09131
7227.90053,0.12125
7229.82900,0.25643
7231.75747,0.37399
7233.68594,0.35629
7235.61441,0.25878
7237.54288,0.19137
7239.47135,0.28038
7241.39982,0.40147
7243.32828,0.24518
7245.25675,-0.00151
7247.18522,0.04078
7249.11369,0.23451
7251.04216,0.33172
7252.97063,0.29611
7254.89910,0.19542
7256.82756,0.13052
7258.75603,0.15002
7260.68450,0.13906
7262.61297,-0.04607
7264.54144,-0.20030
7266.46991,-0.16068
7268.39838,-0.02727
7270.32685,0.17790
7272.25531,0.32461
7274.18378,0.24455
7276.11225,0.09797
7278.04072,-0.04879
7279.96919,-0.07698
7281.89766,0.01229
7283.82613,0.00640
7285.75459,0.01879
7287.68306,0.09671
7289.61153,0.16229
7291.54000,0.18605
7293.46847,0.12106
7295.39694,0.01670
7297.32541,0.01149
7299.25387,0.08576
7301.18234,0.14743
7303.11081,0.19520
7305.03928,0.16412
7306.96775,-0.06020
7308.89622,-0.26558
7310.82469,-0.20504
7312.75316,-0.16608
7314.68162,-0.22657
7316.61009,-0.17542
7318.53856,0.03264
7320.46703,0.22704
7322.39550,0.26462
7324.32397,0.13559
7326.25244,0.05408
7328.18090,0.05335
7330.10937,-0.04432
7332.03784,-0.15317
7333.96631,-0.02228
7335.89478,0.19643
7337.82325,0.33501
7339.75172,0.42410
7341.68019,0.32795
7343.60865,0.16111
7345.53712,0.13947
7347.46559,0.15230
7349.39406,0.04149
7351.32253,-0.10838
7353.25100,-0.08586
7355.17947,0.08487
7357.10793,0.19800
7359.03640,0.17440
7360.96487,0.06525
7362.89334,-0.05151
7364.82181,-0.06467
7366.75028,-0.00942
7368.67875,-0.02302
7370.60722,-0.12882
7372.53568,-0.20197
7374.46415,-0.09512
7376.39262,0.08104
7378.32109,0.06458
7380.24956,0.06779
7382.17803,0.10094
7384.10650,-0.01976
7386.03496,-0.04628
7387.96343,0.14804
7389.89190,0.26383
7391.82037,0.27099
7393.74884,0.30430
7395.67731,0.38797
7397.60578,0.41325
7399.53425,0.35717
7401.46271,0.28356
7403.39118,0.19280
7405.31965,0.11805
7407.24812,0.05194
7409.17659,0.00385
7411.10506,0.06761
7413.03353,0.14391
7414.96199,0.08477
7416.89046,-0.08128
7418.81893,-0.20167
7420.74740,-0.13697
7422.67587,-0.01039
7424.60434,0.09306
7426.53281,0.18326
7428.46128,0.24671
7430.38974,0.20564
7432.31821,0.06643
7434.24668,-0.00379
7436.17515,-0.03228
7438.10362,-0.07636
7440.03209,0.03686
7441.96056,0.21099
7443.88902,0.16609
7445.81749,0.02167
7447.74596,-0.05360
7449.67443,-0.12289
7451.60290,-0.15403
7453.53137,-0.14872
7455.45984,-0.15625
7457.38831,-0.07904
7459.31677,0.09097
7461.24524,0.23683
7463.17371,0.31800
7465.10218,0.39624
7467.03065,0.42200
7468.95912,0.33619
7470.88759,0.20598
7472.81605,0.04984
7474.74452,-0.02172
7476.67299,0.24226
7478.60146,0.64962
7480.52993,0.55623
7482.45840,0.02256
7484.38687,-0.26993
7486.31533,-0.17680
7488.24380,0.01828
7490.17227,0.01847
7492.10074,-0.03243
7494.02921,0.05313
7495.95768,0.11388
7497.88615,0.08456
