399.19301,0.51593
401.12148,0.03327
403.04995,-0.18924
404.97842,-0.18395
406.90689,0.01402
408.83536,0.22554
410.76382,0.25397
412.69229,0.11012
414.62076,0.03001
416.54923,0.10647
418.47770,0.27219
420.40617,0.26931
422.33464,0.09215
424.26311,-0.03300
426.19157,0.05157
428.12004,0.23341
430.04851,0.31004
431.97698,0.29760
433.90545,0.30533
435.83392,0.29517
437.76239,0.29017
439.69085,0.31367
441.61932,0.32180
443.54779,0.26602
445.47626,0.18863
447.40473,0.13028
449.33320,0.07595
451.26167,0.07255
453.19013,0.05061
455.11860,-0.02452
457.04707,0.01506
458.97554,0.16418
460.90401,0.21586
462.83248,0.17057
464.76095,0.13191
466.68942,0.12257
468.61788,0.11365
470.54635,0.13581
472.47482,0.22062
474.40329,0.27970
476.33176,0.23549
478.26023,0.13474
480.18870,0.01940
482.11716,-0.02486
484.04563,0.02518
485.97410,0.09718
487.90257,0.15277
489.83104,0.19484
491.75951,0.17814
493.68798,0.11697
495.61645,0.09424
497.54491,0.08786
499.47338,0.05565
501.40185,0.01903
503.33032,0.02284
505.25879,0.07578
507.18726,0.13168
509.11573,0.14664
511.04419,0.14326
512.97266,0.14615
514.90113,0.14507
516.82960,0.12879
518.75807,0.10169
520.68654,0.09871
522.61501,0.11965
524.54348,0.13657
526.47194,0.17250
528.40041,0.21541
530.32888,0.19104
532.25735,0.14893
534.18582,0.16345
536.11429,0.16871
538.04276,0.12927
539.97122,0.09100
541.89969,0.07039
543.82816,0.08064
545.75663,0.12173
547.68510,0.14861
549.61357,0.06259
551.54204,-0.33721
553.47051,-0.77281
555.39897,-0.60228
557.32744,-0.08426
559.25591,0.13423
561.18438,0.12724
563.11285,0.11422
565.04132,0.12779
566.96979,0.15485
568.89825,0.15332
570.82672,0.13947
572.75519,0.14449
574.68366,0.14259
576.61213,0.12008
578.54060,0.10316
580.46907,0.09429
582.39754,0.08992
584.32600,0.08522
586.25447,0.08154
588.18294,0.09095
590.11141,0.11102
592.03988,0.13076
593.96835,0.13760
595.89682,0.12840
597.82528,0.12195
599.75375,0.12201
601.68222,0.10980
603.61069,0.09204
605.53916,0.08611
607.46763,0.09747
609.39610,0.11572
611.32456,0.12364
613.25303,0.11238
615.18150,0.08965
617.10997,0.08099
619.03844,0.09481
620.96691,0.11633
622.89538,0.12777
624.82385,0.12964
626.75231,0.13588
628.68078,0.14835
630.60925,0.15675
632.53772,0.14958
634.46619,0.13457
636.39466,0.13253
638.32313,0.14252
640.25159,0.14597
642.18006,0.14557
644.10853,0.16167
646.03700,0.18897
647.96547,0.20138
649.89394,0.18360
651.82241,0.16281
653.75088,0.17169
655.67934,0.18354
657.60781,0.16028
659.53628,0.12485
661.46475,0.10926
663.39322,0.10353
665.32169,0.09776
667.25016,0.10749
669.17862,0.14836
671.10709,0.16564
673.03556,0.15400
674.96403,0.13819
676.89250,0.12602
678.82097,0.12100
680.74944,0.12631
682.67791,0.13717
684.60637,0.14500
686.53484,0.15093
688.46331,0.16321
690.39178,0.16904
692.32025,0.15736
694.24872,0.14467
696.17719,0.14643
698.10565,0.15145
700.03412,0.14203
701.96259,0.12732
703.89106,0.12473
705.81953,0.13169
707.74800,0.13776
709.67647,0.14638
711.60494,0.15336
713.53340,0.14459
715.46187,0.13622
717.39034,0.14040
719.31881,0.14129
721.24728,0.13560
723.17575,0.12826
725.10422,0.11908
727.03268,0.11164
728.96115,0.11640
730.88962,0.13548
732.81809,0.14889
734.74656,0.14792
736.67503,0.15183
738.60350,0.16622
740.53197,0.17679
742.46043,0.17898
744.38890,0.17223
746.31737,0.16004
748.24584,0.15491
750.17431,0.15678
752.10278,0.15627
754.03125,0.14985
755.95971,0.14585
757.88818,0.14710
759.81665,0.14229
761.74512,0.13437
763.67359,0.13322
765.60206,0.13571
767.53053,0.14091
769.45900,0.14790
771.38746,0.14519
773.31593,0.13697
775.24440,0.13434
777.17287,0.13258
779.10134,0.13350
781.02981,0.13968
782.95828,0.14083
784.88674,0.13268
786.81521,0.12284
788.74368,0.11643
790.67215,0.11890
792.60062,0.13096
794.52909,0.13846
796.45756,0.13990
798.38602,0.14671
800.31449,0.15751
802.24296,0.16151
804.17143,0.15181
806.09990,0.13741
808.02837,0.13871
809.95684,0.15272
811.88531,0.15342
813.81377,0.14623
815.74224,0.14486
817.67071,0.13993
819.59918,0.13729
821.52765,0.14368
823.45612,0.15579
825.38459,0.17459
827.31305,0.19096
829.24152,0.18854
831.16999,0.16412
833.09846,0.14099
835.02693,0.13892
836.95540,0.14634
838.88387,0.15143
840.81234,0.15551
842.74080,0.15854
844.66927,0.15600
846.59774,0.15369
848.52621,0.15878
850.45468,0.16036
852.38315,0.14852
854.31162,0.13353
856.24008,0.13159
858.16855,0.13920
860.09702,0.14279
862.02549,0.14170
863.95396,0.14065
865.88243,0.13930
867.81090,0.14107
869.73937,0.15110
871.66783,0.16443
873.59630,0.17051
875.52477,0.16361
877.45324,0.15411
879.38171,0.15094
881.31018,0.14197
883.23865,0.12957
885.16711,0.13371
887.09558,0.14584
889.02405,0.14807
890.95252,0.14612
892.88099,0.14160
894.80946,0.13443
896.73793,0.13529
898.66640,0.14330
900.59486,0.15258
902.52333,0.16211
904.45180,0.16413
906.38027,0.15209
908.30874,0.13738
910.23721,0.13469
912.16568,0.13955
914.09414,0.14501
916.02261,0.15066
917.95108,0.15125
919.87955,0.14907
921.80802,0.15022
923.73649,0.14867
925.66496,0.14311
927.59343,0.14327
929.52189,0.14569
931.45036,0.13851
933.37883,0.12789
935.30730,0.13004
937.23577,0.14221
939.16424,0.14537
941.09271,0.13971
943.02117,0.13939
944.94964,0.14045
946.87811,0.13533
948.80658,0.13260
950.73505,0.13911
952.66352,0.14873
954.59199,0.15544
956.52045,0.15645
958.44892,0.15041
960.37739,0.14286
962.30586,0.14015
964.23433,0.14368
966.16280,0.14971
968.09127,0.15029
970.01974,0.14363
971.94820,0.14163
973.87667,0.15030
975.80514,0.15518
977.73361,0.14759
979.66208,0.13674
981.59055,0.13231
983.51902,0.13684
985.44748,0.14245
987.37595,0.13931
989.30442,0.13333
991.23289,0.13415
993.16136,0.14086
995.08983,0.15301
997.01830,0.16620
998.94677,0.16967
1000.87523,0.16501
1002.80370,0.15858
1004.73217,0.15048
1006.66064,0.14653
1008.58911,0.15003
1010.51758,0.15255
1012.44605,0.15162
1014.37451,0.15031
1016.30298,0.14556
1018.23145,0.13820
1020.15992,0.13426
1022.08839,0.13349
1024.01686,0.13380
1025.94533,0.13895
1027.87380,0.14673
1029.80226,0.14751
1031.73073,0.14670
1033.65920,0.15273
1035.58767,0.15581
1037.51614,0.15248
1039.44461,0.14849
1041.37308,0.14117
1043.30154,0.13536
1045.23001,0.13866
1047.15848,0.14335
1049.08695,0.14484
1051.01542,0.15217
1052.94389,0.16508
1054.87236,0.17009
1056.80083,0.16886
1058.72929,0.17445
1060.65776,0.18167
1062.58623,0.17878
1064.51470,0.16999
1066.44317,0.16534
1068.37164,0.16999
1070.30011,0.17697
1072.22857,0.17493
1074.15704,0.17373
1076.08551,0.18210
1078.01398,0.18658
1079.94245,0.18040
1081.87092,0.16894
1083.79939,0.15836
1085.72786,0.15376
1087.65632,0.15120
1089.58479,0.14792
1091.51326,0.14938
1093.44173,0.15356
1095.37020,0.15618
1097.29867,0.16193
1099.22714,0.17382
1101.15560,0.17784
1103.08407,0.16388
1105.01254,0.15413
1106.94101,0.16168
1108.86948,0.16776
1110.79795,0.16672
1112.72642,0.16888
1114.65489,0.16932
1116.58335,0.16471
1118.51182,0.16297
1120.44029,0.15950
1122.36876,0.15091
1124.29723,0.14358
1126.22570,0.13659
1128.15417,0.13262
1130.08263,0.13612
1132.01110,0.14293
1133.93957,0.15093
1135.86804,0.15571
1137.79651,0.15525
1139.72498,0.15498
1141.65345,0.15458
1143.58191,0.15468
1145.51038,0.15654
1147.43885,0.15826
1149.36732,0.16069
1151.29579,0.16282
1153.22426,0.16573
1155.15273,0.17062
1157.08120,0.17357
1159.00966,0.17199
1160.93813,0.16688
1162.86660,0.16323
1164.79507,0.16414
1166.72354,0.16697
1168.65201,0.16876
1170.58048,0.16872
1172.50894,0.16840
1174.43741,0.16840
1176.36588,0.16548
1178.29435,0.16011
1180.22282,0.15909
1182.15129,0.16255
1184.07976,0.16290
1186.00823,0.16006
1187.93669,0.16077
1189.86516,0.16540
1191.79363,0.16908
1193.72210,0.16958
1195.65057,0.16702
1197.57904,0.16394
1199.50751,0.16248
1201.43597,0.16301
1203.36444,0.16562
1205.29291,0.16788
1207.22138,0.16817
1209.14985,0.16657
1211.07832,0.16342
1213.00679,0.16082
1214.93526,0.16002
1216.86372,0.16087
1218.79219,0.16288
1220.72066,0.16509
1222.64913,0.16658
1224.57760,0.16848
1226.50607,0.17284
1228.43454,0.17613
1230.36300,0.17317
1232.29147,0.16825
1234.21994,0.16813
1236.14841,0.16841
1238.07688,0.16525
1240.00535,0.16478
1241.93382,0.16749
1243.86229,0.16756
1245.79075,0.16595
1247.71922,0.16575
1249.64769,0.16699
1251.57616,0.16798
1253.50463,0.16614
1255.43310,0.16179
1257.36157,0.16074
1259.29003,0.16612
1261.21850,0.16836
1263.14697,0.16405
1265.07544,0.16421
1267.00391,0.16982
1268.93238,0.17390
1270.86085,0.17580
1272.78932,0.17743
1274.71778,0.17760
1276.64625,0.17505
1278.57472,0.17274
1280.50319,0.17133
1282.43166,0.16983
1284.36013,0.16862
1286.28860,0.16644
1288.21706,0.16622
1290.14553,0.17168
1292.07400,0.17691
1294.00247,0.17580
1295.93094,0.17176
1297.85941,0.17026
1299.78788,0.17030
1301.71634,0.16729
1303.64481,0.16300
1305.57328,0.16468
1307.50175,0.17229
1309.43022,0.17740
1311.35869,0.17670
1313.28716,0.17573
1315.21563,0.17806
1317.14409,0.18200
1319.07256,0.18317
1321.00103,0.17901
1322.92950,0.17441
1324.85797,0.17235
1326.78644,0.17136
1328.71491,0.17203
1330.64337,0.17280
1332.57184,0.17234
1334.50031,0.17323
1336.42878,0.17433
1338.35725,0.17223
1340.28572,0.16894
1342.21419,0.16896
1344.14266,0.17082
1346.07112,0.17187
1347.99959,0.17276
1349.92806,0.17240
1351.85653,0.16958
1353.78500,0.16726
1355.71347,0.16862
1357.64194,0.17270
1359.57040,0.17823
1361.49887,0.18515
1363.42734,0.18563
1365.35581,0.17905
1367.28428,0.17578
1369.21275,0.17574
1371.14122,0.17727
1373.06969,0.18358
1374.99815,0.18812
1376.92662,0.18315
1378.85509,0.17625
1380.78356,0.17161
1382.71203,0.16912
1384.64050,0.17093
1386.56897,0.17657
1388.49743,0.18085
1390.42590,0.18169
1392.35437,0.18503
1394.28284,0.19143
1396.21131,0.19303
1398.13978,0.18908
1400.06825,0.18295
1401.99672,0.17808
1403.92518,0.17662
1405.85365,0.17613
1407.78212,0.17598
1409.71059,0.17887
1411.63906,0.18313
1413.56753,0.18436
1415.49600,0.18576
1417.42446,0.19441
1419.35293,0.20152
1421.28140,0.19737
1423.20987,0.19391
1425.13834,0.19138
1427.06681,0.18972
1428.99528,0.19067
1430.92375,0.18655
1432.85221,0.18131
1434.78068,0.18486
1436.70915,0.19054
1438.63762,0.18851
1440.56609,0.18516
1442.49456,0.18269
1444.42303,0.18129
1446.35149,0.18300
1448.27996,0.18713
1450.20843,0.19175
1452.13690,0.19637
1454.06537,0.20245
1455.99384,0.21189
1457.92231,0.21291
1459.85077,0.20107
1461.77924,0.19586
1463.70771,0.19706
1465.63618,0.19480
1467.56465,0.19048
1469.49312,0.19284
1471.42159,0.20322
1473.35006,0.21242
1475.27852,0.20803
1477.20699,0.19802
1479.13546,0.19016
1481.06393,0.18770
1482.99240,0.18954
1484.92087,0.19428
1486.84934,0.20762
1488.77780,0.22487
1490.70627,0.21975
1492.63474,0.20580
1494.56321,0.20609
1496.49168,0.21290
1498.42015,0.20930
1500.34862,0.20231
1502.27709,0.20656
1504.20555,0.22605
1506.13402,0.25807
1508.06249,0.25659
1509.99096,0.22813
1511.91943,0.21122
1513.84790,0.20925
1515.77637,0.22227
1517.70483,0.23497
1519.63330,0.23598
1521.56177,0.23179
1523.49024,0.22340
1525.41871,0.21699
1527.34718,0.21191
1529.27565,0.20828
1531.20412,0.21285
1533.13258,0.22172
1535.06105,0.22120
1536.98952,0.22252
1538.91799,0.23983
1540.84646,0.25262
1542.77493,0.23901
1544.70340,0.22208
1546.63186,0.20807
1548.56033,0.20305
1550.48880,0.20376
1552.41727,0.20634
1554.34574,0.21623
1556.27421,0.23640
1558.20268,0.25718
1560.13115,0.23369
1562.05961,0.20366
1563.98808,0.18881
1565.91655,0.18520
1567.84502,0.19545
1569.77349,0.20539
1571.70196,0.20095
1573.63043,0.19774
1575.55889,0.19887
1577.48736,0.19429
1579.41583,0.18839
1581.34430,0.18554
1583.27277,0.18382
1585.20124,0.18247
1587.12971,0.18270
1589.05818,0.18346
1590.98664,0.18185
1592.91511,0.18017
1594.84358,0.18083
1596.77205,0.18172
1598.70052,0.18285
1600.62899,0.18600
1602.55746,0.18830
1604.48592,0.18564
1606.41439,0.18178
1608.34286,0.18229
1610.27133,0.18590
1612.19980,0.19027
1614.12827,0.19653
1616.05674,0.20052
1617.98521,0.19371
1619.91367,0.18998
1621.84214,0.19605
1623.77061,0.20113
1625.69908,0.20077
1627.62755,0.20036
1629.55602,0.19744
1631.48449,0.19560
1633.41295,0.20493
1635.34142,0.22709
1637.26989,0.22888
1639.19836,0.21090
1641.12683,0.20196
1643.05530,0.20626
1644.98377,0.22147
1646.91223,0.24103
1648.84070,0.24372
1650.76917,0.24482
1652.69764,0.25857
1654.62611,0.24331
1656.55458,0.21344
1658.48305,0.19933
1660.41152,0.20213
1662.33998,0.20903
1664.26845,0.20227
1666.19692,0.19847
1668.12539,0.20900
1670.05386,0.21940
1671.98233,0.21781
1673.91080,0.21668
1675.83926,0.21718
1677.76773,0.21518
1679.69620,0.21543
1681.62467,0.22234
1683.55314,0.23506
1685.48161,0.23314
1687.41008,0.21915
1689.33855,0.20907
1691.26701,0.20415
1693.19548,0.20681
1695.12395,0.21863
1697.05242,0.23257
1698.98089,0.23553
1700.90936,0.22438
1702.83783,0.21601
1704.76629,0.21612
1706.69476,0.21386
1708.62323,0.20534
1710.55170,0.19925
1712.48017,0.20383
1714.40864,0.21896
1716.33711,0.23168
1718.26558,0.21868
1720.19404,0.19769
1722.12251,0.19113
1724.05098,0.19088
1725.97945,0.18939
1727.90792,0.19359
1729.83639,0.20516
1731.76486,0.21599
1733.69332,0.21528
1735.62179,0.19991
1737.55026,0.19424
1739.47873,0.20034
1741.40720,0.20510
1743.33567,0.20608
1745.26414,0.20917
1747.19261,0.21285
1749.12107,0.21299
1751.04954,0.20644
1752.97801,0.19856
1754.90648,0.19704
1756.83495,0.19924
1758.76342,0.20109
1760.69189,0.20470
1762.62035,0.20464
1764.54882,0.19950
1766.47729,0.19834
1768.40576,0.20165
1770.33423,0.20643
1772.26270,0.20796
1774.19117,0.20187
1776.11964,0.19605
1778.04810,0.19444
1779.97657,0.19422
1781.90504,0.19256
1783.83351,0.19031
1785.76198,0.18722
1787.69045,0.18678
1789.61892,0.19472
1791.54738,0.20673
1793.47585,0.20971
1795.40432,0.20551
1797.33279,0.20365
1799.26126,0.20313
1801.18973,0.19862
1803.11820,0.19332
1805.04666,0.19193
1806.97513,0.19319
1808.90360,0.19498
1810.83207,0.19476
1812.76054,0.19288
1814.68901,0.19161
1816.61748,0.18387
1818.54595,0.16312
1820.47441,0.15246
1822.40288,0.17056
1824.33135,0.19172
1826.25982,0.19579
1828.18829,0.19923
1830.11676,0.20195
1832.04523,0.19493
1833.97369,0.18959
1835.90216,0.19074
1837.83063,0.19355
1839.75910,0.19529
1841.68757,0.19855
1843.61604,0.20312
1845.54451,0.20225
1847.47298,0.19726
1849.40144,0.19203
1851.32991,0.18667
1853.25838,0.18426
1855.18685,0.18585
1857.11532,0.18783
1859.04379,0.18751
1860.97226,0.18583
1862.90072,0.18570
1864.82919,0.18988
1866.75766,0.19746
1868.68613,0.20081
1870.61460,0.19453
1872.54307,0.18544
1874.47154,0.17964
1876.40001,0.17990
1878.32847,0.18437
1880.25694,0.18678
1882.18541,0.18516
1884.11388,0.18335
1886.04235,0.18535
1887.97082,0.19128
1889.89929,0.19615
1891.82775,0.19596
1893.75622,0.19243
1895.68469,0.18867
1897.61316,0.18772
1899.54163,0.18877
1901.47010,0.18803
1903.39857,0.18772
1905.32704,0.19195
1907.25550,0.19663
1909.18397,0.19709
1911.11244,0.19316
1913.04091,0.18933
1914.96938,0.19043
1916.89785,0.19347
1918.82632,0.19316
1920.75478,0.19160
1922.68325,0.19142
1924.61172,0.18960
1926.54019,0.18673
1928.46866,0.18686
1930.39713,0.18735
1932.32560,0.18512
1934.25407,0.18509
1936.18253,0.18839
1938.11100,0.18886
1940.03947,0.18876
1941.96794,0.19277
1943.89641,0.19436
1945.82488,0.19074
1947.75335,0.18787
1949.68181,0.18691
1951.61028,0.18625
1953.53875,0.18614
1955.46722,0.18608
1957.39569,0.18528
1959.32416,0.18434
1961.25263,0.18380
1963.18110,0.18430
1965.10956,0.18646
1967.03803,0.18835
1968.96650,0.18732
1970.89497,0.18540
1972.82344,0.18537
1974.75191,0.18848
1976.68038,0.19413
1978.60884,0.19698
1980.53731,0.19354
1982.46578,0.18890
1984.39425,0.18911
1986.32272,0.19147
1988.25119,0.19003
1990.17966,0.18624
1992.10812,0.18423
1994.03659,0.18285
1995.96506,0.18189
1997.89353,0.18422
1999.82200,0.18716
2001.75047,0.18747
2003.67894,0.18666
2005.60741,0.18466
2007.53587,0.18277
2009.46434,0.18318
2011.39281,0.18435
2013.32128,0.18554
2015.24975,0.18822
2017.17822,0.19268
2019.10669,0.19601
2021.03515,0.19531
2022.96362,0.19193
2024.89209,0.18827
2026.82056,0.18622
2028.74903,0.18865
2030.67750,0.19361
2032.60597,0.19540
2034.53444,0.19385
2036.46290,0.19181
2038.39137,0.18998
2040.31984,0.18795
2042.24831,0.18563
2044.17678,0.18364
2046.10525,0.18356
2048.03372,0.18528
2049.96218,0.18645
2051.89065,0.18669
2053.81912,0.18693
2055.74759,0.18735
2057.67606,0.18750
2059.60453,0.18722
2061.53300,0.18753
2063.46147,0.18961
2065.38993,0.19251
2067.31840,0.19299
2069.24687,0.19126
2071.17534,0.19020
2073.10381,0.19020
2075.03228,0.19075
2076.96075,0.19179
2078.88921,0.19289
2080.81768,0.19314
2082.74615,0.19192
2084.67462,0.19052
2086.60309,0.19001
2088.53156,0.18955
2090.46003,0.18935
2092.38850,0.18853
2094.31696,0.18545
2096.24543,0.18193
2098.17390,0.18087
2100.10237,0.18282
2102.03084,0.18510
2103.95931,0.18465
2105.88778,0.18275
2107.81624,0.18366
2109.74471,0.18788
2111.67318,0.19080
2113.60165,0.19065
2115.53012,0.19119
2117.45859,0.19365
2119.38706,0.19520
2121.31553,0.19498
2123.24399,0.19321
2125.17246,0.19068
2127.10093,0.18944
2129.02940,0.18892
2130.95787,0.18825
2132.88634,0.19056
2134.81481,0.19498
2136.74327,0.19693
2138.67174,0.19750
2140.60021,0.19641
2142.52868,0.19184
2144.45715,0.18768
2146.38562,0.18627
2148.31409,0.18625
2150.24255,0.18822
2152.17102,0.19134
2154.09949,0.19170
2156.02796,0.19108
2157.95643,0.19287
2159.88490,0.19366
2161.81337,0.19208
2163.74184,0.19094
2165.67030,0.19098
2167.59877,0.19229
2169.52724,0.19351
2171.45571,0.19251
2173.38418,0.19046
2175.31265,0.18935
2177.24112,0.19006
2179.16958,0.19145
2181.09805,0.19223
2183.02652,0.19315
2184.95499,0.19281
2186.88346,0.19082
2188.81193,0.19025
2190.74040,0.19100
2192.66887,0.19134
2194.59733,0.19169
2196.52580,0.19010
2198.45427,0.18463
2200.38274,0.17982
2202.31121,0.18109
2204.23968,0.18634
2206.16815,0.18971
2208.09661,0.19039
2210.02508,0.18993
2211.95355,0.18882
2213.88202,0.18831
2215.81049,0.18936
2217.73896,0.19210
2219.66743,0.19464
2221.59590,0.19479
2223.52436,0.19276
2225.45283,0.18978
2227.38130,0.18819
2229.30977,0.18914
2231.23824,0.18970
2233.16671,0.18890
2235.09518,0.18908
2237.02364,0.18943
2238.95211,0.18929
2240.88058,0.19073
2242.80905,0.19406
2244.73752,0.19684
2246.66599,0.19710
2248.59446,0.19547
2250.52293,0.19289
2252.45139,0.18990
2254.37986,0.18874
2256.30833,0.18970
2258.23680,0.18998
2260.16527,0.18966
2262.09374,0.18936
2264.02221,0.18899
2265.95067,0.18977
2267.87914,0.19017
2269.80761,0.19018
2271.73608,0.19135
2273.66455,0.19151
2275.59302,0.19008
2277.52149,0.18867
2279.44996,0.18670
2281.37842,0.18543
2283.30689,0.18857
2285.23536,0.19347
2287.16383,0.19485
2289.09230,0.19470
2291.02077,0.19538
2292.94924,0.19433
2294.87770,0.19151
2296.80617,0.19150
2298.73464,0.19467
2300.66311,0.19707
2302.59158,0.19923
2304.52005,0.20127
2306.44852,0.20059
2308.37699,0.19877
2310.30545,0.19791
2312.23392,0.19684
2314.16239,0.19544
2316.09086,0.19540
2318.01933,0.20036
2319.94780,0.21204
2321.87627,0.21861
2323.80473,0.20927
2325.73320,0.19652
2327.66167,0.19364
2329.59014,0.19996
2331.51861,0.21141
2333.44708,0.22099
2335.37555,0.22072
2337.30401,0.21890
2339.23248,0.22805
2341.16095,0.23515
2343.08942,0.22874
2345.01789,0.22282
2346.94636,0.22235
2348.87483,0.22153
2350.80330,0.22527
2352.73176,0.23818
2354.66023,0.24702
2356.58870,0.23854
2358.51717,0.22368
2360.44564,0.21942
2362.37411,0.22669
2364.30258,0.23219
2366.23104,0.23084
2368.15951,0.22655
2370.08798,0.21958
2372.01645,0.20885
2373.94492,0.20345
2375.87339,0.20686
2377.80186,0.20891
2379.73033,0.20341
2381.65879,0.19525
2383.58726,0.19227
2385.51573,0.19374
2387.44420,0.19299
2389.37267,0.19040
2391.30114,0.19028
2393.22961,0.19086
2395.15807,0.19014
2397.08654,0.19080
2399.01501,0.19131
2400.94348,0.18923
2402.87195,0.18873
2404.80042,0.19055
2406.72889,0.19103
2408.65736,0.19098
2410.58582,0.19191
2412.51429,0.19212
2414.44276,0.19082
2416.37123,0.18981
2418.29970,0.19119
2420.22817,0.19288
2422.15664,0.19071
2424.08510,0.18780
2426.01357,0.18962
2427.94204,0.19297
2429.87051,0.19171
2431.79898,0.18765
2433.72745,0.18679
2435.65592,0.18999
2437.58439,0.19337
2439.51285,0.19318
2441.44132,0.19049
2443.36979,0.18889
2445.29826,0.18919
2447.22673,0.19051
2449.15520,0.19033
2451.08367,0.18684
2453.01213,0.18385
2454.94060,0.18590
2456.86907,0.18971
2458.79754,0.19085
2460.72601,0.19019
2462.65448,0.18856
2464.58295,0.18730
2466.51142,0.18786
2468.43988,0.18908
2470.36835,0.19072
2472.29682,0.19303
2474.22529,0.19438
2476.15376,0.19431
2478.08223,0.19426
2480.01070,0.19446
2481.93916,0.19367
2483.86763,0.19240
2485.79610,0.19357
2487.72457,0.19618
2489.65304,0.19693
2491.58151,0.19628
2493.50998,0.19524
2495.43844,0.19495
2497.36691,0.19582
2499.29538,0.19502
2501.22385,0.19198
2503.15232,0.18961
2505.08079,0.18882
2507.00926,0.18838
2508.93773,0.18926
2510.86619,0.19201
2512.79466,0.19234
2514.72313,0.18882
2516.65160,0.18656
2518.58007,0.18751
2520.50854,0.18888
2522.43701,0.18936
2524.36547,0.18866
2526.29394,0.18904
2528.22241,0.19405
2530.15088,0.19865
2532.07935,0.19707
2534.00782,0.19410
2535.93629,0.19416
2537.86476,0.19574
2539.79322,0.19731
2541.72169,0.19811
2543.65016,0.19711
2545.57863,0.19455
2547.50710,0.19237
2549.43557,0.19147
2551.36404,0.19203
2553.29250,0.19465
2555.22097,0.19803
2557.14944,0.19991
2559.07791,0.19968
2561.00638,0.19740
2562.93485,0.19377
2564.86332,0.19095
2566.79179,0.19123
2568.72025,0.19435
2570.64872,0.19601
2572.57719,0.19424
2574.50566,0.19302
2576.43413,0.19448
2578.36260,0.19560
2580.29107,0.19490
2582.21953,0.19443
2584.14800,0.19462
2586.07647,0.19435
2588.00494,0.19424
2589.93341,0.19461
2591.86188,0.19422
2593.79035,0.19407
2595.71882,0.19600
2597.64728,0.19704
2599.57575,0.19525
2601.50422,0.19425
2603.43269,0.19400
2605.36116,0.19164
2607.28963,0.19018
2609.21810,0.19247
2611.14656,0.19448
2613.07503,0.19315
2615.00350,0.19166
2616.93197,0.19270
2618.86044,0.19506
2620.78891,0.19647
2622.71738,0.19655
2624.64585,0.19898
2626.57431,0.20342
2628.50278,0.20235
2630.43125,0.19697
2632.35972,0.19495
2634.28819,0.19534
2636.21666,0.19546
2638.14513,0.19585
2640.07359,0.19623
2642.00206,0.19668
2643.93053,0.19805
2645.85900,0.20005
2647.78747,0.20030
2649.71594,0.19872
2651.64441,0.19858
2653.57288,0.19935
2655.50134,0.19829
2657.42981,0.19748
2659.35828,0.19908
2661.28675,0.20087
2663.21522,0.20065
2665.14369,0.19902
2667.07216,0.19828
2669.00062,0.19878
2670.92909,0.19897
2672.85756,0.19814
2674.78603,0.19618
2676.71450,0.19469
2678.64297,0.19567
2680.57144,0.19686
2682.49990,0.19605
2684.42837,0.19595
2686.35684,0.19761
2688.28531,0.19843
2690.21378,0.19733
2692.14225,0.19646
2694.07072,0.19753
2695.99919,0.19881
2697.92765,0.19922
2699.85612,0.19987
2701.78459,0.20113
2703.71306,0.20222
2705.64153,0.20236
2707.57000,0.20095
2709.49847,0.19796
2711.42693,0.19659
2713.35540,0.20024
2715.28387,0.20455
2717.21234,0.20315
2719.14081,0.19914
2721.06928,0.19668
2722.99775,0.19602
2724.92622,0.19851
2726.85468,0.20135
2728.78315,0.20225
2730.71162,0.20358
2732.64009,0.20345
2734.56856,0.20100
2736.49703,0.19958
2738.42550,0.19867
2740.35396,0.19736
2742.28243,0.19671
2744.21090,0.19825
2746.13937,0.20232
2748.06784,0.20553
2749.99631,0.20703
2751.92478,0.20792
2753.85325,0.20665
2755.78171,0.20415
2757.71018,0.20350
2759.63865,0.20458
2761.56712,0.20479
2763.49559,0.20407
2765.42406,0.20467
2767.35253,0.20462
2769.28099,0.20259
2771.20946,0.20315
2773.13793,0.20628
2775.06640,0.20710
2776.99487,0.20509
2778.92334,0.20296
2780.85181,0.20320
2782.78028,0.20620
2784.70874,0.20783
2786.63721,0.20536
2788.56568,0.20398
2790.49415,0.20550
2792.42262,0.20620
2794.35109,0.20663
2796.27956,0.20734
2798.20802,0.20661
2800.13649,0.20352
2802.06496,0.20032
2803.99343,0.19927
2805.92190,0.19891
2807.85037,0.20065
2809.77884,0.20602
2811.70731,0.21130
2813.63577,0.21346
2815.56424,0.21212
2817.49271,0.20934
2819.42118,0.20812
2821.34965,0.20807
2823.27812,0.20861
2825.20659,0.21074
2827.13505,0.21227
2829.06352,0.21148
2830.99199,0.20901
2832.92046,0.20450
2834.84893,0.20146
2836.77740,0.20338
2838.70587,0.20526
2840.63433,0.20392
2842.56280,0.20260
2844.49127,0.20207
2846.41974,0.20236
2848.34821,0.20286
2850.27668,0.20063
2852.20515,0.19854
2854.13362,0.20014
2856.06208,0.20283
2857.99055,0.20578
2859.91902,0.20794
2861.84749,0.20647
2863.77596,0.20205
2865.70443,0.19731
2867.63290,0.19622
2869.56136,0.19986
2871.48983,0.20574
2873.41830,0.21183
2875.34677,0.21415
2877.27524,0.21161
2879.20371,0.20755
2881.13218,0.20498
2883.06065,0.20646
2884.98911,0.21017
2886.91758,0.21122
2888.84605,0.20914
2890.77452,0.20622
2892.70299,0.20303
2894.63146,0.20030
2896.55993,0.19869
2898.48839,0.19859
2900.41686,0.20123
2902.34533,0.20518
2904.27380,0.20459
2906.20227,0.19841
2908.13074,0.19611
2910.05921,0.20065
2911.98768,0.20455
2913.91614,0.20469
2915.84461,0.20304
2917.77308,0.20323
2919.70155,0.20574
2921.63002,0.20743
2923.55849,0.20480
2925.48696,0.19758
2927.41542,0.19170
2929.34389,0.19171
2931.27236,0.19548
2933.20083,0.19766
2935.12930,0.19716
2937.05777,0.19803
2938.98624,0.20274
2940.91471,0.20760
2942.84317,0.20876
2944.77164,0.20733
2946.70011,0.20476
2948.62858,0.20475
2950.55705,0.20916
2952.48552,0.21517
2954.41399,0.21925
2956.34245,0.21653
2958.27092,0.21006
2960.19939,0.20786
2962.12786,0.20851
2964.05633,0.20662
2965.98480,0.20282
2967.91327,0.20219
2969.84174,0.20680
2971.77020,0.21302
2973.69867,0.21729
2975.62714,0.21625
2977.55561,0.20856
2979.48408,0.20308
2981.41255,0.20568
2983.34102,0.20824
2985.26948,0.20533
2987.19795,0.20093
2989.12642,0.20006
2991.05489,0.20492
2992.98336,0.21171
2994.91183,0.21406
2996.84030,0.21132
2998.76877,0.20936
3000.69723,0.21294
3002.62570,0.21727
3004.55417,0.21659
3006.48264,0.21433
3008.41111,0.21349
3010.33958,0.20950
3012.26805,0.19758
3014.19651,0.18200
3016.12498,0.17355
3018.05345,0.18064
3019.98192,0.19806
3021.91039,0.21066
3023.83886,0.21533
3025.76733,0.21593
3027.69579,0.21309
3029.62426,0.21216
3031.55273,0.21480
3033.48120,0.21617
3035.40967,0.21594
3037.33814,0.21587
3039.26661,0.21480
3041.19508,0.21181
3043.12354,0.20898
3045.05201,0.20712
3046.98048,0.20621
3048.90895,0.20842
3050.83742,0.21103
3052.76589,0.20775
3054.69436,0.20343
3056.62282,0.20594
3058.55129,0.20940
3060.47976,0.21007
3062.40823,0.21297
3064.33670,0.21358
3066.26517,0.20816
3068.19364,0.20841
3070.12211,0.21579
3072.05057,0.21601
3073.97904,0.20847
3075.90751,0.20549
3077.83598,0.21082
3079.76445,0.21739
3081.69292,0.21813
3083.62139,0.21116
3085.54985,0.20517
3087.47832,0.20774
3089.40679,0.21131
3091.33526,0.21098
3093.26373,0.20869
3095.19220,0.20734
3097.12067,0.21100
3099.04914,0.21678
3100.97760,0.21826
3102.90607,0.21380
3104.83454,0.21010
3106.76301,0.21139
3108.69148,0.21308
3110.61995,0.21129
3112.54842,0.20697
3114.47688,0.20568
3116.40535,0.21040
3118.33382,0.21667
3120.26229,0.21778
3122.19076,0.21353
3124.11923,0.21045
3126.04770,0.21072
3127.97617,0.21161
3129.90463,0.21276
3131.83310,0.21542
3133.76157,0.21822
3135.69004,0.21686
3137.61851,0.21058
3139.54698,0.20786
3141.47545,0.21426
3143.40391,0.22161
3145.33238,0.22254
3147.26085,0.21976
3149.18932,0.21823
3151.11779,0.21833
3153.04626,0.21910
3154.97473,0.22223
3156.90320,0.22551
3158.83166,0.22492
3160.76013,0.22119
3162.68860,0.21801
3164.61707,0.21915
3166.54554,0.22138
3168.47401,0.21922
3170.40248,0.21467
3172.33094,0.21199
3174.25941,0.21297
3176.18788,0.21518
3178.11635,0.21570
3180.04482,0.21547
3181.97329,0.21596
3183.90176,0.21575
3185.83022,0.21348
3187.75869,0.21244
3189.68716,0.21442
3191.61563,0.21602
3193.54410,0.21667
3195.47257,0.21727
3197.40104,0.21703
3199.32951,0.21463
3201.25797,0.20909
3203.18644,0.20742
3205.11491,0.21237
3207.04338,0.21465
3208.97185,0.21293
3210.90032,0.21194
3212.82879,0.21269
3214.75725,0.21331
3216.68572,0.21321
3218.61419,0.21603
3220.54266,0.21808
3222.47113,0.21296
3224.39960,0.20506
3226.32807,0.20189
3228.25654,0.20401
3230.18500,0.20677
3232.11347,0.20737
3234.04194,0.20802
3235.97041,0.21073
3237.89888,0.21376
3239.82735,0.21693
3241.75582,0.22001
3243.68428,0.21951
3245.61275,0.21611
3247.54122,0.21454
3249.46969,0.21416
3251.39816,0.21261
3253.32663,0.21141
3255.25510,0.20899
3257.18357,0.20452
3259.11203,0.20356
3261.04050,0.20808
3262.96897,0.21300
3264.89744,0.21332
3266.82591,0.21079
3268.75438,0.21036
3270.68285,0.21178
3272.61131,0.21264
3274.53978,0.21384
3276.46825,0.21473
3278.39672,0.21251
3280.32519,0.20939
3282.25366,0.20804
3284.18213,0.20694
3286.11060,0.20708
3288.03906,0.21031
3289.96753,0.21223
3291.89600,0.21192
3293.82447,0.21512
3295.75294,0.22043
3297.68141,0.22260
3299.60988,0.21998
3301.53834,0.21516
3303.46681,0.21212
3305.39528,0.21044
3307.32375,0.21127
3309.25222,0.21407
3311.18069,0.21110
3313.10916,0.20269
3315.03763,0.19961
3316.96609,0.20438
3318.89456,0.20966
3320.82303,0.21157
3322.75150,0.20915
3324.67997,0.20411
3326.60844,0.20362
3328.53691,0.20789
3330.46537,0.20837
3332.39384,0.20457
3334.32231,0.20326
3336.25078,0.20707
3338.17925,0.21318
3340.10772,0.21657
3342.03619,0.21666
3343.96466,0.21656
3345.89312,0.21843
3347.82159,0.22105
3349.75006,0.21856
3351.67853,0.21241
3353.60700,0.21022
3355.53547,0.20981
3357.46394,0.20781
3359.39240,0.20743
3361.32087,0.20987
3363.24934,0.21309
3365.17781,0.21495
3367.10628,0.21700
3369.03475,0.22042
3370.96322,0.22187
3372.89168,0.21976
3374.82015,0.21625
3376.74862,0.21473
3378.67709,0.21647
3380.60556,0.21933
3382.53403,0.22019
3384.46250,0.21778
3386.39097,0.21437
3388.31943,0.21458
3390.24790,0.21933
3392.17637,0.22211
3394.10484,0.21860
3396.03331,0.21307
3397.96178,0.20985
3399.89025,0.20764
3401.81871,0.20532
3403.74718,0.20608
3405.67565,0.20866
3407.60412,0.20873
3409.53259,0.20950
3411.46106,0.21095
3413.38953,0.20891
3415.31800,0.20919
3417.24646,0.21349
3419.17493,0.21677
3421.10340,0.21811
3423.03187,0.21300
3424.96034,0.20329
3426.88881,0.19891
3428.81728,0.20154
3430.74574,0.20571
3432.67421,0.20684
3434.60268,0.20885
3436.53115,0.21489
3438.45962,0.21718
3440.38809,0.21312
3442.31656,0.20780
3444.24503,0.20522
3446.17349,0.20828
3448.10196,0.21078
3450.03043,0.20712
3451.95890,0.20259
3453.88737,0.19711
3455.81584,0.19135
3457.74431,0.19217
3459.67277,0.19528
3461.60124,0.19422
3463.52971,0.19291
3465.45818,0.19217
3467.38665,0.19239
3469.31512,0.19591
3471.24359,0.19893
3473.17206,0.19950
3475.10052,0.19890
3477.02899,0.19684
3478.95746,0.19545
3480.88593,0.19472
3482.81440,0.18985
3484.74287,0.18382
3486.67134,0.18334
3488.59980,0.18442
3490.52827,0.18295
3492.45674,0.18421
3494.38521,0.18834
3496.31368,0.18805
3498.24215,0.18318
3500.17062,0.18051
3502.09909,0.18324
3504.02755,0.18701
3505.95602,0.18790
3507.88449,0.18951
3509.81296,0.19121
3511.74143,0.18787
3513.66990,0.18076
3515.59837,0.17595
3517.52683,0.17528
3519.45530,0.17528
3521.38377,0.17738
3523.31224,0.18301
3525.24071,0.18830
3527.16918,0.19389
3529.09765,0.19567
3531.02611,0.18694
3532.95458,0.17624
3534.88305,0.17218
3536.81152,0.17287
3538.73999,0.17466
3540.66846,0.17653
3542.59693,0.17765
3544.52540,0.17686
3546.45386,0.17747
3548.38233,0.18115
3550.31080,0.18134
3552.23927,0.17546
3554.16774,0.16958
3556.09621,0.16875
3558.02468,0.17228
3559.95314,0.17835
3561.88161,0.18385
3563.81008,0.18709
3565.73855,0.18704
3567.66702,0.17960
3569.59549,0.16920
3571.52396,0.16322
3573.45243,0.16030
3575.38089,0.15706
3577.30936,0.15511
3579.23783,0.15559
3581.16630,0.15646
3583.09477,0.16072
3585.02324,0.16969
3586.95171,0.17723
3588.88017,0.17645
3590.80864,0.17053
3592.73711,0.16329
3594.66558,0.15808
3596.59405,0.15919
3598.52252,0.16203
3600.45099,0.16224
3602.37946,0.16050
3604.30792,0.15783
3606.23639,0.15815
3608.16486,0.16070
3610.09333,0.15863
3612.02180,0.15758
3613.95027,0.16063
3615.87874,0.16269
3617.80720,0.16669
3619.73567,0.16993
3621.66414,0.16421
3623.59261,0.15615
3625.52108,0.15191
3627.44955,0.15194
3629.37802,0.15429
3631.30649,0.15454
3633.23495,0.15142
3635.16342,0.14615
3637.09189,0.14367
3639.02036,0.14486
3640.94883,0.14368
3642.87730,0.14235
3644.80577,0.14921
3646.73423,0.16518
3648.66270,0.17990
3650.59117,0.17078
3652.51964,0.15236
3654.44811,0.14231
3656.37658,0.13848
3658.30505,0.13559
3660.23352,0.13243
3662.16198,0.13000
3664.09045,0.12890
3666.01892,0.13230
3667.94739,0.14395
3669.87586,0.15941
3671.80433,0.16359
3673.73280,0.16292
3675.66126,0.15999
3677.58973,0.14853
3679.51820,0.14013
3681.44667,0.13527
3683.37514,0.13154
3685.30361,0.13431
3687.23208,0.14815
3689.16055,0.16365
3691.08901,0.15716
3693.01748,0.14063
3694.94595,0.13275
3696.87442,0.13084
3698.80289,0.13028
3700.73136,0.13290
3702.65983,0.13931
3704.58829,0.14521
3706.51676,0.14864
3708.44523,0.15189
3710.37370,0.15471
3712.30217,0.14868
3714.23064,0.13890
3716.15911,0.13623
3718.08757,0.14442
3720.01604,0.15791
3721.94451,0.15934
3723.87298,0.14865
3725.80145,0.14065
3727.72992,0.13827
3729.65839,0.14178
3731.58686,0.15047
3733.51532,0.15874
3735.44379,0.16101
3737.37226,0.15310
3739.30073,0.14228
3741.22920,0.13802
3743.15767,0.13869
3745.08614,0.14069
3747.01460,0.14909
3748.94307,0.16435
3750.87154,0.17478
3752.80001,0.16488
3754.72848,0.14976
3756.65695,0.14098
3758.58542,0.14149
3760.51389,0.14457
3762.44235,0.14275
3764.37082,0.13832
3766.29929,0.13178
3768.22776,0.12953
3770.15623,0.13370
3772.08470,0.13348
3774.01317,0.13023
3775.94163,0.12919
3777.87010,0.12722
3779.79857,0.12096
3781.72704,0.11807
3783.65551,0.12211
3785.58398,0.12307
3787.51245,0.11879
3789.44092,0.11833
3791.36938,0.12160
3793.29785,0.12296
3795.22632,0.12397
3797.15479,0.12951
3799.08326,0.13805
3801.01173,0.14271
3802.94020,0.13749
3804.86866,0.13652
3806.79713,0.14064
3808.72560,0.13428
3810.65407,0.12578
3812.58254,0.12463
3814.51101,0.12833
3816.43948,0.13534
3818.36795,0.14375
3820.29641,0.15097
3822.22488,0.14659
3824.15335,0.13876
3826.08182,0.13948
3828.01029,0.14114
3829.93876,0.13963
3831.86723,0.13953
3833.79569,0.14384
3835.72416,0.14964
3837.65263,0.14770
3839.58110,0.13900
3841.50957,0.13373
3843.43804,0.13056
3845.36651,0.12821
3847.29498,0.12829
3849.22344,0.13459
3851.15191,0.15081
3853.08038,0.16623
3855.00885,0.15324
3856.93732,0.13676
3858.86579,0.12965
3860.79426,0.12842
3862.72272,0.13306
3864.65119,0.14202
3866.57966,0.14845
3868.50813,0.15107
3870.43660,0.14934
3872.36507,0.14203
3874.29354,0.13159
3876.22200,0.12012
3878.15047,0.11248
3880.07894,0.11365
3882.00741,0.11952
3883.93588,0.12183
3885.86435,0.12203
3887.79282,0.11958
3889.72129,0.11602
3891.64975,0.11492
3893.57822,0.11832
3895.50669,0.12347
3897.43516,0.12636
3899.36363,0.12577
3901.29210,0.12484
3903.22057,0.12971
3905.14903,0.13446
3907.07750,0.12778
3909.00597,0.11623
3910.93444,0.10898
3912.86291,0.10884
3914.79138,0.11494
3916.71985,0.12240
3918.64832,0.12108
3920.57678,0.11485
3922.50525,0.11332
3924.43372,0.11107
3926.36219,0.11058
3928.29066,0.11808
3930.21913,0.12454
3932.14760,0.12288
3934.07606,0.11616
3936.00453,0.10970
3937.93300,0.10557
3939.86147,0.10513
3941.78994,0.10735
3943.71841,0.10773
3945.64688,0.10664
3947.57535,0.10762
3949.50381,0.10945
3951.43228,0.10806
3953.36075,0.10713
3955.28922,0.11222
3957.21769,0.11815
3959.14616,0.11815
3961.07463,0.11415
3963.00309,0.11049
3964.93156,0.10741
3966.86003,0.10216
3968.78850,0.09606
3970.71697,0.09481
3972.64544,0.09939
3974.57391,0.10694
3976.50238,0.11355
3978.43084,0.11378
3980.35931,0.10801
3982.28778,0.10469
3984.21625,0.10922
3986.14472,0.11255
3988.07319,0.10756
3990.00166,0.10245
3991.93012,0.10220
3993.85859,0.10305
3995.78706,0.10372
3997.71553,0.10613
3999.64400,0.11013
4001.57247,0.11319
4003.50094,0.11466
4005.42941,0.11503
4007.35787,0.11331
4009.28634,0.10895
4011.21481,0.10490
4013.14328,0.10264
4015.07175,0.10102
4017.00022,0.10313
4018.92869,0.10566
4020.85715,0.09895
4022.78562,0.08888
4024.71409,0.08845
4026.64256,0.09639
4028.57103,0.10146
4030.49950,0.09942
4032.42797,0.09571
4034.35644,0.09335
4036.28490,0.09117
4038.21337,0.08991
4040.14184,0.09103
4042.07031,0.09252
4043.99878,0.08985
4045.92725,0.08731
4047.85572,0.09033
4049.78418,0.09146
4051.71265,0.09040
4053.64112,0.09331
4055.56959,0.09477
4057.49806,0.09363
4059.42653,0.09538
4061.35500,0.09869
4063.28346,0.10199
4065.21193,0.10301
4067.14040,0.09786
4069.06887,0.09124
4070.99734,0.08910
4072.92581,0.09034
4074.85428,0.09116
4076.78275,0.08847
4078.71121,0.08605
4080.63968,0.08872
4082.56815,0.09437
4084.49662,0.09817
4086.42509,0.09585
4088.35356,0.09119
4090.28203,0.09097
4092.21049,0.09198
4094.13896,0.08961
4096.06743,0.08749
4097.99590,0.08810
4099.92437,0.08705
4101.85284,0.08563
4103.78131,0.08717
4105.70978,0.08740
4107.63824,0.08704
4109.56671,0.08948
4111.49518,0.08993
4113.42365,0.08702
4115.35212,0.08478
4117.28059,0.08375
4119.20906,0.08549
4121.13752,0.09126
4123.06599,0.09658
4124.99446,0.09608
4126.92293,0.08972
4128.85140,0.08244
4130.77987,0.07865
4132.70834,0.07798
4134.63681,0.07521
4136.56527,0.07196
4138.49374,0.07387
4140.42221,0.07779
4142.35068,0.08283
4144.27915,0.09111
4146.20762,0.09749
4148.13609,0.09487
4150.06455,0.08763
4151.99302,0.08536
4153.92149,0.08634
4155.84996,0.08643
4157.77843,0.08500
4159.70690,0.08324
4161.63537,0.08303
4163.56384,0.08185
4165.49230,0.08131
4167.42077,0.08176
4169.34924,0.07854
4171.27771,0.07491
4173.20618,0.07550
4175.13465,0.08043
4177.06312,0.08702
4178.99158,0.08953
4180.92005,0.08656
4182.84852,0.07909
4184.77699,0.07190
4186.70546,0.07348
4188.63393,0.07802
4190.56240,0.07636
4192.49087,0.07573
4194.41933,0.08129
4196.34780,0.08556
4198.27627,0.08143
4200.20474,0.07406
4202.13321,0.07060
4204.06168,0.06737
4205.99015,0.06576
4207.91861,0.06931
4209.84708,0.07433
4211.77555,0.07877
4213.70402,0.07927
4215.63249,0.07460
4217.56096,0.07116
4219.48943,0.07180
4221.41789,0.07281
4223.34636,0.07236
4225.27483,0.06851
4227.20330,0.06138
4229.13177,0.05841
4231.06024,0.06137
4232.98871,0.06694
4234.91718,0.07270
4236.84564,0.07551
4238.77411,0.07570
4240.70258,0.07431
4242.63105,0.07169
4244.55952,0.06973
4246.48799,0.07080
4248.41646,0.07183
4250.34492,0.06880
4252.27339,0.06839
4254.20186,0.07420
4256.13033,0.07550
4258.05880,0.07070
4259.98727,0.06894
4261.91574,0.06644
4263.84421,0.06330
4265.77267,0.06749
4267.70114,0.07265
4269.62961,0.07062
4271.55808,0.06524
4273.48655,0.06333
4275.41502,0.06215
4277.34349,0.05723
4279.27195,0.05462
4281.20042,0.05837
4283.12889,0.06492
4285.05736,0.07000
4286.98583,0.07040
4288.91430,0.06832
4290.84277,0.06711
4292.77124,0.06167
4294.69970,0.05298
4296.62817,0.05051
4298.55664,0.05103
4300.48511,0.04918
4302.41358,0.04708
4304.34205,0.04572
4306.27052,0.05120
4308.19898,0.06139
4310.12745,0.06147
4312.05592,0.05329
4313.98439,0.04892
4315.91286,0.04905
4317.84133,0.04702
4319.76980,0.04346
4321.69827,0.04393
4323.62673,0.04248
4325.55520,0.03832
4327.48367,0.04181
4329.41214,0.04840
4331.34061,0.04906
4333.26908,0.05048
4335.19755,0.05571
4337.12601,0.05792
4339.05448,0.06033
4340.98295,0.06574
4342.91142,0.06481
4344.83989,0.05629
4346.76836,0.04991
4348.69683,0.04667
4350.62530,0.04336
4352.55376,0.04125
4354.48223,0.04210
4356.41070,0.04576
4358.33917,0.04464
4360.26764,0.03864
4362.19611,0.03727
4364.12458,0.03928
4366.05304,0.04034
4367.98151,0.03902
4369.90998,0.03630
4371.83845,0.03769
4373.76692,0.04197
4375.69539,0.04459
4377.62386,0.04732
4379.55232,0.04825
4381.48079,0.04277
4383.40926,0.03595
4385.33773,0.03726
4387.26620,0.04509
4389.19467,0.04629
4391.12314,0.04167
4393.05161,0.03829
4394.98007,0.02997
4396.90854,0.02218
4398.83701,0.02495
4400.76548,0.02995
4402.69395,0.03093
4404.62242,0.03064
4406.55089,0.02954
4408.47935,0.03183
4410.40782,0.03640
4412.33629,0.03354
4414.26476,0.02764
4416.19323,0.02805
4418.12170,0.03411
4420.05017,0.04341
4421.97864,0.05181
4423.90710,0.05489
4425.83557,0.04973
4427.76404,0.03911
4429.69251,0.03583
4431.62098,0.03904
4433.54945,0.03620
4435.47792,0.03332
4437.40638,0.03456
4439.33485,0.03235
4441.26332,0.02873
4443.19179,0.02454
4445.12026,0.02102
4447.04873,0.02656
4448.97720,0.03267
4450.90567,0.02821
4452.83413,0.02433
4454.76260,0.02763
4456.69107,0.02920
4458.61954,0.02318
4460.54801,0.01470
4462.47648,0.01329
4464.40495,0.02130
4466.33341,0.03240
4468.26188,0.03364
4470.19035,0.02279
4472.11882,0.01862
4474.04729,0.02925
4475.97576,0.03540
4477.90423,0.02632
4479.83270,0.01944
4481.76116,0.02445
4483.68963,0.02777
4485.61810,0.02427
4487.54657,0.02450
4489.47504,0.02761
4491.40351,0.02659
4493.33198,0.02776
4495.26044,0.03349
4497.18891,0.03408
4499.11738,0.02645
4501.04585,0.01406
4502.97432,0.00449
4504.90279,0.00424
4506.83126,0.00581
4508.75973,0.00448
4510.68819,0.00622
4512.61666,0.01219
4514.54513,0.01583
4516.47360,0.01704
4518.40207,0.02545
4520.33054,0.03776
4522.25901,0.03953
4524.18747,0.02780
4526.11594,0.01339
4528.04441,0.00322
4529.97288,-0.00200
4531.90135,0.00525
4533.82982,0.02354
4535.75829,0.03405
4537.68676,0.02899
4539.61522,0.02353
4541.54369,0.02779
4543.47216,0.03192
4545.40063,0.02747
4547.32910,0.01942
4549.25757,0.01530
4551.18604,0.01502
4553.11450,0.01628
4555.04297,0.02083
4556.97144,0.02616
4558.89991,0.02400
4560.82838,0.01763
4562.75685,0.01564
4564.68532,0.01358
4566.61378,0.00691
4568.54225,0.00473
4570.47072,0.01526
4572.39919,0.02801
4574.32766,0.02748
4576.25613,0.01860
4578.18460,0.01536
4580.11307,0.01620
4582.04153,0.01614
4583.97000,0.01933
4585.89847,0.02262
4587.82694,0.01936
4589.75541,0.01112
4591.68388,0.00614
4593.61235,0.00923
4595.54081,0.01127
4597.46928,0.00772
4599.39775,0.00517
4601.32622,0.00233
4603.25469,-0.00105
4605.18316,0.00173
4607.11163,0.00667
4609.04010,0.00957
4610.96856,0.01289
4612.89703,0.01525
4614.82550,0.01677
4616.75397,0.01435
4618.68244,0.00562
4620.61091,-0.00052
4622.53938,0.00170
4624.46784,0.00687
4626.39631,0.00692
4628.32478,0.00419
4630.25325,0.00539
4632.18172,0.00716
4634.11019,0.01074
4636.03866,0.02256
4637.96713,0.03028
4639.89559,0.02663
4641.82406,0.02454
4643.75253,0.02370
4645.68100,0.01638
4647.60947,0.00824
4649.53794,0.00527
4651.46641,0.00493
4653.39487,0.00385
4655.32334,0.00371
4657.25181,0.00515
4659.18028,0.00561
4661.10875,0.00786
4663.03722,0.01564
4664.96569,0.01745
4666.89416,0.00486
4668.82262,-0.00168
4670.75109,0.01257
4672.67956,0.02669
4674.60803,0.02125
4676.53650,0.00464
4678.46497,-0.00636
4680.39344,-0.00841
4682.32190,-0.00595
4684.25037,0.00259
4686.17884,0.01192
4688.10731,0.01198
4690.03578,0.00960
4691.96425,0.01031
4693.89272,0.00262
4695.82119,-0.01247
4697.74965,-0.01247
4699.67812,0.00544
4701.60659,0.01155
4703.53506,-0.00543
4705.46353,-0.02024
4707.39200,-0.01579
4709.32047,-0.00124
4711.24893,0.00960
4713.17740,0.01126
4715.10587,0.00748
4717.03434,0.00482
4718.96281,0.00956
4720.89128,0.01975
4722.81975,0.02345
4724.74821,0.02127
4726.67668,0.02276
4728.60515,0.02744
4730.53362,0.02956
4732.46209,0.02357
4734.39056,0.01104
4736.31903,0.00417
4738.24750,0.00588
4740.17596,0.00476
4742.10443,0.00433
4744.03290,0.01268
4745.96137,0.02047
4747.88984,0.02205
4749.81831,0.02214
4751.74678,0.02609
4753.67524,0.03243
4755.60371,0.03381
4757.53218,0.02541
4759.46065,0.01400
4761.38912,0.01084
4763.31759,0.01462
4765.24606,0.02055
4767.17453,0.02185
4769.10299,0.01549
4771.03146,0.01396
4772.95993,0.02039
4774.88840,0.02597
4776.81687,0.02488
4778.74534,0.01685
4780.67381,0.00439
4782.60227,-0.00976
4784.53074,-0.01088
4786.45921,0.00230
4788.38768,0.00871
4790.31615,0.00692
4792.24462,0.01094
4794.17309,0.01932
4796.10156,0.02214
4798.03002,0.02269
4799.95849,0.02610
4801.88696,0.02833
4803.81543,0.02885
4805.74390,0.02391
4807.67237,0.01006
4809.60084,-0.00626
4811.52930,-0.01798
4813.45777,-0.01902
4815.38624,-0.01065
4817.31471,-0.00609
4819.24318,-0.01028
4821.17165,-0.00931
4823.10012,0.00476
4825.02859,0.01565
4826.95705,0.00540
4828.88552,-0.01133
4830.81399,-0.01014
4832.74246,0.00216
4834.67093,0.01073
4836.59940,0.01111
4838.52787,0.00172
4840.45633,-0.00804
4842.38480,-0.00800
4844.31327,0.00191
4846.24174,0.01595
4848.17021,0.02006
4850.09868,0.01024
4852.02715,0.00029
4853.95562,-0.00343
4855.88408,-0.00227
4857.81255,-0.00201
4859.74102,-0.00972
4861.66949,-0.01399
4863.59796,-0.00218
4865.52643,0.01685
4867.45490,0.02796
4869.38336,0.02840
4871.31183,0.02186
4873.24030,0.01447
4875.16877,0.01539
4877.09724,0.02176
4879.02571,0.02865
4880.95418,0.02630
4882.88265,0.00778
4884.81111,-0.00716
4886.73958,-0.00841
4888.66805,-0.00369
4890.59652,-0.00126
4892.52499,-0.00615
4894.45346,-0.00817
4896.38193,-0.00579
4898.31039,-0.00443
4900.23886,0.00071
4902.16733,0.00500
4904.09580,0.00466
4906.02427,0.00295
4907.95274,-0.00310
4909.88121,-0.00530
4911.80967,0.00654
4913.73814,0.01958
4915.66661,0.02202
4917.59508,0.02012
4919.52355,0.01066
4921.45202,-0.00893
4923.38049,-0.01927
4925.30896,-0.01387
4927.23742,-0.00609
4929.16589,-0.00781
4931.09436,-0.01479
4933.02283,-0.01295
4934.95130,-0.00321
4936.87977,0.00858
4938.80824,0.01832
4940.73670,0.02359
4942.66517,0.02501
4944.59364,0.02348
4946.52211,0.02034
4948.45058,0.01287
4950.37905,0.00585
4952.30752,0.00595
4954.23599,0.01303
4956.16445,0.02456
4958.09292,0.03002
4960.02139,0.01905
4961.94986,0.00311
4963.87833,0.00500
4965.80680,0.01705
4967.73527,0.01710
4969.66373,0.00890
4971.59220,0.00843
4973.52067,0.01961
4975.44914,0.02935
4977.37761,0.03405
4979.30608,0.04184
4981.23455,0.03845
4983.16302,0.01493
4985.09148,-0.00398
4987.01995,-0.00094
4988.94842,0.01516
4990.87689,0.02609
4992.80536,0.02365
4994.73383,0.01837
4996.66230,0.01959
4998.59076,0.02127
5000.51923,0.01936
5002.44770,0.02217
5004.37617,0.02864
5006.30464,0.02665
5008.23311,0.02241
5010.16158,0.02516
5012.09005,0.02098
5014.01851,0.00514
5015.94698,-0.00217
5017.87545,0.00506
5019.80392,0.01219
5021.73239,0.01551
5023.66086,0.01945
5025.58933,0.01825
5027.51779,0.00205
5029.44626,-0.02437
5031.37473,-0.03986
5033.30320,-0.02936
5035.23167,-0.00041
5037.16014,0.02539
5039.08861,0.03783
5041.01708,0.04420
5042.94554,0.04626
5044.87401,0.03605
5046.80248,0.01602
5048.73095,0.00487
5050.65942,0.01079
5052.58789,0.01534
5054.51636,0.00989
5056.44482,0.00940
5058.37329,0.01685
5060.30176,0.02147
5062.23023,0.02028
5064.15870,0.01505
5066.08717,0.00947
5068.01564,0.01417
5069.94410,0.03177
5071.87257,0.04853
5073.80104,0.05421
5075.72951,0.04874
5077.65798,0.04306
5079.58645,0.04058
5081.51492,0.03185
5083.44339,0.02985
5085.37185,0.03524
5087.30032,0.02898
5089.22879,0.01740
5091.15726,0.01544
5093.08573,0.02382
5095.01420,0.02568
5096.94267,0.01306
5098.87113,0.00071
5100.79960,0.00105
5102.72807,0.02313
5104.65654,0.05825
5106.58501,0.06523
5108.51348,0.03658
5110.44195,0.02686
5112.37042,0.05014
5114.29888,0.06501
5116.22735,0.06711
5118.15582,0.06764
5120.08429,0.06178
5122.01276,0.05646
5123.94123,0.04381
5125.86970,0.01544
5127.79816,-0.00109
5129.72663,0.00287
5131.65510,0.00832
5133.58357,0.01460
5135.51204,0.02451
5137.44051,0.03292
5139.36898,0.04526
5141.29745,0.06397
5143.22591,0.07113
5145.15438,0.06346
5147.08285,0.05240
5149.01132,0.04759
5150.93979,0.05359
5152.86826,0.04768
5154.79673,0.02567
5156.72519,0.01654
5158.65366,0.02340
5160.58213,0.03148
5162.51060,0.04246
5164.43907,0.06166
5166.36754,0.07183
5168.29601,0.05381
5170.22448,0.02291
5172.15294,0.00596
5174.08141,0.00622
5176.00988,0.02076
5177.93835,0.04501
5179.86682,0.05576
5181.79529,0.04228
5183.72376,0.02665
5185.65222,0.02516
5187.58069,0.03576
5189.50916,0.04835
5191.43763,0.04789
5193.36610,0.03963
5195.29457,0.03554
5197.22304,0.02783
5199.15151,0.02619
5201.07997,0.04108
5203.00844,0.05602
5204.93691,0.06040
5206.86538,0.05322
5208.79385,0.05248
5210.72232,0.06537
5212.65079,0.06215
5214.57925,0.03930
5216.50772,0.02787
5218.43619,0.03712
5220.36466,0.05140
5222.29313,0.06184
5224.22160,0.06379
5226.15007,0.04343
5228.07854,0.01026
5230.00700,-0.00480
5231.93547,-0.00215
5233.86394,0.00426
5235.79241,0.00943
5237.72088,0.00982
5239.64935,0.01542
5241.57782,0.03055
5243.50628,0.04074
5245.43475,0.04248
5247.36322,0.04019
5249.29169,0.03139
5251.22016,0.02040
5253.14863,0.01456
5255.07710,0.02959
5257.00556,0.06171
5258.93403,0.06480
5260.86250,0.03208
5262.79097,0.01225
5264.71944,0.03205
5266.64791,0.06736
5268.57638,0.08715
5270.50485,0.08415
5272.43331,0.07250
5274.36178,0.06037
5276.29025,0.04030
5278.21872,0.02083
5280.14719,0.02402
5282.07566,0.04344
5284.00413,0.05592
5285.93259,0.06428
5287.86106,0.07728
5289.78953,0.06982
5291.71800,0.03228
5293.64647,0.01484
5295.57494,0.03213
5297.50341,0.04608
5299.43188,0.04493
5301.36034,0.05097
5303.28881,0.06543
5305.21728,0.05736
5307.14575,0.02487
5309.07422,0.01598
5311.00269,0.03362
5312.93116,0.04112
5314.85962,0.04907
5316.78809,0.05365
5318.71656,0.02917
5320.64503,0.01755
5322.57350,0.04053
5324.50197,0.05686
5326.43044,0.06163
5328.35891,0.07124
5330.28737,0.07297
5332.21584,0.05839
5334.14431,0.04228
5336.07278,0.02809
5338.00125,0.00360
5339.92972,-0.01091
5341.85819,0.00042
5343.78665,0.03140
5345.71512,0.07093
5347.64359,0.09094
5349.57206,0.09153
5351.50053,0.09319
5353.42900,0.09366
5355.35747,0.07221
5357.28594,0.05420
5359.21440,0.06919
5361.14287,0.08422
5363.07134,0.06982
5364.99981,0.05172
5366.92828,0.04966
5368.85675,0.05977
5370.78522,0.07269
5372.71368,0.07863
5374.64215,0.08723
5376.57062,0.10757
5378.49909,0.11366
5380.42756,0.09982
5382.35603,0.07699
5384.28450,0.04292
5386.21297,0.02148
5388.14143,0.02570
5390.06990,0.03437
5391.99837,0.04435
5393.92684,0.05342
5395.85531,0.05919
5397.78378,0.06115
5399.71225,0.06537
5401.64071,0.07903
5403.56918,0.07696
5405.49765,0.05338
5407.42612,0.04313
5409.35459,0.04579
5411.28306,0.03306
5413.21153,0.01087
5415.13999,0.00357
5417.06846,0.01085
5418.99693,0.02126
5420.92540,0.03041
5422.85387,0.04206
5424.78234,0.05429
5426.71081,0.06621
5428.63928,0.08088
5430.56774,0.08537
5432.49621,0.07145
5434.42468,0.04836
5436.35315,0.04133
5438.28162,0.06037
5440.21009,0.07783
5442.13856,0.08489
5444.06702,0.10565
5445.99549,0.13089
5447.92396,0.13820
5449.85243,0.13767
5451.78090,0.12935
5453.70937,0.09909
5455.63784,0.05247
5457.56631,0.01843
5459.49477,0.01799
5461.42324,0.03762
5463.35171,0.05474
5465.28018,0.05951
5467.20865,0.04827
5469.13712,0.03562
5471.06559,0.04569
5472.99405,0.07033
5474.92252,0.08447
5476.85099,0.08237
5478.77946,0.07460
5480.70793,0.06523
5482.63640,0.06693
5484.56487,0.07935
5486.49334,0.09219
5488.42180,0.11603
5490.35027,0.13997
5492.27874,0.13318
5494.20721,0.10495
5496.13568,0.08609
5498.06415,0.07417
5499.99262,0.06886
5501.92108,0.08105
5503.84955,0.09200
5505.77802,0.08988
5507.70649,0.07918
5509.63496,0.06744
5511.56343,0.07040
5513.49190,0.06924
5515.42037,0.04237
5517.34883,0.01846
5519.27730,0.01573
5521.20577,0.02160
5523.13424,0.03846
5525.06271,0.06139
5526.99118,0.06597
5528.91965,0.05698
5530.84811,0.05964
5532.77658,0.07570
5534.70505,0.09004
5536.63352,0.09529
5538.56199,0.08915
5540.49046,0.07665
5542.41893,0.06264
5544.34740,0.03969
5546.27586,0.02117
5548.20433,0.02508
5550.13280,0.02972
5552.06127,0.01598
5553.98974,0.00656
5555.91821,0.02623
5557.84668,0.05246
5559.77514,0.05389
5561.70361,0.03310
5563.63208,0.01460
5565.56055,0.02195
5567.48902,0.04931
5569.41749,0.07989
5571.34596,0.10900
5573.27443,0.12760
5575.20289,0.11670
5577.13136,0.08669
5579.05983,0.06538
5580.98830,0.04658
5582.91677,0.02826
5584.84524,0.04379
5586.77371,0.09119
5588.70217,0.11439
5590.63064,0.08951
5592.55911,0.06133
5594.48758,0.06257
5596.41605,0.08224
5598.34452,0.09420
5600.27299,0.07948
5602.20145,0.04183
5604.12992,0.00885
5606.05839,0.01008
5607.98686,0.03247
5609.91533,0.04102
5611.84380,0.04391
5613.77227,0.05005
5615.70074,0.04850
5617.62920,0.04683
5619.55767,0.03761
5621.48614,0.02166
5623.41461,0.03200
5625.34308,0.05770
5627.27155,0.05991
5629.20002,0.06173
5631.12848,0.07850
5633.05695,0.07543
5634.98542,0.06329
5636.91389,0.07073
5638.84236,0.08863
5640.77083,0.11425
5642.69930,0.13926
5644.62777,0.14764
5646.55623,0.15598
5648.48470,0.17223
5650.41317,0.16626
5652.34164,0.14151
5654.27011,0.11720
5656.19858,0.08339
5658.12705,0.05129
5660.05551,0.04319
5661.98398,0.04995
5663.91245,0.05708
5665.84092,0.07704
5667.76939,0.10090
5669.69786,0.08865
5671.62633,0.06300
5673.55480,0.06252
5675.48326,0.05818
5677.41173,0.04663
5679.34020,0.05400
5681.26867,0.06588
5683.19714,0.06947
5685.12561,0.08154
5687.05408,0.10496
5688.98254,0.09973
5690.91101,0.06431
5692.83948,0.06256
5694.76795,0.09585
5696.69642,0.10175
5698.62489,0.08225
5700.55336,0.08053
5702.48183,0.08446
5704.41029,0.07365
5706.33876,0.07819
5708.26723,0.11428
5710.19570,0.13656
5712.12417,0.13464
5714.05264,0.13722
5715.98111,0.12731
5717.90957,0.09463
5719.83804,0.07399
5721.76651,0.08177
5723.69498,0.08373
5725.62345,0.06497
5727.55192,0.05238
5729.48039,0.06328
5731.40886,0.08509
5733.33732,0.08770
5735.26579,0.07620
5737.19426,0.09050
5739.12273,0.11457
5741.05120,0.10842
5742.97967,0.09170
5744.90814,0.08721
5746.83660,0.09341
5748.76507,0.11516
5750.69354,0.13252
5752.62201,0.11090
5754.55048,0.06668
5756.47895,0.04249
5758.40742,0.04283
5760.33588,0.05575
5762.26435,0.07349
5764.19282,0.07122
5766.12129,0.05396
5768.04976,0.05077
5769.97823,0.05939
5771.90670,0.06613
5773.83517,0.06337
5775.76363,0.05687
5777.69210,0.05504
5779.62057,0.04751
5781.54904,0.03868
5783.47751,0.04859
5785.40598,0.07110
5787.33445,0.09848
5789.26291,0.12790
5791.19138,0.13473
5793.11985,0.09996
5795.04832,0.04560
5796.97679,0.02645
5798.90526,0.06226
5800.83373,0.10065
5802.76220,0.08896
5804.69066,0.05021
5806.61913,0.04202
5808.54760,0.05780
5810.47607,0.05743
5812.40454,0.03683
5814.33301,0.02941
5816.26148,0.05182
5818.18994,0.06946
5820.11841,0.08088
5822.04688,0.11782
5823.97535,0.13284
5825.90382,0.09551
5827.83229,0.05649
5829.76076,0.05686
5831.68923,0.07022
5833.61769,0.05282
5835.54616,0.03335
5837.47463,0.04611
5839.40310,0.06412
5841.33157,0.07180
5843.26004,0.07065
5845.18851,0.05052
5847.11697,0.00611
5849.04544,-0.04636
5850.97391,-0.05738
5852.90238,-0.02518
5854.83085,0.01525
5856.75932,0.05149
5858.68779,0.05417
5860.61626,0.02899
5862.54472,0.02544
5864.47319,0.05181
5866.40166,0.07141
5868.33013,0.05218
5870.25860,0.03470
5872.18707,0.05997
5874.11554,0.09698
5876.04400,0.11270
5877.97247,0.10483
5879.90094,0.07460
5881.82941,0.04671
5883.75788,0.06538
5885.68635,0.11522
5887.61482,0.14425
5889.54329,0.13587
5891.47175,0.11138
5893.40022,0.10630
5895.32869,0.11825
5897.25716,0.11025
5899.18563,0.08219
5901.11410,0.06648
5903.04257,0.07118
5904.97103,0.07647
5906.89950,0.08160
5908.82797,0.08999
5910.75644,0.07438
5912.68491,0.05487
5914.61338,0.06938
5916.54185,0.07740
5918.47032,0.06265
5920.39878,0.07004
5922.32725,0.11468
5924.25572,0.16472
5926.18419,0.17264
5928.11266,0.14450
5930.04113,0.12560
5931.96960,0.12144
5933.89806,0.12033
5935.82653,0.09986
5937.75500,0.07139
5939.68347,0.08583
5941.61194,0.11698
5943.54041,0.12682
5945.46888,0.13191
5947.39734,0.12547
5949.32581,0.12055
5951.25428,0.13165
5953.18275,0.12680
5955.11122,0.11227
5957.03969,0.11660
5958.96816,0.13101
5960.89663,0.11848
5962.82509,0.08500
5964.75356,0.07462
5966.68203,0.08266
5968.61050,0.09366
5970.53897,0.09964
5972.46744,0.06941
5974.39591,0.03903
5976.32437,0.06984
5978.25284,0.14310
5980.18131,0.21526
5982.10978,0.23578
5984.03825,0.17410
5985.96672,0.10505
5987.89519,0.10111
5989.82366,0.09735
5991.75212,0.06046
5993.68059,0.04082
5995.60906,0.04719
5997.53753,0.05363
5999.46600,0.04214
6001.39447,0.02915
6003.32294,0.05290
6005.25140,0.10315
6007.17987,0.12718
6009.10834,0.11892
6011.03681,0.10345
6012.96528,0.07265
6014.89375,0.03169
6016.82222,0.02896
6018.75069,0.07601
6020.67915,0.12279
6022.60762,0.14217
6024.53609,0.12387
6026.46456,0.06935
6028.39303,0.03084
6030.32150,0.03457
6032.24997,0.04887
6034.17843,0.07512
6036.10690,0.11007
6038.03537,0.12011
6039.96384,0.12375
6041.89231,0.14492
6043.82078,0.15690
6045.74925,0.15890
6047.67772,0.17579
6049.60618,0.18800
6051.53465,0.15898
6053.46312,0.10452
6055.39159,0.08789
6057.32006,0.11928
6059.24853,0.14259
6061.17700,0.12986
6063.10546,0.06644
6065.03393,0.00777
6066.96240,0.03138
6068.89087,0.07763
6070.81934,0.06544
6072.74781,0.04747
6074.67628,0.06761
6076.60475,0.06904
6078.53321,0.04878
6080.46168,0.05444
6082.39015,0.09322
6084.31862,0.13684
6086.24709,0.13731
6088.17556,0.09241
6090.10403,0.03060
6092.03249,-0.00228
6093.96096,0.03079
6095.88943,0.04769
6097.81790,0.00227
6099.74637,-0.02471
6101.67484,0.01236
6103.60331,0.07993
6105.53177,0.12350
6107.46024,0.11578
6109.38871,0.07750
6111.31718,0.04855
6113.24565,0.05519
6115.17412,0.09980
6117.10259,0.17059
6119.03106,0.20594
6120.95952,0.13759
6122.88799,0.03366
6124.81646,-0.00060
6126.74493,0.04124
6128.67340,0.09688
6130.60187,0.13708
6132.53034,0.16600
6134.45880,0.17284
6136.38727,0.14730
6138.31574,0.08628
6140.24421,0.00359
6142.17268,-0.05141
6144.10115,-0.03096
6146.02962,0.03072
6147.95809,0.07806
6149.88655,0.11061
6151.81502,0.10946
6153.74349,0.05642
6155.67196,-0.00642
6157.60043,-0.04389
6159.52890,-0.04286
6161.45737,-0.00468
6163.38583,0.03186
6165.31430,0.04561
6167.24277,0.06373
6169.17124,0.09031
6171.09971,0.12780
6173.02818,0.17059
6174.95665,0.16572
6176.88512,0.10781
6178.81358,0.07530
6180.74205,0.10197
6182.67052,0.10615
6184.59899,0.05596
6186.52746,0.05244
6188.45593,0.13936
6190.38440,0.19129
6192.31286,0.14530
6194.24133,0.06808
6196.16980,0.01257
6198.09827,0.00542
6200.02674,0.02264
6201.95521,-0.00485
6203.88368,-0.03703
6205.81215,0.01534
6207.74061,0.07152
6209.66908,0.04069
6211.59755,-0.01075
6213.52602,-0.00310
6215.45449,0.05866
6217.38296,0.12577
6219.31143,0.13008
6221.23989,0.08032
6223.16836,0.06176
6225.09683,0.08676
6227.02530,0.09329
6228.95377,0.10453
6230.88224,0.12441
6232.81071,0.09572
6234.73918,0.04696
6236.66764,0.02922
6238.59611,0.05526
6240.52458,0.11754
6242.45305,0.14943
6244.38152,0.12774
6246.30999,0.12114
6248.23846,0.14991
6250.16692,0.18535
6252.09539,0.17834
6254.02386,0.10311
6255.95233,0.02391
6257.88080,-0.00208
6259.80927,0.02531
6261.73774,0.06703
6263.66621,0.06185
6265.59467,0.01958
6267.52314,-0.01364
6269.45161,-0.03502
6271.38008,-0.00579
6273.30855,0.10227
6275.23702,0.17240
6277.16549,0.12354
6279.09395,0.08394
6281.02242,0.10375
6282.95089,0.12709
6284.87936,0.13983
6286.80783,0.12692
6288.73630,0.07227
6290.66477,0.01874
6292.59323,0.02512
6294.52170,0.05116
6296.45017,0.05471
6298.37864,0.05603
6300.30711,0.06662
6302.23558,0.11769
6304.16405,0.19089
6306.09252,0.19592
6308.02098,0.12426
6309.94945,0.06814
6311.87792,0.08159
6313.80639,0.12363
6315.73486,0.12835
6317.66333,0.07165
6319.59180,0.01882
6321.52026,0.02896
6323.44873,0.06133
6325.37720,0.08712
6327.30567,0.12777
6329.23414,0.16841
6331.16261,0.17063
6333.09108,0.16156
6335.01955,0.18455
6336.94801,0.19484
6338.87648,0.13243
6340.80495,0.03154
6342.73342,-0.00866
6344.66189,0.03902
6346.59036,0.09003
6348.51883,0.12600
6350.44729,0.20260
6352.37576,0.21862
6354.30423,0.13310
6356.23270,0.08381
6358.16117,0.11072
6360.08964,0.13574
6362.01811,0.12821
6363.94658,0.13060
6365.87504,0.17408
6367.80351,0.23311
6369.73198,0.22995
6371.66045,0.14823
6373.58892,0.09888
6375.51739,0.11702
6377.44586,0.12561
6379.37432,0.08423
6381.30279,-0.00739
6383.23126,-0.07207
6385.15973,-0.06045
6387.08820,-0.03671
6389.01667,-0.01731
6390.94514,0.01814
6392.87361,0.06905
6394.80207,0.08309
6396.73054,0.05535
6398.65901,0.01715
6400.58748,-0.02484
6402.51595,-0.02161
6404.44442,0.03239
6406.37289,0.08482
6408.30135,0.10791
6410.22982,0.08107
6412.15829,0.02842
6414.08676,0.01720
6416.01523,0.01154
6417.94370,-0.03759
6419.87217,-0.04991
6421.80064,-0.00095
6423.72910,0.06329
6425.65757,0.11072
6427.58604,0.10570
6429.51451,0.08203
6431.44298,0.07914
6433.37145,0.08971
6435.29992,0.09103
6437.22838,0.05375
6439.15685,0.01778
6441.08532,0.03484
6443.01379,0.08483
6444.94226,0.13784
6446.87073,0.17090
6448.79920,0.16343
6450.72766,0.11130
6452.65613,0.07397
6454.58460,0.10628
6456.51307,0.13197
6458.44154,0.11031
6460.37001,0.13806
6462.29848,0.20080
6464.22695,0.19891
6466.15541,0.14194
6468.08388,0.09811
6470.01235,0.10006
6471.94082,0.13403
6473.86929,0.18172
6475.79776,0.21197
6477.72623,0.14020
6479.65469,0.04676
6481.58316,0.10637
6483.51163,0.19350
6485.44010,0.15020
6487.36857,0.06799
6489.29704,0.04905
6491.22551,0.06905
6493.15398,0.05440
6495.08244,0.02269
6497.01091,0.06059
6498.93938,0.15973
6500.86785,0.21348
6502.79632,0.15945
6504.72479,0.05800
6506.65326,0.02520
6508.58172,0.08839
6510.51019,0.13294
6512.43866,0.09494
6514.36713,0.02889
6516.29560,-0.02152
6518.22407,-0.04556
6520.15254,-0.04069
6522.08101,-0.02659
6524.00947,-0.02848
6525.93794,-0.05769
6527.86641,-0.07310
6529.79488,-0.06059
6531.72335,-0.10445
6533.65182,-0.14034
6535.58029,-0.07396
6537.50875,-0.02076
6539.43722,0.01887
6541.36569,0.10821
6543.29416,0.12524
6545.22263,0.05089
6547.15110,0.01280
6549.07957,0.04149
6551.00804,0.09805
6552.93650,0.13026
6554.86497,0.12364
6556.79344,0.08260
6558.72191,0.04820
6560.65038,0.08252
6562.57885,0.13235
6564.50732,0.14961
6566.43578,0.16982
6568.36425,0.15831
6570.29272,0.10144
6572.22119,0.06434
6574.14966,0.04138
6576.07813,0.01841
6578.00660,0.05522
6579.93507,0.15478
6581.86353,0.23033
6583.79200,0.22857
6585.72047,0.19251
6587.64894,0.15120
6589.57741,0.08533
6591.50588,0.06257
6593.43435,0.14436
6595.36281,0.20763
6597.29128,0.17286
6599.21975,0.14071
6601.14822,0.15136
6603.07669,0.16416
6605.00516,0.16721
6606.93363,0.13160
6608.86210,0.05842
6610.79056,0.02798
6612.71903,0.08459
6614.64750,0.16545
6616.57597,0.17948
6618.50444,0.12691
6620.43291,0.09337
6622.36138,0.10231
6624.28984,0.13811
6626.21831,0.17290
6628.14678,0.10720
6630.07525,-0.02883
6632.00372,-0.03357
6633.93219,0.07162
6635.86066,0.14183
6637.78912,0.14273
6639.71759,0.15009
6641.64606,0.18879
6643.57453,0.19690
6645.50300,0.15116
6647.43147,0.11187
6649.35994,0.09536
6651.28841,0.05361
6653.21687,0.00461
6655.14534,-0.01246
6657.07381,-0.02652
6659.00228,-0.00764
6660.93075,0.07862
6662.85922,0.09605
6664.78769,0.00838
6666.71615,-0.01236
6668.64462,0.07967
6670.57309,0.11945
6672.50156,0.05711
6674.43003,0.03296
6676.35850,0.09428
6678.28697,0.13769
6680.21544,0.12658
6682.14390,0.08395
6684.07237,0.02977
6686.00084,0.03983
6687.92931,0.10716
6689.85778,0.12091
6691.78625,0.08899
6693.71472,0.09292
6695.64318,0.13615
6697.57165,0.14410
6699.50012,0.08434
6701.42859,0.05718
6703.35706,0.10970
6705.28553,0.13608
6707.21400,0.09581
6709.14247,0.05379
6711.07093,0.05360
6712.99940,0.11210
6714.92787,0.17195
6716.85634,0.13493
6718.78481,0.03577
6720.71328,0.00477
6722.64175,0.05684
6724.57021,0.10123
6726.49868,0.11987
6728.42715,0.14348
6730.35562,0.15264
6732.28409,0.13026
6734.21256,0.08992
6736.14103,0.00048
6738.06950,-0.07553
6739.99796,0.00546
6741.92643,0.18337
6743.85490,0.22794
6745.78337,0.15266
6747.71184,0.12682
6749.64031,0.13736
6751.56878,0.02740
6753.49724,-0.11944
6755.42571,-0.11469
6757.35418,-0.05032
6759.28265,-0.03510
6761.21112,-0.00621
6763.13959,0.01601
6765.06806,-0.00567
6766.99653,0.00738
6768.92499,0.08802
6770.85346,0.16439
6772.78193,0.20535
6774.71040,0.21838
6776.63887,0.13863
6778.56734,0.02239
6780.49581,-0.02008
6782.42427,0.00353
6784.35274,0.05431
6786.28121,0.09056
6788.20968,0.10288
6790.13815,0.11744
6792.06662,0.11635
6793.99509,0.04059
6795.92355,-0.04967
6797.85202,-0.01832
6799.78049,0.08146
6801.70896,0.11398
6803.63743,0.10322
6805.56590,0.14647
6807.49437,0.16666
6809.42284,0.07108
6811.35130,-0.02315
6813.27977,-0.00306
6815.20824,0.01270
6817.13671,-0.03549
6819.06518,-0.04422
6820.99365,0.09432
6822.92212,0.31062
6824.85058,0.36143
6826.77905,0.30903
6828.70752,0.26940
6830.63599,0.20763
6832.56446,0.13814
6834.49293,0.10773
6836.42140,0.07174
6838.34987,-0.05621
6840.27833,-0.16879
6842.20680,-0.10183
6844.13527,0.04887
6846.06374,0.08704
6847.99221,0.05604
6849.92068,0.07869
6851.84915,0.10140
6853.77761,0.10032
6855.70608,0.06078
6857.63455,-0.00256
6859.56302,-0.00766
6861.49149,0.01394
6863.41996,-0.00870
6865.34843,-0.03684
6867.27690,-0.00907
6869.20536,0.02901
6871.13383,0.00791
6873.06230,-0.02173
6874.99077,-0.01585
6876.91924,-0.03239
6878.84771,-0.03536
6880.77618,0.01344
6882.70464,0.01218
6884.63311,-0.03559
6886.56158,-0.06031
6888.49005,-0.06465
6890.41852,-0.00438
6892.34699,0.13248
6894.27546,0.22660
6896.20393,0.25875
6898.13239,0.25087
6900.06086,0.19595
6901.98933,0.13246
6903.91780,0.05398
6905.84627,-0.00546
6907.77474,0.03676
6909.70321,0.09437
6911.63167,0.08319
6913.56014,0.05336
6915.48861,0.03217
6917.41708,0.02843
6919.34555,0.07854
6921.27402,0.12350
6923.20249,0.08745
6925.13096,0.01053
6927.05942,-0.06279
6928.98789,-0.11436
6930.91636,-0.08154
6932.84483,0.03915
6934.77330,0.14635
6936.70177,0.20339
6938.63024,0.21442
6940.55870,0.15649
6942.48717,0.03436
6944.41564,-0.03683
6946.34411,-0.02401
6948.27258,0.00973
6950.20105,0.07293
6952.12952,0.12899
6954.05799,0.11998
6955.98645,0.11973
6957.91492,0.22859
6959.84339,0.39488
6961.77186,0.43731
6963.70033,0.30337
6965.62880,0.13221
6967.55727,0.03470
6969.48573,0.04514
6971.41420,0.13283
6973.34267,0.21540
6975.27114,0.19728
6977.19961,0.11578
6979.12808,0.09270
6981.05655,0.09329
6982.98501,0.05079
6984.91348,0.03868
6986.84195,0.05985
6988.77042,0.04416
6990.69889,-0.00084
6992.62736,-0.07648
6994.55583,-0.15947
6996.48430,-0.16002
6998.41276,-0.04514
7000.34123,0.10271
7002.26970,0.18281
7004.19817,0.13082
7006.12664,0.07532
7008.05511,0.12273
7009.98358,0.10870
7011.91204,0.01988
7013.84051,-0.00591
7015.76898,-0.02817
7017.69745,-0.05442
7019.62592,0.05376
7021.55439,0.18748
7023.48286,0.15045
7025.41133,0.01532
7027.33979,-0.03012
7029.26826,0.00936
7031.19673,0.04545
7033.12520,0.12542
7035.05367,0.18532
7036.98214,0.14302
7038.91061,0.06730
7040.83907,-0.01013
7042.76754,-0.03975
7044.69601,0.03696
7046.62448,0.17940
7048.55295,0.27912
7050.48142,0.23269
7052.40989,0.11140
7054.33836,0.06185
7056.26682,0.12532
7058.19529,0.17730
7060.12376,0.06239
7062.05223,-0.10463
7063.98070,-0.07009
7065.90917,0.12241
7067.83764,0.27325
7069.76610,0.34477
7071.69457,0.32219
7073.62304,0.16767
7075.55151,-0.03068
7077.47998,-0.08027
7079.40845,0.07624
7081.33692,0.25232
7083.26539,0.31741
7085.19385,0.37234
7087.12232,0.32317
7089.05079,0.11316
7090.97926,-0.02201
7092.90773,-0.01273
7094.83620,0.05634
7096.76467,0.14847
7098.69313,0.24459
7100.62160,0.25902
7102.55007,0.15681
7104.47854,0.02965
7106.40701,-0.03050
7108.33548,-0.03401
7110.26395,0.00283
7112.19242,0.06555
7114.12088,0.07102
7116.04935,-0.01748
7117.97782,-0.15597
7119.90629,-0.20781
7121.83476,-0.08640
7123.76323,0.09704
7125.69170,0.17024
7127.62016,0.12561
7129.54863,0.09703
7131.47710,0.08996
7133.40557,0.03350
7135.33404,-0.02821
7137.26251,-0.03708
7139.19098,-0.00073
7141.11944,0.05350
7143.04791,0.10387
7144.97638,0.19918
7146.90485,0.33404
7148.83332,0.32418
7150.76179,0.08707
7152.69026,-0.23329
7154.61873,-0.37879
7156.54719,-0.28933
7158.47566,-0.08541
7160.40413,0.07922
7162.33260,0.10751
7164.26107,0.06809
7166.18954,0.04755
7168.11801,0.02072
7170.04647,-0.05784
7171.97494,-0.05524
7173.90341,0.07592
7175.83188,0.12335
7177.76035,0.02988
7179.68882,-0.01883
7181.61729,-0.04085
7183.54576,-0.03617
7185.47422,0.09652
7187.40269,0.16386
7189.33116,0.06697
7191.25963,-0.00450
7193.18810,0.01368
7195.11657,0.01866
7197.04504,0.02858
7198.97350,0.03735
7200.90197,0.01679
7202.83044,0.08678
7204.75891,0.23599
7206.68738,0.24179
7208.61585,0.18890
7210.54432,0.16098
7212.47279,0.09772
7214.40125,0.02370
7216.32972,0.04055
7218.25819,0.11376
7220.18666,0.13281
7222.11513,0.16273
7224.04360,0.20934
7225.97207,0.18957
7227.90053,0.03840
7229.82900,-0.21986
7231.75747,-0.31121
7233.68594,-0.15797
7235.61441,-0.08392
7237.54288,-0.06404
7239.47135,0.04219
7241.39982,0.08309
7243.32828,-0.07581
7245.25675,-0.19528
7247.18522,-0.13154
7249.11369,0.02362
7251.04216,0.19883
7252.97063,0.29427
7254.89910,0.20655
7256.82756,0.10282
7258.75603,0.09898
7260.68450,0.13928
7262.61297,0.15398
7264.54144,0.18283
7266.46991,0.23711
7268.39838,0.28780
7270.32685,0.31603
7272.25531,0.31583
7274.18378,0.26311
7276.11225,0.21539
7278.04072,0.22974
7279.96919,0.17148
7281.89766,0.00577
7283.82613,-0.00150
7285.75459,0.11006
7287.68306,0.10310
7289.61153,-0.01160
7291.54000,0.02779
7293.46847,0.18476
7295.39694,0.15492
7297.32541,0.02748
7299.25387,0.05580
7301.18234,0.17884
7303.11081,0.22860
7305.03928,0.15136
7306.96775,0.00441
7308.89622,-0.05684
7310.82469,-0.03594
7312.75316,-0.08938
7314.68162,-0.08740
7316.61009,0.04636
7318.53856,0.01297
7320.46703,-0.15298
7322.39550,-0.15675
7324.32397,-0.04966
7326.25244,0.03198
7328.18090,0.23218
7330.10937,0.52254
7332.03784,0.48463
7333.96631,0.21986
7335.89478,0.12397
7337.82325,0.22080
7339.75172,0.26242
7341.68019,0.04015
7343.60865,-0.09422
7345.53712,0.06021
7347.46559,0.34907
7349.39406,0.54877
7351.32253,0.51158
7353.25100,0.24217
7355.17947,0.00814
7357.10793,-0.04889
7359.03640,0.01747
7360.96487,0.13103
7362.89334,0.16587
7364.82181,0.11777
7366.75028,0.12640
7368.67875,0.19489
7370.60722,0.24771
7372.53568,0.22383
7374.46415,0.14266
7376.39262,0.10458
7378.32109,0.02315
7380.24956,-0.12140
7382.17803,-0.20892
7384.10650,-0.22880
7386.03496,-0.25221
7387.96343,-0.26146
7389.89190,-0.20156
7391.82037,-0.11182
7393.74884,-0.03182
7395.67731,-0.03435
7397.60578,-0.07101
7399.53425,0.10526
7401.46271,0.40553
7403.39118,0.51547
7405.31965,0.38844
7407.24812,0.25280
7409.17659,0.19168
7411.10506,0.17324
7413.03353,0.11430
7414.96199,0.04037
7416.89046,0.09287
7418.81893,0.18447
7420.74740,0.03588
7422.67587,-0.13318
7424.60434,-0.11457
7426.53281,0.01996
7428.46128,0.19550
7430.38974,0.36151
7432.31821,0.35941
7434.24668,0.19606
7436.17515,0.08722
7438.10362,0.10632
7440.03209,0.15382
7441.96056,0.19840
7443.88902,0.16749
7445.81749,0.13898
7447.74596,0.26408
7449.67443,0.38575
7451.60290,0.31356
7453.53137,0.18702
7455.45984,0.11467
7457.38831,0.04383
7459.31677,0.01610
7461.24524,0.06890
7463.17371,0.07965
7465.10218,0.08448
7467.03065,0.09961
7468.95912,0.08215
7470.88759,0.08252
7472.81605,0.06488
7474.74452,0.03676
7476.67299,-0.00297
7478.60146,-0.20647
7480.52993,-0.33494
7482.45840,-0.10395
7484.38687,0.04843
7486.31533,0.04248
7488.24380,0.02201
7490.17227,-0.14248
7492.10074,-0.27627
7494.02921,-0.24568
7495.95768,-0.24215
7497.88615,-0.29722
