399.19301,0.53908
401.12148,0.38415
403.04995,0.20381
404.97842,-0.29987
406.90689,-0.54581
408.83536,-0.41921
410.76382,-0.07760
412.69229,0.20731
414.62076,0.32415
416.54923,0.32206
418.47770,0.13837
420.40617,-0.14650
422.33464,-0.29773
424.26311,-0.30634
426.19157,-0.18459
428.12004,-0.06292
430.04851,0.05783
431.97698,0.23160
433.90545,0.30473
435.83392,0.23914
437.76239,0.17268
439.69085,0.17876
441.61932,0.22348
443.54779,0.19926
445.47626,0.13012
447.40473,0.16261
449.33320,0.23774
451.26167,0.21189
453.19013,0.13322
455.11860,0.08510
457.04707,0.12996
458.97554,0.22479
460.90401,0.19194
462.83248,0.06811
464.76095,-0.03468
466.68942,-0.08450
468.61788,-0.08767
470.54635,-0.06560
472.47482,0.02340
474.40329,0.15606
476.33176,0.09550
478.26023,-0.01408
480.18870,-0.03921
482.11716,-0.00643
484.04563,0.07672
485.97410,0.19429
487.90257,0.23488
489.83104,0.18642
491.75951,0.14643
493.68798,0.12573
495.61645,0.11512
497.54491,0.13012
499.47338,0.11628
501.40185,0.07721
503.33032,0.10706
505.25879,0.17845
507.18726,0.18605
509.11573,0.14455
511.04419,0.12098
512.97266,0.11475
514.90113,0.11229
516.82960,0.10047
518.75807,0.08408
520.68654,0.08265
522.61501,0.09019
524.54348,0.07835
526.47194,0.05107
528.40041,0.05801
530.32888,0.10135
532.25735,0.12491
534.18582,0.11521
536.11429,0.11448
538.04276,0.11485
539.97122,0.11973
541.89969,0.14817
543.82816,0.16057
545.75663,0.13502
547.68510,0.09666
549.61357,0.06137
551.54204,-0.00011
553.47051,-0.04145
555.39897,0.02568
557.32744,0.11453
559.25591,0.13004
561.18438,0.12355
563.11285,0.11991
565.04132,0.10541
566.96979,0.07978
568.89825,0.06023
570.82672,0.05207
572.75519,0.03608
574.68366,0.04019
576.61213,0.08634
578.54060,0.12041
580.46907,0.10682
582.39754,0.08936
584.32600,0.10635
586.25447,0.12615
588.18294,0.13007
590.11141,0.14107
592.03988,0.15960
593.96835,0.16778
595.89682,0.15858
597.82528,0.14304
599.75375,0.14355
601.68222,0.13798
603.61069,0.11356
605.53916,0.10844
607.46763,0.11846
609.39610,0.11897
611.32456,0.11238
613.25303,0.10230
615.18150,0.09751
617.10997,0.10734
619.03844,0.11132
620.96691,0.10193
622.89538,0.10830
624.82385,0.13503
626.75231,0.15045
628.68078,0.14423
630.60925,0.14496
632.53772,0.15517
634.46619,0.15232
636.39466,0.14356
638.32313,0.14608
640.25159,0.15226
642.18006,0.14233
644.10853,0.12751
646.03700,0.13665
647.96547,0.15933
649.89394,0.16818
651.82241,0.16965
653.75088,0.16270
655.67934,0.13751
657.60781,0.11854
659.53628,0.12812
661.46475,0.13661
663.39322,0.11819
665.32169,0.09217
667.25016,0.06976
669.17862,0.07073
671.10709,0.10177
673.03556,0.12570
674.96403,0.12851
676.89250,0.11661
678.82097,0.10623
680.74944,0.10651
682.67791,0.12069
684.60637,0.14092
686.53484,0.15386
688.46331,0.14284
690.39178,0.11201
692.32025,0.10174
694.24872,0.12876
696.17719,0.15633
698.10565,0.15151
700.03412,0.13088
701.96259,0.12655
703.89106,0.13601
705.81953,0.13721
707.74800,0.12864
709.67647,0.11651
711.60494,0.10942
713.53340,0.11947
715.46187,0.13784
717.39034,0.15034
719.31881,0.15618
721.24728,0.15466
723.17575,0.14639
725.10422,0.14294
727.03268,0.14987
728.96115,0.15052
730.88962,0.13541
732.81809,0.12462
734.74656,0.12959
736.67503,0.13657
738.60350,0.13841
740.53197,0.13674
742.46043,0.13317
744.38890,0.13110
746.31737,0.13117
748.24584,0.12795
750.17431,0.12519
752.10278,0.13725
754.03125,0.15517
755.95971,0.16012
757.88818,0.15460
759.81665,0.14154
761.74512,0.12783
763.67359,0.12817
765.60206,0.13706
767.53053,0.13602
769.45900,0.12091
771.38746,0.11250
773.31593,0.13016
775.24440,0.15678
777.17287,0.16271
779.10134,0.15199
781.02981,0.14281
782.95828,0.13857
784.88674,0.14021
786.81521,0.14170
788.74368,0.13320
790.67215,0.12470
792.60062,0.13479
794.52909,0.15517
796.45756,0.16398
798.38602,0.16340
800.31449,0.15579
802.24296,0.13473
804.17143,0.11589
806.09990,0.11969
808.02837,0.13123
809.95684,0.13055
811.88531,0.12757
813.81377,0.13107
815.74224,0.13595
817.67071,0.13596
819.59918,0.13092
821.52765,0.12903
823.45612,0.13378
825.38459,0.13748
827.31305,0.13556
829.24152,0.13094
831.16999,0.12578
833.09846,0.12600
835.02693,0.13506
836.95540,0.14214
838.88387,0.14474
840.81234,0.15241
842.74080,0.15788
844.66927,0.14853
846.59774,0.13430
848.52621,0.13292
850.45468,0.14159
852.38315,0.14411
854.31162,0.13862
856.24008,0.13981
858.16855,0.15031
860.09702,0.15426
862.02549,0.14762
863.95396,0.14303
865.88243,0.14717
867.81090,0.15374
869.73937,0.15466
871.66783,0.14711
873.59630,0.13667
875.52477,0.13083
877.45324,0.12986
879.38171,0.13167
881.31018,0.13260
883.23865,0.13260
885.16711,0.13243
887.09558,0.13349
889.02405,0.13787
890.95252,0.14194
892.88099,0.14988
894.80946,0.15933
896.73793,0.15614
898.66640,0.14296
900.59486,0.13462
902.52333,0.13819
904.45180,0.14480
906.38027,0.14367
908.30874,0.13966
910.23721,0.14009
912.16568,0.14350
914.09414,0.14955
916.02261,0.15755
917.95108,0.15651
919.87955,0.14353
921.80802,0.13593
923.73649,0.13974
925.66496,0.14734
927.59343,0.15491
929.52189,0.15464
931.45036,0.14743
933.37883,0.14516
935.30730,0.14909
937.23577,0.15313
939.16424,0.15466
941.09271,0.15500
943.02117,0.15809
944.94964,0.15871
946.87811,0.14949
948.80658,0.14124
950.73505,0.14190
952.66352,0.14248
954.59199,0.14128
956.52045,0.14751
958.44892,0.15751
960.37739,0.15633
962.30586,0.14603
964.23433,0.14295
966.16280,0.14630
968.09127,0.14608
970.01974,0.14531
971.94820,0.15061
973.87667,0.15908
975.80514,0.15756
977.73361,0.14495
979.66208,0.13686
981.59055,0.14240
983.51902,0.15335
985.44748,0.15543
987.37595,0.15208
989.30442,0.15512
991.23289,0.16317
993.16136,0.16874
995.08983,0.16720
997.01830,0.15956
998.94677,0.15125
1000.87523,0.14557
1002.80370,0.14543
1004.73217,0.15098
1006.66064,0.15451
1008.58911,0.15463
1010.51758,0.15616
1012.44605,0.15722
1014.37451,0.15546
1016.30298,0.15385
1018.23145,0.15601
1020.15992,0.15957
1022.08839,0.15684
1024.01686,0.15837
1025.94533,0.19116
1027.87380,0.22538
1029.80226,0.20680
1031.73073,0.16789
1033.65920,0.15244
1035.58767,0.14766
1037.51614,0.14657
1039.44461,0.14841
1041.37308,0.14848
1043.30154,0.15029
1045.23001,0.15637
1047.15848,0.16282
1049.08695,0.16047
1051.01542,0.15148
1052.94389,0.14830
1054.87236,0.15056
1056.80083,0.15239
1058.72929,0.15255
1060.65776,0.15356
1062.58623,0.16274
1064.51470,0.17290
1066.44317,0.17127
1068.37164,0.16714
1070.30011,0.17092
1072.22857,0.17535
1074.15704,0.17619
1076.08551,0.17866
1078.01398,0.17815
1079.94245,0.17083
1081.87092,0.16419
1083.79939,0.15998
1085.72786,0.15651
1087.65632,0.15953
1089.58479,0.16666
1091.51326,0.16930
1093.44173,0.17010
1095.37020,0.16651
1097.29867,0.16165
1099.22714,0.16622
1101.15560,0.16726
1103.08407,0.15865
1105.01254,0.15606
1106.94101,0.16365
1108.86948,0.17525
1110.79795,0.18413
1112.72642,0.18393
1114.65489,0.17886
1116.58335,0.17036
1118.51182,0.15558
1120.44029,0.14711
1122.36876,0.15083
1124.29723,0.15888
1126.22570,0.16702
1128.15417,0.16843
1130.08263,0.15865
1132.01110,0.14859
1133.93957,0.14911
1135.86804,0.15519
1137.79651,0.15735
1139.72498,0.15767
1141.65345,0.16368
1143.58191,0.17256
1145.51038,0.17718
1147.43885,0.17509
1149.36732,0.16707
1151.29579,0.16178
1153.22426,0.16577
1155.15273,0.17323
1157.08120,0.17874
1159.00966,0.18030
1160.93813,0.17464
1162.86660,0.16656
1164.79507,0.16451
1166.72354,0.16764
1168.65201,0.16961
1170.58048,0.16723
1172.50894,0.16300
1174.43741,0.15968
1176.36588,0.15825
1178.29435,0.15850
1180.22282,0.15856
1182.15129,0.15892
1184.07976,0.15742
1186.00823,0.15439
1187.93669,0.15882
1189.86516,0.16721
1191.79363,0.16717
1193.72210,0.16156
1195.65057,0.15884
1197.57904,0.15828
1199.50751,0.15853
1201.43597,0.16054
1203.36444,0.16315
1205.29291,0.16464
1207.22138,0.16213
1209.14985,0.15761
1211.07832,0.15502
1213.00679,0.15376
1214.93526,0.15359
1216.86372,0.15335
1218.79219,0.15581
1220.72066,0.16467
1222.64913,0.17247
1224.57760,0.17385
1226.50607,0.17396
1228.43454,0.17384
1230.36300,0.17097
1232.29147,0.16755
1234.21994,0.16647
1236.14841,0.16831
1238.07688,0.17069
1240.00535,0.17229
1241.93382,0.17396
1243.86229,0.17272
1245.79075,0.16924
1247.71922,0.16806
1249.64769,0.16644
1251.57616,0.16318
1253.50463,0.16059
1255.43310,0.15762
1257.36157,0.15836
1259.29003,0.16588
1261.21850,0.17181
1263.14697,0.17074
1265.07544,0.16669
1267.00391,0.16400
1268.93238,0.16498
1270.86085,0.16788
1272.78932,0.16803
1274.71778,0.16559
1276.64625,0.16594
1278.57472,0.17012
1280.50319,0.17316
1282.43166,0.17434
1284.36013,0.17603
1286.28860,0.17630
1288.21706,0.17402
1290.14553,0.17296
1292.07400,0.17386
1294.00247,0.17236
1295.93094,0.16778
1297.85941,0.16342
1299.78788,0.16272
1301.71634,0.16439
1303.64481,0.16226
1305.57328,0.16176
1307.50175,0.17062
1309.43022,0.17815
1311.35869,0.17788
1313.28716,0.17619
1315.21563,0.17507
1317.14409,0.17283
1319.07256,0.16983
1321.00103,0.17073
1322.92950,0.17509
1324.85797,0.17687
1326.78644,0.17521
1328.71491,0.17364
1330.64337,0.17100
1332.57184,0.16652
1334.50031,0.16510
1336.42878,0.16669
1338.35725,0.16766
1340.28572,0.16100
1342.21419,0.15282
1344.14266,0.15290
1346.07112,0.15665
1347.99959,0.16631
1349.92806,0.17492
1351.85653,0.17272
1353.78500,0.17043
1355.71347,0.17381
1357.64194,0.17845
1359.57040,0.18077
1361.49887,0.18133
1363.42734,0.18121
1365.35581,0.18125
1367.28428,0.18212
1369.21275,0.18045
1371.14122,0.17817
1373.06969,0.18071
1374.99815,0.18396
1376.92662,0.18300
1378.85509,0.18294
1380.78356,0.18413
1382.71203,0.18432
1384.64050,0.18563
1386.56897,0.18550
1388.49743,0.17982
1390.42590,0.17605
1392.35437,0.18075
1394.28284,0.19232
1396.21131,0.20028
1398.13978,0.19572
1400.06825,0.18366
1401.99672,0.17417
1403.92518,0.17300
1405.85365,0.17685
1407.78212,0.17651
1409.71059,0.17237
1411.63906,0.16971
1413.56753,0.17208
1415.49600,0.18055
1417.42446,0.19200
1419.35293,0.19492
1421.28140,0.18984
1423.20987,0.18862
1425.13834,0.18747
1427.06681,0.18504
1428.99528,0.18573
1430.92375,0.18733
1432.85221,0.18765
1434.78068,0.19089
1436.70915,0.19260
1438.63762,0.18429
1440.56609,0.17665
1442.49456,0.17631
1444.42303,0.18100
1446.35149,0.18423
1448.27996,0.18278
1450.20843,0.18186
1452.13690,0.18592
1454.06537,0.19505
1455.99384,0.20904
1457.92231,0.21375
1459.85077,0.20123
1461.77924,0.19596
1463.70771,0.20255
1465.63618,0.20635
1467.56465,0.20048
1469.49312,0.20104
1471.42159,0.21164
1473.35006,0.21364
1475.27852,0.20038
1477.20699,0.19128
1479.13546,0.19081
1481.06393,0.19102
1482.99240,0.18618
1484.92087,0.18478
1486.84934,0.19337
1488.77780,0.20430
1490.70627,0.20428
1492.63474,0.19994
1494.56321,0.20447
1496.49168,0.21431
1498.42015,0.20895
1500.34862,0.19415
1502.27709,0.19194
1504.20555,0.20874
1506.13402,0.24140
1508.06249,0.23779
1509.99096,0.20931
1511.91943,0.20057
1513.84790,0.20726
1515.77637,0.21973
1517.70483,0.22685
1519.63330,0.23204
1521.56177,0.23878
1523.49024,0.23006
1525.41871,0.21757
1527.34718,0.20943
1529.27565,0.20241
1531.20412,0.20505
1533.13258,0.21699
1535.06105,0.22079
1536.98952,0.22294
1538.91799,0.23833
1540.84646,0.25257
1542.77493,0.24085
1544.70340,0.22216
1546.63186,0.20712
1548.56033,0.20017
1550.48880,0.19947
1552.41727,0.20346
1554.34574,0.21200
1556.27421,0.22500
1558.20268,0.24214
1560.13115,0.23085
1562.05961,0.21089
1563.98808,0.20246
1565.91655,0.19822
1567.84502,0.19707
1569.77349,0.19654
1571.70196,0.19398
1573.63043,0.19536
1575.55889,0.19937
1577.48736,0.19437
1579.41583,0.18526
1581.34430,0.18157
1583.27277,0.18189
1585.20124,0.18212
1587.12971,0.18218
1589.05818,0.18441
1590.98664,0.18756
1592.91511,0.18745
1594.84358,0.18322
1596.77205,0.17884
1598.70052,0.17679
1600.62899,0.17665
1602.55746,0.17868
1604.48592,0.18123
1606.41439,0.18082
1608.34286,0.17950
1610.27133,0.18209
1612.19980,0.18798
1614.12827,0.19838
1616.05674,0.21401
1617.98521,0.21688
1619.91367,0.20924
1621.84214,0.20693
1623.77061,0.20597
1625.69908,0.20296
1627.62755,0.19932
1629.55602,0.19354
1631.48449,0.19072
1633.41295,0.19756
1635.34142,0.21359
1637.26989,0.21639
1639.19836,0.20691
1641.12683,0.20236
1643.05530,0.20626
1644.98377,0.21922
1646.91223,0.23212
1648.84070,0.23117
1650.76917,0.23711
1652.69764,0.25433
1654.62611,0.23507
1656.55458,0.20730
1658.48305,0.19748
1660.41152,0.20115
1662.33998,0.20992
1664.26845,0.20877
1666.19692,0.20458
1668.12539,0.21036
1670.05386,0.22030
1671.98233,0.22261
1673.91080,0.22119
1675.83926,0.21196
1677.76773,0.20140
1679.69620,0.20048
1681.62467,0.20957
1683.55314,0.22753
1685.48161,0.23019
1687.41008,0.21741
1689.33855,0.20820
1691.26701,0.20269
1693.19548,0.20424
1695.12395,0.21600
1697.05242,0.23059
1698.98089,0.23619
1700.90936,0.22617
1702.83783,0.21408
1704.76629,0.21119
1706.69476,0.20757
1708.62323,0.20000
1710.55170,0.19770
1712.48017,0.20410
1714.40864,0.21586
1716.33711,0.22613
1718.26558,0.21944
1720.19404,0.20311
1722.12251,0.19377
1724.05098,0.18979
1725.97945,0.18826
1727.90792,0.19212
1729.83639,0.20180
1731.76486,0.21272
1733.69332,0.21849
1735.62179,0.21167
1737.55026,0.20601
1739.47873,0.20648
1741.40720,0.20640
1743.33567,0.20592
1745.26414,0.20840
1747.19261,0.21328
1749.12107,0.21738
1751.04954,0.21060
1752.97801,0.19643
1754.90648,0.19060
1756.83495,0.19456
1758.76342,0.19981
1760.69189,0.20281
1762.62035,0.20050
1764.54882,0.19361
1766.47729,0.19165
1768.40576,0.19834
1770.33423,0.21081
1772.26270,0.21851
1774.19117,0.21078
1776.11964,0.20023
1778.04810,0.19674
1779.97657,0.19726
1781.90504,0.19498
1783.83351,0.19118
1785.76198,0.18897
1787.69045,0.18903
1789.61892,0.19351
1791.54738,0.19871
1793.47585,0.19856
1795.40432,0.19961
1797.33279,0.20344
1799.26126,0.20409
1801.18973,0.20006
1803.11820,0.19460
1805.04666,0.19045
1806.97513,0.18997
1808.90360,0.19217
1810.83207,0.19168
1812.76054,0.18775
1814.68901,0.18529
1816.61748,0.18727
1818.54595,0.19106
1820.47441,0.19041
1822.40288,0.18850
1824.33135,0.19068
1826.25982,0.19306
1828.18829,0.19593
1830.11676,0.19840
1832.04523,0.19533
1833.97369,0.19267
1835.90216,0.19248
1837.83063,0.19077
1839.75910,0.18960
1841.68757,0.19456
1843.61604,0.20299
1845.54451,0.20344
1847.47298,0.19747
1849.40144,0.19215
1851.32991,0.18849
1853.25838,0.18760
1855.18685,0.18807
1857.11532,0.18754
1859.04379,0.18662
1860.97226,0.18624
1862.90072,0.18799
1864.82919,0.19383
1866.75766,0.20241
1868.68613,0.20445
1870.61460,0.19510
1872.54307,0.18751
1874.47154,0.18625
1876.40001,0.18697
1878.32847,0.18751
1880.25694,0.18750
1882.18541,0.18862
1884.11388,0.19070
1886.04235,0.19123
1887.97082,0.19287
1889.89929,0.19618
1891.82775,0.19654
1893.75622,0.19556
1895.68469,0.19571
1897.61316,0.19452
1899.54163,0.19066
1901.47010,0.18694
1903.39857,0.18592
1905.32704,0.18724
1907.25550,0.19086
1909.18397,0.19474
1911.11244,0.19444
1913.04091,0.19192
1914.96938,0.19310
1916.89785,0.19651
1918.82632,0.19459
1920.75478,0.18999
1922.68325,0.18937
1924.61172,0.19005
1926.54019,0.18891
1928.46866,0.18793
1930.39713,0.18855
1932.32560,0.18859
1934.25407,0.18686
1936.18253,0.18530
1938.11100,0.18465
1940.03947,0.18619
1941.96794,0.19034
1943.89641,0.19177
1945.82488,0.18826
1947.75335,0.18486
1949.68181,0.18388
1951.61028,0.18442
1953.53875,0.18606
1955.46722,0.18778
1957.39569,0.18883
1959.32416,0.19076
1961.25263,0.19366
1963.18110,0.19463
1965.10956,0.19354
1967.03803,0.19277
1968.96650,0.19186
1970.89497,0.18944
1972.82344,0.18639
1974.75191,0.18493
1976.68038,0.18537
1978.60884,0.18608
1980.53731,0.18678
1982.46578,0.18675
1984.39425,0.18678
1986.32272,0.18984
1988.25119,0.19368
1990.17966,0.19520
1992.10812,0.19548
1994.03659,0.19424
1995.96506,0.19167
1997.89353,0.18924
1999.82200,0.18651
2001.75047,0.18426
2003.67894,0.18508
2005.60741,0.18790
2007.53587,0.18887
2009.46434,0.18783
2011.39281,0.18749
2013.32128,0.18829
2015.24975,0.19006
2017.17822,0.19317
2019.10669,0.19529
2021.03515,0.19478
2022.96362,0.19178
2024.89209,0.18723
2026.82056,0.18455
2028.74903,0.18429
2030.67750,0.18398
2032.60597,0.18503
2034.53444,0.18836
2036.46290,0.19051
2038.39137,0.18995
2040.31984,0.18837
2042.24831,0.18796
2044.17678,0.18911
2046.10525,0.19001
2048.03372,0.18943
2049.96218,0.18897
2051.89065,0.19038
2053.81912,0.19064
2055.74759,0.18888
2057.67606,0.18883
2059.60453,0.18935
2061.53300,0.18812
2063.46147,0.18832
2065.38993,0.19145
2067.31840,0.19289
2069.24687,0.19134
2071.17534,0.19131
2073.10381,0.19350
2075.03228,0.19395
2076.96075,0.19132
2078.88921,0.18894
2080.81768,0.18953
2082.74615,0.19064
2084.67462,0.18865
2086.60309,0.18642
2088.53156,0.18728
2090.46003,0.18761
2092.38850,0.18735
2094.31696,0.18922
2096.24543,0.19077
2098.17390,0.19096
2100.10237,0.19085
2102.03084,0.19097
2103.95931,0.19188
2105.88778,0.19258
2107.81624,0.19164
2109.74471,0.19052
2111.67318,0.19104
2113.60165,0.19078
2115.53012,0.18787
2117.45859,0.18428
2119.38706,0.18241
2121.31553,0.18334
2123.24399,0.18738
2125.17246,0.19172
2127.10093,0.19216
2129.02940,0.19108
2130.95787,0.19217
2132.88634,0.19418
2134.81481,0.19598
2136.74327,0.19608
2138.67174,0.19263
2140.60021,0.18893
2142.52868,0.18883
2144.45715,0.19064
2146.38562,0.19175
2148.31409,0.19079
2150.24255,0.18879
2152.17102,0.18819
2154.09949,0.18955
2156.02796,0.19143
2157.95643,0.19138
2159.88490,0.19064
2161.81337,0.19130
2163.74184,0.19163
2165.67030,0.19154
2167.59877,0.19186
2169.52724,0.19159
2171.45571,0.19201
2173.38418,0.19346
2175.31265,0.19343
2177.24112,0.19279
2179.16958,0.19265
2181.09805,0.19164
2183.02652,0.18986
2184.95499,0.18839
2186.88346,0.18836
2188.81193,0.18918
2190.74040,0.18976
2192.66887,0.19049
2194.59733,0.19022
2196.52580,0.18870
2198.45427,0.18756
2200.38274,0.18869
2202.31121,0.19275
2204.23968,0.19518
2206.16815,0.19406
2208.09661,0.19250
2210.02508,0.19115
2211.95355,0.19073
2213.88202,0.19157
2215.81049,0.19285
2217.73896,0.19467
2219.66743,0.19607
2221.59590,0.19562
2223.52436,0.19343
2225.45283,0.19228
2227.38130,0.19270
2229.30977,0.19237
2231.23824,0.19265
2233.16671,0.19429
2235.09518,0.19576
2237.02364,0.19769
2238.95211,0.20048
2240.88058,0.20152
2242.80905,0.19885
2244.73752,0.19437
2246.66599,0.19001
2248.59446,0.18621
2250.52293,0.18396
2252.45139,0.18445
2254.37986,0.18792
2256.30833,0.19107
2258.23680,0.19019
2260.16527,0.18635
2262.09374,0.18247
2264.02221,0.18139
2265.95067,0.18615
2267.87914,0.19269
2269.80761,0.19397
2271.73608,0.19305
2273.66455,0.19527
2275.59302,0.19758
2277.52149,0.19615
2279.44996,0.19274
2281.37842,0.18993
2283.30689,0.18805
2285.23536,0.18678
2287.16383,0.18763
2289.09230,0.18856
2291.02077,0.18205
2292.94924,0.17291
2294.87770,0.17596
2296.80617,0.18871
2298.73464,0.19483
2300.66311,0.19195
2302.59158,0.18924
2304.52005,0.18822
2306.44852,0.18838
2308.37699,0.19102
2310.30545,0.19434
2312.23392,0.19781
2314.16239,0.20190
2316.09086,0.20524
2318.01933,0.20394
2319.94780,0.20091
2321.87627,0.20543
2323.80473,0.20897
2325.73320,0.20383
2327.66167,0.20328
2329.59014,0.20883
2331.51861,0.20812
2333.44708,0.20616
2335.37555,0.21320
2337.30401,0.21542
2339.23248,0.20816
2341.16095,0.21316
2343.08942,0.21929
2345.01789,0.20498
2346.94636,0.19491
2348.87483,0.19859
2350.80330,0.20388
2352.73176,0.20727
2354.66023,0.21588
2356.58870,0.23431
2358.51717,0.24640
2360.44564,0.23421
2362.37411,0.21561
2364.30258,0.20609
2366.23104,0.20117
2368.15951,0.20096
2370.08798,0.20061
2372.01645,0.19796
2373.94492,0.19528
2375.87339,0.19441
2377.80186,0.19394
2379.73033,0.19095
2381.65879,0.18939
2383.58726,0.19181
2385.51573,0.19319
2387.44420,0.19074
2389.37267,0.18902
2391.30114,0.19056
2393.22961,0.19209
2395.15807,0.19150
2397.08654,0.18865
2399.01501,0.18586
2400.94348,0.18624
2402.87195,0.18906
2404.80042,0.19176
2406.72889,0.19228
2408.65736,0.19116
2410.58582,0.19050
2412.51429,0.19017
2414.44276,0.18826
2416.37123,0.18537
2418.29970,0.18501
2420.22817,0.18738
2422.15664,0.19005
2424.08510,0.19278
2426.01357,0.19433
2427.94204,0.19317
2429.87051,0.19173
2431.79898,0.19112
2433.72745,0.18988
2435.65592,0.18944
2437.58439,0.19055
2439.51285,0.19132
2441.44132,0.19094
2443.36979,0.18861
2445.29826,0.18456
2447.22673,0.18144
2449.15520,0.18427
2451.08367,0.19076
2453.01213,0.18987
2454.94060,0.18599
2456.86907,0.18853
2458.79754,0.19099
2460.72601,0.19122
2462.65448,0.19352
2464.58295,0.19385
2466.51142,0.19040
2468.43988,0.18997
2470.36835,0.19269
2472.29682,0.19296
2474.22529,0.19039
2476.15376,0.18774
2478.08223,0.18830
2480.01070,0.19114
2481.93916,0.19201
2483.86763,0.19090
2485.79610,0.19093
2487.72457,0.19139
2489.65304,0.19093
2491.58151,0.19074
2493.50998,0.18927
2495.43844,0.18829
2497.36691,0.19083
2499.29538,0.19370
2501.22385,0.19536
2503.15232,0.19511
2505.08079,0.19166
2507.00926,0.18876
2508.93773,0.18876
2510.86619,0.18851
2512.79466,0.18667
2514.72313,0.18590
2516.65160,0.18757
2518.58007,0.19064
2520.50854,0.19404
2522.43701,0.19565
2524.36547,0.19491
2526.29394,0.19390
2528.22241,0.19220
2530.15088,0.18959
2532.07935,0.18953
2534.00782,0.19218
2535.93629,0.19276
2537.86476,0.19050
2539.79322,0.18932
2541.72169,0.19023
2543.65016,0.19193
2545.57863,0.19385
2547.50710,0.19494
2549.43557,0.19611
2551.36404,0.19773
2553.29250,0.19712
2555.22097,0.19472
2557.14944,0.19192
2559.07791,0.18922
2561.00638,0.18820
2562.93485,0.18847
2564.86332,0.19025
2566.79179,0.19328
2568.72025,0.19454
2570.64872,0.19355
2572.57719,0.19235
2574.50566,0.19199
2576.43413,0.19243
2578.36260,0.19324
2580.29107,0.19300
2582.21953,0.19184
2584.14800,0.19209
2586.07647,0.19334
2588.00494,0.19388
2589.93341,0.19193
2591.86188,0.18777
2593.79035,0.18748
2595.71882,0.19289
2597.64728,0.19756
2599.57575,0.19730
2601.50422,0.19490
2603.43269,0.19636
2605.36116,0.20108
2607.28963,0.20161
2609.21810,0.19717
2611.14656,0.19313
2613.07503,0.19094
2615.00350,0.19130
2616.93197,0.19533
2618.86044,0.19889
2620.78891,0.19789
2622.71738,0.19496
2624.64585,0.19423
2626.57431,0.19498
2628.50278,0.19513
2630.43125,0.19512
2632.35972,0.19543
2634.28819,0.19553
2636.21666,0.19418
2638.14513,0.19168
2640.07359,0.19053
2642.00206,0.19188
2643.93053,0.19469
2645.85900,0.19598
2647.78747,0.19477
2649.71594,0.19416
2651.64441,0.19571
2653.57288,0.19815
2655.50134,0.20048
2657.42981,0.20079
2659.35828,0.19766
2661.28675,0.19369
2663.21522,0.19246
2665.14369,0.19467
2667.07216,0.19746
2669.00062,0.19812
2670.92909,0.19741
2672.85756,0.19719
2674.78603,0.19875
2676.71450,0.20063
2678.64297,0.20011
2680.57144,0.19839
2682.49990,0.19747
2684.42837,0.19737
2686.35684,0.19801
2688.28531,0.19846
2690.21378,0.19801
2692.14225,0.19793
2694.07072,0.19886
2695.99919,0.20002
2697.92765,0.20092
2699.85612,0.20024
2701.78459,0.19733
2703.71306,0.19591
2705.64153,0.19828
2707.57000,0.20070
2709.49847,0.20062
2711.42693,0.19988
2713.35540,0.19922
2715.28387,0.19746
2717.21234,0.19617
2719.14081,0.19796
2721.06928,0.20100
2722.99775,0.20230
2724.92622,0.20227
2726.85468,0.20243
2728.78315,0.20399
2730.71162,0.20580
2732.64009,0.20505
2734.56856,0.20228
2736.49703,0.19946
2738.42550,0.19802
2740.35396,0.19667
2742.28243,0.19416
2744.21090,0.19484
2746.13937,0.19850
2748.06784,0.19968
2749.99631,0.19789
2751.92478,0.19469
2753.85325,0.19198
2755.78171,0.19237
2757.71018,0.19568
2759.63865,0.19892
2761.56712,0.19963
2763.49559,0.19980
2765.42406,0.19995
2767.35253,0.19987
2769.28099,0.20486
2771.20946,0.21191
2773.13793,0.21235
2775.06640,0.20827
2776.99487,0.20446
2778.92334,0.20302
2780.85181,0.20507
2782.78028,0.20674
2784.70874,0.20453
2786.63721,0.20280
2788.56568,0.20428
2790.49415,0.20500
2792.42262,0.20534
2794.35109,0.20645
2796.27956,0.20442
2798.20802,0.20150
2800.13649,0.20272
2802.06496,0.20410
2803.99343,0.20373
2805.92190,0.20493
2807.85037,0.20549
2809.77884,0.20560
2811.70731,0.20957
2813.63577,0.21378
2815.56424,0.21329
2817.49271,0.20882
2819.42118,0.20212
2821.34965,0.19739
2823.27812,0.19801
2825.20659,0.20121
2827.13505,0.20191
2829.06352,0.20161
2830.99199,0.20584
2832.92046,0.21039
2834.84893,0.20980
2836.77740,0.20640
2838.70587,0.20370
2840.63433,0.20486
2842.56280,0.20835
2844.49127,0.20836
2846.41974,0.20434
2848.34821,0.20195
2850.27668,0.20344
2852.20515,0.20495
2854.13362,0.20363
2856.06208,0.20223
2857.99055,0.20339
2859.91902,0.20364
2861.84749,0.20158
2863.77596,0.19968
2865.70443,0.19816
2867.63290,0.19761
2869.56136,0.20045
2871.48983,0.20546
2873.41830,0.20712
2875.34677,0.20551
2877.27524,0.20574
2879.20371,0.20874
2881.13218,0.21122
2883.06065,0.21150
2884.98911,0.21068
2886.91758,0.20715
2888.84605,0.20193
2890.77452,0.20148
2892.70299,0.20312
2894.63146,0.20058
2896.55993,0.19851
2898.48839,0.19894
2900.41686,0.19952
2902.34533,0.20248
2904.27380,0.20550
2906.20227,0.20483
2908.13074,0.20370
2910.05921,0.20480
2911.98768,0.20782
2913.91614,0.21022
2915.84461,0.20754
2917.77308,0.20217
2919.70155,0.19951
2921.63002,0.19999
2923.55849,0.20206
2925.48696,0.20196
2927.41542,0.19951
2929.34389,0.19991
2931.27236,0.20401
2933.20083,0.20665
2935.12930,0.20427
2937.05777,0.20045
2938.98624,0.20282
2940.91471,0.21046
2942.84317,0.21346
2944.77164,0.21080
2946.70011,0.20811
2948.62858,0.20787
2950.55705,0.21075
2952.48552,0.21438
2954.41399,0.21561
2956.34245,0.21114
2958.27092,0.20505
2960.19939,0.20675
2962.12786,0.21283
2964.05633,0.21439
2965.98480,0.21114
2967.91327,0.20896
2969.84174,0.21185
2971.77020,0.21278
2973.69867,0.20719
2975.62714,0.20336
2977.55561,0.20320
2979.48408,0.20234
2981.41255,0.20418
2983.34102,0.20974
2985.26948,0.21157
2987.19795,0.20862
2989.12642,0.21029
2991.05489,0.21732
2992.98336,0.21969
2994.91183,0.21522
2996.84030,0.20897
2998.76877,0.20615
3000.69723,0.20849
3002.62570,0.21006
3004.55417,0.20772
3006.48264,0.20590
3008.41111,0.20810
3010.33958,0.21241
3012.26805,0.21163
3014.19651,0.19875
3016.12498,0.17976
3018.05345,0.17574
3019.98192,0.19143
3021.91039,0.20656
3023.83886,0.21414
3025.76733,0.21869
3027.69579,0.21796
3029.62426,0.21442
3031.55273,0.21233
3033.48120,0.21113
3035.40967,0.20938
3037.33814,0.20677
3039.26661,0.20735
3041.19508,0.21153
3043.12354,0.21408
3045.05201,0.21499
3046.98048,0.21580
3048.90895,0.21731
3050.83742,0.22018
3052.76589,0.22098
3054.69436,0.21845
3056.62282,0.21546
3058.55129,0.21477
3060.47976,0.21660
3062.40823,0.21774
3064.33670,0.21412
3066.26517,0.20721
3068.19364,0.20496
3070.12211,0.20673
3072.05057,0.20679
3073.97904,0.20733
3075.90751,0.20923
3077.83598,0.21131
3079.76445,0.21334
3081.69292,0.21321
3083.62139,0.20880
3085.54985,0.20346
3087.47832,0.20276
3089.40679,0.20370
3091.33526,0.20359
3093.26373,0.20492
3095.19220,0.20739
3097.12067,0.20898
3099.04914,0.21039
3100.97760,0.21135
3102.90607,0.20625
3104.83454,0.20101
3106.76301,0.20642
3108.69148,0.21298
3110.61995,0.20939
3112.54842,0.20518
3114.47688,0.21008
3116.40535,0.21673
3118.33382,0.21925
3120.26229,0.21841
3122.19076,0.21444
3124.11923,0.21050
3126.04770,0.20807
3127.97617,0.20757
3129.90463,0.20932
3131.83310,0.21198
3133.76157,0.21458
3135.69004,0.21556
3137.61851,0.21507
3139.54698,0.21348
3141.47545,0.21036
3143.40391,0.21072
3145.33238,0.21572
3147.26085,0.21592
3149.18932,0.21070
3151.11779,0.21009
3153.04626,0.21497
3154.97473,0.21801
3156.90320,0.21802
3158.83166,0.21954
3160.76013,0.22114
3162.68860,0.21833
3164.61707,0.21405
3166.54554,0.21620
3168.47401,0.22325
3170.40248,0.22455
3172.33094,0.21834
3174.25941,0.21133
3176.18788,0.20903
3178.11635,0.21197
3180.04482,0.21506
3181.97329,0.21636
3183.90176,0.21858
3185.83022,0.22039
3187.75869,0.21817
3189.68716,0.21587
3191.61563,0.21818
3193.54410,0.22079
3195.47257,0.22026
3197.40104,0.21870
3199.32951,0.21743
3201.25797,0.21762
3203.18644,0.22031
3205.11491,0.22055
3207.04338,0.21443
3208.97185,0.20655
3210.90032,0.20344
3212.82879,0.20819
3214.75725,0.21474
3216.68572,0.21675
3218.61419,0.21544
3220.54266,0.21157
3222.47113,0.20979
3224.39960,0.21044
3226.32807,0.20755
3228.25654,0.20572
3230.18500,0.21097
3232.11347,0.21623
3234.04194,0.21431
3235.97041,0.21111
3237.89888,0.21281
3239.82735,0.21710
3241.75582,0.22222
3243.68428,0.22427
3245.61275,0.21638
3247.54122,0.20752
3249.46969,0.21010
3251.39816,0.21728
3253.32663,0.22061
3255.25510,0.22055
3257.18357,0.21739
3259.11203,0.21217
3261.04050,0.21164
3262.96897,0.21592
3264.89744,0.21532
3266.82591,0.21075
3268.75438,0.20899
3270.68285,0.21037
3272.61131,0.21284
3274.53978,0.21291
3276.46825,0.21078
3278.39672,0.21133
3280.32519,0.21328
3282.25366,0.21207
3284.18213,0.20798
3286.11060,0.20558
3288.03906,0.21002
3289.96753,0.21755
3291.89600,0.22078
3293.82447,0.21881
3295.75294,0.21529
3297.68141,0.21438
3299.60988,0.21269
3301.53834,0.20760
3303.46681,0.20464
3305.39528,0.20464
3307.32375,0.20395
3309.25222,0.20281
3311.18069,0.20269
3313.10916,0.20279
3315.03763,0.20303
3316.96609,0.20474
3318.89456,0.20782
3320.82303,0.21179
3322.75150,0.21313
3324.67997,0.21096
3326.60844,0.21128
3328.53691,0.21272
3330.46537,0.21158
3332.39384,0.21058
3334.32231,0.21083
3336.25078,0.21056
3338.17925,0.20878
3340.10772,0.20769
3342.03619,0.20962
3343.96466,0.21714
3345.89312,0.22671
3347.82159,0.22985
3349.75006,0.22719
3351.67853,0.22084
3353.60700,0.21219
3355.53547,0.20753
3357.46394,0.20817
3359.39240,0.20829
3361.32087,0.20856
3363.24934,0.21448
3365.17781,0.22277
3367.10628,0.22482
3369.03475,0.21760
3370.96322,0.21004
3372.89168,0.21125
3374.82015,0.21607
3376.74862,0.21623
3378.67709,0.21027
3380.60556,0.20463
3382.53403,0.20804
3384.46250,0.21531
3386.39097,0.21531
3388.31943,0.21078
3390.24790,0.20745
3392.17637,0.20601
3394.10484,0.20941
3396.03331,0.21551
3397.96178,0.21547
3399.89025,0.20791
3401.81871,0.20265
3403.74718,0.20552
3405.67565,0.21094
3407.60412,0.21402
3409.53259,0.21308
3411.46106,0.20881
3413.38953,0.20710
3415.31800,0.20797
3417.24646,0.20704
3419.17493,0.20793
3421.10340,0.21228
3423.03187,0.21381
3424.96034,0.21166
3426.88881,0.21016
3428.81728,0.21123
3430.74574,0.21125
3432.67421,0.20563
3434.60268,0.19879
3436.53115,0.19673
3438.45962,0.19726
3440.38809,0.19937
3442.31656,0.20485
3444.24503,0.20608
3446.17349,0.19827
3448.10196,0.19233
3450.03043,0.19315
3451.95890,0.19373
3453.88737,0.19248
3455.81584,0.19450
3457.74431,0.19984
3459.67277,0.20079
3461.60124,0.19618
3463.52971,0.19143
3465.45818,0.18847
3467.38665,0.18700
3469.31512,0.18704
3471.24359,0.18907
3473.17206,0.19091
3475.10052,0.18917
3477.02899,0.18652
3478.95746,0.18840
3480.88593,0.19203
3482.81440,0.19244
3484.74287,0.19351
3486.67134,0.19603
3488.59980,0.19389
3490.52827,0.18788
3492.45674,0.18542
3494.38521,0.18766
3496.31368,0.18899
3498.24215,0.18833
3500.17062,0.18942
3502.09909,0.19269
3504.02755,0.19337
3505.95602,0.19003
3507.88449,0.18888
3509.81296,0.19187
3511.74143,0.19201
3513.66990,0.18572
3515.59837,0.17924
3517.52683,0.17913
3519.45530,0.18340
3521.38377,0.18507
3523.31224,0.18373
3525.24071,0.18471
3527.16918,0.18521
3529.09765,0.18034
3531.02611,0.17471
3532.95458,0.17151
3534.88305,0.17115
3536.81152,0.17527
3538.73999,0.17890
3540.66846,0.17732
3542.59693,0.17334
3544.52540,0.17137
3546.45386,0.17282
3548.38233,0.17205
3550.31080,0.16728
3552.23927,0.16443
3554.16774,0.16634
3556.09621,0.17195
3558.02468,0.17723
3559.95314,0.17528
3561.88161,0.17018
3563.81008,0.17268
3565.73855,0.18052
3567.66702,0.18183
3569.59549,0.17323
3571.52396,0.16410
3573.45243,0.16098
3575.38089,0.16266
3577.30936,0.16270
3579.23783,0.16019
3581.16630,0.15868
3583.09477,0.15886
3585.02324,0.16305
3586.95171,0.17203
3588.88017,0.17243
3590.80864,0.16378
3592.73711,0.15762
3594.66558,0.15548
3596.59405,0.15910
3598.52252,0.16711
3600.45099,0.17009
3602.37946,0.16336
3604.30792,0.15559
3606.23639,0.15750
3608.16486,0.16358
3610.09333,0.15986
3612.02180,0.15429
3613.95027,0.15563
3615.87874,0.16031
3617.80720,0.16384
3619.73567,0.16078
3621.66414,0.15415
3623.59261,0.15148
3625.52108,0.15233
3627.44955,0.15671
3629.37802,0.15839
3631.30649,0.15218
3633.23495,0.14934
3635.16342,0.14797
3637.09189,0.14228
3639.02036,0.13537
3640.94883,0.13300
3642.87730,0.13723
3644.80577,0.14814
3646.73423,0.16684
3648.66270,0.18643
3650.59117,0.18120
3652.51964,0.16222
3654.44811,0.15258
3656.37658,0.14942
3658.30505,0.14338
3660.23352,0.13938
3662.16198,0.13976
3664.09045,0.14041
3666.01892,0.14433
3667.94739,0.15604
3669.87586,0.16587
3671.80433,0.16134
3673.73280,0.16125
3675.66126,0.16510
3677.58973,0.15279
3679.51820,0.14172
3681.44667,0.13950
3683.37514,0.13885
3685.30361,0.13858
3687.23208,0.14021
3689.16055,0.14145
3691.08901,0.13994
3693.01748,0.13676
3694.94595,0.13458
3696.87442,0.13498
3698.80289,0.13783
3700.73136,0.14047
3702.65983,0.13988
3704.58829,0.13721
3706.51676,0.13668
3708.44523,0.14332
3710.37370,0.15388
3712.30217,0.15859
3714.23064,0.15978
3716.15911,0.16130
3718.08757,0.16096
3720.01604,0.15053
3721.94451,0.13625
3723.87298,0.13661
3725.80145,0.14276
3727.72992,0.14458
3729.65839,0.14755
3731.58686,0.15412
3733.51532,0.16611
3735.44379,0.17349
3737.37226,0.16480
3739.30073,0.15470
3741.22920,0.15446
3743.15767,0.16145
3745.08614,0.15886
3747.01460,0.15147
3748.94307,0.15666
3750.87154,0.16100
3752.80001,0.15234
3754.72848,0.14720
3756.65695,0.14618
3758.58542,0.14218
3760.51389,0.13401
3762.44235,0.12760
3764.37082,0.12905
3766.29929,0.13757
3768.22776,0.14320
3770.15623,0.13988
3772.08470,0.13132
3774.01317,0.12696
3775.94163,0.12818
3777.87010,0.12984
3779.79857,0.12831
3781.72704,0.12595
3783.65551,0.12612
3785.58398,0.12770
3787.51245,0.12837
3789.44092,0.12605
3791.36938,0.12216
3793.29785,0.12323
3795.22632,0.12895
3797.15479,0.13242
3799.08326,0.13490
3801.01173,0.13803
3802.94020,0.13733
3804.86866,0.13772
3806.79713,0.13602
3808.72560,0.12755
3810.65407,0.12464
3812.58254,0.13094
3814.51101,0.14171
3816.43948,0.14916
3818.36795,0.15061
3820.29641,0.15285
3822.22488,0.15074
3824.15335,0.14471
3826.08182,0.13931
3828.01029,0.13238
3829.93876,0.12888
3831.86723,0.13378
3833.79569,0.14304
3835.72416,0.14705
3837.65263,0.14327
3839.58110,0.14160
3841.50957,0.14353
3843.43804,0.14231
3845.36651,0.13654
3847.29498,0.13017
3849.22344,0.12973
3851.15191,0.13718
3853.08038,0.14258
3855.00885,0.13096
3856.93732,0.12495
3858.86579,0.12790
3860.79426,0.13192
3862.72272,0.13791
3864.65119,0.14258
3866.57966,0.13969
3868.50813,0.13647
3870.43660,0.13463
3872.36507,0.13470
3874.29354,0.13623
3876.22200,0.13317
3878.15047,0.12957
3880.07894,0.12926
3882.00741,0.12773
3883.93588,0.12397
3885.86435,0.12118
3887.79282,0.12318
3889.72129,0.12886
3891.64975,0.12953
3893.57822,0.12098
3895.50669,0.11519
3897.43516,0.11796
3899.36363,0.12868
3901.29210,0.13917
3903.22057,0.13657
3905.14903,0.12376
3907.07750,0.11482
3909.00597,0.11173
3910.93444,0.10941
3912.86291,0.10904
3914.79138,0.11320
3916.71985,0.11763
3918.64832,0.12057
3920.57678,0.12397
3922.50525,0.12706
3924.43372,0.12644
3926.36219,0.12078
3928.29066,0.11612
3930.21913,0.11375
3932.14760,0.11101
3934.07606,0.11052
3936.00453,0.11241
3937.93300,0.11356
3939.86147,0.11472
3941.78994,0.11607
3943.71841,0.11434
3945.64688,0.11204
3947.57535,0.11275
3949.50381,0.11427
3951.43228,0.11600
3953.36075,0.11663
3955.28922,0.11407
3957.21769,0.11309
3959.14616,0.11518
3961.07463,0.11285
3963.00309,0.10613
3964.93156,0.10548
3966.86003,0.11191
3968.78850,0.11689
3970.71697,0.11905
3972.64544,0.12015
3974.57391,0.11614
3976.50238,0.10689
3978.43084,0.10188
3980.35931,0.10492
3982.28778,0.10863
3984.21625,0.10672
3986.14472,0.10320
3988.07319,0.10492
3990.00166,0.10737
3991.93012,0.10699
3993.85859,0.10969
3995.78706,0.11321
3997.71553,0.11106
3999.64400,0.10618
4001.57247,0.10256
4003.50094,0.09874
4005.42941,0.09681
4007.35787,0.09897
4009.28634,0.10063
4011.21481,0.09954
4013.14328,0.09809
4015.07175,0.09922
4017.00022,0.10335
4018.92869,0.10546
4020.85715,0.10346
4022.78562,0.10282
4024.71409,0.10412
4026.64256,0.10286
4028.57103,0.10053
4030.49950,0.10044
4032.42797,0.10149
4034.35644,0.10191
4036.28490,0.10008
4038.21337,0.09563
4040.14184,0.09269
4042.07031,0.09359
4043.99878,0.09579
4045.92725,0.09737
4047.85572,0.10124
4049.78418,0.10769
4051.71265,0.10924
4053.64112,0.10362
4055.56959,0.09507
4057.49806,0.09013
4059.42653,0.09433
4061.35500,0.10226
4063.28346,0.10430
4065.21193,0.10005
4067.14040,0.09642
4069.06887,0.09611
4070.99734,0.09508
4072.92581,0.09202
4074.85428,0.09041
4076.78275,0.09275
4078.71121,0.09679
4080.63968,0.09809
4082.56815,0.09611
4084.49662,0.09666
4086.42509,0.10109
4088.35356,0.09875
4090.28203,0.08919
4092.21049,0.08795
4094.13896,0.09358
4096.06743,0.09309
4097.99590,0.09137
4099.92437,0.09508
4101.85284,0.09724
4103.78131,0.09410
4105.70978,0.08857
4107.63824,0.08398
4109.56671,0.08481
4111.49518,0.08740
4113.42365,0.08757
4115.35212,0.09022
4117.28059,0.09276
4119.20906,0.09070
4121.13752,0.08595
4123.06599,0.07965
4124.99446,0.07733
4126.92293,0.08266
4128.85140,0.08828
4130.77987,0.08814
4132.70834,0.08353
4134.63681,0.07870
4136.56527,0.07939
4138.49374,0.08580
4140.42221,0.09224
4142.35068,0.09303
4144.27915,0.09022
4146.20762,0.08935
4148.13609,0.08778
4150.06455,0.08364
4151.99302,0.08150
4153.92149,0.08608
4155.84996,0.09215
4157.77843,0.09057
4159.70690,0.08364
4161.63537,0.07832
4163.56384,0.07942
4165.49230,0.08552
4167.42077,0.08801
4169.34924,0.08248
4171.27771,0.07609
4173.20618,0.07655
4175.13465,0.08023
4177.06312,0.07916
4178.99158,0.07529
4180.92005,0.07745
4182.84852,0.08343
4184.77699,0.08811
4186.70546,0.08876
4188.63393,0.08165
4190.56240,0.07269
4192.49087,0.06701
4194.41933,0.06540
4196.34780,0.07001
4198.27627,0.07697
4200.20474,0.08038
4202.13321,0.07839
4204.06168,0.07512
4205.99015,0.07656
4207.91861,0.07987
4209.84708,0.07902
4211.77555,0.07660
4213.70402,0.07696
4215.63249,0.07776
4217.56096,0.07759
4219.48943,0.07843
4221.41789,0.07544
4223.34636,0.06733
4225.27483,0.06542
4227.20330,0.07200
4229.13177,0.07553
4231.06024,0.07339
4232.98871,0.07549
4234.91718,0.08044
4236.84564,0.07891
4238.77411,0.07255
4240.70258,0.06545
4242.63105,0.06239
4244.55952,0.06491
4246.48799,0.06779
4248.41646,0.07033
4250.34492,0.07035
4252.27339,0.06701
4254.20186,0.06854
4256.13033,0.07501
4258.05880,0.07722
4259.98727,0.07280
4261.91574,0.06648
4263.84421,0.06293
4265.77267,0.06228
4267.70114,0.06205
4269.62961,0.06222
4271.55808,0.06409
4273.48655,0.06820
4275.41502,0.07426
4277.34349,0.07892
4279.27195,0.07466
4281.20042,0.06033
4283.12889,0.04978
4285.05736,0.05236
4286.98583,0.06062
4288.91430,0.06752
4290.84277,0.07060
4292.77124,0.06705
4294.69970,0.06204
4296.62817,0.06462
4298.55664,0.07258
4300.48511,0.07502
4302.41358,0.06795
4304.34205,0.05902
4306.27052,0.05718
4308.19898,0.06031
4310.12745,0.05947
4312.05592,0.05638
4313.98439,0.05968
4315.91286,0.06839
4317.84133,0.07267
4319.76980,0.06364
4321.69827,0.05061
4323.62673,0.05092
4325.55520,0.05718
4327.48367,0.05484
4329.41214,0.04712
4331.34061,0.04441
4333.26908,0.05169
4335.19755,0.05983
4337.12601,0.05897
4339.05448,0.05244
4340.98295,0.04655
4342.91142,0.04290
4344.83989,0.03954
4346.76836,0.03643
4348.69683,0.03604
4350.62530,0.03949
4352.55376,0.04362
4354.48223,0.04433
4356.41070,0.04414
4358.33917,0.04471
4360.26764,0.04474
4362.19611,0.04602
4364.12458,0.04813
4366.05304,0.05104
4367.98151,0.05273
4369.90998,0.04846
4371.83845,0.04489
4373.76692,0.04540
4375.69539,0.04485
4377.62386,0.04751
4379.55232,0.05214
4381.48079,0.04782
4383.40926,0.03700
4385.33773,0.03309
4387.26620,0.03736
4389.19467,0.04101
4391.12314,0.04112
4393.05161,0.03859
4394.98007,0.03645
4396.90854,0.03442
4398.83701,0.03169
4400.76548,0.03232
4402.69395,0.03445
4404.62242,0.03734
4406.55089,0.04216
4408.47935,0.04475
4410.40782,0.04345
4412.33629,0.04072
4414.26476,0.03888
4416.19323,0.03729
4418.12170,0.03560
4420.05017,0.03385
4421.97864,0.03255
4423.90710,0.03455
4425.83557,0.03557
4427.76404,0.02976
4429.69251,0.02257
4431.62098,0.02130
4433.54945,0.02747
4435.47792,0.03443
4437.40638,0.03231
4439.33485,0.03040
4441.26332,0.03918
4443.19179,0.04514
4445.12026,0.04131
4447.04873,0.03604
4448.97720,0.03320
4450.90567,0.03312
4452.83413,0.03462
4454.76260,0.03513
4456.69107,0.03211
4458.61954,0.02375
4460.54801,0.01634
4462.47648,0.02143
4464.40495,0.03434
4466.33341,0.04036
4468.26188,0.03707
4470.19035,0.02808
4472.11882,0.01985
4474.04729,0.01973
4475.97576,0.02376
4477.90423,0.01950
4479.83270,0.00817
4481.76116,0.00664
4483.68963,0.01698
4485.61810,0.02628
4487.54657,0.03063
4489.47504,0.03174
4491.40351,0.02863
4493.33198,0.02687
4495.26044,0.03553
4497.18891,0.04356
4499.11738,0.03560
4501.04585,0.02358
4502.97432,0.02156
4504.90279,0.02215
4506.83126,0.01906
4508.75973,0.01935
4510.68819,0.02544
4512.61666,0.02998
4514.54513,0.02877
4516.47360,0.02405
4518.40207,0.01925
4520.33054,0.01577
4522.25901,0.01594
4524.18747,0.01958
4526.11594,0.02253
4528.04441,0.02570
4529.97288,0.02890
4531.90135,0.02843
4533.82982,0.02451
4535.75829,0.01812
4537.68676,0.01442
4539.61522,0.01845
4541.54369,0.02287
4543.47216,0.02483
4545.40063,0.02842
4547.32910,0.02756
4549.25757,0.02269
4551.18604,0.01943
4553.11450,0.01734
4555.04297,0.01826
4556.97144,0.01787
4558.89991,0.01511
4560.82838,0.01614
4562.75685,0.01778
4564.68532,0.01828
4566.61378,0.01976
4568.54225,0.02129
4570.47072,0.02354
4572.39919,0.02376
4574.32766,0.01649
4576.25613,0.00772
4578.18460,0.00984
4580.11307,0.01767
4582.04153,0.01552
4583.97000,0.00610
4585.89847,-0.00140
4587.82694,-0.01095
4589.75541,-0.01894
4591.68388,-0.01268
4593.61235,0.00257
4595.54081,0.01287
4597.46928,0.01465
4599.39775,0.01119
4601.32622,0.00653
4603.25469,0.00792
4605.18316,0.01972
4607.11163,0.02629
4609.04010,0.02081
4610.96856,0.01878
4612.89703,0.02127
4614.82550,0.02408
4616.75397,0.02677
4618.68244,0.02076
4620.61091,0.01299
4622.53938,0.01221
4624.46784,0.01121
4626.39631,0.01062
4628.32478,0.01299
4630.25325,0.01680
4632.18172,0.01940
4634.11019,0.01903
4636.03866,0.01995
4637.96713,0.01657
4639.89559,0.00733
4641.82406,0.00234
4643.75253,0.00219
4645.68100,0.00341
4647.60947,0.00411
4649.53794,0.00445
4651.46641,0.00555
4653.39487,0.00877
4655.32334,0.01899
4657.25181,0.03316
4659.18028,0.03725
4661.10875,0.02820
4663.03722,0.01956
4664.96569,0.01939
4666.89416,0.02376
4668.82262,0.02269
4670.75109,0.01382
4672.67956,0.00857
4674.60803,0.00817
4676.53650,0.00650
4678.46497,0.00968
4680.39344,0.02018
4682.32190,0.02834
4684.25037,0.02985
4686.17884,0.02538
4688.10731,0.01449
4690.03578,0.00482
4691.96425,0.00604
4693.89272,0.01065
4695.82119,0.00268
4697.74965,-0.01050
4699.67812,-0.01258
4701.60659,-0.01229
4703.53506,-0.01591
4705.46353,-0.01409
4707.39200,-0.00607
4709.32047,0.00063
4711.24893,0.00061
4713.17740,-0.00458
4715.10587,-0.00620
4717.03434,-0.00164
4718.96281,0.00233
4720.89128,0.01007
4722.81975,0.01998
4724.74821,0.01627
4726.67668,0.00678
4728.60515,0.00335
4730.53362,0.00114
4732.46209,0.00337
4734.39056,0.01288
4736.31903,0.02304
4738.24750,0.02842
4740.17596,0.02578
4742.10443,0.01489
4744.03290,0.00055
4745.96137,-0.00163
4747.88984,0.00632
4749.81831,0.00138
4751.74678,-0.00428
4753.67524,0.00944
4755.60371,0.02573
4757.53218,0.02748
4759.46065,0.02359
4761.38912,0.02209
4763.31759,0.01693
4765.24606,0.01067
4767.17453,0.01166
4769.10299,0.01992
4771.03146,0.02399
4772.95993,0.01562
4774.88840,0.01006
4776.81687,0.01604
4778.74534,0.01800
4780.67381,0.01344
4782.60227,0.01423
4784.53074,0.02005
4786.45921,0.02582
4788.38768,0.02521
4790.31615,0.01381
4792.24462,0.00346
4794.17309,0.01139
4796.10156,0.02427
4798.03002,0.01648
4799.95849,0.00448
4801.88696,0.00609
4803.81543,0.00844
4805.74390,0.00515
4807.67237,0.00062
4809.60084,-0.00572
4811.52930,-0.01212
4813.45777,-0.00961
4815.38624,0.00379
4817.31471,0.01821
4819.24318,0.02057
4821.17165,0.01146
4823.10012,0.00628
4825.02859,0.00839
4826.95705,0.00755
4828.88552,0.00006
4830.81399,-0.00462
4832.74246,0.00155
4834.67093,0.01012
4836.59940,0.01001
4838.52787,0.00827
4840.45633,0.01197
4842.38480,0.01501
4844.31327,0.01410
4846.24174,0.00442
4848.17021,-0.00963
4850.09868,-0.01359
4852.02715,-0.01003
4853.95562,-0.00608
4855.88408,-0.00214
4857.81255,-0.00054
4859.74102,-0.00392
4861.66949,-0.00608
4863.59796,0.00211
4865.52643,0.00919
4867.45490,0.00240
4869.38336,-0.00155
4871.31183,0.00710
4873.24030,0.01369
4875.16877,0.01261
4877.09724,0.00798
4879.02571,0.00595
4880.95418,0.01034
4882.88265,0.01391
4884.81111,0.01437
4886.73958,0.01702
4888.66805,0.02029
4890.59652,0.01896
4892.52499,0.01169
4894.45346,0.00318
4896.38193,0.00043
4898.31039,0.00534
4900.23886,0.01414
4902.16733,0.01885
4904.09580,0.01595
4906.02427,0.01076
4907.95274,0.00728
4909.88121,0.00593
4911.80967,0.00584
4913.73814,0.00569
4915.66661,0.00359
4917.59508,0.00237
4919.52355,0.00990
4921.45202,0.01965
4923.38049,0.01728
4925.30896,0.00952
4927.23742,0.00857
4929.16589,0.00938
4931.09436,0.00581
4933.02283,-0.00343
4934.95130,-0.01444
4936.87977,-0.01520
4938.80824,-0.00387
4940.73670,0.00741
4942.66517,0.01483
4944.59364,0.02082
4946.52211,0.02300
4948.45058,0.02249
4950.37905,0.02415
4952.30752,0.02591
4954.23599,0.01722
4956.16445,0.00037
4958.09292,-0.00753
4960.02139,-0.00034
4961.94986,0.01262
4963.87833,0.01574
4965.80680,0.01107
4967.73527,0.01715
4969.66373,0.02878
4971.59220,0.02947
4973.52067,0.02307
4975.44914,0.01758
4977.37761,0.01292
4979.30608,0.00642
4981.23455,-0.00329
4983.16302,-0.01334
4985.09148,-0.02313
4987.01995,-0.02905
4988.94842,-0.02456
4990.87689,-0.01411
4992.80536,-0.00495
4994.73383,0.00170
4996.66230,0.00757
4998.59076,0.01515
5000.51923,0.02056
5002.44770,0.01552
5004.37617,0.00642
5006.30464,0.00967
5008.23311,0.02169
5010.16158,0.02590
5012.09005,0.02231
5014.01851,0.02315
5015.94698,0.02769
5017.87545,0.02799
5019.80392,0.02046
5021.73239,0.00564
5023.66086,-0.00058
5025.58933,0.01516
5027.51779,0.03340
5029.44626,0.03851
5031.37473,0.04012
5033.30320,0.03782
5035.23167,0.02839
5037.16014,0.01986
5039.08861,0.01922
5041.01708,0.02745
5042.94554,0.03363
5044.87401,0.02824
5046.80248,0.01729
5048.73095,0.01654
5050.65942,0.02746
5052.58789,0.03056
5054.51636,0.02111
5056.44482,0.01643
5058.37329,0.02501
5060.30176,0.03461
5062.23023,0.02722
5064.15870,0.01194
5066.08717,0.01640
5068.01564,0.03748
5069.94410,0.05257
5071.87257,0.05498
5073.80104,0.04978
5075.72951,0.04320
5077.65798,0.03570
5079.58645,0.02608
5081.51492,0.01691
5083.44339,0.01667
5085.37185,0.02185
5087.30032,0.02021
5089.22879,0.01778
5091.15726,0.01780
5093.08573,0.01341
5095.01420,0.00381
5096.94267,0.00187
5098.87113,0.01990
5100.79960,0.03521
5102.72807,0.02803
5104.65654,0.01659
5106.58501,0.01311
5108.51348,0.01278
5110.44195,0.02254
5112.37042,0.04068
5114.29888,0.04441
5116.22735,0.02934
5118.15582,0.01406
5120.08429,0.00961
5122.01276,0.00742
5123.94123,0.00672
5125.86970,0.01778
5127.79816,0.03236
5129.72663,0.03581
5131.65510,0.03389
5133.58357,0.04367
5135.51204,0.05842
5137.44051,0.05224
5139.36898,0.03465
5141.29745,0.03845
5143.22591,0.04807
5145.15438,0.02976
5147.08285,0.00679
5149.01132,0.00689
5150.93979,0.01757
5152.86826,0.02487
5154.79673,0.01848
5156.72519,0.00301
5158.65366,0.00924
5160.58213,0.04003
5162.51060,0.06335
5164.43907,0.06580
5166.36754,0.06193
5168.29601,0.05930
5170.22448,0.05290
5172.15294,0.04747
5174.08141,0.04763
5176.00988,0.03728
5177.93835,0.01781
5179.86682,0.01038
5181.79529,0.01125
5183.72376,0.01771
5185.65222,0.03821
5187.58069,0.04841
5189.50916,0.03531
5191.43763,0.03778
5193.36610,0.06703
5195.29457,0.08347
5197.22304,0.07641
5199.15151,0.06364
5201.07997,0.04919
5203.00844,0.04204
5204.93691,0.05767
5206.86538,0.07421
5208.79385,0.06773
5210.72232,0.06096
5212.65079,0.05041
5214.57925,0.03213
5216.50772,0.03405
5218.43619,0.05756
5220.36466,0.07189
5222.29313,0.06149
5224.22160,0.04451
5226.15007,0.04823
5228.07854,0.06571
5230.00700,0.06674
5231.93547,0.04903
5233.86394,0.03754
5235.79241,0.04214
5237.72088,0.04828
5239.64935,0.04522
5241.57782,0.03391
5243.50628,0.02999
5245.43475,0.05111
5247.36322,0.06870
5249.29169,0.05377
5251.22016,0.03707
5253.14863,0.03834
5255.07710,0.04751
5257.00556,0.05539
5258.93403,0.05444
5260.86250,0.05021
5262.79097,0.05184
5264.71944,0.05434
5266.64791,0.05013
5268.57638,0.04283
5270.50485,0.03541
5272.43331,0.02723
5274.36178,0.03086
5276.29025,0.05190
5278.21872,0.06515
5280.14719,0.06474
5282.07566,0.07409
5284.00413,0.08465
5285.93259,0.07647
5287.86106,0.05889
5289.78953,0.04253
5291.71800,0.02979
5293.64647,0.02617
5295.57494,0.04147
5297.50341,0.06722
5299.43188,0.06925
5301.36034,0.05038
5303.28881,0.04814
5305.21728,0.06295
5307.14575,0.07529
5309.07422,0.07361
5311.00269,0.05097
5312.93116,0.02613
5314.85962,0.02361
5316.78809,0.03150
5318.71656,0.03081
5320.64503,0.03477
5322.57350,0.05751
5324.50197,0.09010
5326.43044,0.10987
5328.35891,0.09915
5330.28737,0.07278
5332.21584,0.06053
5334.14431,0.06303
5336.07278,0.05445
5338.00125,0.03491
5339.92972,0.03547
5341.85819,0.05869
5343.78665,0.08172
5345.71512,0.09046
5347.64359,0.08991
5349.57206,0.09216
5351.50053,0.09023
5353.42900,0.05654
5355.35747,0.02086
5357.28594,0.03247
5359.21440,0.05977
5361.14287,0.06578
5363.07134,0.05055
5364.99981,0.03237
5366.92828,0.02965
5368.85675,0.04314
5370.78522,0.06429
5372.71368,0.08391
5374.64215,0.09017
5376.57062,0.07990
5378.49909,0.06544
5380.42756,0.05043
5382.35603,0.04307
5384.28450,0.04111
5386.21297,0.02334
5388.14143,0.01259
5390.06990,0.03294
5391.99837,0.06230
5393.92684,0.06699
5395.85531,0.05404
5397.78378,0.05959
5399.71225,0.07737
5401.64071,0.08625
5403.56918,0.08078
5405.49765,0.06847
5407.42612,0.06537
5409.35459,0.07489
5411.28306,0.07657
5413.21153,0.05309
5415.13999,0.03778
5417.06846,0.05390
5418.99693,0.06745
5420.92540,0.06022
5422.85387,0.05143
5424.78234,0.05273
5426.71081,0.06502
5428.63928,0.08911
5430.56774,0.10671
5432.49621,0.09267
5434.42468,0.05821
5436.35315,0.04830
5438.28162,0.06713
5440.21009,0.08189
5442.13856,0.08766
5444.06702,0.09264
5445.99549,0.08105
5447.92396,0.05908
5449.85243,0.04541
5451.78090,0.04217
5453.70937,0.05901
5455.63784,0.07120
5457.56631,0.04310
5459.49477,0.00452
5461.42324,-0.00725
5463.35171,0.01076
5465.28018,0.04881
5467.20865,0.08603
5469.13712,0.09216
5471.06559,0.06599
5472.99405,0.05380
5474.92252,0.08032
5476.85099,0.11001
5478.77946,0.11685
5480.70793,0.11879
5482.63640,0.12647
5484.56487,0.12900
5486.49334,0.11816
5488.42180,0.11360
5490.35027,0.12621
5492.27874,0.13254
5494.20721,0.12237
5496.13568,0.11273
5498.06415,0.10706
5499.99262,0.09896
5501.92108,0.09404
5503.84955,0.10172
5505.77802,0.10572
5507.70649,0.08283
5509.63496,0.05703
5511.56343,0.05405
5513.49190,0.06267
5515.42037,0.06485
5517.34883,0.06373
5519.27730,0.07525
5521.20577,0.08247
5523.13424,0.07552
5525.06271,0.06817
5526.99118,0.05771
5528.91965,0.04573
5530.84811,0.04365
5532.77658,0.06081
5534.70505,0.08751
5536.63352,0.10694
5538.56199,0.11924
5540.49046,0.11708
5542.41893,0.08627
5544.34740,0.05106
5546.27586,0.06005
5548.20433,0.09068
5550.13280,0.09183
5552.06127,0.08868
5553.98974,0.09823
5555.91821,0.09304
5557.84668,0.08435
5559.77514,0.09852
5561.70361,0.11743
5563.63208,0.12265
5565.56055,0.11189
5567.48902,0.08183
5569.41749,0.05352
5571.34596,0.04550
5573.27443,0.04799
5575.20289,0.05700
5577.13136,0.07274
5579.05983,0.08843
5580.98830,0.09773
5582.91677,0.08835
5584.84524,0.06452
5586.77371,0.04846
5588.70217,0.04934
5590.63064,0.06617
5592.55911,0.08461
5594.48758,0.07879
5596.41605,0.06093
5598.34452,0.07230
5600.27299,0.09446
5602.20145,0.07765
5604.12992,0.04989
5606.05839,0.05654
5607.98686,0.07253
5609.91533,0.07262
5611.84380,0.07415
5613.77227,0.08106
5615.70074,0.07378
5617.62920,0.05307
5619.55767,0.04881
5621.48614,0.06770
5623.41461,0.08318
5625.34308,0.08678
5627.27155,0.08063
5629.20002,0.06768
5631.12848,0.07329
5633.05695,0.09676
5634.98542,0.09881
5636.91389,0.08070
5638.84236,0.06889
5640.77083,0.06803
5642.69930,0.08954
5644.62777,0.12463
5646.55623,0.12966
5648.48470,0.08847
5650.41317,0.05229
5652.34164,0.06184
5654.27011,0.08043
5656.19858,0.07470
5658.12705,0.05992
5660.05551,0.05091
5661.98398,0.05374
5663.91245,0.06777
5665.84092,0.06989
5667.76939,0.06686
5669.69786,0.09899
5671.62633,0.13053
5673.55480,0.10680
5675.48326,0.07551
5677.41173,0.07707
5679.34020,0.07629
5681.26867,0.06316
5683.19714,0.05259
5685.12561,0.04617
5687.05408,0.05185
5688.98254,0.07635
5690.91101,0.10236
5692.83948,0.10838
5694.76795,0.10285
5696.69642,0.09588
5698.62489,0.07371
5700.55336,0.04752
5702.48183,0.04535
5704.41029,0.06670
5706.33876,0.09430
5708.26723,0.10688
5710.19570,0.10974
5712.12417,0.11957
5714.05264,0.11882
5715.98111,0.11075
5717.90957,0.12134
5719.83804,0.12975
5721.76651,0.09887
5723.69498,0.05048
5725.62345,0.02826
5727.55192,0.03127
5729.48039,0.05314
5731.40886,0.08669
5733.33732,0.11996
5735.26579,0.14861
5737.19426,0.15928
5739.12273,0.14817
5741.05120,0.10229
5742.97967,0.04145
5744.90814,0.02795
5746.83660,0.06443
5748.76507,0.10974
5750.69354,0.12524
5752.62201,0.09855
5754.55048,0.07850
5756.47895,0.08390
5758.40742,0.08113
5760.33588,0.07310
5762.26435,0.07329
5764.19282,0.08308
5766.12129,0.10370
5768.04976,0.09946
5769.97823,0.06002
5771.90670,0.04222
5773.83517,0.07280
5775.76363,0.10960
5777.69210,0.13239
5779.62057,0.15454
5781.54904,0.15895
5783.47751,0.13801
5785.40598,0.11851
5787.33445,0.10521
5789.26291,0.09370
5791.19138,0.08917
5793.11985,0.08948
5795.04832,0.10176
5796.97679,0.11060
5798.90526,0.09582
5800.83373,0.08578
5802.76220,0.08080
5804.69066,0.05537
5806.61913,0.02795
5808.54760,0.02106
5810.47607,0.04329
5812.40454,0.09039
5814.33301,0.11806
5816.26148,0.10140
5818.18994,0.07477
5820.11841,0.07193
5822.04688,0.07919
5823.97535,0.07297
5825.90382,0.07254
5827.83229,0.08982
5829.76076,0.09574
5831.68923,0.08501
5833.61769,0.08758
5835.54616,0.10126
5837.47463,0.07834
5839.40310,0.03641
5841.33157,0.04850
5843.26004,0.09501
5845.18851,0.11194
5847.11697,0.10101
5849.04544,0.09398
5850.97391,0.09409
5852.90238,0.08871
5854.83085,0.08582
5856.75932,0.09405
5858.68779,0.11776
5860.61626,0.15151
5862.54472,0.15300
5864.47319,0.10333
5866.40166,0.05683
5868.33013,0.03783
5870.25860,0.02206
5872.18707,0.02495
5874.11554,0.05891
5876.04400,0.08508
5877.97247,0.08372
5879.90094,0.07278
5881.82941,0.04839
5883.75788,0.00944
5885.68635,-0.02296
5887.61482,-0.00443
5889.54329,0.06203
5891.47175,0.08578
5893.40022,0.05164
5895.32869,0.03503
5897.25716,0.06173
5899.18563,0.08823
5901.11410,0.07626
5903.04257,0.03942
5904.97103,0.03430
5906.89950,0.06885
5908.82797,0.08205
5910.75644,0.06311
5912.68491,0.04754
5914.61338,0.04052
5916.54185,0.04050
5918.47032,0.06285
5920.39878,0.09890
5922.32725,0.10286
5924.25572,0.08611
5926.18419,0.09503
5928.11266,0.13095
5930.04113,0.16784
5931.96960,0.16789
5933.89806,0.13392
5935.82653,0.13524
5937.75500,0.17092
5939.68347,0.16789
5941.61194,0.12171
5943.54041,0.07334
5945.46888,0.04749
5947.39734,0.05756
5949.32581,0.08499
5951.25428,0.09108
5953.18275,0.08524
5955.11122,0.08518
5957.03969,0.07826
5958.96816,0.08392
5960.89663,0.10704
5962.82509,0.11543
5964.75356,0.11000
5966.68203,0.09952
5968.61050,0.09526
5970.53897,0.10614
5972.46744,0.11805
5974.39591,0.11398
5976.32437,0.09814
5978.25284,0.09116
5980.18131,0.07819
5982.10978,0.04003
5984.03825,0.01169
5985.96672,0.03083
5987.89519,0.07148
5989.82366,0.07468
5991.75212,0.05429
5993.68059,0.06474
5995.60906,0.10530
5997.53753,0.14688
5999.46600,0.17736
6001.39447,0.19476
6003.32294,0.17814
6005.25140,0.12438
6007.17987,0.06870
6009.10834,0.02403
6011.03681,0.00435
6012.96528,0.02209
6014.89375,0.05975
6016.82222,0.10094
6018.75069,0.12179
6020.67915,0.08930
6022.60762,0.04274
6024.53609,0.04586
6026.46456,0.07684
6028.39303,0.10007
6030.32150,0.11541
6032.24997,0.12037
6034.17843,0.11056
6036.10690,0.08423
6038.03537,0.05003
6039.96384,0.02251
6041.89231,0.01557
6043.82078,0.05406
6045.74925,0.12573
6047.67772,0.15426
6049.60618,0.08809
6051.53465,-0.01047
6053.46312,-0.05380
6055.39159,-0.01768
6057.32006,0.04267
6059.24853,0.06089
6061.17700,0.05640
6063.10546,0.07633
6065.03393,0.12387
6066.96240,0.15444
6068.89087,0.12484
6070.81934,0.06233
6072.74781,0.02665
6074.67628,0.04337
6076.60475,0.06750
6078.53321,0.03844
6080.46168,0.01932
6082.39015,0.08166
6084.31862,0.17668
6086.24709,0.20984
6088.17556,0.13514
6090.10403,0.02107
6092.03249,-0.06210
6093.96096,-0.09723
6095.88943,-0.07798
6097.81790,-0.02440
6099.74637,0.04201
6101.67484,0.09763
6103.60331,0.11246
6105.53177,0.11193
6107.46024,0.14522
6109.38871,0.19678
6111.31718,0.21050
6113.24565,0.16515
6115.17412,0.09128
6117.10259,0.04920
6119.03106,0.05915
6120.95952,0.09153
6122.88799,0.11419
6124.81646,0.08781
6126.74493,0.04197
6128.67340,0.04513
6130.60187,0.07397
6132.53034,0.10480
6134.45880,0.13002
6136.38727,0.13132
6138.31574,0.13446
6140.24421,0.15080
6142.17268,0.15354
6144.10115,0.13076
6146.02962,0.09225
6147.95809,0.05731
6149.88655,0.04472
6151.81502,0.05605
6153.74349,0.07517
6155.67196,0.08233
6157.60043,0.06404
6159.52890,0.03868
6161.45737,0.03169
6163.38583,0.02988
6165.31430,0.01525
6167.24277,0.01710
6169.17124,0.03740
6171.09971,0.03699
6173.02818,0.05927
6174.95665,0.13048
6176.88512,0.16736
6178.81358,0.13960
6180.74205,0.09882
6182.67052,0.08180
6184.59899,0.08902
6186.52746,0.08439
6188.45593,0.04959
6190.38440,0.04334
6192.31286,0.05580
6194.24133,0.01648
6196.16980,-0.03701
6198.09827,-0.03010
6200.02674,0.02023
6201.95521,0.05282
6203.88368,0.03385
6205.81215,-0.01212
6207.74061,-0.01235
6209.66908,0.04891
6211.59755,0.10209
6213.52602,0.10893
6215.45449,0.09434
6217.38296,0.09032
6219.31143,0.09335
6221.23989,0.07903
6223.16836,0.07873
6225.09683,0.11835
6227.02530,0.11933
6228.95377,0.05181
6230.88224,0.01704
6232.81071,0.06032
6234.73918,0.12105
6236.66764,0.16090
6238.59611,0.16153
6240.52458,0.11618
6242.45305,0.05725
6244.38152,0.03682
6246.30999,0.06014
6248.23846,0.05519
6250.16692,0.01960
6252.09539,0.05153
6254.02386,0.13542
6255.95233,0.17992
6257.88080,0.14868
6259.80927,0.09239
6261.73774,0.09019
6263.66621,0.11576
6265.59467,0.11590
6267.52314,0.11987
6269.45161,0.13233
6271.38008,0.13337
6273.30855,0.13924
6275.23702,0.17169
6277.16549,0.21664
6279.09395,0.24325
6281.02242,0.22705
6282.95089,0.15622
6284.87936,0.10310
6286.80783,0.12268
6288.73630,0.13880
6290.66477,0.12013
6292.59323,0.12395
6294.52170,0.14568
6296.45017,0.13092
6298.37864,0.06650
6300.30711,0.01984
6302.23558,0.06634
6304.16405,0.13433
6306.09252,0.11580
6308.02098,0.04239
6309.94945,-0.00973
6311.87792,-0.00077
6313.80639,0.04394
6315.73486,0.03906
6317.66333,-0.01064
6319.59180,-0.03123
6321.52026,-0.00113
6323.44873,0.05930
6325.37720,0.14067
6327.30567,0.21475
6329.23414,0.22357
6331.16261,0.18039
6333.09108,0.11562
6335.01955,0.04503
6336.94801,0.00235
6338.87648,-0.01488
6340.80495,0.00380
6342.73342,0.07719
6344.66189,0.16177
6346.59036,0.18032
6348.51883,0.14965
6350.44729,0.15901
6352.37576,0.18628
6354.30423,0.15851
6356.23270,0.13311
6358.16117,0.17231
6360.08964,0.20656
6362.01811,0.18485
6363.94658,0.11654
6365.87504,0.01226
6367.80351,-0.03809
6369.73198,-0.02584
6371.66045,-0.02264
6373.58892,-0.00772
6375.51739,0.01231
6377.44586,0.02896
6379.37432,0.06897
6381.30279,0.09907
6383.23126,0.10017
6385.15973,0.09752
6387.08820,0.06968
6389.01667,0.01127
6390.94514,-0.02078
6392.87361,-0.01262
6394.80207,-0.02371
6396.73054,-0.06627
6398.65901,-0.09724
6400.58748,-0.07106
6402.51595,0.00043
6404.44442,0.05156
6406.37289,0.05937
6408.30135,0.03876
6410.22982,0.01601
6412.15829,0.04109
6414.08676,0.10304
6416.01523,0.12104
6417.94370,0.08112
6419.87217,0.05041
6421.80064,0.07098
6423.72910,0.09896
6425.65757,0.09126
6427.58604,0.08295
6429.51451,0.09319
6431.44298,0.11268
6433.37145,0.12462
6435.29992,0.08455
6437.22838,0.00386
6439.15685,-0.02133
6441.08532,0.04362
6443.01379,0.11727
6444.94226,0.10957
6446.87073,0.04489
6448.79920,-0.00118
6450.72766,-0.00694
6452.65613,-0.00350
6454.58460,-0.00931
6456.51307,0.00903
6458.44154,0.02851
6460.37001,-0.02207
6462.29848,-0.06396
6464.22695,-0.02306
6466.15541,0.03261
6468.08388,0.08917
6470.01235,0.15097
6471.94082,0.18631
6473.86929,0.21524
6475.79776,0.19184
6477.72623,0.10271
6479.65469,0.06066
6481.58316,0.05974
6483.51163,0.05645
6485.44010,0.08327
6487.36857,0.13157
6489.29704,0.13199
6491.22551,0.10464
6493.15398,0.16742
6495.08244,0.22632
6497.01091,0.17845
6498.93938,0.13322
6500.86785,0.13469
6502.79632,0.13645
6504.72479,0.14564
6506.65326,0.19565
6508.58172,0.25309
6510.51019,0.23166
6512.43866,0.13784
6514.36713,0.06239
6516.29560,0.03970
6518.22407,0.06488
6520.15254,0.09163
6522.08101,0.08261
6524.00947,0.08145
6525.93794,0.10010
6527.86641,0.09698
6529.79488,0.10787
6531.72335,0.13651
6533.65182,0.12076
6535.58029,0.08805
6537.50875,0.07737
6539.43722,0.03645
6541.36569,-0.02791
6543.29416,-0.01338
6545.22263,0.08343
6547.15110,0.11860
6549.07957,0.03687
6551.00804,-0.06125
6552.93650,-0.07280
6554.86497,-0.02904
6556.79344,-0.01447
6558.72191,-0.00653
6560.65038,0.06152
6562.57885,0.12906
6564.50732,0.10645
6566.43578,0.04960
6568.36425,0.03973
6570.29272,0.03334
6572.22119,0.03048
6574.14966,0.06270
6576.07813,0.08598
6578.00660,0.08403
6579.93507,0.08587
6581.86353,0.07535
6583.79200,0.05527
6585.72047,0.04609
6587.64894,0.00865
6589.57741,-0.02997
6591.50588,-0.04837
6593.43435,-0.05355
6595.36281,0.00353
6597.29128,0.06556
6599.21975,0.06258
6601.14822,0.01868
6603.07669,-0.01358
6605.00516,0.02347
6606.93363,0.11870
6608.86210,0.15395
6610.79056,0.11733
6612.71903,0.12697
6614.64750,0.16921
6616.57597,0.16638
6618.50444,0.15908
6620.43291,0.21121
6622.36138,0.25676
6624.28984,0.18644
6626.21831,0.04380
6628.14678,-0.06364
6630.07525,-0.09042
6632.00372,-0.03516
6633.93219,0.08259
6635.86066,0.16958
6637.78912,0.13442
6639.71759,0.06825
6641.64606,0.05745
6643.57453,0.08445
6645.50300,0.13164
6647.43147,0.18464
6649.35994,0.17915
6651.28841,0.10203
6653.21687,0.04464
6655.14534,0.08138
6657.07381,0.12971
6659.00228,0.08308
6660.93075,0.01550
6662.85922,0.00176
6664.78769,0.02299
6666.71615,0.04346
6668.64462,0.01547
6670.57309,-0.05921
6672.50156,-0.06136
6674.43003,0.03568
6676.35850,0.07740
6678.28697,0.03805
6680.21544,0.02796
6682.14390,0.04411
6684.07237,0.00867
6686.00084,0.00139
6687.92931,0.10170
6689.85778,0.16673
6691.78625,0.13399
6693.71472,0.09993
6695.64318,0.08845
6697.57165,0.13434
6699.50012,0.24393
6701.42859,0.28052
6703.35706,0.20355
6705.28553,0.14799
6707.21400,0.15784
6709.14247,0.16610
6711.07093,0.13884
6712.99940,0.08968
6714.92787,0.04158
6716.85634,0.01147
6718.78481,0.01468
6720.71328,0.06596
6722.64175,0.12125
6724.57021,0.11084
6726.49868,0.08109
6728.42715,0.09342
6730.35562,0.10259
6732.28409,0.10994
6734.21256,0.14805
6736.14103,0.16039
6738.06950,0.14934
6739.99796,0.15495
6741.92643,0.14217
6743.85490,0.07743
6745.78337,-0.00749
6747.71184,-0.06552
6749.64031,-0.08778
6751.56878,-0.12360
6753.49724,-0.16153
6755.42571,-0.13311
6757.35418,-0.07146
6759.28265,-0.00945
6761.21112,0.05622
6763.13959,0.06586
6765.06806,0.03061
6766.99653,-0.02335
6768.92499,-0.08224
6770.85346,-0.07756
6772.78193,-0.04425
6774.71040,-0.04121
6776.63887,-0.04034
6778.56734,-0.05833
6780.49581,-0.05526
6782.42427,0.02201
6784.35274,0.11102
6786.28121,0.15145
6788.20968,0.11355
6790.13815,-0.00110
6792.06662,-0.05607
6793.99509,0.04873
6795.92355,0.16118
6797.85202,0.17763
6799.78049,0.15954
6801.70896,0.12169
6803.63743,0.07634
6805.56590,0.09347
6807.49437,0.13860
6809.42284,0.12241
6811.35130,0.06851
6813.27977,0.08765
6815.20824,0.14300
6817.13671,0.09762
6819.06518,-0.01099
6820.99365,-0.07299
6822.92212,-0.07506
6824.85058,-0.09085
6826.77905,-0.09514
6828.70752,-0.02796
6830.63599,0.05925
6832.56446,0.10949
6834.49293,0.09211
6836.42140,0.02497
6838.34987,0.03947
6840.27833,0.06992
6842.20680,0.00487
6844.13527,0.01340
6846.06374,0.14382
6847.99221,0.14289
6849.92068,-0.05017
6851.84915,-0.16046
6853.77761,-0.06042
6855.70608,0.10260
6857.63455,0.07719
6859.56302,-0.05058
6861.49149,-0.09004
6863.41996,-0.03107
6865.34843,0.07106
6867.27690,0.19006
6869.20536,0.22262
6871.13383,0.16280
6873.06230,0.14589
6874.99077,0.18759
6876.91924,0.18035
6878.84771,0.09612
6880.77618,0.04019
6882.70464,0.08261
6884.63311,0.11655
6886.56158,0.09396
6888.49005,0.08949
6890.41852,0.10082
6892.34699,0.06283
6894.27546,-0.01626
6896.20393,-0.10909
6898.13239,-0.14362
6900.06086,-0.10400
6901.98933,-0.04438
6903.91780,0.01531
6905.84627,0.02221
6907.77474,0.01981
6909.70321,0.09159
6911.63167,0.24201
6913.56014,0.35570
6915.48861,0.26467
6917.41708,0.06938
6919.34555,0.00035
6921.27402,0.09117
6923.20249,0.20837
6925.13096,0.27641
6927.05942,0.30749
6928.98789,0.31647
6930.91636,0.24808
6932.84483,0.14193
6934.77330,0.10835
6936.70177,0.09716
6938.63024,0.06829
6940.55870,0.07784
6942.48717,0.11919
6944.41564,0.11800
6946.34411,0.08392
6948.27258,0.08919
6950.20105,0.17057
6952.12952,0.23800
6954.05799,0.17809
6955.98645,0.02664
6957.91492,-0.07709
6959.84339,-0.07743
6961.77186,-0.00766
6963.70033,0.03243
6965.62880,0.01520
6967.55727,0.01474
6969.48573,0.09108
6971.41420,0.19313
6973.34267,0.21702
6975.27114,0.16873
6977.19961,0.12092
6979.12808,0.06181
6981.05655,-0.01212
6982.98501,-0.07477
6984.91348,-0.08475
6986.84195,-0.04783
6988.77042,-0.04366
6990.69889,-0.04707
6992.62736,-0.00085
6994.55583,0.07185
6996.48430,0.16291
6998.41276,0.25526
7000.34123,0.28282
7002.26970,0.23039
7004.19817,0.17981
7006.12664,0.15449
7008.05511,0.10595
7009.98358,0.07379
7011.91204,0.05861
7013.84051,-0.00102
7015.76898,-0.07696
7017.69745,-0.12347
7019.62592,-0.12483
7021.55439,-0.05059
7023.48286,0.09858
7025.41133,0.16543
7027.33979,0.02320
7029.26826,-0.17577
7031.19673,-0.24380
7033.12520,-0.20081
7035.05367,-0.07402
7036.98214,0.01781
7038.91061,-0.02410
7040.83907,-0.15968
7042.76754,-0.24739
7044.69601,-0.14025
7046.62448,0.05978
7048.55295,0.14390
7050.48142,0.08084
7052.40989,0.02976
7054.33836,0.10540
7056.26682,0.22651
7058.19529,0.28643
7060.12376,0.30358
7062.05223,0.29750
7063.98070,0.26552
7065.90917,0.19184
7067.83764,0.00001
7069.76610,-0.24235
7071.69457,-0.28268
7073.62304,-0.13525
7075.55151,0.00722
7077.47998,0.09461
7079.40845,0.15910
7081.33692,0.19266
7083.26539,0.17317
7085.19385,0.20001
7087.12232,0.24652
7089.05079,0.16330
7090.97926,0.01645
7092.90773,0.01296
7094.83620,0.17737
7096.76467,0.30112
7098.69313,0.26762
7100.62160,0.15633
7102.55007,0.02235
7104.47854,-0.08194
7106.40701,-0.08057
7108.33548,-0.00473
7110.26395,0.06005
7112.19242,0.08653
7114.12088,0.08615
7116.04935,0.03858
7117.97782,-0.06354
7119.90629,-0.13186
7121.83476,-0.13018
7123.76323,-0.07755
7125.69170,0.01284
7127.62016,0.11210
7129.54863,0.14546
7131.47710,0.07459
7133.40557,0.00791
7135.33404,0.06865
7137.26251,0.16495
7139.19098,0.18518
7141.11944,0.21059
7143.04791,0.25064
7144.97638,0.16412
7146.90485,-0.02164
7148.83332,-0.13621
7150.76179,-0.11089
7152.69026,0.02921
7154.61873,0.09636
7156.54719,0.02022
7158.47566,0.00804
7160.40413,0.10121
7162.33260,0.14253
7164.26107,0.07240
7166.18954,0.00031
7168.11801,0.01396
7170.04647,0.06798
7171.97494,0.12777
7173.90341,0.24983
7175.83188,0.38299
7177.76035,0.35031
7179.68882,0.20708
7181.61729,0.13809
7183.54576,0.18980
7185.47422,0.20669
7187.40269,0.12995
7189.33116,0.10940
7191.25963,0.18044
7193.18810,0.21919
7195.11657,0.20166
7197.04504,0.14690
7198.97350,0.09172
7200.90197,0.07858
7202.83044,0.08437
7204.75891,0.12389
7206.68738,0.21133
7208.61585,0.24371
7210.54432,0.22809
7212.47279,0.24075
7214.40125,0.27496
7216.32972,0.24880
7218.25819,0.13862
7220.18666,0.10395
7222.11513,0.15225
7224.04360,0.08462
7225.97207,-0.15420
7227.90053,-0.26363
7229.82900,-0.12812
7231.75747,0.02336
7233.68594,0.07243
7235.61441,0.07977
7237.54288,0.03721
7239.47135,-0.11728
7241.39982,-0.35199
7243.32828,-0.38424
7245.25675,-0.13281
7247.18522,0.09678
7249.11369,0.17204
7251.04216,0.14095
7252.97063,0.15101
7254.89910,0.19534
7256.82756,0.23050
7258.75603,0.20108
7260.68450,0.03036
7262.61297,-0.09430
7264.54144,-0.08460
7266.46991,-0.05367
7268.39838,0.03110
7270.32685,0.20663
7272.25531,0.33588
7274.18378,0.27955
7276.11225,0.22712
7278.04072,0.23461
7279.96919,0.12492
7281.89766,-0.03239
7283.82613,-0.03175
7285.75459,-0.03259
7287.68306,-0.05749
7289.61153,0.00391
7291.54000,0.11325
7293.46847,0.23010
7295.39694,0.25125
7297.32541,0.10003
7299.25387,-0.09042
7301.18234,-0.25049
7303.11081,-0.31332
7305.03928,-0.19746
7306.96775,0.03992
7308.89622,0.25812
7310.82469,0.29524
7312.75316,0.21169
7314.68162,0.08660
7316.61009,-0.00624
7318.53856,0.08758
7320.46703,0.27488
7322.39550,0.34576
7324.32397,0.19999
7326.25244,0.06463
7328.18090,0.18162
7330.10937,0.39068
7332.03784,0.34575
7333.96631,0.19579
7335.89478,0.15594
7337.82325,0.17576
7339.75172,0.26537
7341.68019,0.46980
7343.60865,0.47586
7345.53712,0.25600
7347.46559,0.15127
7349.39406,0.18585
7351.32253,0.10542
7353.25100,0.01983
7355.17947,-0.01232
7357.10793,-0.03344
7359.03640,0.05223
7360.96487,0.01459
7362.89334,-0.12249
7364.82181,0.03493
7366.75028,0.18833
7368.67875,0.03399
7370.60722,-0.10594
7372.53568,-0.05718
7374.46415,0.14465
7376.39262,0.33137
7378.32109,0.25331
7380.24956,0.02980
7382.17803,-0.11307
7384.10650,-0.01802
7386.03496,0.20822
7387.96343,0.31046
7389.89190,0.22694
7391.82037,0.13700
7393.74884,0.15531
7395.67731,0.22157
7397.60578,0.30689
7399.53425,0.35594
7401.46271,0.27537
7403.39118,0.19863
7405.31965,0.24126
7407.24812,0.23576
7409.17659,0.16637
7411.10506,0.06653
7413.03353,-0.00243
7414.96199,0.06259
7416.89046,0.20841
7418.81893,0.20792
7420.74740,0.01965
7422.67587,-0.10363
7424.60434,-0.09670
7426.53281,-0.01861
7428.46128,-0.00571
7430.38974,-0.06087
7432.31821,0.01221
7434.24668,0.08386
7436.17515,0.05141
7438.10362,0.10547
7440.03209,0.24904
7441.96056,0.36074
7443.88902,0.36145
7445.81749,0.21756
7447.74596,0.13258
7449.67443,0.32679
7451.60290,0.55720
7453.53137,0.47048
7455.45984,0.28893
7457.38831,0.17150
7459.31677,0.07279
7461.24524,0.05695
7463.17371,0.15279
7465.10218,0.21644
7467.03065,0.14731
7468.95912,0.03841
7470.88759,0.07836
7472.81605,0.28313
7474.74452,0.38827
7476.67299,0.40007
7478.60146,0.53333
7480.52993,0.53011
7482.45840,0.10828
7484.38687,-0.17848
7486.31533,-0.08431
7488.24380,0.12795
7490.17227,0.25879
7492.10074,0.18840
7494.02921,0.06195
7495.95768,0.11123
7497.88615,0.21300
