399.19301,0.12118
401.12148,-0.34131
403.04995,-0.15164
404.97842,-0.02306
406.90689,-0.02709
408.83536,-0.04119
410.76382,-0.01737
412.69229,-0.01635
414.62076,0.01506
416.54923,0.11772
418.47770,0.21183
420.40617,0.10868
422.33464,-0.07281
424.26311,-0.14302
426.19157,-0.09905
428.12004,-0.05513
430.04851,-0.02094
431.97698,0.04720
433.90545,0.11473
435.83392,0.13438
437.76239,0.10527
439.69085,0.04454
441.61932,-0.00710
443.54779,0.02223
445.47626,0.06885
447.40473,0.06722
449.33320,0.05607
451.26167,0.04392
453.19013,0.07689
455.11860,0.16538
457.04707,0.18871
458.97554,0.07535
460.90401,-0.01455
462.83248,0.03775
464.76095,0.11811
466.68942,0.08426
468.61788,0.01818
470.54635,0.03193
472.47482,0.15363
474.40329,0.31103
476.33176,0.33459
478.26023,0.30108
480.18870,0.27644
482.11716,0.24163
484.04563,0.15910
485.97410,0.10865
487.90257,0.16432
489.83104,0.21981
491.75951,0.17520
493.68798,0.09716
495.61645,0.10336
497.54491,0.17752
499.47338,0.22531
501.40185,0.21037
503.33032,0.14212
505.25879,0.07267
507.18726,0.04800
509.11573,0.05024
511.04419,0.03252
512.97266,0.00897
514.90113,0.00684
516.82960,0.05464
518.75807,0.13006
520.68654,0.16090
522.61501,0.16521
524.54348,0.19115
526.47194,0.23152
528.40041,0.23029
530.32888,0.18217
532.25735,0.12679
534.18582,0.09840
536.11429,0.10183
538.04276,0.09710
539.97122,0.06486
541.89969,0.04568
543.82816,0.10401
545.75663,0.19141
547.68510,0.19975
549.61357,0.14304
551.54204,0.16084
553.47051,0.26879
555.39897,0.25753
557.32744,0.11579
559.25591,0.06251
561.18438,0.10796
563.11285,0.14487
565.04132,0.15312
566.96979,0.15868
568.89825,0.15215
570.82672,0.12356
572.75519,0.10955
574.68366,0.11748
576.61213,0.13041
578.54060,0.16008
580.46907,0.19146
582.39754,0.17828
584.32600,0.14306
586.25447,0.13246
588.18294,0.13685
590.11141,0.14448
592.03988,0.14462
593.96835,0.12095
595.89682,0.10654
597.82528,0.13563
599.75375,0.16781
601.68222,0.15139
603.61069,0.12840
605.53916,0.13102
607.46763,0.12114
609.39610,0.10148
611.32456,0.09505
613.25303,0.10945
615.18150,0.13321
617.10997,0.13733
619.03844,0.12086
620.96691,0.11152
622.89538,0.12230
624.82385,0.13060
626.75231,0.11717
628.68078,0.09389
630.60925,0.08960
632.53772,0.11034
634.46619,0.12951
636.39466,0.13409
638.32313,0.12846
640.25159,0.12546
642.18006,0.13193
644.10853,0.13333
646.03700,0.12550
647.96547,0.11898
649.89394,0.11294
651.82241,0.10532
653.75088,0.11553
655.67934,0.13418
657.60781,0.13251
659.53628,0.12082
661.46475,0.10859
663.39322,0.10125
665.32169,0.11207
667.25016,0.13685
669.17862,0.14553
671.10709,0.14067
673.03556,0.14900
674.96403,0.15510
676.89250,0.14823
678.82097,0.13989
680.74944,0.13522
682.67791,0.12817
684.60637,0.11746
686.53484,0.12488
688.46331,0.14984
690.39178,0.15922
692.32025,0.15448
694.24872,0.15671
696.17719,0.15596
698.10565,0.13995
700.03412,0.12927
701.96259,0.13180
703.89106,0.14165
705.81953,0.15594
707.74800,0.16455
709.67647,0.17607
711.60494,0.19200
713.53340,0.18857
715.46187,0.16556
717.39034,0.14363
719.31881,0.13082
721.24728,0.13064
723.17575,0.14215
725.10422,0.14743
727.03268,0.13286
728.96115,0.10822
730.88962,0.09964
732.81809,0.10986
734.74656,0.11444
736.67503,0.11203
738.60350,0.11001
740.53197,0.10517
742.46043,0.10013
744.38890,0.10341
746.31737,0.11429
748.24584,0.11787
750.17431,0.11380
752.10278,0.10875
754.03125,0.10421
755.95971,0.10593
757.88818,0.11440
759.81665,0.12719
761.74512,0.13989
763.67359,0.15110
765.60206,0.16206
767.53053,0.17077
769.45900,0.17245
771.38746,0.16054
773.31593,0.14093
775.24440,0.12369
777.17287,0.11960
779.10134,0.13335
781.02981,0.14199
782.95828,0.13455
784.88674,0.13398
786.81521,0.13945
788.74368,0.12926
790.67215,0.11964
792.60062,0.12785
794.52909,0.13828
796.45756,0.14642
798.38602,0.15939
800.31449,0.16695
802.24296,0.16677
804.17143,0.16696
806.09990,0.15771
808.02837,0.13760
809.95684,0.11956
811.88531,0.11343
813.81377,0.12579
815.74224,0.13733
817.67071,0.13566
819.59918,0.13921
821.52765,0.14976
823.45612,0.14937
825.38459,0.13433
827.31305,0.12520
829.24152,0.13359
831.16999,0.14862
833.09846,0.15538
835.02693,0.15200
836.95540,0.15134
838.88387,0.14996
840.81234,0.14490
842.74080,0.14580
844.66927,0.14893
846.59774,0.14538
848.52621,0.14126
850.45468,0.14911
852.38315,0.16010
854.31162,0.16059
856.24008,0.15799
858.16855,0.16031
860.09702,0.15924
862.02549,0.15671
863.95396,0.16292
865.88243,0.16269
867.81090,0.15327
869.73937,0.14625
871.66783,0.13730
873.59630,0.12522
875.52477,0.11594
877.45324,0.11876
879.38171,0.13167
881.31018,0.14235
883.23865,0.14401
885.16711,0.14050
887.09558,0.14026
889.02405,0.14365
890.95252,0.15110
892.88099,0.15416
894.80946,0.14480
896.73793,0.13411
898.66640,0.13275
900.59486,0.13849
902.52333,0.13791
904.45180,0.12958
906.38027,0.12557
908.30874,0.12910
910.23721,0.13544
912.16568,0.13762
914.09414,0.13912
916.02261,0.14360
917.95108,0.14497
919.87955,0.14542
921.80802,0.14773
923.73649,0.14681
925.66496,0.14431
927.59343,0.14708
929.52189,0.15096
931.45036,0.15040
933.37883,0.14752
935.30730,0.14275
937.23577,0.13903
939.16424,0.13506
941.09271,0.12968
943.02117,0.13114
944.94964,0.13876
946.87811,0.14170
948.80658,0.13481
950.73505,0.12681
952.66352,0.12379
954.59199,0.12201
956.52045,0.12330
958.44892,0.13195
960.37739,0.14642
962.30586,0.15654
964.23433,0.15324
966.16280,0.14750
968.09127,0.15098
970.01974,0.15212
971.94820,0.14740
973.87667,0.14855
975.80514,0.15248
977.73361,0.15500
979.66208,0.15607
981.59055,0.14964
983.51902,0.13775
985.44748,0.13187
987.37595,0.13682
989.30442,0.14636
991.23289,0.15286
993.16136,0.15145
995.08983,0.14564
997.01830,0.14070
998.94677,0.13762
1000.87523,0.14149
1002.80370,0.14773
1004.73217,0.15008
1006.66064,0.15511
1008.58911,0.16078
1010.51758,0.15930
1012.44605,0.15205
1014.37451,0.14469
1016.30298,0.14307
1018.23145,0.14754
1020.15992,0.15097
1022.08839,0.15238
1024.01686,0.14945
1025.94533,0.14238
1027.87380,0.15339
1029.80226,0.17173
1031.73073,0.16668
1033.65920,0.15887
1035.58767,0.16249
1037.51614,0.15984
1039.44461,0.15314
1041.37308,0.15754
1043.30154,0.16411
1045.23001,0.16130
1047.15848,0.16080
1049.08695,0.16449
1051.01542,0.16230
1052.94389,0.14945
1054.87236,0.13571
1056.80083,0.13756
1058.72929,0.14914
1060.65776,0.15490
1062.58623,0.15619
1064.51470,0.16402
1066.44317,0.17225
1068.37164,0.17079
1070.30011,0.16518
1072.22857,0.16172
1074.15704,0.16333
1076.08551,0.16760
1078.01398,0.16921
1079.94245,0.16324
1081.87092,0.14989
1083.79939,0.14126
1085.72786,0.14836
1087.65632,0.16476
1089.58479,0.17440
1091.51326,0.17423
1093.44173,0.17570
1095.37020,0.17916
1097.29867,0.17058
1099.22714,0.15778
1101.15560,0.15692
1103.08407,0.15863
1105.01254,0.15891
1106.94101,0.16177
1108.86948,0.16181
1110.79795,0.16096
1112.72642,0.16477
1114.65489,0.17196
1116.58335,0.17129
1118.51182,0.15788
1120.44029,0.14607
1122.36876,0.14537
1124.29723,0.15356
1126.22570,0.16205
1128.15417,0.16490
1130.08263,0.16424
1132.01110,0.16077
1133.93957,0.15660
1135.86804,0.15403
1137.79651,0.15528
1139.72498,0.16100
1141.65345,0.16581
1143.58191,0.16316
1145.51038,0.15524
1147.43885,0.15291
1149.36732,0.15447
1151.29579,0.15296
1153.22426,0.15133
1155.15273,0.15136
1157.08120,0.15332
1159.00966,0.15828
1160.93813,0.16319
1162.86660,0.16451
1164.79507,0.16350
1166.72354,0.16207
1168.65201,0.16320
1170.58048,0.16629
1172.50894,0.16492
1174.43741,0.16093
1176.36588,0.16107
1178.29435,0.16437
1180.22282,0.16457
1182.15129,0.15950
1184.07976,0.15747
1186.00823,0.16600
1187.93669,0.17385
1189.86516,0.17079
1191.79363,0.16532
1193.72210,0.16150
1195.65057,0.15968
1197.57904,0.16151
1199.50751,0.16373
1201.43597,0.16825
1203.36444,0.17304
1205.29291,0.17096
1207.22138,0.16844
1209.14985,0.17105
1211.07832,0.16938
1213.00679,0.16301
1214.93526,0.16135
1216.86372,0.16216
1218.79219,0.16326
1220.72066,0.16902
1222.64913,0.17623
1224.57760,0.17769
1226.50607,0.17310
1228.43454,0.16639
1230.36300,0.16154
1232.29147,0.16000
1234.21994,0.15819
1236.14841,0.15630
1238.07688,0.15903
1240.00535,0.16516
1241.93382,0.16940
1243.86229,0.16854
1245.79075,0.16647
1247.71922,0.16822
1249.64769,0.16998
1251.57616,0.16927
1253.50463,0.16896
1255.43310,0.16822
1257.36157,0.16630
1259.29003,0.16518
1261.21850,0.16558
1263.14697,0.16816
1265.07544,0.17213
1267.00391,0.17450
1268.93238,0.17499
1270.86085,0.17352
1272.78932,0.16990
1274.71778,0.16573
1276.64625,0.16277
1278.57472,0.16458
1280.50319,0.17062
1282.43166,0.17543
1284.36013,0.17745
1286.28860,0.17541
1288.21706,0.16893
1290.14553,0.16481
1292.07400,0.16612
1294.00247,0.16630
1295.93094,0.16473
1297.85941,0.16606
1299.78788,0.16614
1301.71634,0.16074
1303.64481,0.15539
1305.57328,0.15738
1307.50175,0.16519
1309.43022,0.17078
1311.35869,0.17176
1313.28716,0.17062
1315.21563,0.17084
1317.14409,0.17406
1319.07256,0.17470
1321.00103,0.17124
1322.92950,0.16968
1324.85797,0.16926
1326.78644,0.16816
1328.71491,0.16989
1330.64337,0.17269
1332.57184,0.17347
1334.50031,0.17328
1336.42878,0.17321
1338.35725,0.17429
1340.28572,0.17293
1342.21419,0.17022
1344.14266,0.16930
1346.07112,0.16741
1347.99959,0.16757
1349.92806,0.17022
1351.85653,0.17037
1353.78500,0.16870
1355.71347,0.16847
1357.64194,0.17005
1359.57040,0.17312
1361.49887,0.17910
1363.42734,0.18172
1365.35581,0.17855
1367.28428,0.17907
1369.21275,0.18191
1371.14122,0.18402
1373.06969,0.18929
1374.99815,0.19010
1376.92662,0.18259
1378.85509,0.17751
1380.78356,0.17685
1382.71203,0.17810
1384.64050,0.17875
1386.56897,0.17881
1388.49743,0.18157
1390.42590,0.18442
1392.35437,0.18615
1394.28284,0.18909
1396.21131,0.19199
1398.13978,0.19173
1400.06825,0.18761
1401.99672,0.18478
1403.92518,0.18710
1405.85365,0.18899
1407.78212,0.18554
1409.71059,0.18201
1411.63906,0.18132
1413.56753,0.18141
1415.49600,0.18403
1417.42446,0.19042
1419.35293,0.19175
1421.28140,0.18648
1423.20987,0.18304
1425.13834,0.18036
1427.06681,0.17908
1428.99528,0.18266
1430.92375,0.18827
1432.85221,0.19244
1434.78068,0.19728
1436.70915,0.19769
1438.63762,0.18951
1440.56609,0.18287
1442.49456,0.18074
1444.42303,0.18292
1446.35149,0.19038
1448.27996,0.19855
1450.20843,0.20080
1452.13690,0.20138
1454.06537,0.20805
1455.99384,0.22596
1457.92231,0.23086
1459.85077,0.20906
1461.77924,0.19707
1463.70771,0.19588
1465.63618,0.19350
1467.56465,0.18970
1469.49312,0.19342
1471.42159,0.20652
1473.35006,0.21698
1475.27852,0.21139
1477.20699,0.20133
1479.13546,0.19513
1481.06393,0.19155
1482.99240,0.18785
1484.92087,0.18527
1486.84934,0.18949
1488.77780,0.20410
1490.70627,0.20796
1492.63474,0.19708
1494.56321,0.19487
1496.49168,0.20338
1498.42015,0.20560
1500.34862,0.20853
1502.27709,0.23588
1504.20555,0.28195
1506.13402,0.30489
1508.06249,0.25343
1509.99096,0.21458
1511.91943,0.20174
1513.84790,0.20328
1515.77637,0.21554
1517.70483,0.22615
1519.63330,0.23079
1521.56177,0.22946
1523.49024,0.21701
1525.41871,0.20605
1527.34718,0.19936
1529.27565,0.19489
1531.20412,0.19928
1533.13258,0.21434
1535.06105,0.22407
1536.98952,0.22858
1538.91799,0.24321
1540.84646,0.25407
1542.77493,0.23842
1544.70340,0.21896
1546.63186,0.20669
1548.56033,0.20365
1550.48880,0.20324
1552.41727,0.20314
1554.34574,0.20682
1556.27421,0.21868
1558.20268,0.24078
1560.13115,0.22918
1562.05961,0.20471
1563.98808,0.19528
1565.91655,0.19323
1567.84502,0.19716
1569.77349,0.20225
1571.70196,0.19849
1573.63043,0.19514
1575.55889,0.19650
1577.48736,0.19017
1579.41583,0.18065
1581.34430,0.17688
1583.27277,0.17637
1585.20124,0.17828
1587.12971,0.18049
1589.05818,0.17850
1590.98664,0.17477
1592.91511,0.17458
1594.84358,0.17586
1596.77205,0.17499
1598.70052,0.17459
1600.62899,0.17638
1602.55746,0.17760
1604.48592,0.17652
1606.41439,0.17783
1608.34286,0.18319
1610.27133,0.18468
1612.19980,0.18459
1614.12827,0.19099
1616.05674,0.19870
1617.98521,0.19630
1619.91367,0.19523
1621.84214,0.20330
1623.77061,0.20908
1625.69908,0.20692
1627.62755,0.20360
1629.55602,0.19870
1631.48449,0.19703
1633.41295,0.20375
1635.34142,0.21549
1637.26989,0.21420
1639.19836,0.20552
1641.12683,0.20207
1643.05530,0.20558
1644.98377,0.21802
1646.91223,0.23082
1648.84070,0.22832
1650.76917,0.22938
1652.69764,0.24353
1654.62611,0.23683
1656.55458,0.21497
1658.48305,0.19967
1660.41152,0.19066
1662.33998,0.18945
1664.26845,0.19445
1666.19692,0.20261
1668.12539,0.21570
1670.05386,0.22507
1671.98233,0.22293
1673.91080,0.21907
1675.83926,0.21260
1677.76773,0.20766
1679.69620,0.21072
1681.62467,0.22222
1683.55314,0.23773
1685.48161,0.23437
1687.41008,0.21816
1689.33855,0.20376
1691.26701,0.19390
1693.19548,0.19544
1695.12395,0.20949
1697.05242,0.22018
1698.98089,0.21651
1700.90936,0.21063
1702.83783,0.20994
1704.76629,0.21185
1706.69476,0.20723
1708.62323,0.19865
1710.55170,0.19737
1712.48017,0.20508
1714.40864,0.21981
1716.33711,0.23065
1718.26558,0.21571
1720.19404,0.19654
1722.12251,0.19086
1724.05098,0.19081
1725.97945,0.19301
1727.90792,0.19926
1729.83639,0.20695
1731.76486,0.21486
1733.69332,0.22058
1735.62179,0.21272
1737.55026,0.20364
1739.47873,0.19966
1741.40720,0.19780
1743.33567,0.20004
1745.26414,0.20466
1747.19261,0.20963
1749.12107,0.21577
1751.04954,0.21502
1752.97801,0.20604
1754.90648,0.19974
1756.83495,0.19773
1758.76342,0.19629
1760.69189,0.19558
1762.62035,0.19158
1764.54882,0.18356
1766.47729,0.18253
1768.40576,0.19205
1770.33423,0.20426
1772.26270,0.20812
1774.19117,0.19917
1776.11964,0.18984
1778.04810,0.18754
1779.97657,0.18997
1781.90504,0.19069
1783.83351,0.19101
1785.76198,0.19314
1787.69045,0.19455
1789.61892,0.19948
1791.54738,0.20760
1793.47585,0.20600
1795.40432,0.19815
1797.33279,0.19479
1799.26126,0.19612
1801.18973,0.19671
1803.11820,0.19388
1805.04666,0.19127
1806.97513,0.18978
1808.90360,0.18976
1810.83207,0.19198
1812.76054,0.19359
1814.68901,0.19263
1816.61748,0.19063
1818.54595,0.19078
1820.47441,0.19271
1822.40288,0.19403
1824.33135,0.19548
1826.25982,0.19784
1828.18829,0.20057
1830.11676,0.19973
1832.04523,0.19437
1833.97369,0.19161
1835.90216,0.19212
1837.83063,0.19108
1839.75910,0.18918
1841.68757,0.19183
1843.61604,0.19785
1845.54451,0.19826
1847.47298,0.19209
1849.40144,0.18720
1851.32991,0.18834
1853.25838,0.19143
1855.18685,0.19066
1857.11532,0.18745
1859.04379,0.18430
1860.97226,0.18232
1862.90072,0.18437
1864.82919,0.19157
1866.75766,0.20178
1868.68613,0.20711
1870.61460,0.20325
1872.54307,0.19817
1874.47154,0.19322
1876.40001,0.18807
1878.32847,0.18519
1880.25694,0.18572
1882.18541,0.18902
1884.11388,0.19214
1886.04235,0.19495
1887.97082,0.19698
1889.89929,0.19326
1891.82775,0.18678
1893.75622,0.18480
1895.68469,0.18476
1897.61316,0.18455
1899.54163,0.18601
1901.47010,0.18603
1903.39857,0.18485
1905.32704,0.18749
1907.25550,0.19283
1909.18397,0.19486
1911.11244,0.19269
1913.04091,0.19170
1914.96938,0.19318
1916.89785,0.19549
1918.82632,0.19775
1920.75478,0.19897
1922.68325,0.19680
1924.61172,0.19088
1926.54019,0.18716
1928.46866,0.18656
1930.39713,0.18528
1932.32560,0.18449
1934.25407,0.18578
1936.18253,0.18655
1938.11100,0.18771
1940.03947,0.19271
1941.96794,0.19690
1943.89641,0.19291
1945.82488,0.18515
1947.75335,0.18270
1949.68181,0.18604
1951.61028,0.18859
1953.53875,0.18723
1955.46722,0.18428
1957.39569,0.18363
1959.32416,0.18724
1961.25263,0.19061
1963.18110,0.19034
1965.10956,0.19024
1967.03803,0.18991
1968.96650,0.18624
1970.89497,0.18353
1972.82344,0.18438
1974.75191,0.18524
1976.68038,0.18478
1978.60884,0.18402
1980.53731,0.18210
1982.46578,0.18132
1984.39425,0.18361
1986.32272,0.18590
1988.25119,0.18814
1990.17966,0.19122
1992.10812,0.19132
1994.03659,0.18788
1995.96506,0.18618
1997.89353,0.18774
1999.82200,0.18957
2001.75047,0.18997
2003.67894,0.19004
2005.60741,0.19147
2007.53587,0.19328
2009.46434,0.19313
2011.39281,0.19188
2013.32128,0.19199
2015.24975,0.19280
2017.17822,0.19187
2019.10669,0.18955
2021.03515,0.18845
2022.96362,0.18900
2024.89209,0.18963
2026.82056,0.19012
2028.74903,0.19009
2030.67750,0.18975
2032.60597,0.18919
2034.53444,0.18644
2036.46290,0.18360
2038.39137,0.18367
2040.31984,0.18546
2042.24831,0.18706
2044.17678,0.18688
2046.10525,0.18570
2048.03372,0.18653
2049.96218,0.18848
2051.89065,0.18828
2053.81912,0.18814
2055.74759,0.18996
2057.67606,0.19074
2059.60453,0.18969
2061.53300,0.18911
2063.46147,0.19040
2065.38993,0.19212
2067.31840,0.19239
2069.24687,0.19104
2071.17534,0.18956
2073.10381,0.18906
2075.03228,0.18812
2076.96075,0.18741
2078.88921,0.18851
2080.81768,0.19002
2082.74615,0.19094
2084.67462,0.19204
2086.60309,0.19313
2088.53156,0.19144
2090.46003,0.18767
2092.38850,0.18723
2094.31696,0.18896
2096.24543,0.18822
2098.17390,0.18686
2100.10237,0.18645
2102.03084,0.18656
2103.95931,0.18818
2105.88778,0.18975
2107.81624,0.18988
2109.74471,0.18959
2111.67318,0.18861
2113.60165,0.18636
2115.53012,0.18441
2117.45859,0.18446
2119.38706,0.18619
2121.31553,0.18877
2123.24399,0.19051
2125.17246,0.19003
2127.10093,0.18778
2129.02940,0.18461
2130.95787,0.18326
2132.88634,0.18137
2134.81481,0.17244
2136.74327,0.16443
2138.67174,0.17044
2140.60021,0.18396
2142.52868,0.19089
2144.45715,0.19245
2146.38562,0.19446
2148.31409,0.19436
2150.24255,0.19176
2152.17102,0.18947
2154.09949,0.18670
2156.02796,0.18397
2157.95643,0.18450
2159.88490,0.18865
2161.81337,0.19316
2163.74184,0.19502
2165.67030,0.19456
2167.59877,0.19323
2169.52724,0.19211
2171.45571,0.19242
2173.38418,0.19378
2175.31265,0.19491
2177.24112,0.19417
2179.16958,0.19172
2181.09805,0.19074
2183.02652,0.18997
2184.95499,0.18785
2186.88346,0.18830
2188.81193,0.18980
2190.74040,0.18812
2192.66887,0.18773
2194.59733,0.19118
2196.52580,0.19355
2198.45427,0.19311
2200.38274,0.19023
2202.31121,0.18635
2204.23968,0.18678
2206.16815,0.19027
2208.09661,0.19005
2210.02508,0.18700
2211.95355,0.18593
2213.88202,0.18749
2215.81049,0.18959
2217.73896,0.19043
2219.66743,0.19060
2221.59590,0.19183
2223.52436,0.19342
2225.45283,0.19420
2227.38130,0.19495
2229.30977,0.19599
2231.23824,0.19629
2233.16671,0.19466
2235.09518,0.19113
2237.02364,0.18855
2238.95211,0.18873
2240.88058,0.18860
2242.80905,0.18732
2244.73752,0.18850
2246.66599,0.19171
2248.59446,0.19355
2250.52293,0.19554
2252.45139,0.19919
2254.37986,0.20001
2256.30833,0.19615
2258.23680,0.19075
2260.16527,0.18690
2262.09374,0.18697
2264.02221,0.19050
2265.95067,0.19478
2267.87914,0.19652
2269.80761,0.19399
2271.73608,0.19039
2273.66455,0.18966
2275.59302,0.18977
2277.52149,0.18834
2279.44996,0.18826
2281.37842,0.19008
2283.30689,0.19157
2285.23536,0.19202
2287.16383,0.19109
2289.09230,0.18946
2291.02077,0.18744
2292.94924,0.18519
2294.87770,0.18565
2296.80617,0.18829
2298.73464,0.18877
2300.66311,0.18948
2302.59158,0.19398
2304.52005,0.19939
2306.44852,0.20364
2308.37699,0.20729
2310.30545,0.20827
2312.23392,0.20678
2314.16239,0.20692
2316.09086,0.20582
2318.01933,0.20199
2319.94780,0.20084
2321.87627,0.20068
2323.80473,0.19903
2325.73320,0.20100
2327.66167,0.20884
2329.59014,0.21852
2331.51861,0.22609
2333.44708,0.22821
2335.37555,0.22036
2337.30401,0.21069
2339.23248,0.21127
2341.16095,0.21348
2343.08942,0.20859
2345.01789,0.20196
2346.94636,0.19825
2348.87483,0.19769
2350.80330,0.19850
2352.73176,0.20202
2354.66023,0.20978
2356.58870,0.21780
2358.51717,0.22686
2360.44564,0.23204
2362.37411,0.23818
2364.30258,0.25129
2366.23104,0.24752
2368.15951,0.22692
2370.08798,0.20799
2372.01645,0.19659
2373.94492,0.19403
2375.87339,0.19635
2377.80186,0.20017
2379.73033,0.20182
2381.65879,0.19860
2383.58726,0.19365
2385.51573,0.18980
2387.44420,0.18843
2389.37267,0.18989
2391.30114,0.19126
2393.22961,0.19180
2395.15807,0.19373
2397.08654,0.19414
2399.01501,0.18992
2400.94348,0.18613
2402.87195,0.18682
2404.80042,0.18986
2406.72889,0.19282
2408.65736,0.19410
2410.58582,0.19375
2412.51429,0.19239
2414.44276,0.19041
2416.37123,0.18945
2418.29970,0.18937
2420.22817,0.18947
2422.15664,0.18991
2424.08510,0.18973
2426.01357,0.18956
2427.94204,0.19163
2429.87051,0.19670
2431.79898,0.20095
2433.72745,0.19929
2435.65592,0.19481
2437.58439,0.19292
2439.51285,0.19167
2441.44132,0.18931
2443.36979,0.18881
2445.29826,0.19074
2447.22673,0.19327
2449.15520,0.19562
2451.08367,0.19552
2453.01213,0.19155
2454.94060,0.18796
2456.86907,0.18889
2458.79754,0.19091
2460.72601,0.18994
2462.65448,0.18893
2464.58295,0.19121
2466.51142,0.19410
2468.43988,0.19368
2470.36835,0.19084
2472.29682,0.18928
2474.22529,0.18943
2476.15376,0.19027
2478.08223,0.19164
2480.01070,0.19134
2481.93916,0.18910
2483.86763,0.18808
2485.79610,0.18755
2487.72457,0.18656
2489.65304,0.18813
2491.58151,0.19110
2493.50998,0.19113
2495.43844,0.18832
2497.36691,0.18604
2499.29538,0.18659
2501.22385,0.18862
2503.15232,0.19042
2505.08079,0.19199
2507.00926,0.19203
2508.93773,0.19046
2510.86619,0.18955
2512.79466,0.19034
2514.72313,0.19202
2516.65160,0.19330
2518.58007,0.19449
2520.50854,0.19544
2522.43701,0.19534
2524.36547,0.19527
2526.29394,0.19422
2528.22241,0.19124
2530.15088,0.18896
2532.07935,0.18830
2534.00782,0.18893
2535.93629,0.19101
2537.86476,0.19240
2539.79322,0.19205
2541.72169,0.19314
2543.65016,0.19567
2545.57863,0.19584
2547.50710,0.19428
2549.43557,0.19236
2551.36404,0.19053
2553.29250,0.19071
2555.22097,0.19130
2557.14944,0.19146
2559.07791,0.19311
2561.00638,0.19469
2562.93485,0.19527
2564.86332,0.19523
2566.79179,0.19332
2568.72025,0.19187
2570.64872,0.19420
2572.57719,0.19740
2574.50566,0.19728
2576.43413,0.19510
2578.36260,0.19395
2580.29107,0.19382
2582.21953,0.19409
2584.14800,0.19449
2586.07647,0.19380
2588.00494,0.19295
2589.93341,0.19424
2591.86188,0.19654
2593.79035,0.19560
2595.71882,0.19273
2597.64728,0.19450
2599.57575,0.19986
2601.50422,0.20289
2603.43269,0.20262
2605.36116,0.20009
2607.28963,0.19675
2609.21810,0.19512
2611.14656,0.19351
2613.07503,0.19075
2615.00350,0.19199
2616.93197,0.19669
2618.86044,0.19901
2620.78891,0.19819
2622.71738,0.19633
2624.64585,0.19608
2626.57431,0.19804
2628.50278,0.19982
2630.43125,0.19927
2632.35972,0.19682
2634.28819,0.19572
2636.21666,0.19579
2638.14513,0.19378
2640.07359,0.19279
2642.00206,0.19629
2643.93053,0.19895
2645.85900,0.19770
2647.78747,0.19663
2649.71594,0.19708
2651.64441,0.19770
2653.57288,0.19803
2655.50134,0.19723
2657.42981,0.19513
2659.35828,0.19397
2661.28675,0.19583
2663.21522,0.20049
2665.14369,0.20435
2667.07216,0.20262
2669.00062,0.19907
2670.92909,0.19879
2672.85756,0.19800
2674.78603,0.19650
2676.71450,0.19770
2678.64297,0.19989
2680.57144,0.20121
2682.49990,0.20023
2684.42837,0.19670
2686.35684,0.19633
2688.28531,0.20069
2690.21378,0.20312
2692.14225,0.20146
2694.07072,0.19851
2695.99919,0.19699
2697.92765,0.19851
2699.85612,0.19988
2701.78459,0.19830
2703.71306,0.19575
2705.64153,0.19437
2707.57000,0.19362
2709.49847,0.19265
2711.42693,0.19486
2713.35540,0.20147
2715.28387,0.20607
2717.21234,0.20555
2719.14081,0.20287
2721.06928,0.20017
2722.99775,0.19882
2724.92622,0.19897
2726.85468,0.19856
2728.78315,0.19705
2730.71162,0.19524
2732.64009,0.19413
2734.56856,0.19620
2736.49703,0.19899
2738.42550,0.19846
2740.35396,0.19781
2742.28243,0.19953
2744.21090,0.20205
2746.13937,0.20410
2748.06784,0.20541
2749.99631,0.20652
2751.92478,0.20686
2753.85325,0.20483
2755.78171,0.20205
2757.71018,0.20197
2759.63865,0.20384
2761.56712,0.20445
2763.49559,0.20347
2765.42406,0.20294
2767.35253,0.20281
2769.28099,0.20085
2771.20946,0.19933
2773.13793,0.20273
2775.06640,0.20665
2776.99487,0.20552
2778.92334,0.20437
2780.85181,0.20619
2782.78028,0.20651
2784.70874,0.20461
2786.63721,0.20360
2788.56568,0.20329
2790.49415,0.20229
2792.42262,0.20308
2794.35109,0.20650
2796.27956,0.20899
2798.20802,0.20797
2800.13649,0.20617
2802.06496,0.20748
2803.99343,0.20927
2805.92190,0.20737
2807.85037,0.20422
2809.77884,0.20591
2811.70731,0.21110
2813.63577,0.21234
2815.56424,0.20845
2817.49271,0.20380
2819.42118,0.20106
2821.34965,0.19950
2823.27812,0.19911
2825.20659,0.20133
2827.13505,0.20307
2829.06352,0.20247
2830.99199,0.20227
2832.92046,0.20074
2834.84893,0.20019
2836.77740,0.20667
2838.70587,0.21383
2840.63433,0.21325
2842.56280,0.20847
2844.49127,0.20685
2846.41974,0.20987
2848.34821,0.21412
2850.27668,0.21399
2852.20515,0.20835
2854.13362,0.20563
2856.06208,0.20905
2857.99055,0.21191
2859.91902,0.21226
2861.84749,0.21359
2863.77596,0.21399
2865.70443,0.21124
2867.63290,0.21154
2869.56136,0.21455
2871.48983,0.21159
2873.41830,0.20526
2875.34677,0.20207
2877.27524,0.20139
2879.20371,0.20259
2881.13218,0.20466
2883.06065,0.20587
2884.98911,0.20636
2886.91758,0.20688
2888.84605,0.20834
2890.77452,0.20911
2892.70299,0.20676
2894.63146,0.20379
2896.55993,0.20276
2898.48839,0.20430
2900.41686,0.20798
2902.34533,0.20952
2904.27380,0.20861
2906.20227,0.20800
2908.13074,0.20731
2910.05921,0.20656
2911.98768,0.20522
2913.91614,0.20450
2915.84461,0.20667
2917.77308,0.20879
2919.70155,0.20659
2921.63002,0.20315
2923.55849,0.20445
2925.48696,0.20918
2927.41542,0.21296
2929.34389,0.21423
2931.27236,0.21246
2933.20083,0.20717
2935.12930,0.19932
2937.05777,0.19249
2938.98624,0.19181
2940.91471,0.19814
2942.84317,0.20548
2944.77164,0.20677
2946.70011,0.20131
2948.62858,0.19704
2950.55705,0.19875
2952.48552,0.20258
2954.41399,0.20415
2956.34245,0.20237
2958.27092,0.20210
2960.19939,0.20700
2962.12786,0.21341
2964.05633,0.21570
2965.98480,0.21060
2967.91327,0.20273
2969.84174,0.20015
2971.77020,0.20182
2973.69867,0.20351
2975.62714,0.20483
2977.55561,0.20563
2979.48408,0.20778
2981.41255,0.21155
2983.34102,0.21359
2985.26948,0.21197
2987.19795,0.20791
2989.12642,0.20610
2991.05489,0.20745
2992.98336,0.20916
2994.91183,0.21105
2996.84030,0.21209
2998.76877,0.21244
3000.69723,0.21409
3002.62570,0.21582
3004.55417,0.21522
3006.48264,0.21077
3008.41111,0.20594
3010.33958,0.20514
3012.26805,0.20296
3014.19651,0.19368
3016.12498,0.18427
3018.05345,0.18628
3019.98192,0.19622
3021.91039,0.20124
3023.83886,0.20281
3025.76733,0.20656
3027.69579,0.20994
3029.62426,0.21327
3031.55273,0.21686
3033.48120,0.21736
3035.40967,0.21459
3037.33814,0.20947
3039.26661,0.20560
3041.19508,0.20698
3043.12354,0.21086
3045.05201,0.21476
3046.98048,0.21801
3048.90895,0.21802
3050.83742,0.21460
3052.76589,0.21006
3054.69436,0.20505
3056.62282,0.20155
3058.55129,0.20309
3060.47976,0.20601
3062.40823,0.20734
3064.33670,0.20888
3066.26517,0.20658
3068.19364,0.20237
3070.12211,0.20354
3072.05057,0.20626
3073.97904,0.20593
3075.90751,0.20548
3077.83598,0.21002
3079.76445,0.21780
3081.69292,0.21901
3083.62139,0.21052
3085.54985,0.20357
3087.47832,0.20741
3089.40679,0.21634
3091.33526,0.22049
3093.26373,0.21498
3095.19220,0.20786
3097.12067,0.20961
3099.04914,0.21312
3100.97760,0.21141
3102.90607,0.20735
3104.83454,0.20329
3106.76301,0.20102
3108.69148,0.20313
3110.61995,0.20653
3112.54842,0.20553
3114.47688,0.20427
3116.40535,0.20694
3118.33382,0.21034
3120.26229,0.21156
3122.19076,0.21291
3124.11923,0.21655
3126.04770,0.21739
3127.97617,0.21345
3129.90463,0.21001
3131.83310,0.21032
3133.76157,0.20982
3135.69004,0.20663
3137.61851,0.20635
3139.54698,0.21000
3141.47545,0.21416
3143.40391,0.21486
3145.33238,0.21183
3147.26085,0.20983
3149.18932,0.21158
3151.11779,0.21537
3153.04626,0.21859
3154.97473,0.22025
3156.90320,0.21881
3158.83166,0.21382
3160.76013,0.20900
3162.68860,0.20867
3164.61707,0.21204
3166.54554,0.21514
3168.47401,0.21714
3170.40248,0.21891
3172.33094,0.21869
3174.25941,0.21576
3176.18788,0.21469
3178.11635,0.21849
3180.04482,0.22201
3181.97329,0.21973
3183.90176,0.21773
3185.83022,0.22153
3187.75869,0.22300
3189.68716,0.21730
3191.61563,0.21169
3193.54410,0.21341
3195.47257,0.21774
3197.40104,0.21653
3199.32951,0.21240
3201.25797,0.21043
3203.18644,0.21271
3205.11491,0.21782
3207.04338,0.21954
3208.97185,0.21467
3210.90032,0.20786
3212.82879,0.20605
3214.75725,0.20996
3216.68572,0.21648
3218.61419,0.22128
3220.54266,0.21959
3222.47113,0.21427
3224.39960,0.21292
3226.32807,0.21842
3228.25654,0.22433
3230.18500,0.22002
3232.11347,0.20856
3234.04194,0.20433
3235.97041,0.20873
3237.89888,0.21288
3239.82735,0.21702
3241.75582,0.22042
3243.68428,0.21811
3245.61275,0.21520
3247.54122,0.21701
3249.46969,0.21983
3251.39816,0.21872
3253.32663,0.21646
3255.25510,0.21741
3257.18357,0.21609
3259.11203,0.20883
3261.04050,0.20176
3262.96897,0.19998
3264.89744,0.20337
3266.82591,0.21052
3268.75438,0.21652
3270.68285,0.21666
3272.61131,0.21419
3274.53978,0.21391
3276.46825,0.21464
3278.39672,0.21412
3280.32519,0.21221
3282.25366,0.20838
3284.18213,0.20626
3286.11060,0.20944
3288.03906,0.21220
3289.96753,0.21093
3291.89600,0.21079
3293.82447,0.21309
3295.75294,0.21464
3297.68141,0.21429
3299.60988,0.20817
3301.53834,0.19901
3303.46681,0.19790
3305.39528,0.20434
3307.32375,0.20951
3309.25222,0.21142
3311.18069,0.21116
3313.10916,0.20935
3315.03763,0.20999
3316.96609,0.21461
3318.89456,0.21949
3320.82303,0.22179
3322.75150,0.22041
3324.67997,0.21633
3326.60844,0.21516
3328.53691,0.22109
3330.46537,0.22612
3332.39384,0.22011
3334.32231,0.20968
3336.25078,0.20787
3338.17925,0.21226
3340.10772,0.21481
3342.03619,0.21727
3343.96466,0.22072
3345.89312,0.22272
3347.82159,0.22375
3349.75006,0.22320
3351.67853,0.22015
3353.60700,0.21763
3355.53547,0.21696
3357.46394,0.21539
3359.39240,0.21315
3361.32087,0.21467
3363.24934,0.21834
3365.17781,0.21679
3367.10628,0.21341
3369.03475,0.21572
3370.96322,0.22069
3372.89168,0.22074
3374.82015,0.21344
3376.74862,0.20694
3378.67709,0.20890
3380.60556,0.21369
3382.53403,0.21284
3384.46250,0.20973
3386.39097,0.21182
3388.31943,0.21459
3390.24790,0.21368
3392.17637,0.21569
3394.10484,0.22079
3396.03331,0.22330
3397.96178,0.22476
3399.89025,0.22533
3401.81871,0.22285
3403.74718,0.21909
3405.67565,0.21383
3407.60412,0.20685
3409.53259,0.20406
3411.46106,0.20857
3413.38953,0.21381
3415.31800,0.21204
3417.24646,0.20470
3419.17493,0.19838
3421.10340,0.19624
3423.03187,0.19934
3424.96034,0.20407
3426.88881,0.20506
3428.81728,0.20218
3430.74574,0.19826
3432.67421,0.19620
3434.60268,0.19709
3436.53115,0.19938
3438.45962,0.20100
3440.38809,0.20324
3442.31656,0.20637
3444.24503,0.20832
3446.17349,0.20838
3448.10196,0.20394
3450.03043,0.19830
3451.95890,0.19792
3453.88737,0.19995
3455.81584,0.20066
3457.74431,0.20002
3459.67277,0.19816
3461.60124,0.19828
3463.52971,0.19963
3465.45818,0.19737
3467.38665,0.19297
3469.31512,0.18968
3471.24359,0.19084
3473.17206,0.19539
3475.10052,0.19362
3477.02899,0.18656
3478.95746,0.18585
3480.88593,0.19068
3482.81440,0.19359
3484.74287,0.19520
3486.67134,0.19614
3488.59980,0.19255
3490.52827,0.18475
3492.45674,0.17943
3494.38521,0.18125
3496.31368,0.18660
3498.24215,0.18871
3500.17062,0.18689
3502.09909,0.18529
3504.02755,0.18530
3505.95602,0.18552
3507.88449,0.18594
3509.81296,0.18622
3511.74143,0.18456
3513.66990,0.18041
3515.59837,0.17725
3517.52683,0.17698
3519.45530,0.17626
3521.38377,0.17572
3523.31224,0.17673
3525.24071,0.17848
3527.16918,0.18617
3529.09765,0.19413
3531.02611,0.18862
3532.95458,0.17634
3534.88305,0.17176
3536.81152,0.17493
3538.73999,0.17637
3540.66846,0.17588
3542.59693,0.17620
3544.52540,0.17453
3546.45386,0.17065
3548.38233,0.16815
3550.31080,0.16953
3552.23927,0.17124
3554.16774,0.16922
3556.09621,0.16766
3558.02468,0.16754
3559.95314,0.16661
3561.88161,0.16703
3563.81008,0.16930
3565.73855,0.17515
3567.66702,0.18321
3569.59549,0.18128
3571.52396,0.17350
3573.45243,0.16653
3575.38089,0.15958
3577.30936,0.15449
3579.23783,0.15216
3581.16630,0.14960
3583.09477,0.14867
3585.02324,0.15392
3586.95171,0.16516
3588.88017,0.17154
3590.80864,0.16873
3592.73711,0.16503
3594.66558,0.16305
3596.59405,0.16293
3598.52252,0.16504
3600.45099,0.16614
3602.37946,0.16552
3604.30792,0.16641
3606.23639,0.16992
3608.16486,0.17588
3610.09333,0.17888
3612.02180,0.17280
3613.95027,0.16517
3615.87874,0.16429
3617.80720,0.16451
3619.73567,0.16028
3621.66414,0.15449
3623.59261,0.15160
3625.52108,0.15353
3627.44955,0.16195
3629.37802,0.16996
3631.30649,0.16492
3633.23495,0.15344
3635.16342,0.14523
3637.09189,0.14510
3639.02036,0.14469
3640.94883,0.13994
3642.87730,0.13583
3644.80577,0.13793
3646.73423,0.15315
3648.66270,0.17565
3650.59117,0.17201
3652.51964,0.15151
3654.44811,0.13835
3656.37658,0.13527
3658.30505,0.13806
3660.23352,0.13803
3662.16198,0.13345
3664.09045,0.13195
3666.01892,0.13879
3667.94739,0.14799
3669.87586,0.14852
3671.80433,0.14586
3673.73280,0.15260
3675.66126,0.15661
3677.58973,0.14751
3679.51820,0.13936
3681.44667,0.13360
3683.37514,0.13096
3685.30361,0.13629
3687.23208,0.14656
3689.16055,0.14989
3691.08901,0.14447
3693.01748,0.13950
3694.94595,0.13693
3696.87442,0.13747
3698.80289,0.13967
3700.73136,0.14142
3702.65983,0.13954
3704.58829,0.13499
3706.51676,0.13452
3708.44523,0.14171
3710.37370,0.15365
3712.30217,0.15577
3714.23064,0.14766
3716.15911,0.14262
3718.08757,0.13891
3720.01604,0.13405
3721.94451,0.13618
3723.87298,0.14239
3725.80145,0.14034
3727.72992,0.14012
3729.65839,0.14960
3731.58686,0.16208
3733.51532,0.17139
3735.44379,0.17267
3737.37226,0.16664
3739.30073,0.15772
3741.22920,0.15000
3743.15767,0.14709
3745.08614,0.14981
3747.01460,0.15489
3748.94307,0.16324
3750.87154,0.16761
3752.80001,0.15331
3754.72848,0.14010
3756.65695,0.13920
3758.58542,0.14207
3760.51389,0.13628
3762.44235,0.12844
3764.37082,0.12722
3766.29929,0.12833
3768.22776,0.12732
3770.15623,0.12421
3772.08470,0.11991
3774.01317,0.11846
3775.94163,0.12293
3777.87010,0.13047
3779.79857,0.13109
3781.72704,0.12543
3783.65551,0.12443
3785.58398,0.12823
3787.51245,0.13070
3789.44092,0.12976
3791.36938,0.12725
3793.29785,0.12478
3795.22632,0.12422
3797.15479,0.13018
3799.08326,0.14174
3801.01173,0.14883
3802.94020,0.14541
3804.86866,0.14576
3806.79713,0.15042
3808.72560,0.14454
3810.65407,0.13390
3812.58254,0.13152
3814.51101,0.13831
3816.43948,0.14399
3818.36795,0.14309
3820.29641,0.14561
3822.22488,0.14791
3824.15335,0.14544
3826.08182,0.14265
3828.01029,0.13740
3829.93876,0.13124
3831.86723,0.12943
3833.79569,0.13573
3835.72416,0.14576
3837.65263,0.14825
3839.58110,0.14186
3841.50957,0.13596
3843.43804,0.12734
3845.36651,0.11520
3847.29498,0.11028
3849.22344,0.11776
3851.15191,0.13467
3853.08038,0.15266
3855.00885,0.15127
3856.93732,0.13860
3858.86579,0.12842
3860.79426,0.12729
3862.72272,0.13746
3864.65119,0.14720
3866.57966,0.14485
3868.50813,0.13959
3870.43660,0.13952
3872.36507,0.13885
3874.29354,0.13291
3876.22200,0.12651
3878.15047,0.12682
3880.07894,0.13356
3882.00741,0.13767
3883.93588,0.13752
3885.86435,0.13558
3887.79282,0.13083
3889.72129,0.12337
3891.64975,0.11578
3893.57822,0.11511
3895.50669,0.11797
3897.43516,0.12083
3899.36363,0.12445
3901.29210,0.12214
3903.22057,0.11298
3905.14903,0.10886
3907.07750,0.10981
3909.00597,0.11051
3910.93444,0.11143
3912.86291,0.11227
3914.79138,0.11277
3916.71985,0.11420
3918.64832,0.11483
3920.57678,0.11362
3922.50525,0.11398
3924.43372,0.11614
3926.36219,0.11657
3928.29066,0.11373
3930.21913,0.11106
3932.14760,0.11317
3934.07606,0.11616
3936.00453,0.11470
3937.93300,0.11058
3939.86147,0.11025
3941.78994,0.11588
3943.71841,0.11601
3945.64688,0.10917
3947.57535,0.10979
3949.50381,0.11708
3951.43228,0.11967
3953.36075,0.11934
3955.28922,0.11929
3957.21769,0.11484
3959.14616,0.10737
3961.07463,0.10498
3963.00309,0.10856
3964.93156,0.11251
3966.86003,0.11275
3968.78850,0.11061
3970.71697,0.11113
3972.64544,0.11356
3974.57391,0.11092
3976.50238,0.10536
3978.43084,0.10616
3980.35931,0.10935
3982.28778,0.10883
3984.21625,0.11046
3986.14472,0.11292
3988.07319,0.10962
3990.00166,0.10694
3991.93012,0.11016
3993.85859,0.11357
3995.78706,0.11323
3997.71553,0.10876
3999.64400,0.10258
4001.57247,0.09876
4003.50094,0.09710
4005.42941,0.09506
4007.35787,0.09290
4009.28634,0.09564
4011.21481,0.10206
4013.14328,0.10137
4015.07175,0.09342
4017.00022,0.08921
4018.92869,0.09082
4020.85715,0.09152
4022.78562,0.09259
4024.71409,0.09710
4026.64256,0.09797
4028.57103,0.09703
4030.49950,0.10385
4032.42797,0.11275
4034.35644,0.11424
4036.28490,0.10981
4038.21337,0.10272
4040.14184,0.09590
4042.07031,0.09452
4043.99878,0.09509
4045.92725,0.09252
4047.85572,0.09191
4049.78418,0.09519
4051.71265,0.10036
4053.64112,0.10483
4055.56959,0.10296
4057.49806,0.09836
4059.42653,0.09817
4061.35500,0.09833
4063.28346,0.09612
4065.21193,0.09559
4067.14040,0.09725
4069.06887,0.09907
4070.99734,0.09880
4072.92581,0.09778
4074.85428,0.09863
4076.78275,0.09741
4078.71121,0.09421
4080.63968,0.09502
4082.56815,0.09835
4084.49662,0.09825
4086.42509,0.09442
4088.35356,0.09392
4090.28203,0.09825
4092.21049,0.09905
4094.13896,0.09341
4096.06743,0.08793
4097.99590,0.08781
4099.92437,0.08692
4101.85284,0.08081
4103.78131,0.07699
4105.70978,0.08114
4107.63824,0.09216
4109.56671,0.10115
4111.49518,0.09947
4113.42365,0.09190
4115.35212,0.08720
4117.28059,0.08687
4119.20906,0.08702
4121.13752,0.08521
4123.06599,0.08370
4124.99446,0.08561
4126.92293,0.08865
4128.85140,0.08800
4130.77987,0.08538
4132.70834,0.08581
4134.63681,0.08785
4136.56527,0.08595
4138.49374,0.08127
4140.42221,0.07819
4142.35068,0.07799
4144.27915,0.08200
4146.20762,0.08747
4148.13609,0.08873
4150.06455,0.08772
4151.99302,0.08767
4153.92149,0.08562
4155.84996,0.08155
4157.77843,0.07941
4159.70690,0.08061
4161.63537,0.08385
4163.56384,0.08516
4165.49230,0.08376
4167.42077,0.08509
4169.34924,0.09108
4171.27771,0.09575
4173.20618,0.09402
4175.13465,0.08789
4177.06312,0.08069
4178.99158,0.07516
4180.92005,0.07485
4182.84852,0.07996
4184.77699,0.08632
4186.70546,0.08812
4188.63393,0.08582
4190.56240,0.08452
4192.49087,0.08282
4194.41933,0.08036
4196.34780,0.08080
4198.27627,0.08048
4200.20474,0.07729
4202.13321,0.07898
4204.06168,0.08541
4205.99015,0.08694
4207.91861,0.08487
4209.84708,0.08828
4211.77555,0.09318
4213.70402,0.09179
4215.63249,0.08961
4217.56096,0.08863
4219.48943,0.08455
4221.41789,0.07993
4223.34636,0.07525
4225.27483,0.07134
4227.20330,0.07327
4229.13177,0.07839
4231.06024,0.08045
4232.98871,0.07801
4234.91718,0.07371
4236.84564,0.07042
4238.77411,0.06794
4240.70258,0.06663
4242.63105,0.06835
4244.55952,0.07219
4246.48799,0.07462
4248.41646,0.07502
4250.34492,0.07490
4252.27339,0.07441
4254.20186,0.07298
4256.13033,0.06943
4258.05880,0.06417
4259.98727,0.05812
4261.91574,0.05660
4263.84421,0.06022
4265.77267,0.05872
4267.70114,0.05454
4269.62961,0.05525
4271.55808,0.05850
4273.48655,0.06279
4275.41502,0.06530
4277.34349,0.06589
4279.27195,0.06717
4281.20042,0.06525
4283.12889,0.06088
4285.05736,0.05709
4286.98583,0.05126
4288.91430,0.04878
4290.84277,0.05620
4292.77124,0.06548
4294.69970,0.06470
4296.62817,0.05652
4298.55664,0.05172
4300.48511,0.05424
4302.41358,0.06294
4304.34205,0.06990
4306.27052,0.06994
4308.19898,0.06628
4310.12745,0.05760
4312.05592,0.04532
4313.98439,0.03933
4315.91286,0.04428
4317.84133,0.05223
4319.76980,0.05436
4321.69827,0.05077
4323.62673,0.04812
4325.55520,0.04971
4327.48367,0.04869
4329.41214,0.04489
4331.34061,0.04647
4333.26908,0.05019
4335.19755,0.04729
4337.12601,0.04059
4339.05448,0.04103
4340.98295,0.05197
4342.91142,0.06324
4344.83989,0.06292
4346.76836,0.05609
4348.69683,0.05149
4350.62530,0.04546
4352.55376,0.04235
4354.48223,0.04578
4356.41070,0.04527
4358.33917,0.04007
4360.26764,0.03759
4362.19611,0.04088
4364.12458,0.04735
4366.05304,0.04856
4367.98151,0.04141
4369.90998,0.03371
4371.83845,0.03394
4373.76692,0.03529
4375.69539,0.03025
4377.62386,0.03092
4379.55232,0.04370
4381.48079,0.05398
4383.40926,0.04975
4385.33773,0.03992
4387.26620,0.04147
4389.19467,0.04946
4391.12314,0.04805
4393.05161,0.04121
4394.98007,0.03635
4396.90854,0.03420
4398.83701,0.03726
4400.76548,0.04043
4402.69395,0.04029
4404.62242,0.04249
4406.55089,0.04524
4408.47935,0.04297
4410.40782,0.03873
4412.33629,0.03604
4414.26476,0.03339
4416.19323,0.03319
4418.12170,0.03737
4420.05017,0.03821
4421.97864,0.03444
4423.90710,0.03580
4425.83557,0.04147
4427.76404,0.04303
4429.69251,0.04008
4431.62098,0.03873
4433.54945,0.04338
4435.47792,0.04705
4437.40638,0.04122
4439.33485,0.03520
4441.26332,0.03638
4443.19179,0.03148
4445.12026,0.02045
4447.04873,0.02087
4448.97720,0.02749
4450.90567,0.02688
4452.83413,0.02645
4454.76260,0.03159
4456.69107,0.03813
4458.61954,0.04245
4460.54801,0.03660
4462.47648,0.02499
4464.40495,0.02258
4466.33341,0.02628
4468.26188,0.02629
4470.19035,0.02400
4472.11882,0.02401
4474.04729,0.02744
4475.97576,0.03022
4477.90423,0.03067
4479.83270,0.03101
4481.76116,0.02773
4483.68963,0.02205
4485.61810,0.01972
4487.54657,0.01971
4489.47504,0.01770
4491.40351,0.01314
4493.33198,0.01436
4495.26044,0.01881
4497.18891,0.01810
4499.11738,0.01976
4501.04585,0.02234
4502.97432,0.01403
4504.90279,0.00044
4506.83126,-0.00324
4508.75973,0.00606
4510.68819,0.02057
4512.61666,0.02902
4514.54513,0.02339
4516.47360,0.01262
4518.40207,0.00862
4520.33054,0.01006
4522.25901,0.01299
4524.18747,0.01395
4526.11594,0.01043
4528.04441,0.00735
4529.97288,0.00765
4531.90135,0.00715
4533.82982,0.00495
4535.75829,0.00465
4537.68676,0.00945
4539.61522,0.01771
4541.54369,0.02212
4543.47216,0.01831
4545.40063,0.01025
4547.32910,0.00517
4549.25757,0.00855
4551.18604,0.01684
4553.11450,0.01747
4555.04297,0.00640
4556.97144,-0.00762
4558.89991,-0.01193
4560.82838,-0.00209
4562.75685,0.00946
4564.68532,0.01051
4566.61378,0.00630
4568.54225,0.00768
4570.47072,0.01160
4572.39919,0.01013
4574.32766,0.00967
4576.25613,0.01443
4578.18460,0.01519
4580.11307,0.01412
4582.04153,0.01999
4583.97000,0.02337
4585.89847,0.01624
4587.82694,0.00685
4589.75541,-0.00051
4591.68388,-0.00344
4593.61235,0.00389
4595.54081,0.01472
4597.46928,0.01960
4599.39775,0.02138
4601.32622,0.02529
4603.25469,0.02434
4605.18316,0.01221
4607.11163,0.00276
4609.04010,0.00870
4610.96856,0.02285
4612.89703,0.02828
4614.82550,0.02401
4616.75397,0.02673
4618.68244,0.03301
4620.61091,0.02797
4622.53938,0.01897
4624.46784,0.01565
4626.39631,0.01519
4628.32478,0.01425
4630.25325,0.01248
4632.18172,0.01269
4634.11019,0.01530
4636.03866,0.01745
4637.96713,0.02065
4639.89559,0.02301
4641.82406,0.01938
4643.75253,0.01276
4645.68100,0.00835
4647.60947,0.01047
4649.53794,0.01638
4651.46641,0.01636
4653.39487,0.01512
4655.32334,0.01404
4657.25181,0.00598
4659.18028,0.00023
4661.10875,-0.00268
4663.03722,-0.01107
4664.96569,-0.01217
4666.89416,0.00526
4668.82262,0.02721
4670.75109,0.03687
4672.67956,0.03299
4674.60803,0.02134
4676.53650,0.01430
4678.46497,0.01429
4680.39344,0.00923
4682.32190,-0.00088
4684.25037,-0.00615
4686.17884,-0.00044
4688.10731,0.01139
4690.03578,0.01694
4691.96425,0.01117
4693.89272,0.00118
4695.82119,-0.00210
4697.74965,0.00277
4699.67812,0.01087
4701.60659,0.01804
4703.53506,0.01612
4705.46353,0.00486
4707.39200,-0.00275
4709.32047,-0.00359
4711.24893,-0.00271
4713.17740,0.00020
4715.10587,0.00794
4717.03434,0.01466
4718.96281,0.01035
4720.89128,0.00875
4722.81975,0.02231
4724.74821,0.02875
4726.67668,0.01512
4728.60515,0.00115
4730.53362,-0.00078
4732.46209,-0.00081
4734.39056,-0.00596
4736.31903,-0.00968
4738.24750,-0.00694
4740.17596,-0.00273
4742.10443,-0.00364
4744.03290,-0.00849
4745.96137,-0.01509
4747.88984,-0.01647
4749.81831,-0.00244
4751.74678,0.01409
4753.67524,0.01528
4755.60371,0.01111
4757.53218,0.01032
4759.46065,0.00307
4761.38912,-0.00404
4763.31759,0.00078
4765.24606,0.00371
4767.17453,0.00279
4769.10299,0.00608
4771.03146,0.00415
4772.95993,0.00052
4774.88840,0.00539
4776.81687,0.00689
4778.74534,0.00175
4780.67381,0.00484
4782.60227,0.01000
4784.53074,0.00659
4786.45921,0.00673
4788.38768,0.00792
4790.31615,-0.00116
4792.24462,-0.00950
4794.17309,-0.00460
4796.10156,0.00480
4798.03002,0.00837
4799.95849,0.01236
4801.88696,0.02055
4803.81543,0.02050
4805.74390,0.00916
4807.67237,0.00340
4809.60084,0.00853
4811.52930,0.01738
4813.45777,0.02074
4815.38624,0.00713
4817.31471,-0.01046
4819.24318,-0.01330
4821.17165,-0.00611
4823.10012,0.00553
4825.02859,0.01051
4826.95705,0.00352
4828.88552,0.00419
4830.81399,0.01474
4832.74246,0.01848
4834.67093,0.01850
4836.59940,0.02406
4838.52787,0.02908
4840.45633,0.02351
4842.38480,0.00740
4844.31327,-0.01016
4846.24174,-0.01907
4848.17021,-0.01085
4850.09868,0.00414
4852.02715,0.00280
4853.95562,-0.01291
4855.88408,-0.02223
4857.81255,-0.01351
4859.74102,0.00488
4861.66949,0.01230
4863.59796,0.00361
4865.52643,-0.00302
4867.45490,0.00009
4869.38336,0.00564
4871.31183,0.01918
4873.24030,0.03426
4875.16877,0.02964
4877.09724,0.00915
4879.02571,-0.00421
4880.95418,-0.00085
4882.88265,0.00366
4884.81111,-0.00165
4886.73958,-0.00648
4888.66805,-0.00092
4890.59652,0.01071
4892.52499,0.02177
4894.45346,0.02292
4896.38193,0.00584
4898.31039,-0.00943
4900.23886,-0.00426
4902.16733,0.00899
4904.09580,0.01624
4906.02427,0.01711
4907.95274,0.01905
4909.88121,0.01702
4911.80967,0.00503
4913.73814,-0.00639
4915.66661,-0.01376
4917.59508,-0.01405
4919.52355,-0.00257
4921.45202,0.01034
4923.38049,0.01537
4925.30896,0.01486
4927.23742,0.01835
4929.16589,0.02690
4931.09436,0.03030
4933.02283,0.02250
4934.95130,0.01270
4936.87977,0.01532
4938.80824,0.01937
4940.73670,0.01663
4942.66517,0.01465
4944.59364,0.01332
4946.52211,0.00459
4948.45058,0.00234
4950.37905,0.00916
4952.30752,0.00865
4954.23599,0.00495
4956.16445,0.00116
4958.09292,-0.00617
4960.02139,-0.00941
4961.94986,-0.00389
4963.87833,0.00919
4965.80680,0.01664
4967.73527,0.00625
4969.66373,-0.00944
4971.59220,-0.00809
4973.52067,0.00767
4975.44914,0.01165
4977.37761,-0.00271
4979.30608,-0.01731
4981.23455,-0.01935
4983.16302,-0.00285
4985.09148,0.01957
4987.01995,0.02033
4988.94842,0.00437
4990.87689,-0.00018
4992.80536,0.00613
4994.73383,0.01002
4996.66230,0.01141
4998.59076,0.01143
5000.51923,0.01380
5002.44770,0.02148
5004.37617,0.02905
5006.30464,0.03545
5008.23311,0.03710
5010.16158,0.02482
5012.09005,0.00651
5014.01851,0.00059
5015.94698,0.01655
5017.87545,0.03978
5019.80392,0.04034
5021.73239,0.01765
5023.66086,0.00402
5025.58933,0.01418
5027.51779,0.02395
5029.44626,0.01930
5031.37473,0.01743
5033.30320,0.02291
5035.23167,0.02573
5037.16014,0.02582
5039.08861,0.02454
5041.01708,0.01526
5042.94554,0.00381
5044.87401,0.01316
5046.80248,0.03657
5048.73095,0.04754
5050.65942,0.04721
5052.58789,0.04200
5054.51636,0.03301
5056.44482,0.02334
5058.37329,0.01336
5060.30176,0.00902
5062.23023,0.01268
5064.15870,0.01214
5066.08717,0.00826
5068.01564,0.01326
5069.94410,0.01491
5071.87257,0.00619
5073.80104,0.00672
5075.72951,0.02494
5077.65798,0.04257
5079.58645,0.03402
5081.51492,0.00724
5083.44339,-0.00211
5085.37185,0.00817
5087.30032,0.01876
5089.22879,0.02825
5091.15726,0.03205
5093.08573,0.02940
5095.01420,0.03030
5096.94267,0.02932
5098.87113,0.02301
5100.79960,0.01661
5102.72807,0.01005
5104.65654,0.00617
5106.58501,0.01399
5108.51348,0.03034
5110.44195,0.03565
5112.37042,0.02719
5114.29888,0.01916
5116.22735,0.01337
5118.15582,0.01419
5120.08429,0.03044
5122.01276,0.04810
5123.94123,0.05364
5125.86970,0.05392
5127.79816,0.05691
5129.72663,0.06056
5131.65510,0.05636
5133.58357,0.04325
5135.51204,0.02863
5137.44051,0.03015
5139.36898,0.04179
5141.29745,0.02274
5143.22591,-0.01055
5145.15438,-0.00524
5147.08285,0.01995
5149.01132,0.02443
5150.93979,0.01633
5152.86826,0.01640
5154.79673,0.02793
5156.72519,0.03522
5158.65366,0.02781
5160.58213,0.02081
5162.51060,0.02223
5164.43907,0.02798
5166.36754,0.03773
5168.29601,0.04210
5170.22448,0.02840
5172.15294,0.01634
5174.08141,0.02848
5176.00988,0.04860
5177.93835,0.05145
5179.86682,0.02811
5181.79529,-0.00016
5183.72376,-0.01158
5185.65222,-0.00884
5187.58069,0.00208
5189.50916,0.01878
5191.43763,0.04783
5193.36610,0.08030
5195.29457,0.09252
5197.22304,0.08460
5199.15151,0.07669
5201.07997,0.07875
5203.00844,0.07268
5204.93691,0.04550
5206.86538,0.02506
5208.79385,0.03527
5210.72232,0.04870
5212.65079,0.05300
5214.57925,0.06007
5216.50772,0.06980
5218.43619,0.07768
5220.36466,0.07486
5222.29313,0.06207
5224.22160,0.06027
5226.15007,0.07065
5228.07854,0.07356
5230.00700,0.06428
5231.93547,0.04585
5233.86394,0.02161
5235.79241,0.00084
5237.72088,-0.00297
5239.64935,0.01042
5241.57782,0.02402
5243.50628,0.02206
5245.43475,0.01848
5247.36322,0.04455
5249.29169,0.07275
5251.22016,0.06474
5253.14863,0.04538
5255.07710,0.03187
5257.00556,0.01857
5258.93403,0.01019
5260.86250,0.02128
5262.79097,0.04397
5264.71944,0.04455
5266.64791,0.02887
5268.57638,0.03189
5270.50485,0.04470
5272.43331,0.04025
5274.36178,0.03842
5276.29025,0.04909
5278.21872,0.04122
5280.14719,0.02434
5282.07566,0.02763
5284.00413,0.03435
5285.93259,0.03085
5287.86106,0.03191
5289.78953,0.04790
5291.71800,0.07277
5293.64647,0.07112
5295.57494,0.03911
5297.50341,0.02471
5299.43188,0.04306
5301.36034,0.05635
5303.28881,0.04163
5305.21728,0.03060
5307.14575,0.05078
5309.07422,0.06963
5311.00269,0.06833
5312.93116,0.07304
5314.85962,0.07836
5316.78809,0.05667
5318.71656,0.02717
5320.64503,0.02553
5322.57350,0.05070
5324.50197,0.07955
5326.43044,0.08328
5328.35891,0.07105
5330.28737,0.07750
5332.21584,0.08940
5334.14431,0.08607
5336.07278,0.07351
5338.00125,0.06277
5339.92972,0.06876
5341.85819,0.08356
5343.78665,0.08885
5345.71512,0.08632
5347.64359,0.08872
5349.57206,0.08793
5351.50053,0.07246
5353.42900,0.05901
5355.35747,0.06447
5357.28594,0.06745
5359.21440,0.05440
5361.14287,0.03523
5363.07134,0.01848
5364.99981,0.01865
5366.92828,0.03650
5368.85675,0.04831
5370.78522,0.05045
5372.71368,0.05436
5374.64215,0.06941
5376.57062,0.08605
5378.49909,0.08328
5380.42756,0.06704
5382.35603,0.04832
5384.28450,0.04120
5386.21297,0.04933
5388.14143,0.05309
5390.06990,0.04455
5391.99837,0.03419
5393.92684,0.03657
5395.85531,0.04386
5397.78378,0.04662
5399.71225,0.05940
5401.64071,0.08548
5403.56918,0.10349
5405.49765,0.09522
5407.42612,0.07214
5409.35459,0.06925
5411.28306,0.08875
5413.21153,0.08106
5415.13999,0.04835
5417.06846,0.03532
5418.99693,0.04627
5420.92540,0.07112
5422.85387,0.09371
5424.78234,0.10904
5426.71081,0.11318
5428.63928,0.08471
5430.56774,0.05146
5432.49621,0.04644
5434.42468,0.02935
5436.35315,-0.00725
5438.28162,-0.01743
5440.21009,0.00152
5442.13856,0.02692
5444.06702,0.04253
5445.99549,0.05137
5447.92396,0.06541
5449.85243,0.07534
5451.78090,0.06218
5453.70937,0.03540
5455.63784,0.02474
5457.56631,0.04421
5459.49477,0.08108
5461.42324,0.10765
5463.35171,0.09257
5465.28018,0.05457
5467.20865,0.04555
5469.13712,0.07723
5471.06559,0.11837
5472.99405,0.14454
5474.92252,0.14442
5476.85099,0.11617
5478.77946,0.08170
5480.70793,0.05659
5482.63640,0.04735
5484.56487,0.04983
5486.49334,0.05182
5488.42180,0.04994
5490.35027,0.05136
5492.27874,0.06377
5494.20721,0.07507
5496.13568,0.07225
5498.06415,0.07001
5499.99262,0.08319
5501.92108,0.09920
5503.84955,0.09566
5505.77802,0.07485
5507.70649,0.06356
5509.63496,0.07068
5511.56343,0.08344
5513.49190,0.09502
5515.42037,0.09857
5517.34883,0.09386
5519.27730,0.08339
5521.20577,0.07858
5523.13424,0.08864
5525.06271,0.10260
5526.99118,0.11932
5528.91965,0.12710
5530.84811,0.10252
5532.77658,0.06954
5534.70505,0.06614
5536.63352,0.07178
5538.56199,0.05551
5540.49046,0.04325
5542.41893,0.04926
5544.34740,0.05474
5546.27586,0.05503
5548.20433,0.05621
5550.13280,0.06528
5552.06127,0.08074
5553.98974,0.08224
5555.91821,0.05894
5557.84668,0.04817
5559.77514,0.07691
5561.70361,0.11092
5563.63208,0.11871
5565.56055,0.11684
5567.48902,0.12548
5569.41749,0.13335
5571.34596,0.13420
5573.27443,0.13079
5575.20289,0.12043
5577.13136,0.10280
5579.05983,0.07936
5580.98830,0.05877
5582.91677,0.05336
5584.84524,0.06304
5586.77371,0.08457
5588.70217,0.11169
5590.63064,0.11345
5592.55911,0.08271
5594.48758,0.06798
5596.41605,0.07724
5598.34452,0.07587
5600.27299,0.08098
5602.20145,0.09773
5604.12992,0.09074
5606.05839,0.07538
5607.98686,0.07822
5609.91533,0.08555
5611.84380,0.09226
5613.77227,0.09420
5615.70074,0.06171
5617.62920,0.01525
5619.55767,0.01945
5621.48614,0.06160
5623.41461,0.08374
5625.34308,0.08925
5627.27155,0.09094
5629.20002,0.08184
5631.12848,0.08279
5633.05695,0.09618
5634.98542,0.10321
5636.91389,0.10304
5638.84236,0.09879
5640.77083,0.08553
5642.69930,0.05764
5644.62777,0.03672
5646.55623,0.05222
5648.48470,0.08708
5650.41317,0.10159
5652.34164,0.08733
5654.27011,0.06257
5656.19858,0.04102
5658.12705,0.03701
5660.05551,0.05250
5661.98398,0.06560
5663.91245,0.06946
5665.84092,0.06776
5667.76939,0.06857
5669.69786,0.09596
5671.62633,0.14062
5673.55480,0.15402
5675.48326,0.12027
5677.41173,0.08835
5679.34020,0.08427
5681.26867,0.06977
5683.19714,0.05303
5685.12561,0.05173
5687.05408,0.04330
5688.98254,0.03666
5690.91101,0.04796
5692.83948,0.07060
5694.76795,0.09785
5696.69642,0.11721
5698.62489,0.11547
5700.55336,0.09580
5702.48183,0.07833
5704.41029,0.07182
5706.33876,0.06238
5708.26723,0.05435
5710.19570,0.05889
5712.12417,0.06107
5714.05264,0.07034
5715.98111,0.09484
5717.90957,0.11089
5719.83804,0.11857
5721.76651,0.11338
5723.69498,0.10009
5725.62345,0.10736
5727.55192,0.11634
5729.48039,0.09541
5731.40886,0.06106
5733.33732,0.03258
5735.26579,0.01499
5737.19426,0.01738
5739.12273,0.03697
5741.05120,0.04877
5742.97967,0.05315
5744.90814,0.06839
5746.83660,0.07568
5748.76507,0.06646
5750.69354,0.06867
5752.62201,0.07376
5754.55048,0.06868
5756.47895,0.08067
5758.40742,0.09866
5760.33588,0.10964
5762.26435,0.13290
5764.19282,0.14371
5766.12129,0.12379
5768.04976,0.10102
5769.97823,0.08224
5771.90670,0.06904
5773.83517,0.07128
5775.76363,0.08122
5777.69210,0.08689
5779.62057,0.09610
5781.54904,0.10759
5783.47751,0.10470
5785.40598,0.09855
5787.33445,0.09123
5789.26291,0.05559
5791.19138,0.01942
5793.11985,0.03209
5795.04832,0.06448
5796.97679,0.07044
5798.90526,0.04804
5800.83373,0.00726
5802.76220,-0.02220
5804.69066,-0.01506
5806.61913,0.01536
5808.54760,0.05649
5810.47607,0.08594
5812.40454,0.08002
5814.33301,0.05605
5816.26148,0.04073
5818.18994,0.04711
5820.11841,0.06740
5822.04688,0.08970
5823.97535,0.11511
5825.90382,0.14774
5827.83229,0.18571
5829.76076,0.18461
5831.68923,0.11293
5833.61769,0.02699
5835.54616,0.01010
5837.47463,0.05631
5839.40310,0.10315
5841.33157,0.12712
5843.26004,0.12519
5845.18851,0.10858
5847.11697,0.10483
5849.04544,0.11014
5850.97391,0.10277
5852.90238,0.08679
5854.83085,0.07842
5856.75932,0.08613
5858.68779,0.10308
5860.61626,0.10346
5862.54472,0.07824
5864.47319,0.06070
5866.40166,0.07516
5868.33013,0.08881
5870.25860,0.08338
5872.18707,0.08959
5874.11554,0.10235
5876.04400,0.09672
5877.97247,0.08714
5879.90094,0.08594
5881.82941,0.08456
5883.75788,0.09152
5885.68635,0.10984
5887.61482,0.11138
5889.54329,0.09511
5891.47175,0.10147
5893.40022,0.12528
5895.32869,0.11019
5897.25716,0.05404
5899.18563,0.02062
5901.11410,0.04484
5903.04257,0.10127
5904.97103,0.13709
5906.89950,0.12127
5908.82797,0.08016
5910.75644,0.06533
5912.68491,0.07339
5914.61338,0.09250
5916.54185,0.09887
5918.47032,0.06785
5920.39878,0.05916
5922.32725,0.09610
5924.25572,0.12791
5926.18419,0.13841
5928.11266,0.13064
5930.04113,0.09340
5931.96960,0.05646
5933.89806,0.07274
5935.82653,0.10204
5937.75500,0.08412
5939.68347,0.05033
5941.61194,0.04243
5943.54041,0.05897
5945.46888,0.06859
5947.39734,0.07001
5949.32581,0.09467
5951.25428,0.10944
5953.18275,0.08810
5955.11122,0.07470
5957.03969,0.05793
5958.96816,0.03794
5960.89663,0.06136
5962.82509,0.09406
5964.75356,0.08140
5966.68203,0.05022
5968.61050,0.05900
5970.53897,0.07614
5972.46744,0.03373
5974.39591,-0.02134
5976.32437,0.00089
5978.25284,0.07556
5980.18131,0.13399
5982.10978,0.17419
5984.03825,0.19277
5985.96672,0.15130
5987.89519,0.08256
5989.82366,0.06810
5991.75212,0.11038
5993.68059,0.15736
5995.60906,0.17402
5997.53753,0.14647
5999.46600,0.09938
6001.39447,0.07389
6003.32294,0.04757
6005.25140,0.00575
6007.17987,0.02504
6009.10834,0.09922
6011.03681,0.14051
6012.96528,0.12369
6014.89375,0.08384
6016.82222,0.07198
6018.75069,0.09384
6020.67915,0.11527
6022.60762,0.11368
6024.53609,0.09640
6026.46456,0.08662
6028.39303,0.07692
6030.32150,0.07879
6032.24997,0.10748
6034.17843,0.12739
6036.10690,0.10841
6038.03537,0.06192
6039.96384,0.05805
6041.89231,0.11067
6043.82078,0.14360
6045.74925,0.15803
6047.67772,0.19202
6049.60618,0.21068
6051.53465,0.17796
6053.46312,0.11660
6055.39159,0.06883
6057.32006,0.05417
6059.24853,0.06374
6061.17700,0.05685
6063.10546,0.01456
6065.03393,0.00963
6066.96240,0.07374
6068.89087,0.12480
6070.81934,0.10898
6072.74781,0.08224
6074.67628,0.10149
6076.60475,0.11530
6078.53321,0.05155
6080.46168,-0.03932
6082.39015,-0.06018
6084.31862,-0.00689
6086.24709,0.05964
6088.17556,0.08121
6090.10403,0.04562
6092.03249,0.02108
6093.96096,0.06477
6095.88943,0.10814
6097.81790,0.09031
6099.74637,0.05351
6101.67484,0.03144
6103.60331,0.01289
6105.53177,0.01005
6107.46024,0.02819
6109.38871,0.03230
6111.31718,0.01670
6113.24565,0.02292
6115.17412,0.05642
6117.10259,0.06302
6119.03106,0.02300
6120.95952,0.00219
6122.88799,0.05367
6124.81646,0.14109
6126.74493,0.20234
6128.67340,0.20046
6130.60187,0.13026
6132.53034,0.06970
6134.45880,0.06412
6136.38727,0.09858
6138.31574,0.16468
6140.24421,0.20670
6142.17268,0.19822
6144.10115,0.17876
6146.02962,0.15190
6147.95809,0.13295
6149.88655,0.15457
6151.81502,0.18066
6153.74349,0.17213
6155.67196,0.14761
6157.60043,0.10906
6159.52890,0.07543
6161.45737,0.06214
6163.38583,0.01998
6165.31430,-0.02821
6167.24277,0.00861
6169.17124,0.08185
6171.09971,0.07981
6173.02818,0.04859
6174.95665,0.06932
6176.88512,0.07316
6178.81358,0.03230
6180.74205,0.01915
6182.67052,0.05074
6184.59899,0.08907
6186.52746,0.08924
6188.45593,0.04584
6190.38440,0.01361
6192.31286,0.02630
6194.24133,0.05905
6196.16980,0.06899
6198.09827,0.06689
6200.02674,0.06554
6201.95521,0.05724
6203.88368,0.05308
6205.81215,0.04747
6207.74061,0.04444
6209.66908,0.08141
6211.59755,0.13887
6213.52602,0.12406
6215.45449,0.04219
6217.38296,-0.00503
6219.31143,0.01234
6221.23989,0.04327
6223.16836,0.05942
6225.09683,0.07171
6227.02530,0.09751
6228.95377,0.11647
6230.88224,0.10021
6232.81071,0.07196
6234.73918,0.05311
6236.66764,0.03502
6238.59611,0.04553
6240.52458,0.11050
6242.45305,0.17843
6244.38152,0.16996
6246.30999,0.11339
6248.23846,0.09304
6250.16692,0.10128
6252.09539,0.09893
6254.02386,0.09736
6255.95233,0.11595
6257.88080,0.14789
6259.80927,0.13134
6261.73774,0.03827
6263.66621,-0.04998
6265.59467,-0.05139
6267.52314,0.03420
6269.45161,0.12402
6271.38008,0.13060
6273.30855,0.06117
6275.23702,0.01724
6277.16549,0.05070
6279.09395,0.06976
6281.02242,0.02316
6282.95089,-0.01136
6284.87936,0.02855
6286.80783,0.08270
6288.73630,0.08801
6290.66477,0.08843
6292.59323,0.11818
6294.52170,0.14017
6296.45017,0.13124
6298.37864,0.09615
6300.30711,0.07236
6302.23558,0.08663
6304.16405,0.11114
6306.09252,0.11213
6308.02098,0.08423
6309.94945,0.06884
6311.87792,0.07516
6313.80639,0.05474
6315.73486,0.00734
6317.66333,-0.05176
6319.59180,-0.08844
6321.52026,-0.05104
6323.44873,0.01396
6325.37720,0.04392
6327.30567,0.03461
6329.23414,-0.00393
6331.16261,0.00115
6333.09108,0.08987
6335.01955,0.14568
6336.94801,0.11035
6338.87648,0.09246
6340.80495,0.09847
6342.73342,0.07326
6344.66189,0.08818
6346.59036,0.13098
6348.51883,0.08149
6350.44729,-0.02028
6352.37576,-0.03487
6354.30423,0.03843
6356.23270,0.10163
6358.16117,0.11286
6360.08964,0.11504
6362.01811,0.13845
6363.94658,0.15035
6365.87504,0.15559
6367.80351,0.17747
6369.73198,0.18175
6371.66045,0.15989
6373.58892,0.14526
6375.51739,0.14537
6377.44586,0.12979
6379.37432,0.10708
6381.30279,0.11325
6383.23126,0.12826
6385.15973,0.10694
6387.08820,0.06131
6389.01667,0.05428
6390.94514,0.12223
6392.87361,0.17192
6394.80207,0.08873
6396.73054,-0.01379
6398.65901,0.00425
6400.58748,0.09699
6402.51595,0.14292
6404.44442,0.11801
6406.37289,0.06874
6408.30135,0.04209
6410.22982,0.05602
6412.15829,0.08525
6414.08676,0.09436
6416.01523,0.09085
6417.94370,0.08448
6419.87217,0.09210
6421.80064,0.13217
6423.72910,0.15585
6425.65757,0.16578
6427.58604,0.19430
6429.51451,0.16432
6431.44298,0.08173
6433.37145,0.05268
6435.29992,0.04889
6437.22838,0.04617
6439.15685,0.10151
6441.08532,0.17181
6443.01379,0.15945
6444.94226,0.11193
6446.87073,0.11524
6448.79920,0.10423
6450.72766,0.03674
6452.65613,-0.02347
6454.58460,-0.02856
6456.51307,0.00876
6458.44154,0.06422
6460.37001,0.11322
6462.29848,0.12365
6464.22695,0.13276
6466.15541,0.16617
6468.08388,0.14064
6470.01235,0.05274
6471.94082,0.01843
6473.86929,0.02658
6475.79776,-0.00124
6477.72623,-0.01241
6479.65469,0.01020
6481.58316,-0.00273
6483.51163,-0.01348
6485.44010,0.00788
6487.36857,0.01437
6489.29704,0.02169
6491.22551,0.05797
6493.15398,0.07694
6495.08244,0.04110
6497.01091,-0.04427
6498.93938,-0.09015
6500.86785,0.00120
6502.79632,0.10258
6504.72479,0.08156
6506.65326,0.04015
6508.58172,0.05508
6510.51019,0.08678
6512.43866,0.12623
6514.36713,0.19111
6516.29560,0.24110
6518.22407,0.21480
6520.15254,0.15101
6522.08101,0.14213
6524.00947,0.16508
6525.93794,0.13662
6527.86641,0.09238
6529.79488,0.07335
6531.72335,0.02207
6533.65182,-0.02293
6535.58029,0.04092
6537.50875,0.13866
6539.43722,0.17804
6541.36569,0.17548
6543.29416,0.15363
6545.22263,0.15092
6547.15110,0.15950
6549.07957,0.12806
6551.00804,0.06654
6552.93650,0.01855
6554.86497,-0.00994
6556.79344,0.01575
6558.72191,0.10442
6560.65038,0.16425
6562.57885,0.16651
6564.50732,0.18092
6566.43578,0.20156
6568.36425,0.17951
6570.29272,0.14265
6572.22119,0.12958
6574.14966,0.12105
6576.07813,0.07322
6578.00660,-0.02991
6579.93507,-0.11081
6581.86353,-0.05712
6583.79200,0.06184
6585.72047,0.06286
6587.64894,-0.02571
6589.57741,-0.04948
6591.50588,0.03544
6593.43435,0.14666
6595.36281,0.14915
6597.29128,0.05828
6599.21975,0.02146
6601.14822,0.06640
6603.07669,0.10783
6605.00516,0.11841
6606.93363,0.09011
6608.86210,0.05187
6610.79056,0.05980
6612.71903,0.06635
6614.64750,0.00224
6616.57597,-0.03196
6618.50444,0.04484
6620.43291,0.10918
6622.36138,0.11034
6624.28984,0.09464
6626.21831,0.07606
6628.14678,0.06428
6630.07525,0.07014
6632.00372,0.07085
6633.93219,0.06117
6635.86066,0.06225
6637.78912,0.04765
6639.71759,0.00314
6641.64606,-0.05112
6643.57453,-0.08805
6645.50300,-0.04137
6647.43147,0.06243
6649.35994,0.10715
6651.28841,0.11348
6653.21687,0.15237
6655.14534,0.19153
6657.07381,0.19188
6659.00228,0.17848
6660.93075,0.14375
6662.85922,0.11788
6664.78769,0.12166
6666.71615,0.11833
6668.64462,0.13934
6670.57309,0.17209
6672.50156,0.13897
6674.43003,0.10626
6676.35850,0.11783
6678.28697,0.09516
6680.21544,0.06037
6682.14390,0.06446
6684.07237,0.05990
6686.00084,0.04711
6687.92931,0.07082
6689.85778,0.07242
6691.78625,0.04336
6693.71472,0.03264
6695.64318,-0.00445
6697.57165,-0.06584
6699.50012,-0.06564
6701.42859,-0.01461
6703.35706,0.02748
6705.28553,0.02981
6707.21400,-0.00165
6709.14247,0.00240
6711.07093,0.04700
6712.99940,0.08260
6714.92787,0.11913
6716.85634,0.14456
6718.78481,0.13796
6720.71328,0.10376
6722.64175,0.05272
6724.57021,0.02478
6726.49868,0.01694
6728.42715,0.03031
6730.35562,0.02894
6732.28409,-0.01994
6734.21256,-0.01064
6736.14103,0.07657
6738.06950,0.15630
6739.99796,0.18246
6741.92643,0.15035
6743.85490,0.11039
6745.78337,0.04330
6747.71184,-0.05133
6749.64031,-0.09711
6751.56878,-0.10658
6753.49724,-0.09624
6755.42571,-0.01229
6757.35418,0.09324
6759.28265,0.12929
6761.21112,0.12471
6763.13959,0.12644
6765.06806,0.10116
6766.99653,0.02465
6768.92499,-0.06944
6770.85346,-0.11618
6772.78193,-0.08729
6774.71040,0.01766
6776.63887,0.12703
6778.56734,0.11974
6780.49581,0.03712
6782.42427,-0.00898
6784.35274,-0.04006
6786.28121,-0.10013
6788.20968,-0.10764
6790.13815,-0.05321
6792.06662,0.01824
6793.99509,0.11110
6795.92355,0.17780
6797.85202,0.20988
6799.78049,0.21209
6801.70896,0.12890
6803.63743,0.01764
6805.56590,-0.00790
6807.49437,0.01099
6809.42284,0.03608
6811.35130,0.06937
6813.27977,0.02239
6815.20824,-0.05624
6817.13671,0.00929
6819.06518,0.12503
6820.99365,0.13383
6822.92212,0.07655
6824.85058,0.02413
6826.77905,0.00518
6828.70752,0.00165
6830.63599,-0.03772
6832.56446,-0.05594
6834.49293,-0.01730
6836.42140,0.03956
6838.34987,0.07964
6840.27833,0.08476
6842.20680,0.04669
6844.13527,-0.02547
6846.06374,-0.03745
6847.99221,0.02802
6849.92068,0.03760
6851.84915,0.02514
6853.77761,0.08279
6855.70608,0.15859
6857.63455,0.17894
6859.56302,0.15585
6861.49149,0.12565
6863.41996,0.10932
6865.34843,0.05422
6867.27690,-0.07431
6869.20536,-0.13459
6871.13383,-0.02437
6873.06230,0.09839
6874.99077,0.04222
6876.91924,-0.07066
6878.84771,-0.10171
6880.77618,-0.05822
6882.70464,-0.00515
6884.63311,0.01941
6886.56158,0.00496
6888.49005,-0.04017
6890.41852,-0.07900
6892.34699,-0.01210
6894.27546,0.17071
6896.20393,0.30003
6898.13239,0.24593
6900.06086,0.09657
6901.98933,0.00228
6903.91780,-0.02574
6905.84627,-0.01707
6907.77474,0.08290
6909.70321,0.19111
6911.63167,0.17229
6913.56014,0.11824
6915.48861,0.14010
6917.41708,0.16529
6919.34555,0.09588
6921.27402,0.00864
6923.20249,0.02893
6925.13096,0.06696
6927.05942,0.03730
6928.98789,-0.02807
6930.91636,-0.09665
6932.84483,-0.12988
6934.77330,-0.10480
6936.70177,-0.02856
6938.63024,0.06487
6940.55870,0.08756
6942.48717,0.08469
6944.41564,0.13397
6946.34411,0.15050
6948.27258,0.09485
6950.20105,0.05250
6952.12952,0.09009
6954.05799,0.17468
6955.98645,0.19405
6957.91492,0.16906
6959.84339,0.14909
6961.77186,0.08529
6963.70033,0.00140
6965.62880,-0.03931
6967.55727,-0.01259
6969.48573,0.02643
6971.41420,-0.01128
6973.34267,-0.09944
6975.27114,-0.06018
6977.19961,0.11040
6979.12808,0.17383
6981.05655,0.07688
6982.98501,-0.04792
6984.91348,-0.02177
6986.84195,0.17026
6988.77042,0.28425
6990.69889,0.24667
6992.62736,0.24040
6994.55583,0.21597
6996.48430,0.01880
6998.41276,-0.17664
7000.34123,-0.14269
7002.26970,-0.03233
7004.19817,0.00359
7006.12664,-0.00813
7008.05511,-0.00644
7009.98358,-0.00205
7011.91204,-0.06593
7013.84051,-0.06678
7015.76898,0.13690
7017.69745,0.33102
7019.62592,0.35522
7021.55439,0.25263
7023.48286,0.13360
7025.41133,0.07165
7027.33979,0.02664
7029.26826,-0.00861
7031.19673,-0.03233
7033.12520,-0.04854
7035.05367,-0.00131
7036.98214,0.08088
7038.91061,0.15246
7040.83907,0.22169
7042.76754,0.20976
7044.69601,0.09456
7046.62448,0.06973
7048.55295,0.17157
7050.48142,0.20516
7052.40989,0.10803
7054.33836,0.05709
7056.26682,0.15532
7058.19529,0.19626
7060.12376,0.09066
7062.05223,-0.02891
7063.98070,-0.09714
7065.90917,-0.06717
7067.83764,0.02777
7069.76610,0.09309
7071.69457,0.06625
7073.62304,-0.01751
7075.55151,-0.10830
7077.47998,-0.16885
7079.40845,-0.15400
7081.33692,-0.06160
7083.26539,-0.04937
7085.19385,-0.13426
7087.12232,-0.14091
7089.05079,-0.06719
7090.97926,-0.03837
7092.90773,-0.00895
7094.83620,0.04812
7096.76467,0.05564
7098.69313,0.00077
7100.62160,-0.01745
7102.55007,-0.00297
7104.47854,-0.05562
7106.40701,-0.11437
7108.33548,-0.03977
7110.26395,0.04286
7112.19242,0.01382
7114.12088,-0.00630
7116.04935,0.11071
7117.97782,0.28811
7119.90629,0.36181
7121.83476,0.35677
7123.76323,0.28337
7125.69170,0.14833
7127.62016,0.06211
7129.54863,0.09783
7131.47710,0.17119
7133.40557,0.15331
7135.33404,0.12863
7137.26251,0.20467
7139.19098,0.25466
7141.11944,0.18909
7143.04791,0.07556
7144.97638,-0.05274
7146.90485,-0.11051
7148.83332,-0.00725
7150.76179,0.19383
7152.69026,0.30233
7154.61873,0.17798
7156.54719,0.05436
7158.47566,0.10641
7160.40413,0.16860
7162.33260,0.11537
7164.26107,0.05918
7166.18954,0.08654
7168.11801,0.10064
7170.04647,-0.04201
7171.97494,-0.25575
7173.90341,-0.30582
7175.83188,-0.19482
7177.76035,-0.05465
7179.68882,0.06076
7181.61729,0.10322
7183.54576,0.02421
7185.47422,-0.02184
7187.40269,0.03162
7189.33116,0.07636
7191.25963,0.08449
7193.18810,0.08841
7195.11657,0.10247
7197.04504,0.09688
7198.97350,-0.01390
7200.90197,-0.15051
7202.83044,-0.13140
7204.75891,0.05297
7206.68738,0.14941
7208.61585,0.12303
7210.54432,0.09035
7212.47279,0.03847
7214.40125,-0.07062
7216.32972,-0.11945
7218.25819,0.02709
7220.18666,0.16232
7222.11513,0.15101
7224.04360,0.10151
7225.97207,0.14780
7227.90053,0.27032
7229.82900,0.30466
7231.75747,0.24388
7233.68594,0.22382
7235.61441,0.25040
7237.54288,0.23911
7239.47135,0.06516
7241.39982,-0.21548
7243.32828,-0.23638
7245.25675,0.00861
7247.18522,0.07880
7249.11369,-0.08242
7251.04216,-0.25085
7252.97063,-0.17427
7254.89910,0.02926
7256.82756,0.10715
7258.75603,0.11479
7260.68450,0.09312
7262.61297,0.05135
7264.54144,-0.00971
7266.46991,-0.06632
7268.39838,-0.01541
7270.32685,0.17085
7272.25531,0.28132
7274.18378,0.09412
7276.11225,-0.09989
7278.04072,-0.11743
7279.96919,-0.01886
7281.89766,0.08985
7283.82613,0.18803
7285.75459,0.25122
7287.68306,0.20559
7289.61153,0.05965
7291.54000,-0.04749
7293.46847,0.03956
7295.39694,0.24458
7297.32541,0.34199
7299.25387,0.31798
7301.18234,0.27050
7303.11081,0.22128
7305.03928,0.15771
7306.96775,0.12235
7308.89622,0.18477
7310.82469,0.25003
7312.75316,0.21065
7314.68162,0.09858
7316.61009,0.08366
7318.53856,0.18507
7320.46703,0.19887
7322.39550,0.14762
7324.32397,0.09813
7326.25244,0.06256
7328.18090,0.02190
7330.10937,-0.02876
7332.03784,-0.06685
7333.96631,-0.12211
7335.89478,-0.10609
7337.82325,0.06794
7339.75172,0.22111
7341.68019,0.09992
7343.60865,0.03404
7345.53712,0.04950
7347.46559,-0.04500
7349.39406,-0.16014
7351.32253,-0.13170
7353.25100,-0.08085
7355.17947,-0.18176
7357.10793,-0.25666
7359.03640,0.05797
7360.96487,0.43546
7362.89334,0.43597
7364.82181,0.31568
7366.75028,0.27392
7368.67875,0.26869
7370.60722,0.28351
7372.53568,0.31079
7374.46415,0.36035
7376.39262,0.33218
7378.32109,0.19560
7380.24956,0.08679
7382.17803,0.01555
7384.10650,-0.05108
7386.03496,-0.01942
7387.96343,0.07865
7389.89190,0.09305
7391.82037,0.05519
7393.74884,0.02214
7395.67731,0.00480
7397.60578,-0.03378
7399.53425,-0.06263
7401.46271,0.03270
7403.39118,0.19407
7405.31965,0.20660
7407.24812,0.10138
7409.17659,0.05112
7411.10506,0.05519
7413.03353,0.00320
7414.96199,-0.07953
7416.89046,-0.02457
7418.81893,0.13207
7420.74740,-0.00829
7422.67587,-0.23284
7424.60434,-0.14684
7426.53281,0.10720
7428.46128,0.23729
7430.38974,0.11985
7432.31821,-0.01605
7434.24668,0.00607
7436.17515,0.04945
7438.10362,0.03233
7440.03209,-0.00436
7441.96056,-0.03721
7443.88902,-0.05280
7445.81749,-0.05660
7447.74596,-0.06491
7449.67443,-0.13956
7451.60290,-0.21660
7453.53137,-0.10665
7455.45984,0.02185
7457.38831,-0.02194
7459.31677,-0.17188
7461.24524,-0.18165
7463.17371,0.05973
7465.10218,0.34523
7467.03065,0.33288
7468.95912,0.17122
7470.88759,0.20253
7472.81605,0.29489
7474.74452,0.26755
7476.67299,0.22699
7478.60146,0.23190
7480.52993,0.26654
7482.45840,0.17013
7484.38687,-0.02153
7486.31533,-0.04732
7488.24380,0.02947
7490.17227,-0.01667
7492.10074,-0.09267
7494.02921,-0.03008
7495.95768,0.16467
7497.88615,0.40120
