399.19301,0.55865
401.12148,0.04167
403.04995,0.26138
404.97842,0.30302
406.90689,0.18806
408.83536,0.01061
410.76382,-0.07642
412.69229,-0.01338
414.62076,0.08961
416.54923,0.09688
418.47770,0.03523
420.40617,0.06621
422.33464,0.16767
424.26311,0.20544
426.19157,0.11551
428.12004,0.06852
430.04851,0.14327
431.97698,0.17258
433.90545,0.13422
435.83392,0.15387
437.76239,0.19899
439.69085,0.18964
441.61932,0.16110
443.54779,0.20780
445.47626,0.20063
447.40473,0.07116
449.33320,0.01753
451.26167,0.11583
453.19013,0.24121
455.11860,0.27735
457.04707,0.20450
458.97554,0.13202
460.90401,0.16594
462.83248,0.24591
464.76095,0.26477
466.68942,0.20214
468.61788,0.09971
470.54635,0.01198
472.47482,0.00508
474.40329,0.11041
476.33176,0.21623
478.26023,0.23931
480.18870,0.17872
482.11716,0.09405
484.04563,0.05292
485.97410,0.03966
487.90257,0.05172
489.83104,0.08511
491.75951,0.09709
493.68798,0.06522
495.61645,0.04130
497.54491,0.08200
499.47338,0.13103
501.40185,0.14576
503.33032,0.14968
505.25879,0.13266
507.18726,0.07377
509.11573,0.03824
511.04419,0.06603
512.97266,0.10641
514.90113,0.12745
516.82960,0.12332
518.75807,0.09929
520.68654,0.06663
522.61501,0.03875
524.54348,0.03663
526.47194,0.05642
528.40041,0.07946
530.32888,0.09845
532.25735,0.12965
534.18582,0.16860
536.11429,0.16121
538.04276,0.12717
539.97122,0.12846
541.89969,0.13279
543.82816,0.12210
545.75663,0.12666
547.68510,0.13905
549.61357,0.13562
551.54204,0.10711
553.47051,0.07941
555.39897,0.07731
557.32744,0.08288
559.25591,0.09039
561.18438,0.10880
563.11285,0.10625
565.04132,0.09411
566.96979,0.14547
568.89825,0.22190
570.82672,0.22493
572.75519,0.16903
574.68366,0.11564
576.61213,0.09740
578.54060,0.11313
580.46907,0.13755
582.39754,0.15408
584.32600,0.15830
586.25447,0.14247
588.18294,0.10354
590.11141,0.06704
592.03988,0.07545
593.96835,0.11642
595.89682,0.14746
597.82528,0.16432
599.75375,0.16547
601.68222,0.14441
603.61069,0.11348
605.53916,0.08870
607.46763,0.07911
609.39610,0.09228
611.32456,0.10872
613.25303,0.10806
615.18150,0.10750
617.10997,0.10988
619.03844,0.10444
620.96691,0.09788
622.89538,0.08618
624.82385,0.07401
626.75231,0.07436
628.68078,0.08298
630.60925,0.10639
632.53772,0.14940
634.46619,0.17742
636.39466,0.17027
638.32313,0.15189
640.25159,0.14204
642.18006,0.14336
644.10853,0.14760
646.03700,0.13837
647.96547,0.12292
649.89394,0.12552
651.82241,0.13536
653.75088,0.13200
655.67934,0.11715
657.60781,0.09853
659.53628,0.09273
661.46475,0.10581
663.39322,0.12263
665.32169,0.13050
667.25016,0.12058
669.17862,0.11561
671.10709,0.13325
673.03556,0.13262
674.96403,0.11444
676.89250,0.10647
678.82097,0.11271
680.74944,0.11367
682.67791,0.10401
684.60637,0.09952
686.53484,0.11707
688.46331,0.15100
690.39178,0.16598
692.32025,0.15375
694.24872,0.15055
696.17719,0.15980
698.10565,0.15079
700.03412,0.13956
701.96259,0.15124
703.89106,0.15839
705.81953,0.14481
707.74800,0.13553
709.67647,0.14780
711.60494,0.16547
713.53340,0.16400
715.46187,0.15418
717.39034,0.15183
719.31881,0.15009
721.24728,0.14252
723.17575,0.12737
725.10422,0.11772
727.03268,0.12411
728.96115,0.12872
730.88962,0.12143
732.81809,0.11365
734.74656,0.10970
736.67503,0.11442
738.60350,0.12871
740.53197,0.13469
742.46043,0.12729
744.38890,0.12220
746.31737,0.12058
748.24584,0.11609
750.17431,0.12195
752.10278,0.13933
754.03125,0.14263
755.95971,0.12711
757.88818,0.11481
759.81665,0.11806
761.74512,0.13192
763.67359,0.13994
765.60206,0.13918
767.53053,0.14198
769.45900,0.14064
771.38746,0.13279
773.31593,0.13073
775.24440,0.12863
777.17287,0.12050
779.10134,0.11672
781.02981,0.12265
782.95828,0.13005
784.88674,0.13606
786.81521,0.13950
788.74368,0.13524
790.67215,0.12975
792.60062,0.12895
794.52909,0.13214
796.45756,0.13612
798.38602,0.13369
800.31449,0.13099
802.24296,0.13847
804.17143,0.14286
806.09990,0.13561
808.02837,0.13291
809.95684,0.13522
811.88531,0.12793
813.81377,0.12351
815.74224,0.12893
817.67071,0.12558
819.59918,0.11830
821.52765,0.12470
823.45612,0.14079
825.38459,0.14944
827.31305,0.14662
829.24152,0.14598
831.16999,0.14799
833.09846,0.14449
835.02693,0.13882
836.95540,0.13157
838.88387,0.12615
840.81234,0.13136
842.74080,0.13633
844.66927,0.13535
846.59774,0.13835
848.52621,0.14317
850.45468,0.14792
852.38315,0.15624
854.31162,0.16238
856.24008,0.15755
858.16855,0.14833
860.09702,0.14664
862.02549,0.15266
863.95396,0.15795
865.88243,0.18370
867.81090,0.27423
869.73937,0.35978
871.66783,0.32055
873.59630,0.21376
875.52477,0.15859
877.45324,0.14928
879.38171,0.14031
881.31018,0.13117
883.23865,0.13130
885.16711,0.13436
887.09558,0.13006
889.02405,0.12647
890.95252,0.13572
892.88099,0.14892
894.80946,0.15488
896.73793,0.15307
898.66640,0.15061
900.59486,0.14674
902.52333,0.13352
904.45180,0.12450
906.38027,0.12867
908.30874,0.12976
910.23721,0.12237
912.16568,0.12135
914.09414,0.13248
916.02261,0.14347
917.95108,0.14714
919.87955,0.14720
921.80802,0.14914
923.73649,0.15554
925.66496,0.15857
927.59343,0.14928
929.52189,0.13723
931.45036,0.13432
933.37883,0.13485
935.30730,0.13395
937.23577,0.13353
939.16424,0.13255
941.09271,0.13157
943.02117,0.13212
944.94964,0.13134
946.87811,0.13086
948.80658,0.13567
950.73505,0.14101
952.66352,0.14172
954.59199,0.14290
956.52045,0.14874
958.44892,0.15313
960.37739,0.15309
962.30586,0.15318
964.23433,0.15250
966.16280,0.14801
968.09127,0.14197
970.01974,0.13659
971.94820,0.13596
973.87667,0.14121
975.80514,0.14400
977.73361,0.14568
979.66208,0.15060
981.59055,0.15040
983.51902,0.14326
985.44748,0.13714
987.37595,0.13816
989.30442,0.14769
991.23289,0.15897
993.16136,0.15934
995.08983,0.14826
997.01830,0.13914
998.94677,0.14002
1000.87523,0.14859
1002.80370,0.15630
1004.73217,0.15894
1006.66064,0.16070
1008.58911,0.16518
1010.51758,0.16412
1012.44605,0.14896
1014.37451,0.13380
1016.30298,0.13320
1018.23145,0.13806
1020.15992,0.13930
1022.08839,0.14346
1024.01686,0.15032
1025.94533,0.16003
1027.87380,0.17084
1029.80226,0.16327
1031.73073,0.14614
1033.65920,0.14256
1035.58767,0.14579
1037.51614,0.15042
1039.44461,0.16092
1041.37308,0.17060
1043.30154,0.17304
1045.23001,0.17331
1047.15848,0.17136
1049.08695,0.16589
1051.01542,0.16206
1052.94389,0.16312
1054.87236,0.16835
1056.80083,0.17485
1058.72929,0.17894
1060.65776,0.17349
1062.58623,0.16118
1064.51470,0.15330
1066.44317,0.15453
1068.37164,0.15973
1070.30011,0.16245
1072.22857,0.16501
1074.15704,0.16203
1076.08551,0.15105
1078.01398,0.14695
1079.94245,0.15518
1081.87092,0.16539
1083.79939,0.16735
1085.72786,0.16252
1087.65632,0.16171
1089.58479,0.16267
1091.51326,0.15503
1093.44173,0.14944
1095.37020,0.15661
1097.29867,0.16647
1099.22714,0.16974
1101.15560,0.16194
1103.08407,0.14641
1105.01254,0.14235
1106.94101,0.15534
1108.86948,0.16106
1110.79795,0.15022
1112.72642,0.14262
1114.65489,0.14282
1116.58335,0.14255
1118.51182,0.14589
1120.44029,0.15294
1122.36876,0.15517
1124.29723,0.15721
1126.22570,0.16507
1128.15417,0.16986
1130.08263,0.16688
1132.01110,0.16103
1133.93957,0.15415
1135.86804,0.14754
1137.79651,0.14688
1139.72498,0.15207
1141.65345,0.15458
1143.58191,0.15621
1145.51038,0.16254
1147.43885,0.16397
1149.36732,0.16138
1151.29579,0.16808
1153.22426,0.17672
1155.15273,0.17636
1157.08120,0.17253
1159.00966,0.17040
1160.93813,0.16884
1162.86660,0.16943
1164.79507,0.17335
1166.72354,0.17522
1168.65201,0.17249
1170.58048,0.16961
1172.50894,0.16773
1174.43741,0.16877
1176.36588,0.17765
1178.29435,0.18441
1180.22282,0.17702
1182.15129,0.16478
1184.07976,0.15815
1186.00823,0.15659
1187.93669,0.15864
1189.86516,0.16174
1191.79363,0.16540
1193.72210,0.17103
1195.65057,0.17512
1197.57904,0.17389
1199.50751,0.17137
1201.43597,0.17283
1203.36444,0.17291
1205.29291,0.16601
1207.22138,0.16138
1209.14985,0.16606
1211.07832,0.17039
1213.00679,0.16772
1214.93526,0.16478
1216.86372,0.16643
1218.79219,0.16795
1220.72066,0.16474
1222.64913,0.16161
1224.57760,0.16531
1226.50607,0.17254
1228.43454,0.17604
1230.36300,0.17394
1232.29147,0.16710
1234.21994,0.16223
1236.14841,0.16558
1238.07688,0.16846
1240.00535,0.16399
1241.93382,0.16010
1243.86229,0.16028
1245.79075,0.15986
1247.71922,0.15872
1249.64769,0.15977
1251.57616,0.16299
1253.50463,0.16527
1255.43310,0.16688
1257.36157,0.17121
1259.29003,0.17629
1261.21850,0.17849
1263.14697,0.17769
1265.07544,0.17668
1267.00391,0.17849
1268.93238,0.18197
1270.86085,0.18348
1272.78932,0.18020
1274.71778,0.17535
1276.64625,0.17533
1278.57472,0.17855
1280.50319,0.17887
1282.43166,0.17720
1284.36013,0.17673
1286.28860,0.17421
1288.21706,0.16857
1290.14553,0.16554
1292.07400,0.16855
1294.00247,0.17226
1295.93094,0.17189
1297.85941,0.17062
1299.78788,0.16710
1301.71634,0.15955
1303.64481,0.15637
1305.57328,0.16214
1307.50175,0.17165
1309.43022,0.17855
1311.35869,0.18091
1313.28716,0.17896
1315.21563,0.17301
1317.14409,0.16937
1319.07256,0.17133
1321.00103,0.17130
1322.92950,0.16742
1324.85797,0.16373
1326.78644,0.16288
1328.71491,0.16714
1330.64337,0.17263
1332.57184,0.17544
1334.50031,0.17769
1336.42878,0.18109
1338.35725,0.18252
1340.28572,0.17692
1342.21419,0.17236
1344.14266,0.17337
1346.07112,0.17099
1347.99959,0.16863
1349.92806,0.17349
1351.85653,0.17731
1353.78500,0.17538
1355.71347,0.17230
1357.64194,0.17237
1359.57040,0.17693
1361.49887,0.18179
1363.42734,0.18207
1365.35581,0.18068
1367.28428,0.17979
1369.21275,0.17672
1371.14122,0.17486
1373.06969,0.17759
1374.99815,0.17793
1376.92662,0.17486
1378.85509,0.17541
1380.78356,0.17720
1382.71203,0.17447
1384.64050,0.17103
1386.56897,0.17439
1388.49743,0.18097
1390.42590,0.18465
1392.35437,0.18707
1394.28284,0.18750
1396.21131,0.18698
1398.13978,0.18785
1400.06825,0.18539
1401.99672,0.18232
1403.92518,0.18596
1405.85365,0.19071
1407.78212,0.18754
1409.71059,0.18016
1411.63906,0.17509
1413.56753,0.17649
1415.49600,0.18348
1417.42446,0.19262
1419.35293,0.19770
1421.28140,0.19488
1423.20987,0.18911
1425.13834,0.18267
1427.06681,0.18016
1428.99528,0.18211
1430.92375,0.18344
1432.85221,0.18583
1434.78068,0.19183
1436.70915,0.19310
1438.63762,0.18518
1440.56609,0.17854
1442.49456,0.17740
1444.42303,0.18177
1446.35149,0.18769
1448.27996,0.19018
1450.20843,0.19032
1452.13690,0.19258
1454.06537,0.19883
1455.99384,0.21342
1457.92231,0.22478
1459.85077,0.20991
1461.77924,0.19710
1463.70771,0.19658
1465.63618,0.19459
1467.56465,0.18762
1469.49312,0.19044
1471.42159,0.20614
1473.35006,0.21723
1475.27852,0.20947
1477.20699,0.20032
1479.13546,0.19747
1481.06393,0.19753
1482.99240,0.19597
1484.92087,0.19498
1486.84934,0.20032
1488.77780,0.20965
1490.70627,0.20648
1492.63474,0.19484
1494.56321,0.19404
1496.49168,0.20590
1498.42015,0.21055
1500.34862,0.20394
1502.27709,0.20175
1504.20555,0.20838
1506.13402,0.22716
1508.06249,0.23740
1509.99096,0.22332
1511.91943,0.21263
1513.84790,0.21520
1515.77637,0.22626
1517.70483,0.23231
1519.63330,0.23470
1521.56177,0.23526
1523.49024,0.22469
1525.41871,0.21541
1527.34718,0.20937
1529.27565,0.20424
1531.20412,0.20613
1533.13258,0.21304
1535.06105,0.21601
1536.98952,0.22169
1538.91799,0.23934
1540.84646,0.25088
1542.77493,0.23475
1544.70340,0.21613
1546.63186,0.20518
1548.56033,0.20532
1550.48880,0.20844
1552.41727,0.20482
1554.34574,0.20241
1556.27421,0.21468
1558.20268,0.24235
1560.13115,0.23643
1562.05961,0.21254
1563.98808,0.20074
1565.91655,0.19726
1567.84502,0.20365
1569.77349,0.21042
1571.70196,0.20368
1573.63043,0.19702
1575.55889,0.19692
1577.48736,0.19420
1579.41583,0.18661
1581.34430,0.17925
1583.27277,0.17638
1585.20124,0.18023
1587.12971,0.18616
1589.05818,0.18844
1590.98664,0.18667
1592.91511,0.18571
1594.84358,0.18691
1596.77205,0.18620
1598.70052,0.18417
1600.62899,0.18378
1602.55746,0.18316
1604.48592,0.18153
1606.41439,0.18256
1608.34286,0.18520
1610.27133,0.18362
1612.19980,0.18033
1614.12827,0.18374
1616.05674,0.19555
1617.98521,0.20162
1619.91367,0.20082
1621.84214,0.20474
1623.77061,0.20687
1625.69908,0.20182
1627.62755,0.19607
1629.55602,0.19171
1631.48449,0.19433
1633.41295,0.20992
1635.34142,0.23284
1637.26989,0.22855
1639.19836,0.21017
1641.12683,0.20195
1643.05530,0.20408
1644.98377,0.21842
1646.91223,0.23616
1648.84070,0.23458
1650.76917,0.23289
1652.69764,0.23959
1654.62611,0.22452
1656.55458,0.20328
1658.48305,0.19284
1660.41152,0.19248
1662.33998,0.19996
1664.26845,0.20540
1666.19692,0.20749
1668.12539,0.21358
1670.05386,0.21880
1671.98233,0.21511
1673.91080,0.21032
1675.83926,0.20578
1677.76773,0.20400
1679.69620,0.20916
1681.62467,0.22009
1683.55314,0.23028
1685.48161,0.22466
1687.41008,0.21493
1689.33855,0.20803
1691.26701,0.20090
1693.19548,0.20027
1695.12395,0.21210
1697.05242,0.23076
1698.98089,0.23966
1700.90936,0.22844
1702.83783,0.21650
1704.76629,0.21597
1706.69476,0.21538
1708.62323,0.21117
1710.55170,0.20684
1712.48017,0.20439
1714.40864,0.21177
1716.33711,0.22877
1718.26558,0.22217
1720.19404,0.19860
1722.12251,0.18911
1724.05098,0.18991
1725.97945,0.19101
1727.90792,0.19170
1729.83639,0.19559
1731.76486,0.20543
1733.69332,0.21683
1735.62179,0.21428
1737.55026,0.20859
1739.47873,0.20852
1741.40720,0.20786
1743.33567,0.20463
1745.26414,0.20386
1747.19261,0.20813
1749.12107,0.21214
1751.04954,0.20533
1752.97801,0.19423
1754.90648,0.19135
1756.83495,0.19423
1758.76342,0.19598
1760.69189,0.19680
1762.62035,0.19439
1764.54882,0.19083
1766.47729,0.19325
1768.40576,0.20093
1770.33423,0.21165
1772.26270,0.21892
1774.19117,0.21294
1776.11964,0.20378
1778.04810,0.20145
1779.97657,0.20314
1781.90504,0.20127
1783.83351,0.19706
1785.76198,0.19256
1787.69045,0.19047
1789.61892,0.19574
1791.54738,0.20346
1793.47585,0.20434
1795.40432,0.20386
1797.33279,0.20449
1799.26126,0.20278
1801.18973,0.19702
1803.11820,0.18719
1805.04666,0.17990
1806.97513,0.18024
1808.90360,0.18676
1810.83207,0.19208
1812.76054,0.19067
1814.68901,0.18539
1816.61748,0.17233
1818.54595,0.15614
1820.47441,0.15912
1822.40288,0.18086
1824.33135,0.19860
1826.25982,0.20297
1828.18829,0.20334
1830.11676,0.20228
1832.04523,0.19870
1833.97369,0.19531
1835.90216,0.19258
1837.83063,0.19204
1839.75910,0.19412
1841.68757,0.19777
1843.61604,0.20177
1845.54451,0.20238
1847.47298,0.20002
1849.40144,0.19598
1851.32991,0.19064
1853.25838,0.18757
1855.18685,0.18746
1857.11532,0.18814
1859.04379,0.18864
1860.97226,0.18840
1862.90072,0.18880
1864.82919,0.19325
1866.75766,0.20188
1868.68613,0.20639
1870.61460,0.20133
1872.54307,0.19509
1874.47154,0.19122
1876.40001,0.18900
1878.32847,0.18844
1880.25694,0.18772
1882.18541,0.18619
1884.11388,0.18685
1886.04235,0.19083
1887.97082,0.19495
1889.89929,0.19441
1891.82775,0.19104
1893.75622,0.19116
1895.68469,0.19262
1897.61316,0.19209
1899.54163,0.19086
1901.47010,0.18791
1903.39857,0.18383
1905.32704,0.18205
1907.25550,0.18344
1909.18397,0.18494
1911.11244,0.18365
1913.04091,0.18323
1914.96938,0.18705
1916.89785,0.19254
1918.82632,0.19499
1920.75478,0.19453
1922.68325,0.19327
1924.61172,0.18989
1926.54019,0.18730
1928.46866,0.18758
1930.39713,0.18668
1932.32560,0.18494
1934.25407,0.18527
1936.18253,0.18652
1938.11100,0.18913
1940.03947,0.19441
1941.96794,0.19865
1943.89641,0.19732
1945.82488,0.19363
1947.75335,0.19228
1949.68181,0.19175
1951.61028,0.18884
1953.53875,0.18643
1955.46722,0.18754
1957.39569,0.18863
1959.32416,0.18965
1961.25263,0.19189
1963.18110,0.19194
1965.10956,0.19125
1967.03803,0.19207
1968.96650,0.19169
1970.89497,0.19109
1972.82344,0.19167
1974.75191,0.18904
1976.68038,0.18482
1978.60884,0.18722
1980.53731,0.19153
1982.46578,0.18889
1984.39425,0.18471
1986.32272,0.18527
1988.25119,0.18767
1990.17966,0.18898
1992.10812,0.19000
1994.03659,0.19156
1995.96506,0.19209
1997.89353,0.18936
1999.82200,0.18636
2001.75047,0.18726
2003.67894,0.18816
2005.60741,0.18596
2007.53587,0.18497
2009.46434,0.18706
2011.39281,0.19051
2013.32128,0.19511
2015.24975,0.19791
2017.17822,0.19516
2019.10669,0.18958
2021.03515,0.18496
2022.96362,0.18359
2024.89209,0.18623
2026.82056,0.18807
2028.74903,0.18664
2030.67750,0.18604
2032.60597,0.18779
2034.53444,0.18949
2036.46290,0.19088
2038.39137,0.19092
2040.31984,0.18793
2042.24831,0.18555
2044.17678,0.18709
2046.10525,0.19098
2048.03372,0.19270
2049.96218,0.19021
2051.89065,0.18797
2053.81912,0.18786
2055.74759,0.18799
2057.67606,0.18903
2059.60453,0.19034
2061.53300,0.19020
2063.46147,0.19004
2065.38993,0.19086
2067.31840,0.19181
2069.24687,0.19218
2071.17534,0.19018
2073.10381,0.18735
2075.03228,0.18856
2076.96075,0.19144
2078.88921,0.19081
2080.81768,0.18913
2082.74615,0.19038
2084.67462,0.19322
2086.60309,0.19341
2088.53156,0.19067
2090.46003,0.18955
2092.38850,0.19043
2094.31696,0.19119
2096.24543,0.19200
2098.17390,0.19174
2100.10237,0.19004
2102.03084,0.18733
2103.95931,0.18479
2105.88778,0.18565
2107.81624,0.18892
2109.74471,0.19081
2111.67318,0.19086
2113.60165,0.18980
2115.53012,0.18858
2117.45859,0.18949
2119.38706,0.19055
2121.31553,0.18820
2123.24399,0.18614
2125.17246,0.18834
2127.10093,0.19184
2129.02940,0.19255
2130.95787,0.19256
2132.88634,0.19522
2134.81481,0.19716
2136.74327,0.19444
2138.67174,0.18976
2140.60021,0.18709
2142.52868,0.18583
2144.45715,0.18604
2146.38562,0.18885
2148.31409,0.19210
2150.24255,0.19416
2152.17102,0.19411
2154.09949,0.19117
2156.02796,0.18766
2157.95643,0.18623
2159.88490,0.18661
2161.81337,0.18862
2163.74184,0.19238
2165.67030,0.19400
2167.59877,0.19221
2169.52724,0.19201
2171.45571,0.19366
2173.38418,0.19377
2175.31265,0.19469
2177.24112,0.19671
2179.16958,0.19495
2181.09805,0.19039
2183.02652,0.18836
2184.95499,0.18862
2186.88346,0.18850
2188.81193,0.18887
2190.74040,0.18940
2192.66887,0.18880
2194.59733,0.18848
2196.52580,0.18993
2198.45427,0.19292
2200.38274,0.19373
2202.31121,0.19226
2204.23968,0.19329
2206.16815,0.19462
2208.09661,0.19311
2210.02508,0.19087
2211.95355,0.18840
2213.88202,0.18648
2215.81049,0.18678
2217.73896,0.18830
2219.66743,0.18909
2221.59590,0.18819
2223.52436,0.18683
2225.45283,0.18755
2227.38130,0.19058
2229.30977,0.19320
2231.23824,0.19253
2233.16671,0.19056
2235.09518,0.19157
2237.02364,0.19371
2238.95211,0.19469
2240.88058,0.19601
2242.80905,0.19783
2244.73752,0.19967
2246.66599,0.19931
2248.59446,0.19454
2250.52293,0.18820
2252.45139,0.18416
2254.37986,0.18418
2256.30833,0.18750
2258.23680,0.19060
2260.16527,0.19209
2262.09374,0.19326
2264.02221,0.19270
2265.95067,0.18973
2267.87914,0.18853
2269.80761,0.19000
2271.73608,0.18929
2273.66455,0.18722
2275.59302,0.18920
2277.52149,0.19245
2279.44996,0.19133
2281.37842,0.18987
2283.30689,0.19356
2285.23536,0.19794
2287.16383,0.19766
2289.09230,0.19489
2291.02077,0.19407
2292.94924,0.19552
2294.87770,0.19550
2296.80617,0.19342
2298.73464,0.19138
2300.66311,0.18949
2302.59158,0.18903
2304.52005,0.19095
2306.44852,0.19428
2308.37699,0.19827
2310.30545,0.20122
2312.23392,0.20308
2314.16239,0.20482
2316.09086,0.20434
2318.01933,0.20352
2319.94780,0.20607
2321.87627,0.20649
2323.80473,0.20195
2325.73320,0.20095
2327.66167,0.20309
2329.59014,0.20071
2331.51861,0.19825
2333.44708,0.20053
2335.37555,0.20336
2337.30401,0.20404
2339.23248,0.20229
2341.16095,0.20369
2343.08942,0.20579
2345.01789,0.20181
2346.94636,0.20167
2348.87483,0.20611
2350.80330,0.20697
2352.73176,0.20377
2354.66023,0.20497
2356.58870,0.20815
2358.51717,0.20523
2360.44564,0.20543
2362.37411,0.21053
2364.30258,0.21684
2366.23104,0.23318
2368.15951,0.24747
2370.08798,0.23982
2372.01645,0.22356
2373.94492,0.21020
2375.87339,0.20212
2377.80186,0.20159
2379.73033,0.19915
2381.65879,0.19155
2383.58726,0.18794
2385.51573,0.19004
2387.44420,0.19256
2389.37267,0.19367
2391.30114,0.19301
2393.22961,0.18989
2395.15807,0.18591
2397.08654,0.18408
2399.01501,0.18749
2400.94348,0.19399
2402.87195,0.19676
2404.80042,0.19439
2406.72889,0.19217
2408.65736,0.19260
2410.58582,0.19170
2412.51429,0.19011
2414.44276,0.19198
2416.37123,0.19435
2418.29970,0.19434
2420.22817,0.19353
2422.15664,0.19282
2424.08510,0.19298
2426.01357,0.19380
2427.94204,0.19240
2429.87051,0.18901
2431.79898,0.18767
2433.72745,0.18748
2435.65592,0.18656
2437.58439,0.18890
2439.51285,0.19357
2441.44132,0.19387
2443.36979,0.19019
2445.29826,0.18929
2447.22673,0.19185
2449.15520,0.19322
2451.08367,0.19365
2453.01213,0.19365
2454.94060,0.19283
2456.86907,0.19366
2458.79754,0.19559
2460.72601,0.19624
2462.65448,0.19509
2464.58295,0.19406
2466.51142,0.19501
2468.43988,0.19485
2470.36835,0.19237
2472.29682,0.19212
2474.22529,0.19349
2476.15376,0.19094
2478.08223,0.18707
2480.01070,0.18774
2481.93916,0.19158
2483.86763,0.19350
2485.79610,0.19089
2487.72457,0.18830
2489.65304,0.18910
2491.58151,0.19055
2493.50998,0.19282
2495.43844,0.19510
2497.36691,0.19526
2499.29538,0.19518
2501.22385,0.19471
2503.15232,0.19368
2505.08079,0.19479
2507.00926,0.19566
2508.93773,0.19329
2510.86619,0.19249
2512.79466,0.19454
2514.72313,0.19313
2516.65160,0.18818
2518.58007,0.18616
2520.50854,0.18848
2522.43701,0.19122
2524.36547,0.19259
2526.29394,0.19258
2528.22241,0.19039
2530.15088,0.18777
2532.07935,0.18760
2534.00782,0.18911
2535.93629,0.19076
2537.86476,0.19331
2539.79322,0.19515
2541.72169,0.19310
2543.65016,0.19036
2545.57863,0.19118
2547.50710,0.19277
2549.43557,0.19151
2551.36404,0.18841
2553.29250,0.18750
2555.22097,0.19061
2557.14944,0.19412
2559.07791,0.19479
2561.00638,0.19259
2562.93485,0.18974
2564.86332,0.18798
2566.79179,0.18700
2568.72025,0.18801
2570.64872,0.19074
2572.57719,0.19093
2574.50566,0.18899
2576.43413,0.18875
2578.36260,0.18900
2580.29107,0.18844
2582.21953,0.18758
2584.14800,0.18595
2586.07647,0.18547
2588.00494,0.18819
2589.93341,0.19306
2591.86188,0.19622
2593.79035,0.19604
2595.71882,0.19633
2597.64728,0.19823
2599.57575,0.19874
2601.50422,0.19703
2603.43269,0.19514
2605.36116,0.19510
2607.28963,0.19637
2609.21810,0.19764
2611.14656,0.19910
2613.07503,0.19959
2615.00350,0.19839
2616.93197,0.19718
2618.86044,0.19589
2620.78891,0.19450
2622.71738,0.19323
2624.64585,0.19178
2626.57431,0.19292
2628.50278,0.19633
2630.43125,0.19700
2632.35972,0.19424
2634.28819,0.19156
2636.21666,0.19171
2638.14513,0.19336
2640.07359,0.19327
2642.00206,0.19240
2643.93053,0.19486
2645.85900,0.19883
2647.78747,0.19789
2649.71594,0.19481
2651.64441,0.19528
2653.57288,0.19576
2655.50134,0.19349
2657.42981,0.19208
2659.35828,0.19355
2661.28675,0.19438
2663.21522,0.19241
2665.14369,0.19118
2667.07216,0.19304
2669.00062,0.19678
2670.92909,0.20058
2672.85756,0.20238
2674.78603,0.20121
2676.71450,0.19778
2678.64297,0.19552
2680.57144,0.19732
2682.49990,0.20036
2684.42837,0.20185
2686.35684,0.20128
2688.28531,0.19725
2690.21378,0.19142
2692.14225,0.18922
2694.07072,0.19336
2695.99919,0.19806
2697.92765,0.19807
2699.85612,0.19636
2701.78459,0.19537
2703.71306,0.19364
2705.64153,0.19118
2707.57000,0.19151
2709.49847,0.19539
2711.42693,0.20004
2713.35540,0.20426
2715.28387,0.20620
2717.21234,0.20442
2719.14081,0.20201
2721.06928,0.20243
2722.99775,0.20376
2724.92622,0.20357
2726.85468,0.20352
2728.78315,0.20442
2730.71162,0.20457
2732.64009,0.20190
2734.56856,0.19819
2736.49703,0.19889
2738.42550,0.20188
2740.35396,0.20143
2742.28243,0.19983
2744.21090,0.19993
2746.13937,0.19968
2748.06784,0.19798
2749.99631,0.19715
2751.92478,0.19865
2753.85325,0.20016
2755.78171,0.19995
2757.71018,0.20051
2759.63865,0.20255
2761.56712,0.20334
2763.49559,0.20434
2765.42406,0.20739
2767.35253,0.20946
2769.28099,0.20783
2771.20946,0.20456
2773.13793,0.20360
2775.06640,0.20466
2776.99487,0.20637
2778.92334,0.20911
2780.85181,0.21006
2782.78028,0.20718
2784.70874,0.20450
2786.63721,0.20520
2788.56568,0.20798
2790.49415,0.20978
2792.42262,0.20975
2794.35109,0.20930
2796.27956,0.20881
2798.20802,0.20899
2800.13649,0.20735
2802.06496,0.20377
2803.99343,0.20409
2805.92190,0.20648
2807.85037,0.20571
2809.77884,0.20437
2811.70731,0.20562
2813.63577,0.20796
2815.56424,0.21039
2817.49271,0.21138
2819.42118,0.20936
2821.34965,0.20751
2823.27812,0.20892
2825.20659,0.21043
2827.13505,0.20762
2829.06352,0.20348
2830.99199,0.20194
2832.92046,0.20212
2834.84893,0.20413
2836.77740,0.20779
2838.70587,0.21122
2840.63433,0.21327
2842.56280,0.21126
2844.49127,0.20478
2846.41974,0.20016
2848.34821,0.20063
2850.27668,0.20251
2852.20515,0.20179
2854.13362,0.20146
2856.06208,0.20601
2857.99055,0.20979
2859.91902,0.20959
2861.84749,0.20818
2863.77596,0.20414
2865.70443,0.20073
2867.63290,0.20527
2869.56136,0.21420
2871.48983,0.21786
2873.41830,0.21475
2875.34677,0.21243
2877.27524,0.21587
2879.20371,0.21806
2881.13218,0.21237
2883.06065,0.20325
2884.98911,0.19812
2886.91758,0.19770
2888.84605,0.19700
2890.77452,0.19774
2892.70299,0.20403
2894.63146,0.21002
2896.55993,0.20971
2898.48839,0.20681
2900.41686,0.20459
2902.34533,0.20004
2904.27380,0.19590
2906.20227,0.19909
2908.13074,0.20730
2910.05921,0.21301
2911.98768,0.21166
2913.91614,0.20514
2915.84461,0.20131
2917.77308,0.20234
2919.70155,0.20284
2921.63002,0.20246
2923.55849,0.20593
2925.48696,0.21216
2927.41542,0.21388
2929.34389,0.20936
2931.27236,0.20431
2933.20083,0.20259
2935.12930,0.20188
2937.05777,0.20061
2938.98624,0.20247
2940.91471,0.20812
2942.84317,0.21322
2944.77164,0.21465
2946.70011,0.21329
2948.62858,0.21266
2950.55705,0.21206
2952.48552,0.20959
2954.41399,0.20621
2956.34245,0.20059
2958.27092,0.19594
2960.19939,0.19879
2962.12786,0.20606
2964.05633,0.20893
2965.98480,0.20492
2967.91327,0.20151
2969.84174,0.20490
2971.77020,0.20958
2973.69867,0.20849
2975.62714,0.20388
2977.55561,0.20219
2979.48408,0.20666
2981.41255,0.21310
2983.34102,0.21306
2985.26948,0.20702
2987.19795,0.20311
2989.12642,0.20502
2991.05489,0.20915
2992.98336,0.21080
2994.91183,0.21260
2996.84030,0.21737
2998.76877,0.22154
3000.69723,0.22182
3002.62570,0.21843
3004.55417,0.21463
3006.48264,0.21139
3008.41111,0.20660
3010.33958,0.20194
3012.26805,0.19702
3014.19651,0.18849
3016.12498,0.18355
3018.05345,0.18984
3019.98192,0.20048
3021.91039,0.20799
3023.83886,0.21166
3025.76733,0.21170
3027.69579,0.21163
3029.62426,0.21527
3031.55273,0.21977
3033.48120,0.22181
3035.40967,0.22163
3037.33814,0.21772
3039.26661,0.21225
3041.19508,0.21023
3043.12354,0.21004
3045.05201,0.20876
3046.98048,0.20885
3048.90895,0.21218
3050.83742,0.21543
3052.76589,0.21766
3054.69436,0.21932
3056.62282,0.21625
3058.55129,0.21090
3060.47976,0.21109
3062.40823,0.21580
3064.33670,0.21870
3066.26517,0.21789
3068.19364,0.21704
3070.12211,0.21852
3072.05057,0.21895
3073.97904,0.21277
3075.90751,0.20416
3077.83598,0.20470
3079.76445,0.21291
3081.69292,0.21808
3083.62139,0.21335
3085.54985,0.20322
3087.47832,0.20038
3089.40679,0.20512
3091.33526,0.20855
3093.26373,0.20704
3095.19220,0.20482
3097.12067,0.20837
3099.04914,0.21549
3100.97760,0.21692
3102.90607,0.20978
3104.83454,0.20686
3106.76301,0.21401
3108.69148,0.21819
3110.61995,0.21367
3112.54842,0.20998
3114.47688,0.21395
3116.40535,0.21871
3118.33382,0.21528
3120.26229,0.20735
3122.19076,0.20600
3124.11923,0.21283
3126.04770,0.21795
3127.97617,0.21585
3129.90463,0.21008
3131.83310,0.20768
3133.76157,0.20881
3135.69004,0.20965
3137.61851,0.21216
3139.54698,0.21526
3141.47545,0.21571
3143.40391,0.21552
3145.33238,0.21536
3147.26085,0.21332
3149.18932,0.21192
3151.11779,0.21381
3153.04626,0.21561
3154.97473,0.21446
3156.90320,0.21239
3158.83166,0.21257
3160.76013,0.21308
3162.68860,0.21163
3164.61707,0.21071
3166.54554,0.21149
3168.47401,0.21331
3170.40248,0.21508
3172.33094,0.21713
3174.25941,0.22010
3176.18788,0.21932
3178.11635,0.21331
3180.04482,0.21050
3181.97329,0.21576
3183.90176,0.22350
3185.83022,0.22593
3187.75869,0.22103
3189.68716,0.21565
3191.61563,0.21541
3193.54410,0.21756
3195.47257,0.22067
3197.40104,0.22539
3199.32951,0.22862
3201.25797,0.22659
3203.18644,0.21772
3205.11491,0.21201
3207.04338,0.21878
3208.97185,0.22375
3210.90032,0.21936
3212.82879,0.21909
3214.75725,0.22139
3216.68572,0.21870
3218.61419,0.21749
3220.54266,0.21803
3222.47113,0.21387
3224.39960,0.20631
3226.32807,0.20161
3228.25654,0.20257
3230.18500,0.20768
3232.11347,0.21405
3234.04194,0.21505
3235.97041,0.20916
3237.89888,0.20619
3239.82735,0.20985
3241.75582,0.21353
3243.68428,0.21273
3245.61275,0.20937
3247.54122,0.20883
3249.46969,0.21131
3251.39816,0.21257
3253.32663,0.21311
3255.25510,0.21531
3257.18357,0.21679
3259.11203,0.21598
3261.04050,0.21611
3262.96897,0.21507
3264.89744,0.21017
3266.82591,0.20844
3268.75438,0.21236
3270.68285,0.21603
3272.61131,0.21578
3274.53978,0.21282
3276.46825,0.21023
3278.39672,0.20923
3280.32519,0.20871
3282.25366,0.20584
3284.18213,0.20025
3286.11060,0.19835
3288.03906,0.20404
3289.96753,0.20705
3291.89600,0.20098
3293.82447,0.20025
3295.75294,0.21003
3297.68141,0.21426
3299.60988,0.20772
3301.53834,0.20284
3303.46681,0.20606
3305.39528,0.21175
3307.32375,0.21271
3309.25222,0.20951
3311.18069,0.20970
3313.10916,0.21374
3315.03763,0.21654
3316.96609,0.21610
3318.89456,0.21331
3320.82303,0.21374
3322.75150,0.21685
3324.67997,0.21813
3326.60844,0.21811
3328.53691,0.21539
3330.46537,0.21228
3332.39384,0.21152
3334.32231,0.21239
3336.25078,0.21638
3338.17925,0.22132
3340.10772,0.22499
3342.03619,0.22770
3343.96466,0.22720
3345.89312,0.22350
3347.82159,0.22070
3349.75006,0.21995
3351.67853,0.22197
3353.60700,0.22804
3355.53547,0.23028
3357.46394,0.22359
3359.39240,0.21720
3361.32087,0.21604
3363.24934,0.21774
3365.17781,0.22206
3367.10628,0.22289
3369.03475,0.21703
3370.96322,0.21288
3372.89168,0.21194
3374.82015,0.20818
3376.74862,0.20456
3378.67709,0.20621
3380.60556,0.20871
3382.53403,0.21078
3384.46250,0.21443
3386.39097,0.21452
3388.31943,0.21127
3390.24790,0.20943
3392.17637,0.20737
3394.10484,0.20401
3396.03331,0.20414
3397.96178,0.20767
3399.89025,0.20915
3401.81871,0.20973
3403.74718,0.20942
3405.67565,0.20728
3407.60412,0.20857
3409.53259,0.21100
3411.46106,0.20869
3413.38953,0.20547
3415.31800,0.20555
3417.24646,0.20797
3419.17493,0.21099
3421.10340,0.21205
3423.03187,0.20693
3424.96034,0.19845
3426.88881,0.19640
3428.81728,0.20035
3430.74574,0.20271
3432.67421,0.20481
3434.60268,0.20858
3436.53115,0.20931
3438.45962,0.20809
3440.38809,0.20908
3442.31656,0.20860
3444.24503,0.20619
3446.17349,0.20614
3448.10196,0.20780
3450.03043,0.20962
3451.95890,0.20620
3453.88737,0.19637
3455.81584,0.19227
3457.74431,0.19470
3459.67277,0.19485
3461.60124,0.19689
3463.52971,0.20111
3465.45818,0.20010
3467.38665,0.19692
3469.31512,0.19788
3471.24359,0.20016
3473.17206,0.19950
3475.10052,0.19740
3477.02899,0.19419
3478.95746,0.19169
3480.88593,0.19275
3482.81440,0.19362
3484.74287,0.19352
3486.67134,0.19580
3488.59980,0.19789
3490.52827,0.19638
3492.45674,0.19252
3494.38521,0.18907
3496.31368,0.18761
3498.24215,0.18765
3500.17062,0.19002
3502.09909,0.19343
3504.02755,0.19186
3505.95602,0.18689
3507.88449,0.18584
3509.81296,0.18648
3511.74143,0.18112
3513.66990,0.17537
3515.59837,0.17751
3517.52683,0.18129
3519.45530,0.18317
3521.38377,0.18807
3523.31224,0.19148
3525.24071,0.18716
3527.16918,0.18146
3529.09765,0.18068
3531.02611,0.18227
3532.95458,0.17957
3534.88305,0.17227
3536.81152,0.16737
3538.73999,0.16523
3540.66846,0.16493
3542.59693,0.17257
3544.52540,0.18567
3546.45386,0.19135
3548.38233,0.18765
3550.31080,0.18385
3552.23927,0.18153
3554.16774,0.17832
3556.09621,0.17679
3558.02468,0.17898
3559.95314,0.18157
3561.88161,0.18181
3563.81008,0.18325
3565.73855,0.18527
3567.66702,0.17702
3569.59549,0.16281
3571.52396,0.15823
3573.45243,0.16194
3575.38089,0.16264
3577.30936,0.16102
3579.23783,0.16566
3581.16630,0.16986
3583.09477,0.16915
3585.02324,0.17101
3586.95171,0.17300
3588.88017,0.16633
3590.80864,0.16172
3592.73711,0.16388
3594.66558,0.16366
3596.59405,0.16006
3598.52252,0.15978
3600.45099,0.15956
3602.37946,0.15629
3604.30792,0.15554
3606.23639,0.16141
3608.16486,0.16544
3610.09333,0.15975
3612.02180,0.15739
3613.95027,0.16215
3615.87874,0.16500
3617.80720,0.16585
3619.73567,0.16449
3621.66414,0.15791
3623.59261,0.15274
3625.52108,0.15672
3627.44955,0.16767
3629.37802,0.16626
3631.30649,0.15514
3633.23495,0.15562
3635.16342,0.15885
3637.09189,0.15318
3639.02036,0.14369
3640.94883,0.13765
3642.87730,0.13570
3644.80577,0.13926
3646.73423,0.15460
3648.66270,0.18425
3650.59117,0.18856
3652.51964,0.16566
3654.44811,0.15247
3656.37658,0.15038
3658.30505,0.14621
3660.23352,0.13895
3662.16198,0.13521
3664.09045,0.13557
3666.01892,0.13909
3667.94739,0.14648
3669.87586,0.15346
3671.80433,0.15807
3673.73280,0.16701
3675.66126,0.17077
3677.58973,0.15802
3679.51820,0.14501
3681.44667,0.13865
3683.37514,0.13784
3685.30361,0.14002
3687.23208,0.14500
3689.16055,0.14836
3691.08901,0.14212
3693.01748,0.13437
3694.94595,0.13275
3696.87442,0.13668
3698.80289,0.14232
3700.73136,0.14484
3702.65983,0.14070
3704.58829,0.13606
3706.51676,0.13783
3708.44523,0.14450
3710.37370,0.14821
3712.30217,0.14276
3714.23064,0.13750
3716.15911,0.13722
3718.08757,0.14156
3720.01604,0.14993
3721.94451,0.15468
3723.87298,0.14741
3725.80145,0.13312
3727.72992,0.12538
3729.65839,0.12887
3731.58686,0.14075
3733.51532,0.15755
3735.44379,0.16592
3737.37226,0.15616
3739.30073,0.14449
3741.22920,0.14115
3743.15767,0.14617
3745.08614,0.15400
3747.01460,0.15582
3748.94307,0.15653
3750.87154,0.15457
3752.80001,0.14209
3754.72848,0.13280
3756.65695,0.13353
3758.58542,0.13736
3760.51389,0.13597
3762.44235,0.13241
3764.37082,0.13198
3766.29929,0.13388
3768.22776,0.13500
3770.15623,0.13537
3772.08470,0.13613
3774.01317,0.13681
3775.94163,0.13659
3777.87010,0.13741
3779.79857,0.13674
3781.72704,0.13219
3783.65551,0.13433
3785.58398,0.14032
3787.51245,0.13741
3789.44092,0.13251
3791.36938,0.13193
3793.29785,0.13169
3795.22632,0.13224
3797.15479,0.13402
3799.08326,0.13694
3801.01173,0.14226
3802.94020,0.14168
3804.86866,0.13574
3806.79713,0.13006
3808.72560,0.12518
3810.65407,0.12466
3812.58254,0.13081
3814.51101,0.14234
3816.43948,0.14987
3818.36795,0.14748
3820.29641,0.13900
3822.22488,0.12417
3824.15335,0.11805
3826.08182,0.12086
3828.01029,0.12605
3829.93876,0.13424
3831.86723,0.13998
3833.79569,0.13800
3835.72416,0.13489
3837.65263,0.13511
3839.58110,0.13705
3841.50957,0.13331
3843.43804,0.12663
3845.36651,0.12503
3847.29498,0.12624
3849.22344,0.13064
3851.15191,0.14241
3853.08038,0.15274
3855.00885,0.14425
3856.93732,0.13233
3858.86579,0.12612
3860.79426,0.13006
3862.72272,0.14000
3864.65119,0.13958
3866.57966,0.13230
3868.50813,0.13283
3870.43660,0.13842
3872.36507,0.14004
3874.29354,0.13755
3876.22200,0.13453
3878.15047,0.13564
3880.07894,0.13830
3882.00741,0.13712
3883.93588,0.13399
3885.86435,0.12658
3887.79282,0.11944
3889.72129,0.11844
3891.64975,0.11544
3893.57822,0.10857
3895.50669,0.11022
3897.43516,0.12356
3899.36363,0.13997
3901.29210,0.14599
3903.22057,0.14079
3905.14903,0.12951
3907.07750,0.11779
3909.00597,0.11252
3910.93444,0.11338
3912.86291,0.11454
3914.79138,0.11557
3916.71985,0.11960
3918.64832,0.12207
3920.57678,0.11983
3922.50525,0.11691
3924.43372,0.11217
3926.36219,0.10533
3928.29066,0.10292
3930.21913,0.10653
3932.14760,0.10929
3934.07606,0.10760
3936.00453,0.10702
3937.93300,0.10523
3939.86147,0.09933
3941.78994,0.09942
3943.71841,0.11115
3945.64688,0.12349
3947.57535,0.12472
3949.50381,0.11364
3951.43228,0.10358
3953.36075,0.10283
3955.28922,0.10654
3957.21769,0.10902
3959.14616,0.10772
3961.07463,0.10581
3963.00309,0.10586
3964.93156,0.10636
3966.86003,0.10808
3968.78850,0.10853
3970.71697,0.10686
3972.64544,0.10915
3974.57391,0.11193
3976.50238,0.10720
3978.43084,0.10101
3980.35931,0.10329
3982.28778,0.11153
3984.21625,0.11637
3986.14472,0.11691
3988.07319,0.11787
3990.00166,0.11887
3991.93012,0.11890
3993.85859,0.11968
3995.78706,0.11843
3997.71553,0.11293
3999.64400,0.10876
4001.57247,0.10985
4003.50094,0.11116
4005.42941,0.10781
4007.35787,0.10347
4009.28634,0.10215
4011.21481,0.09993
4013.14328,0.09515
4015.07175,0.09406
4017.00022,0.09822
4018.92869,0.10394
4020.85715,0.10928
4022.78562,0.11002
4024.71409,0.10426
4026.64256,0.09872
4028.57103,0.10052
4030.49950,0.10512
4032.42797,0.10294
4034.35644,0.09496
4036.28490,0.09083
4038.21337,0.09619
4040.14184,0.10414
4042.07031,0.10585
4043.99878,0.10362
4045.92725,0.10159
4047.85572,0.09967
4049.78418,0.09823
4051.71265,0.09833
4053.64112,0.09809
4055.56959,0.09610
4057.49806,0.09633
4059.42653,0.09964
4061.35500,0.10104
4063.28346,0.10134
4065.21193,0.10343
4067.14040,0.10371
4069.06887,0.10319
4070.99734,0.10407
4072.92581,0.10082
4074.85428,0.09397
4076.78275,0.09258
4078.71121,0.09710
4080.63968,0.09756
4082.56815,0.09229
4084.49662,0.08792
4086.42509,0.08828
4088.35356,0.09303
4090.28203,0.09670
4092.21049,0.09698
4094.13896,0.09550
4096.06743,0.09454
4097.99590,0.09813
4099.92437,0.10151
4101.85284,0.09941
4103.78131,0.09790
4105.70978,0.09686
4107.63824,0.09223
4109.56671,0.08973
4111.49518,0.09136
4113.42365,0.09216
4115.35212,0.08971
4117.28059,0.08724
4119.20906,0.08809
4121.13752,0.08883
4123.06599,0.08799
4124.99446,0.09000
4126.92293,0.09314
4128.85140,0.09174
4130.77987,0.08720
4132.70834,0.08277
4134.63681,0.08257
4136.56527,0.08857
4138.49374,0.09282
4140.42221,0.09038
4142.35068,0.08409
4144.27915,0.07921
4146.20762,0.08025
4148.13609,0.08396
4150.06455,0.08735
4151.99302,0.09280
4153.92149,0.09719
4155.84996,0.09627
4157.77843,0.09262
4159.70690,0.08968
4161.63537,0.08752
4163.56384,0.08390
4165.49230,0.08146
4167.42077,0.08411
4169.34924,0.08530
4171.27771,0.07948
4173.20618,0.07409
4175.13465,0.07671
4177.06312,0.08141
4178.99158,0.07918
4180.92005,0.07483
4182.84852,0.07637
4184.77699,0.08306
4186.70546,0.08875
4188.63393,0.08434
4190.56240,0.07199
4192.49087,0.06747
4194.41933,0.07513
4196.34780,0.08204
4198.27627,0.08010
4200.20474,0.07696
4202.13321,0.07816
4204.06168,0.08028
4205.99015,0.08140
4207.91861,0.08257
4209.84708,0.08396
4211.77555,0.08316
4213.70402,0.08115
4215.63249,0.07687
4217.56096,0.06789
4219.48943,0.06243
4221.41789,0.06698
4223.34636,0.07513
4225.27483,0.07777
4227.20330,0.07546
4229.13177,0.07363
4231.06024,0.06986
4232.98871,0.06171
4234.91718,0.05743
4236.84564,0.06049
4238.77411,0.06416
4240.70258,0.06853
4242.63105,0.07395
4244.55952,0.07533
4246.48799,0.07273
4248.41646,0.06732
4250.34492,0.06008
4252.27339,0.05412
4254.20186,0.05363
4256.13033,0.06099
4258.05880,0.06874
4259.98727,0.06770
4261.91574,0.06337
4263.84421,0.06570
4265.77267,0.06912
4267.70114,0.06644
4269.62961,0.06426
4271.55808,0.06690
4273.48655,0.06889
4275.41502,0.06577
4277.34349,0.06228
4279.27195,0.06418
4281.20042,0.06774
4283.12889,0.06983
4285.05736,0.07128
4286.98583,0.06812
4288.91430,0.06033
4290.84277,0.05910
4292.77124,0.06825
4294.69970,0.07460
4296.62817,0.06843
4298.55664,0.05849
4300.48511,0.05595
4302.41358,0.06098
4304.34205,0.06806
4306.27052,0.06670
4308.19898,0.05746
4310.12745,0.05550
4312.05592,0.05909
4313.98439,0.05407
4315.91286,0.04584
4317.84133,0.04869
4319.76980,0.05446
4321.69827,0.04905
4323.62673,0.03756
4325.55520,0.03369
4327.48367,0.04132
4329.41214,0.04954
4331.34061,0.05377
4333.26908,0.06021
4335.19755,0.06654
4337.12601,0.06474
4339.05448,0.05542
4340.98295,0.04862
4342.91142,0.05090
4344.83989,0.05463
4346.76836,0.05258
4348.69683,0.05156
4350.62530,0.05261
4352.55376,0.04835
4354.48223,0.04118
4356.41070,0.03625
4358.33917,0.03200
4360.26764,0.03047
4362.19611,0.03877
4364.12458,0.05119
4366.05304,0.05337
4367.98151,0.04688
4369.90998,0.04204
4371.83845,0.03911
4373.76692,0.03680
4375.69539,0.03937
4377.62386,0.04591
4379.55232,0.04864
4381.48079,0.04488
4383.40926,0.04063
4385.33773,0.03917
4387.26620,0.03827
4389.19467,0.03682
4391.12314,0.03556
4393.05161,0.03684
4394.98007,0.04205
4396.90854,0.04364
4398.83701,0.03454
4400.76548,0.02817
4402.69395,0.03738
4404.62242,0.04879
4406.55089,0.04752
4408.47935,0.04100
4410.40782,0.03983
4412.33629,0.04161
4414.26476,0.04197
4416.19323,0.03695
4418.12170,0.02927
4420.05017,0.02973
4421.97864,0.03757
4423.90710,0.04385
4425.83557,0.04611
4427.76404,0.04275
4429.69251,0.03442
4431.62098,0.03125
4433.54945,0.03328
4435.47792,0.03146
4437.40638,0.02993
4439.33485,0.03135
4441.26332,0.03272
4443.19179,0.03595
4445.12026,0.03959
4447.04873,0.03946
4448.97720,0.03009
4450.90567,0.01708
4452.83413,0.01918
4454.76260,0.03054
4456.69107,0.03708
4458.61954,0.04300
4460.54801,0.04838
4462.47648,0.04844
4464.40495,0.04030
4466.33341,0.02924
4468.26188,0.02513
4470.19035,0.02649
4472.11882,0.02781
4474.04729,0.02846
4475.97576,0.02976
4477.90423,0.03328
4479.83270,0.03954
4481.76116,0.04233
4483.68963,0.03683
4485.61810,0.02970
4487.54657,0.02576
4489.47504,0.02536
4491.40351,0.02909
4493.33198,0.03115
4495.26044,0.02846
4497.18891,0.02682
4499.11738,0.02595
4501.04585,0.02395
4502.97432,0.02595
4504.90279,0.02787
4506.83126,0.02313
4508.75973,0.01810
4510.68819,0.01683
4512.61666,0.02129
4514.54513,0.03325
4516.47360,0.04025
4518.40207,0.03062
4520.33054,0.01291
4522.25901,0.00447
4524.18747,0.00945
4526.11594,0.01776
4528.04441,0.01891
4529.97288,0.01600
4531.90135,0.01728
4533.82982,0.01743
4535.75829,0.01310
4537.68676,0.00928
4539.61522,0.00982
4541.54369,0.01461
4543.47216,0.01882
4545.40063,0.01817
4547.32910,0.01072
4549.25757,0.00142
4551.18604,-0.00070
4553.11450,0.00615
4555.04297,0.01202
4556.97144,0.01198
4558.89991,0.01397
4560.82838,0.01851
4562.75685,0.02164
4564.68532,0.02682
4566.61378,0.03350
4568.54225,0.02924
4570.47072,0.01509
4572.39919,0.00789
4574.32766,0.00719
4576.25613,0.00695
4578.18460,0.01159
4580.11307,0.02033
4582.04153,0.02219
4583.97000,0.01333
4585.89847,0.00646
4587.82694,0.00807
4589.75541,0.01189
4591.68388,0.01747
4593.61235,0.02424
4595.54081,0.02445
4597.46928,0.01832
4599.39775,0.01348
4601.32622,0.01115
4603.25469,0.00809
4605.18316,0.00376
4607.11163,-0.00078
4609.04010,-0.00500
4610.96856,-0.00839
4612.89703,-0.00442
4614.82550,0.01051
4616.75397,0.02167
4618.68244,0.02130
4620.61091,0.01823
4622.53938,0.01384
4624.46784,0.00900
4626.39631,0.00531
4628.32478,0.00145
4630.25325,-0.00146
4632.18172,-0.00287
4634.11019,-0.00151
4636.03866,0.00356
4637.96713,0.00989
4639.89559,0.01497
4641.82406,0.02149
4643.75253,0.02988
4645.68100,0.03298
4647.60947,0.02998
4649.53794,0.02591
4651.46641,0.02428
4653.39487,0.02424
4655.32334,0.02102
4657.25181,0.01409
4659.18028,0.00624
4661.10875,-0.00137
4663.03722,-0.00781
4664.96569,-0.00925
4666.89416,-0.00602
4668.82262,-0.00307
4670.75109,0.00478
4672.67956,0.01788
4674.60803,0.01778
4676.53650,0.00439
4678.46497,-0.00303
4680.39344,-0.00477
4682.32190,-0.00640
4684.25037,-0.00408
4686.17884,0.00405
4688.10731,0.01194
4690.03578,0.00888
4691.96425,-0.00102
4693.89272,-0.00389
4695.82119,0.00191
4697.74965,0.00676
4699.67812,0.00626
4701.60659,0.00756
4703.53506,0.01244
4705.46353,0.01266
4707.39200,0.00886
4709.32047,0.00761
4711.24893,0.00557
4713.17740,0.00162
4715.10587,0.00033
4717.03434,-0.00068
4718.96281,-0.00296
4720.89128,-0.00787
4722.81975,-0.01438
4724.74821,-0.00878
4726.67668,0.00666
4728.60515,0.01151
4730.53362,0.00680
4732.46209,0.00683
4734.39056,0.01438
4736.31903,0.02080
4738.24750,0.01474
4740.17596,-0.00438
4742.10443,-0.01486
4744.03290,-0.00477
4745.96137,0.00722
4747.88984,0.01348
4749.81831,0.01551
4751.74678,0.00832
4753.67524,-0.00093
4755.60371,-0.00456
4757.53218,-0.00562
4759.46065,-0.00701
4761.38912,-0.00069
4763.31759,0.01389
4765.24606,0.01852
4767.17453,0.01240
4769.10299,0.01254
4771.03146,0.01817
4772.95993,0.01454
4774.88840,-0.00086
4776.81687,-0.01401
4778.74534,-0.01700
4780.67381,-0.01284
4782.60227,0.00098
4784.53074,0.01596
4786.45921,0.01570
4788.38768,0.00715
4790.31615,0.00302
4792.24462,0.00440
4794.17309,0.01105
4796.10156,0.01742
4798.03002,0.01310
4799.95849,0.00676
4801.88696,0.01578
4803.81543,0.02666
4805.74390,0.02130
4807.67237,0.01195
4809.60084,0.00806
4811.52930,0.00613
4813.45777,0.00330
4815.38624,-0.00291
4817.31471,-0.00779
4819.24318,-0.00565
4821.17165,-0.00057
4823.10012,0.00041
4825.02859,-0.00053
4826.95705,-0.00177
4828.88552,-0.00788
4830.81399,-0.01134
4832.74246,-0.00392
4834.67093,0.00496
4836.59940,0.00409
4838.52787,-0.00315
4840.45633,-0.00393
4842.38480,0.00101
4844.31327,0.00211
4846.24174,0.00042
4848.17021,0.00150
4850.09868,0.00738
4852.02715,0.01538
4853.95562,0.02465
4855.88408,0.03085
4857.81255,0.02398
4859.74102,0.00850
4861.66949,-0.00206
4863.59796,0.00105
4865.52643,0.01625
4867.45490,0.02395
4869.38336,0.01391
4871.31183,0.00408
4873.24030,0.00413
4875.16877,0.00864
4877.09724,0.01958
4879.02571,0.02503
4880.95418,0.01208
4882.88265,-0.00579
4884.81111,-0.01289
4886.73958,-0.01067
4888.66805,-0.00767
4890.59652,-0.01020
4892.52499,-0.00868
4894.45346,0.00763
4896.38193,0.01840
4898.31039,0.00679
4900.23886,-0.00309
4902.16733,0.00407
4904.09580,0.01562
4906.02427,0.02583
4907.95274,0.03106
4909.88121,0.02521
4911.80967,0.01354
4913.73814,0.00879
4915.66661,0.01823
4917.59508,0.02845
4919.52355,0.02464
4921.45202,0.01832
4923.38049,0.01563
4925.30896,0.00381
4927.23742,-0.01139
4929.16589,-0.01183
4931.09436,-0.00193
4933.02283,0.01063
4934.95130,0.02513
4936.87977,0.02637
4938.80824,0.01585
4940.73670,0.00714
4942.66517,-0.00006
4944.59364,0.00063
4946.52211,0.00095
4948.45058,-0.01138
4950.37905,-0.01850
4952.30752,-0.01207
4954.23599,-0.00039
4956.16445,0.01192
4958.09292,0.01457
4960.02139,0.01024
4961.94986,0.01193
4963.87833,0.01409
4965.80680,0.01027
4967.73527,0.01004
4969.66373,0.01961
4971.59220,0.02634
4973.52067,0.01912
4975.44914,0.00913
4977.37761,0.01504
4979.30608,0.03508
4981.23455,0.04468
4983.16302,0.03685
4985.09148,0.02903
4987.01995,0.03061
4988.94842,0.03978
4990.87689,0.04682
4992.80536,0.04601
4994.73383,0.04632
4996.66230,0.04124
4998.59076,0.02471
5000.51923,0.02085
5002.44770,0.03404
5004.37617,0.04001
5006.30464,0.03093
5008.23311,0.02705
5010.16158,0.03811
5012.09005,0.04433
5014.01851,0.03458
5015.94698,0.01522
5017.87545,-0.00341
5019.80392,-0.00973
5021.73239,-0.00299
5023.66086,0.00734
5025.58933,0.01848
5027.51779,0.02877
5029.44626,0.02892
5031.37473,0.01921
5033.30320,0.00206
5035.23167,-0.01532
5037.16014,-0.01756
5039.08861,-0.00711
5041.01708,0.00755
5042.94554,0.01934
5044.87401,0.01729
5046.80248,0.00775
5048.73095,0.00708
5050.65942,0.01304
5052.58789,0.01613
5054.51636,0.01595
5056.44482,0.01207
5058.37329,0.00912
5060.30176,0.01447
5062.23023,0.02253
5064.15870,0.02990
5066.08717,0.03516
5068.01564,0.02950
5069.94410,0.01441
5071.87257,0.00256
5073.80104,0.00262
5075.72951,0.01089
5077.65798,0.01732
5079.58645,0.01970
5081.51492,0.02311
5083.44339,0.02474
5085.37185,0.01818
5087.30032,0.01184
5089.22879,0.01344
5091.15726,0.01649
5093.08573,0.01439
5095.01420,0.01147
5096.94267,0.01740
5098.87113,0.02778
5100.79960,0.03374
5102.72807,0.03574
5104.65654,0.03196
5106.58501,0.02235
5108.51348,0.02068
5110.44195,0.03282
5112.37042,0.03807
5114.29888,0.03006
5116.22735,0.02590
5118.15582,0.03206
5120.08429,0.04163
5122.01276,0.03377
5123.94123,0.00815
5125.86970,-0.00074
5127.79816,0.01464
5129.72663,0.02273
5131.65510,0.01019
5133.58357,-0.00270
5135.51204,0.00468
5137.44051,0.02280
5139.36898,0.03157
5141.29745,0.03232
5143.22591,0.03291
5145.15438,0.03415
5147.08285,0.03965
5149.01132,0.04934
5150.93979,0.04650
5152.86826,0.02713
5154.79673,0.01442
5156.72519,0.01332
5158.65366,0.01719
5160.58213,0.02237
5162.51060,0.01546
5164.43907,0.01582
5166.36754,0.03618
5168.29601,0.03790
5170.22448,0.01993
5172.15294,0.01641
5174.08141,0.02561
5176.00988,0.03547
5177.93835,0.04148
5179.86682,0.03437
5181.79529,0.02225
5183.72376,0.02859
5185.65222,0.04373
5187.58069,0.04419
5189.50916,0.04257
5191.43763,0.04580
5193.36610,0.04098
5195.29457,0.03113
5197.22304,0.03449
5199.15151,0.05080
5201.07997,0.06004
5203.00844,0.06665
5204.93691,0.08210
5206.86538,0.09546
5208.79385,0.09294
5210.72232,0.07751
5212.65079,0.06064
5214.57925,0.05124
5216.50772,0.05237
5218.43619,0.05330
5220.36466,0.04670
5222.29313,0.04327
5224.22160,0.04452
5226.15007,0.05132
5228.07854,0.06255
5230.00700,0.06520
5231.93547,0.05581
5233.86394,0.05058
5235.79241,0.05936
5237.72088,0.06309
5239.64935,0.05396
5241.57782,0.04741
5243.50628,0.04646
5245.43475,0.03892
5247.36322,0.03518
5249.29169,0.05321
5251.22016,0.06900
5253.14863,0.06552
5255.07710,0.05307
5257.00556,0.04500
5258.93403,0.04008
5260.86250,0.02989
5262.79097,0.03017
5264.71944,0.04170
5266.64791,0.04263
5268.57638,0.04261
5270.50485,0.04778
5272.43331,0.04417
5274.36178,0.04187
5276.29025,0.05057
5278.21872,0.05019
5280.14719,0.03823
5282.07566,0.03417
5284.00413,0.03778
5285.93259,0.04007
5287.86106,0.04399
5289.78953,0.04717
5291.71800,0.04228
5293.64647,0.03374
5295.57494,0.03118
5297.50341,0.04410
5299.43188,0.06230
5301.36034,0.06325
5303.28881,0.05784
5305.21728,0.06798
5307.14575,0.07072
5309.07422,0.04994
5311.00269,0.04034
5312.93116,0.04500
5314.85962,0.04027
5316.78809,0.03336
5318.71656,0.03200
5320.64503,0.03028
5322.57350,0.03935
5324.50197,0.06068
5326.43044,0.07086
5328.35891,0.06377
5330.28737,0.05864
5332.21584,0.06401
5334.14431,0.06499
5336.07278,0.05401
5338.00125,0.04475
5339.92972,0.04432
5341.85819,0.04561
5343.78665,0.04500
5345.71512,0.05041
5347.64359,0.06351
5349.57206,0.06448
5351.50053,0.05209
5353.42900,0.05680
5355.35747,0.07141
5357.28594,0.06867
5359.21440,0.06300
5361.14287,0.05099
5363.07134,0.03279
5364.99981,0.04019
5366.92828,0.05344
5368.85675,0.05097
5370.78522,0.06568
5372.71368,0.09135
5374.64215,0.08022
5376.57062,0.04186
5378.49909,0.03374
5380.42756,0.04772
5382.35603,0.05936
5384.28450,0.07079
5386.21297,0.06690
5388.14143,0.03957
5390.06990,0.02116
5391.99837,0.03349
5393.92684,0.06462
5395.85531,0.08317
5397.78378,0.07203
5399.71225,0.04462
5401.64071,0.02862
5403.56918,0.03525
5405.49765,0.05778
5407.42612,0.07535
5409.35459,0.07753
5411.28306,0.07982
5413.21153,0.07676
5415.13999,0.05318
5417.06846,0.03425
5418.99693,0.04054
5420.92540,0.06141
5422.85387,0.06878
5424.78234,0.06015
5426.71081,0.08154
5428.63928,0.13044
5430.56774,0.12900
5432.49621,0.08731
5434.42468,0.06358
5436.35315,0.06449
5438.28162,0.06425
5440.21009,0.05146
5442.13856,0.04049
5444.06702,0.04258
5445.99549,0.05530
5447.92396,0.06520
5449.85243,0.06360
5451.78090,0.07051
5453.70937,0.07489
5455.63784,0.05320
5457.56631,0.04194
5459.49477,0.05935
5461.42324,0.07270
5463.35171,0.08685
5465.28018,0.10624
5467.20865,0.10384
5469.13712,0.07562
5471.06559,0.04699
5472.99405,0.03300
5474.92252,0.03965
5476.85099,0.05601
5478.77946,0.05719
5480.70793,0.05655
5482.63640,0.06722
5484.56487,0.07355
5486.49334,0.07591
5488.42180,0.07760
5490.35027,0.07150
5492.27874,0.05951
5494.20721,0.05070
5496.13568,0.05587
5498.06415,0.05977
5499.99262,0.05365
5501.92108,0.05423
5503.84955,0.05870
5505.77802,0.05968
5507.70649,0.05671
5509.63496,0.05041
5511.56343,0.05104
5513.49190,0.06752
5515.42037,0.09685
5517.34883,0.12255
5519.27730,0.12831
5521.20577,0.11994
5523.13424,0.11030
5525.06271,0.09935
5526.99118,0.08861
5528.91965,0.08096
5530.84811,0.07042
5532.77658,0.05833
5534.70505,0.05785
5536.63352,0.06879
5538.56199,0.07241
5540.49046,0.05562
5542.41893,0.03369
5544.34740,0.04546
5546.27586,0.08921
5548.20433,0.11836
5550.13280,0.11092
5552.06127,0.08716
5553.98974,0.07653
5555.91821,0.06925
5557.84668,0.06016
5559.77514,0.07801
5561.70361,0.10417
5563.63208,0.10357
5565.56055,0.08421
5567.48902,0.07061
5569.41749,0.06751
5571.34596,0.07300
5573.27443,0.10132
5575.20289,0.12695
5577.13136,0.11117
5579.05983,0.07892
5580.98830,0.07281
5582.91677,0.08896
5584.84524,0.09107
5586.77371,0.07185
5588.70217,0.05290
5590.63064,0.05465
5592.55911,0.06558
5594.48758,0.06661
5596.41605,0.07219
5598.34452,0.09427
5600.27299,0.11569
5602.20145,0.12527
5604.12992,0.12773
5606.05839,0.12373
5607.98686,0.12225
5609.91533,0.13293
5611.84380,0.13480
5613.77227,0.11101
5615.70074,0.07912
5617.62920,0.04679
5619.55767,0.03035
5621.48614,0.06121
5623.41461,0.11170
5625.34308,0.12829
5627.27155,0.09929
5629.20002,0.05535
5631.12848,0.03369
5633.05695,0.03660
5634.98542,0.03423
5636.91389,0.01959
5638.84236,0.03645
5640.77083,0.07444
5642.69930,0.08047
5644.62777,0.06859
5646.55623,0.07525
5648.48470,0.09806
5650.41317,0.11097
5652.34164,0.09902
5654.27011,0.07495
5656.19858,0.05802
5658.12705,0.05737
5660.05551,0.07753
5661.98398,0.11195
5663.91245,0.12538
5665.84092,0.08782
5667.76939,0.04574
5669.69786,0.06144
5671.62633,0.09869
5673.55480,0.10062
5675.48326,0.08080
5677.41173,0.06667
5679.34020,0.06044
5681.26867,0.06352
5683.19714,0.07484
5685.12561,0.07085
5687.05408,0.05744
5688.98254,0.05868
5690.91101,0.05068
5692.83948,0.02127
5694.76795,0.01360
5696.69642,0.05487
5698.62489,0.11422
5700.55336,0.13368
5702.48183,0.09868
5704.41029,0.06990
5706.33876,0.07364
5708.26723,0.07085
5710.19570,0.06504
5712.12417,0.08793
5714.05264,0.12437
5715.98111,0.13725
5717.90957,0.13633
5719.83804,0.13396
5721.76651,0.11354
5723.69498,0.09757
5725.62345,0.11105
5727.55192,0.11855
5729.48039,0.08358
5731.40886,0.03975
5733.33732,0.02435
5735.26579,0.02915
5737.19426,0.03484
5739.12273,0.04503
5741.05120,0.06974
5742.97967,0.08304
5744.90814,0.07479
5746.83660,0.06836
5748.76507,0.06004
5750.69354,0.04996
5752.62201,0.06922
5754.55048,0.10125
5756.47895,0.09699
5758.40742,0.07102
5760.33588,0.06320
5762.26435,0.06874
5764.19282,0.07077
5766.12129,0.07663
5768.04976,0.09263
5769.97823,0.10792
5771.90670,0.09868
5773.83517,0.06696
5775.76363,0.05677
5777.69210,0.08595
5779.62057,0.12660
5781.54904,0.14672
5783.47751,0.14071
5785.40598,0.11504
5787.33445,0.07358
5789.26291,0.04742
5791.19138,0.05341
5793.11985,0.06840
5795.04832,0.08864
5796.97679,0.11628
5798.90526,0.10971
5800.83373,0.05355
5802.76220,0.02597
5804.69066,0.06436
5806.61913,0.08688
5808.54760,0.07811
5810.47607,0.08123
5812.40454,0.06890
5814.33301,0.04410
5816.26148,0.03108
5818.18994,0.00725
5820.11841,-0.00284
5822.04688,0.02946
5823.97535,0.05921
5825.90382,0.05658
5827.83229,0.04986
5829.76076,0.06827
5831.68923,0.09931
5833.61769,0.11881
5835.54616,0.13515
5837.47463,0.16475
5839.40310,0.17505
5841.33157,0.15107
5843.26004,0.12995
5845.18851,0.12042
5847.11697,0.11242
5849.04544,0.11103
5850.97391,0.11240
5852.90238,0.11427
5854.83085,0.11355
5856.75932,0.08213
5858.68779,0.04027
5860.61626,0.04778
5862.54472,0.09364
5864.47319,0.11681
5866.40166,0.09786
5868.33013,0.07584
5870.25860,0.09180
5872.18707,0.13277
5874.11554,0.13754
5876.04400,0.10177
5877.97247,0.08714
5879.90094,0.09457
5881.82941,0.10029
5883.75788,0.10870
5885.68635,0.12483
5887.61482,0.13626
5889.54329,0.10689
5891.47175,0.03871
5893.40022,-0.00454
5895.32869,0.00490
5897.25716,0.03220
5899.18563,0.06486
5901.11410,0.10187
5903.04257,0.11996
5904.97103,0.12356
5906.89950,0.13392
5908.82797,0.14404
5910.75644,0.13365
5912.68491,0.10293
5914.61338,0.06776
5916.54185,0.05257
5918.47032,0.06810
5920.39878,0.07871
5922.32725,0.06817
5924.25572,0.06888
5926.18419,0.08584
5928.11266,0.10081
5930.04113,0.11324
5931.96960,0.11600
5933.89806,0.09574
5935.82653,0.08324
5937.75500,0.09814
5939.68347,0.10129
5941.61194,0.07943
5943.54041,0.06078
5945.46888,0.07788
5947.39734,0.13153
5949.32581,0.16552
5951.25428,0.15121
5953.18275,0.13061
5955.11122,0.12553
5957.03969,0.13074
5958.96816,0.13351
5960.89663,0.13061
5962.82509,0.12099
5964.75356,0.06636
5966.68203,-0.00016
5968.61050,0.00345
5970.53897,0.03087
5972.46744,0.04253
5974.39591,0.07322
5976.32437,0.09114
5978.25284,0.09098
5980.18131,0.10252
5982.10978,0.10518
5984.03825,0.10865
5985.96672,0.12906
5987.89519,0.10452
5989.82366,0.02108
5991.75212,-0.02937
5993.68059,0.00633
5995.60906,0.07749
5997.53753,0.10554
5999.46600,0.08300
6001.39447,0.05277
6003.32294,0.03697
6005.25140,0.03209
6007.17987,0.04245
6009.10834,0.05850
6011.03681,0.06267
6012.96528,0.06652
6014.89375,0.06711
6016.82222,0.04890
6018.75069,0.03803
6020.67915,0.05314
6022.60762,0.07241
6024.53609,0.08625
6026.46456,0.09722
6028.39303,0.10978
6030.32150,0.12802
6032.24997,0.13228
6034.17843,0.11876
6036.10690,0.13797
6038.03537,0.17154
6039.96384,0.14526
6041.89231,0.08518
6043.82078,0.04311
6045.74925,0.02625
6047.67772,0.04121
6049.60618,0.08445
6051.53465,0.12693
6053.46312,0.12182
6055.39159,0.05102
6057.32006,0.00554
6059.24853,0.04301
6061.17700,0.09042
6063.10546,0.09630
6065.03393,0.07713
6066.96240,0.06369
6068.89087,0.05822
6070.81934,0.03679
6072.74781,0.00343
6074.67628,-0.01068
6076.60475,0.01671
6078.53321,0.06788
6080.46168,0.09910
6082.39015,0.10620
6084.31862,0.08565
6086.24709,0.02932
6088.17556,0.01622
6090.10403,0.07542
6092.03249,0.12130
6093.96096,0.13615
6095.88943,0.15401
6097.81790,0.14109
6099.74637,0.08017
6101.67484,0.02753
6103.60331,0.00108
6105.53177,-0.01891
6107.46024,-0.00226
6109.38871,0.05908
6111.31718,0.10989
6113.24565,0.11642
6115.17412,0.09086
6117.10259,0.07083
6119.03106,0.07108
6120.95952,0.07947
6122.88799,0.09960
6124.81646,0.12895
6126.74493,0.12823
6128.67340,0.07273
6130.60187,0.03474
6132.53034,0.05410
6134.45880,0.07257
6136.38727,0.06539
6138.31574,0.05056
6140.24421,0.05208
6142.17268,0.07876
6144.10115,0.09293
6146.02962,0.08252
6147.95809,0.11167
6149.88655,0.16839
6151.81502,0.15704
6153.74349,0.11734
6155.67196,0.12939
6157.60043,0.14657
6159.52890,0.12914
6161.45737,0.11953
6163.38583,0.16059
6165.31430,0.18367
6167.24277,0.12819
6169.17124,0.06327
6171.09971,0.04902
6173.02818,0.06791
6174.95665,0.10033
6176.88512,0.13595
6178.81358,0.13753
6180.74205,0.10836
6182.67052,0.10332
6184.59899,0.11873
6186.52746,0.12135
6188.45593,0.11160
6190.38440,0.09885
6192.31286,0.10382
6194.24133,0.10718
6196.16980,0.08482
6198.09827,0.07921
6200.02674,0.08887
6201.95521,0.07382
6203.88368,0.04842
6205.81215,0.03182
6207.74061,0.02890
6209.66908,0.05601
6211.59755,0.06367
6213.52602,0.04671
6215.45449,0.08184
6217.38296,0.10169
6219.31143,0.04929
6221.23989,0.03891
6223.16836,0.08567
6225.09683,0.06878
6227.02530,0.01988
6228.95377,0.01806
6230.88224,0.04034
6232.81071,0.09840
6234.73918,0.15086
6236.66764,0.11623
6238.59611,0.02182
6240.52458,-0.01496
6242.45305,0.06524
6244.38152,0.12774
6246.30999,0.08132
6248.23846,0.03531
6250.16692,0.05344
6252.09539,0.06846
6254.02386,0.04859
6255.95233,0.02082
6257.88080,0.02020
6259.80927,0.06556
6261.73774,0.08774
6263.66621,0.05095
6265.59467,0.05195
6267.52314,0.09476
6269.45161,0.07990
6271.38008,0.05216
6273.30855,0.07292
6275.23702,0.08423
6277.16549,0.04330
6279.09395,0.00694
6281.02242,0.02685
6282.95089,0.06561
6284.87936,0.05923
6286.80783,0.05848
6288.73630,0.11844
6290.66477,0.17951
6292.59323,0.18307
6294.52170,0.15684
6296.45017,0.14868
6298.37864,0.17356
6300.30711,0.17942
6302.23558,0.10777
6304.16405,0.05036
6306.09252,0.08229
6308.02098,0.10413
6309.94945,0.05822
6311.87792,0.01621
6313.80639,0.03566
6315.73486,0.07197
6317.66333,0.05785
6319.59180,0.00713
6321.52026,-0.01357
6323.44873,0.03152
6325.37720,0.06326
6327.30567,0.02668
6329.23414,-0.01632
6331.16261,-0.05096
6333.09108,-0.06936
6335.01955,-0.02153
6336.94801,0.02789
6338.87648,0.02601
6340.80495,0.02473
6342.73342,0.04645
6344.66189,0.07236
6346.59036,0.07520
6348.51883,0.07105
6350.44729,0.09091
6352.37576,0.08338
6354.30423,0.04939
6356.23270,0.03615
6358.16117,0.04221
6360.08964,0.05652
6362.01811,0.06105
6363.94658,0.04845
6365.87504,0.07677
6367.80351,0.19522
6369.73198,0.26382
6371.66045,0.17596
6373.58892,0.09207
6375.51739,0.10833
6377.44586,0.10634
6379.37432,0.06789
6381.30279,0.07148
6383.23126,0.12001
6385.15973,0.13426
6387.08820,0.10362
6389.01667,0.09489
6390.94514,0.11972
6392.87361,0.10981
6394.80207,0.06089
6396.73054,0.05130
6398.65901,0.06991
6400.58748,0.08563
6402.51595,0.10723
6404.44442,0.11517
6406.37289,0.09590
6408.30135,0.08555
6410.22982,0.07951
6412.15829,0.03988
6414.08676,0.01926
6416.01523,0.03890
6417.94370,0.01250
6419.87217,-0.04928
6421.80064,-0.02131
6423.72910,0.10681
6425.65757,0.21679
6427.58604,0.24475
6429.51451,0.27072
6431.44298,0.30020
6433.37145,0.26173
6435.29992,0.20722
6437.22838,0.17194
6439.15685,0.11968
6441.08532,0.07165
6443.01379,0.03266
6444.94226,0.00853
6446.87073,0.02241
6448.79920,0.03605
6450.72766,0.03529
6452.65613,0.04103
6454.58460,0.05339
6456.51307,0.09189
6458.44154,0.14792
6460.37001,0.15273
6462.29848,0.11071
6464.22695,0.09199
6466.15541,0.11643
6468.08388,0.15221
6470.01235,0.12931
6471.94082,0.06224
6473.86929,0.01563
6475.79776,-0.00690
6477.72623,0.01779
6479.65469,0.03760
6481.58316,0.00919
6483.51163,0.01094
6485.44010,0.05338
6487.36857,0.06042
6489.29704,0.02212
6491.22551,0.00752
6493.15398,0.06168
6495.08244,0.15063
6497.01091,0.18008
6498.93938,0.12256
6500.86785,0.03020
6502.79632,-0.03381
6504.72479,-0.01545
6506.65326,0.04249
6508.58172,0.07569
6510.51019,0.07197
6512.43866,0.01520
6514.36713,-0.03819
6516.29560,-0.02574
6518.22407,-0.00782
6520.15254,-0.01223
6522.08101,0.03260
6524.00947,0.09379
6525.93794,0.10146
6527.86641,0.11849
6529.79488,0.13924
6531.72335,0.11764
6533.65182,0.09856
6535.58029,0.11802
6537.50875,0.14302
6539.43722,0.11289
6541.36569,0.04619
6543.29416,0.01092
6545.22263,0.00560
6547.15110,0.01796
6549.07957,0.05053
6551.00804,0.09271
6552.93650,0.12961
6554.86497,0.09829
6556.79344,0.02853
6558.72191,0.04550
6560.65038,0.12859
6562.57885,0.15559
6564.50732,0.08697
6566.43578,-0.01814
6568.36425,-0.07297
6570.29272,-0.02748
6572.22119,0.06757
6574.14966,0.11948
6576.07813,0.11592
6578.00660,0.05358
6579.93507,-0.04580
6581.86353,-0.06739
6583.79200,0.01101
6585.72047,0.07419
6587.64894,0.12409
6589.57741,0.16726
6591.50588,0.16610
6593.43435,0.11708
6595.36281,0.01472
6597.29128,-0.05775
6599.21975,-0.05889
6601.14822,-0.05463
6603.07669,-0.08150
6605.00516,-0.10613
6606.93363,-0.08952
6608.86210,-0.03831
6610.79056,0.01957
6612.71903,0.02806
6614.64750,-0.05779
6616.57597,-0.11055
6618.50444,-0.02424
6620.43291,0.08009
6622.36138,0.13521
6624.28984,0.17543
6626.21831,0.20554
6628.14678,0.18532
6630.07525,0.11585
6632.00372,0.11483
6633.93219,0.15958
6635.86066,0.09738
6637.78912,-0.01882
6639.71759,-0.03917
6641.64606,0.03113
6643.57453,0.14939
6645.50300,0.24078
6647.43147,0.20157
6649.35994,0.09423
6651.28841,0.05822
6653.21687,0.08979
6655.14534,0.08143
6657.07381,0.01570
6659.00228,0.02417
6660.93075,0.09192
6662.85922,0.09228
6664.78769,0.03445
6666.71615,0.01469
6668.64462,0.08609
6670.57309,0.18953
6672.50156,0.25126
6674.43003,0.27449
6676.35850,0.27309
6678.28697,0.25668
6680.21544,0.26257
6682.14390,0.25301
6684.07237,0.16743
6686.00084,0.07417
6687.92931,0.05745
6689.85778,0.09169
6691.78625,0.10024
6693.71472,0.06419
6695.64318,-0.00098
6697.57165,-0.04062
6699.50012,0.00165
6701.42859,0.08518
6703.35706,0.11102
6705.28553,0.06417
6707.21400,0.07004
6709.14247,0.16266
6711.07093,0.20992
6712.99940,0.21594
6714.92787,0.24613
6716.85634,0.21898
6718.78481,0.11450
6720.71328,0.04701
6722.64175,0.02775
6724.57021,0.03335
6726.49868,0.06874
6728.42715,0.12103
6730.35562,0.15544
6732.28409,0.14838
6734.21256,0.14818
6736.14103,0.15875
6738.06950,0.16319
6739.99796,0.16024
6741.92643,0.12848
6743.85490,0.09692
6745.78337,0.07186
6747.71184,0.04953
6749.64031,0.04632
6751.56878,0.03903
6753.49724,0.03902
6755.42571,0.03742
6757.35418,0.03366
6759.28265,0.10217
6761.21112,0.15838
6763.13959,0.11529
6765.06806,0.08216
6766.99653,0.05668
6768.92499,0.00129
6770.85346,-0.06269
6772.78193,-0.12146
6774.71040,-0.12133
6776.63887,-0.04538
6778.56734,-0.00737
6780.49581,-0.05370
6782.42427,-0.09560
6784.35274,-0.04321
6786.28121,0.07766
6788.20968,0.16830
6790.13815,0.20415
6792.06662,0.20037
6793.99509,0.12670
6795.92355,0.03164
6797.85202,0.02299
6799.78049,0.10349
6801.70896,0.16441
6803.63743,0.08557
6805.56590,-0.06242
6807.49437,-0.10494
6809.42284,-0.02689
6811.35130,0.08337
6813.27977,0.14513
6815.20824,0.12608
6817.13671,0.05335
6819.06518,0.02874
6820.99365,0.06836
6822.92212,0.08037
6824.85058,0.04082
6826.77905,0.02993
6828.70752,0.05793
6830.63599,0.06792
6832.56446,0.05806
6834.49293,0.06010
6836.42140,0.05165
6838.34987,0.04973
6840.27833,0.11977
6842.20680,0.17196
6844.13527,0.13609
6846.06374,0.12797
6847.99221,0.15091
6849.92068,0.13549
6851.84915,0.15541
6853.77761,0.18030
6855.70608,0.10871
6857.63455,-0.02039
6859.56302,-0.09363
6861.49149,-0.09120
6863.41996,-0.03429
6865.34843,0.08438
6867.27690,0.21795
6869.20536,0.24608
6871.13383,0.15342
6873.06230,0.06493
6874.99077,0.10228
6876.91924,0.13628
6878.84771,0.02468
6880.77618,-0.10426
6882.70464,-0.11919
6884.63311,-0.13017
6886.56158,-0.16624
6888.49005,-0.12968
6890.41852,-0.05263
6892.34699,-0.00024
6894.27546,0.08498
6896.20393,0.20732
6898.13239,0.27834
6900.06086,0.24851
6901.98933,0.17044
6903.91780,0.13737
6905.84627,0.17699
6907.77474,0.19844
6909.70321,0.13445
6911.63167,0.03014
6913.56014,-0.00415
6915.48861,0.04968
6917.41708,0.11613
6919.34555,0.16036
6921.27402,0.18825
6923.20249,0.17258
6925.13096,0.08952
6927.05942,0.02401
6928.98789,0.06589
6930.91636,0.17247
6932.84483,0.24022
6934.77330,0.18776
6936.70177,0.06156
6938.63024,0.00527
6940.55870,0.02514
6942.48717,-0.00368
6944.41564,-0.03607
6946.34411,-0.03674
6948.27258,-0.05805
6950.20105,-0.05676
6952.12952,0.01464
6954.05799,0.04573
6955.98645,0.03125
6957.91492,0.09023
6959.84339,0.10507
6961.77186,0.01543
6963.70033,-0.05126
6965.62880,-0.06042
6967.55727,-0.01859
6969.48573,0.08941
6971.41420,0.20458
6973.34267,0.24977
6975.27114,0.25066
6977.19961,0.28241
6979.12808,0.32403
6981.05655,0.27928
6982.98501,0.15672
6984.91348,0.09337
6986.84195,0.08265
6988.77042,0.02158
6990.69889,-0.04492
6992.62736,-0.02414
6994.55583,0.07086
6996.48430,0.18236
6998.41276,0.26171
7000.34123,0.25028
7002.26970,0.16740
7004.19817,0.09470
7006.12664,0.07766
7008.05511,0.11956
7009.98358,0.13963
7011.91204,0.12289
7013.84051,0.08796
7015.76898,0.04081
7017.69745,0.04176
7019.62592,0.12476
7021.55439,0.22624
7023.48286,0.19850
7025.41133,0.07040
7027.33979,0.02034
7029.26826,0.00427
7031.19673,-0.03073
7033.12520,-0.02293
7035.05367,0.01820
7036.98214,0.06886
7038.91061,0.12097
7040.83907,0.18926
7042.76754,0.32222
7044.69601,0.40578
7046.62448,0.20358
7048.55295,-0.10288
7050.48142,-0.16849
7052.40989,-0.03226
7054.33836,0.16005
7056.26682,0.33099
7058.19529,0.35692
7060.12376,0.23969
7062.05223,0.16982
7063.98070,0.14369
7065.90917,0.03847
7067.83764,-0.08690
7069.76610,-0.07020
7071.69457,0.06056
7073.62304,0.03118
7075.55151,-0.11580
7077.47998,-0.14683
7079.40845,-0.01659
7081.33692,0.15902
7083.26539,0.17844
7085.19385,0.10550
7087.12232,0.16278
7089.05079,0.26121
7090.97926,0.17901
7092.90773,0.05499
7094.83620,0.04581
7096.76467,0.05017
7098.69313,0.00200
7100.62160,0.00882
7102.55007,0.04037
7104.47854,0.02109
7106.40701,-0.00529
7108.33548,0.02217
7110.26395,0.15440
7112.19242,0.32567
7114.12088,0.34159
7116.04935,0.18174
7117.97782,0.03316
7119.90629,0.05718
7121.83476,0.14370
7123.76323,0.21001
7125.69170,0.23107
7127.62016,0.15759
7129.54863,0.06209
7131.47710,0.02712
7133.40557,0.01499
7135.33404,-0.00237
7137.26251,-0.00178
7139.19098,-0.02736
7141.11944,-0.13114
7143.04791,-0.16895
7144.97638,-0.03534
7146.90485,0.05592
7148.83332,0.02421
7150.76179,0.04802
7152.69026,0.12989
7154.61873,0.13699
7156.54719,0.10875
7158.47566,0.13744
7160.40413,0.14818
7162.33260,0.12277
7164.26107,0.17344
7166.18954,0.22690
7168.11801,0.18230
7170.04647,0.17433
7171.97494,0.23934
7173.90341,0.24275
7175.83188,0.15493
7177.76035,0.11304
7179.68882,0.20742
7181.61729,0.36100
7183.54576,0.43904
7185.47422,0.37508
7187.40269,0.30357
7189.33116,0.25479
7191.25963,0.12549
7193.18810,0.05399
7195.11657,0.12321
7197.04504,0.15785
7198.97350,0.14695
7200.90197,0.09118
7202.83044,-0.03695
7204.75891,-0.02957
7206.68738,0.15440
7208.61585,0.20663
7210.54432,0.14836
7212.47279,0.12384
7214.40125,0.15101
7216.32972,0.11998
7218.25819,-0.05936
7220.18666,-0.21391
7222.11513,-0.18157
7224.04360,-0.01014
7225.97207,0.09715
7227.90053,-0.00189
7229.82900,-0.12171
7231.75747,-0.06501
7233.68594,0.02621
7235.61441,-0.04528
7237.54288,-0.14675
7239.47135,-0.06479
7241.39982,0.11343
7243.32828,0.19194
7245.25675,0.09909
7247.18522,-0.02303
7249.11369,-0.03015
7251.04216,0.08192
7252.97063,0.20440
7254.89910,0.14392
7256.82756,-0.03461
7258.75603,-0.07324
7260.68450,0.13271
7262.61297,0.29041
7264.54144,0.21864
7266.46991,0.17626
7268.39838,0.24438
7270.32685,0.29088
7272.25531,0.29371
7274.18378,0.29240
7276.11225,0.24631
7278.04072,0.09244
7279.96919,-0.14024
7281.89766,-0.18691
7283.82613,-0.05359
7285.75459,0.07588
7287.68306,0.11036
7289.61153,0.08626
7291.54000,0.09303
7293.46847,0.15016
7295.39694,0.23856
7297.32541,0.28092
7299.25387,0.24217
7301.18234,0.14960
7303.11081,0.06896
7305.03928,0.09875
7306.96775,0.12110
7308.89622,-0.00229
7310.82469,-0.07719
7312.75316,0.01999
7314.68162,0.21194
7316.61009,0.39082
7318.53856,0.44260
7320.46703,0.41937
7322.39550,0.21713
7324.32397,-0.11035
7326.25244,-0.36832
7328.18090,-0.49575
7330.10937,-0.24911
7332.03784,0.07544
7333.96631,0.11223
7335.89478,0.11399
7337.82325,0.19560
7339.75172,0.18676
7341.68019,0.08984
7343.60865,0.15574
7345.53712,0.26271
7347.46559,0.19678
7349.39406,0.01614
7351.32253,-0.06933
7353.25100,0.07566
7355.17947,0.40075
7357.10793,0.64785
7359.03640,0.47848
7360.96487,0.15147
7362.89334,-0.02532
7364.82181,-0.24805
7366.75028,-0.43609
7368.67875,-0.36635
7370.60722,-0.13390
7372.53568,0.08624
7374.46415,0.25109
7376.39262,0.26496
7378.32109,0.17338
7380.24956,0.08662
7382.17803,0.03702
7384.10650,0.00739
7386.03496,-0.00355
7387.96343,0.06369
7389.89190,0.16500
7391.82037,0.20071
7393.74884,0.09975
7395.67731,-0.05693
7397.60578,-0.01573
7399.53425,0.19126
7401.46271,0.31450
7403.39118,0.30165
7405.31965,0.28420
7407.24812,0.29542
7409.17659,0.29001
7411.10506,0.28366
7413.03353,0.27014
7414.96199,0.27582
7416.89046,0.30294
7418.81893,0.21051
7420.74740,0.00165
7422.67587,-0.11779
7424.60434,-0.08386
7426.53281,0.04852
7428.46128,0.16275
7430.38974,0.20891
7432.31821,0.15497
7434.24668,-0.01169
7436.17515,-0.15738
7438.10362,-0.13936
7440.03209,-0.04962
7441.96056,-0.06363
7443.88902,-0.07284
7445.81749,0.02383
7447.74596,0.10973
7449.67443,0.14492
7451.60290,0.10110
7453.53137,0.00271
7455.45984,-0.01673
7457.38831,0.04697
7459.31677,0.08009
7461.24524,-0.00891
7463.17371,-0.03346
7465.10218,-0.01673
7467.03065,-0.16127
7468.95912,-0.28723
7470.88759,-0.15620
7472.81605,0.08944
7474.74452,0.22998
7476.67299,0.31334
7478.60146,0.30327
7480.52993,0.14875
7482.45840,-0.05986
7484.38687,-0.13569
7486.31533,-0.01393
7488.24380,0.10362
7490.17227,0.10958
7492.10074,0.14864
7494.02921,0.18980
7495.95768,0.16070
7497.88615,0.16570
