399.19301,0.82108
401.12148,-0.21051
403.04995,-0.06082
404.97842,-0.12420
406.90689,-0.12027
408.83536,-0.04158
410.76382,-0.00509
412.69229,-0.02735
414.62076,-0.02269
416.54923,0.08093
418.47770,0.21253
420.40617,0.11324
422.33464,0.01457
424.26311,0.06750
426.19157,0.11473
428.12004,0.08870
430.04851,0.00911
431.97698,-0.03296
433.90545,0.02912
435.83392,0.10287
437.76239,0.11927
439.69085,0.07496
441.61932,0.02758
443.54779,0.06695
445.47626,0.17193
447.40473,0.20362
449.33320,0.11089
451.26167,-0.00028
453.19013,-0.05313
455.11860,-0.05896
457.04707,-0.05027
458.97554,-0.01748
460.90401,0.05897
462.83248,0.13156
464.76095,0.14111
466.68942,0.06697
468.61788,-0.02228
470.54635,0.00477
472.47482,0.15802
474.40329,0.20914
476.33176,0.10300
478.26023,0.05227
480.18870,0.06191
482.11716,0.09243
484.04563,0.14632
485.97410,0.18008
487.90257,0.12967
489.83104,0.08029
491.75951,0.10852
493.68798,0.11635
495.61645,0.07537
497.54491,0.08583
499.47338,0.13520
501.40185,0.14871
503.33032,0.12843
505.25879,0.13263
507.18726,0.17737
509.11573,0.20826
511.04419,0.19508
512.97266,0.15920
514.90113,0.11644
516.82960,0.08269
518.75807,0.08046
520.68654,0.05589
522.61501,-0.00619
524.54348,-0.01391
526.47194,0.05563
528.40041,0.12009
530.32888,0.14531
532.25735,0.13926
534.18582,0.13018
536.11429,0.14587
538.04276,0.15431
539.97122,0.12512
541.89969,0.09727
543.82816,0.09497
545.75663,0.10007
547.68510,0.12495
549.61357,0.15871
551.54204,0.19319
553.47051,0.23407
555.39897,0.20669
557.32744,0.11648
559.25591,0.06427
561.18438,0.07235
563.11285,0.11775
565.04132,0.16421
566.96979,0.16649
568.89825,0.13084
570.82672,0.11150
572.75519,0.11449
574.68366,0.12335
576.61213,0.14291
578.54060,0.17482
580.46907,0.20131
582.39754,0.18295
584.32600,0.13844
586.25447,0.11590
588.18294,0.10679
590.11141,0.08959
592.03988,0.09117
593.96835,0.12433
595.89682,0.13860
597.82528,0.13522
599.75375,0.13626
601.68222,0.13046
603.61069,0.14474
605.53916,0.16915
607.46763,0.16147
609.39610,0.14486
611.32456,0.13409
613.25303,0.11494
615.18150,0.09322
617.10997,0.08379
619.03844,0.08691
620.96691,0.09720
622.89538,0.11386
624.82385,0.12618
626.75231,0.12757
628.68078,0.12232
630.60925,0.12513
632.53772,0.14877
634.46619,0.16215
636.39466,0.14685
638.32313,0.13905
640.25159,0.14770
642.18006,0.14057
644.10853,0.12288
646.03700,0.11762
647.96547,0.10888
649.89394,0.09591
651.82241,0.10397
653.75088,0.12643
655.67934,0.14511
657.60781,0.15359
659.53628,0.14616
661.46475,0.12520
663.39322,0.10672
665.32169,0.09405
667.25016,0.08166
669.17862,0.09344
671.10709,0.11720
673.03556,0.12212
674.96403,0.12442
676.89250,0.13571
678.82097,0.13939
680.74944,0.12201
682.67791,0.09622
684.60637,0.08260
686.53484,0.08617
688.46331,0.10538
690.39178,0.13432
692.32025,0.15636
694.24872,0.16256
696.17719,0.15441
698.10565,0.13419
700.03412,0.11336
701.96259,0.11215
703.89106,0.12895
705.81953,0.14102
707.74800,0.14210
709.67647,0.14093
711.60494,0.14305
713.53340,0.14430
715.46187,0.14123
717.39034,0.13931
719.31881,0.13939
721.24728,0.13746
723.17575,0.12828
725.10422,0.11392
727.03268,0.10955
728.96115,0.11724
730.88962,0.12890
732.81809,0.13984
734.74656,0.14159
736.67503,0.13482
738.60350,0.12646
740.53197,0.12385
742.46043,0.12828
744.38890,0.13246
746.31737,0.13113
748.24584,0.12566
750.17431,0.12383
752.10278,0.12245
754.03125,0.12111
755.95971,0.13037
757.88818,0.14623
759.81665,0.15195
761.74512,0.13993
763.67359,0.12317
765.60206,0.11173
767.53053,0.10539
769.45900,0.10962
771.38746,0.12343
773.31593,0.13856
775.24440,0.15076
777.17287,0.15278
779.10134,0.14331
781.02981,0.13197
782.95828,0.12875
784.88674,0.14169
786.81521,0.15895
788.74368,0.16132
790.67215,0.14798
792.60062,0.12779
794.52909,0.11771
796.45756,0.12239
798.38602,0.12235
800.31449,0.11896
802.24296,0.13330
804.17143,0.15306
806.09990,0.15255
808.02837,0.13396
809.95684,0.12155
811.88531,0.12934
813.81377,0.14404
815.74224,0.15029
817.67071,0.14176
819.59918,0.12553
821.52765,0.12060
823.45612,0.13426
825.38459,0.14803
827.31305,0.13978
829.24152,0.12780
831.16999,0.13342
833.09846,0.14397
835.02693,0.15153
836.95540,0.15861
838.88387,0.15854
840.81234,0.15126
842.74080,0.14655
844.66927,0.14247
846.59774,0.13414
848.52621,0.12668
850.45468,0.12223
852.38315,0.12374
854.31162,0.12884
856.24008,0.12781
858.16855,0.12622
860.09702,0.13150
862.02549,0.13702
863.95396,0.14056
865.88243,0.14425
867.81090,0.14852
869.73937,0.15852
871.66783,0.16602
873.59630,0.16093
875.52477,0.15365
877.45324,0.15053
879.38171,0.15085
881.31018,0.14932
883.23865,0.14031
885.16711,0.13209
887.09558,0.12674
889.02405,0.12231
890.95252,0.13057
892.88099,0.14945
894.80946,0.15651
896.73793,0.14687
898.66640,0.13537
900.59486,0.13573
902.52333,0.14929
904.45180,0.15843
906.38027,0.15185
908.30874,0.13689
910.23721,0.12952
912.16568,0.14179
914.09414,0.15771
916.02261,0.15501
917.95108,0.14369
919.87955,0.14237
921.80802,0.14843
923.73649,0.15318
925.66496,0.15637
927.59343,0.15761
929.52189,0.15283
931.45036,0.14351
933.37883,0.13863
935.30730,0.14410
937.23577,0.15240
939.16424,0.15124
941.09271,0.14239
943.02117,0.13767
944.94964,0.14123
946.87811,0.14449
948.80658,0.14155
950.73505,0.14103
952.66352,0.14522
954.59199,0.14700
956.52045,0.14693
958.44892,0.14816
960.37739,0.15031
962.30586,0.15104
964.23433,0.14999
966.16280,0.14885
968.09127,0.14589
970.01974,0.14081
971.94820,0.14119
973.87667,0.14742
975.80514,0.14883
977.73361,0.14866
979.66208,0.15564
981.59055,0.16546
983.51902,0.17313
985.44748,0.17515
987.37595,0.16917
989.30442,0.16077
991.23289,0.15670
993.16136,0.15951
995.08983,0.16586
997.01830,0.16533
998.94677,0.15661
1000.87523,0.14975
1002.80370,0.15030
1004.73217,0.15377
1006.66064,0.15398
1008.58911,0.15573
1010.51758,0.15903
1012.44605,0.15646
1014.37451,0.15052
1016.30298,0.14735
1018.23145,0.15077
1020.15992,0.15428
1022.08839,0.15179
1024.01686,0.15121
1025.94533,0.15557
1027.87380,0.15893
1029.80226,0.15771
1031.73073,0.15474
1033.65920,0.15653
1035.58767,0.16246
1037.51614,0.16481
1039.44461,0.16502
1041.37308,0.16803
1043.30154,0.16858
1045.23001,0.16564
1047.15848,0.16380
1049.08695,0.16416
1051.01542,0.16606
1052.94389,0.16733
1054.87236,0.16856
1056.80083,0.17240
1058.72929,0.17482
1060.65776,0.16710
1062.58623,0.15479
1064.51470,0.15205
1066.44317,0.15506
1068.37164,0.15576
1070.30011,0.16013
1072.22857,0.16910
1074.15704,0.17013
1076.08551,0.15904
1078.01398,0.14652
1079.94245,0.14073
1081.87092,0.14549
1083.79939,0.15889
1085.72786,0.16851
1087.65632,0.17078
1089.58479,0.17164
1091.51326,0.17130
1093.44173,0.17150
1095.37020,0.17530
1097.29867,0.18067
1099.22714,0.18559
1101.15560,0.18936
1103.08407,0.18805
1105.01254,0.17842
1106.94101,0.16517
1108.86948,0.15807
1110.79795,0.16019
1112.72642,0.16571
1114.65489,0.16819
1116.58335,0.16377
1118.51182,0.16133
1120.44029,0.16851
1122.36876,0.17275
1124.29723,0.16987
1126.22570,0.16778
1128.15417,0.16487
1130.08263,0.15917
1132.01110,0.15619
1133.93957,0.15868
1135.86804,0.16101
1137.79651,0.15999
1139.72498,0.15989
1141.65345,0.16330
1143.58191,0.16873
1145.51038,0.16939
1147.43885,0.16129
1149.36732,0.15556
1151.29579,0.16055
1153.22426,0.16690
1155.15273,0.16671
1157.08120,0.16558
1159.00966,0.16631
1160.93813,0.16510
1162.86660,0.16407
1164.79507,0.16606
1166.72354,0.16863
1168.65201,0.16753
1170.58048,0.16572
1172.50894,0.16870
1174.43741,0.17148
1176.36588,0.17055
1178.29435,0.17016
1180.22282,0.17272
1182.15129,0.17542
1184.07976,0.17526
1186.00823,0.17459
1187.93669,0.17399
1189.86516,0.17049
1191.79363,0.16683
1193.72210,0.16702
1195.65057,0.16966
1197.57904,0.16963
1199.50751,0.16197
1201.43597,0.15595
1203.36444,0.16207
1205.29291,0.16898
1207.22138,0.16673
1209.14985,0.16184
1211.07832,0.15987
1213.00679,0.15879
1214.93526,0.15782
1216.86372,0.16073
1218.79219,0.16460
1220.72066,0.16397
1222.64913,0.16351
1224.57760,0.16789
1226.50607,0.17334
1228.43454,0.17432
1230.36300,0.17048
1232.29147,0.16602
1234.21994,0.16312
1236.14841,0.16359
1238.07688,0.16791
1240.00535,0.17115
1241.93382,0.17240
1243.86229,0.17271
1245.79075,0.16977
1247.71922,0.16509
1249.64769,0.16216
1251.57616,0.16180
1253.50463,0.16381
1255.43310,0.16690
1257.36157,0.16778
1259.29003,0.16541
1261.21850,0.16295
1263.14697,0.16346
1265.07544,0.16575
1267.00391,0.16676
1268.93238,0.16854
1270.86085,0.17138
1272.78932,0.17036
1274.71778,0.16723
1276.64625,0.16656
1278.57472,0.16713
1280.50319,0.16628
1282.43166,0.16546
1284.36013,0.16760
1286.28860,0.17007
1288.21706,0.17067
1290.14553,0.17222
1292.07400,0.17466
1294.00247,0.17491
1295.93094,0.17266
1297.85941,0.16922
1299.78788,0.16374
1301.71634,0.15821
1303.64481,0.15787
1305.57328,0.16252
1307.50175,0.16627
1309.43022,0.16586
1311.35869,0.16488
1313.28716,0.16630
1315.21563,0.17080
1317.14409,0.17747
1319.07256,0.17951
1321.00103,0.17597
1322.92950,0.17439
1324.85797,0.17463
1326.78644,0.17313
1328.71491,0.17221
1330.64337,0.17338
1332.57184,0.17394
1334.50031,0.17430
1336.42878,0.17886
1338.35725,0.18523
1340.28572,0.17934
1342.21419,0.14835
1344.14266,0.10241
1346.07112,0.08382
1347.99959,0.11850
1349.92806,0.16295
1351.85653,0.17641
1353.78500,0.17457
1355.71347,0.17388
1357.64194,0.17164
1359.57040,0.16922
1361.49887,0.17096
1363.42734,0.17503
1365.35581,0.17753
1367.28428,0.17850
1369.21275,0.17731
1371.14122,0.17773
1373.06969,0.18483
1374.99815,0.19165
1376.92662,0.19038
1378.85509,0.18339
1380.78356,0.17401
1382.71203,0.17012
1384.64050,0.17645
1386.56897,0.18531
1388.49743,0.18329
1390.42590,0.17422
1392.35437,0.17412
1394.28284,0.18829
1396.21131,0.20162
1398.13978,0.19950
1400.06825,0.19059
1401.99672,0.18597
1403.92518,0.18438
1405.85365,0.18064
1407.78212,0.17719
1409.71059,0.17910
1411.63906,0.18435
1413.56753,0.18954
1415.49600,0.19651
1417.42446,0.20352
1419.35293,0.19932
1421.28140,0.19054
1423.20987,0.18923
1425.13834,0.18882
1427.06681,0.18794
1428.99528,0.19078
1430.92375,0.19126
1432.85221,0.18627
1434.78068,0.18507
1436.70915,0.18807
1438.63762,0.18596
1440.56609,0.18247
1442.49456,0.18141
1444.42303,0.18168
1446.35149,0.18335
1448.27996,0.18477
1450.20843,0.18478
1452.13690,0.19107
1454.06537,0.21003
1455.99384,0.23732
1457.92231,0.23829
1459.85077,0.21058
1461.77924,0.19738
1463.70771,0.19795
1465.63618,0.19853
1467.56465,0.19614
1469.49312,0.20097
1471.42159,0.21522
1473.35006,0.22427
1475.27852,0.21654
1477.20699,0.20320
1479.13546,0.19138
1481.06393,0.18567
1482.99240,0.18678
1484.92087,0.19243
1486.84934,0.20232
1488.77780,0.21056
1490.70627,0.20419
1492.63474,0.19511
1494.56321,0.19601
1496.49168,0.20177
1498.42015,0.20157
1500.34862,0.19132
1502.27709,0.17547
1504.20555,0.17088
1506.13402,0.20749
1508.06249,0.24300
1509.99096,0.22413
1511.91943,0.20983
1513.84790,0.20964
1515.77637,0.21733
1517.70483,0.21997
1519.63330,0.21814
1521.56177,0.22162
1523.49024,0.21997
1525.41871,0.21564
1527.34718,0.21293
1529.27565,0.20971
1531.20412,0.21032
1533.13258,0.21442
1535.06105,0.21544
1536.98952,0.22259
1538.91799,0.25038
1540.84646,0.27276
1542.77493,0.24954
1544.70340,0.22443
1546.63186,0.20840
1548.56033,0.20086
1550.48880,0.20010
1552.41727,0.20322
1554.34574,0.21096
1556.27421,0.22499
1558.20268,0.24288
1560.13115,0.22856
1562.05961,0.20405
1563.98808,0.19425
1565.91655,0.19427
1567.84502,0.19820
1569.77349,0.19797
1571.70196,0.19456
1573.63043,0.19886
1575.55889,0.20966
1577.48736,0.20673
1579.41583,0.19202
1581.34430,0.18387
1583.27277,0.18347
1585.20124,0.18477
1587.12971,0.18399
1589.05818,0.18180
1590.98664,0.18090
1592.91511,0.18161
1594.84358,0.18147
1596.77205,0.17970
1598.70052,0.17851
1600.62899,0.17922
1602.55746,0.18074
1604.48592,0.18336
1606.41439,0.18731
1608.34286,0.18874
1610.27133,0.18599
1612.19980,0.18546
1614.12827,0.19262
1616.05674,0.20256
1617.98521,0.19947
1619.91367,0.19471
1621.84214,0.20268
1623.77061,0.21067
1625.69908,0.20746
1627.62755,0.20301
1629.55602,0.19727
1631.48449,0.19413
1633.41295,0.20361
1635.34142,0.22197
1637.26989,0.21958
1639.19836,0.20617
1641.12683,0.20232
1643.05530,0.20734
1644.98377,0.22114
1646.91223,0.23771
1648.84070,0.23715
1650.76917,0.23767
1652.69764,0.24847
1654.62611,0.23319
1656.55458,0.21064
1658.48305,0.19972
1660.41152,0.19531
1662.33998,0.19465
1664.26845,0.19563
1666.19692,0.19923
1668.12539,0.20857
1670.05386,0.21588
1671.98233,0.21482
1673.91080,0.21556
1675.83926,0.21356
1677.76773,0.20869
1679.69620,0.20877
1681.62467,0.21642
1683.55314,0.23038
1685.48161,0.22919
1687.41008,0.21933
1689.33855,0.21328
1691.26701,0.20718
1693.19548,0.20837
1695.12395,0.22433
1697.05242,0.24092
1698.98089,0.23668
1700.90936,0.21637
1702.83783,0.20473
1704.76629,0.20521
1706.69476,0.20392
1708.62323,0.19812
1710.55170,0.19606
1712.48017,0.20214
1714.40864,0.21635
1716.33711,0.22648
1718.26558,0.21285
1720.19404,0.19354
1722.12251,0.18443
1724.05098,0.18249
1725.97945,0.18413
1727.90792,0.18857
1729.83639,0.19648
1731.76486,0.20750
1733.69332,0.21380
1735.62179,0.20556
1737.55026,0.20075
1739.47873,0.20361
1741.40720,0.20626
1743.33567,0.20941
1745.26414,0.21557
1747.19261,0.22055
1749.12107,0.21833
1751.04954,0.20681
1752.97801,0.19835
1754.90648,0.19907
1756.83495,0.20031
1758.76342,0.19688
1760.69189,0.19548
1762.62035,0.19516
1764.54882,0.19313
1766.47729,0.19577
1768.40576,0.20278
1770.33423,0.21032
1772.26270,0.21484
1774.19117,0.20857
1776.11964,0.19960
1778.04810,0.19584
1779.97657,0.19541
1781.90504,0.19501
1783.83351,0.19441
1785.76198,0.19269
1787.69045,0.19119
1789.61892,0.19413
1791.54738,0.19984
1793.47585,0.20223
1795.40432,0.20241
1797.33279,0.20293
1799.26126,0.20233
1801.18973,0.19829
1803.11820,0.19179
1805.04666,0.18686
1806.97513,0.18643
1808.90360,0.19060
1810.83207,0.19397
1812.76054,0.19133
1814.68901,0.18791
1816.61748,0.18640
1818.54595,0.17733
1820.47441,0.16677
1822.40288,0.17611
1824.33135,0.19658
1826.25982,0.20328
1828.18829,0.20195
1830.11676,0.20012
1832.04523,0.19612
1833.97369,0.19458
1835.90216,0.19510
1837.83063,0.19513
1839.75910,0.19547
1841.68757,0.19888
1843.61604,0.20478
1845.54451,0.20518
1847.47298,0.19834
1849.40144,0.19171
1851.32991,0.18879
1853.25838,0.18805
1855.18685,0.18724
1857.11532,0.18606
1859.04379,0.18500
1860.97226,0.18318
1862.90072,0.18220
1864.82919,0.18704
1866.75766,0.19755
1868.68613,0.20361
1870.61460,0.19847
1872.54307,0.19168
1874.47154,0.18878
1876.40001,0.18813
1878.32847,0.18728
1880.25694,0.18637
1882.18541,0.18796
1884.11388,0.19146
1886.04235,0.19288
1887.97082,0.19265
1889.89929,0.19269
1891.82775,0.19192
1893.75622,0.19173
1895.68469,0.19109
1897.61316,0.18781
1899.54163,0.18627
1901.47010,0.18966
1903.39857,0.19342
1905.32704,0.19275
1907.25550,0.19125
1909.18397,0.19179
1911.11244,0.19000
1913.04091,0.18741
1914.96938,0.19048
1916.89785,0.19702
1918.82632,0.19795
1920.75478,0.19475
1922.68325,0.19355
1924.61172,0.19086
1926.54019,0.18698
1928.46866,0.18729
1930.39713,0.18945
1932.32560,0.18898
1934.25407,0.18730
1936.18253,0.18586
1938.11100,0.18468
1940.03947,0.18659
1941.96794,0.19236
1943.89641,0.19532
1945.82488,0.19237
1947.75335,0.18848
1949.68181,0.18589
1951.61028,0.18461
1953.53875,0.18486
1955.46722,0.18419
1957.39569,0.18274
1959.32416,0.18407
1961.25263,0.18689
1963.18110,0.18839
1965.10956,0.18977
1967.03803,0.19030
1968.96650,0.18848
1970.89497,0.18722
1972.82344,0.18795
1974.75191,0.18929
1976.68038,0.18876
1978.60884,0.18602
1980.53731,0.18573
1982.46578,0.18891
1984.39425,0.19096
1986.32272,0.19035
1988.25119,0.18968
1990.17966,0.19112
1992.10812,0.19230
1994.03659,0.18972
1995.96506,0.18599
1997.89353,0.18481
1999.82200,0.18443
2001.75047,0.18457
2003.67894,0.18760
2005.60741,0.18959
2007.53587,0.18878
2009.46434,0.18979
2011.39281,0.19138
2013.32128,0.19067
2015.24975,0.19120
2017.17822,0.19354
2019.10669,0.19249
2021.03515,0.18892
2022.96362,0.18714
2024.89209,0.18527
2026.82056,0.18274
2028.74903,0.18352
2030.67750,0.18717
2032.60597,0.18984
2034.53444,0.18997
2036.46290,0.18951
2038.39137,0.19103
2040.31984,0.19327
2042.24831,0.19295
2044.17678,0.19132
2046.10525,0.19207
2048.03372,0.19205
2049.96218,0.18813
2051.89065,0.18501
2053.81912,0.18464
2055.74759,0.18541
2057.67606,0.18749
2059.60453,0.18984
2061.53300,0.19099
2063.46147,0.19028
2065.38993,0.18867
2067.31840,0.18801
2069.24687,0.18823
2071.17534,0.18877
2073.10381,0.18913
2075.03228,0.18773
2076.96075,0.18596
2078.88921,0.18634
2080.81768,0.18631
2082.74615,0.18492
2084.67462,0.18623
2086.60309,0.19094
2088.53156,0.19447
2090.46003,0.19336
2092.38850,0.19095
2094.31696,0.19222
2096.24543,0.19591
2098.17390,0.19859
2100.10237,0.19895
2102.03084,0.19640
2103.95931,0.19288
2105.88778,0.19216
2107.81624,0.19302
2109.74471,0.19340
2111.67318,0.19438
2113.60165,0.19385
2115.53012,0.19096
2117.45859,0.18873
2119.38706,0.18743
2121.31553,0.18736
2123.24399,0.18880
2125.17246,0.18922
2127.10093,0.18894
2129.02940,0.18943
2130.95787,0.18968
2132.88634,0.19020
2134.81481,0.19095
2136.74327,0.19026
2138.67174,0.18957
2140.60021,0.19099
2142.52868,0.19177
2144.45715,0.18984
2146.38562,0.18932
2148.31409,0.19135
2150.24255,0.19306
2152.17102,0.19488
2154.09949,0.19564
2156.02796,0.19367
2157.95643,0.19244
2159.88490,0.19383
2161.81337,0.19516
2163.74184,0.19495
2165.67030,0.19385
2167.59877,0.19267
2169.52724,0.19207
2171.45571,0.19208
2173.38418,0.19164
2175.31265,0.19048
2177.24112,0.19058
2179.16958,0.19152
2181.09805,0.19097
2183.02652,0.19042
2184.95499,0.19054
2186.88346,0.18999
2188.81193,0.18872
2190.74040,0.18823
2192.66887,0.19055
2194.59733,0.19254
2196.52580,0.18995
2198.45427,0.18588
2200.38274,0.18569
2202.31121,0.18836
2204.23968,0.18990
2206.16815,0.19171
2208.09661,0.19446
2210.02508,0.19518
2211.95355,0.19365
2213.88202,0.19120
2215.81049,0.18865
2217.73896,0.18721
2219.66743,0.18885
2221.59590,0.19208
2223.52436,0.19310
2225.45283,0.19222
2227.38130,0.19133
2229.30977,0.19203
2231.23824,0.19485
2233.16671,0.19620
2235.09518,0.19476
2237.02364,0.19385
2238.95211,0.19262
2240.88058,0.19006
2242.80905,0.18976
2244.73752,0.19028
2246.66599,0.18865
2248.59446,0.18905
2250.52293,0.19234
2252.45139,0.19415
2254.37986,0.19547
2256.30833,0.19652
2258.23680,0.19335
2260.16527,0.18856
2262.09374,0.18726
2264.02221,0.18886
2265.95067,0.19074
2267.87914,0.19114
2269.80761,0.19033
2271.73608,0.18928
2273.66455,0.18866
2275.59302,0.19042
2277.52149,0.19345
2279.44996,0.19421
2281.37842,0.19307
2283.30689,0.19150
2285.23536,0.19002
2287.16383,0.18996
2289.09230,0.19123
2291.02077,0.18995
2292.94924,0.18286
2294.87770,0.17662
2296.80617,0.18095
2298.73464,0.19200
2300.66311,0.19829
2302.59158,0.19810
2304.52005,0.19796
2306.44852,0.20045
2308.37699,0.20278
2310.30545,0.20086
2312.23392,0.19479
2314.16239,0.19145
2316.09086,0.19288
2318.01933,0.19798
2319.94780,0.20863
2321.87627,0.21927
2323.80473,0.22135
2325.73320,0.21400
2327.66167,0.20783
2329.59014,0.21288
2331.51861,0.21642
2333.44708,0.20805
2335.37555,0.19994
2337.30401,0.19381
2339.23248,0.18708
2341.16095,0.19344
2343.08942,0.20884
2345.01789,0.21454
2346.94636,0.21045
2348.87483,0.20352
2350.80330,0.20265
2352.73176,0.21608
2354.66023,0.23308
2356.58870,0.23192
2358.51717,0.20909
2360.44564,0.18806
2362.37411,0.19440
2364.30258,0.21062
2366.23104,0.20989
2368.15951,0.19407
2370.08798,0.18243
2372.01645,0.18389
2373.94492,0.19166
2375.87339,0.19805
2377.80186,0.19884
2379.73033,0.19623
2381.65879,0.19459
2383.58726,0.19486
2385.51573,0.19566
2387.44420,0.19544
2389.37267,0.19518
2391.30114,0.19456
2393.22961,0.19238
2395.15807,0.19065
2397.08654,0.19014
2399.01501,0.18878
2400.94348,0.18693
2402.87195,0.18802
2404.80042,0.19125
2406.72889,0.19230
2408.65736,0.19049
2410.58582,0.18856
2412.51429,0.18843
2414.44276,0.18939
2416.37123,0.18981
2418.29970,0.18938
2420.22817,0.19016
2422.15664,0.19314
2424.08510,0.19556
2426.01357,0.19564
2427.94204,0.19449
2429.87051,0.19240
2431.79898,0.18915
2433.72745,0.18715
2435.65592,0.18801
2437.58439,0.18906
2439.51285,0.18796
2441.44132,0.18628
2443.36979,0.18784
2445.29826,0.19258
2447.22673,0.19400
2449.15520,0.19125
2451.08367,0.19026
2453.01213,0.19154
2454.94060,0.19334
2456.86907,0.19382
2458.79754,0.19208
2460.72601,0.19135
2462.65448,0.19262
2464.58295,0.19392
2466.51142,0.19439
2468.43988,0.19299
2470.36835,0.19037
2472.29682,0.18958
2474.22529,0.18924
2476.15376,0.18675
2478.08223,0.18532
2480.01070,0.18730
2481.93916,0.19005
2483.86763,0.19142
2485.79610,0.19331
2487.72457,0.19438
2489.65304,0.19030
2491.58151,0.18615
2493.50998,0.18757
2495.43844,0.18981
2497.36691,0.19037
2499.29538,0.19152
2501.22385,0.19271
2503.15232,0.19302
2505.08079,0.19232
2507.00926,0.18986
2508.93773,0.18810
2510.86619,0.18964
2512.79466,0.19139
2514.72313,0.19101
2516.65160,0.19005
2518.58007,0.19071
2520.50854,0.19406
2522.43701,0.19665
2524.36547,0.19568
2526.29394,0.19456
2528.22241,0.19478
2530.15088,0.19226
2532.07935,0.18687
2534.00782,0.18447
2535.93629,0.18761
2537.86476,0.19245
2539.79322,0.19438
2541.72169,0.19339
2543.65016,0.19272
2545.57863,0.19250
2547.50710,0.19008
2549.43557,0.18709
2551.36404,0.18667
2553.29250,0.18740
2555.22097,0.18774
2557.14944,0.18981
2559.07791,0.19404
2561.00638,0.19609
2562.93485,0.19457
2564.86332,0.19341
2566.79179,0.19376
2568.72025,0.19371
2570.64872,0.19526
2572.57719,0.19945
2574.50566,0.20137
2576.43413,0.19988
2578.36260,0.19781
2580.29107,0.19420
2582.21953,0.18988
2584.14800,0.18990
2586.07647,0.19406
2588.00494,0.19749
2589.93341,0.19812
2591.86188,0.19629
2593.79035,0.19367
2595.71882,0.19245
2597.64728,0.19341
2599.57575,0.19375
2601.50422,0.19162
2603.43269,0.19098
2605.36116,0.19311
2607.28963,0.19531
2609.21810,0.19763
2611.14656,0.20038
2613.07503,0.20180
2615.00350,0.20086
2616.93197,0.19886
2618.86044,0.19749
2620.78891,0.19663
2622.71738,0.19573
2624.64585,0.19492
2626.57431,0.19433
2628.50278,0.19383
2630.43125,0.19421
2632.35972,0.19676
2634.28819,0.19886
2636.21666,0.19769
2638.14513,0.19646
2640.07359,0.19746
2642.00206,0.19894
2643.93053,0.19918
2645.85900,0.19758
2647.78747,0.19593
2649.71594,0.19596
2651.64441,0.19735
2653.57288,0.19993
2655.50134,0.20236
2657.42981,0.20352
2659.35828,0.20304
2661.28675,0.19938
2663.21522,0.19489
2665.14369,0.19406
2667.07216,0.19661
2669.00062,0.19760
2670.92909,0.19409
2672.85756,0.19114
2674.78603,0.19251
2676.71450,0.19469
2678.64297,0.19578
2680.57144,0.19631
2682.49990,0.19603
2684.42837,0.19590
2686.35684,0.19703
2688.28531,0.19773
2690.21378,0.19758
2692.14225,0.19959
2694.07072,0.20243
2695.99919,0.20287
2697.92765,0.20146
2699.85612,0.19996
2701.78459,0.19953
2703.71306,0.19838
2705.64153,0.19601
2707.57000,0.19533
2709.49847,0.19617
2711.42693,0.19654
2713.35540,0.19758
2715.28387,0.19986
2717.21234,0.19994
2719.14081,0.19715
2721.06928,0.19486
2722.99775,0.19404
2724.92622,0.19421
2726.85468,0.19468
2728.78315,0.19595
2730.71162,0.20086
2732.64009,0.20590
2734.56856,0.20391
2736.49703,0.19929
2738.42550,0.19899
2740.35396,0.19955
2742.28243,0.19847
2744.21090,0.19883
2746.13937,0.20187
2748.06784,0.20430
2749.99631,0.20218
2751.92478,0.19965
2753.85325,0.20066
2755.78171,0.20077
2757.71018,0.19958
2759.63865,0.19944
2761.56712,0.19985
2763.49559,0.20073
2765.42406,0.20100
2767.35253,0.20492
2769.28099,0.21557
2771.20946,0.22214
2773.13793,0.21802
2775.06640,0.21112
2776.99487,0.20712
2778.92334,0.20520
2780.85181,0.20423
2782.78028,0.20237
2784.70874,0.20083
2786.63721,0.20186
2788.56568,0.20326
2790.49415,0.20547
2792.42262,0.20900
2794.35109,0.20993
2796.27956,0.20807
2798.20802,0.20485
2800.13649,0.20198
2802.06496,0.20189
2803.99343,0.20237
2805.92190,0.20134
2807.85037,0.20160
2809.77884,0.20475
2811.70731,0.20660
2813.63577,0.20458
2815.56424,0.20258
2817.49271,0.20290
2819.42118,0.20464
2821.34965,0.20626
2823.27812,0.20650
2825.20659,0.20669
2827.13505,0.20817
2829.06352,0.20845
2830.99199,0.20608
2832.92046,0.20535
2834.84893,0.20831
2836.77740,0.21076
2838.70587,0.20981
2840.63433,0.20891
2842.56280,0.20969
2844.49127,0.20765
2846.41974,0.20449
2848.34821,0.20505
2850.27668,0.20555
2852.20515,0.20208
2854.13362,0.19932
2856.06208,0.20278
2857.99055,0.20853
2859.91902,0.21035
2861.84749,0.20954
2863.77596,0.20690
2865.70443,0.20259
2867.63290,0.20120
2869.56136,0.20247
2871.48983,0.20216
2873.41830,0.19986
2875.34677,0.19850
2877.27524,0.20058
2879.20371,0.20402
2881.13218,0.20453
2883.06065,0.20090
2884.98911,0.19935
2886.91758,0.20373
2888.84605,0.20692
2890.77452,0.20544
2892.70299,0.20422
2894.63146,0.20548
2896.55993,0.20710
2898.48839,0.20919
2900.41686,0.21179
2902.34533,0.21123
2904.27380,0.20794
2906.20227,0.20629
2908.13074,0.20475
2910.05921,0.20153
2911.98768,0.20040
2913.91614,0.20049
2915.84461,0.19801
2917.77308,0.19450
2919.70155,0.19344
2921.63002,0.19717
2923.55849,0.20217
2925.48696,0.20427
2927.41542,0.20831
2929.34389,0.21367
2931.27236,0.21141
2933.20083,0.20562
2935.12930,0.20326
2937.05777,0.20032
2938.98624,0.19875
2940.91471,0.20362
2942.84317,0.20874
2944.77164,0.20756
2946.70011,0.20401
2948.62858,0.20291
2950.55705,0.20303
2952.48552,0.20282
2954.41399,0.20223
2956.34245,0.19976
2958.27092,0.19731
2960.19939,0.19988
2962.12786,0.20303
2964.05633,0.20178
2965.98480,0.20126
2967.91327,0.20278
2969.84174,0.20371
2971.77020,0.20494
2973.69867,0.20599
2975.62714,0.20587
2977.55561,0.20689
2979.48408,0.21052
2981.41255,0.21340
2983.34102,0.21219
2985.26948,0.20902
2987.19795,0.20653
2989.12642,0.20598
2991.05489,0.20941
2992.98336,0.21407
2994.91183,0.21650
2996.84030,0.21756
2998.76877,0.21649
3000.69723,0.21361
3002.62570,0.21125
3004.55417,0.20850
3006.48264,0.20578
3008.41111,0.20565
3010.33958,0.20687
3012.26805,0.20488
3014.19651,0.19580
3016.12498,0.18761
3018.05345,0.19429
3019.98192,0.20776
3021.91039,0.21257
3023.83886,0.21502
3025.76733,0.21953
3027.69579,0.21898
3029.62426,0.21597
3031.55273,0.21402
3033.48120,0.20846
3035.40967,0.20055
3037.33814,0.19945
3039.26661,0.20657
3041.19508,0.21225
3043.12354,0.21212
3045.05201,0.21129
3046.98048,0.21141
3048.90895,0.20885
3050.83742,0.20666
3052.76589,0.21046
3054.69436,0.21354
3056.62282,0.20826
3058.55129,0.20461
3060.47976,0.21181
3062.40823,0.21910
3064.33670,0.21622
3066.26517,0.20920
3068.19364,0.20703
3070.12211,0.20906
3072.05057,0.21058
3073.97904,0.20924
3075.90751,0.20753
3077.83598,0.21027
3079.76445,0.21297
3081.69292,0.20969
3083.62139,0.20313
3085.54985,0.20065
3087.47832,0.20639
3089.40679,0.21284
3091.33526,0.21510
3093.26373,0.21715
3095.19220,0.21891
3097.12067,0.21790
3099.04914,0.21442
3100.97760,0.20973
3102.90607,0.20676
3104.83454,0.20690
3106.76301,0.20606
3108.69148,0.20375
3110.61995,0.20277
3112.54842,0.20388
3114.47688,0.20874
3116.40535,0.21325
3118.33382,0.21167
3120.26229,0.20958
3122.19076,0.21367
3124.11923,0.21878
3126.04770,0.21936
3127.97617,0.21822
3129.90463,0.21671
3131.83310,0.21155
3133.76157,0.20432
3135.69004,0.20284
3137.61851,0.20905
3139.54698,0.21703
3141.47545,0.22166
3143.40391,0.22201
3145.33238,0.21623
3147.26085,0.20550
3149.18932,0.20048
3151.11779,0.20383
3153.04626,0.20832
3154.97473,0.21203
3156.90320,0.21483
3158.83166,0.21523
3160.76013,0.21275
3162.68860,0.21051
3164.61707,0.21182
3166.54554,0.21470
3168.47401,0.21618
3170.40248,0.21587
3172.33094,0.21567
3174.25941,0.21854
3176.18788,0.22348
3178.11635,0.22703
3180.04482,0.22590
3181.97329,0.21826
3183.90176,0.21194
3185.83022,0.21314
3187.75869,0.21646
3189.68716,0.21895
3191.61563,0.22077
3193.54410,0.22287
3195.47257,0.22571
3197.40104,0.22377
3199.32951,0.21748
3201.25797,0.21537
3203.18644,0.21439
3205.11491,0.20933
3207.04338,0.20864
3208.97185,0.21146
3210.90032,0.21044
3212.82879,0.21350
3214.75725,0.22102
3216.68572,0.22250
3218.61419,0.21766
3220.54266,0.21026
3222.47113,0.20590
3224.39960,0.20746
3226.32807,0.21031
3228.25654,0.21142
3230.18500,0.20953
3232.11347,0.20961
3234.04194,0.21495
3235.97041,0.21643
3237.89888,0.21308
3239.82735,0.21167
3241.75582,0.21149
3243.68428,0.21263
3245.61275,0.21416
3247.54122,0.21245
3249.46969,0.21135
3251.39816,0.21372
3253.32663,0.21546
3255.25510,0.21507
3257.18357,0.21555
3259.11203,0.21661
3261.04050,0.21382
3262.96897,0.20898
3264.89744,0.20930
3266.82591,0.21571
3268.75438,0.22027
3270.68285,0.21784
3272.61131,0.21441
3274.53978,0.21481
3276.46825,0.21315
3278.39672,0.20633
3280.32519,0.20326
3282.25366,0.20830
3284.18213,0.21286
3286.11060,0.21040
3288.03906,0.20660
3289.96753,0.20837
3291.89600,0.21148
3293.82447,0.21183
3295.75294,0.21127
3297.68141,0.20960
3299.60988,0.20821
3301.53834,0.20865
3303.46681,0.20799
3305.39528,0.20646
3307.32375,0.20982
3309.25222,0.21718
3311.18069,0.21847
3313.10916,0.21343
3315.03763,0.21131
3316.96609,0.21436
3318.89456,0.21901
3320.82303,0.22022
3322.75150,0.21311
3324.67997,0.20267
3326.60844,0.20336
3328.53691,0.21550
3330.46537,0.22334
3332.39384,0.22344
3334.32231,0.22384
3336.25078,0.22346
3338.17925,0.21783
3340.10772,0.21193
3342.03619,0.21136
3343.96466,0.21374
3345.89312,0.21417
3347.82159,0.21292
3349.75006,0.21552
3351.67853,0.22091
3353.60700,0.22087
3355.53547,0.21474
3357.46394,0.21221
3359.39240,0.21901
3361.32087,0.22649
3363.24934,0.22330
3365.17781,0.21460
3367.10628,0.21394
3369.03475,0.22203
3370.96322,0.22912
3372.89168,0.22797
3374.82015,0.22198
3376.74862,0.21806
3378.67709,0.21654
3380.60556,0.21686
3382.53403,0.21557
3384.46250,0.21063
3386.39097,0.20816
3388.31943,0.20827
3390.24790,0.20783
3392.17637,0.20929
3394.10484,0.21220
3396.03331,0.21413
3397.96178,0.21433
3399.89025,0.21356
3401.81871,0.21318
3403.74718,0.21347
3405.67565,0.21377
3407.60412,0.21209
3409.53259,0.20939
3411.46106,0.20935
3413.38953,0.21355
3415.31800,0.21776
3417.24646,0.21810
3419.17493,0.21641
3421.10340,0.20965
3423.03187,0.19859
3424.96034,0.19394
3426.88881,0.19631
3428.81728,0.19900
3430.74574,0.19884
3432.67421,0.19464
3434.60268,0.19220
3436.53115,0.19823
3438.45962,0.20678
3440.38809,0.21149
3442.31656,0.21497
3444.24503,0.21754
3446.17349,0.21513
3448.10196,0.20777
3450.03043,0.20279
3451.95890,0.20327
3453.88737,0.20277
3455.81584,0.20086
3457.74431,0.20322
3459.67277,0.20452
3461.60124,0.20123
3463.52971,0.20316
3465.45818,0.20973
3467.38665,0.20875
3469.31512,0.20135
3471.24359,0.19538
3473.17206,0.18915
3475.10052,0.18365
3477.02899,0.18623
3478.95746,0.19382
3480.88593,0.19509
3482.81440,0.18990
3484.74287,0.18678
3486.67134,0.18827
3488.59980,0.19223
3490.52827,0.19436
3492.45674,0.19452
3494.38521,0.19660
3496.31368,0.19853
3498.24215,0.19681
3500.17062,0.19358
3502.09909,0.18955
3504.02755,0.18554
3505.95602,0.18395
3507.88449,0.18231
3509.81296,0.17852
3511.74143,0.17548
3513.66990,0.17593
3515.59837,0.17868
3517.52683,0.18151
3519.45530,0.18348
3521.38377,0.18416
3523.31224,0.18246
3525.24071,0.18032
3527.16918,0.17994
3529.09765,0.17512
3531.02611,0.16724
3532.95458,0.16669
3534.88305,0.17100
3536.81152,0.17108
3538.73999,0.16870
3540.66846,0.17169
3542.59693,0.17890
3544.52540,0.18195
3546.45386,0.17857
3548.38233,0.17427
3550.31080,0.16932
3552.23927,0.16420
3554.16774,0.16238
3556.09621,0.16345
3558.02468,0.16880
3559.95314,0.17527
3561.88161,0.17560
3563.81008,0.17469
3565.73855,0.18142
3567.66702,0.18850
3569.59549,0.18346
3571.52396,0.17498
3573.45243,0.16859
3575.38089,0.16238
3577.30936,0.15908
3579.23783,0.16084
3581.16630,0.16125
3583.09477,0.15697
3585.02324,0.15597
3586.95171,0.16644
3588.88017,0.17418
3590.80864,0.16960
3592.73711,0.16743
3594.66558,0.17021
3596.59405,0.16968
3598.52252,0.16536
3600.45099,0.15998
3602.37946,0.15512
3604.30792,0.15459
3606.23639,0.15873
3608.16486,0.16090
3610.09333,0.15725
3612.02180,0.15350
3613.95027,0.15297
3615.87874,0.15270
3617.80720,0.15181
3619.73567,0.15241
3621.66414,0.15493
3623.59261,0.15858
3625.52108,0.16165
3627.44955,0.16482
3629.37802,0.16363
3631.30649,0.15781
3633.23495,0.15765
3635.16342,0.15779
3637.09189,0.15351
3639.02036,0.14849
3640.94883,0.14410
3642.87730,0.14293
3644.80577,0.14933
3646.73423,0.16720
3648.66270,0.19474
3650.59117,0.19061
3652.51964,0.16094
3654.44811,0.14499
3656.37658,0.14212
3658.30505,0.13963
3660.23352,0.13510
3662.16198,0.13187
3664.09045,0.13069
3666.01892,0.13215
3667.94739,0.13991
3669.87586,0.15368
3671.80433,0.16330
3673.73280,0.16999
3675.66126,0.16489
3677.58973,0.14308
3679.51820,0.13214
3681.44667,0.13301
3683.37514,0.13630
3685.30361,0.13807
3687.23208,0.13887
3689.16055,0.14040
3691.08901,0.13967
3693.01748,0.13496
3694.94595,0.13131
3696.87442,0.12922
3698.80289,0.12989
3700.73136,0.13906
3702.65983,0.14793
3704.58829,0.14499
3706.51676,0.14275
3708.44523,0.14936
3710.37370,0.15564
3712.30217,0.14462
3714.23064,0.12938
3716.15911,0.12577
3718.08757,0.12868
3720.01604,0.13071
3721.94451,0.12949
3723.87298,0.12957
3725.80145,0.13183
3727.72992,0.13080
3729.65839,0.12925
3731.58686,0.13255
3733.51532,0.14416
3735.44379,0.16086
3737.37226,0.16256
3739.30073,0.15139
3741.22920,0.14388
3743.15767,0.14395
3745.08614,0.14506
3747.01460,0.14632
3748.94307,0.15986
3750.87154,0.17623
3752.80001,0.16617
3754.72848,0.15036
3756.65695,0.14396
3758.58542,0.14138
3760.51389,0.13552
3762.44235,0.13184
3764.37082,0.13619
3766.29929,0.14268
3768.22776,0.14589
3770.15623,0.14390
3772.08470,0.13404
3774.01317,0.12497
3775.94163,0.12514
3777.87010,0.13268
3779.79857,0.13631
3781.72704,0.13295
3783.65551,0.13094
3785.58398,0.13114
3787.51245,0.12894
3789.44092,0.12360
3791.36938,0.12098
3793.29785,0.12284
3795.22632,0.12611
3797.15479,0.13353
3799.08326,0.14401
3801.01173,0.15122
3802.94020,0.15002
3804.86866,0.14597
3806.79713,0.14023
3808.72560,0.12894
3810.65407,0.12290
3812.58254,0.12708
3814.51101,0.13570
3816.43948,0.14185
3818.36795,0.14631
3820.29641,0.15203
3822.22488,0.14586
3824.15335,0.13322
3826.08182,0.12834
3828.01029,0.12820
3829.93876,0.13059
3831.86723,0.13640
3833.79569,0.14189
3835.72416,0.14716
3837.65263,0.15247
3839.58110,0.14877
3841.50957,0.14263
3843.43804,0.14159
3845.36651,0.13762
3847.29498,0.13128
3849.22344,0.12991
3851.15191,0.13635
3853.08038,0.14951
3855.00885,0.15029
3856.93732,0.14026
3858.86579,0.13256
3860.79426,0.12964
3862.72272,0.13068
3864.65119,0.12881
3866.57966,0.12638
3868.50813,0.13374
3870.43660,0.14537
3872.36507,0.14356
3874.29354,0.13079
3876.22200,0.12046
3878.15047,0.12068
3880.07894,0.12854
3882.00741,0.13321
3883.93588,0.13214
3885.86435,0.12771
3887.79282,0.12189
3889.72129,0.11950
3891.64975,0.11988
3893.57822,0.11961
3895.50669,0.12129
3897.43516,0.12700
3899.36363,0.13249
3901.29210,0.13805
3903.22057,0.14384
3905.14903,0.13589
3907.07750,0.12000
3909.00597,0.11055
3910.93444,0.11097
3912.86291,0.12089
3914.79138,0.12894
3916.71985,0.12695
3918.64832,0.12235
3920.57678,0.11855
3922.50525,0.11763
3924.43372,0.12146
3926.36219,0.12084
3928.29066,0.11291
3930.21913,0.10683
3932.14760,0.10694
3934.07606,0.10870
3936.00453,0.11247
3937.93300,0.11815
3939.86147,0.12228
3941.78994,0.12467
3943.71841,0.12429
3945.64688,0.12175
3947.57535,0.11696
3949.50381,0.10887
3951.43228,0.10599
3953.36075,0.11176
3955.28922,0.11585
3957.21769,0.11574
3959.14616,0.11738
3961.07463,0.11872
3963.00309,0.11691
3964.93156,0.11383
3966.86003,0.11125
3968.78850,0.10925
3970.71697,0.10735
3972.64544,0.10458
3974.57391,0.10208
3976.50238,0.10506
3978.43084,0.11109
3980.35931,0.11151
3982.28778,0.10626
3984.21625,0.10400
3986.14472,0.10645
3988.07319,0.10345
3990.00166,0.09593
3991.93012,0.09648
3993.85859,0.10210
3995.78706,0.10354
3997.71553,0.10329
3999.64400,0.10353
4001.57247,0.10547
4003.50094,0.11134
4005.42941,0.11576
4007.35787,0.11381
4009.28634,0.10640
4011.21481,0.09886
4013.14328,0.09642
4015.07175,0.09620
4017.00022,0.09858
4018.92869,0.10665
4020.85715,0.11345
4022.78562,0.11142
4024.71409,0.10348
4026.64256,0.09904
4028.57103,0.10011
4030.49950,0.10093
4032.42797,0.09910
4034.35644,0.09806
4036.28490,0.09939
4038.21337,0.09678
4040.14184,0.08941
4042.07031,0.08487
4043.99878,0.08604
4045.92725,0.09112
4047.85572,0.09750
4049.78418,0.09966
4051.71265,0.09682
4053.64112,0.09650
4055.56959,0.09921
4057.49806,0.10054
4059.42653,0.09805
4061.35500,0.09337
4063.28346,0.09472
4065.21193,0.09971
4067.14040,0.09962
4069.06887,0.09685
4070.99734,0.09393
4072.92581,0.09112
4074.85428,0.09270
4076.78275,0.09478
4078.71121,0.08906
4080.63968,0.07970
4082.56815,0.07853
4084.49662,0.08837
4086.42509,0.09919
4088.35356,0.10569
4090.28203,0.10804
4092.21049,0.10273
4094.13896,0.09361
4096.06743,0.08932
4097.99590,0.09105
4099.92437,0.09532
4101.85284,0.09995
4103.78131,0.09936
4105.70978,0.09161
4107.63824,0.08550
4109.56671,0.08399
4111.49518,0.08451
4113.42365,0.08705
4115.35212,0.08952
4117.28059,0.09025
4119.20906,0.09011
4121.13752,0.08976
4123.06599,0.08910
4124.99446,0.08787
4126.92293,0.08669
4128.85140,0.08626
4130.77987,0.08389
4132.70834,0.07940
4134.63681,0.07863
4136.56527,0.08172
4138.49374,0.08291
4140.42221,0.08242
4142.35068,0.08293
4144.27915,0.08069
4146.20762,0.07428
4148.13609,0.07113
4150.06455,0.07723
4151.99302,0.08818
4153.92149,0.09373
4155.84996,0.09453
4157.77843,0.09562
4159.70690,0.09203
4161.63537,0.08591
4163.56384,0.08345
4165.49230,0.07975
4167.42077,0.07583
4169.34924,0.07813
4171.27771,0.08175
4173.20618,0.08118
4175.13465,0.07934
4177.06312,0.07922
4178.99158,0.07949
4180.92005,0.07902
4182.84852,0.07933
4184.77699,0.07900
4186.70546,0.07772
4188.63393,0.07843
4190.56240,0.08291
4192.49087,0.09342
4194.41933,0.10198
4196.34780,0.09865
4198.27627,0.09121
4200.20474,0.08873
4202.13321,0.08834
4204.06168,0.08515
4205.99015,0.08116
4207.91861,0.08197
4209.84708,0.08246
4211.77555,0.07675
4213.70402,0.07484
4215.63249,0.08064
4217.56096,0.08170
4219.48943,0.07504
4221.41789,0.07064
4223.34636,0.07175
4225.27483,0.07216
4227.20330,0.07130
4229.13177,0.07442
4231.06024,0.07888
4232.98871,0.07770
4234.91718,0.07192
4236.84564,0.06847
4238.77411,0.06929
4240.70258,0.07017
4242.63105,0.06914
4244.55952,0.06702
4246.48799,0.06524
4248.41646,0.06784
4250.34492,0.07370
4252.27339,0.07555
4254.20186,0.07054
4256.13033,0.06384
4258.05880,0.06329
4259.98727,0.06644
4261.91574,0.06541
4263.84421,0.06121
4265.77267,0.05911
4267.70114,0.06052
4269.62961,0.06218
4271.55808,0.06200
4273.48655,0.06189
4275.41502,0.06347
4277.34349,0.06768
4279.27195,0.07332
4281.20042,0.07380
4283.12889,0.06752
4285.05736,0.06183
4286.98583,0.05985
4288.91430,0.06038
4290.84277,0.06340
4292.77124,0.06775
4294.69970,0.06962
4296.62817,0.06693
4298.55664,0.06630
4300.48511,0.07134
4302.41358,0.07509
4304.34205,0.07149
4306.27052,0.06073
4308.19898,0.05183
4310.12745,0.05114
4312.05592,0.05345
4313.98439,0.05353
4315.91286,0.05221
4317.84133,0.05634
4319.76980,0.06483
4321.69827,0.06805
4323.62673,0.06718
4325.55520,0.06556
4327.48367,0.05836
4329.41214,0.04767
4331.34061,0.04429
4333.26908,0.05028
4335.19755,0.05794
4337.12601,0.05988
4339.05448,0.05870
4340.98295,0.06313
4342.91142,0.06982
4344.83989,0.06899
4346.76836,0.05985
4348.69683,0.05196
4350.62530,0.05612
4352.55376,0.06640
4354.48223,0.06536
4356.41070,0.05343
4358.33917,0.04903
4360.26764,0.05411
4362.19611,0.05210
4364.12458,0.04253
4366.05304,0.03756
4367.98151,0.03527
4369.90998,0.03184
4371.83845,0.03022
4373.76692,0.03175
4375.69539,0.03832
4377.62386,0.04806
4379.55232,0.05346
4381.48079,0.05209
4383.40926,0.04631
4385.33773,0.03765
4387.26620,0.03497
4389.19467,0.04264
4391.12314,0.04774
4393.05161,0.04425
4394.98007,0.03932
4396.90854,0.03778
4398.83701,0.03656
4400.76548,0.03420
4402.69395,0.03648
4404.62242,0.03924
4406.55089,0.03839
4408.47935,0.04424
4410.40782,0.05640
4412.33629,0.06258
4414.26476,0.05985
4416.19323,0.05275
4418.12170,0.04460
4420.05017,0.03784
4421.97864,0.03476
4423.90710,0.03387
4425.83557,0.03188
4427.76404,0.02450
4429.69251,0.01288
4431.62098,0.00953
4433.54945,0.02065
4435.47792,0.03575
4437.40638,0.04344
4439.33485,0.04373
4441.26332,0.03944
4443.19179,0.03026
4445.12026,0.02098
4447.04873,0.02098
4448.97720,0.02979
4450.90567,0.03520
4452.83413,0.03297
4454.76260,0.02903
4456.69107,0.02375
4458.61954,0.01970
4460.54801,0.02261
4462.47648,0.02673
4464.40495,0.02673
4466.33341,0.02729
4468.26188,0.02976
4470.19035,0.02879
4472.11882,0.02344
4474.04729,0.02186
4475.97576,0.02790
4477.90423,0.03201
4479.83270,0.02774
4481.76116,0.02405
4483.68963,0.02904
4485.61810,0.03424
4487.54657,0.02841
4489.47504,0.01499
4491.40351,0.00753
4493.33198,0.01446
4495.26044,0.02628
4497.18891,0.02787
4499.11738,0.02234
4501.04585,0.01935
4502.97432,0.01829
4504.90279,0.01786
4506.83126,0.01776
4508.75973,0.01303
4510.68819,0.00188
4512.61666,-0.00054
4514.54513,0.01277
4516.47360,0.02482
4518.40207,0.02771
4520.33054,0.02721
4522.25901,0.02647
4524.18747,0.02410
4526.11594,0.02114
4528.04441,0.02243
4529.97288,0.03043
4531.90135,0.03743
4533.82982,0.03534
4535.75829,0.03220
4537.68676,0.03261
4539.61522,0.03294
4541.54369,0.03203
4543.47216,0.02911
4545.40063,0.02868
4547.32910,0.02928
4549.25757,0.02426
4551.18604,0.01607
4553.11450,0.01013
4555.04297,0.00721
4556.97144,0.00545
4558.89991,0.00606
4560.82838,0.00946
4562.75685,0.01580
4564.68532,0.02413
4566.61378,0.02113
4568.54225,0.00569
4570.47072,-0.00258
4572.39919,0.00269
4574.32766,0.01333
4576.25613,0.02049
4578.18460,0.02033
4580.11307,0.01275
4582.04153,-0.00204
4583.97000,-0.01235
4585.89847,-0.00761
4587.82694,0.00292
4589.75541,0.00772
4591.68388,0.00798
4593.61235,0.00932
4595.54081,0.01323
4597.46928,0.01690
4599.39775,0.02119
4601.32622,0.02675
4603.25469,0.02505
4605.18316,0.01231
4607.11163,-0.00018
4609.04010,-0.00349
4610.96856,0.00052
4612.89703,0.01038
4614.82550,0.01675
4616.75397,0.00920
4618.68244,0.00025
4620.61091,0.00069
4622.53938,0.00753
4624.46784,0.01721
4626.39631,0.02073
4628.32478,0.01541
4630.25325,0.00928
4632.18172,0.00943
4634.11019,0.01516
4636.03866,0.01717
4637.96713,0.01414
4639.89559,0.01216
4641.82406,0.01261
4643.75253,0.01651
4645.68100,0.02105
4647.60947,0.02076
4649.53794,0.01746
4651.46641,0.01903
4653.39487,0.02954
4655.32334,0.03894
4657.25181,0.03500
4659.18028,0.02188
4661.10875,0.01320
4663.03722,0.01115
4664.96569,0.00590
4666.89416,-0.00497
4668.82262,-0.01255
4670.75109,-0.00965
4672.67956,-0.00210
4674.60803,0.00414
4676.53650,0.00855
4678.46497,0.00727
4680.39344,0.00048
4682.32190,-0.01011
4684.25037,-0.01371
4686.17884,0.00074
4688.10731,0.01392
4690.03578,0.01352
4691.96425,0.01541
4693.89272,0.01891
4695.82119,0.01634
4697.74965,0.01599
4699.67812,0.01699
4701.60659,0.01295
4703.53506,0.01123
4705.46353,0.01518
4707.39200,0.01818
4709.32047,0.01715
4711.24893,0.01026
4713.17740,0.00152
4715.10587,0.00277
4717.03434,0.01168
4718.96281,0.01242
4720.89128,0.00535
4722.81975,0.00686
4724.74821,0.01703
4726.67668,0.01816
4728.60515,0.00789
4730.53362,0.00083
4732.46209,0.00121
4734.39056,0.00330
4736.31903,0.00917
4738.24750,0.01918
4740.17596,0.02814
4742.10443,0.03633
4744.03290,0.03967
4745.96137,0.03483
4747.88984,0.02732
4749.81831,0.02126
4751.74678,0.01902
4753.67524,0.01761
4755.60371,0.01333
4757.53218,0.01216
4759.46065,0.01584
4761.38912,0.01617
4763.31759,0.01211
4765.24606,0.00931
4767.17453,0.00582
4769.10299,-0.00048
4771.03146,-0.00169
4772.95993,0.00645
4774.88840,0.01364
4776.81687,0.01446
4778.74534,0.01572
4780.67381,0.01430
4782.60227,0.00330
4784.53074,-0.00544
4786.45921,-0.00189
4788.38768,0.00426
4790.31615,0.00964
4792.24462,0.01488
4794.17309,0.01352
4796.10156,0.01495
4798.03002,0.02353
4799.95849,0.02396
4801.88696,0.01252
4803.81543,0.00259
4805.74390,0.00888
4807.67237,0.02403
4809.60084,0.02640
4811.52930,0.01560
4813.45777,0.00682
4815.38624,0.00745
4817.31471,0.01225
4819.24318,0.01200
4821.17165,0.00446
4823.10012,-0.00501
4825.02859,-0.00898
4826.95705,-0.00797
4828.88552,-0.00490
4830.81399,0.00271
4832.74246,0.00990
4834.67093,0.00737
4836.59940,0.00055
4838.52787,0.00352
4840.45633,0.01464
4842.38480,0.02627
4844.31327,0.03449
4846.24174,0.03141
4848.17021,0.02131
4850.09868,0.01569
4852.02715,0.01447
4853.95562,0.01265
4855.88408,0.00952
4857.81255,0.00854
4859.74102,0.01339
4861.66949,0.01908
4863.59796,0.01559
4865.52643,0.00552
4867.45490,0.00088
4869.38336,-0.00165
4871.31183,-0.00896
4873.24030,-0.00657
4875.16877,0.00201
4877.09724,0.00030
4879.02571,-0.00454
4880.95418,-0.01035
4882.88265,-0.01297
4884.81111,-0.00229
4886.73958,0.00744
4888.66805,0.00161
4890.59652,-0.00383
4892.52499,0.00610
4894.45346,0.02134
4896.38193,0.03108
4898.31039,0.02944
4900.23886,0.01571
4902.16733,0.00020
4904.09580,-0.00699
4906.02427,-0.00322
4907.95274,0.00732
4909.88121,0.01545
4911.80967,0.01800
4913.73814,0.01556
4915.66661,0.00581
4917.59508,-0.00036
4919.52355,0.00800
4921.45202,0.02078
4923.38049,0.02658
4925.30896,0.02448
4927.23742,0.01619
4929.16589,0.00783
4931.09436,0.00386
4933.02283,0.00616
4934.95130,0.01507
4936.87977,0.02194
4938.80824,0.02428
4940.73670,0.02719
4942.66517,0.03001
4944.59364,0.03200
4946.52211,0.03844
4948.45058,0.04350
4950.37905,0.03321
4952.30752,0.01880
4954.23599,0.01565
4956.16445,0.02051
4958.09292,0.02322
4960.02139,0.01390
4961.94986,0.00156
4963.87833,-0.00150
4965.80680,-0.00268
4967.73527,-0.00222
4969.66373,0.00994
4971.59220,0.02075
4973.52067,0.01330
4975.44914,-0.00124
4977.37761,-0.01286
4979.30608,-0.01833
4981.23455,-0.00423
4983.16302,0.02270
4985.09148,0.03342
4987.01995,0.02091
4988.94842,0.00416
4990.87689,-0.00453
4992.80536,-0.00442
4994.73383,0.00583
4996.66230,0.01091
4998.59076,-0.00371
5000.51923,-0.01732
5002.44770,-0.01578
5004.37617,-0.00964
5006.30464,0.00189
5008.23311,0.01526
5010.16158,0.00965
5012.09005,-0.00755
5014.01851,-0.01293
5015.94698,-0.00689
5017.87545,0.00723
5019.80392,0.02467
5021.73239,0.03707
5023.66086,0.04867
5025.58933,0.04992
5027.51779,0.03117
5029.44626,0.01910
5031.37473,0.02934
5033.30320,0.04282
5035.23167,0.04731
5037.16014,0.04413
5039.08861,0.03154
5041.01708,0.02030
5042.94554,0.02122
5044.87401,0.02087
5046.80248,0.01491
5048.73095,0.01515
5050.65942,0.02156
5052.58789,0.02740
5054.51636,0.02939
5056.44482,0.02965
5058.37329,0.02651
5060.30176,0.02205
5062.23023,0.02887
5064.15870,0.03804
5066.08717,0.03914
5068.01564,0.04114
5069.94410,0.04238
5071.87257,0.04404
5073.80104,0.05185
5075.72951,0.05516
5077.65798,0.04395
5079.58645,0.02155
5081.51492,0.00458
5083.44339,0.00837
5085.37185,0.02278
5087.30032,0.02855
5089.22879,0.02325
5091.15726,0.01773
5093.08573,0.02235
5095.01420,0.02428
5096.94267,0.00685
5098.87113,-0.00987
5100.79960,0.00076
5102.72807,0.02522
5104.65654,0.03668
5106.58501,0.03449
5108.51348,0.02740
5110.44195,0.02164
5112.37042,0.02232
5114.29888,0.01685
5116.22735,0.00357
5118.15582,0.00557
5120.08429,0.01829
5122.01276,0.02301
5123.94123,0.02526
5125.86970,0.03276
5127.79816,0.03909
5129.72663,0.03194
5131.65510,0.02097
5133.58357,0.01853
5135.51204,0.01791
5137.44051,0.02213
5139.36898,0.02763
5141.29745,0.02135
5143.22591,0.00992
5145.15438,0.00731
5147.08285,0.00832
5149.01132,0.00693
5150.93979,0.01317
5152.86826,0.02543
5154.79673,0.03237
5156.72519,0.03053
5158.65366,0.02379
5160.58213,0.01260
5162.51060,-0.00086
5164.43907,-0.00055
5166.36754,0.01680
5168.29601,0.03410
5170.22448,0.04360
5172.15294,0.04728
5174.08141,0.04021
5176.00988,0.02907
5177.93835,0.03137
5179.86682,0.04298
5181.79529,0.04325
5183.72376,0.02900
5185.65222,0.01722
5187.58069,0.01865
5189.50916,0.03291
5191.43763,0.04535
5193.36610,0.03525
5195.29457,0.01116
5197.22304,0.00075
5199.15151,0.01235
5201.07997,0.02959
5203.00844,0.03704
5204.93691,0.04197
5206.86538,0.06040
5208.79385,0.07419
5210.72232,0.06724
5212.65079,0.05210
5214.57925,0.04276
5216.50772,0.04553
5218.43619,0.05358
5220.36466,0.05350
5222.29313,0.03976
5224.22160,0.03309
5226.15007,0.05000
5228.07854,0.06863
5230.00700,0.07846
5231.93547,0.08409
5233.86394,0.08508
5235.79241,0.08254
5237.72088,0.07081
5239.64935,0.05435
5241.57782,0.04299
5243.50628,0.03088
5245.43475,0.02057
5247.36322,0.02389
5249.29169,0.03847
5251.22016,0.05211
5253.14863,0.06097
5255.07710,0.05498
5257.00556,0.02566
5258.93403,0.00305
5260.86250,0.00426
5262.79097,0.01264
5264.71944,0.02076
5266.64791,0.03328
5268.57638,0.04349
5270.50485,0.04025
5272.43331,0.03688
5274.36178,0.04234
5276.29025,0.04547
5278.21872,0.04487
5280.14719,0.05127
5282.07566,0.06966
5284.00413,0.08712
5285.93259,0.09717
5287.86106,0.10542
5289.78953,0.10859
5291.71800,0.09010
5293.64647,0.05808
5295.57494,0.04312
5297.50341,0.04060
5299.43188,0.02957
5301.36034,0.02404
5303.28881,0.04777
5305.21728,0.07899
5307.14575,0.08470
5309.07422,0.06717
5311.00269,0.04366
5312.93116,0.03606
5314.85962,0.05414
5316.78809,0.07123
5318.71656,0.06593
5320.64503,0.04699
5322.57350,0.03030
5324.50197,0.03221
5326.43044,0.05058
5328.35891,0.06527
5330.28737,0.06818
5332.21584,0.06417
5334.14431,0.05783
5336.07278,0.04986
5338.00125,0.05511
5339.92972,0.07241
5341.85819,0.07040
5343.78665,0.05990
5345.71512,0.05871
5347.64359,0.05737
5349.57206,0.06701
5351.50053,0.09779
5353.42900,0.12245
5355.35747,0.10649
5357.28594,0.07290
5359.21440,0.05891
5361.14287,0.07170
5363.07134,0.08953
5364.99981,0.08767
5366.92828,0.07544
5368.85675,0.06982
5370.78522,0.07873
5372.71368,0.09856
5374.64215,0.10174
5376.57062,0.08239
5378.49909,0.06872
5380.42756,0.06970
5382.35603,0.07479
5384.28450,0.06469
5386.21297,0.04733
5388.14143,0.05378
5390.06990,0.07291
5391.99837,0.08685
5393.92684,0.08928
5395.85531,0.07955
5397.78378,0.06928
5399.71225,0.05158
5401.64071,0.02644
5403.56918,0.02247
5405.49765,0.03384
5407.42612,0.03457
5409.35459,0.03815
5411.28306,0.06205
5413.21153,0.09477
5415.13999,0.10994
5417.06846,0.09296
5418.99693,0.06215
5420.92540,0.04993
5422.85387,0.05948
5424.78234,0.07294
5426.71081,0.07771
5428.63928,0.06474
5430.56774,0.04902
5432.49621,0.04302
5434.42468,0.03560
5436.35315,0.03988
5438.28162,0.06030
5440.21009,0.06703
5442.13856,0.05821
5444.06702,0.05833
5445.99549,0.06761
5447.92396,0.07488
5449.85243,0.08220
5451.78090,0.08786
5453.70937,0.07431
5455.63784,0.04363
5457.56631,0.02428
5459.49477,0.03085
5461.42324,0.04876
5463.35171,0.06016
5465.28018,0.07175
5467.20865,0.09352
5469.13712,0.11615
5471.06559,0.12859
5472.99405,0.13002
5474.92252,0.11012
5476.85099,0.07027
5478.77946,0.04566
5480.70793,0.04739
5482.63640,0.06363
5484.56487,0.07265
5486.49334,0.06869
5488.42180,0.07607
5490.35027,0.08326
5492.27874,0.06051
5494.20721,0.04086
5496.13568,0.05341
5498.06415,0.07125
5499.99262,0.07365
5501.92108,0.06793
5503.84955,0.06617
5505.77802,0.06507
5507.70649,0.05817
5509.63496,0.05317
5511.56343,0.05077
5513.49190,0.04574
5515.42037,0.05067
5517.34883,0.08137
5519.27730,0.11412
5521.20577,0.10687
5523.13424,0.07149
5525.06271,0.05125
5526.99118,0.05377
5528.91965,0.05931
5530.84811,0.05021
5532.77658,0.03034
5534.70505,0.02653
5536.63352,0.05429
5538.56199,0.08728
5540.49046,0.09430
5542.41893,0.08798
5544.34740,0.08988
5546.27586,0.08671
5548.20433,0.07794
5550.13280,0.09527
5552.06127,0.12661
5553.98974,0.13152
5555.91821,0.11421
5557.84668,0.09005
5559.77514,0.06491
5561.70361,0.06477
5563.63208,0.09002
5565.56055,0.09269
5567.48902,0.06457
5569.41749,0.04771
5571.34596,0.05600
5573.27443,0.08072
5575.20289,0.08819
5577.13136,0.04959
5579.05983,0.00743
5580.98830,0.00034
5582.91677,0.01999
5584.84524,0.06275
5586.77371,0.09418
5588.70217,0.07261
5590.63064,0.04755
5592.55911,0.06373
5594.48758,0.09024
5596.41605,0.11145
5598.34452,0.12366
5600.27299,0.11533
5602.20145,0.10070
5604.12992,0.09199
5606.05839,0.08575
5607.98686,0.08226
5609.91533,0.08524
5611.84380,0.10853
5613.77227,0.14134
5615.70074,0.13140
5617.62920,0.07756
5619.55767,0.04141
5621.48614,0.04317
5623.41461,0.05573
5625.34308,0.06282
5627.27155,0.06616
5629.20002,0.08421
5631.12848,0.10893
5633.05695,0.10748
5634.98542,0.07643
5636.91389,0.03884
5638.84236,0.02166
5640.77083,0.03551
5642.69930,0.06238
5644.62777,0.08438
5646.55623,0.11178
5648.48470,0.13850
5650.41317,0.12222
5652.34164,0.07946
5654.27011,0.06903
5656.19858,0.08448
5658.12705,0.08933
5660.05551,0.08495
5661.98398,0.08070
5663.91245,0.06279
5665.84092,0.04081
5667.76939,0.04467
5669.69786,0.06176
5671.62633,0.06433
5673.55480,0.05632
5675.48326,0.05544
5677.41173,0.07286
5679.34020,0.08944
5681.26867,0.08507
5683.19714,0.06999
5685.12561,0.05413
5687.05408,0.04098
5688.98254,0.02970
5690.91101,0.02296
5692.83948,0.03126
5694.76795,0.05749
5696.69642,0.08275
5698.62489,0.07764
5700.55336,0.06262
5702.48183,0.06545
5704.41029,0.05417
5706.33876,0.03194
5708.26723,0.04434
5710.19570,0.07970
5712.12417,0.10483
5714.05264,0.11513
5715.98111,0.12355
5717.90957,0.13645
5719.83804,0.13146
5721.76651,0.11762
5723.69498,0.11616
5725.62345,0.10036
5727.55192,0.07519
5729.48039,0.07846
5731.40886,0.07516
5733.33732,0.02868
5735.26579,-0.01357
5737.19426,-0.00047
5739.12273,0.04609
5741.05120,0.07521
5742.97967,0.07004
5744.90814,0.05100
5746.83660,0.04004
5748.76507,0.05180
5750.69354,0.08383
5752.62201,0.11148
5754.55048,0.10433
5756.47895,0.06447
5758.40742,0.04317
5760.33588,0.06159
5762.26435,0.07322
5764.19282,0.04946
5766.12129,0.02623
5768.04976,0.02919
5769.97823,0.04408
5771.90670,0.05884
5773.83517,0.06729
5775.76363,0.06847
5777.69210,0.07177
5779.62057,0.06157
5781.54904,0.04085
5783.47751,0.05690
5785.40598,0.09017
5787.33445,0.09033
5789.26291,0.07877
5791.19138,0.07955
5793.11985,0.08510
5795.04832,0.06695
5796.97679,0.02730
5798.90526,0.02179
5800.83373,0.03823
5802.76220,0.04349
5804.69066,0.05840
5806.61913,0.08145
5808.54760,0.09534
5810.47607,0.08681
5812.40454,0.06942
5814.33301,0.10166
5816.26148,0.16189
5818.18994,0.15756
5820.11841,0.09763
5822.04688,0.08402
5823.97535,0.13011
5825.90382,0.14784
5827.83229,0.10130
5829.76076,0.04138
5831.68923,0.01420
5833.61769,0.03238
5835.54616,0.08387
5837.47463,0.11488
5839.40310,0.09840
5841.33157,0.07533
5843.26004,0.07329
5845.18851,0.07237
5847.11697,0.08363
5849.04544,0.12395
5850.97391,0.15188
5852.90238,0.14832
5854.83085,0.13647
5856.75932,0.12633
5858.68779,0.11721
5860.61626,0.10102
5862.54472,0.09340
5864.47319,0.12548
5866.40166,0.16773
5868.33013,0.15421
5870.25860,0.09404
5872.18707,0.08064
5874.11554,0.14045
5876.04400,0.18500
5877.97247,0.17164
5879.90094,0.15000
5881.82941,0.14839
5883.75788,0.16236
5885.68635,0.18436
5887.61482,0.18815
5889.54329,0.16237
5891.47175,0.13768
5893.40022,0.12461
5895.32869,0.10495
5897.25716,0.07687
5899.18563,0.05756
5901.11410,0.05104
5903.04257,0.05108
5904.97103,0.05835
5906.89950,0.08232
5908.82797,0.11876
5910.75644,0.14311
5912.68491,0.14794
5914.61338,0.12421
5916.54185,0.08079
5918.47032,0.04353
5920.39878,0.02411
5922.32725,0.03962
5924.25572,0.08251
5926.18419,0.11481
5928.11266,0.10725
5930.04113,0.07811
5931.96960,0.08016
5933.89806,0.12249
5935.82653,0.13057
5937.75500,0.06976
5939.68347,0.02575
5941.61194,0.04165
5943.54041,0.07633
5945.46888,0.10797
5947.39734,0.11821
5949.32581,0.09955
5951.25428,0.08837
5953.18275,0.09512
5955.11122,0.10306
5957.03969,0.12201
5958.96816,0.16394
5960.89663,0.18351
5962.82509,0.13661
5964.75356,0.08612
5966.68203,0.09059
5968.61050,0.11142
5970.53897,0.11743
5972.46744,0.11559
5974.39591,0.09825
5976.32437,0.07765
5978.25284,0.06306
5980.18131,0.04770
5982.10978,0.05517
5984.03825,0.09730
5985.96672,0.13894
5987.89519,0.14283
5989.82366,0.13117
5991.75212,0.13102
5993.68059,0.10322
5995.60906,0.06343
5997.53753,0.08162
5999.46600,0.12713
6001.39447,0.14279
6003.32294,0.13479
6005.25140,0.12835
6007.17987,0.12214
6009.10834,0.10217
6011.03681,0.07501
6012.96528,0.07150
6014.89375,0.08639
6016.82222,0.09702
6018.75069,0.10908
6020.67915,0.12752
6022.60762,0.14786
6024.53609,0.14216
6026.46456,0.11446
6028.39303,0.10819
6030.32150,0.11924
6032.24997,0.13065
6034.17843,0.12584
6036.10690,0.06862
6038.03537,-0.00264
6039.96384,-0.00342
6041.89231,0.06672
6043.82078,0.10906
6045.74925,0.08977
6047.67772,0.08724
6049.60618,0.09103
6051.53465,0.05818
6053.46312,0.03765
6055.39159,0.06721
6057.32006,0.12841
6059.24853,0.15813
6061.17700,0.14790
6063.10546,0.12250
6065.03393,0.06484
6066.96240,0.01728
6068.89087,0.02134
6070.81934,0.02675
6072.74781,0.00207
6074.67628,0.00024
6076.60475,0.04038
6078.53321,0.08209
6080.46168,0.10659
6082.39015,0.08983
6084.31862,0.03786
6086.24709,0.00886
6088.17556,0.00524
6090.10403,0.01253
6092.03249,0.06852
6093.96096,0.13781
6095.88943,0.15714
6097.81790,0.15939
6099.74637,0.14433
6101.67484,0.12457
6103.60331,0.16409
6105.53177,0.19059
6107.46024,0.13034
6109.38871,0.05642
6111.31718,0.05370
6113.24565,0.10741
6115.17412,0.12736
6117.10259,0.09424
6119.03106,0.07031
6120.95952,0.06543
6122.88799,0.07227
6124.81646,0.09952
6126.74493,0.12915
6128.67340,0.14333
6130.60187,0.13466
6132.53034,0.10164
6134.45880,0.04849
6136.38727,0.00403
6138.31574,0.01162
6140.24421,0.04775
6142.17268,0.04558
6144.10115,0.02224
6146.02962,0.03583
6147.95809,0.08277
6149.88655,0.13437
6151.81502,0.14276
6153.74349,0.09309
6155.67196,0.06383
6157.60043,0.07330
6159.52890,0.03939
6161.45737,-0.01889
6163.38583,0.01223
6165.31430,0.09251
6167.24277,0.10617
6169.17124,0.06785
6171.09971,0.02993
6173.02818,0.00583
6174.95665,0.02454
6176.88512,0.10711
6178.81358,0.16841
6180.74205,0.15354
6182.67052,0.14422
6184.59899,0.16693
6186.52746,0.16511
6188.45593,0.14041
6190.38440,0.11933
6192.31286,0.09091
6194.24133,0.06657
6196.16980,0.04995
6198.09827,0.03063
6200.02674,0.02834
6201.95521,0.03651
6203.88368,0.01942
6205.81215,0.01194
6207.74061,0.08262
6209.66908,0.18157
6211.59755,0.18869
6213.52602,0.11505
6215.45449,0.06194
6217.38296,0.07078
6219.31143,0.08987
6221.23989,0.09739
6223.16836,0.12728
6225.09683,0.14080
6227.02530,0.10693
6228.95377,0.10663
6230.88224,0.16682
6232.81071,0.20268
6234.73918,0.16241
6236.66764,0.07863
6238.59611,0.00166
6240.52458,-0.01846
6242.45305,0.02278
6244.38152,0.07103
6246.30999,0.09239
6248.23846,0.09512
6250.16692,0.11862
6252.09539,0.18708
6254.02386,0.23010
6255.95233,0.19241
6257.88080,0.11391
6259.80927,0.06485
6261.73774,0.07929
6263.66621,0.12220
6265.59467,0.12372
6267.52314,0.06836
6269.45161,-0.01013
6271.38008,-0.07359
6273.30855,-0.07217
6275.23702,0.01619
6277.16549,0.12145
6279.09395,0.14615
6281.02242,0.07758
6282.95089,0.00213
6284.87936,0.00440
6286.80783,0.03962
6288.73630,0.03569
6290.66477,0.02660
6292.59323,0.05266
6294.52170,0.09171
6296.45017,0.13045
6298.37864,0.15241
6300.30711,0.13214
6302.23558,0.10031
6304.16405,0.11508
6306.09252,0.12696
6308.02098,0.11124
6309.94945,0.16207
6311.87792,0.23768
6313.80639,0.20808
6315.73486,0.12836
6317.66333,0.07867
6319.59180,0.05044
6321.52026,0.05161
6323.44873,0.06421
6325.37720,0.05903
6327.30567,0.07541
6329.23414,0.12924
6331.16261,0.17274
6333.09108,0.19161
6335.01955,0.20965
6336.94801,0.21815
6338.87648,0.21625
6340.80495,0.20741
6342.73342,0.16604
6344.66189,0.12205
6346.59036,0.10306
6348.51883,0.06844
6350.44729,0.02232
6352.37576,0.00489
6354.30423,0.01550
6356.23270,0.01019
6358.16117,-0.00905
6360.08964,0.02776
6362.01811,0.09008
6363.94658,0.09571
6365.87504,0.05368
6367.80351,0.00608
6369.73198,-0.00141
6371.66045,0.01821
6373.58892,-0.00756
6375.51739,-0.03107
6377.44586,0.03915
6379.37432,0.13599
6381.30279,0.17829
6383.23126,0.16352
6385.15973,0.09867
6387.08820,0.06187
6389.01667,0.08132
6390.94514,0.09661
6392.87361,0.14147
6394.80207,0.22247
6396.73054,0.24563
6398.65901,0.24560
6400.58748,0.23032
6402.51595,0.14543
6404.44442,0.08505
6406.37289,0.12794
6408.30135,0.17494
6410.22982,0.13695
6412.15829,0.05903
6414.08676,0.02403
6416.01523,0.01922
6417.94370,0.03151
6419.87217,0.07996
6421.80064,0.10969
6423.72910,0.11172
6425.65757,0.13477
6427.58604,0.14924
6429.51451,0.12893
6431.44298,0.10914
6433.37145,0.04979
6435.29992,-0.04505
6437.22838,-0.04713
6439.15685,0.04327
6441.08532,0.08913
6443.01379,0.07102
6444.94226,0.05321
6446.87073,0.04842
6448.79920,0.01456
6450.72766,-0.02995
6452.65613,-0.00476
6454.58460,0.06883
6456.51307,0.11710
6458.44154,0.12717
6460.37001,0.08182
6462.29848,0.00678
6464.22695,-0.00305
6466.15541,0.03166
6468.08388,0.04611
6470.01235,0.07229
6471.94082,0.11018
6473.86929,0.10474
6475.79776,0.06838
6477.72623,0.05197
6479.65469,0.05943
6481.58316,0.05519
6483.51163,0.06055
6485.44010,0.08481
6487.36857,0.06186
6489.29704,-0.02101
6491.22551,-0.09779
6493.15398,-0.08914
6495.08244,0.00133
6497.01091,0.06924
6498.93938,0.06635
6500.86785,0.04595
6502.79632,0.08790
6504.72479,0.14742
6506.65326,0.13659
6508.58172,0.08726
6510.51019,0.04758
6512.43866,0.01903
6514.36713,-0.01209
6516.29560,-0.01707
6518.22407,0.06920
6520.15254,0.13784
6522.08101,0.06977
6524.00947,-0.05267
6525.93794,-0.09463
6527.86641,-0.04496
6529.79488,0.03418
6531.72335,0.08007
6533.65182,0.08156
6535.58029,0.07785
6537.50875,0.08984
6539.43722,0.12446
6541.36569,0.13072
6543.29416,0.06975
6545.22263,0.02492
6547.15110,0.02231
6549.07957,0.03413
6551.00804,0.08101
6552.93650,0.13403
6554.86497,0.12403
6556.79344,0.06658
6558.72191,0.02968
6560.65038,0.01205
6562.57885,-0.02385
6564.50732,-0.06607
6566.43578,-0.05494
6568.36425,0.00102
6570.29272,0.01635
6572.22119,-0.00599
6574.14966,-0.04289
6576.07813,-0.08565
6578.00660,-0.05662
6579.93507,0.04845
6581.86353,0.15078
6583.79200,0.22305
6585.72047,0.23330
6587.64894,0.17715
6589.57741,0.12978
6591.50588,0.12393
6593.43435,0.11058
6595.36281,0.05972
6597.29128,-0.01611
6599.21975,-0.08334
6601.14822,-0.10918
6603.07669,-0.10086
6605.00516,-0.06838
6606.93363,-0.00213
6608.86210,0.06996
6610.79056,0.08690
6612.71903,0.04424
6614.64750,-0.02613
6616.57597,-0.08796
6618.50444,-0.06036
6620.43291,0.04217
6622.36138,0.10122
6624.28984,0.06034
6626.21831,0.03703
6628.14678,0.12805
6630.07525,0.20545
6632.00372,0.18374
6633.93219,0.16008
6635.86066,0.13753
6637.78912,0.09253
6639.71759,0.09972
6641.64606,0.14620
6643.57453,0.14928
6645.50300,0.11001
6647.43147,0.06811
6649.35994,0.01825
6651.28841,-0.01412
6653.21687,0.02403
6655.14534,0.08638
6657.07381,0.06595
6659.00228,-0.00164
6660.93075,-0.02456
6662.85922,-0.02148
6664.78769,-0.04743
6666.71615,-0.08809
6668.64462,-0.06387
6670.57309,-0.00782
6672.50156,-0.01589
6674.43003,-0.03073
6676.35850,-0.00192
6678.28697,0.03623
6680.21544,0.08498
6682.14390,0.11132
6684.07237,0.11338
6686.00084,0.15430
6687.92931,0.16275
6689.85778,0.09422
6691.78625,0.04582
6693.71472,0.06635
6695.64318,0.17240
6697.57165,0.25747
6699.50012,0.20946
6701.42859,0.10246
6703.35706,0.02790
6705.28553,0.00101
6707.21400,-0.01447
6709.14247,-0.01920
6711.07093,0.01640
6712.99940,0.07200
6714.92787,0.11486
6716.85634,0.14111
6718.78481,0.11649
6720.71328,0.02037
6722.64175,-0.05841
6724.57021,-0.04137
6726.49868,0.02505
6728.42715,0.04312
6730.35562,0.03274
6732.28409,0.09284
6734.21256,0.17937
6736.14103,0.14741
6738.06950,0.03873
6739.99796,0.02317
6741.92643,0.06487
6743.85490,0.05290
6745.78337,0.07012
6747.71184,0.13677
6749.64031,0.15309
6751.56878,0.12418
6753.49724,0.08186
6755.42571,0.05575
6757.35418,0.09238
6759.28265,0.13404
6761.21112,0.13593
6763.13959,0.11821
6765.06806,0.08861
6766.99653,0.05853
6768.92499,0.05389
6770.85346,0.10488
6772.78193,0.14985
6774.71040,0.14011
6776.63887,0.11348
6778.56734,0.07045
6780.49581,0.01940
6782.42427,0.02107
6784.35274,0.10379
6786.28121,0.19234
6788.20968,0.18510
6790.13815,0.11286
6792.06662,0.08095
6793.99509,0.10405
6795.92355,0.12643
6797.85202,0.11097
6799.78049,0.06994
6801.70896,0.03046
6803.63743,0.01710
6805.56590,0.01469
6807.49437,0.02042
6809.42284,0.07034
6811.35130,0.09763
6813.27977,0.02698
6815.20824,-0.04412
6817.13671,-0.01226
6819.06518,0.08295
6820.99365,0.13972
6822.92212,0.09544
6824.85058,0.00704
6826.77905,-0.05832
6828.70752,-0.09345
6830.63599,-0.04863
6832.56446,0.04824
6834.49293,0.14171
6836.42140,0.21775
6838.34987,0.24440
6840.27833,0.25355
6842.20680,0.25227
6844.13527,0.18065
6846.06374,0.06071
6847.99221,-0.01943
6849.92068,-0.01703
6851.84915,0.03509
6853.77761,0.07482
6855.70608,0.06493
6857.63455,0.07607
6859.56302,0.14717
6861.49149,0.19897
6863.41996,0.18333
6865.34843,0.12762
6867.27690,0.08467
6869.20536,0.11509
6871.13383,0.15311
6873.06230,0.08093
6874.99077,-0.00883
6876.91924,0.00674
6878.84771,0.06674
6880.77618,0.07579
6882.70464,0.05059
6884.63311,0.04605
6886.56158,0.07573
6888.49005,0.15551
6890.41852,0.22138
6892.34699,0.17926
6894.27546,0.13207
6896.20393,0.18042
6898.13239,0.21727
6900.06086,0.17943
6901.98933,0.13564
6903.91780,0.07699
6905.84627,0.00003
6907.77474,-0.06456
6909.70321,-0.10525
6911.63167,-0.05662
6913.56014,0.07512
6915.48861,0.17849
6917.41708,0.24784
6919.34555,0.26059
6921.27402,0.12613
6923.20249,-0.05749
6925.13096,-0.13372
6927.05942,-0.08281
6928.98789,0.01565
6930.91636,0.07032
6932.84483,0.05707
6934.77330,0.00672
6936.70177,0.00402
6938.63024,0.10067
6940.55870,0.18595
6942.48717,0.13985
6944.41564,0.03629
6946.34411,-0.05113
6948.27258,-0.11387
6950.20105,-0.14513
6952.12952,-0.10979
6954.05799,-0.04892
6955.98645,-0.05813
6957.91492,-0.07826
6959.84339,-0.04715
6961.77186,-0.01849
6963.70033,-0.01643
6965.62880,-0.02045
6967.55727,0.00317
6969.48573,0.04141
6971.41420,0.02607
6973.34267,0.01694
6975.27114,0.09050
6977.19961,0.14428
6979.12808,0.12663
6981.05655,0.10675
6982.98501,0.15393
6984.91348,0.22141
6986.84195,0.23327
6988.77042,0.19568
6990.69889,0.07101
6992.62736,-0.06474
6994.55583,-0.06450
6996.48430,0.03014
6998.41276,0.10615
7000.34123,0.16462
7002.26970,0.20533
7004.19817,0.20381
7006.12664,0.17425
7008.05511,0.17026
7009.98358,0.15783
7011.91204,0.07826
7013.84051,-0.01918
7015.76898,-0.07335
7017.69745,-0.08912
7019.62592,-0.07608
7021.55439,-0.06473
7023.48286,-0.07064
7025.41133,-0.08832
7027.33979,-0.08323
7029.26826,0.01775
7031.19673,0.17176
7033.12520,0.26623
7035.05367,0.26383
7036.98214,0.19338
7038.91061,0.10938
7040.83907,0.08515
7042.76754,0.19771
7044.69601,0.32911
7046.62448,0.28104
7048.55295,0.11159
7050.48142,0.03569
7052.40989,0.12703
7054.33836,0.24096
7056.26682,0.21537
7058.19529,0.10761
7060.12376,0.04031
7062.05223,0.01560
7063.98070,-0.00883
7065.90917,-0.09177
7067.83764,-0.19633
7069.76610,-0.17179
7071.69457,0.03307
7073.62304,0.18244
7075.55151,0.15196
7077.47998,0.06994
7079.40845,0.02281
7081.33692,0.04997
7083.26539,0.12889
7085.19385,0.11604
7087.12232,0.02172
7089.05079,-0.04148
7090.97926,-0.02612
7092.90773,0.05665
7094.83620,0.12867
7096.76467,0.16277
7098.69313,0.15690
7100.62160,0.11215
7102.55007,0.05088
7104.47854,-0.03644
7106.40701,-0.07921
7108.33548,-0.04463
7110.26395,0.01977
7112.19242,0.10819
7114.12088,0.14763
7116.04935,0.07607
7117.97782,0.05261
7119.90629,0.21482
7121.83476,0.31310
7123.76323,0.22185
7125.69170,0.06792
7127.62016,-0.00331
7129.54863,0.02585
7131.47710,0.05569
7133.40557,0.04918
7135.33404,0.06991
7137.26251,0.11571
7139.19098,0.13204
7141.11944,0.10209
7143.04791,0.05293
7144.97638,0.08622
7146.90485,0.16022
7148.83332,0.08908
7150.76179,-0.05175
7152.69026,-0.09866
7154.61873,-0.05094
7156.54719,0.02210
7158.47566,0.06498
7160.40413,-0.03635
7162.33260,-0.20628
7164.26107,-0.20304
7166.18954,-0.05732
7168.11801,0.08588
7170.04647,0.22023
7171.97494,0.22265
7173.90341,0.13413
7175.83188,0.10942
7177.76035,0.06300
7179.68882,-0.02031
7181.61729,-0.00840
7183.54576,0.07827
7185.47422,0.05514
7187.40269,-0.04288
7189.33116,-0.08164
7191.25963,-0.06067
7193.18810,-0.01790
7195.11657,0.06226
7197.04504,0.22090
7198.97350,0.38302
7200.90197,0.38362
7202.83044,0.19913
7204.75891,-0.00801
7206.68738,0.01064
7208.61585,0.16971
7210.54432,0.25625
7212.47279,0.21720
7214.40125,0.16969
7216.32972,0.13182
7218.25819,0.06312
7220.18666,0.08553
7222.11513,0.13492
7224.04360,0.09939
7225.97207,-0.02435
7227.90053,-0.14048
7229.82900,-0.11785
7231.75747,0.04820
7233.68594,0.16499
7235.61441,0.22328
7237.54288,0.27629
7239.47135,0.30408
7241.39982,0.34354
7243.32828,0.28257
7245.25675,0.10689
7247.18522,0.06955
7249.11369,0.08932
7251.04216,0.01846
7252.97063,0.05757
7254.89910,0.17085
7256.82756,0.09407
7258.75603,0.01034
7260.68450,0.11635
7262.61297,0.24626
7264.54144,0.23816
7266.46991,0.18714
7268.39838,0.13662
7270.32685,0.10187
7272.25531,0.06993
7274.18378,-0.01701
7276.11225,-0.09009
7278.04072,-0.04517
7279.96919,0.09209
7281.89766,0.16248
7283.82613,0.19641
7285.75459,0.25984
7287.68306,0.25782
7289.61153,0.11296
7291.54000,0.00569
7293.46847,0.05374
7295.39694,0.11134
7297.32541,0.15993
7299.25387,0.21396
7301.18234,0.26757
7303.11081,0.32348
7305.03928,0.25582
7306.96775,0.02656
7308.89622,-0.10828
7310.82469,-0.00764
7312.75316,0.09195
7314.68162,0.02137
7316.61009,-0.11523
7318.53856,-0.00944
7320.46703,0.27745
7322.39550,0.47917
7324.32397,0.41841
7326.25244,0.27528
7328.18090,0.21217
7330.10937,0.15655
7332.03784,0.09147
7333.96631,0.06810
7335.89478,0.08992
7337.82325,0.09670
7339.75172,0.06716
7341.68019,0.09298
7343.60865,0.19346
7345.53712,0.26864
7347.46559,0.19522
7349.39406,0.02127
7351.32253,-0.08242
7353.25100,-0.08683
7355.17947,-0.09585
7357.10793,-0.16426
7359.03640,-0.16401
7360.96487,0.00039
7362.89334,0.17937
7364.82181,0.34170
7366.75028,0.44355
7368.67875,0.37114
7370.60722,0.19178
7372.53568,0.02535
7374.46415,-0.09859
7376.39262,-0.14978
7378.32109,-0.15766
7380.24956,-0.10890
7382.17803,0.02390
7384.10650,0.09740
7386.03496,0.05559
7387.96343,0.06536
7389.89190,0.09652
7391.82037,0.00413
7393.74884,-0.18616
7395.67731,-0.24718
7397.60578,-0.07437
7399.53425,0.01645
7401.46271,-0.09558
7403.39118,-0.10664
7405.31965,0.14020
7407.24812,0.32794
7409.17659,0.27846
7411.10506,0.16688
7413.03353,0.13431
7414.96199,0.08736
7416.89046,0.03288
7418.81893,0.06742
7420.74740,0.13019
7422.67587,0.14252
7424.60434,0.14542
7426.53281,0.16772
7428.46128,0.11124
7430.38974,-0.07748
7432.31821,-0.13248
7434.24668,0.04825
7436.17515,0.21830
7438.10362,0.26430
7440.03209,0.30191
7441.96056,0.20264
7443.88902,-0.01306
7445.81749,-0.03443
7447.74596,0.11708
7449.67443,0.28062
7451.60290,0.39010
7453.53137,0.34153
7455.45984,0.23416
7457.38831,0.22659
7459.31677,0.25478
7461.24524,0.20165
7463.17371,0.16587
7465.10218,0.20867
7467.03065,0.21711
7468.95912,0.13980
7470.88759,0.06233
7472.81605,0.04844
7474.74452,0.13940
7476.67299,0.34262
7478.60146,0.56118
7480.52993,0.68466
7482.45840,0.48675
7484.38687,0.02095
7486.31533,-0.23138
7488.24380,-0.10602
7490.17227,0.05465
7492.10074,-0.00153
7494.02921,-0.13235
7495.95768,-0.14756
7497.88615,0.07070
