399.19301,1.99849
401.12148,0.98530
403.04995,0.78137
404.97842,0.41537
406.90689,0.14252
408.83536,-0.04979
410.76382,-0.09071
412.69229,-0.00879
414.62076,0.06848
416.54923,0.17326
418.47770,0.33471
420.40617,0.38150
422.33464,0.29375
424.26311,0.18601
426.19157,0.13807
428.12004,0.15548
430.04851,0.15135
431.97698,0.10451
433.90545,0.05132
435.83392,-0.00873
437.76239,-0.03855
439.69085,-0.03551
441.61932,-0.01950
443.54779,0.04080
445.47626,0.08742
447.40473,0.07695
449.33320,0.09025
451.26167,0.16054
453.19013,0.21663
455.11860,0.17736
457.04707,0.09099
458.97554,0.04816
460.90401,0.04246
462.83248,0.04270
464.76095,0.02968
466.68942,0.01780
468.61788,0.03691
470.54635,0.08760
472.47482,0.13062
474.40329,0.10198
476.33176,0.02616
478.26023,-0.02177
480.18870,-0.00984
482.11716,0.05925
484.04563,0.12188
485.97410,0.12821
487.90257,0.08239
489.83104,0.02593
491.75951,0.01969
493.68798,0.06263
495.61645,0.10124
497.54491,0.10521
499.47338,0.10553
501.40185,0.12517
503.33032,0.13033
505.25879,0.09496
507.18726,0.04933
509.11573,0.04488
511.04419,0.05804
512.97266,0.05929
514.90113,0.08737
516.82960,0.15111
518.75807,0.16605
520.68654,0.12218
522.61501,0.08951
524.54348,0.08324
526.47194,0.10953
528.40041,0.16057
530.32888,0.19084
532.25735,0.18811
534.18582,0.17443
536.11429,0.15906
538.04276,0.14770
539.97122,0.12719
541.89969,0.10036
543.82816,0.11089
545.75663,0.13909
547.68510,0.14546
549.61357,0.19770
551.54204,0.43516
553.47051,0.67476
555.39897,0.55622
557.32744,0.25669
559.25591,0.13159
561.18438,0.11782
563.11285,0.10284
565.04132,0.07850
566.96979,0.06115
568.89825,0.08357
570.82672,0.14007
572.75519,0.19030
574.68366,0.19543
576.61213,0.15522
578.54060,0.10365
580.46907,0.07964
582.39754,0.10193
584.32600,0.13870
586.25447,0.14102
588.18294,0.11664
590.11141,0.10110
592.03988,0.10169
593.96835,0.11937
595.89682,0.13565
597.82528,0.13198
599.75375,0.11750
601.68222,0.10278
603.61069,0.09371
605.53916,0.10988
607.46763,0.14537
609.39610,0.16073
611.32456,0.14864
613.25303,0.12644
615.18150,0.10317
617.10997,0.08079
619.03844,0.06982
620.96691,0.07226
622.89538,0.07624
624.82385,0.09018
626.75231,0.11058
628.68078,0.12159
630.60925,0.12070
632.53772,0.10296
634.46619,0.09079
636.39466,0.11433
638.32313,0.15413
640.25159,0.17268
642.18006,0.16095
644.10853,0.13148
646.03700,0.10084
647.96547,0.09790
649.89394,0.12368
651.82241,0.14107
653.75088,0.13976
655.67934,0.13000
657.60781,0.12499
659.53628,0.13254
661.46475,0.13909
663.39322,0.13440
665.32169,0.12861
667.25016,0.13251
669.17862,0.12854
671.10709,0.12200
673.03556,0.14094
674.96403,0.15597
676.89250,0.13472
678.82097,0.11269
680.74944,0.12196
682.67791,0.14269
684.60637,0.15416
686.53484,0.14964
688.46331,0.14304
690.39178,0.14689
692.32025,0.14506
694.24872,0.13554
696.17719,0.13545
698.10565,0.14530
700.03412,0.14983
701.96259,0.14020
703.89106,0.13017
705.81953,0.13188
707.74800,0.13638
709.67647,0.13916
711.60494,0.14286
713.53340,0.14411
715.46187,0.13465
717.39034,0.12267
719.31881,0.12238
721.24728,0.12442
723.17575,0.12668
725.10422,0.13433
727.03268,0.13325
728.96115,0.12159
730.88962,0.11551
732.81809,0.12274
734.74656,0.13731
736.67503,0.14686
738.60350,0.14729
740.53197,0.14462
742.46043,0.14317
744.38890,0.13893
746.31737,0.13082
748.24584,0.12939
750.17431,0.13418
752.10278,0.13367
754.03125,0.13447
755.95971,0.14157
757.88818,0.14382
759.81665,0.14385
761.74512,0.14855
763.67359,0.15435
765.60206,0.15540
767.53053,0.14852
769.45900,0.14398
771.38746,0.14722
773.31593,0.14729
775.24440,0.14191
777.17287,0.13708
779.10134,0.12971
781.02981,0.11714
782.95828,0.11349
784.88674,0.13087
786.81521,0.15247
788.74368,0.15562
790.67215,0.14489
792.60062,0.13992
794.52909,0.14947
796.45756,0.15351
798.38602,0.14347
800.31449,0.14023
802.24296,0.14648
804.17143,0.15399
806.09990,0.16028
808.02837,0.15824
809.95684,0.14844
811.88531,0.14592
813.81377,0.15012
815.74224,0.14414
817.67071,0.13144
819.59918,0.12180
821.52765,0.12142
823.45612,0.13043
825.38459,0.13069
827.31305,0.11677
829.24152,0.11261
831.16999,0.12513
833.09846,0.13571
835.02693,0.14496
836.95540,0.15359
838.88387,0.14793
840.81234,0.13900
842.74080,0.13939
844.66927,0.13817
846.59774,0.13258
848.52621,0.13548
850.45468,0.14537
852.38315,0.14955
854.31162,0.14664
856.24008,0.13915
858.16855,0.12768
860.09702,0.12061
862.02549,0.12786
863.95396,0.14325
865.88243,0.15141
867.81090,0.14837
869.73937,0.13988
871.66783,0.13741
873.59630,0.14343
875.52477,0.14464
877.45324,0.13966
879.38171,0.13513
881.31018,0.13477
883.23865,0.14205
885.16711,0.15062
887.09558,0.15067
889.02405,0.14489
890.95252,0.14281
892.88099,0.14279
894.80946,0.14420
896.73793,0.14923
898.66640,0.14862
900.59486,0.14368
902.52333,0.14106
904.45180,0.13285
906.38027,0.12142
908.30874,0.12053
910.23721,0.12900
912.16568,0.13736
914.09414,0.14362
916.02261,0.15051
917.95108,0.15426
919.87955,0.15140
921.80802,0.15049
923.73649,0.15216
925.66496,0.14953
927.59343,0.14760
929.52189,0.14816
931.45036,0.14591
933.37883,0.14248
935.30730,0.13985
937.23577,0.13829
939.16424,0.14015
941.09271,0.14141
943.02117,0.13758
944.94964,0.13569
946.87811,0.14504
948.80658,0.15938
950.73505,0.16635
952.66352,0.16879
954.59199,0.17071
956.52045,0.16963
958.44892,0.16474
960.37739,0.15288
962.30586,0.14192
964.23433,0.14345
966.16280,0.14730
968.09127,0.14137
970.01974,0.13468
971.94820,0.13692
973.87667,0.14142
975.80514,0.14223
977.73361,0.14512
979.66208,0.15396
981.59055,0.16221
983.51902,0.16344
985.44748,0.16115
987.37595,0.16182
989.30442,0.16047
991.23289,0.15094
993.16136,0.14515
995.08983,0.15217
997.01830,0.15982
998.94677,0.15355
1000.87523,0.13824
1002.80370,0.13156
1004.73217,0.14015
1006.66064,0.15621
1008.58911,0.16476
1010.51758,0.15835
1012.44605,0.14998
1014.37451,0.14805
1016.30298,0.14589
1018.23145,0.14450
1020.15992,0.14956
1022.08839,0.15895
1024.01686,0.16903
1025.94533,0.17957
1027.87380,0.18562
1029.80226,0.17824
1031.73073,0.16416
1033.65920,0.15780
1035.58767,0.15604
1037.51614,0.15344
1039.44461,0.15505
1041.37308,0.15727
1043.30154,0.15289
1045.23001,0.15012
1047.15848,0.15647
1049.08695,0.16144
1051.01542,0.16229
1052.94389,0.16890
1054.87236,0.17481
1056.80083,0.17420
1058.72929,0.17331
1060.65776,0.17009
1062.58623,0.16380
1064.51470,0.16156
1066.44317,0.16025
1068.37164,0.15219
1070.30011,0.14617
1072.22857,0.15104
1074.15704,0.16079
1076.08551,0.16862
1078.01398,0.17113
1079.94245,0.16865
1081.87092,0.16866
1083.79939,0.17348
1085.72786,0.17073
1087.65632,0.15872
1089.58479,0.15013
1091.51326,0.14581
1093.44173,0.14554
1095.37020,0.15337
1097.29867,0.16353
1099.22714,0.16880
1101.15560,0.16578
1103.08407,0.15857
1105.01254,0.15911
1106.94101,0.16407
1108.86948,0.16247
1110.79795,0.15581
1112.72642,0.14987
1114.65489,0.14966
1116.58335,0.15504
1118.51182,0.15961
1120.44029,0.15980
1122.36876,0.15816
1124.29723,0.15698
1126.22570,0.15612
1128.15417,0.15726
1130.08263,0.15965
1132.01110,0.16003
1133.93957,0.15796
1135.86804,0.15815
1137.79651,0.16295
1139.72498,0.16432
1141.65345,0.15989
1143.58191,0.15727
1145.51038,0.15861
1147.43885,0.16196
1149.36732,0.16602
1151.29579,0.16826
1153.22426,0.16856
1155.15273,0.16803
1157.08120,0.16792
1159.00966,0.17200
1160.93813,0.17682
1162.86660,0.17492
1164.79507,0.16963
1166.72354,0.16697
1168.65201,0.16738
1170.58048,0.16828
1172.50894,0.16601
1174.43741,0.16367
1176.36588,0.16674
1178.29435,0.17048
1180.22282,0.16936
1182.15129,0.16640
1184.07976,0.16543
1186.00823,0.16600
1187.93669,0.16741
1189.86516,0.17063
1191.79363,0.17202
1193.72210,0.16666
1195.65057,0.15824
1197.57904,0.15437
1199.50751,0.15704
1201.43597,0.16297
1203.36444,0.16897
1205.29291,0.17314
1207.22138,0.17342
1209.14985,0.16856
1211.07832,0.16384
1213.00679,0.16452
1214.93526,0.16501
1216.86372,0.16342
1218.79219,0.16568
1220.72066,0.16929
1222.64913,0.16929
1224.57760,0.16675
1226.50607,0.16360
1228.43454,0.16228
1230.36300,0.16392
1232.29147,0.16535
1234.21994,0.16351
1236.14841,0.16161
1238.07688,0.16476
1240.00535,0.17034
1241.93382,0.17152
1243.86229,0.16818
1245.79075,0.16726
1247.71922,0.17147
1249.64769,0.17698
1251.57616,0.17941
1253.50463,0.17567
1255.43310,0.16891
1257.36157,0.16532
1259.29003,0.16496
1261.21850,0.16431
1263.14697,0.16449
1265.07544,0.16686
1267.00391,0.16808
1268.93238,0.16826
1270.86085,0.16848
1272.78932,0.16806
1274.71778,0.16891
1276.64625,0.17237
1278.57472,0.17647
1280.50319,0.17752
1282.43166,0.17531
1284.36013,0.17302
1286.28860,0.17241
1288.21706,0.17294
1290.14553,0.17274
1292.07400,0.17113
1294.00247,0.16775
1295.93094,0.16390
1297.85941,0.16243
1299.78788,0.16241
1301.71634,0.16152
1303.64481,0.16077
1305.57328,0.16248
1307.50175,0.16633
1309.43022,0.16855
1311.35869,0.16918
1313.28716,0.17198
1315.21563,0.17346
1317.14409,0.17047
1319.07256,0.16897
1321.00103,0.17142
1322.92950,0.17117
1324.85797,0.16492
1326.78644,0.16086
1328.71491,0.16356
1330.64337,0.16695
1332.57184,0.16906
1334.50031,0.17134
1336.42878,0.17455
1338.35725,0.17849
1340.28572,0.17855
1342.21419,0.18214
1344.14266,0.19784
1346.07112,0.20553
1347.99959,0.19071
1349.92806,0.17547
1351.85653,0.17196
1353.78500,0.16901
1355.71347,0.16742
1357.64194,0.17436
1359.57040,0.18487
1361.49887,0.18822
1363.42734,0.18296
1365.35581,0.17931
1367.28428,0.17942
1369.21275,0.17955
1371.14122,0.18034
1373.06969,0.18475
1374.99815,0.18918
1376.92662,0.18713
1378.85509,0.18197
1380.78356,0.17685
1382.71203,0.17446
1384.64050,0.18044
1386.56897,0.18852
1388.49743,0.18362
1390.42590,0.17476
1392.35437,0.17749
1394.28284,0.19030
1396.21131,0.19934
1398.13978,0.19641
1400.06825,0.18880
1401.99672,0.18514
1403.92518,0.18602
1405.85365,0.18692
1407.78212,0.18444
1409.71059,0.18002
1411.63906,0.17586
1413.56753,0.17580
1415.49600,0.18379
1417.42446,0.19664
1419.35293,0.19872
1421.28140,0.18667
1423.20987,0.17647
1425.13834,0.17504
1427.06681,0.18195
1428.99528,0.18710
1430.92375,0.18485
1432.85221,0.18569
1434.78068,0.19421
1436.70915,0.19789
1438.63762,0.18764
1440.56609,0.17988
1442.49456,0.18130
1444.42303,0.18553
1446.35149,0.18700
1448.27996,0.18668
1450.20843,0.18801
1452.13690,0.19089
1454.06537,0.19596
1455.99384,0.20895
1457.92231,0.21289
1459.85077,0.19303
1461.77924,0.18162
1463.70771,0.18505
1465.63618,0.19299
1467.56465,0.19591
1469.49312,0.20131
1471.42159,0.21232
1473.35006,0.21511
1475.27852,0.20569
1477.20699,0.19644
1479.13546,0.19022
1481.06393,0.18820
1482.99240,0.18921
1484.92087,0.19170
1486.84934,0.19751
1488.77780,0.20594
1490.70627,0.20474
1492.63474,0.19871
1494.56321,0.20122
1496.49168,0.20829
1498.42015,0.20839
1500.34862,0.20836
1502.27709,0.22269
1504.20555,0.25247
1506.13402,0.27709
1508.06249,0.24982
1509.99096,0.22262
1511.91943,0.21199
1513.84790,0.20789
1515.77637,0.21358
1517.70483,0.22508
1519.63330,0.23607
1521.56177,0.23986
1523.49024,0.23145
1525.41871,0.22660
1527.34718,0.21983
1529.27565,0.20832
1531.20412,0.20437
1533.13258,0.20607
1535.06105,0.20546
1536.98952,0.21213
1538.91799,0.23904
1540.84646,0.26621
1542.77493,0.24863
1544.70340,0.22065
1546.63186,0.20457
1548.56033,0.20261
1550.48880,0.20371
1552.41727,0.20300
1554.34574,0.20983
1556.27421,0.22817
1558.20268,0.24792
1560.13115,0.22870
1562.05961,0.20871
1563.98808,0.20416
1565.91655,0.20271
1567.84502,0.20507
1569.77349,0.20782
1571.70196,0.20284
1573.63043,0.20158
1575.55889,0.20838
1577.48736,0.20570
1579.41583,0.19094
1581.34430,0.17991
1583.27277,0.17678
1585.20124,0.17804
1587.12971,0.18060
1589.05818,0.18406
1590.98664,0.18541
1592.91511,0.18268
1594.84358,0.17821
1596.77205,0.17471
1598.70052,0.17475
1600.62899,0.17862
1602.55746,0.18151
1604.48592,0.18184
1606.41439,0.18492
1608.34286,0.19003
1610.27133,0.19066
1612.19980,0.18932
1614.12827,0.19454
1616.05674,0.20406
1617.98521,0.20227
1619.91367,0.19902
1621.84214,0.20347
1623.77061,0.20283
1625.69908,0.19477
1627.62755,0.19147
1629.55602,0.19208
1631.48449,0.19515
1633.41295,0.20901
1635.34142,0.23342
1637.26989,0.23101
1639.19836,0.21000
1641.12683,0.19954
1643.05530,0.20149
1644.98377,0.21347
1646.91223,0.22869
1648.84070,0.23065
1650.76917,0.23550
1652.69764,0.25249
1654.62611,0.23462
1656.55458,0.20771
1658.48305,0.20084
1660.41152,0.20481
1662.33998,0.21003
1664.26845,0.21070
1666.19692,0.21106
1668.12539,0.22026
1670.05386,0.23114
1671.98233,0.22522
1673.91080,0.21513
1675.83926,0.20857
1677.76773,0.20840
1679.69620,0.21678
1681.62467,0.23018
1683.55314,0.24100
1685.48161,0.23190
1687.41008,0.21745
1689.33855,0.20837
1691.26701,0.20232
1693.19548,0.20524
1695.12395,0.22238
1697.05242,0.24362
1698.98089,0.24590
1700.90936,0.22415
1702.83783,0.21035
1704.76629,0.21407
1706.69476,0.21493
1708.62323,0.20558
1710.55170,0.19826
1712.48017,0.19984
1714.40864,0.21267
1716.33711,0.23075
1718.26558,0.22693
1720.19404,0.20924
1722.12251,0.20135
1724.05098,0.19737
1725.97945,0.19083
1727.90792,0.18799
1729.83639,0.19367
1731.76486,0.20640
1733.69332,0.21712
1735.62179,0.21066
1737.55026,0.20354
1739.47873,0.20147
1741.40720,0.19869
1743.33567,0.19869
1745.26414,0.20203
1747.19261,0.20729
1749.12107,0.21132
1751.04954,0.20513
1752.97801,0.19449
1754.90648,0.19063
1756.83495,0.19224
1758.76342,0.19303
1760.69189,0.19363
1762.62035,0.19408
1764.54882,0.19223
1766.47729,0.19217
1768.40576,0.19673
1770.33423,0.20604
1772.26270,0.21209
1774.19117,0.20653
1776.11964,0.19862
1778.04810,0.19276
1779.97657,0.19026
1781.90504,0.19154
1783.83351,0.19234
1785.76198,0.19104
1787.69045,0.19151
1789.61892,0.19704
1791.54738,0.20295
1793.47585,0.20032
1795.40432,0.19497
1797.33279,0.19447
1799.26126,0.19826
1801.18973,0.19992
1803.11820,0.19498
1805.04666,0.19009
1806.97513,0.19042
1808.90360,0.19295
1810.83207,0.19345
1812.76054,0.19274
1814.68901,0.19370
1816.61748,0.20003
1818.54595,0.21109
1820.47441,0.21716
1822.40288,0.21337
1824.33135,0.20416
1826.25982,0.19829
1828.18829,0.20054
1830.11676,0.20381
1832.04523,0.19986
1833.97369,0.19322
1835.90216,0.18908
1837.83063,0.18833
1839.75910,0.19071
1841.68757,0.19542
1843.61604,0.20027
1845.54451,0.19963
1847.47298,0.19480
1849.40144,0.19267
1851.32991,0.19319
1853.25838,0.19267
1855.18685,0.19052
1857.11532,0.18835
1859.04379,0.18647
1860.97226,0.18507
1862.90072,0.18569
1864.82919,0.18935
1866.75766,0.19641
1868.68613,0.20105
1870.61460,0.19631
1872.54307,0.19066
1874.47154,0.18966
1876.40001,0.19025
1878.32847,0.18939
1880.25694,0.18912
1882.18541,0.19288
1884.11388,0.19640
1886.04235,0.19604
1887.97082,0.19643
1889.89929,0.19551
1891.82775,0.18850
1893.75622,0.18369
1895.68469,0.18596
1897.61316,0.18705
1899.54163,0.18340
1901.47010,0.18222
1903.39857,0.18626
1905.32704,0.19144
1907.25550,0.19617
1909.18397,0.19892
1911.11244,0.19556
1913.04091,0.18977
1914.96938,0.18924
1916.89785,0.19184
1918.82632,0.19125
1920.75478,0.19024
1922.68325,0.19074
1924.61172,0.18848
1926.54019,0.18627
1928.46866,0.18678
1930.39713,0.18697
1932.32560,0.18771
1934.25407,0.18944
1936.18253,0.18949
1938.11100,0.18939
1940.03947,0.19373
1941.96794,0.20034
1943.89641,0.20100
1945.82488,0.19571
1947.75335,0.18918
1949.68181,0.18415
1951.61028,0.18267
1953.53875,0.18440
1955.46722,0.18637
1957.39569,0.18734
1959.32416,0.18838
1961.25263,0.18834
1963.18110,0.18862
1965.10956,0.19095
1967.03803,0.19103
1968.96650,0.18865
1970.89497,0.18871
1972.82344,0.19051
1974.75191,0.19053
1976.68038,0.18715
1978.60884,0.18402
1980.53731,0.18630
1982.46578,0.18935
1984.39425,0.18940
1986.32272,0.19038
1988.25119,0.19234
1990.17966,0.19308
1992.10812,0.19150
1994.03659,0.18811
1995.96506,0.18573
1997.89353,0.18617
1999.82200,0.18913
2001.75047,0.19185
2003.67894,0.19134
2005.60741,0.18799
2007.53587,0.18638
2009.46434,0.18779
2011.39281,0.18862
2013.32128,0.18882
2015.24975,0.19084
2017.17822,0.19332
2019.10669,0.19293
2021.03515,0.18974
2022.96362,0.18762
2024.89209,0.18860
2026.82056,0.18848
2028.74903,0.18552
2030.67750,0.18369
2032.60597,0.18397
2034.53444,0.18575
2036.46290,0.18903
2038.39137,0.19206
2040.31984,0.19335
2042.24831,0.19225
2044.17678,0.18948
2046.10525,0.18668
2048.03372,0.18438
2049.96218,0.18339
2051.89065,0.18353
2053.81912,0.18285
2055.74759,0.18247
2057.67606,0.18532
2059.60453,0.19030
2061.53300,0.19260
2063.46147,0.19054
2065.38993,0.18774
2067.31840,0.18718
2069.24687,0.18749
2071.17534,0.18641
2073.10381,0.18503
2075.03228,0.18467
2076.96075,0.18519
2078.88921,0.18708
2080.81768,0.18873
2082.74615,0.18845
2084.67462,0.18826
2086.60309,0.18988
2088.53156,0.19191
2090.46003,0.19257
2092.38850,0.19064
2094.31696,0.18807
2096.24543,0.18839
2098.17390,0.19146
2100.10237,0.19490
2102.03084,0.19592
2103.95931,0.19415
2105.88778,0.19155
2107.81624,0.18921
2109.74471,0.18914
2111.67318,0.19214
2113.60165,0.19475
2115.53012,0.19437
2117.45859,0.19198
2119.38706,0.19000
2121.31553,0.18948
2123.24399,0.18837
2125.17246,0.18806
2127.10093,0.19050
2129.02940,0.19189
2130.95787,0.19219
2132.88634,0.19220
2134.81481,0.18717
2136.74327,0.18145
2138.67174,0.18521
2140.60021,0.19404
2142.52868,0.19862
2144.45715,0.19723
2146.38562,0.19090
2148.31409,0.18447
2150.24255,0.18286
2152.17102,0.18546
2154.09949,0.18875
2156.02796,0.19060
2157.95643,0.19092
2159.88490,0.19006
2161.81337,0.19095
2163.74184,0.19526
2165.67030,0.19822
2167.59877,0.19593
2169.52724,0.19311
2171.45571,0.19261
2173.38418,0.18899
2175.31265,0.18361
2177.24112,0.18414
2179.16958,0.18969
2181.09805,0.19369
2183.02652,0.19423
2184.95499,0.19340
2186.88346,0.19248
2188.81193,0.19221
2190.74040,0.19208
2192.66887,0.19024
2194.59733,0.18759
2196.52580,0.18660
2198.45427,0.18760
2200.38274,0.18869
2202.31121,0.18804
2204.23968,0.18719
2206.16815,0.18670
2208.09661,0.18626
2210.02508,0.18806
2211.95355,0.19013
2213.88202,0.18921
2215.81049,0.18720
2217.73896,0.18697
2219.66743,0.18765
2221.59590,0.18764
2223.52436,0.18921
2225.45283,0.19241
2227.38130,0.19377
2229.30977,0.19327
2231.23824,0.19228
2233.16671,0.19065
2235.09518,0.18948
2237.02364,0.18948
2238.95211,0.18945
2240.88058,0.18990
2242.80905,0.19100
2244.73752,0.19069
2246.66599,0.18956
2248.59446,0.18985
2250.52293,0.19141
2252.45139,0.19275
2254.37986,0.19333
2256.30833,0.19284
2258.23680,0.18979
2260.16527,0.18658
2262.09374,0.18634
2264.02221,0.18654
2265.95067,0.18625
2267.87914,0.18720
2269.80761,0.18875
2271.73608,0.18966
2273.66455,0.19062
2275.59302,0.19228
2277.52149,0.19174
2279.44996,0.18870
2281.37842,0.18633
2283.30689,0.18589
2285.23536,0.18765
2287.16383,0.19002
2289.09230,0.19132
2291.02077,0.19224
2292.94924,0.19590
2294.87770,0.20259
2296.80617,0.20507
2298.73464,0.20048
2300.66311,0.19346
2302.59158,0.18913
2304.52005,0.19199
2306.44852,0.19799
2308.37699,0.20013
2310.30545,0.20078
2312.23392,0.20299
2314.16239,0.20631
2316.09086,0.20941
2318.01933,0.20870
2319.94780,0.20383
2321.87627,0.20221
2323.80473,0.21199
2325.73320,0.22742
2327.66167,0.23244
2329.59014,0.22222
2331.51861,0.21054
2333.44708,0.20764
2335.37555,0.20846
2337.30401,0.21039
2339.23248,0.20558
2341.16095,0.19128
2343.08942,0.18813
2345.01789,0.19730
2346.94636,0.20249
2348.87483,0.20687
2350.80330,0.21301
2352.73176,0.21478
2354.66023,0.21519
2356.58870,0.22571
2358.51717,0.23659
2360.44564,0.23707
2362.37411,0.22320
2364.30258,0.20297
2366.23104,0.19533
2368.15951,0.20170
2370.08798,0.20937
2372.01645,0.20943
2373.94492,0.20425
2375.87339,0.19924
2377.80186,0.19666
2379.73033,0.19476
2381.65879,0.19143
2383.58726,0.18812
2385.51573,0.18690
2387.44420,0.18858
2389.37267,0.19211
2391.30114,0.19332
2393.22961,0.19109
2395.15807,0.18967
2397.08654,0.18861
2399.01501,0.18397
2400.94348,0.18063
2402.87195,0.18463
2404.80042,0.19067
2406.72889,0.19332
2408.65736,0.19352
2410.58582,0.19187
2412.51429,0.19023
2414.44276,0.18980
2416.37123,0.18978
2418.29970,0.19045
2420.22817,0.19075
2422.15664,0.18937
2424.08510,0.18732
2426.01357,0.18614
2427.94204,0.18566
2429.87051,0.18551
2431.79898,0.18663
2433.72745,0.18806
2435.65592,0.18846
2437.58439,0.19015
2439.51285,0.19444
2441.44132,0.19795
2443.36979,0.19734
2445.29826,0.19316
2447.22673,0.18804
2449.15520,0.18333
2451.08367,0.18113
2453.01213,0.18330
2454.94060,0.18841
2456.86907,0.19231
2458.79754,0.19054
2460.72601,0.18646
2462.65448,0.18623
2464.58295,0.18804
2466.51142,0.18979
2468.43988,0.19190
2470.36835,0.19145
2472.29682,0.18797
2474.22529,0.18630
2476.15376,0.18822
2478.08223,0.18966
2480.01070,0.18803
2481.93916,0.18709
2483.86763,0.18926
2485.79610,0.19159
2487.72457,0.19287
2489.65304,0.19352
2491.58151,0.19240
2493.50998,0.19001
2495.43844,0.18964
2497.36691,0.19113
2499.29538,0.19022
2501.22385,0.18871
2503.15232,0.19143
2505.08079,0.19552
2507.00926,0.19586
2508.93773,0.19386
2510.86619,0.19296
2512.79466,0.19184
2514.72313,0.18867
2516.65160,0.18590
2518.58007,0.18552
2520.50854,0.18632
2522.43701,0.18783
2524.36547,0.19038
2526.29394,0.19163
2528.22241,0.19151
2530.15088,0.19276
2532.07935,0.19456
2534.00782,0.19539
2535.93629,0.19517
2537.86476,0.19415
2539.79322,0.19240
2541.72169,0.18965
2543.65016,0.18831
2545.57863,0.19012
2547.50710,0.19208
2549.43557,0.19128
2551.36404,0.18945
2553.29250,0.18922
2555.22097,0.18898
2557.14944,0.18803
2559.07791,0.18930
2561.00638,0.19172
2562.93485,0.19319
2564.86332,0.19501
2566.79179,0.19559
2568.72025,0.19354
2570.64872,0.19224
2572.57719,0.19373
2574.50566,0.19566
2576.43413,0.19561
2578.36260,0.19375
2580.29107,0.19189
2582.21953,0.19219
2584.14800,0.19440
2586.07647,0.19561
2588.00494,0.19500
2589.93341,0.19436
2591.86188,0.19347
2593.79035,0.19217
2595.71882,0.19189
2597.64728,0.19141
2599.57575,0.19030
2601.50422,0.19105
2603.43269,0.19264
2605.36116,0.19190
2607.28963,0.19033
2609.21810,0.19139
2611.14656,0.19562
2613.07503,0.19940
2615.00350,0.19838
2616.93197,0.19604
2618.86044,0.19692
2620.78891,0.19796
2622.71738,0.19675
2624.64585,0.19542
2626.57431,0.19641
2628.50278,0.19837
2630.43125,0.19857
2632.35972,0.19791
2634.28819,0.19710
2636.21666,0.19560
2638.14513,0.19471
2640.07359,0.19489
2642.00206,0.19554
2643.93053,0.19722
2645.85900,0.19788
2647.78747,0.19581
2649.71594,0.19450
2651.64441,0.19545
2653.57288,0.19740
2655.50134,0.19964
2657.42981,0.20074
2659.35828,0.19945
2661.28675,0.19621
2663.21522,0.19433
2665.14369,0.19499
2667.07216,0.19606
2669.00062,0.19582
2670.92909,0.19453
2672.85756,0.19502
2674.78603,0.19687
2676.71450,0.19774
2678.64297,0.19848
2680.57144,0.19950
2682.49990,0.19969
2684.42837,0.19985
2686.35684,0.20053
2688.28531,0.20032
2690.21378,0.19913
2692.14225,0.19659
2694.07072,0.19434
2695.99919,0.19580
2697.92765,0.19872
2699.85612,0.19873
2701.78459,0.19661
2703.71306,0.19617
2705.64153,0.19807
2707.57000,0.20086
2709.49847,0.20316
2711.42693,0.20343
2713.35540,0.20217
2715.28387,0.20124
2717.21234,0.20037
2719.14081,0.19769
2721.06928,0.19583
2722.99775,0.19796
2724.92622,0.20086
2726.85468,0.20163
2728.78315,0.20100
2730.71162,0.20116
2732.64009,0.20289
2734.56856,0.20203
2736.49703,0.19726
2738.42550,0.19520
2740.35396,0.19743
2742.28243,0.19859
2744.21090,0.20037
2746.13937,0.20602
2748.06784,0.20948
2749.99631,0.20772
2751.92478,0.20610
2753.85325,0.20548
2755.78171,0.20411
2757.71018,0.20348
2759.63865,0.20294
2761.56712,0.20080
2763.49559,0.19886
2765.42406,0.19971
2767.35253,0.20489
2769.28099,0.21217
2771.20946,0.21330
2773.13793,0.20674
2775.06640,0.20016
2776.99487,0.19659
2778.92334,0.19527
2780.85181,0.19751
2782.78028,0.20317
2784.70874,0.20703
2786.63721,0.20643
2788.56568,0.20585
2790.49415,0.20700
2792.42262,0.20540
2794.35109,0.20119
2796.27956,0.20152
2798.20802,0.20632
2800.13649,0.20913
2802.06496,0.20962
2803.99343,0.21078
2805.92190,0.21103
2807.85037,0.20861
2809.77884,0.20659
2811.70731,0.20694
2813.63577,0.20764
2815.56424,0.20657
2817.49271,0.20697
2819.42118,0.21037
2821.34965,0.20971
2823.27812,0.20472
2825.20659,0.20295
2827.13505,0.20459
2829.06352,0.20642
2830.99199,0.20763
2832.92046,0.20653
2834.84893,0.20523
2836.77740,0.20807
2838.70587,0.21209
2840.63433,0.21228
2842.56280,0.21118
2844.49127,0.21159
2846.41974,0.21002
2848.34821,0.20576
2850.27668,0.20299
2852.20515,0.20376
2854.13362,0.20585
2856.06208,0.20732
2857.99055,0.20756
2859.91902,0.20607
2861.84749,0.20549
2863.77596,0.20585
2865.70443,0.20505
2867.63290,0.20382
2869.56136,0.20283
2871.48983,0.20387
2873.41830,0.20518
2875.34677,0.20267
2877.27524,0.20166
2879.20371,0.20661
2881.13218,0.20881
2883.06065,0.20334
2884.98911,0.19836
2886.91758,0.19911
2888.84605,0.20152
2890.77452,0.20284
2892.70299,0.20453
2894.63146,0.20454
2896.55993,0.20184
2898.48839,0.20046
2900.41686,0.20148
2902.34533,0.20283
2904.27380,0.20386
2906.20227,0.20620
2908.13074,0.21025
2910.05921,0.21176
2911.98768,0.20936
2913.91614,0.20794
2915.84461,0.20732
2917.77308,0.20462
2919.70155,0.20315
2921.63002,0.20414
2923.55849,0.20615
2925.48696,0.21068
2927.41542,0.21583
2929.34389,0.21743
2931.27236,0.21516
2933.20083,0.21055
2935.12930,0.20465
2937.05777,0.19898
2938.98624,0.19744
2940.91471,0.20189
2942.84317,0.20713
2944.77164,0.20805
2946.70011,0.20666
2948.62858,0.20726
2950.55705,0.20986
2952.48552,0.21094
2954.41399,0.20790
2956.34245,0.20265
2958.27092,0.20050
2960.19939,0.20372
2962.12786,0.20962
2964.05633,0.21220
2965.98480,0.20619
2967.91327,0.19843
2969.84174,0.20074
2971.77020,0.20807
2973.69867,0.21091
2975.62714,0.21087
2977.55561,0.21065
2979.48408,0.21128
2981.41255,0.21158
2983.34102,0.20917
2985.26948,0.20683
2987.19795,0.20781
2989.12642,0.21083
2991.05489,0.21356
2992.98336,0.21457
2994.91183,0.21232
2996.84030,0.20831
2998.76877,0.20776
3000.69723,0.21133
3002.62570,0.21397
3004.55417,0.21491
3006.48264,0.21700
3008.41111,0.21766
3010.33958,0.21169
3012.26805,0.20083
3014.19651,0.18852
3016.12498,0.17776
3018.05345,0.17984
3019.98192,0.19529
3021.91039,0.20845
3023.83886,0.21397
3025.76733,0.21479
3027.69579,0.21519
3029.62426,0.21912
3031.55273,0.22177
3033.48120,0.21712
3035.40967,0.20939
3037.33814,0.20762
3039.26661,0.21081
3041.19508,0.21300
3043.12354,0.21402
3045.05201,0.21249
3046.98048,0.20982
3048.90895,0.21016
3050.83742,0.21090
3052.76589,0.21103
3054.69436,0.21285
3056.62282,0.21576
3058.55129,0.21775
3060.47976,0.21751
3062.40823,0.21603
3064.33670,0.21456
3066.26517,0.21303
3068.19364,0.21252
3070.12211,0.21317
3072.05057,0.21444
3073.97904,0.21513
3075.90751,0.21233
3077.83598,0.20881
3079.76445,0.20995
3081.69292,0.21383
3083.62139,0.21310
3085.54985,0.20876
3087.47832,0.20928
3089.40679,0.21175
3091.33526,0.21039
3093.26373,0.20710
3095.19220,0.20508
3097.12067,0.20639
3099.04914,0.21031
3100.97760,0.21399
3102.90607,0.21174
3104.83454,0.20608
3106.76301,0.20549
3108.69148,0.20751
3110.61995,0.20659
3112.54842,0.20454
3114.47688,0.20418
3116.40535,0.20351
3118.33382,0.20336
3120.26229,0.20603
3122.19076,0.20798
3124.11923,0.20742
3126.04770,0.20720
3127.97617,0.20708
3129.90463,0.20489
3131.83310,0.20350
3133.76157,0.20481
3135.69004,0.20836
3137.61851,0.21359
3139.54698,0.21640
3141.47545,0.21420
3143.40391,0.20924
3145.33238,0.20565
3147.26085,0.20587
3149.18932,0.20795
3151.11779,0.20909
3153.04626,0.20967
3154.97473,0.21160
3156.90320,0.21568
3158.83166,0.21905
3160.76013,0.21927
3162.68860,0.21727
3164.61707,0.21546
3166.54554,0.21697
3168.47401,0.21830
3170.40248,0.21442
3172.33094,0.21054
3174.25941,0.21290
3176.18788,0.21681
3178.11635,0.21635
3180.04482,0.21589
3181.97329,0.22027
3183.90176,0.22625
3185.83022,0.22397
3187.75869,0.21108
3189.68716,0.20204
3191.61563,0.20285
3193.54410,0.20701
3195.47257,0.21384
3197.40104,0.21994
3199.32951,0.21971
3201.25797,0.21796
3203.18644,0.21690
3205.11491,0.21102
3207.04338,0.20222
3208.97185,0.19776
3210.90032,0.19954
3212.82879,0.20729
3214.75725,0.21513
3216.68572,0.21558
3218.61419,0.21326
3220.54266,0.21071
3222.47113,0.20611
3224.39960,0.20348
3226.32807,0.20542
3228.25654,0.20964
3230.18500,0.20972
3232.11347,0.20426
3234.04194,0.20238
3235.97041,0.20850
3237.89888,0.21502
3239.82735,0.21566
3241.75582,0.21570
3243.68428,0.21970
3245.61275,0.22213
3247.54122,0.22117
3249.46969,0.21892
3251.39816,0.21531
3253.32663,0.21636
3255.25510,0.22473
3257.18357,0.23227
3259.11203,0.23259
3261.04050,0.22582
3262.96897,0.21570
3264.89744,0.20661
3266.82591,0.20375
3268.75438,0.20883
3270.68285,0.21514
3272.61131,0.21603
3274.53978,0.21438
3276.46825,0.21527
3278.39672,0.21474
3280.32519,0.21129
3282.25366,0.21291
3284.18213,0.21620
3286.11060,0.21084
3288.03906,0.20404
3289.96753,0.20447
3291.89600,0.20621
3293.82447,0.20499
3295.75294,0.20302
3297.68141,0.20376
3299.60988,0.20876
3301.53834,0.21184
3303.46681,0.20808
3305.39528,0.20431
3307.32375,0.20797
3309.25222,0.21455
3311.18069,0.21643
3313.10916,0.21585
3315.03763,0.21659
3316.96609,0.21601
3318.89456,0.21252
3320.82303,0.20874
3322.75150,0.20758
3324.67997,0.21289
3326.60844,0.22339
3328.53691,0.22686
3330.46537,0.22040
3332.39384,0.21589
3334.32231,0.21847
3336.25078,0.22384
3338.17925,0.22489
3340.10772,0.22247
3342.03619,0.22320
3343.96466,0.22104
3345.89312,0.21295
3347.82159,0.21016
3349.75006,0.21411
3351.67853,0.21792
3353.60700,0.21993
3355.53547,0.21920
3357.46394,0.21804
3359.39240,0.21784
3361.32087,0.21467
3363.24934,0.21136
3365.17781,0.21171
3367.10628,0.21216
3369.03475,0.21302
3370.96322,0.21657
3372.89168,0.22017
3374.82015,0.22286
3376.74862,0.22539
3378.67709,0.22662
3380.60556,0.22620
3382.53403,0.22302
3384.46250,0.21732
3386.39097,0.21490
3388.31943,0.21886
3390.24790,0.22199
3392.17637,0.21753
3394.10484,0.21338
3396.03331,0.21763
3397.96178,0.22161
3399.89025,0.21955
3401.81871,0.21499
3403.74718,0.20702
3405.67565,0.19969
3407.60412,0.20090
3409.53259,0.20694
3411.46106,0.21215
3413.38953,0.21582
3415.31800,0.21532
3417.24646,0.21226
3419.17493,0.21200
3421.10340,0.21419
3423.03187,0.21511
3424.96034,0.21365
3426.88881,0.21271
3428.81728,0.21323
3430.74574,0.21252
3432.67421,0.20939
3434.60268,0.20463
3436.53115,0.20206
3438.45962,0.20449
3440.38809,0.20893
3442.31656,0.21036
3444.24503,0.20796
3446.17349,0.20709
3448.10196,0.20956
3450.03043,0.20780
3451.95890,0.19890
3453.88737,0.19260
3455.81584,0.19485
3457.74431,0.19577
3459.67277,0.18861
3461.60124,0.18195
3463.52971,0.18250
3465.45818,0.18788
3467.38665,0.19459
3469.31512,0.19740
3471.24359,0.19502
3473.17206,0.19562
3475.10052,0.20277
3477.02899,0.20532
3478.95746,0.19641
3480.88593,0.18817
3482.81440,0.18855
3484.74287,0.18972
3486.67134,0.18851
3488.59980,0.18840
3490.52827,0.18967
3492.45674,0.18791
3494.38521,0.18424
3496.31368,0.18703
3498.24215,0.19454
3500.17062,0.19782
3502.09909,0.19418
3504.02755,0.18615
3505.95602,0.18041
3507.88449,0.18048
3509.81296,0.18398
3511.74143,0.18550
3513.66990,0.18134
3515.59837,0.17672
3517.52683,0.17672
3519.45530,0.17766
3521.38377,0.17991
3523.31224,0.18403
3525.24071,0.18383
3527.16918,0.18118
3529.09765,0.17960
3531.02611,0.17734
3532.95458,0.17450
3534.88305,0.17198
3536.81152,0.17198
3538.73999,0.17370
3540.66846,0.17313
3542.59693,0.17268
3544.52540,0.17697
3546.45386,0.18149
3548.38233,0.17959
3550.31080,0.17627
3552.23927,0.17638
3554.16774,0.17567
3556.09621,0.17103
3558.02468,0.16741
3559.95314,0.16863
3561.88161,0.17097
3563.81008,0.17345
3565.73855,0.17911
3567.66702,0.18190
3569.59549,0.17634
3571.52396,0.16829
3573.45243,0.16167
3575.38089,0.15837
3577.30936,0.15804
3579.23783,0.15948
3581.16630,0.16152
3583.09477,0.16437
3585.02324,0.16977
3586.95171,0.17368
3588.88017,0.16711
3590.80864,0.16149
3592.73711,0.16766
3594.66558,0.17440
3596.59405,0.16874
3598.52252,0.15944
3600.45099,0.15517
3602.37946,0.15361
3604.30792,0.15551
3606.23639,0.16421
3608.16486,0.17032
3610.09333,0.16691
3612.02180,0.16553
3613.95027,0.16510
3615.87874,0.16396
3617.80720,0.16856
3619.73567,0.17264
3621.66414,0.16860
3623.59261,0.16177
3625.52108,0.15786
3627.44955,0.16187
3629.37802,0.16669
3631.30649,0.16084
3633.23495,0.15572
3635.16342,0.15373
3637.09189,0.15244
3639.02036,0.15078
3640.94883,0.14808
3642.87730,0.14975
3644.80577,0.16085
3646.73423,0.17706
3648.66270,0.18322
3650.59117,0.17005
3652.51964,0.15747
3654.44811,0.15154
3656.37658,0.14839
3658.30505,0.14272
3660.23352,0.13587
3662.16198,0.13291
3664.09045,0.13570
3666.01892,0.14126
3667.94739,0.14435
3669.87586,0.14460
3671.80433,0.15183
3673.73280,0.16587
3675.66126,0.16640
3677.58973,0.14432
3679.51820,0.12950
3681.44667,0.12775
3683.37514,0.13244
3685.30361,0.14007
3687.23208,0.15346
3689.16055,0.16681
3691.08901,0.16366
3693.01748,0.15211
3694.94595,0.14026
3696.87442,0.12980
3698.80289,0.12508
3700.73136,0.12699
3702.65983,0.13073
3704.58829,0.13114
3706.51676,0.13390
3708.44523,0.14433
3710.37370,0.15726
3712.30217,0.15798
3714.23064,0.14529
3716.15911,0.13518
3718.08757,0.13576
3720.01604,0.14350
3721.94451,0.14810
3723.87298,0.14791
3725.80145,0.14589
3727.72992,0.14138
3729.65839,0.14166
3731.58686,0.15222
3733.51532,0.16270
3735.44379,0.15916
3737.37226,0.15183
3739.30073,0.15003
3741.22920,0.14924
3743.15767,0.14677
3745.08614,0.14781
3747.01460,0.15766
3748.94307,0.16851
3750.87154,0.16761
3752.80001,0.15353
3754.72848,0.14322
3756.65695,0.13815
3758.58542,0.13771
3760.51389,0.13910
3762.44235,0.14009
3764.37082,0.14299
3766.29929,0.14522
3768.22776,0.14508
3770.15623,0.14048
3772.08470,0.13004
3774.01317,0.12296
3775.94163,0.12310
3777.87010,0.12832
3779.79857,0.13156
3781.72704,0.12710
3783.65551,0.12314
3785.58398,0.12567
3787.51245,0.12825
3789.44092,0.12705
3791.36938,0.12630
3793.29785,0.12771
3795.22632,0.13123
3797.15479,0.13568
3799.08326,0.13948
3801.01173,0.14176
3802.94020,0.13659
3804.86866,0.12997
3806.79713,0.12746
3808.72560,0.12452
3810.65407,0.12246
3812.58254,0.12563
3814.51101,0.13110
3816.43948,0.13484
3818.36795,0.13963
3820.29641,0.14542
3822.22488,0.14506
3824.15335,0.13891
3826.08182,0.12938
3828.01029,0.12346
3829.93876,0.13005
3831.86723,0.13892
3833.79569,0.13722
3835.72416,0.12936
3837.65263,0.12521
3839.58110,0.13070
3841.50957,0.14052
3843.43804,0.14386
3845.36651,0.13820
3847.29498,0.13200
3849.22344,0.13264
3851.15191,0.14309
3853.08038,0.15788
3855.00885,0.15386
3856.93732,0.14075
3858.86579,0.13202
3860.79426,0.13202
3862.72272,0.13863
3864.65119,0.13729
3866.57966,0.12980
3868.50813,0.13050
3870.43660,0.13339
3872.36507,0.12836
3874.29354,0.12364
3876.22200,0.12302
3878.15047,0.12622
3880.07894,0.13119
3882.00741,0.12966
3883.93588,0.12705
3885.86435,0.12850
3887.79282,0.12584
3889.72129,0.12340
3891.64975,0.12535
3893.57822,0.12324
3895.50669,0.12032
3897.43516,0.12358
3899.36363,0.13069
3901.29210,0.13753
3903.22057,0.14233
3905.14903,0.13917
3907.07750,0.12688
3909.00597,0.11316
3910.93444,0.10479
3912.86291,0.10556
3914.79138,0.11278
3916.71985,0.11927
3918.64832,0.12039
3920.57678,0.11910
3922.50525,0.12117
3924.43372,0.12396
3926.36219,0.12090
3928.29066,0.11976
3930.21913,0.12388
3932.14760,0.12197
3934.07606,0.11356
3936.00453,0.10949
3937.93300,0.11102
3939.86147,0.11162
3941.78994,0.11074
3943.71841,0.11279
3945.64688,0.11550
3947.57535,0.11451
3949.50381,0.10792
3951.43228,0.10183
3953.36075,0.10162
3955.28922,0.10382
3957.21769,0.10597
3959.14616,0.10859
3961.07463,0.11226
3963.00309,0.11186
3964.93156,0.10341
3966.86003,0.09526
3968.78850,0.09430
3970.71697,0.09751
3972.64544,0.10028
3974.57391,0.10154
3976.50238,0.10220
3978.43084,0.10285
3980.35931,0.10387
3982.28778,0.10414
3984.21625,0.10292
3986.14472,0.10155
3988.07319,0.10206
3990.00166,0.10518
3991.93012,0.10574
3993.85859,0.10118
3995.78706,0.09788
3997.71553,0.09889
3999.64400,0.10063
4001.57247,0.09885
4003.50094,0.09585
4005.42941,0.09826
4007.35787,0.10221
4009.28634,0.10329
4011.21481,0.10653
4013.14328,0.10869
4015.07175,0.10548
4017.00022,0.10338
4018.92869,0.10408
4020.85715,0.10485
4022.78562,0.10786
4024.71409,0.11027
4026.64256,0.10683
4028.57103,0.10322
4030.49950,0.10456
4032.42797,0.10590
4034.35644,0.10276
4036.28490,0.09795
4038.21337,0.09564
4040.14184,0.09603
4042.07031,0.09899
4043.99878,0.10117
4045.92725,0.10113
4047.85572,0.10285
4049.78418,0.10278
4051.71265,0.09963
4053.64112,0.09866
4055.56959,0.09687
4057.49806,0.09291
4059.42653,0.09142
4061.35500,0.09154
4063.28346,0.09315
4065.21193,0.09796
4067.14040,0.10073
4069.06887,0.09803
4070.99734,0.09469
4072.92581,0.09289
4074.85428,0.09106
4076.78275,0.09203
4078.71121,0.09451
4080.63968,0.09327
4082.56815,0.09130
4084.49662,0.09326
4086.42509,0.09822
4088.35356,0.09938
4090.28203,0.09422
4092.21049,0.08827
4094.13896,0.08117
4096.06743,0.07408
4097.99590,0.07442
4099.92437,0.08166
4101.85284,0.08972
4103.78131,0.09449
4105.70978,0.09560
4107.63824,0.09517
4109.56671,0.09226
4111.49518,0.08534
4113.42365,0.08041
4115.35212,0.08024
4117.28059,0.07837
4119.20906,0.07644
4121.13752,0.07964
4123.06599,0.08402
4124.99446,0.08468
4126.92293,0.08115
4128.85140,0.07907
4130.77987,0.08151
4132.70834,0.08194
4134.63681,0.08016
4136.56527,0.08317
4138.49374,0.08805
4140.42221,0.08613
4142.35068,0.07924
4144.27915,0.07923
4146.20762,0.08713
4148.13609,0.09073
4150.06455,0.08781
4151.99302,0.08473
4153.92149,0.08452
4155.84996,0.08621
4157.77843,0.08558
4159.70690,0.08522
4161.63537,0.08788
4163.56384,0.08617
4165.49230,0.08129
4167.42077,0.07924
4169.34924,0.07680
4171.27771,0.07454
4173.20618,0.07594
4175.13465,0.07854
4177.06312,0.08019
4178.99158,0.08265
4180.92005,0.08517
4182.84852,0.08533
4184.77699,0.08508
4186.70546,0.08386
4188.63393,0.08033
4190.56240,0.07651
4192.49087,0.07419
4194.41933,0.07680
4196.34780,0.08137
4198.27627,0.07908
4200.20474,0.07350
4202.13321,0.07338
4204.06168,0.07524
4205.99015,0.07464
4207.91861,0.07398
4209.84708,0.07683
4211.77555,0.08085
4213.70402,0.07915
4215.63249,0.07431
4217.56096,0.07427
4219.48943,0.07919
4221.41789,0.08023
4223.34636,0.07429
4225.27483,0.06978
4227.20330,0.06733
4229.13177,0.06456
4231.06024,0.06404
4232.98871,0.06425
4234.91718,0.06416
4236.84564,0.06451
4238.77411,0.06555
4240.70258,0.06784
4242.63105,0.07046
4244.55952,0.07069
4246.48799,0.06584
4248.41646,0.06308
4250.34492,0.06820
4252.27339,0.06890
4254.20186,0.06236
4256.13033,0.05976
4258.05880,0.06133
4259.98727,0.06315
4261.91574,0.06615
4263.84421,0.06724
4265.77267,0.06311
4267.70114,0.06157
4269.62961,0.06464
4271.55808,0.06351
4273.48655,0.05853
4275.41502,0.05571
4277.34349,0.05726
4279.27195,0.05838
4281.20042,0.05506
4283.12889,0.05516
4285.05736,0.05846
4286.98583,0.05491
4288.91430,0.05205
4290.84277,0.05715
4292.77124,0.06374
4294.69970,0.06678
4296.62817,0.06398
4298.55664,0.06372
4300.48511,0.07131
4302.41358,0.07505
4304.34205,0.06843
4306.27052,0.06067
4308.19898,0.06023
4310.12745,0.06109
4312.05592,0.05533
4313.98439,0.04789
4315.91286,0.04757
4317.84133,0.04856
4319.76980,0.04599
4321.69827,0.04932
4323.62673,0.05659
4325.55520,0.05959
4327.48367,0.05883
4329.41214,0.05601
4331.34061,0.05429
4333.26908,0.05476
4335.19755,0.05565
4337.12601,0.05811
4339.05448,0.05949
4340.98295,0.05486
4342.91142,0.04721
4344.83989,0.04359
4346.76836,0.04357
4348.69683,0.04064
4350.62530,0.04137
4352.55376,0.05285
4354.48223,0.06207
4356.41070,0.05917
4358.33917,0.05038
4360.26764,0.04460
4362.19611,0.04416
4364.12458,0.04485
4366.05304,0.04255
4367.98151,0.04184
4369.90998,0.04848
4371.83845,0.05089
4373.76692,0.04194
4375.69539,0.03475
4377.62386,0.03555
4379.55232,0.03954
4381.48079,0.04140
4383.40926,0.04099
4385.33773,0.04144
4387.26620,0.03854
4389.19467,0.03540
4391.12314,0.04203
4393.05161,0.05392
4394.98007,0.05771
4396.90854,0.05013
4398.83701,0.04011
4400.76548,0.03213
4402.69395,0.02358
4404.62242,0.01380
4406.55089,0.01114
4408.47935,0.02227
4410.40782,0.03322
4412.33629,0.03170
4414.26476,0.02812
4416.19323,0.03240
4418.12170,0.03593
4420.05017,0.03004
4421.97864,0.02200
4423.90710,0.01787
4425.83557,0.01805
4427.76404,0.02536
4429.69251,0.03368
4431.62098,0.03293
4433.54945,0.02658
4435.47792,0.02476
4437.40638,0.02933
4439.33485,0.03316
4441.26332,0.03352
4443.19179,0.03355
4445.12026,0.03449
4447.04873,0.03480
4448.97720,0.02949
4450.90567,0.02151
4452.83413,0.01863
4454.76260,0.02212
4456.69107,0.02923
4458.61954,0.03310
4460.54801,0.03166
4462.47648,0.02539
4464.40495,0.01731
4466.33341,0.01907
4468.26188,0.02804
4470.19035,0.02715
4472.11882,0.01888
4474.04729,0.01801
4475.97576,0.02102
4477.90423,0.01950
4479.83270,0.01517
4481.76116,0.01316
4483.68963,0.01666
4485.61810,0.01906
4487.54657,0.01475
4489.47504,0.01410
4491.40351,0.02397
4493.33198,0.02904
4495.26044,0.02270
4497.18891,0.01986
4499.11738,0.02415
4501.04585,0.02806
4502.97432,0.03177
4504.90279,0.03489
4506.83126,0.03075
4508.75973,0.02093
4510.68819,0.01500
4512.61666,0.01547
4514.54513,0.01730
4516.47360,0.01920
4518.40207,0.02548
4520.33054,0.02981
4522.25901,0.02492
4524.18747,0.01830
4526.11594,0.01483
4528.04441,0.01442
4529.97288,0.01932
4531.90135,0.02765
4533.82982,0.03514
4535.75829,0.03997
4537.68676,0.03860
4539.61522,0.03088
4541.54369,0.02500
4543.47216,0.02415
4545.40063,0.02272
4547.32910,0.01919
4549.25757,0.02111
4551.18604,0.02627
4553.11450,0.02553
4555.04297,0.02681
4556.97144,0.03158
4558.89991,0.02300
4560.82838,0.00215
4562.75685,-0.01263
4564.68532,-0.01413
4566.61378,-0.00396
4568.54225,0.01084
4570.47072,0.01628
4572.39919,0.01140
4574.32766,0.00486
4576.25613,0.00288
4578.18460,0.00796
4580.11307,0.00712
4582.04153,-0.00542
4583.97000,-0.01105
4585.89847,-0.00142
4587.82694,0.01408
4589.75541,0.02727
4591.68388,0.03063
4593.61235,0.02498
4595.54081,0.02103
4597.46928,0.01716
4599.39775,0.01279
4601.32622,0.01566
4603.25469,0.01676
4605.18316,0.01345
4607.11163,0.01935
4609.04010,0.02758
4610.96856,0.02782
4612.89703,0.02516
4614.82550,0.02121
4616.75397,0.01412
4618.68244,0.00310
4620.61091,-0.00795
4622.53938,-0.01006
4624.46784,-0.00429
4626.39631,0.00481
4628.32478,0.01670
4630.25325,0.02410
4632.18172,0.02089
4634.11019,0.01441
4636.03866,0.01386
4637.96713,0.01484
4639.89559,0.01136
4641.82406,0.00663
4643.75253,0.00215
4645.68100,0.00160
4647.60947,0.00819
4649.53794,0.01061
4651.46641,0.00812
4653.39487,0.01260
4655.32334,0.01685
4657.25181,0.01801
4659.18028,0.02377
4661.10875,0.02461
4663.03722,0.01781
4664.96569,0.01267
4666.89416,0.00809
4668.82262,0.00441
4670.75109,0.00983
4672.67956,0.02034
4674.60803,0.01992
4676.53650,0.00853
4678.46497,0.00054
4680.39344,0.00009
4682.32190,0.00289
4684.25037,0.00554
4686.17884,0.00632
4688.10731,0.00768
4690.03578,0.01007
4691.96425,0.01094
4693.89272,0.01296
4695.82119,0.01676
4697.74965,0.01431
4699.67812,0.00897
4701.60659,0.01460
4703.53506,0.02111
4705.46353,0.01626
4707.39200,0.01408
4709.32047,0.01902
4711.24893,0.01819
4713.17740,0.00635
4715.10587,-0.00924
4717.03434,-0.01888
4718.96281,-0.01449
4720.89128,0.00257
4722.81975,0.01080
4724.74821,0.00451
4726.67668,0.00445
4728.60515,0.01180
4730.53362,0.01301
4732.46209,0.00821
4734.39056,0.00659
4736.31903,0.01237
4738.24750,0.02170
4740.17596,0.02695
4742.10443,0.02198
4744.03290,0.01392
4745.96137,0.01292
4747.88984,0.01598
4749.81831,0.02266
4751.74678,0.03105
4753.67524,0.02461
4755.60371,0.00525
4757.53218,-0.00191
4759.46065,0.00736
4761.38912,0.01963
4763.31759,0.02825
4765.24606,0.02769
4767.17453,0.01980
4769.10299,0.01406
4771.03146,0.00990
4772.95993,0.00468
4774.88840,0.00193
4776.81687,-0.00059
4778.74534,-0.00515
4780.67381,-0.00387
4782.60227,0.00448
4784.53074,0.01250
4786.45921,0.01771
4788.38768,0.01308
4790.31615,-0.00227
4792.24462,-0.00992
4794.17309,-0.00452
4796.10156,0.00010
4798.03002,-0.00002
4799.95849,-0.00296
4801.88696,-0.01017
4803.81543,-0.01583
4805.74390,-0.01230
4807.67237,0.00203
4809.60084,0.01690
4811.52930,0.01806
4813.45777,0.01328
4815.38624,0.01735
4817.31471,0.02868
4819.24318,0.03506
4821.17165,0.03094
4823.10012,0.02839
4825.02859,0.03201
4826.95705,0.02639
4828.88552,0.01500
4830.81399,0.01721
4832.74246,0.02350
4834.67093,0.01737
4836.59940,0.01395
4838.52787,0.02296
4840.45633,0.01977
4842.38480,-0.00029
4844.31327,-0.01219
4846.24174,-0.01622
4848.17021,-0.02108
4850.09868,-0.02164
4852.02715,-0.01488
4853.95562,0.00145
4855.88408,0.01639
4857.81255,0.01875
4859.74102,0.01593
4861.66949,0.01861
4863.59796,0.02363
4865.52643,0.01787
4867.45490,0.00596
4869.38336,-0.00035
4871.31183,-0.00080
4873.24030,0.00686
4875.16877,0.01614
4877.09724,0.01747
4879.02571,0.01465
4880.95418,0.00910
4882.88265,-0.00087
4884.81111,-0.00727
4886.73958,0.00045
4888.66805,0.01391
4890.59652,0.01709
4892.52499,0.01619
4894.45346,0.02076
4896.38193,0.02377
4898.31039,0.02021
4900.23886,0.01709
4902.16733,0.01764
4904.09580,0.01206
4906.02427,0.00394
4907.95274,0.00806
4909.88121,0.01395
4911.80967,0.01049
4913.73814,0.00723
4915.66661,0.01344
4917.59508,0.02626
4919.52355,0.02961
4921.45202,0.02228
4923.38049,0.01527
4925.30896,0.00386
4927.23742,-0.01172
4929.16589,-0.01642
4931.09436,-0.00583
4933.02283,0.00218
4934.95130,0.00693
4936.87977,0.02107
4938.80824,0.02680
4940.73670,0.01777
4942.66517,0.00945
4944.59364,0.00279
4946.52211,-0.00030
4948.45058,0.00223
4950.37905,0.00712
4952.30752,0.01536
4954.23599,0.02163
4956.16445,0.01944
4958.09292,0.01194
4960.02139,0.00340
4961.94986,-0.00395
4963.87833,-0.00659
4965.80680,-0.00713
4967.73527,-0.01530
4969.66373,-0.01468
4971.59220,0.01013
4973.52067,0.02895
4975.44914,0.02854
4977.37761,0.02614
4979.30608,0.02364
4981.23455,0.02257
4983.16302,0.02601
4985.09148,0.03070
4987.01995,0.03125
4988.94842,0.02392
4990.87689,0.01720
4992.80536,0.01440
4994.73383,0.01045
4996.66230,0.01670
4998.59076,0.03120
5000.51923,0.03440
5002.44770,0.02870
5004.37617,0.01943
5006.30464,0.01000
5008.23311,0.01147
5010.16158,0.01856
5012.09005,0.01706
5014.01851,0.01299
5015.94698,0.02145
5017.87545,0.03317
5019.80392,0.02727
5021.73239,0.01519
5023.66086,0.02486
5025.58933,0.04177
5027.51779,0.03422
5029.44626,0.01192
5031.37473,-0.00023
5033.30320,0.00658
5035.23167,0.02036
5037.16014,0.02452
5039.08861,0.02116
5041.01708,0.01514
5042.94554,0.00236
5044.87401,-0.00932
5046.80248,-0.00883
5048.73095,-0.00463
5050.65942,0.00347
5052.58789,0.02317
5054.51636,0.04105
5056.44482,0.04500
5058.37329,0.03560
5060.30176,0.01844
5062.23023,0.00896
5064.15870,0.01486
5066.08717,0.01962
5068.01564,0.01762
5069.94410,0.02356
5071.87257,0.03064
5073.80104,0.02566
5075.72951,0.02033
5077.65798,0.02186
5079.58645,0.02251
5081.51492,0.02261
5083.44339,0.02254
5085.37185,0.01676
5087.30032,0.00896
5089.22879,0.01280
5091.15726,0.03112
5093.08573,0.04991
5095.01420,0.05503
5096.94267,0.04196
5098.87113,0.02094
5100.79960,0.01022
5102.72807,0.02435
5104.65654,0.05164
5106.58501,0.06079
5108.51348,0.05181
5110.44195,0.04166
5112.37042,0.03394
5114.29888,0.02559
5116.22735,0.01814
5118.15582,0.02122
5120.08429,0.01820
5122.01276,0.00059
5123.94123,0.00781
5125.86970,0.04394
5127.79816,0.06005
5129.72663,0.05059
5131.65510,0.04362
5133.58357,0.02949
5135.51204,0.00688
5137.44051,0.00634
5139.36898,0.02750
5141.29745,0.04291
5143.22591,0.04070
5145.15438,0.02309
5147.08285,0.00685
5149.01132,0.00787
5150.93979,0.01152
5152.86826,0.01044
5154.79673,0.01289
5156.72519,0.01601
5158.65366,0.03015
5160.58213,0.05347
5162.51060,0.06643
5164.43907,0.07402
5166.36754,0.07728
5168.29601,0.06465
5170.22448,0.04402
5172.15294,0.03460
5174.08141,0.04191
5176.00988,0.05207
5177.93835,0.04732
5179.86682,0.03100
5181.79529,0.02750
5183.72376,0.04277
5185.65222,0.05925
5187.58069,0.07249
5189.50916,0.08034
5191.43763,0.07114
5193.36610,0.05280
5195.29457,0.04015
5197.22304,0.03440
5199.15151,0.03101
5201.07997,0.02889
5203.00844,0.03057
5204.93691,0.03204
5206.86538,0.03634
5208.79385,0.05136
5210.72232,0.06534
5212.65079,0.06305
5214.57925,0.04412
5216.50772,0.02882
5218.43619,0.03321
5220.36466,0.03984
5222.29313,0.03419
5224.22160,0.03577
5226.15007,0.04736
5228.07854,0.04318
5230.00700,0.02931
5231.93547,0.02691
5233.86394,0.02983
5235.79241,0.02474
5237.72088,0.02340
5239.64935,0.03602
5241.57782,0.05608
5243.50628,0.07533
5245.43475,0.07709
5247.36322,0.06847
5249.29169,0.06357
5251.22016,0.04187
5253.14863,0.01247
5255.07710,0.01063
5257.00556,0.03105
5258.93403,0.04644
5260.86250,0.05015
5262.79097,0.04821
5264.71944,0.05859
5266.64791,0.07874
5268.57638,0.06977
5270.50485,0.03618
5272.43331,0.01929
5274.36178,0.01927
5276.29025,0.02327
5278.21872,0.02898
5280.14719,0.03623
5282.07566,0.05055
5284.00413,0.05791
5285.93259,0.05200
5287.86106,0.05283
5289.78953,0.04172
5291.71800,0.01647
5293.64647,0.02914
5295.57494,0.05615
5297.50341,0.05896
5299.43188,0.06577
5301.36034,0.07309
5303.28881,0.04796
5305.21728,0.01482
5307.14575,0.01340
5309.07422,0.04469
5311.00269,0.07716
5312.93116,0.08441
5314.85962,0.06858
5316.78809,0.05990
5318.71656,0.07397
5320.64503,0.09233
5322.57350,0.10538
5324.50197,0.10954
5326.43044,0.09783
5328.35891,0.08549
5330.28737,0.09131
5332.21584,0.09803
5334.14431,0.07915
5336.07278,0.04714
5338.00125,0.02768
5339.92972,0.02950
5341.85819,0.04439
5343.78665,0.06496
5345.71512,0.08077
5347.64359,0.07488
5349.57206,0.05931
5351.50053,0.05269
5353.42900,0.05363
5355.35747,0.05269
5357.28594,0.05539
5359.21440,0.07167
5361.14287,0.07727
5363.07134,0.05875
5364.99981,0.04986
5366.92828,0.05634
5368.85675,0.05751
5370.78522,0.05757
5372.71368,0.05914
5374.64215,0.04368
5376.57062,0.01615
5378.49909,0.01614
5380.42756,0.04244
5382.35603,0.06924
5384.28450,0.08844
5386.21297,0.09401
5388.14143,0.07829
5390.06990,0.06274
5391.99837,0.06717
5393.92684,0.07752
5395.85531,0.08224
5397.78378,0.09101
5399.71225,0.08938
5401.64071,0.06940
5403.56918,0.05621
5405.49765,0.05316
5407.42612,0.05398
5409.35459,0.06974
5411.28306,0.08123
5413.21153,0.06676
5415.13999,0.05270
5417.06846,0.06549
5418.99693,0.09393
5420.92540,0.09881
5422.85387,0.06965
5424.78234,0.03896
5426.71081,0.03163
5428.63928,0.06399
5430.56774,0.10955
5432.49621,0.10780
5434.42468,0.05698
5436.35315,0.01184
5438.28162,-0.00518
5440.21009,-0.01317
5442.13856,-0.01265
5444.06702,0.01018
5445.99549,0.04848
5447.92396,0.06877
5449.85243,0.06581
5451.78090,0.06578
5453.70937,0.06461
5455.63784,0.05330
5457.56631,0.05243
5459.49477,0.06733
5461.42324,0.08436
5463.35171,0.10390
5465.28018,0.11528
5467.20865,0.10365
5469.13712,0.07869
5471.06559,0.06248
5472.99405,0.06232
5474.92252,0.07914
5476.85099,0.09428
5478.77946,0.08162
5480.70793,0.07054
5482.63640,0.08601
5484.56487,0.08990
5486.49334,0.06756
5488.42180,0.05372
5490.35027,0.05389
5492.27874,0.06300
5494.20721,0.07895
5496.13568,0.07561
5498.06415,0.06478
5499.99262,0.07553
5501.92108,0.09540
5503.84955,0.10401
5505.77802,0.09482
5507.70649,0.07210
5509.63496,0.06528
5511.56343,0.09579
5513.49190,0.13084
5515.42037,0.13055
5517.34883,0.11716
5519.27730,0.10707
5521.20577,0.08520
5523.13424,0.06882
5525.06271,0.06977
5526.99118,0.06183
5528.91965,0.05038
5530.84811,0.05483
5532.77658,0.05363
5534.70505,0.03709
5536.63352,0.03295
5538.56199,0.05723
5540.49046,0.07441
5542.41893,0.05530
5544.34740,0.03049
5546.27586,0.02475
5548.20433,0.03361
5550.13280,0.04024
5552.06127,0.03524
5553.98974,0.03860
5555.91821,0.06714
5557.84668,0.10966
5559.77514,0.12928
5561.70361,0.11213
5563.63208,0.08908
5565.56055,0.07635
5567.48902,0.05983
5569.41749,0.04400
5571.34596,0.05611
5573.27443,0.08987
5575.20289,0.10172
5577.13136,0.08715
5579.05983,0.07699
5580.98830,0.07459
5582.91677,0.06763
5584.84524,0.06736
5586.77371,0.08079
5588.70217,0.08833
5590.63064,0.07948
5592.55911,0.07656
5594.48758,0.09061
5596.41605,0.09810
5598.34452,0.08180
5600.27299,0.05851
5602.20145,0.06048
5604.12992,0.08014
5606.05839,0.07732
5607.98686,0.05804
5609.91533,0.05405
5611.84380,0.05775
5613.77227,0.05190
5615.70074,0.04195
5617.62920,0.03826
5619.55767,0.04643
5621.48614,0.06438
5623.41461,0.08814
5625.34308,0.11100
5627.27155,0.11854
5629.20002,0.11090
5631.12848,0.10550
5633.05695,0.10148
5634.98542,0.09278
5636.91389,0.08658
5638.84236,0.08061
5640.77083,0.07894
5642.69930,0.08699
5644.62777,0.09978
5646.55623,0.11533
5648.48470,0.11493
5650.41317,0.09234
5652.34164,0.06386
5654.27011,0.04745
5656.19858,0.06360
5658.12705,0.09431
5660.05551,0.10964
5661.98398,0.11709
5663.91245,0.11471
5665.84092,0.08533
5667.76939,0.05092
5669.69786,0.04601
5671.62633,0.07229
5673.55480,0.10693
5675.48326,0.12823
5677.41173,0.12616
5679.34020,0.10903
5681.26867,0.10462
5683.19714,0.11881
5685.12561,0.12443
5687.05408,0.12072
5688.98254,0.12009
5690.91101,0.09980
5692.83948,0.05813
5694.76795,0.03784
5696.69642,0.05456
5698.62489,0.08008
5700.55336,0.08532
5702.48183,0.07031
5704.41029,0.05216
5706.33876,0.04507
5708.26723,0.06258
5710.19570,0.09889
5712.12417,0.12334
5714.05264,0.12780
5715.98111,0.13034
5717.90957,0.12710
5719.83804,0.11164
5721.76651,0.07939
5723.69498,0.03615
5725.62345,0.03384
5727.55192,0.07972
5729.48039,0.11352
5731.40886,0.11671
5733.33732,0.10439
5735.26579,0.09099
5737.19426,0.08465
5739.12273,0.06820
5741.05120,0.05013
5742.97967,0.04650
5744.90814,0.04344
5746.83660,0.03997
5748.76507,0.04487
5750.69354,0.06238
5752.62201,0.08931
5754.55048,0.10538
5756.47895,0.09536
5758.40742,0.06335
5760.33588,0.02720
5762.26435,0.01433
5764.19282,0.03826
5766.12129,0.06444
5768.04976,0.05363
5769.97823,0.03321
5771.90670,0.04437
5773.83517,0.06047
5775.76363,0.05629
5777.69210,0.05800
5779.62057,0.06313
5781.54904,0.06074
5783.47751,0.06807
5785.40598,0.07180
5787.33445,0.06094
5789.26291,0.06357
5791.19138,0.08332
5793.11985,0.10052
5795.04832,0.11510
5796.97679,0.11854
5798.90526,0.10651
5800.83373,0.09925
5802.76220,0.09856
5804.69066,0.09300
5806.61913,0.08370
5808.54760,0.08737
5810.47607,0.08627
5812.40454,0.05483
5814.33301,0.05400
5816.26148,0.09950
5818.18994,0.11909
5820.11841,0.10802
5822.04688,0.08871
5823.97535,0.05994
5825.90382,0.04230
5827.83229,0.03072
5829.76076,0.02465
5831.68923,0.06170
5833.61769,0.11056
5835.54616,0.10647
5837.47463,0.08054
5839.40310,0.08786
5841.33157,0.10918
5843.26004,0.10092
5845.18851,0.07824
5847.11697,0.07299
5849.04544,0.08902
5850.97391,0.10888
5852.90238,0.11020
5854.83085,0.09485
5856.75932,0.08790
5858.68779,0.10213
5860.61626,0.10898
5862.54472,0.11112
5864.47319,0.11870
5866.40166,0.09937
5868.33013,0.07281
5870.25860,0.05368
5872.18707,0.02665
5874.11554,0.02009
5876.04400,0.05351
5877.97247,0.09173
5879.90094,0.10160
5881.82941,0.10096
5883.75788,0.10662
5885.68635,0.10544
5887.61482,0.09622
5889.54329,0.09075
5891.47175,0.09928
5893.40022,0.10808
5895.32869,0.09153
5897.25716,0.07404
5899.18563,0.08053
5901.11410,0.08001
5903.04257,0.06009
5904.97103,0.04931
5906.89950,0.07362
5908.82797,0.10954
5910.75644,0.10287
5912.68491,0.07737
5914.61338,0.08685
5916.54185,0.12543
5918.47032,0.15081
5920.39878,0.12262
5922.32725,0.06406
5924.25572,0.03013
5926.18419,0.02223
5928.11266,0.03895
5930.04113,0.08019
5931.96960,0.08583
5933.89806,0.04449
5935.82653,0.02200
5937.75500,0.01455
5939.68347,0.00514
5941.61194,0.02768
5943.54041,0.07086
5945.46888,0.08176
5947.39734,0.05926
5949.32581,0.07305
5951.25428,0.13785
5953.18275,0.17759
5955.11122,0.16772
5957.03969,0.13173
5958.96816,0.09722
5960.89663,0.07269
5962.82509,0.05633
5964.75356,0.07359
5966.68203,0.11094
5968.61050,0.11865
5970.53897,0.08186
5972.46744,0.01842
5974.39591,-0.01232
5976.32437,0.02450
5978.25284,0.05478
5980.18131,0.02027
5982.10978,-0.02936
5984.03825,-0.04031
5985.96672,-0.02206
5987.89519,0.02342
5989.82366,0.10125
5991.75212,0.15566
5993.68059,0.15438
5995.60906,0.13701
5997.53753,0.12322
5999.46600,0.10384
6001.39447,0.09336
6003.32294,0.10053
6005.25140,0.09884
6007.17987,0.09110
6009.10834,0.09988
6011.03681,0.10080
6012.96528,0.09697
6014.89375,0.12373
6016.82222,0.16209
6018.75069,0.16924
6020.67915,0.14621
6022.60762,0.11288
6024.53609,0.08852
6026.46456,0.09117
6028.39303,0.12177
6030.32150,0.15446
6032.24997,0.15035
6034.17843,0.12594
6036.10690,0.12713
6038.03537,0.12193
6039.96384,0.08102
6041.89231,0.05618
6043.82078,0.05865
6045.74925,0.05017
6047.67772,0.04804
6049.60618,0.07709
6051.53465,0.12181
6053.46312,0.14580
6055.39159,0.13762
6057.32006,0.14924
6059.24853,0.17867
6061.17700,0.16338
6063.10546,0.10063
6065.03393,0.05926
6066.96240,0.06247
6068.89087,0.06613
6070.81934,0.07820
6072.74781,0.10690
6074.67628,0.10927
6076.60475,0.08781
6078.53321,0.07587
6080.46168,0.08060
6082.39015,0.08775
6084.31862,0.06790
6086.24709,0.02280
6088.17556,0.02079
6090.10403,0.07176
6092.03249,0.10193
6093.96096,0.09585
6095.88943,0.08906
6097.81790,0.09777
6099.74637,0.11664
6101.67484,0.12030
6103.60331,0.10199
6105.53177,0.08751
6107.46024,0.09788
6109.38871,0.12463
6111.31718,0.13738
6113.24565,0.12133
6115.17412,0.11218
6117.10259,0.12734
6119.03106,0.10779
6120.95952,0.06485
6122.88799,0.07618
6124.81646,0.10843
6126.74493,0.09683
6128.67340,0.08213
6130.60187,0.11025
6132.53034,0.12229
6134.45880,0.09733
6136.38727,0.07887
6138.31574,0.08295
6140.24421,0.08598
6142.17268,0.08534
6144.10115,0.10266
6146.02962,0.10047
6147.95809,0.05216
6149.88655,-0.01602
6151.81502,-0.04975
6153.74349,-0.00869
6155.67196,0.05891
6157.60043,0.10695
6159.52890,0.13298
6161.45737,0.13325
6163.38583,0.11035
6165.31430,0.06570
6167.24277,0.01757
6169.17124,0.01366
6171.09971,0.06138
6173.02818,0.09640
6174.95665,0.07438
6176.88512,0.01352
6178.81358,0.00241
6180.74205,0.08624
6182.67052,0.15281
6184.59899,0.11817
6186.52746,0.05341
6188.45593,0.06239
6190.38440,0.10868
6192.31286,0.10167
6194.24133,0.05931
6196.16980,0.03772
6198.09827,0.04217
6200.02674,0.03438
6201.95521,0.03734
6203.88368,0.10196
6205.81215,0.16279
6207.74061,0.13173
6209.66908,0.04591
6211.59755,0.03084
6213.52602,0.10024
6215.45449,0.16528
6217.38296,0.18459
6219.31143,0.14761
6221.23989,0.09141
6223.16836,0.06265
6225.09683,0.05599
6227.02530,0.06737
6228.95377,0.09451
6230.88224,0.11117
6232.81071,0.09458
6234.73918,0.06774
6236.66764,0.07334
6238.59611,0.08332
6240.52458,0.06591
6242.45305,0.06480
6244.38152,0.06275
6246.30999,0.00927
6248.23846,-0.02609
6250.16692,0.01980
6252.09539,0.10547
6254.02386,0.15310
6255.95233,0.14410
6257.88080,0.11697
6259.80927,0.08045
6261.73774,0.02894
6263.66621,0.01575
6265.59467,0.07914
6267.52314,0.14494
6269.45161,0.14815
6271.38008,0.13099
6273.30855,0.13764
6275.23702,0.13772
6277.16549,0.11910
6279.09395,0.12214
6281.02242,0.11868
6282.95089,0.09669
6284.87936,0.07564
6286.80783,0.07440
6288.73630,0.13663
6290.66477,0.20380
6292.59323,0.16570
6294.52170,0.06732
6296.45017,0.01200
6298.37864,0.00117
6300.30711,0.02091
6302.23558,0.08898
6304.16405,0.15176
6306.09252,0.15680
6308.02098,0.11373
6309.94945,0.07465
6311.87792,0.09287
6313.80639,0.12028
6315.73486,0.09164
6317.66333,0.04968
6319.59180,0.02392
6321.52026,0.02036
6323.44873,0.08003
6325.37720,0.13768
6327.30567,0.12116
6329.23414,0.07197
6331.16261,0.06520
6333.09108,0.09238
6335.01955,0.07336
6336.94801,0.05860
6338.87648,0.11834
6340.80495,0.16301
6342.73342,0.14146
6344.66189,0.10209
6346.59036,0.06279
6348.51883,0.04076
6350.44729,0.05068
6352.37576,0.02653
6354.30423,-0.01414
6356.23270,0.00768
6358.16117,0.04112
6360.08964,0.03423
6362.01811,0.02658
6363.94658,0.03811
6365.87504,0.05784
6367.80351,0.07003
6369.73198,0.08135
6371.66045,0.12370
6373.58892,0.16810
6375.51739,0.12545
6377.44586,0.01203
6379.37432,-0.03438
6381.30279,0.03191
6383.23126,0.08412
6385.15973,0.06072
6387.08820,0.04720
6389.01667,0.05559
6390.94514,0.06221
6392.87361,0.06617
6394.80207,0.08050
6396.73054,0.08276
6398.65901,0.04420
6400.58748,-0.01420
6402.51595,-0.04830
6404.44442,-0.01669
6406.37289,0.08248
6408.30135,0.18515
6410.22982,0.19778
6412.15829,0.10786
6414.08676,0.02453
6416.01523,0.01136
6417.94370,0.02684
6419.87217,0.02785
6421.80064,0.05199
6423.72910,0.09962
6425.65757,0.09353
6427.58604,0.01404
6429.51451,-0.09580
6431.44298,-0.16345
6433.37145,-0.11507
6435.29992,0.00819
6437.22838,0.11408
6439.15685,0.16715
6441.08532,0.19415
6443.01379,0.19036
6444.94226,0.16259
6446.87073,0.15554
6448.79920,0.13532
6450.72766,0.06196
6452.65613,-0.02308
6454.58460,-0.09748
6456.51307,-0.14211
6458.44154,-0.11332
6460.37001,-0.04066
6462.29848,0.01331
6464.22695,0.03056
6466.15541,0.04482
6468.08388,0.05634
6470.01235,0.06269
6471.94082,0.09346
6473.86929,0.10939
6475.79776,0.09073
6477.72623,0.07261
6479.65469,0.07860
6481.58316,0.11606
6483.51163,0.14038
6485.44010,0.11521
6487.36857,0.07163
6489.29704,0.06669
6491.22551,0.07757
6493.15398,0.04737
6495.08244,0.05968
6497.01091,0.13428
6498.93938,0.15280
6500.86785,0.09781
6502.79632,0.04668
6504.72479,0.05091
6506.65326,0.09438
6508.58172,0.10395
6510.51019,0.08120
6512.43866,0.09513
6514.36713,0.14158
6516.29560,0.17776
6518.22407,0.20470
6520.15254,0.22130
6522.08101,0.19806
6524.00947,0.14186
6525.93794,0.07574
6527.86641,0.04673
6529.79488,0.10513
6531.72335,0.16982
6533.65182,0.15625
6535.58029,0.11701
6537.50875,0.08431
6539.43722,0.03009
6541.36569,-0.00958
6543.29416,0.00528
6545.22263,0.03954
6547.15110,0.05585
6549.07957,0.08345
6551.00804,0.17073
6552.93650,0.25813
6554.86497,0.26659
6556.79344,0.21798
6558.72191,0.15220
6560.65038,0.09019
6562.57885,0.02969
6564.50732,-0.01701
6566.43578,0.00589
6568.36425,0.05656
6570.29272,0.06286
6572.22119,0.04041
6574.14966,0.00222
6576.07813,-0.01935
6578.00660,-0.01352
6579.93507,-0.00780
6581.86353,0.04549
6583.79200,0.11776
6585.72047,0.10759
6587.64894,0.07087
6589.57741,0.07381
6591.50588,0.08990
6593.43435,0.10555
6595.36281,0.10625
6597.29128,0.03714
6599.21975,-0.09833
6601.14822,-0.16221
6603.07669,-0.05153
6605.00516,0.12108
6606.93363,0.22753
6608.86210,0.23024
6610.79056,0.14873
6612.71903,-0.00231
6614.64750,-0.13096
6616.57597,-0.13316
6618.50444,-0.04520
6620.43291,0.02846
6622.36138,0.04072
6624.28984,0.01170
6626.21831,0.01323
6628.14678,0.09837
6630.07525,0.21246
6632.00372,0.25120
6633.93219,0.21076
6635.86066,0.13390
6637.78912,0.06556
6639.71759,0.02060
6641.64606,0.01319
6643.57453,0.03035
6645.50300,0.00350
6647.43147,-0.06928
6649.35994,-0.06977
6651.28841,0.03685
6653.21687,0.11690
6655.14534,0.12168
6657.07381,0.13465
6659.00228,0.14686
6660.93075,0.12673
6662.85922,0.12259
6664.78769,0.11807
6666.71615,0.03717
6668.64462,-0.09872
6670.57309,-0.16916
6672.50156,-0.12214
6674.43003,-0.03886
6676.35850,0.01297
6678.28697,0.04838
6680.21544,0.09566
6682.14390,0.13683
6684.07237,0.12393
6686.00084,0.06486
6687.92931,-0.02738
6689.85778,-0.08700
6691.78625,-0.05063
6693.71472,0.01282
6695.64318,0.08221
6697.57165,0.16292
6699.50012,0.20068
6701.42859,0.19496
6703.35706,0.15902
6705.28553,0.05012
6707.21400,-0.06364
6709.14247,-0.05752
6711.07093,0.01882
6712.99940,0.08844
6714.92787,0.14047
6716.85634,0.14590
6718.78481,0.10713
6720.71328,0.09160
6722.64175,0.10828
6724.57021,0.11642
6726.49868,0.12102
6728.42715,0.10287
6730.35562,0.06549
6732.28409,0.06575
6734.21256,0.09277
6736.14103,0.13494
6738.06950,0.18487
6739.99796,0.18342
6741.92643,0.12859
6743.85490,0.07636
6745.78337,0.03437
6747.71184,-0.01430
6749.64031,-0.02654
6751.56878,0.03271
6753.49724,0.08061
6755.42571,0.04985
6757.35418,-0.00927
6759.28265,0.00001
6761.21112,0.07086
6763.13959,0.05292
6765.06806,-0.04569
6766.99653,-0.07205
6768.92499,-0.00486
6770.85346,0.02942
6772.78193,0.01373
6774.71040,0.03780
6776.63887,0.10566
6778.56734,0.15345
6780.49581,0.15604
6782.42427,0.12320
6784.35274,0.08293
6786.28121,0.05575
6788.20968,0.05616
6790.13815,0.08705
6792.06662,0.11720
6793.99509,0.09806
6795.92355,0.06951
6797.85202,0.12165
6799.78049,0.22400
6801.70896,0.28487
6803.63743,0.26434
6805.56590,0.17623
6807.49437,0.10054
6809.42284,0.08412
6811.35130,0.09903
6813.27977,0.12179
6815.20824,0.16272
6817.13671,0.19989
6819.06518,0.16969
6820.99365,0.04353
6822.92212,-0.09039
6824.85058,-0.08558
6826.77905,0.01499
6828.70752,0.14757
6830.63599,0.21044
6832.56446,0.14704
6834.49293,0.07334
6836.42140,0.06026
6838.34987,0.06583
6840.27833,0.03246
6842.20680,-0.01800
6844.13527,0.00579
6846.06374,0.13400
6847.99221,0.23857
6849.92068,0.16710
6851.84915,0.03482
6853.77761,-0.04294
6855.70608,-0.10414
6857.63455,-0.12653
6859.56302,-0.06314
6861.49149,0.04582
6863.41996,0.11781
6865.34843,0.11312
6867.27690,0.04549
6869.20536,-0.00016
6871.13383,0.05552
6873.06230,0.16050
6874.99077,0.16191
6876.91924,0.06897
6878.84771,-0.01188
6880.77618,-0.01127
6882.70464,0.04402
6884.63311,0.04034
6886.56158,-0.04283
6888.49005,-0.06475
6890.41852,0.04060
6892.34699,0.16202
6894.27546,0.18266
6896.20393,0.06263
6898.13239,-0.07582
6900.06086,-0.02462
6901.98933,0.13309
6903.91780,0.20791
6905.84627,0.15048
6907.77474,0.07053
6909.70321,0.00850
6911.63167,-0.09175
6913.56014,-0.16658
6915.48861,-0.11751
6917.41708,0.00408
6919.34555,0.12090
6921.27402,0.18894
6923.20249,0.17938
6925.13096,0.12751
6927.05942,0.10835
6928.98789,0.11686
6930.91636,0.10116
6932.84483,0.05898
6934.77330,0.03319
6936.70177,0.07910
6938.63024,0.19280
6940.55870,0.25176
6942.48717,0.20619
6944.41564,0.16586
6946.34411,0.11177
6948.27258,0.00586
6950.20105,-0.03786
6952.12952,0.04247
6954.05799,0.11956
6955.98645,0.11616
6957.91492,0.10249
6959.84339,0.01477
6961.77186,-0.10912
6963.70033,-0.08148
6965.62880,0.04150
6967.55727,0.11488
6969.48573,0.12162
6971.41420,0.13638
6973.34267,0.15246
6975.27114,0.11362
6977.19961,0.05930
6979.12808,0.03706
6981.05655,0.06504
6982.98501,0.12046
6984.91348,0.13277
6986.84195,0.10068
6988.77042,0.09377
6990.69889,0.09945
6992.62736,0.07319
6994.55583,0.11125
6996.48430,0.29502
6998.41276,0.38979
7000.34123,0.19023
7002.26970,-0.02859
7004.19817,-0.09126
7006.12664,-0.09186
7008.05511,-0.07602
7009.98358,-0.05342
7011.91204,-0.02476
7013.84051,0.03791
7015.76898,0.14018
7017.69745,0.21324
7019.62592,0.18351
7021.55439,0.13206
7023.48286,0.17114
7025.41133,0.20878
7027.33979,0.14063
7029.26826,0.01275
7031.19673,-0.09794
7033.12520,-0.10626
7035.05367,0.01392
7036.98214,0.11012
7038.91061,0.12792
7040.83907,0.16152
7042.76754,0.20921
7044.69601,0.09413
7046.62448,-0.15553
7048.55295,-0.26891
7050.48142,-0.17969
7052.40989,-0.04953
7054.33836,-0.00005
7056.26682,0.04525
7058.19529,0.15487
7060.12376,0.18995
7062.05223,0.09954
7063.98070,-0.04251
7065.90917,-0.08003
7067.83764,0.04378
7069.76610,0.17848
7071.69457,0.15919
7073.62304,0.09217
7075.55151,0.09757
7077.47998,0.15900
7079.40845,0.20219
7081.33692,0.13530
7083.26539,0.07283
7085.19385,0.09655
7087.12232,0.09240
7089.05079,0.03160
7090.97926,-0.00776
7092.90773,0.03975
7094.83620,0.17097
7096.76467,0.25789
7098.69313,0.18637
7100.62160,0.02811
7102.55007,-0.05094
7104.47854,0.00913
7106.40701,0.12772
7108.33548,0.20191
7110.26395,0.17941
7112.19242,0.08728
7114.12088,0.07307
7116.04935,0.11331
7117.97782,0.03233
7119.90629,-0.07296
7121.83476,-0.04945
7123.76323,0.02309
7125.69170,0.09792
7127.62016,0.16786
7129.54863,0.18447
7131.47710,0.14763
7133.40557,0.07212
7135.33404,-0.02127
7137.26251,-0.04967
7139.19098,0.02427
7141.11944,0.14396
7143.04791,0.24462
7144.97638,0.28094
7146.90485,0.23214
7148.83332,0.13347
7150.76179,0.04856
7152.69026,0.00411
7154.61873,-0.06679
7156.54719,-0.13671
7158.47566,-0.09031
7160.40413,0.04676
7162.33260,0.15100
7164.26107,0.09530
7166.18954,-0.09465
7168.11801,-0.11408
7170.04647,0.14295
7171.97494,0.35482
7173.90341,0.37193
7175.83188,0.28028
7177.76035,0.16834
7179.68882,0.15446
7181.61729,0.22375
7183.54576,0.23461
7185.47422,0.11594
7187.40269,0.08281
7189.33116,0.29457
7191.25963,0.43360
7193.18810,0.19905
7195.11657,-0.04993
7197.04504,-0.11063
7198.97350,-0.06897
7200.90197,0.04465
7202.83044,0.17120
7204.75891,0.23387
7206.68738,0.25157
7208.61585,0.18407
7210.54432,0.06812
7212.47279,0.04460
7214.40125,0.11098
7216.32972,0.19977
7218.25819,0.19799
7220.18666,0.06831
7222.11513,0.00534
7224.04360,0.05180
7225.97207,0.11007
7227.90053,0.16979
7229.82900,0.28823
7231.75747,0.28709
7233.68594,0.13033
7235.61441,0.06199
7237.54288,0.12793
7239.47135,0.33012
7241.39982,0.50083
7243.32828,0.28621
7245.25675,-0.01809
7247.18522,-0.06302
7249.11369,-0.02184
7251.04216,-0.03547
7252.97063,-0.07585
7254.89910,0.01196
7256.82756,0.04149
7258.75603,-0.13554
7260.68450,-0.31330
7262.61297,-0.28517
7264.54144,-0.22945
7266.46991,-0.21124
7268.39838,-0.12297
7270.32685,0.03974
7272.25531,0.05033
7274.18378,-0.06074
7276.11225,0.02697
7278.04072,0.22972
7279.96919,0.40587
7281.89766,0.43294
7283.82613,0.28674
7285.75459,0.15515
7287.68306,0.11455
7289.61153,0.07163
7291.54000,-0.00664
7293.46847,-0.06869
7295.39694,-0.05860
7297.32541,0.02837
7299.25387,0.09546
7301.18234,0.06290
7303.11081,0.06046
7305.03928,0.20087
7306.96775,0.33623
7308.89622,0.43919
7310.82469,0.48276
7312.75316,0.36658
7314.68162,0.25566
7316.61009,0.20884
7318.53856,0.12196
7320.46703,0.06885
7322.39550,0.10405
7324.32397,0.14755
7326.25244,0.10673
7328.18090,0.01694
7330.10937,0.03256
7332.03784,0.15791
7333.96631,0.23741
7335.89478,0.22542
7337.82325,0.18872
7339.75172,0.14493
7341.68019,0.24603
7343.60865,0.50795
7345.53712,0.54643
7347.46559,0.24012
7349.39406,-0.06698
7351.32253,-0.17654
7353.25100,-0.14962
7355.17947,-0.14878
7357.10793,-0.11926
7359.03640,0.04845
7360.96487,0.13204
7362.89334,0.07745
7364.82181,0.02754
7366.75028,0.15541
7368.67875,0.34686
7370.60722,0.25593
7372.53568,0.00284
7374.46415,-0.14959
7376.39262,-0.09476
7378.32109,-0.05103
7380.24956,-0.15363
7382.17803,-0.28502
7384.10650,-0.33303
7386.03496,-0.27594
7387.96343,-0.10952
7389.89190,0.00603
7391.82037,0.00353
7393.74884,0.01947
7395.67731,0.07360
7397.60578,0.09856
7399.53425,0.13102
7401.46271,0.13119
7403.39118,0.08768
7405.31965,0.04251
7407.24812,-0.00201
7409.17659,0.03842
7411.10506,0.19758
7413.03353,0.27788
7414.96199,0.18375
7416.89046,0.10351
7418.81893,0.18983
7420.74740,0.21459
7422.67587,0.13462
7424.60434,0.08528
7426.53281,-0.00433
7428.46128,-0.16730
7430.38974,-0.21608
7432.31821,-0.10386
7434.24668,-0.01649
7436.17515,-0.05697
7438.10362,-0.22028
7440.03209,-0.28548
7441.96056,-0.17325
7443.88902,0.04270
7445.81749,0.27693
7447.74596,0.42512
7449.67443,0.50898
7451.60290,0.44996
7453.53137,0.16053
7455.45984,-0.03645
7457.38831,0.05240
7459.31677,0.31632
7461.24524,0.39669
7463.17371,0.31501
7465.10218,0.32975
7467.03065,0.30252
7468.95912,0.20124
7470.88759,0.17404
7472.81605,0.17265
7474.74452,0.18578
7476.67299,0.19155
7478.60146,0.02441
7480.52993,-0.15800
7482.45840,-0.11967
7484.38687,-0.06225
7486.31533,-0.08782
7488.24380,-0.10479
7490.17227,-0.04557
7492.10074,0.08738
7494.02921,0.20521
7495.95768,0.24451
7497.88615,0.15873
