399.19301,0.90354
401.12148,0.53403
403.04995,0.10101
404.97842,0.04785
406.90689,0.14566
408.83536,0.24075
410.76382,0.24502
412.69229,0.13246
414.62076,0.05416
416.54923,0.04426
418.47770,0.02037
420.40617,-0.01111
422.33464,0.04168
424.26311,0.14908
426.19157,0.17832
428.12004,0.10009
430.04851,0.00171
431.97698,-0.03798
433.90545,-0.00320
435.83392,0.07856
437.76239,0.13284
439.69085,0.09770
441.61932,-0.01218
443.54779,-0.09651
445.47626,-0.07608
447.40473,0.01990
449.33320,0.11023
451.26167,0.17129
453.19013,0.21252
455.11860,0.15712
457.04707,0.04637
458.97554,0.09039
460.90401,0.24679
462.83248,0.30269
464.76095,0.22310
466.68942,0.15431
468.61788,0.12867
470.54635,0.09752
472.47482,0.09268
474.40329,0.05425
476.33176,-0.00616
478.26023,0.03157
480.18870,0.12368
482.11716,0.18248
484.04563,0.13699
485.97410,0.06229
487.90257,0.06770
489.83104,0.10628
491.75951,0.09462
493.68798,0.06681
495.61645,0.06522
497.54491,0.06914
499.47338,0.07425
501.40185,0.06242
503.33032,0.02868
505.25879,0.02228
507.18726,0.05519
509.11573,0.10575
511.04419,0.14483
512.97266,0.15449
514.90113,0.14251
516.82960,0.10480
518.75807,0.08019
520.68654,0.11217
522.61501,0.13346
524.54348,0.10910
526.47194,0.09691
528.40041,0.10039
530.32888,0.07529
532.25735,0.06309
534.18582,0.10148
536.11429,0.11779
538.04276,0.11401
539.97122,0.15167
541.89969,0.16407
543.82816,0.12851
545.75663,0.13492
547.68510,0.16631
549.61357,0.14514
551.54204,0.10754
553.47051,0.11481
555.39897,0.12409
557.32744,0.09257
559.25591,0.05362
561.18438,0.04150
563.11285,0.07690
565.04132,0.12216
566.96979,0.10953
568.89825,0.07534
570.82672,0.07772
572.75519,0.09190
574.68366,0.10113
576.61213,0.12029
578.54060,0.13096
580.46907,0.12622
582.39754,0.12368
584.32600,0.12938
586.25447,0.13261
588.18294,0.12361
590.11141,0.11826
592.03988,0.11968
593.96835,0.12209
595.89682,0.12769
597.82528,0.13215
599.75375,0.13709
601.68222,0.13868
603.61069,0.12238
605.53916,0.10736
607.46763,0.12701
609.39610,0.15371
611.32456,0.14953
613.25303,0.12406
615.18150,0.10460
617.10997,0.09713
619.03844,0.08676
620.96691,0.08101
622.89538,0.09125
624.82385,0.09517
626.75231,0.08984
628.68078,0.09768
630.60925,0.10020
632.53772,0.08884
634.46619,0.09759
636.39466,0.12551
638.32313,0.14775
640.25159,0.15834
642.18006,0.16207
644.10853,0.15692
646.03700,0.14484
647.96547,0.14128
649.89394,0.15274
651.82241,0.16461
653.75088,0.16804
655.67934,0.15915
657.60781,0.13966
659.53628,0.11840
661.46475,0.09210
663.39322,0.07919
665.32169,0.08837
667.25016,0.09758
669.17862,0.11575
671.10709,0.14718
673.03556,0.16765
674.96403,0.17270
676.89250,0.15965
678.82097,0.12683
680.74944,0.08985
682.67791,0.07584
684.60637,0.08871
686.53484,0.11174
688.46331,0.12641
690.39178,0.13156
692.32025,0.13363
694.24872,0.12600
696.17719,0.12148
698.10565,0.13677
700.03412,0.14703
701.96259,0.13077
703.89106,0.11208
705.81953,0.10760
707.74800,0.10848
709.67647,0.16351
711.60494,0.25126
713.53340,0.23604
715.46187,0.15363
717.39034,0.12824
719.31881,0.14371
721.24728,0.15230
723.17575,0.14813
725.10422,0.14087
727.03268,0.13447
728.96115,0.13411
730.88962,0.14506
732.81809,0.15398
734.74656,0.14814
736.67503,0.13185
738.60350,0.12147
740.53197,0.12125
742.46043,0.11728
744.38890,0.11197
746.31737,0.11799
748.24584,0.12870
750.17431,0.13675
752.10278,0.14189
754.03125,0.13897
755.95971,0.13145
757.88818,0.12571
759.81665,0.11945
761.74512,0.11415
763.67359,0.11295
765.60206,0.11522
767.53053,0.12193
769.45900,0.12201
771.38746,0.10592
773.31593,0.09632
775.24440,0.10671
777.17287,0.11831
779.10134,0.12273
781.02981,0.12402
782.95828,0.12422
784.88674,0.12781
786.81521,0.12925
788.74368,0.12611
790.67215,0.12995
792.60062,0.13974
794.52909,0.14445
796.45756,0.14235
798.38602,0.14124
800.31449,0.14488
802.24296,0.14867
804.17143,0.14814
806.09990,0.14577
808.02837,0.14640
809.95684,0.14483
811.88531,0.13802
813.81377,0.13462
815.74224,0.14073
817.67071,0.14587
819.59918,0.13729
821.52765,0.12544
823.45612,0.11827
825.38459,0.11123
827.31305,0.11140
829.24152,0.12460
831.16999,0.14408
833.09846,0.15563
835.02693,0.15037
836.95540,0.14166
838.88387,0.14136
840.81234,0.13976
842.74080,0.12898
844.66927,0.12376
846.59774,0.13944
848.52621,0.15423
850.45468,0.14314
852.38315,0.12789
854.31162,0.12972
856.24008,0.13118
858.16855,0.12272
860.09702,0.11788
862.02549,0.12419
863.95396,0.13640
865.88243,0.14305
867.81090,0.13403
869.73937,0.11613
871.66783,0.11471
873.59630,0.13377
875.52477,0.14497
877.45324,0.13573
879.38171,0.12089
881.31018,0.11674
883.23865,0.12483
885.16711,0.13052
887.09558,0.12723
889.02405,0.12838
890.95252,0.14054
892.88099,0.15106
894.80946,0.14708
896.73793,0.13771
898.66640,0.13844
900.59486,0.14230
902.52333,0.14234
904.45180,0.14236
906.38027,0.14254
908.30874,0.14242
910.23721,0.14051
912.16568,0.13846
914.09414,0.13984
916.02261,0.14184
917.95108,0.14058
919.87955,0.14130
921.80802,0.14575
923.73649,0.14784
925.66496,0.15042
927.59343,0.15387
929.52189,0.15410
931.45036,0.15072
933.37883,0.14257
935.30730,0.13504
937.23577,0.13324
939.16424,0.13150
941.09271,0.12796
943.02117,0.13138
944.94964,0.14124
946.87811,0.14435
948.80658,0.13786
950.73505,0.13047
952.66352,0.12704
954.59199,0.12960
956.52045,0.13744
958.44892,0.14539
960.37739,0.14997
962.30586,0.15066
964.23433,0.14711
966.16280,0.14250
968.09127,0.14366
970.01974,0.14528
971.94820,0.13915
973.87667,0.13681
975.80514,0.14736
977.73361,0.16117
979.66208,0.16750
981.59055,0.16654
983.51902,0.16239
985.44748,0.15606
987.37595,0.15195
989.30442,0.15169
991.23289,0.14890
993.16136,0.14447
995.08983,0.14414
997.01830,0.14595
998.94677,0.14529
1000.87523,0.14023
1002.80370,0.13699
1004.73217,0.14161
1006.66064,0.14512
1008.58911,0.14154
1010.51758,0.13908
1012.44605,0.14181
1014.37451,0.14472
1016.30298,0.14479
1018.23145,0.14344
1020.15992,0.14274
1022.08839,0.14344
1024.01686,0.14539
1025.94533,0.14700
1027.87380,0.14701
1029.80226,0.14797
1031.73073,0.15028
1033.65920,0.15065
1035.58767,0.14818
1037.51614,0.14599
1039.44461,0.14558
1041.37308,0.14665
1043.30154,0.15222
1045.23001,0.15737
1047.15848,0.15642
1049.08695,0.15605
1051.01542,0.15808
1052.94389,0.15670
1054.87236,0.15276
1056.80083,0.14883
1058.72929,0.14065
1060.65776,0.12734
1062.58623,0.11901
1064.51470,0.12776
1066.44317,0.14520
1068.37164,0.15181
1070.30011,0.15098
1072.22857,0.15504
1074.15704,0.16141
1076.08551,0.16254
1078.01398,0.16022
1079.94245,0.15719
1081.87092,0.15151
1083.79939,0.14642
1085.72786,0.14744
1087.65632,0.15529
1089.58479,0.16272
1091.51326,0.16650
1093.44173,0.17217
1095.37020,0.17781
1097.29867,0.17932
1099.22714,0.17466
1101.15560,0.15976
1103.08407,0.14443
1105.01254,0.14345
1106.94101,0.15153
1108.86948,0.16245
1110.79795,0.17957
1112.72642,0.19407
1114.65489,0.19158
1116.58335,0.17128
1118.51182,0.15064
1120.44029,0.14918
1122.36876,0.15789
1124.29723,0.15612
1126.22570,0.14826
1128.15417,0.14446
1130.08263,0.14361
1132.01110,0.14773
1133.93957,0.15626
1135.86804,0.16198
1137.79651,0.16077
1139.72498,0.15426
1141.65345,0.14647
1143.58191,0.14540
1145.51038,0.15502
1147.43885,0.16222
1149.36732,0.16010
1151.29579,0.15791
1153.22426,0.15832
1155.15273,0.16097
1157.08120,0.16594
1159.00966,0.16709
1160.93813,0.16144
1162.86660,0.15476
1164.79507,0.15223
1166.72354,0.15413
1168.65201,0.15734
1170.58048,0.15530
1172.50894,0.14949
1174.43741,0.15001
1176.36588,0.15626
1178.29435,0.15949
1180.22282,0.15841
1182.15129,0.15849
1184.07976,0.16277
1186.00823,0.16705
1187.93669,0.16849
1189.86516,0.16886
1191.79363,0.16768
1193.72210,0.16643
1195.65057,0.16636
1197.57904,0.16227
1199.50751,0.15256
1201.43597,0.14583
1203.36444,0.14827
1205.29291,0.15488
1207.22138,0.16149
1209.14985,0.16775
1211.07832,0.17107
1213.00679,0.17031
1214.93526,0.16667
1216.86372,0.16473
1218.79219,0.16745
1220.72066,0.17064
1222.64913,0.17080
1224.57760,0.16891
1226.50607,0.16717
1228.43454,0.16776
1230.36300,0.17061
1232.29147,0.17168
1234.21994,0.16797
1236.14841,0.16253
1238.07688,0.16127
1240.00535,0.16301
1241.93382,0.16164
1243.86229,0.16055
1245.79075,0.16358
1247.71922,0.16637
1249.64769,0.16663
1251.57616,0.16506
1253.50463,0.16629
1255.43310,0.17323
1257.36157,0.17672
1259.29003,0.17074
1261.21850,0.16565
1263.14697,0.16799
1265.07544,0.16871
1267.00391,0.16323
1268.93238,0.15825
1270.86085,0.15700
1272.78932,0.15871
1274.71778,0.16232
1276.64625,0.16476
1278.57472,0.16730
1280.50319,0.17088
1282.43166,0.17185
1284.36013,0.17128
1286.28860,0.17177
1288.21706,0.17385
1290.14553,0.17753
1292.07400,0.17936
1294.00247,0.17407
1295.93094,0.16468
1297.85941,0.16134
1299.78788,0.16341
1301.71634,0.16298
1303.64481,0.15911
1305.57328,0.15651
1307.50175,0.16026
1309.43022,0.16760
1311.35869,0.17035
1313.28716,0.16843
1315.21563,0.16953
1317.14409,0.17458
1319.07256,0.17718
1321.00103,0.17725
1322.92950,0.17727
1324.85797,0.17637
1326.78644,0.17493
1328.71491,0.17215
1330.64337,0.16831
1332.57184,0.16913
1334.50031,0.17460
1336.42878,0.17708
1338.35725,0.17409
1340.28572,0.16952
1342.21419,0.16900
1344.14266,0.17276
1346.07112,0.17734
1347.99959,0.18072
1349.92806,0.17873
1351.85653,0.17303
1353.78500,0.17048
1355.71347,0.16920
1357.64194,0.16650
1359.57040,0.16732
1361.49887,0.17365
1363.42734,0.17545
1365.35581,0.17244
1367.28428,0.17370
1369.21275,0.17555
1371.14122,0.17637
1373.06969,0.17954
1374.99815,0.18018
1376.92662,0.17721
1378.85509,0.17768
1380.78356,0.18031
1382.71203,0.18051
1384.64050,0.18101
1386.56897,0.18379
1388.49743,0.18360
1390.42590,0.18174
1392.35437,0.18515
1394.28284,0.19257
1396.21131,0.19718
1398.13978,0.19696
1400.06825,0.19160
1401.99672,0.18426
1403.92518,0.18028
1405.85365,0.17864
1407.78212,0.17671
1409.71059,0.17677
1411.63906,0.17996
1413.56753,0.18322
1415.49600,0.18709
1417.42446,0.19563
1419.35293,0.19895
1421.28140,0.19264
1423.20987,0.19112
1425.13834,0.18999
1427.06681,0.18633
1428.99528,0.18671
1430.92375,0.18815
1432.85221,0.18695
1434.78068,0.18797
1436.70915,0.18950
1438.63762,0.18444
1440.56609,0.18136
1442.49456,0.18459
1444.42303,0.18864
1446.35149,0.19088
1448.27996,0.19245
1450.20843,0.19322
1452.13690,0.19229
1454.06537,0.19305
1455.99384,0.20514
1457.92231,0.21690
1459.85077,0.20664
1461.77924,0.19959
1463.70771,0.20023
1465.63618,0.19695
1467.56465,0.19124
1469.49312,0.19573
1471.42159,0.21097
1473.35006,0.21934
1475.27852,0.20954
1477.20699,0.19652
1479.13546,0.18902
1481.06393,0.18929
1482.99240,0.19281
1484.92087,0.19594
1486.84934,0.20128
1488.77780,0.20986
1490.70627,0.21033
1492.63474,0.20249
1494.56321,0.20007
1496.49168,0.20245
1498.42015,0.20059
1500.34862,0.19581
1502.27709,0.19392
1504.20555,0.20396
1506.13402,0.23357
1508.06249,0.24044
1509.99096,0.21904
1511.91943,0.20635
1513.84790,0.20646
1515.77637,0.22059
1517.70483,0.23532
1519.63330,0.24093
1521.56177,0.23812
1523.49024,0.22388
1525.41871,0.21436
1527.34718,0.20894
1529.27565,0.20168
1531.20412,0.19961
1533.13258,0.20460
1535.06105,0.20980
1536.98952,0.22134
1538.91799,0.25273
1540.84646,0.28078
1542.77493,0.26415
1544.70340,0.23831
1546.63186,0.21738
1548.56033,0.20683
1550.48880,0.20533
1552.41727,0.20775
1554.34574,0.21379
1556.27421,0.22679
1558.20268,0.24291
1560.13115,0.22615
1562.05961,0.20392
1563.98808,0.19530
1565.91655,0.19559
1567.84502,0.20265
1569.77349,0.20428
1571.70196,0.19606
1573.63043,0.19526
1575.55889,0.20488
1577.48736,0.20607
1579.41583,0.19552
1581.34430,0.18756
1583.27277,0.18298
1585.20124,0.17886
1587.12971,0.17615
1589.05818,0.17613
1590.98664,0.17768
1592.91511,0.18033
1594.84358,0.18323
1596.77205,0.18250
1598.70052,0.18041
1600.62899,0.18168
1602.55746,0.18311
1604.48592,0.18356
1606.41439,0.18458
1608.34286,0.18444
1610.27133,0.18380
1612.19980,0.18449
1614.12827,0.19016
1616.05674,0.20252
1617.98521,0.20689
1619.91367,0.20419
1621.84214,0.20765
1623.77061,0.20973
1625.69908,0.20331
1627.62755,0.19555
1629.55602,0.18858
1631.48449,0.18641
1633.41295,0.19635
1635.34142,0.21889
1637.26989,0.22444
1639.19836,0.21337
1641.12683,0.20668
1643.05530,0.20615
1644.98377,0.21638
1646.91223,0.23542
1648.84070,0.23851
1650.76917,0.24086
1652.69764,0.25361
1654.62611,0.23275
1656.55458,0.20463
1658.48305,0.19438
1660.41152,0.19420
1662.33998,0.19439
1664.26845,0.19250
1666.19692,0.19807
1668.12539,0.21229
1670.05386,0.22237
1671.98233,0.22081
1673.91080,0.21720
1675.83926,0.21009
1677.76773,0.20446
1679.69620,0.20794
1681.62467,0.22019
1683.55314,0.23569
1685.48161,0.23216
1687.41008,0.21854
1689.33855,0.20871
1691.26701,0.20212
1693.19548,0.20402
1695.12395,0.21679
1697.05242,0.23408
1698.98089,0.24289
1700.90936,0.23299
1702.83783,0.21943
1704.76629,0.21478
1706.69476,0.21146
1708.62323,0.20625
1710.55170,0.20180
1712.48017,0.20107
1714.40864,0.21078
1716.33711,0.22877
1718.26558,0.22538
1720.19404,0.20656
1722.12251,0.19656
1724.05098,0.19208
1725.97945,0.18938
1727.90792,0.19135
1729.83639,0.19691
1731.76486,0.20475
1733.69332,0.21399
1735.62179,0.20878
1737.55026,0.20047
1739.47873,0.20215
1741.40720,0.20662
1743.33567,0.20701
1745.26414,0.20692
1747.19261,0.21004
1749.12107,0.21182
1751.04954,0.20328
1752.97801,0.19376
1754.90648,0.19431
1756.83495,0.19916
1758.76342,0.20034
1760.69189,0.20071
1762.62035,0.19835
1764.54882,0.19339
1766.47729,0.19530
1768.40576,0.20458
1770.33423,0.21487
1772.26270,0.21765
1774.19117,0.20811
1776.11964,0.19716
1778.04810,0.19039
1779.97657,0.18729
1781.90504,0.18668
1783.83351,0.18720
1785.76198,0.18686
1787.69045,0.18874
1789.61892,0.19775
1791.54738,0.20691
1793.47585,0.20351
1795.40432,0.19608
1797.33279,0.19410
1799.26126,0.19720
1801.18973,0.19975
1803.11820,0.19663
1805.04666,0.19369
1806.97513,0.19405
1808.90360,0.19435
1810.83207,0.19358
1812.76054,0.19180
1814.68901,0.18821
1816.61748,0.18217
1818.54595,0.17559
1820.47441,0.17281
1822.40288,0.17786
1824.33135,0.18842
1826.25982,0.19373
1828.18829,0.19479
1830.11676,0.19609
1832.04523,0.19259
1833.97369,0.18885
1835.90216,0.18959
1837.83063,0.19200
1839.75910,0.19380
1841.68757,0.19620
1843.61604,0.19962
1845.54451,0.20065
1847.47298,0.19639
1849.40144,0.18879
1851.32991,0.18196
1853.25838,0.18028
1855.18685,0.18473
1857.11532,0.18956
1859.04379,0.19007
1860.97226,0.18813
1862.90072,0.18754
1864.82919,0.19198
1866.75766,0.20064
1868.68613,0.20480
1870.61460,0.20014
1872.54307,0.19431
1874.47154,0.19108
1876.40001,0.18972
1878.32847,0.18919
1880.25694,0.18939
1882.18541,0.18956
1884.11388,0.18916
1886.04235,0.19036
1887.97082,0.19455
1889.89929,0.19756
1891.82775,0.19631
1893.75622,0.19437
1895.68469,0.19227
1897.61316,0.18900
1899.54163,0.18715
1901.47010,0.18833
1903.39857,0.19079
1905.32704,0.19220
1907.25550,0.19225
1909.18397,0.19212
1911.11244,0.19215
1913.04091,0.19047
1914.96938,0.18810
1916.89785,0.18757
1918.82632,0.18672
1920.75478,0.18719
1922.68325,0.19190
1924.61172,0.19303
1926.54019,0.18805
1928.46866,0.18527
1930.39713,0.18619
1932.32560,0.18736
1934.25407,0.18835
1936.18253,0.18772
1938.11100,0.18526
1940.03947,0.18633
1941.96794,0.19257
1943.89641,0.19702
1945.82488,0.19609
1947.75335,0.19334
1949.68181,0.19178
1951.61028,0.19062
1953.53875,0.18766
1955.46722,0.18568
1957.39569,0.18712
1959.32416,0.18838
1961.25263,0.18889
1963.18110,0.19079
1965.10956,0.19272
1967.03803,0.19290
1968.96650,0.19094
1970.89497,0.18852
1972.82344,0.18924
1974.75191,0.19425
1976.68038,0.19739
1978.60884,0.19748
1980.53731,0.19763
1982.46578,0.19298
1984.39425,0.18723
1986.32272,0.18805
1988.25119,0.19153
1990.17966,0.19321
1992.10812,0.19281
1994.03659,0.19125
1995.96506,0.18986
1997.89353,0.19071
1999.82200,0.19257
2001.75047,0.19117
2003.67894,0.18707
2005.60741,0.18561
2007.53587,0.18745
2009.46434,0.18764
2011.39281,0.18651
2013.32128,0.18649
2015.24975,0.18745
2017.17822,0.18941
2019.10669,0.19035
2021.03515,0.18926
2022.96362,0.18834
2024.89209,0.18784
2026.82056,0.18613
2028.74903,0.18455
2030.67750,0.18485
2032.60597,0.18731
2034.53444,0.19084
2036.46290,0.19319
2038.39137,0.19371
2040.31984,0.19192
2042.24831,0.18923
2044.17678,0.18872
2046.10525,0.18994
2048.03372,0.19189
2049.96218,0.19378
2051.89065,0.19324
2053.81912,0.19131
2055.74759,0.19046
2057.67606,0.19097
2059.60453,0.19213
2061.53300,0.19168
2063.46147,0.19003
2065.38993,0.18943
2067.31840,0.18951
2069.24687,0.19003
2071.17534,0.19010
2073.10381,0.18885
2075.03228,0.18882
2076.96075,0.19189
2078.88921,0.19441
2080.81768,0.19239
2082.74615,0.18826
2084.67462,0.18567
2086.60309,0.18529
2088.53156,0.18690
2090.46003,0.18831
2092.38850,0.18811
2094.31696,0.18755
2096.24543,0.18757
2098.17390,0.18853
2100.10237,0.18917
2102.03084,0.18754
2103.95931,0.18429
2105.88778,0.18244
2107.81624,0.18383
2109.74471,0.18618
2111.67318,0.18773
2113.60165,0.18933
2115.53012,0.18891
2117.45859,0.18639
2119.38706,0.18736
2121.31553,0.19066
2123.24399,0.19046
2125.17246,0.18884
2127.10093,0.18866
2129.02940,0.18761
2130.95787,0.18544
2132.88634,0.18175
2134.81481,0.17567
2136.74327,0.17532
2138.67174,0.18430
2140.60021,0.19070
2142.52868,0.18927
2144.45715,0.18711
2146.38562,0.18806
2148.31409,0.18950
2150.24255,0.18880
2152.17102,0.18856
2154.09949,0.19056
2156.02796,0.19165
2157.95643,0.19068
2159.88490,0.18992
2161.81337,0.19127
2163.74184,0.19434
2165.67030,0.19562
2167.59877,0.19239
2169.52724,0.18849
2171.45571,0.18910
2173.38418,0.19190
2175.31265,0.19269
2177.24112,0.19222
2179.16958,0.19300
2181.09805,0.19346
2183.02652,0.19116
2184.95499,0.19023
2186.88346,0.19341
2188.81193,0.19538
2190.74040,0.19188
2192.66887,0.18627
2194.59733,0.18289
2196.52580,0.18183
2198.45427,0.18317
2200.38274,0.18637
2202.31121,0.18843
2204.23968,0.18848
2206.16815,0.18997
2208.09661,0.19369
2210.02508,0.19522
2211.95355,0.19408
2213.88202,0.19261
2215.81049,0.19039
2217.73896,0.18827
2219.66743,0.18912
2221.59590,0.19108
2223.52436,0.19076
2225.45283,0.19023
2227.38130,0.19075
2229.30977,0.19106
2231.23824,0.19086
2233.16671,0.19020
2235.09518,0.18944
2237.02364,0.18947
2238.95211,0.19033
2240.88058,0.19052
2242.80905,0.18974
2244.73752,0.18863
2246.66599,0.18873
2248.59446,0.19016
2250.52293,0.19078
2252.45139,0.18969
2254.37986,0.18679
2256.30833,0.18628
2258.23680,0.19086
2260.16527,0.19353
2262.09374,0.19041
2264.02221,0.18624
2265.95067,0.18462
2267.87914,0.18649
2269.80761,0.19007
2271.73608,0.19230
2273.66455,0.19283
2275.59302,0.19212
2277.52149,0.19188
2279.44996,0.19243
2281.37842,0.19206
2283.30689,0.19268
2285.23536,0.19465
2287.16383,0.19518
2289.09230,0.19446
2291.02077,0.19227
2292.94924,0.18784
2294.87770,0.18657
2296.80617,0.19190
2298.73464,0.19665
2300.66311,0.19630
2302.59158,0.19501
2304.52005,0.19514
2306.44852,0.19701
2308.37699,0.20039
2310.30545,0.20233
2312.23392,0.20075
2314.16239,0.19839
2316.09086,0.20266
2318.01933,0.21380
2319.94780,0.21992
2321.87627,0.21274
2323.80473,0.19806
2325.73320,0.19075
2327.66167,0.19644
2329.59014,0.20825
2331.51861,0.22052
2333.44708,0.23233
2335.37555,0.24437
2337.30401,0.25066
2339.23248,0.24400
2341.16095,0.22889
2343.08942,0.21687
2345.01789,0.21023
2346.94636,0.20288
2348.87483,0.19912
2350.80330,0.20219
2352.73176,0.20949
2354.66023,0.22513
2356.58870,0.24763
2358.51717,0.25717
2360.44564,0.26048
2362.37411,0.25970
2364.30258,0.24599
2366.23104,0.22921
2368.15951,0.21213
2370.08798,0.20256
2372.01645,0.20297
2373.94492,0.20137
2375.87339,0.19547
2377.80186,0.19255
2379.73033,0.19404
2381.65879,0.19525
2383.58726,0.19312
2385.51573,0.18919
2387.44420,0.18675
2389.37267,0.18646
2391.30114,0.18825
2393.22961,0.19130
2395.15807,0.19183
2397.08654,0.18904
2399.01501,0.18641
2400.94348,0.18723
2402.87195,0.19113
2404.80042,0.19357
2406.72889,0.19381
2408.65736,0.19520
2410.58582,0.19678
2412.51429,0.19666
2414.44276,0.19683
2416.37123,0.19663
2418.29970,0.19307
2420.22817,0.18903
2422.15664,0.18859
2424.08510,0.19011
2426.01357,0.19137
2427.94204,0.19218
2429.87051,0.19150
2431.79898,0.19001
2433.72745,0.18935
2435.65592,0.18895
2437.58439,0.18921
2439.51285,0.19017
2441.44132,0.19077
2443.36979,0.19111
2445.29826,0.19188
2447.22673,0.19327
2449.15520,0.19449
2451.08367,0.19583
2453.01213,0.19670
2454.94060,0.19411
2456.86907,0.18850
2458.79754,0.18615
2460.72601,0.18830
2462.65448,0.19027
2464.58295,0.19244
2466.51142,0.19503
2468.43988,0.19512
2470.36835,0.19248
2472.29682,0.19002
2474.22529,0.18954
2476.15376,0.19073
2478.08223,0.19383
2480.01070,0.19620
2481.93916,0.19549
2483.86763,0.19296
2485.79610,0.18957
2487.72457,0.18689
2489.65304,0.18677
2491.58151,0.18813
2493.50998,0.18983
2495.43844,0.19221
2497.36691,0.19318
2499.29538,0.19243
2501.22385,0.19299
2503.15232,0.19441
2505.08079,0.19354
2507.00926,0.19033
2508.93773,0.18846
2510.86619,0.18897
2512.79466,0.18853
2514.72313,0.18677
2516.65160,0.18762
2518.58007,0.18988
2520.50854,0.18880
2522.43701,0.18580
2524.36547,0.18522
2526.29394,0.18683
2528.22241,0.18839
2530.15088,0.19018
2532.07935,0.19153
2534.00782,0.19261
2535.93629,0.19436
2537.86476,0.19457
2539.79322,0.19384
2541.72169,0.19420
2543.65016,0.19356
2545.57863,0.19114
2547.50710,0.18982
2549.43557,0.19005
2551.36404,0.19041
2553.29250,0.19119
2555.22097,0.19325
2557.14944,0.19518
2559.07791,0.19473
2561.00638,0.19332
2562.93485,0.19166
2564.86332,0.18862
2566.79179,0.18605
2568.72025,0.18634
2570.64872,0.18813
2572.57719,0.18949
2574.50566,0.19124
2576.43413,0.19307
2578.36260,0.19363
2580.29107,0.19323
2582.21953,0.19260
2584.14800,0.19247
2586.07647,0.19335
2588.00494,0.19398
2589.93341,0.19307
2591.86188,0.19185
2593.79035,0.19139
2595.71882,0.19162
2597.64728,0.19191
2599.57575,0.19080
2601.50422,0.18869
2603.43269,0.18935
2605.36116,0.19205
2607.28963,0.19329
2609.21810,0.19704
2611.14656,0.20221
2613.07503,0.20169
2615.00350,0.19879
2616.93197,0.19764
2618.86044,0.19554
2620.78891,0.19331
2622.71738,0.19298
2624.64585,0.19360
2626.57431,0.19589
2628.50278,0.19778
2630.43125,0.19609
2632.35972,0.19381
2634.28819,0.19336
2636.21666,0.19406
2638.14513,0.19598
2640.07359,0.19694
2642.00206,0.19451
2643.93053,0.19247
2645.85900,0.19380
2647.78747,0.19487
2649.71594,0.19468
2651.64441,0.19613
2653.57288,0.19727
2655.50134,0.19489
2657.42981,0.19122
2659.35828,0.18958
2661.28675,0.18988
2663.21522,0.18945
2665.14369,0.18903
2667.07216,0.19176
2669.00062,0.19587
2670.92909,0.20028
2672.85756,0.20435
2674.78603,0.20375
2676.71450,0.19994
2678.64297,0.19644
2680.57144,0.19365
2682.49990,0.19441
2684.42837,0.19852
2686.35684,0.20116
2688.28531,0.20067
2690.21378,0.19960
2692.14225,0.19956
2694.07072,0.19887
2695.99919,0.19685
2697.92765,0.19678
2699.85612,0.20052
2701.78459,0.20395
2703.71306,0.20322
2705.64153,0.20131
2707.57000,0.20168
2709.49847,0.20027
2711.42693,0.19576
2713.35540,0.19459
2715.28387,0.19879
2717.21234,0.20388
2719.14081,0.20531
2721.06928,0.20361
2722.99775,0.20199
2724.92622,0.20058
2726.85468,0.19826
2728.78315,0.19586
2730.71162,0.19645
2732.64009,0.19883
2734.56856,0.19800
2736.49703,0.19625
2738.42550,0.19819
2740.35396,0.19898
2742.28243,0.19476
2744.21090,0.19198
2746.13937,0.19446
2748.06784,0.19816
2749.99631,0.20091
2751.92478,0.20298
2753.85325,0.20349
2755.78171,0.20416
2757.71018,0.20581
2759.63865,0.20591
2761.56712,0.20389
2763.49559,0.20134
2765.42406,0.19898
2767.35253,0.19469
2769.28099,0.19134
2771.20946,0.19506
2773.13793,0.20019
2775.06640,0.20177
2776.99487,0.20445
2778.92334,0.20618
2780.85181,0.20501
2782.78028,0.20648
2784.70874,0.20886
2786.63721,0.20725
2788.56568,0.20457
2790.49415,0.20486
2792.42262,0.20658
2794.35109,0.20677
2796.27956,0.20537
2798.20802,0.20360
2800.13649,0.20195
2802.06496,0.20079
2803.99343,0.20233
2805.92190,0.20612
2807.85037,0.20815
2809.77884,0.20888
2811.70731,0.21128
2813.63577,0.21365
2815.56424,0.21192
2817.49271,0.20661
2819.42118,0.20292
2821.34965,0.20279
2823.27812,0.20380
2825.20659,0.20576
2827.13505,0.20858
2829.06352,0.21055
2830.99199,0.21162
2832.92046,0.21150
2834.84893,0.20964
2836.77740,0.20779
2838.70587,0.20947
2840.63433,0.21381
2842.56280,0.21505
2844.49127,0.21117
2846.41974,0.20704
2848.34821,0.20775
2850.27668,0.21178
2852.20515,0.21280
2854.13362,0.20877
2856.06208,0.20478
2857.99055,0.20423
2859.91902,0.20614
2861.84749,0.20671
2863.77596,0.20441
2865.70443,0.20491
2867.63290,0.20939
2869.56136,0.21335
2871.48983,0.21416
2873.41830,0.21109
2875.34677,0.20684
2877.27524,0.20631
2879.20371,0.21018
2881.13218,0.21224
2883.06065,0.21012
2884.98911,0.20686
2886.91758,0.20263
2888.84605,0.19879
2890.77452,0.19952
2892.70299,0.20423
2894.63146,0.20736
2896.55993,0.20730
2898.48839,0.20627
2900.41686,0.20512
2902.34533,0.20491
2904.27380,0.20515
2906.20227,0.20292
2908.13074,0.19930
2910.05921,0.19847
2911.98768,0.20006
2913.91614,0.20110
2915.84461,0.20210
2917.77308,0.20486
2919.70155,0.20642
2921.63002,0.20494
2923.55849,0.20168
2925.48696,0.19522
2927.41542,0.19202
2929.34389,0.19906
2931.27236,0.20681
2933.20083,0.20711
2935.12930,0.20276
2937.05777,0.19731
2938.98624,0.19440
2940.91471,0.19619
2942.84317,0.20056
2944.77164,0.20137
2946.70011,0.19752
2948.62858,0.19708
2950.55705,0.19984
2952.48552,0.19961
2954.41399,0.19963
2956.34245,0.20061
2958.27092,0.19829
2960.19939,0.19651
2962.12786,0.19866
2964.05633,0.20020
2965.98480,0.19817
2967.91327,0.19816
2969.84174,0.20544
2971.77020,0.21298
2973.69867,0.21474
2975.62714,0.21311
2977.55561,0.20897
2979.48408,0.20594
2981.41255,0.20676
2983.34102,0.20851
2985.26948,0.20996
2987.19795,0.20873
2989.12642,0.20663
2991.05489,0.20991
2992.98336,0.21396
2994.91183,0.21235
2996.84030,0.20965
2998.76877,0.21061
3000.69723,0.21315
3002.62570,0.21541
3004.55417,0.21609
3006.48264,0.21195
3008.41111,0.20542
3010.33958,0.20123
3012.26805,0.19611
3014.19651,0.18393
3016.12498,0.17156
3018.05345,0.17590
3019.98192,0.19472
3021.91039,0.20905
3023.83886,0.21311
3025.76733,0.21219
3027.69579,0.21066
3029.62426,0.21220
3031.55273,0.21688
3033.48120,0.22077
3035.40967,0.21969
3037.33814,0.21332
3039.26661,0.20774
3041.19508,0.20576
3043.12354,0.20659
3045.05201,0.21053
3046.98048,0.21411
3048.90895,0.21460
3050.83742,0.21269
3052.76589,0.21126
3054.69436,0.21159
3056.62282,0.21043
3058.55129,0.20875
3060.47976,0.21039
3062.40823,0.21362
3064.33670,0.21475
3066.26517,0.21477
3068.19364,0.21691
3070.12211,0.21926
3072.05057,0.21880
3073.97904,0.21642
3075.90751,0.21209
3077.83598,0.20752
3079.76445,0.20760
3081.69292,0.21044
3083.62139,0.20928
3085.54985,0.20533
3087.47832,0.20576
3089.40679,0.21169
3091.33526,0.21656
3093.26373,0.21276
3095.19220,0.20503
3097.12067,0.20575
3099.04914,0.21237
3100.97760,0.21561
3102.90607,0.21465
3104.83454,0.21439
3106.76301,0.21700
3108.69148,0.21702
3110.61995,0.21090
3112.54842,0.20365
3114.47688,0.20281
3116.40535,0.20691
3118.33382,0.20912
3120.26229,0.20993
3122.19076,0.21222
3124.11923,0.21661
3126.04770,0.21987
3127.97617,0.21853
3129.90463,0.21572
3131.83310,0.21317
3133.76157,0.21036
3135.69004,0.21024
3137.61851,0.21166
3139.54698,0.21033
3141.47545,0.20715
3143.40391,0.20637
3145.33238,0.20985
3147.26085,0.21497
3149.18932,0.21807
3151.11779,0.21795
3153.04626,0.21609
3154.97473,0.21510
3156.90320,0.21807
3158.83166,0.22621
3160.76013,0.23290
3162.68860,0.23186
3164.61707,0.22644
3166.54554,0.22083
3168.47401,0.21686
3170.40248,0.21632
3172.33094,0.21869
3174.25941,0.21998
3176.18788,0.21599
3178.11635,0.21060
3180.04482,0.21093
3181.97329,0.21725
3183.90176,0.22423
3185.83022,0.22539
3187.75869,0.22166
3189.68716,0.21926
3191.61563,0.21722
3193.54410,0.21313
3195.47257,0.21204
3197.40104,0.21572
3199.32951,0.21901
3201.25797,0.22275
3203.18644,0.22884
3205.11491,0.23123
3207.04338,0.22870
3208.97185,0.22658
3210.90032,0.22337
3212.82879,0.21857
3214.75725,0.21677
3216.68572,0.21715
3218.61419,0.21844
3220.54266,0.22160
3222.47113,0.22356
3224.39960,0.22068
3226.32807,0.21475
3228.25654,0.21107
3230.18500,0.21104
3232.11347,0.21261
3234.04194,0.21398
3235.97041,0.21296
3237.89888,0.21068
3239.82735,0.21154
3241.75582,0.21447
3243.68428,0.21617
3245.61275,0.21609
3247.54122,0.21264
3249.46969,0.20888
3251.39816,0.21111
3253.32663,0.21697
3255.25510,0.21752
3257.18357,0.21057
3259.11203,0.20489
3261.04050,0.20550
3262.96897,0.20784
3264.89744,0.21089
3266.82591,0.21690
3268.75438,0.22053
3270.68285,0.21738
3272.61131,0.21388
3274.53978,0.21259
3276.46825,0.20998
3278.39672,0.20915
3280.32519,0.21176
3282.25366,0.21237
3284.18213,0.21220
3286.11060,0.21548
3288.03906,0.21789
3289.96753,0.21978
3291.89600,0.22135
3293.82447,0.21590
3295.75294,0.20906
3297.68141,0.20768
3299.60988,0.20689
3301.53834,0.20649
3303.46681,0.21139
3305.39528,0.21852
3307.32375,0.22207
3309.25222,0.22184
3311.18069,0.22035
3313.10916,0.21923
3315.03763,0.21548
3316.96609,0.20866
3318.89456,0.20773
3320.82303,0.21490
3322.75150,0.21848
3324.67997,0.21303
3326.60844,0.20557
3328.53691,0.20302
3330.46537,0.20527
3332.39384,0.20707
3334.32231,0.20826
3336.25078,0.21056
3338.17925,0.21178
3340.10772,0.21330
3342.03619,0.21585
3343.96466,0.21613
3345.89312,0.21420
3347.82159,0.21393
3349.75006,0.21791
3351.67853,0.22206
3353.60700,0.22060
3355.53547,0.21707
3357.46394,0.21631
3359.39240,0.21403
3361.32087,0.20815
3363.24934,0.20709
3365.17781,0.21428
3367.10628,0.21778
3369.03475,0.21203
3370.96322,0.20856
3372.89168,0.21331
3374.82015,0.21837
3376.74862,0.21814
3378.67709,0.21500
3380.60556,0.21435
3382.53403,0.21807
3384.46250,0.21817
3386.39097,0.21000
3388.31943,0.20492
3390.24790,0.21010
3392.17637,0.21610
3394.10484,0.21481
3396.03331,0.20947
3397.96178,0.20746
3399.89025,0.21099
3401.81871,0.21393
3403.74718,0.21325
3405.67565,0.21269
3407.60412,0.21302
3409.53259,0.21319
3411.46106,0.21420
3413.38953,0.21541
3415.31800,0.21604
3417.24646,0.21725
3419.17493,0.22060
3421.10340,0.22320
3423.03187,0.21853
3424.96034,0.21365
3426.88881,0.21536
3428.81728,0.21456
3430.74574,0.21066
3432.67421,0.20917
3434.60268,0.20758
3436.53115,0.20530
3438.45962,0.20093
3440.38809,0.19530
3442.31656,0.19375
3444.24503,0.19361
3446.17349,0.19316
3448.10196,0.19693
3450.03043,0.20349
3451.95890,0.20955
3453.88737,0.21327
3455.81584,0.21239
3457.74431,0.20753
3459.67277,0.20439
3461.60124,0.20527
3463.52971,0.20291
3465.45818,0.19812
3467.38665,0.19980
3469.31512,0.20452
3471.24359,0.20501
3473.17206,0.20306
3475.10052,0.19993
3477.02899,0.19423
3478.95746,0.19079
3480.88593,0.19379
3482.81440,0.19305
3484.74287,0.18293
3486.67134,0.17707
3488.59980,0.18186
3490.52827,0.18817
3492.45674,0.18825
3494.38521,0.18245
3496.31368,0.17599
3498.24215,0.17308
3500.17062,0.17718
3502.09909,0.18770
3504.02755,0.19169
3505.95602,0.18375
3507.88449,0.17917
3509.81296,0.18540
3511.74143,0.19098
3513.66990,0.18791
3515.59837,0.18318
3517.52683,0.18150
3519.45530,0.17890
3521.38377,0.17703
3523.31224,0.17852
3525.24071,0.17979
3527.16918,0.18078
3529.09765,0.18283
3531.02611,0.18134
3532.95458,0.17671
3534.88305,0.17406
3536.81152,0.17152
3538.73999,0.16854
3540.66846,0.16704
3542.59693,0.16690
3544.52540,0.16977
3546.45386,0.17373
3548.38233,0.17637
3550.31080,0.17925
3552.23927,0.18140
3554.16774,0.17870
3556.09621,0.17188
3558.02468,0.16470
3559.95314,0.16068
3561.88161,0.16476
3563.81008,0.17582
3565.73855,0.18434
3567.66702,0.17704
3569.59549,0.16059
3571.52396,0.15181
3573.45243,0.15035
3575.38089,0.15172
3577.30936,0.15557
3579.23783,0.16000
3581.16630,0.16173
3583.09477,0.16495
3585.02324,0.17478
3586.95171,0.18331
3588.88017,0.17506
3590.80864,0.16338
3592.73711,0.16095
3594.66558,0.16319
3596.59405,0.16636
3598.52252,0.16763
3600.45099,0.16513
3602.37946,0.16181
3604.30792,0.15846
3606.23639,0.15589
3608.16486,0.15627
3610.09333,0.15741
3612.02180,0.15788
3613.95027,0.15827
3615.87874,0.15969
3617.80720,0.16340
3619.73567,0.16304
3621.66414,0.15542
3623.59261,0.15313
3625.52108,0.16287
3627.44955,0.17498
3629.37802,0.17028
3631.30649,0.15752
3633.23495,0.14890
3635.16342,0.14351
3637.09189,0.14380
3639.02036,0.14590
3640.94883,0.14715
3642.87730,0.14981
3644.80577,0.15781
3646.73423,0.17520
3648.66270,0.19042
3650.59117,0.17583
3652.51964,0.15366
3654.44811,0.14044
3656.37658,0.13728
3658.30505,0.14239
3660.23352,0.14202
3662.16198,0.13496
3664.09045,0.13053
3666.01892,0.13278
3667.94739,0.14232
3669.87586,0.15186
3671.80433,0.15110
3673.73280,0.15524
3675.66126,0.16256
3677.58973,0.15577
3679.51820,0.14848
3681.44667,0.14386
3683.37514,0.13812
3685.30361,0.13577
3687.23208,0.14431
3689.16055,0.16013
3691.08901,0.16026
3693.01748,0.14938
3694.94595,0.14255
3696.87442,0.13952
3698.80289,0.14070
3700.73136,0.14617
3702.65983,0.14427
3704.58829,0.13377
3706.51676,0.13035
3708.44523,0.13800
3710.37370,0.14653
3712.30217,0.14272
3714.23064,0.13874
3716.15911,0.14349
3718.08757,0.14612
3720.01604,0.14277
3721.94451,0.14318
3723.87298,0.14680
3725.80145,0.14633
3727.72992,0.14396
3729.65839,0.14450
3731.58686,0.14731
3733.51532,0.14992
3735.44379,0.15041
3737.37226,0.14386
3739.30073,0.14181
3741.22920,0.15053
3743.15767,0.15833
3745.08614,0.15489
3747.01460,0.15498
3748.94307,0.16342
3750.87154,0.16464
3752.80001,0.15035
3754.72848,0.13826
3756.65695,0.13567
3758.58542,0.13778
3760.51389,0.13473
3762.44235,0.13006
3764.37082,0.12938
3766.29929,0.13017
3768.22776,0.13227
3770.15623,0.13205
3772.08470,0.12548
3774.01317,0.12183
3775.94163,0.12426
3777.87010,0.12882
3779.79857,0.13063
3781.72704,0.12683
3783.65551,0.12373
3785.58398,0.12512
3787.51245,0.12877
3789.44092,0.13315
3791.36938,0.13489
3793.29785,0.13432
3795.22632,0.13843
3797.15479,0.14431
3799.08326,0.14262
3801.01173,0.13539
3802.94020,0.12901
3804.86866,0.12651
3806.79713,0.12603
3808.72560,0.12555
3810.65407,0.12425
3812.58254,0.12605
3814.51101,0.13486
3816.43948,0.14312
3818.36795,0.14454
3820.29641,0.14738
3822.22488,0.14514
3824.15335,0.13898
3826.08182,0.13585
3828.01029,0.13402
3829.93876,0.13648
3831.86723,0.13996
3833.79569,0.13828
3835.72416,0.13810
3837.65263,0.14502
3839.58110,0.15169
3841.50957,0.14885
3843.43804,0.13822
3845.36651,0.12881
3847.29498,0.12641
3849.22344,0.12975
3851.15191,0.13921
3853.08038,0.15147
3855.00885,0.14661
3856.93732,0.13579
3858.86579,0.12913
3860.79426,0.12493
3862.72272,0.12376
3864.65119,0.12483
3866.57966,0.12370
3868.50813,0.12212
3870.43660,0.12394
3872.36507,0.12549
3874.29354,0.12426
3876.22200,0.12300
3878.15047,0.12476
3880.07894,0.12514
3882.00741,0.11797
3883.93588,0.11290
3885.86435,0.11539
3887.79282,0.11864
3889.72129,0.12110
3891.64975,0.12516
3893.57822,0.12594
3895.50669,0.12477
3897.43516,0.12852
3899.36363,0.13645
3901.29210,0.14140
3903.22057,0.13979
3905.14903,0.13319
3907.07750,0.12600
3909.00597,0.12041
3910.93444,0.11637
3912.86291,0.11449
3914.79138,0.11342
3916.71985,0.11137
3918.64832,0.11120
3920.57678,0.11373
3922.50525,0.11772
3924.43372,0.12329
3926.36219,0.12413
3928.29066,0.11844
3930.21913,0.11535
3932.14760,0.11713
3934.07606,0.11773
3936.00453,0.11809
3937.93300,0.11855
3939.86147,0.11802
3941.78994,0.11813
3943.71841,0.11458
3945.64688,0.10838
3947.57535,0.10683
3949.50381,0.10832
3951.43228,0.10887
3953.36075,0.10567
3955.28922,0.09935
3957.21769,0.09564
3959.14616,0.09588
3961.07463,0.09886
3963.00309,0.10327
3964.93156,0.10550
3966.86003,0.10459
3968.78850,0.10274
3970.71697,0.10289
3972.64544,0.10428
3974.57391,0.10301
3976.50238,0.10092
3978.43084,0.10192
3980.35931,0.10418
3982.28778,0.10330
3984.21625,0.09828
3986.14472,0.09430
3988.07319,0.09457
3990.00166,0.09864
3991.93012,0.10362
3993.85859,0.10489
3995.78706,0.10572
3997.71553,0.10907
3999.64400,0.11356
4001.57247,0.11787
4003.50094,0.11681
4005.42941,0.11046
4007.35787,0.10410
4009.28634,0.10250
4011.21481,0.10730
4013.14328,0.11042
4015.07175,0.10619
4017.00022,0.09707
4018.92869,0.08877
4020.85715,0.09062
4022.78562,0.10269
4024.71409,0.11328
4026.64256,0.11315
4028.57103,0.10557
4030.49950,0.09963
4032.42797,0.09640
4034.35644,0.09535
4036.28490,0.09624
4038.21337,0.09753
4040.14184,0.10027
4042.07031,0.10032
4043.99878,0.09730
4045.92725,0.09854
4047.85572,0.10116
4049.78418,0.09930
4051.71265,0.09637
4053.64112,0.09523
4055.56959,0.09517
4057.49806,0.09662
4059.42653,0.09946
4061.35500,0.10077
4063.28346,0.09877
4065.21193,0.09606
4067.14040,0.09573
4069.06887,0.09546
4070.99734,0.09249
4072.92581,0.09241
4074.85428,0.09684
4076.78275,0.10004
4078.71121,0.10172
4080.63968,0.09975
4082.56815,0.09447
4084.49662,0.09400
4086.42509,0.09867
4088.35356,0.09977
4090.28203,0.09423
4092.21049,0.09010
4094.13896,0.09252
4096.06743,0.09684
4097.99590,0.09804
4099.92437,0.09773
4101.85284,0.09842
4103.78131,0.09641
4105.70978,0.09205
4107.63824,0.09303
4109.56671,0.09820
4111.49518,0.09731
4113.42365,0.08786
4115.35212,0.07916
4117.28059,0.07872
4119.20906,0.08157
4121.13752,0.08280
4123.06599,0.08637
4124.99446,0.09106
4126.92293,0.09128
4128.85140,0.08695
4130.77987,0.08345
4132.70834,0.08319
4134.63681,0.08073
4136.56527,0.07535
4138.49374,0.07082
4140.42221,0.06744
4142.35068,0.06870
4144.27915,0.07627
4146.20762,0.08322
4148.13609,0.08627
4150.06455,0.08866
4151.99302,0.09150
4153.92149,0.09322
4155.84996,0.09186
4157.77843,0.09098
4159.70690,0.09216
4161.63537,0.08836
4163.56384,0.08153
4165.49230,0.08191
4167.42077,0.08735
4169.34924,0.08628
4171.27771,0.07754
4173.20618,0.07242
4175.13465,0.07712
4177.06312,0.08303
4178.99158,0.08045
4180.92005,0.07301
4182.84852,0.06987
4184.77699,0.07316
4186.70546,0.07736
4188.63393,0.08052
4190.56240,0.08248
4192.49087,0.07941
4194.41933,0.07437
4196.34780,0.07155
4198.27627,0.07276
4200.20474,0.07909
4202.13321,0.08212
4204.06168,0.07806
4205.99015,0.07238
4207.91861,0.06973
4209.84708,0.07263
4211.77555,0.07478
4213.70402,0.07314
4215.63249,0.07382
4217.56096,0.07513
4219.48943,0.07355
4221.41789,0.07073
4223.34636,0.06750
4225.27483,0.06680
4227.20330,0.06845
4229.13177,0.06820
4231.06024,0.07175
4232.98871,0.08168
4234.91718,0.08702
4236.84564,0.08214
4238.77411,0.07344
4240.70258,0.06840
4242.63105,0.06612
4244.55952,0.06427
4246.48799,0.06425
4248.41646,0.06388
4250.34492,0.06230
4252.27339,0.06218
4254.20186,0.06059
4256.13033,0.05660
4258.05880,0.05479
4259.98727,0.05594
4261.91574,0.06134
4263.84421,0.06962
4265.77267,0.07427
4267.70114,0.07379
4269.62961,0.07385
4271.55808,0.07819
4273.48655,0.08180
4275.41502,0.08073
4277.34349,0.07555
4279.27195,0.06853
4281.20042,0.06451
4283.12889,0.06437
4285.05736,0.06141
4286.98583,0.05274
4288.91430,0.04688
4290.84277,0.04776
4292.77124,0.05221
4294.69970,0.05926
4296.62817,0.06279
4298.55664,0.05573
4300.48511,0.04789
4302.41358,0.04956
4304.34205,0.04992
4306.27052,0.04476
4308.19898,0.04630
4310.12745,0.05620
4312.05592,0.06515
4313.98439,0.06958
4315.91286,0.07228
4317.84133,0.06909
4319.76980,0.06032
4321.69827,0.05683
4323.62673,0.05361
4325.55520,0.04642
4327.48367,0.04717
4329.41214,0.05427
4331.34061,0.06034
4333.26908,0.06481
4335.19755,0.06283
4337.12601,0.05662
4339.05448,0.05459
4340.98295,0.05596
4342.91142,0.05731
4344.83989,0.05598
4346.76836,0.04930
4348.69683,0.04116
4350.62530,0.03831
4352.55376,0.04431
4354.48223,0.05176
4356.41070,0.05022
4358.33917,0.04588
4360.26764,0.04467
4362.19611,0.04420
4364.12458,0.04773
4366.05304,0.05083
4367.98151,0.04313
4369.90998,0.03598
4371.83845,0.04305
4373.76692,0.05209
4375.69539,0.05043
4377.62386,0.04201
4379.55232,0.03654
4381.48079,0.03981
4383.40926,0.04836
4385.33773,0.05159
4387.26620,0.04499
4389.19467,0.03755
4391.12314,0.03611
4393.05161,0.03596
4394.98007,0.03320
4396.90854,0.03048
4398.83701,0.03108
4400.76548,0.03753
4402.69395,0.04537
4404.62242,0.04596
4406.55089,0.04188
4408.47935,0.04004
4410.40782,0.04369
4412.33629,0.04701
4414.26476,0.03971
4416.19323,0.03236
4418.12170,0.03720
4420.05017,0.04122
4421.97864,0.03481
4423.90710,0.02425
4425.83557,0.01931
4427.76404,0.02791
4429.69251,0.04126
4431.62098,0.04411
4433.54945,0.03649
4435.47792,0.02852
4437.40638,0.02908
4439.33485,0.03714
4441.26332,0.04400
4443.19179,0.04313
4445.12026,0.03903
4447.04873,0.03757
4448.97720,0.03481
4450.90567,0.03219
4452.83413,0.03199
4454.76260,0.03305
4456.69107,0.03769
4458.61954,0.03838
4460.54801,0.02986
4462.47648,0.02299
4464.40495,0.02246
4466.33341,0.02524
4468.26188,0.03003
4470.19035,0.03283
4472.11882,0.03152
4474.04729,0.02847
4475.97576,0.02718
4477.90423,0.03098
4479.83270,0.03816
4481.76116,0.04301
4483.68963,0.04221
4485.61810,0.03179
4487.54657,0.01399
4489.47504,0.00883
4491.40351,0.02338
4493.33198,0.03343
4495.26044,0.02583
4497.18891,0.01459
4499.11738,0.01149
4501.04585,0.01506
4502.97432,0.02144
4504.90279,0.02721
4506.83126,0.02531
4508.75973,0.01561
4510.68819,0.01033
4512.61666,0.01392
4514.54513,0.01731
4516.47360,0.01803
4518.40207,0.01806
4520.33054,0.00991
4522.25901,-0.00053
4524.18747,0.00560
4526.11594,0.01892
4528.04441,0.02091
4529.97288,0.01409
4531.90135,0.00523
4533.82982,0.00508
4535.75829,0.01636
4537.68676,0.01900
4539.61522,0.00874
4541.54369,0.00307
4543.47216,0.00161
4545.40063,-0.00009
4547.32910,0.00468
4549.25757,0.01199
4551.18604,0.01428
4553.11450,0.01302
4555.04297,0.01152
4556.97144,0.00843
4558.89991,0.00450
4560.82838,0.00683
4562.75685,0.01024
4564.68532,0.00778
4566.61378,0.00993
4568.54225,0.01804
4570.47072,0.02123
4572.39919,0.01592
4574.32766,0.00862
4576.25613,0.01111
4578.18460,0.01932
4580.11307,0.01847
4582.04153,0.00923
4583.97000,0.00478
4585.89847,0.01173
4587.82694,0.01775
4589.75541,0.01148
4591.68388,0.00496
4593.61235,0.00859
4595.54081,0.01063
4597.46928,0.00557
4599.39775,0.00517
4601.32622,0.01294
4603.25469,0.02108
4605.18316,0.01941
4607.11163,0.00783
4609.04010,0.00216
4610.96856,0.00806
4612.89703,0.01664
4614.82550,0.02712
4616.75397,0.03502
4618.68244,0.02955
4620.61091,0.01962
4622.53938,0.01422
4624.46784,0.00972
4626.39631,0.00791
4628.32478,0.00563
4630.25325,0.00224
4632.18172,0.00966
4634.11019,0.01912
4636.03866,0.01303
4637.96713,0.00703
4639.89559,0.01381
4641.82406,0.02212
4643.75253,0.02813
4645.68100,0.02873
4647.60947,0.02520
4649.53794,0.02688
4651.46641,0.02622
4653.39487,0.01992
4655.32334,0.01770
4657.25181,0.01535
4659.18028,0.00577
4661.10875,0.00042
4663.03722,0.00806
4664.96569,0.01393
4666.89416,0.01074
4668.82262,0.00722
4670.75109,0.00221
4672.67956,-0.00394
4674.60803,-0.00838
4676.53650,-0.00984
4678.46497,-0.00091
4680.39344,0.01462
4682.32190,0.02841
4684.25037,0.03551
4686.17884,0.03248
4688.10731,0.02574
4690.03578,0.01320
4691.96425,-0.00076
4693.89272,0.00399
4695.82119,0.01964
4697.74965,0.02689
4699.67812,0.02131
4701.60659,0.00657
4703.53506,-0.00141
4705.46353,0.00206
4707.39200,0.00890
4709.32047,0.01748
4711.24893,0.01973
4713.17740,0.01309
4715.10587,0.00987
4717.03434,0.01223
4718.96281,0.01302
4720.89128,0.01119
4722.81975,0.00976
4724.74821,0.00780
4726.67668,0.00286
4728.60515,-0.00115
4730.53362,-0.00167
4732.46209,0.00179
4734.39056,0.00954
4736.31903,0.01363
4738.24750,0.01202
4740.17596,0.01223
4742.10443,0.01213
4744.03290,0.00887
4745.96137,0.00678
4747.88984,0.00812
4749.81831,0.01617
4751.74678,0.02801
4753.67524,0.02849
4755.60371,0.01444
4757.53218,0.00500
4759.46065,0.01356
4761.38912,0.03049
4763.31759,0.03456
4765.24606,0.02028
4767.17453,0.01140
4769.10299,0.01941
4771.03146,0.02855
4772.95993,0.03232
4774.88840,0.02534
4776.81687,0.00690
4778.74534,-0.00367
4780.67381,-0.00538
4782.60227,-0.01123
4784.53074,-0.01462
4786.45921,-0.00808
4788.38768,0.00787
4790.31615,0.02246
4792.24462,0.02213
4794.17309,0.01791
4796.10156,0.01553
4798.03002,0.00396
4799.95849,-0.00182
4801.88696,0.01077
4803.81543,0.02492
4805.74390,0.03233
4807.67237,0.03671
4809.60084,0.03285
4811.52930,0.02231
4813.45777,0.01830
4815.38624,0.02373
4817.31471,0.02615
4819.24318,0.02093
4821.17165,0.01502
4823.10012,0.01189
4825.02859,0.01586
4826.95705,0.02579
4828.88552,0.03217
4830.81399,0.03534
4832.74246,0.03517
4834.67093,0.02596
4836.59940,0.01091
4838.52787,-0.00360
4840.45633,-0.00991
4842.38480,-0.00463
4844.31327,0.00234
4846.24174,0.00398
4848.17021,0.00287
4850.09868,0.00349
4852.02715,0.00334
4853.95562,-0.00262
4855.88408,-0.00237
4857.81255,0.00521
4859.74102,0.00177
4861.66949,-0.00228
4863.59796,0.00733
4865.52643,0.00994
4867.45490,0.00220
4869.38336,0.00230
4871.31183,0.00657
4873.24030,0.01223
4875.16877,0.01979
4877.09724,0.01813
4879.02571,0.01129
4880.95418,0.00717
4882.88265,0.00499
4884.81111,0.00500
4886.73958,0.00440
4888.66805,0.00148
4890.59652,-0.00037
4892.52499,0.00396
4894.45346,0.01303
4896.38193,0.01524
4898.31039,0.00558
4900.23886,-0.00868
4902.16733,-0.01841
4904.09580,-0.02020
4906.02427,-0.01630
4907.95274,-0.00496
4909.88121,0.00795
4911.80967,0.00895
4913.73814,0.00239
4915.66661,-0.00062
4917.59508,0.00080
4919.52355,0.00380
4921.45202,0.00749
4923.38049,0.01516
4925.30896,0.02022
4927.23742,0.00420
4929.16589,-0.01317
4931.09436,0.00042
4933.02283,0.02129
4934.95130,0.02673
4936.87977,0.03101
4938.80824,0.03076
4940.73670,0.02374
4942.66517,0.02638
4944.59364,0.02391
4946.52211,-0.00331
4948.45058,-0.02740
4950.37905,-0.02171
4952.30752,-0.00466
4954.23599,-0.00034
4956.16445,-0.00130
4958.09292,0.00695
4960.02139,0.02004
4961.94986,0.02694
4963.87833,0.02575
4965.80680,0.02360
4967.73527,0.02203
4969.66373,0.01392
4971.59220,0.00442
4973.52067,0.00275
4975.44914,0.00879
4977.37761,0.02046
4979.30608,0.02481
4981.23455,0.01820
4983.16302,0.01921
4985.09148,0.02562
4987.01995,0.02214
4988.94842,0.01316
4990.87689,0.00357
4992.80536,-0.00941
4994.73383,-0.01513
4996.66230,-0.00746
4998.59076,-0.00204
5000.51923,-0.00422
5002.44770,-0.00818
5004.37617,-0.00656
5006.30464,0.00801
5008.23311,0.02597
5010.16158,0.03703
5012.09005,0.04203
5014.01851,0.04015
5015.94698,0.03095
5017.87545,0.02018
5019.80392,0.01537
5021.73239,0.01542
5023.66086,0.01874
5025.58933,0.02464
5027.51779,0.02543
5029.44626,0.02429
5031.37473,0.02674
5033.30320,0.02361
5035.23167,0.01203
5037.16014,0.00389
5039.08861,0.00400
5041.01708,0.00333
5042.94554,-0.00300
5044.87401,-0.00552
5046.80248,0.00285
5048.73095,0.01400
5050.65942,0.02030
5052.58789,0.02207
5054.51636,0.01866
5056.44482,0.01172
5058.37329,0.00824
5060.30176,0.01102
5062.23023,0.01573
5064.15870,0.01310
5066.08717,0.00442
5068.01564,0.00735
5069.94410,0.02187
5071.87257,0.02974
5073.80104,0.01845
5075.72951,-0.00136
5077.65798,-0.00066
5079.58645,0.01837
5081.51492,0.03404
5083.44339,0.03827
5085.37185,0.03035
5087.30032,0.02064
5089.22879,0.02277
5091.15726,0.03831
5093.08573,0.04925
5095.01420,0.04349
5096.94267,0.02915
5098.87113,0.01105
5100.79960,-0.00570
5102.72807,-0.01227
5104.65654,-0.00488
5106.58501,0.01112
5108.51348,0.02369
5110.44195,0.03726
5112.37042,0.05720
5114.29888,0.06206
5116.22735,0.04779
5118.15582,0.04112
5120.08429,0.04207
5122.01276,0.03255
5123.94123,0.02668
5125.86970,0.03808
5127.79816,0.04535
5129.72663,0.03543
5131.65510,0.02536
5133.58357,0.03004
5135.51204,0.03231
5137.44051,0.01828
5139.36898,0.00724
5141.29745,0.00245
5143.22591,0.00029
5145.15438,0.01408
5147.08285,0.03507
5149.01132,0.03532
5150.93979,0.02166
5152.86826,0.02202
5154.79673,0.02348
5156.72519,0.01685
5158.65366,0.01984
5160.58213,0.02573
5162.51060,0.02631
5164.43907,0.02783
5166.36754,0.03174
5168.29601,0.03036
5170.22448,0.02647
5172.15294,0.03505
5174.08141,0.04741
5176.00988,0.04024
5177.93835,0.01940
5179.86682,0.01538
5181.79529,0.03022
5183.72376,0.03450
5185.65222,0.02403
5187.58069,0.02560
5189.50916,0.04152
5191.43763,0.05220
5193.36610,0.05422
5195.29457,0.05322
5197.22304,0.05033
5199.15151,0.04873
5201.07997,0.05493
5203.00844,0.06093
5204.93691,0.04961
5206.86538,0.02993
5208.79385,0.02591
5210.72232,0.03610
5212.65079,0.04909
5214.57925,0.05332
5216.50772,0.04993
5218.43619,0.05272
5220.36466,0.05036
5222.29313,0.02716
5224.22160,0.00015
5226.15007,-0.00708
5228.07854,0.01147
5230.00700,0.03741
5231.93547,0.04896
5233.86394,0.04722
5235.79241,0.04258
5237.72088,0.04205
5239.64935,0.04707
5241.57782,0.04080
5243.50628,0.02825
5245.43475,0.04242
5247.36322,0.07394
5249.29169,0.08813
5251.22016,0.08122
5253.14863,0.06516
5255.07710,0.04730
5257.00556,0.03519
5258.93403,0.03378
5260.86250,0.03541
5262.79097,0.03159
5264.71944,0.04113
5266.64791,0.06409
5268.57638,0.06782
5270.50485,0.05360
5272.43331,0.04222
5274.36178,0.03373
5276.29025,0.03312
5278.21872,0.04334
5280.14719,0.04257
5282.07566,0.03286
5284.00413,0.03770
5285.93259,0.05062
5287.86106,0.05766
5289.78953,0.06071
5291.71800,0.05750
5293.64647,0.04756
5295.57494,0.03590
5297.50341,0.02425
5299.43188,0.02982
5301.36034,0.05728
5303.28881,0.07068
5305.21728,0.06290
5307.14575,0.05633
5309.07422,0.05043
5311.00269,0.05139
5312.93116,0.06873
5314.85962,0.08326
5316.78809,0.07406
5318.71656,0.05020
5320.64503,0.03708
5322.57350,0.04649
5324.50197,0.06565
5326.43044,0.06419
5328.35891,0.03909
5330.28737,0.02429
5332.21584,0.02642
5334.14431,0.03573
5336.07278,0.04713
5338.00125,0.06165
5339.92972,0.08402
5341.85819,0.09273
5343.78665,0.08160
5345.71512,0.07520
5347.64359,0.06457
5349.57206,0.03405
5351.50053,0.01919
5353.42900,0.04898
5355.35747,0.08074
5357.28594,0.07629
5359.21440,0.05557
5361.14287,0.04365
5363.07134,0.04865
5364.99981,0.06407
5366.92828,0.08003
5368.85675,0.08216
5370.78522,0.06643
5372.71368,0.06404
5374.64215,0.08606
5376.57062,0.09622
5378.49909,0.08449
5380.42756,0.06334
5382.35603,0.03801
5384.28450,0.02775
5386.21297,0.03957
5388.14143,0.04799
5390.06990,0.05205
5391.99837,0.06986
5393.92684,0.09022
5395.85531,0.09039
5397.78378,0.07270
5399.71225,0.05768
5401.64071,0.05978
5403.56918,0.06429
5405.49765,0.05772
5407.42612,0.04732
5409.35459,0.04356
5411.28306,0.05657
5413.21153,0.07867
5415.13999,0.09852
5417.06846,0.10879
5418.99693,0.08985
5420.92540,0.06413
5422.85387,0.06357
5424.78234,0.05929
5426.71081,0.04530
5428.63928,0.05996
5430.56774,0.08566
5432.49621,0.08290
5434.42468,0.06605
5436.35315,0.05090
5438.28162,0.04063
5440.21009,0.03876
5442.13856,0.03538
5444.06702,0.02500
5445.99549,0.01329
5447.92396,0.01657
5449.85243,0.03321
5451.78090,0.03635
5453.70937,0.03983
5455.63784,0.06293
5457.56631,0.07925
5459.49477,0.08388
5461.42324,0.10077
5463.35171,0.11048
5465.28018,0.09154
5467.20865,0.05597
5469.13712,0.03067
5471.06559,0.04662
5472.99405,0.09335
5474.92252,0.11903
5476.85099,0.09402
5478.77946,0.05896
5480.70793,0.04436
5482.63640,0.04931
5484.56487,0.07023
5486.49334,0.08923
5488.42180,0.08817
5490.35027,0.07654
5492.27874,0.07577
5494.20721,0.08755
5496.13568,0.09321
5498.06415,0.08275
5499.99262,0.06812
5501.92108,0.06914
5503.84955,0.07601
5505.77802,0.07222
5507.70649,0.06606
5509.63496,0.06508
5511.56343,0.06984
5513.49190,0.07339
5515.42037,0.06135
5517.34883,0.04797
5519.27730,0.05873
5521.20577,0.07907
5523.13424,0.08222
5525.06271,0.07662
5526.99118,0.07524
5528.91965,0.06696
5530.84811,0.04954
5532.77658,0.04448
5534.70505,0.05784
5536.63352,0.05928
5538.56199,0.04151
5540.49046,0.04134
5542.41893,0.06181
5544.34740,0.06389
5546.27586,0.04448
5548.20433,0.03726
5550.13280,0.05634
5552.06127,0.08976
5553.98974,0.11392
5555.91821,0.10474
5557.84668,0.06970
5559.77514,0.05028
5561.70361,0.05063
5563.63208,0.05643
5565.56055,0.08101
5567.48902,0.10560
5569.41749,0.09667
5571.34596,0.06992
5573.27443,0.06004
5575.20289,0.06485
5577.13136,0.06463
5579.05983,0.06494
5580.98830,0.05253
5582.91677,0.02196
5584.84524,0.01588
5586.77371,0.04249
5588.70217,0.05315
5590.63064,0.03040
5592.55911,0.02344
5594.48758,0.04920
5596.41605,0.07324
5598.34452,0.06821
5600.27299,0.03072
5602.20145,0.00591
5604.12992,0.03563
5606.05839,0.08398
5607.98686,0.10695
5609.91533,0.10517
5611.84380,0.08282
5613.77227,0.05532
5615.70074,0.05273
5617.62920,0.06295
5619.55767,0.06352
5621.48614,0.07280
5623.41461,0.07981
5625.34308,0.06172
5627.27155,0.05066
5629.20002,0.05585
5631.12848,0.05752
5633.05695,0.04522
5634.98542,0.01513
5636.91389,-0.00041
5638.84236,0.02166
5640.77083,0.05372
5642.69930,0.06107
5644.62777,0.04690
5646.55623,0.05342
5648.48470,0.10657
5650.41317,0.16327
5652.34164,0.15764
5654.27011,0.09836
5656.19858,0.05730
5658.12705,0.06649
5660.05551,0.08766
5661.98398,0.08213
5663.91245,0.06010
5665.84092,0.04599
5667.76939,0.04664
5669.69786,0.06117
5671.62633,0.08039
5673.55480,0.09076
5675.48326,0.09350
5677.41173,0.08139
5679.34020,0.06658
5681.26867,0.07118
5683.19714,0.05646
5685.12561,0.02240
5687.05408,0.02158
5688.98254,0.04214
5690.91101,0.04607
5692.83948,0.04035
5694.76795,0.03929
5696.69642,0.04077
5698.62489,0.04362
5700.55336,0.03958
5702.48183,0.03024
5704.41029,0.03839
5706.33876,0.06393
5708.26723,0.09350
5710.19570,0.11319
5712.12417,0.10822
5714.05264,0.10140
5715.98111,0.10820
5717.90957,0.10051
5719.83804,0.08464
5721.76651,0.08888
5723.69498,0.11277
5725.62345,0.13862
5727.55192,0.13597
5729.48039,0.10626
5731.40886,0.08770
5733.33732,0.08548
5735.26579,0.09061
5737.19426,0.10212
5739.12273,0.10479
5741.05120,0.08570
5742.97967,0.05543
5744.90814,0.03964
5746.83660,0.05533
5748.76507,0.07375
5750.69354,0.04246
5752.62201,-0.00614
5754.55048,0.01100
5756.47895,0.06450
5758.40742,0.07650
5760.33588,0.05861
5762.26435,0.06454
5764.19282,0.07848
5766.12129,0.06260
5768.04976,0.06411
5769.97823,0.09393
5771.90670,0.09729
5773.83517,0.09699
5775.76363,0.11112
5777.69210,0.10555
5779.62057,0.09375
5781.54904,0.07842
5783.47751,0.04852
5785.40598,0.03895
5787.33445,0.05024
5789.26291,0.05386
5791.19138,0.07640
5793.11985,0.12966
5795.04832,0.16325
5796.97679,0.15056
5798.90526,0.10662
5800.83373,0.05491
5802.76220,0.03171
5804.69066,0.04050
5806.61913,0.05330
5808.54760,0.06478
5810.47607,0.07324
5812.40454,0.07169
5814.33301,0.06692
5816.26148,0.07217
5818.18994,0.08003
5820.11841,0.08390
5822.04688,0.10268
5823.97535,0.13000
5825.90382,0.13161
5827.83229,0.10467
5829.76076,0.07774
5831.68923,0.05655
5833.61769,0.04765
5835.54616,0.07889
5837.47463,0.11690
5839.40310,0.11260
5841.33157,0.07780
5843.26004,0.04441
5845.18851,0.03957
5847.11697,0.06813
5849.04544,0.09705
5850.97391,0.11077
5852.90238,0.12225
5854.83085,0.10660
5856.75932,0.06281
5858.68779,0.05168
5860.61626,0.07815
5862.54472,0.11359
5864.47319,0.15118
5866.40166,0.15456
5868.33013,0.12283
5870.25860,0.10486
5872.18707,0.11337
5874.11554,0.11537
5876.04400,0.09026
5877.97247,0.07753
5879.90094,0.09837
5881.82941,0.10106
5883.75788,0.07122
5885.68635,0.06566
5887.61482,0.08280
5889.54329,0.07770
5891.47175,0.04858
5893.40022,0.01960
5895.32869,0.03202
5897.25716,0.05531
5899.18563,0.05299
5901.11410,0.07865
5903.04257,0.10098
5904.97103,0.06947
5906.89950,0.03531
5908.82797,0.02512
5910.75644,0.04501
5912.68491,0.09465
5914.61338,0.14081
5916.54185,0.14355
5918.47032,0.09371
5920.39878,0.05408
5922.32725,0.07015
5924.25572,0.09282
5926.18419,0.09146
5928.11266,0.10526
5930.04113,0.13751
5931.96960,0.14247
5933.89806,0.11286
5935.82653,0.06234
5937.75500,0.01546
5939.68347,0.02937
5941.61194,0.09654
5943.54041,0.13795
5945.46888,0.14995
5947.39734,0.17358
5949.32581,0.18892
5951.25428,0.17114
5953.18275,0.14432
5955.11122,0.13841
5957.03969,0.14341
5958.96816,0.11862
5960.89663,0.08140
5962.82509,0.07308
5964.75356,0.06221
5966.68203,0.03597
5968.61050,0.02931
5970.53897,0.04473
5972.46744,0.06777
5974.39591,0.08965
5976.32437,0.10297
5978.25284,0.10766
5980.18131,0.10777
5982.10978,0.12083
5984.03825,0.13155
5985.96672,0.10755
5987.89519,0.07542
5989.82366,0.04810
5991.75212,0.02106
5993.68059,0.04153
5995.60906,0.11438
5997.53753,0.14861
5999.46600,0.11824
6001.39447,0.09507
6003.32294,0.10319
6005.25140,0.09664
6007.17987,0.06879
6009.10834,0.05192
6011.03681,0.04381
6012.96528,0.04904
6014.89375,0.10261
6016.82222,0.16998
6018.75069,0.17811
6020.67915,0.13748
6022.60762,0.07138
6024.53609,0.01215
6026.46456,0.01346
6028.39303,0.04255
6030.32150,0.05580
6032.24997,0.08927
6034.17843,0.12464
6036.10690,0.10862
6038.03537,0.07756
6039.96384,0.07102
6041.89231,0.07836
6043.82078,0.07416
6045.74925,0.04060
6047.67772,0.01139
6049.60618,0.04295
6051.53465,0.10147
6053.46312,0.11826
6055.39159,0.10774
6057.32006,0.11841
6059.24853,0.15474
6061.17700,0.17195
6063.10546,0.15354
6065.03393,0.13988
6066.96240,0.14563
6068.89087,0.13563
6070.81934,0.09947
6072.74781,0.09003
6074.67628,0.11433
6076.60475,0.12684
6078.53321,0.11149
6080.46168,0.08757
6082.39015,0.10089
6084.31862,0.14204
6086.24709,0.14145
6088.17556,0.09330
6090.10403,0.06047
6092.03249,0.03982
6093.96096,-0.00968
6095.88943,-0.05772
6097.81790,-0.04585
6099.74637,0.01957
6101.67484,0.07350
6103.60331,0.09480
6105.53177,0.12186
6107.46024,0.15719
6109.38871,0.14505
6111.31718,0.08984
6113.24565,0.07155
6115.17412,0.08801
6117.10259,0.10475
6119.03106,0.13027
6120.95952,0.15037
6122.88799,0.14439
6124.81646,0.10707
6126.74493,0.05986
6128.67340,0.04305
6130.60187,0.04622
6132.53034,0.06205
6134.45880,0.08401
6136.38727,0.07884
6138.31574,0.06464
6140.24421,0.05835
6142.17268,0.03064
6144.10115,0.00494
6146.02962,0.02281
6147.95809,0.06249
6149.88655,0.12120
6151.81502,0.18656
6153.74349,0.17578
6155.67196,0.09107
6157.60043,0.04912
6159.52890,0.08035
6161.45737,0.07131
6163.38583,0.00589
6165.31430,0.00252
6167.24277,0.05287
6169.17124,0.07612
6171.09971,0.07024
6173.02818,0.07713
6174.95665,0.11073
6176.88512,0.15763
6178.81358,0.20343
6180.74205,0.21893
6182.67052,0.17855
6184.59899,0.11566
6186.52746,0.08393
6188.45593,0.09330
6190.38440,0.09980
6192.31286,0.09151
6194.24133,0.11126
6196.16980,0.13445
6198.09827,0.13354
6200.02674,0.15256
6201.95521,0.16112
6203.88368,0.10593
6205.81215,0.02594
6207.74061,-0.02703
6209.66908,-0.01821
6211.59755,0.04588
6213.52602,0.09635
6215.45449,0.10957
6217.38296,0.06995
6219.31143,-0.00056
6221.23989,-0.03013
6223.16836,-0.00126
6225.09683,0.04472
6227.02530,0.05283
6228.95377,0.02332
6230.88224,-0.00554
6232.81071,-0.03201
6234.73918,-0.04163
6236.66764,-0.00208
6238.59611,0.06463
6240.52458,0.10318
6242.45305,0.10440
6244.38152,0.11461
6246.30999,0.14409
6248.23846,0.14825
6250.16692,0.10927
6252.09539,0.05055
6254.02386,0.03998
6255.95233,0.09983
6257.88080,0.13305
6259.80927,0.12649
6261.73774,0.13799
6263.66621,0.12816
6265.59467,0.07976
6267.52314,0.03168
6269.45161,0.01662
6271.38008,0.04609
6273.30855,0.06949
6275.23702,0.06634
6277.16549,0.10663
6279.09395,0.19243
6281.02242,0.24750
6282.95089,0.23727
6284.87936,0.19594
6286.80783,0.14851
6288.73630,0.09469
6290.66477,0.06325
6292.59323,0.07787
6294.52170,0.10186
6296.45017,0.09226
6298.37864,0.08653
6300.30711,0.09619
6302.23558,0.06173
6304.16405,-0.00714
6306.09252,-0.04549
6308.02098,-0.02313
6309.94945,0.01864
6311.87792,0.04460
6313.80639,0.06340
6315.73486,0.08101
6317.66333,0.10572
6319.59180,0.11648
6321.52026,0.11568
6323.44873,0.13710
6325.37720,0.16499
6327.30567,0.17040
6329.23414,0.16077
6331.16261,0.15089
6333.09108,0.13227
6335.01955,0.12749
6336.94801,0.16129
6338.87648,0.18792
6340.80495,0.17721
6342.73342,0.16575
6344.66189,0.15023
6346.59036,0.09600
6348.51883,0.02821
6350.44729,0.00203
6352.37576,0.01175
6354.30423,-0.00100
6356.23270,-0.01273
6358.16117,0.01385
6360.08964,0.06403
6362.01811,0.14934
6363.94658,0.25270
6365.87504,0.28825
6367.80351,0.23512
6369.73198,0.18201
6371.66045,0.19070
6373.58892,0.21033
6375.51739,0.17289
6377.44586,0.10861
6379.37432,0.04681
6381.30279,-0.00411
6383.23126,-0.00741
6385.15973,0.03467
6387.08820,0.05265
6389.01667,0.04124
6390.94514,0.08057
6392.87361,0.14942
6394.80207,0.13552
6396.73054,0.09997
6398.65901,0.09349
6400.58748,0.06698
6402.51595,0.04647
6404.44442,0.05947
6406.37289,0.04857
6408.30135,0.02069
6410.22982,-0.00526
6412.15829,-0.04732
6414.08676,-0.03853
6416.01523,0.01282
6417.94370,0.02485
6419.87217,0.01145
6421.80064,0.01777
6423.72910,0.03314
6425.65757,0.04945
6427.58604,0.05810
6429.51451,0.05429
6431.44298,0.07892
6433.37145,0.13043
6435.29992,0.14430
6437.22838,0.09223
6439.15685,0.04118
6441.08532,0.06288
6443.01379,0.10821
6444.94226,0.13041
6446.87073,0.13379
6448.79920,0.08864
6450.72766,0.00048
6452.65613,-0.05733
6454.58460,-0.04320
6456.51307,0.00994
6458.44154,0.04322
6460.37001,0.07256
6462.29848,0.12012
6464.22695,0.13364
6466.15541,0.10487
6468.08388,0.09494
6470.01235,0.09699
6471.94082,0.06126
6473.86929,0.02871
6475.79776,0.05109
6477.72623,0.13461
6479.65469,0.21202
6481.58316,0.19019
6483.51163,0.11393
6485.44010,0.05900
6487.36857,0.02409
6489.29704,0.04774
6491.22551,0.16313
6493.15398,0.26289
6495.08244,0.22420
6497.01091,0.12588
6498.93938,0.10074
6500.86785,0.14608
6502.79632,0.16146
6504.72479,0.13060
6506.65326,0.11226
6508.58172,0.11691
6510.51019,0.10953
6512.43866,0.08207
6514.36713,0.05125
6516.29560,0.01767
6518.22407,0.00632
6520.15254,0.03887
6522.08101,0.07415
6524.00947,0.05720
6525.93794,0.01609
6527.86641,0.00589
6529.79488,0.01698
6531.72335,0.06656
6533.65182,0.14328
6535.58029,0.17714
6537.50875,0.15816
6539.43722,0.08933
6541.36569,0.00291
6543.29416,0.00521
6545.22263,0.06186
6547.15110,0.05892
6549.07957,0.03865
6551.00804,0.06484
6552.93650,0.09588
6554.86497,0.09937
6556.79344,0.11141
6558.72191,0.12493
6560.65038,0.09090
6562.57885,0.05186
6564.50732,0.07246
6566.43578,0.09990
6568.36425,0.07783
6570.29272,0.04956
6572.22119,0.03876
6574.14966,0.04818
6576.07813,0.04197
6578.00660,-0.00080
6579.93507,0.02282
6581.86353,0.08552
6583.79200,0.10593
6585.72047,0.17050
6587.64894,0.23436
6589.57741,0.17625
6591.50588,0.11059
6593.43435,0.16445
6595.36281,0.20969
6597.29128,0.15256
6599.21975,0.07258
6601.14822,0.02801
6603.07669,0.00505
6605.00516,-0.02725
6606.93363,-0.00230
6608.86210,0.10571
6610.79056,0.16653
6612.71903,0.13746
6614.64750,0.08736
6616.57597,0.00554
6618.50444,-0.02454
6620.43291,0.05339
6622.36138,0.11060
6624.28984,0.08453
6626.21831,-0.00455
6628.14678,-0.07566
6630.07525,-0.00251
6632.00372,0.11189
6633.93219,0.12068
6635.86066,0.09729
6637.78912,0.13476
6639.71759,0.16157
6641.64606,0.12974
6643.57453,0.10698
6645.50300,0.11267
6647.43147,0.08858
6649.35994,0.03814
6651.28841,-0.03457
6653.21687,-0.09833
6655.14534,-0.09775
6657.07381,-0.06754
6659.00228,-0.02467
6660.93075,0.04092
6662.85922,0.07693
6664.78769,0.09085
6666.71615,0.11749
6668.64462,0.10811
6670.57309,0.04606
6672.50156,0.03987
6674.43003,0.12638
6676.35850,0.20365
6678.28697,0.19834
6680.21544,0.11821
6682.14390,0.05175
6684.07237,0.06834
6686.00084,0.09780
6687.92931,0.07329
6689.85778,0.04359
6691.78625,-0.00849
6693.71472,-0.10741
6695.64318,-0.14041
6697.57165,-0.02628
6699.50012,0.09568
6701.42859,0.12983
6703.35706,0.12562
6705.28553,0.11167
6707.21400,0.08816
6709.14247,0.04339
6711.07093,0.00748
6712.99940,0.01878
6714.92787,0.05678
6716.85634,0.07895
6718.78481,0.09003
6720.71328,0.12984
6722.64175,0.14099
6724.57021,0.08219
6726.49868,0.05786
6728.42715,0.11157
6730.35562,0.15859
6732.28409,0.13629
6734.21256,0.11955
6736.14103,0.14635
6738.06950,0.12301
6739.99796,0.07534
6741.92643,0.09183
6743.85490,0.09576
6745.78337,0.07032
6747.71184,0.08255
6749.64031,0.10949
6751.56878,0.11446
6753.49724,0.09223
6755.42571,0.05722
6757.35418,0.03337
6759.28265,0.01678
6761.21112,0.01158
6763.13959,0.05484
6765.06806,0.14127
6766.99653,0.18508
6768.92499,0.14889
6770.85346,0.10754
6772.78193,0.11119
6774.71040,0.12121
6776.63887,0.07329
6778.56734,0.00274
6780.49581,0.00411
6782.42427,0.06522
6784.35274,0.11000
6786.28121,0.11286
6788.20968,0.07896
6790.13815,0.03911
6792.06662,0.04017
6793.99509,0.05544
6795.92355,0.03879
6797.85202,0.02800
6799.78049,0.05248
6801.70896,0.09531
6803.63743,0.14852
6805.56590,0.18582
6807.49437,0.16744
6809.42284,0.08403
6811.35130,0.01008
6813.27977,0.04671
6815.20824,0.10975
6817.13671,0.10827
6819.06518,0.08701
6820.99365,0.04194
6822.92212,-0.03003
6824.85058,-0.01727
6826.77905,0.06157
6828.70752,0.11153
6830.63599,0.14854
6832.56446,0.17207
6834.49293,0.12482
6836.42140,0.05169
6838.34987,0.05069
6840.27833,0.09887
6842.20680,0.13029
6844.13527,0.10541
6846.06374,0.03875
6847.99221,0.01402
6849.92068,0.04865
6851.84915,0.00820
6853.77761,-0.10518
6855.70608,-0.12421
6857.63455,-0.04053
6859.56302,-0.00070
6861.49149,0.00438
6863.41996,0.03232
6865.34843,0.07378
6867.27690,0.10299
6869.20536,0.15276
6871.13383,0.24931
6873.06230,0.26478
6874.99077,0.15178
6876.91924,0.05815
6878.84771,0.02071
6880.77618,-0.01073
6882.70464,-0.01053
6884.63311,0.03961
6886.56158,0.02327
6888.49005,-0.06234
6890.41852,-0.03149
6892.34699,0.11178
6894.27546,0.17289
6896.20393,0.11597
6898.13239,0.05665
6900.06086,0.04619
6901.98933,0.03035
6903.91780,0.00795
6905.84627,-0.02875
6907.77474,-0.08047
6909.70321,-0.05955
6911.63167,0.01425
6913.56014,0.06746
6915.48861,0.10151
6917.41708,0.05661
6919.34555,-0.01570
6921.27402,0.05462
6923.20249,0.14256
6925.13096,0.16273
6927.05942,0.18106
6928.98789,0.16242
6930.91636,0.10865
6932.84483,0.14655
6934.77330,0.18742
6936.70177,0.11311
6938.63024,0.03035
6940.55870,0.01460
6942.48717,0.00787
6944.41564,0.06453
6946.34411,0.14937
6948.27258,0.08801
6950.20105,-0.03643
6952.12952,-0.09111
6954.05799,-0.08637
6955.98645,-0.02217
6957.91492,0.08317
6959.84339,0.20153
6961.77186,0.21337
6963.70033,0.07698
6965.62880,-0.03887
6967.55727,-0.05078
6969.48573,-0.04156
6971.41420,-0.04978
6973.34267,-0.02452
6975.27114,0.01655
6977.19961,0.05391
6979.12808,0.05825
6981.05655,0.00896
6982.98501,-0.03007
6984.91348,-0.00574
6986.84195,0.08553
6988.77042,0.17930
6990.69889,0.19519
6992.62736,0.17087
6994.55583,0.14510
6996.48430,0.14397
6998.41276,0.20310
7000.34123,0.23057
7002.26970,0.18525
7004.19817,0.12365
7006.12664,0.05366
7008.05511,0.02696
7009.98358,0.06820
7011.91204,0.13104
7013.84051,0.16556
7015.76898,0.14550
7017.69745,0.05487
7019.62592,-0.09191
7021.55439,-0.15687
7023.48286,-0.05251
7025.41133,0.12142
7027.33979,0.22291
7029.26826,0.25828
7031.19673,0.31828
7033.12520,0.37317
7035.05367,0.34295
7036.98214,0.25023
7038.91061,0.16767
7040.83907,0.14131
7042.76754,0.20536
7044.69601,0.26736
7046.62448,0.18865
7048.55295,-0.00366
7050.48142,-0.15218
7052.40989,-0.14463
7054.33836,0.01533
7056.26682,0.18381
7058.19529,0.14940
7060.12376,-0.07028
7062.05223,-0.23911
7063.98070,-0.17800
7065.90917,0.03029
7067.83764,0.13173
7069.76610,0.09397
7071.69457,0.05321
7073.62304,0.00238
7075.55151,-0.08474
7077.47998,-0.11159
7079.40845,-0.00978
7081.33692,0.13625
7083.26539,0.14067
7085.19385,0.09744
7087.12232,0.17161
7089.05079,0.24489
7090.97926,0.16405
7092.90773,0.01288
7094.83620,-0.10455
7096.76467,-0.13357
7098.69313,-0.06149
7100.62160,0.01209
7102.55007,-0.00850
7104.47854,-0.06440
7106.40701,-0.08385
7108.33548,-0.08459
7110.26395,-0.02448
7112.19242,0.07801
7114.12088,0.08156
7116.04935,0.04089
7117.97782,0.07527
7119.90629,0.05039
7121.83476,-0.01671
7123.76323,0.00754
7125.69170,0.06401
7127.62016,0.09566
7129.54863,0.07343
7131.47710,-0.00107
7133.40557,-0.03851
7135.33404,-0.01029
7137.26251,0.07240
7139.19098,0.19418
7141.11944,0.25626
7143.04791,0.24978
7144.97638,0.20617
7146.90485,0.10860
7148.83332,0.05453
7150.76179,0.10027
7152.69026,0.21922
7154.61873,0.38226
7156.54719,0.45665
7158.47566,0.32516
7160.40413,0.12525
7162.33260,0.04542
7164.26107,0.00486
7166.18954,-0.08125
7168.11801,-0.10527
7170.04647,-0.04878
7171.97494,0.04798
7173.90341,0.18778
7175.83188,0.33209
7177.76035,0.41435
7179.68882,0.37002
7181.61729,0.19302
7183.54576,-0.00180
7185.47422,-0.09820
7187.40269,-0.07209
7189.33116,0.05027
7191.25963,0.13465
7193.18810,0.08889
7195.11657,0.03621
7197.04504,0.05297
7198.97350,0.02469
7200.90197,-0.08708
7202.83044,-0.17864
7204.75891,-0.10180
7206.68738,0.12094
7208.61585,0.20628
7210.54432,0.14346
7212.47279,0.11907
7214.40125,0.19412
7216.32972,0.28608
7218.25819,0.33942
7220.18666,0.33187
7222.11513,0.23303
7224.04360,0.12190
7225.97207,0.12461
7227.90053,0.10603
7229.82900,-0.03195
7231.75747,-0.08547
7233.68594,-0.11470
7235.61441,-0.25381
7237.54288,-0.32758
7239.47135,-0.21304
7241.39982,-0.07439
7243.32828,-0.09337
7245.25675,-0.14812
7247.18522,-0.11061
7249.11369,-0.02882
7251.04216,0.10153
7252.97063,0.21734
7254.89910,0.16664
7256.82756,0.09261
7258.75603,0.06508
7260.68450,-0.01199
7262.61297,-0.13235
7264.54144,-0.11083
7266.46991,0.07149
7268.39838,0.23821
7270.32685,0.31979
7272.25531,0.32243
7274.18378,0.25720
7276.11225,0.15204
7278.04072,0.07049
7279.96919,0.11340
7281.89766,0.15374
7283.82613,0.08265
7285.75459,0.00577
7287.68306,-0.01106
7289.61153,0.09291
7291.54000,0.20054
7293.46847,0.06035
7295.39694,-0.14965
7297.32541,-0.15042
7299.25387,-0.03634
7301.18234,0.10831
7303.11081,0.25613
7305.03928,0.22654
7306.96775,0.10757
7308.89622,0.22088
7310.82469,0.29659
7312.75316,0.13662
7314.68162,0.04020
7316.61009,0.05739
7318.53856,0.04362
7320.46703,0.00922
7322.39550,-0.06672
7324.32397,-0.14659
7326.25244,-0.11145
7328.18090,-0.06002
7330.10937,-0.03633
7332.03784,0.07236
7333.96631,0.10836
7335.89478,0.05116
7337.82325,0.03530
7339.75172,0.01350
7341.68019,-0.04481
7343.60865,-0.02711
7345.53712,-0.04863
7347.46559,-0.14555
7349.39406,-0.06523
7351.32253,0.14168
7353.25100,0.18183
7355.17947,0.14486
7357.10793,0.26369
7359.03640,0.37368
7360.96487,0.14907
7362.89334,-0.04551
7364.82181,0.08367
7366.75028,0.28371
7368.67875,0.31765
7370.60722,0.23651
7372.53568,0.26442
7374.46415,0.48949
7376.39262,0.57723
7378.32109,0.31261
7380.24956,0.08565
7382.17803,0.06634
7384.10650,0.08633
7386.03496,0.04378
7387.96343,0.02678
7389.89190,0.08112
7391.82037,0.11136
7393.74884,0.01221
7395.67731,-0.14435
7397.60578,-0.26714
7399.53425,-0.30974
7401.46271,-0.23362
7403.39118,-0.07826
7405.31965,-0.00277
7407.24812,-0.03309
7409.17659,0.01523
7411.10506,0.18272
7413.03353,0.34159
7414.96199,0.43965
7416.89046,0.44917
7418.81893,0.39710
7420.74740,0.38635
7422.67587,0.33727
7424.60434,0.23415
7426.53281,0.13933
7428.46128,-0.02654
7430.38974,-0.18636
7432.31821,-0.11529
7434.24668,-0.04047
7436.17515,-0.08264
7438.10362,-0.03769
7440.03209,0.05515
7441.96056,0.01327
7443.88902,-0.04296
7445.81749,-0.04127
7447.74596,-0.06796
7449.67443,-0.06183
7451.60290,-0.03837
7453.53137,-0.08038
7455.45984,-0.13641
7457.38831,-0.13832
7459.31677,0.09105
7461.24524,0.37473
7463.17371,0.33604
7465.10218,0.16123
7467.03065,0.07023
7468.95912,0.09341
7470.88759,0.12066
7472.81605,0.01489
7474.74452,-0.18817
7476.67299,-0.27315
7478.60146,-0.14344
7480.52993,-0.09263
7482.45840,-0.18569
7484.38687,-0.13492
7486.31533,-0.06378
7488.24380,-0.16027
7490.17227,-0.22806
7492.10074,-0.10833
7494.02921,0.07586
7495.95768,0.26329
7497.88615,0.47315
