399.19301,0.53309
401.12148,-0.11503
403.04995,-0.27255
404.97842,-0.18370
406.90689,-0.05888
408.83536,0.00745
410.76382,0.02102
412.69229,0.04234
414.62076,0.06821
416.54923,0.06665
418.47770,0.04797
420.40617,0.07696
422.33464,0.12797
424.26311,0.17616
426.19157,0.20472
428.12004,0.18509
430.04851,0.13688
431.97698,0.09641
433.90545,0.07062
435.83392,0.02305
437.76239,-0.03110
439.69085,-0.04098
441.61932,-0.02591
443.54779,-0.03507
445.47626,-0.05222
447.40473,-0.02759
449.33320,0.02173
451.26167,0.03824
453.19013,0.02025
455.11860,-0.00299
457.04707,-0.02258
458.97554,-0.07109
460.90401,-0.08412
462.83248,0.00194
464.76095,0.11400
466.68942,0.16692
468.61788,0.16679
470.54635,0.16842
472.47482,0.13339
474.40329,-0.00044
476.33176,-0.02731
478.26023,0.01448
480.18870,0.02892
482.11716,0.03952
484.04563,0.09204
485.97410,0.16204
487.90257,0.16438
489.83104,0.08769
491.75951,0.01805
493.68798,0.02263
495.61645,0.07975
497.54491,0.11826
499.47338,0.11973
501.40185,0.12502
503.33032,0.13514
505.25879,0.14079
507.18726,0.12021
509.11573,0.05745
511.04419,0.02814
512.97266,0.05493
514.90113,0.08327
516.82960,0.10433
518.75807,0.12433
520.68654,0.12382
522.61501,0.10918
524.54348,0.09912
526.47194,0.09706
528.40041,0.10075
530.32888,0.10368
532.25735,0.10899
534.18582,0.14124
536.11429,0.15768
538.04276,0.11567
539.97122,0.08009
541.89969,0.08823
543.82816,0.11650
545.75663,0.13864
547.68510,0.14392
549.61357,0.18462
551.54204,0.43650
553.47051,0.75282
555.39897,0.68081
557.32744,0.34071
559.25591,0.15787
561.18438,0.11071
563.11285,0.09430
565.04132,0.09625
566.96979,0.09138
568.89825,0.10317
570.82672,0.14187
572.75519,0.17209
574.68366,0.16641
576.61213,0.12217
578.54060,0.08005
580.46907,0.07956
582.39754,0.09178
584.32600,0.09680
586.25447,0.11208
588.18294,0.12204
590.11141,0.11656
592.03988,0.11064
593.96835,0.10522
595.89682,0.10159
597.82528,0.11730
599.75375,0.15125
601.68222,0.17633
603.61069,0.18015
605.53916,0.16713
607.46763,0.14280
609.39610,0.12516
611.32456,0.11352
613.25303,0.09981
615.18150,0.09606
617.10997,0.09191
619.03844,0.07919
620.96691,0.07582
622.89538,0.08628
624.82385,0.11170
626.75231,0.13862
628.68078,0.14084
630.60925,0.12475
632.53772,0.10367
634.46619,0.08853
636.39466,0.09119
638.32313,0.09577
640.25159,0.09957
642.18006,0.11650
644.10853,0.13458
646.03700,0.13932
647.96547,0.12580
649.89394,0.10654
651.82241,0.11060
653.75088,0.12607
655.67934,0.12229
657.60781,0.11497
659.53628,0.12651
661.46475,0.13733
663.39322,0.13071
665.32169,0.11931
667.25016,0.12099
669.17862,0.14472
671.10709,0.15366
673.03556,0.13978
674.96403,0.12075
676.89250,0.11014
678.82097,0.11747
680.74944,0.13530
682.67791,0.13656
684.60637,0.12988
686.53484,0.14536
688.46331,0.16681
690.39178,0.16788
692.32025,0.15679
694.24872,0.14105
696.17719,0.13029
698.10565,0.14119
700.03412,0.15950
701.96259,0.16259
703.89106,0.15351
705.81953,0.14823
707.74800,0.15048
709.67647,0.14756
711.60494,0.13877
713.53340,0.13335
715.46187,0.13074
717.39034,0.12862
719.31881,0.12924
721.24728,0.13306
723.17575,0.13374
725.10422,0.13218
727.03268,0.13499
728.96115,0.13926
730.88962,0.14891
732.81809,0.16106
734.74656,0.15415
736.67503,0.13564
738.60350,0.12928
740.53197,0.13461
742.46043,0.13791
744.38890,0.13020
746.31737,0.11908
748.24584,0.12506
750.17431,0.15183
752.10278,0.17348
754.03125,0.17006
755.95971,0.14809
757.88818,0.12524
759.81665,0.11789
761.74512,0.12652
763.67359,0.13257
765.60206,0.12551
767.53053,0.11815
769.45900,0.11565
771.38746,0.10923
773.31593,0.10646
775.24440,0.11938
777.17287,0.13390
779.10134,0.13537
781.02981,0.13244
782.95828,0.13175
784.88674,0.13407
786.81521,0.13747
788.74368,0.13723
790.67215,0.13722
792.60062,0.13859
794.52909,0.13679
796.45756,0.13878
798.38602,0.15000
800.31449,0.15624
802.24296,0.14903
804.17143,0.14257
806.09990,0.14205
808.02837,0.13581
809.95684,0.12627
811.88531,0.12984
813.81377,0.14726
815.74224,0.15750
817.67071,0.14907
819.59918,0.13562
821.52765,0.12965
823.45612,0.12695
825.38459,0.12761
827.31305,0.13973
829.24152,0.14680
831.16999,0.13557
833.09846,0.12330
835.02693,0.11885
836.95540,0.11814
838.88387,0.12041
840.81234,0.12592
842.74080,0.13496
844.66927,0.14441
846.59774,0.15363
848.52621,0.16281
850.45468,0.16379
852.38315,0.15394
854.31162,0.14642
856.24008,0.15133
858.16855,0.16360
860.09702,0.17206
862.02549,0.17264
863.95396,0.16660
865.88243,0.15214
867.81090,0.13792
869.73937,0.13623
871.66783,0.14255
873.59630,0.14618
875.52477,0.14173
877.45324,0.13773
879.38171,0.14092
881.31018,0.14083
883.23865,0.13628
885.16711,0.13930
887.09558,0.15543
889.02405,0.16765
890.95252,0.15997
892.88099,0.14876
894.80946,0.14843
896.73793,0.15105
898.66640,0.14931
900.59486,0.14431
902.52333,0.14141
904.45180,0.14079
906.38027,0.13381
908.30874,0.12351
910.23721,0.12171
912.16568,0.12955
914.09414,0.13974
916.02261,0.14167
917.95108,0.13925
919.87955,0.14722
921.80802,0.16138
923.73649,0.16481
925.66496,0.15580
927.59343,0.14650
929.52189,0.14448
931.45036,0.14744
933.37883,0.14465
935.30730,0.13598
937.23577,0.13175
939.16424,0.12954
941.09271,0.12711
943.02117,0.13324
944.94964,0.14867
946.87811,0.16098
948.80658,0.16466
950.73505,0.15989
952.66352,0.14784
954.59199,0.14245
956.52045,0.14889
958.44892,0.15424
960.37739,0.15174
962.30586,0.14519
964.23433,0.13928
966.16280,0.13485
968.09127,0.13631
970.01974,0.14552
971.94820,0.14963
973.87667,0.14418
975.80514,0.14252
977.73361,0.14920
979.66208,0.15714
981.59055,0.15861
983.51902,0.15359
985.44748,0.15242
987.37595,0.15509
989.30442,0.15360
991.23289,0.15048
993.16136,0.14876
995.08983,0.14552
997.01830,0.14302
998.94677,0.14527
1000.87523,0.14627
1002.80370,0.14548
1004.73217,0.14989
1006.66064,0.15289
1008.58911,0.14972
1010.51758,0.15108
1012.44605,0.15881
1014.37451,0.16032
1016.30298,0.15439
1018.23145,0.15350
1020.15992,0.15934
1022.08839,0.15811
1024.01686,0.14661
1025.94533,0.13077
1027.87380,0.11376
1029.80226,0.11331
1031.73073,0.12869
1033.65920,0.13369
1035.58767,0.12997
1037.51614,0.13428
1039.44461,0.14591
1041.37308,0.14943
1043.30154,0.13781
1045.23001,0.13330
1047.15848,0.14986
1049.08695,0.16227
1051.01542,0.15799
1052.94389,0.15341
1054.87236,0.15570
1056.80083,0.16300
1058.72929,0.16917
1060.65776,0.17106
1062.58623,0.17169
1064.51470,0.16638
1066.44317,0.15936
1068.37164,0.16176
1070.30011,0.16803
1072.22857,0.16983
1074.15704,0.16785
1076.08551,0.16738
1078.01398,0.17182
1079.94245,0.17381
1081.87092,0.16873
1083.79939,0.16616
1085.72786,0.17039
1087.65632,0.17062
1089.58479,0.16327
1091.51326,0.15775
1093.44173,0.16034
1095.37020,0.17018
1097.29867,0.17919
1099.22714,0.17983
1101.15560,0.17481
1103.08407,0.16988
1105.01254,0.16494
1106.94101,0.15886
1108.86948,0.15646
1110.79795,0.16022
1112.72642,0.16514
1114.65489,0.17027
1116.58335,0.17674
1118.51182,0.17491
1120.44029,0.16066
1122.36876,0.14874
1124.29723,0.14783
1126.22570,0.15045
1128.15417,0.15248
1130.08263,0.15401
1132.01110,0.15279
1133.93957,0.14978
1135.86804,0.14758
1137.79651,0.14687
1139.72498,0.14766
1141.65345,0.15259
1143.58191,0.16021
1145.51038,0.16437
1147.43885,0.16612
1149.36732,0.16615
1151.29579,0.16397
1153.22426,0.16254
1155.15273,0.16022
1157.08120,0.15903
1159.00966,0.16370
1160.93813,0.16769
1162.86660,0.16623
1164.79507,0.16493
1166.72354,0.16876
1168.65201,0.17480
1170.58048,0.17540
1172.50894,0.17112
1174.43741,0.16621
1176.36588,0.16254
1178.29435,0.16312
1180.22282,0.16675
1182.15129,0.17087
1184.07976,0.17380
1186.00823,0.17450
1187.93669,0.17528
1189.86516,0.17691
1191.79363,0.17672
1193.72210,0.17396
1195.65057,0.17068
1197.57904,0.16643
1199.50751,0.16253
1201.43597,0.16219
1203.36444,0.16283
1205.29291,0.16339
1207.22138,0.16450
1209.14985,0.16345
1211.07832,0.16274
1213.00679,0.16556
1214.93526,0.16759
1216.86372,0.16769
1218.79219,0.16778
1220.72066,0.16578
1222.64913,0.16409
1224.57760,0.16673
1226.50607,0.16817
1228.43454,0.16587
1230.36300,0.16591
1232.29147,0.16752
1234.21994,0.16548
1236.14841,0.16170
1238.07688,0.16167
1240.00535,0.16365
1241.93382,0.16419
1243.86229,0.16620
1245.79075,0.16812
1247.71922,0.16826
1249.64769,0.16880
1251.57616,0.16727
1253.50463,0.16567
1255.43310,0.16729
1257.36157,0.16748
1259.29003,0.16699
1261.21850,0.16987
1263.14697,0.17160
1265.07544,0.16965
1267.00391,0.16948
1268.93238,0.17406
1270.86085,0.17712
1272.78932,0.17331
1274.71778,0.16808
1276.64625,0.16821
1278.57472,0.16998
1280.50319,0.16887
1282.43166,0.17095
1284.36013,0.17540
1286.28860,0.17328
1288.21706,0.16849
1290.14553,0.16801
1292.07400,0.16979
1294.00247,0.16997
1295.93094,0.16911
1297.85941,0.16935
1299.78788,0.16746
1301.71634,0.16047
1303.64481,0.15411
1305.57328,0.15586
1307.50175,0.16416
1309.43022,0.17255
1311.35869,0.17878
1313.28716,0.18169
1315.21563,0.18006
1317.14409,0.17805
1319.07256,0.17897
1321.00103,0.18027
1322.92950,0.17927
1324.85797,0.17338
1326.78644,0.16446
1328.71491,0.16251
1330.64337,0.16933
1332.57184,0.17505
1334.50031,0.17572
1336.42878,0.17642
1338.35725,0.17918
1340.28572,0.17624
1342.21419,0.16579
1344.14266,0.15675
1346.07112,0.15316
1347.99959,0.15683
1349.92806,0.16475
1351.85653,0.16977
1353.78500,0.17296
1355.71347,0.17432
1357.64194,0.17068
1359.57040,0.16787
1361.49887,0.17201
1363.42734,0.17582
1365.35581,0.17224
1367.28428,0.16940
1369.21275,0.17157
1371.14122,0.17588
1373.06969,0.18156
1374.99815,0.18620
1376.92662,0.18726
1378.85509,0.18668
1380.78356,0.18489
1382.71203,0.18327
1384.64050,0.18523
1386.56897,0.18901
1388.49743,0.18675
1390.42590,0.18052
1392.35437,0.18078
1394.28284,0.18789
1396.21131,0.19026
1398.13978,0.18365
1400.06825,0.17626
1401.99672,0.17735
1403.92518,0.18427
1405.85365,0.18698
1407.78212,0.18794
1409.71059,0.19205
1411.63906,0.19349
1413.56753,0.19175
1415.49600,0.19336
1417.42446,0.19962
1419.35293,0.20079
1421.28140,0.19382
1423.20987,0.19043
1425.13834,0.19080
1427.06681,0.19151
1428.99528,0.19375
1430.92375,0.19512
1432.85221,0.19484
1434.78068,0.19602
1436.70915,0.19306
1438.63762,0.18477
1440.56609,0.18101
1442.49456,0.18173
1444.42303,0.18361
1446.35149,0.18645
1448.27996,0.19066
1450.20843,0.19280
1452.13690,0.19347
1454.06537,0.19878
1455.99384,0.21310
1457.92231,0.21899
1459.85077,0.20328
1461.77924,0.19337
1463.70771,0.19481
1465.63618,0.19779
1467.56465,0.19486
1469.49312,0.19507
1471.42159,0.20531
1473.35006,0.21502
1475.27852,0.20593
1477.20699,0.19043
1479.13546,0.18282
1481.06393,0.18343
1482.99240,0.18576
1484.92087,0.18854
1486.84934,0.19602
1488.77780,0.20670
1490.70627,0.20780
1492.63474,0.20159
1494.56321,0.20157
1496.49168,0.20889
1498.42015,0.21146
1500.34862,0.20712
1502.27709,0.20356
1504.20555,0.21289
1506.13402,0.24981
1508.06249,0.25511
1509.99096,0.22158
1511.91943,0.20450
1513.84790,0.20412
1515.77637,0.21906
1517.70483,0.23170
1519.63330,0.23224
1521.56177,0.22978
1523.49024,0.22186
1525.41871,0.21722
1527.34718,0.21412
1529.27565,0.20718
1531.20412,0.20547
1533.13258,0.21234
1535.06105,0.21767
1536.98952,0.22533
1538.91799,0.24849
1540.84646,0.26700
1542.77493,0.24891
1544.70340,0.22516
1546.63186,0.20820
1548.56033,0.20193
1550.48880,0.20148
1552.41727,0.20171
1554.34574,0.20869
1556.27421,0.22906
1558.20268,0.25630
1560.13115,0.23666
1562.05961,0.20926
1563.98808,0.20274
1565.91655,0.20248
1567.84502,0.20450
1569.77349,0.20551
1571.70196,0.20027
1573.63043,0.20019
1575.55889,0.20497
1577.48736,0.19739
1579.41583,0.18578
1581.34430,0.18124
1583.27277,0.18120
1585.20124,0.18377
1587.12971,0.18692
1589.05818,0.18769
1590.98664,0.18504
1592.91511,0.18323
1594.84358,0.18601
1596.77205,0.18740
1598.70052,0.18475
1600.62899,0.18333
1602.55746,0.18406
1604.48592,0.18439
1606.41439,0.18412
1608.34286,0.18615
1610.27133,0.18777
1612.19980,0.18481
1614.12827,0.18513
1616.05674,0.19374
1617.98521,0.19738
1619.91367,0.19632
1621.84214,0.20215
1623.77061,0.20901
1625.69908,0.20545
1627.62755,0.19624
1629.55602,0.19246
1631.48449,0.19806
1633.41295,0.20934
1635.34142,0.21955
1637.26989,0.21472
1639.19836,0.20407
1641.12683,0.19727
1643.05530,0.20008
1644.98377,0.21750
1646.91223,0.23552
1648.84070,0.23233
1650.76917,0.23054
1652.69764,0.24093
1654.62611,0.23309
1656.55458,0.21372
1658.48305,0.20456
1660.41152,0.20769
1662.33998,0.21425
1664.26845,0.20833
1666.19692,0.20194
1668.12539,0.21033
1670.05386,0.22430
1671.98233,0.22433
1673.91080,0.22010
1675.83926,0.21435
1677.76773,0.20789
1679.69620,0.21046
1681.62467,0.22534
1683.55314,0.24439
1685.48161,0.23546
1687.41008,0.21505
1689.33855,0.20524
1691.26701,0.20111
1693.19548,0.20180
1695.12395,0.21091
1697.05242,0.22386
1698.98089,0.22669
1700.90936,0.21911
1702.83783,0.21620
1704.76629,0.21802
1706.69476,0.21307
1708.62323,0.20392
1710.55170,0.20048
1712.48017,0.20491
1714.40864,0.21896
1716.33711,0.23444
1718.26558,0.22419
1720.19404,0.20533
1722.12251,0.19781
1724.05098,0.19318
1725.97945,0.18935
1727.90792,0.19175
1729.83639,0.19967
1731.76486,0.20956
1733.69332,0.21603
1735.62179,0.20950
1737.55026,0.20295
1739.47873,0.20335
1741.40720,0.20475
1743.33567,0.20369
1745.26414,0.20424
1747.19261,0.20917
1749.12107,0.21374
1751.04954,0.21010
1752.97801,0.20318
1754.90648,0.19990
1756.83495,0.19741
1758.76342,0.19439
1760.69189,0.19524
1762.62035,0.19529
1764.54882,0.19044
1766.47729,0.18852
1768.40576,0.19479
1770.33423,0.20971
1772.26270,0.22179
1774.19117,0.21592
1776.11964,0.20513
1778.04810,0.20003
1779.97657,0.19929
1781.90504,0.19928
1783.83351,0.19818
1785.76198,0.19509
1787.69045,0.19368
1789.61892,0.19833
1791.54738,0.20418
1793.47585,0.20303
1795.40432,0.20143
1797.33279,0.20450
1799.26126,0.20754
1801.18973,0.20487
1803.11820,0.19795
1805.04666,0.19317
1806.97513,0.19188
1808.90360,0.19271
1810.83207,0.19337
1812.76054,0.19132
1814.68901,0.18966
1816.61748,0.19254
1818.54595,0.19831
1820.47441,0.20127
1822.40288,0.20030
1824.33135,0.19866
1826.25982,0.20074
1828.18829,0.20712
1830.11676,0.20803
1832.04523,0.19970
1833.97369,0.19373
1835.90216,0.19297
1837.83063,0.19158
1839.75910,0.18878
1841.68757,0.19030
1843.61604,0.19630
1845.54451,0.19838
1847.47298,0.19464
1849.40144,0.19053
1851.32991,0.18803
1853.25838,0.18615
1855.18685,0.18557
1857.11532,0.18853
1859.04379,0.19249
1860.97226,0.19245
1862.90072,0.18978
1864.82919,0.19328
1866.75766,0.20515
1868.68613,0.20970
1870.61460,0.19766
1872.54307,0.18645
1874.47154,0.18464
1876.40001,0.18815
1878.32847,0.19107
1880.25694,0.19164
1882.18541,0.19283
1884.11388,0.19439
1886.04235,0.19348
1887.97082,0.19282
1889.89929,0.19216
1891.82775,0.18940
1893.75622,0.18879
1895.68469,0.19016
1897.61316,0.18989
1899.54163,0.18813
1901.47010,0.18686
1903.39857,0.18784
1905.32704,0.18984
1907.25550,0.19093
1909.18397,0.19177
1911.11244,0.19250
1913.04091,0.19275
1914.96938,0.19294
1916.89785,0.19277
1918.82632,0.19095
1920.75478,0.19057
1922.68325,0.19345
1924.61172,0.19245
1926.54019,0.18809
1928.46866,0.18770
1930.39713,0.18870
1932.32560,0.18763
1934.25407,0.18778
1936.18253,0.18931
1938.11100,0.18929
1940.03947,0.19035
1941.96794,0.19499
1943.89641,0.19765
1945.82488,0.19586
1947.75335,0.19441
1949.68181,0.19370
1951.61028,0.19197
1953.53875,0.19022
1955.46722,0.18813
1957.39569,0.18613
1959.32416,0.18718
1961.25263,0.19030
1963.18110,0.19377
1965.10956,0.19744
1967.03803,0.19651
1968.96650,0.19072
1970.89497,0.18686
1972.82344,0.18562
1974.75191,0.18463
1976.68038,0.18533
1978.60884,0.18828
1980.53731,0.18835
1982.46578,0.18592
1984.39425,0.18688
1986.32272,0.18963
1988.25119,0.19119
1990.17966,0.19251
1992.10812,0.19269
1994.03659,0.19038
1995.96506,0.18888
1997.89353,0.19009
1999.82200,0.19025
2001.75047,0.18665
2003.67894,0.18211
2005.60741,0.18139
2007.53587,0.18409
2009.46434,0.18601
2011.39281,0.18667
2013.32128,0.18826
2015.24975,0.19027
2017.17822,0.18968
2019.10669,0.18572
2021.03515,0.18295
2022.96362,0.18421
2024.89209,0.18614
2026.82056,0.18671
2028.74903,0.18636
2030.67750,0.18425
2032.60597,0.18193
2034.53444,0.18274
2036.46290,0.18735
2038.39137,0.19314
2040.31984,0.19518
2042.24831,0.19130
2044.17678,0.18668
2046.10525,0.18622
2048.03372,0.18827
2049.96218,0.19050
2051.89065,0.19212
2053.81912,0.19184
2055.74759,0.19049
2057.67606,0.19042
2059.60453,0.19129
2061.53300,0.19167
2063.46147,0.19117
2065.38993,0.18948
2067.31840,0.18798
2069.24687,0.18784
2071.17534,0.18908
2073.10381,0.19212
2075.03228,0.19469
2076.96075,0.19453
2078.88921,0.19300
2080.81768,0.19288
2082.74615,0.19345
2084.67462,0.19142
2086.60309,0.18846
2088.53156,0.18611
2090.46003,0.18363
2092.38850,0.18372
2094.31696,0.18596
2096.24543,0.18636
2098.17390,0.18582
2100.10237,0.18573
2102.03084,0.18402
2103.95931,0.18223
2105.88778,0.18342
2107.81624,0.18690
2109.74471,0.19094
2111.67318,0.19429
2113.60165,0.19550
2115.53012,0.19406
2117.45859,0.19113
2119.38706,0.18874
2121.31553,0.18883
2123.24399,0.18971
2125.17246,0.18977
2127.10093,0.19143
2129.02940,0.19320
2130.95787,0.19185
2132.88634,0.18943
2134.81481,0.18853
2136.74327,0.18836
2138.67174,0.18846
2140.60021,0.18928
2142.52868,0.18945
2144.45715,0.18963
2146.38562,0.19081
2148.31409,0.19115
2150.24255,0.19145
2152.17102,0.19243
2154.09949,0.19227
2156.02796,0.19199
2157.95643,0.19330
2159.88490,0.19454
2161.81337,0.19359
2163.74184,0.19124
2165.67030,0.18975
2167.59877,0.19040
2169.52724,0.19106
2171.45571,0.18862
2173.38418,0.18704
2175.31265,0.19059
2177.24112,0.19338
2179.16958,0.19236
2181.09805,0.19140
2183.02652,0.18979
2184.95499,0.18842
2186.88346,0.19015
2188.81193,0.19125
2190.74040,0.19055
2192.66887,0.19069
2194.59733,0.19102
2196.52580,0.19179
2198.45427,0.19290
2200.38274,0.19245
2202.31121,0.19145
2204.23968,0.19194
2206.16815,0.19340
2208.09661,0.19386
2210.02508,0.19296
2211.95355,0.19183
2213.88202,0.19144
2215.81049,0.19182
2217.73896,0.19247
2219.66743,0.19278
2221.59590,0.19117
2223.52436,0.18896
2225.45283,0.18953
2227.38130,0.19242
2229.30977,0.19494
2231.23824,0.19553
2233.16671,0.19523
2235.09518,0.19572
2237.02364,0.19576
2238.95211,0.19321
2240.88058,0.19046
2242.80905,0.19107
2244.73752,0.19203
2246.66599,0.19011
2248.59446,0.18796
2250.52293,0.18749
2252.45139,0.18771
2254.37986,0.18754
2256.30833,0.18712
2258.23680,0.18749
2260.16527,0.18849
2262.09374,0.18917
2264.02221,0.18945
2265.95067,0.18950
2267.87914,0.18959
2269.80761,0.18971
2271.73608,0.18956
2273.66455,0.18995
2275.59302,0.19059
2277.52149,0.19002
2279.44996,0.18877
2281.37842,0.18893
2283.30689,0.19021
2285.23536,0.19063
2287.16383,0.19075
2289.09230,0.19145
2291.02077,0.19173
2292.94924,0.19192
2294.87770,0.19342
2296.80617,0.19445
2298.73464,0.19318
2300.66311,0.19220
2302.59158,0.19248
2304.52005,0.19212
2306.44852,0.19112
2308.37699,0.19144
2310.30545,0.19445
2312.23392,0.19862
2314.16239,0.20298
2316.09086,0.20900
2318.01933,0.21291
2319.94780,0.20771
2321.87627,0.19678
2323.80473,0.19140
2325.73320,0.19680
2327.66167,0.20446
2329.59014,0.20418
2331.51861,0.20439
2333.44708,0.21072
2335.37555,0.21452
2337.30401,0.21853
2339.23248,0.22564
2341.16095,0.22722
2343.08942,0.22191
2345.01789,0.21483
2346.94636,0.20959
2348.87483,0.21034
2350.80330,0.21631
2352.73176,0.22315
2354.66023,0.23269
2356.58870,0.24048
2358.51717,0.23005
2360.44564,0.22706
2362.37411,0.23554
2364.30258,0.21554
2366.23104,0.19064
2368.15951,0.19316
2370.08798,0.20206
2372.01645,0.20332
2373.94492,0.20197
2375.87339,0.19841
2377.80186,0.19277
2379.73033,0.19002
2381.65879,0.19205
2383.58726,0.19366
2385.51573,0.19164
2387.44420,0.18817
2389.37267,0.18486
2391.30114,0.18422
2393.22961,0.18790
2395.15807,0.19106
2397.08654,0.19117
2399.01501,0.19207
2400.94348,0.19319
2402.87195,0.19136
2404.80042,0.19000
2406.72889,0.19143
2408.65736,0.19159
2410.58582,0.18977
2412.51429,0.18884
2414.44276,0.18903
2416.37123,0.18934
2418.29970,0.18925
2420.22817,0.18833
2422.15664,0.18710
2424.08510,0.18746
2426.01357,0.18852
2427.94204,0.18895
2429.87051,0.19095
2431.79898,0.19314
2433.72745,0.19251
2435.65592,0.19107
2437.58439,0.19142
2439.51285,0.19357
2441.44132,0.19504
2443.36979,0.19326
2445.29826,0.19084
2447.22673,0.19106
2449.15520,0.19334
2451.08367,0.19650
2453.01213,0.19771
2454.94060,0.19656
2456.86907,0.19567
2458.79754,0.19390
2460.72601,0.18954
2462.65448,0.18478
2464.58295,0.18324
2466.51142,0.18623
2468.43988,0.19073
2470.36835,0.19224
2472.29682,0.19233
2474.22529,0.19324
2476.15376,0.19242
2478.08223,0.19025
2480.01070,0.18852
2481.93916,0.18754
2483.86763,0.18749
2485.79610,0.18885
2487.72457,0.19199
2489.65304,0.19395
2491.58151,0.19226
2493.50998,0.19004
2495.43844,0.19216
2497.36691,0.19675
2499.29538,0.19774
2501.22385,0.19494
2503.15232,0.19243
2505.08079,0.19193
2507.00926,0.19382
2508.93773,0.19733
2510.86619,0.19795
2512.79466,0.19545
2514.72313,0.19542
2516.65160,0.19637
2518.58007,0.19327
2520.50854,0.18914
2522.43701,0.18833
2524.36547,0.18941
2526.29394,0.19044
2528.22241,0.19246
2530.15088,0.19525
2532.07935,0.19540
2534.00782,0.19308
2535.93629,0.19147
2537.86476,0.19046
2539.79322,0.19058
2541.72169,0.19439
2543.65016,0.19825
2545.57863,0.19635
2547.50710,0.19167
2549.43557,0.18924
2551.36404,0.18743
2553.29250,0.18488
2555.22097,0.18526
2557.14944,0.18950
2559.07791,0.19282
2561.00638,0.19269
2562.93485,0.19277
2564.86332,0.19617
2566.79179,0.19786
2568.72025,0.19500
2570.64872,0.19216
2572.57719,0.19090
2574.50566,0.19067
2576.43413,0.19224
2578.36260,0.19465
2580.29107,0.19369
2582.21953,0.18940
2584.14800,0.18886
2586.07647,0.19443
2588.00494,0.20114
2589.93341,0.20374
2591.86188,0.20208
2593.79035,0.19965
2595.71882,0.19633
2597.64728,0.19166
2599.57575,0.18919
2601.50422,0.18974
2603.43269,0.19080
2605.36116,0.19192
2607.28963,0.19291
2609.21810,0.19480
2611.14656,0.19703
2613.07503,0.19610
2615.00350,0.19470
2616.93197,0.19618
2618.86044,0.19740
2620.78891,0.19740
2622.71738,0.19835
2624.64585,0.19989
2626.57431,0.20112
2628.50278,0.20180
2630.43125,0.20048
2632.35972,0.19730
2634.28819,0.19612
2636.21666,0.19818
2638.14513,0.19892
2640.07359,0.19732
2642.00206,0.19748
2643.93053,0.19743
2645.85900,0.19474
2647.78747,0.19432
2649.71594,0.19563
2651.64441,0.19366
2653.57288,0.19112
2655.50134,0.19153
2657.42981,0.19361
2659.35828,0.19561
2661.28675,0.19618
2663.21522,0.19549
2665.14369,0.19556
2667.07216,0.19877
2669.00062,0.20382
2670.92909,0.20591
2672.85756,0.20475
2674.78603,0.20285
2676.71450,0.20154
2678.64297,0.20268
2680.57144,0.20478
2682.49990,0.20509
2684.42837,0.20468
2686.35684,0.20452
2688.28531,0.20358
2690.21378,0.20174
2692.14225,0.19956
2694.07072,0.19848
2695.99919,0.19970
2697.92765,0.20121
2699.85612,0.20056
2701.78459,0.19830
2703.71306,0.19664
2705.64153,0.19739
2707.57000,0.20058
2709.49847,0.20256
2711.42693,0.20153
2713.35540,0.20092
2715.28387,0.20148
2717.21234,0.20108
2719.14081,0.19956
2721.06928,0.19905
2722.99775,0.20019
2724.92622,0.20082
2726.85468,0.20133
2728.78315,0.20269
2730.71162,0.20331
2732.64009,0.20299
2734.56856,0.20282
2736.49703,0.20214
2738.42550,0.20093
2740.35396,0.20083
2742.28243,0.20159
2744.21090,0.20190
2746.13937,0.20141
2748.06784,0.20019
2749.99631,0.19999
2751.92478,0.20093
2753.85325,0.20044
2755.78171,0.20045
2757.71018,0.20352
2759.63865,0.20601
2761.56712,0.20482
2763.49559,0.20228
2765.42406,0.20309
2767.35253,0.20838
2769.28099,0.21350
2771.20946,0.21400
2773.13793,0.21177
2775.06640,0.20999
2776.99487,0.20847
2778.92334,0.20704
2780.85181,0.20418
2782.78028,0.19978
2784.70874,0.19824
2786.63721,0.20159
2788.56568,0.20647
2790.49415,0.20771
2792.42262,0.20464
2794.35109,0.20232
2796.27956,0.20389
2798.20802,0.20609
2800.13649,0.20687
2802.06496,0.20852
2803.99343,0.21135
2805.92190,0.21437
2807.85037,0.21601
2809.77884,0.21335
2811.70731,0.20835
2813.63577,0.20619
2815.56424,0.20530
2817.49271,0.20359
2819.42118,0.20406
2821.34965,0.20537
2823.27812,0.20588
2825.20659,0.20743
2827.13505,0.20967
2829.06352,0.21123
2830.99199,0.21100
2832.92046,0.20917
2834.84893,0.20761
2836.77740,0.20782
2838.70587,0.20735
2840.63433,0.20312
2842.56280,0.19936
2844.49127,0.20117
2846.41974,0.20583
2848.34821,0.20728
2850.27668,0.20570
2852.20515,0.20764
2854.13362,0.21232
2856.06208,0.21168
2857.99055,0.20637
2859.91902,0.20399
2861.84749,0.20691
2863.77596,0.20971
2865.70443,0.20833
2867.63290,0.20664
2869.56136,0.20690
2871.48983,0.20659
2873.41830,0.20478
2875.34677,0.20324
2877.27524,0.20526
2879.20371,0.21021
2881.13218,0.21235
2883.06065,0.20942
2884.98911,0.20531
2886.91758,0.20508
2888.84605,0.20876
2890.77452,0.21066
2892.70299,0.20890
2894.63146,0.20447
2896.55993,0.19971
2898.48839,0.20089
2900.41686,0.20706
2902.34533,0.21094
2904.27380,0.20910
2906.20227,0.20478
2908.13074,0.20266
2910.05921,0.20277
2911.98768,0.20485
2913.91614,0.20760
2915.84461,0.20731
2917.77308,0.20349
2919.70155,0.19987
2921.63002,0.20015
2923.55849,0.20370
2925.48696,0.20086
2927.41542,0.18516
2929.34389,0.17510
2931.27236,0.18711
2933.20083,0.20332
2935.12930,0.20616
2937.05777,0.20476
2938.98624,0.20731
2940.91471,0.20674
2942.84317,0.19987
2944.77164,0.19505
2946.70011,0.19714
2948.62858,0.20198
2950.55705,0.20502
2952.48552,0.20634
2954.41399,0.20639
2956.34245,0.20344
2958.27092,0.20180
2960.19939,0.20627
2962.12786,0.21238
2964.05633,0.21632
2965.98480,0.21609
2967.91327,0.21237
2969.84174,0.21122
2971.77020,0.21272
2973.69867,0.21216
2975.62714,0.20944
2977.55561,0.20900
2979.48408,0.21302
2981.41255,0.21664
2983.34102,0.21787
2985.26948,0.21885
2987.19795,0.21632
2989.12642,0.21194
2991.05489,0.21155
2992.98336,0.21241
2994.91183,0.21273
2996.84030,0.21317
2998.76877,0.21246
3000.69723,0.21171
3002.62570,0.21165
3004.55417,0.21138
3006.48264,0.20913
3008.41111,0.20607
3010.33958,0.20477
3012.26805,0.19818
3014.19651,0.17871
3016.12498,0.16114
3018.05345,0.16888
3019.98192,0.19405
3021.91039,0.21179
3023.83886,0.21878
3025.76733,0.21958
3027.69579,0.21506
3029.62426,0.21134
3031.55273,0.21308
3033.48120,0.21868
3035.40967,0.22048
3037.33814,0.21461
3039.26661,0.21066
3041.19508,0.21223
3043.12354,0.21247
3045.05201,0.21028
3046.98048,0.20912
3048.90895,0.21076
3050.83742,0.21123
3052.76589,0.20971
3054.69436,0.20879
3056.62282,0.20548
3058.55129,0.20337
3060.47976,0.20636
3062.40823,0.20849
3064.33670,0.20799
3066.26517,0.20765
3068.19364,0.21048
3070.12211,0.21623
3072.05057,0.21802
3073.97904,0.21362
3075.90751,0.20940
3077.83598,0.21109
3079.76445,0.21623
3081.69292,0.21602
3083.62139,0.20804
3085.54985,0.20106
3087.47832,0.20223
3089.40679,0.20704
3091.33526,0.20974
3093.26373,0.21007
3095.19220,0.20803
3097.12067,0.20645
3099.04914,0.20772
3100.97760,0.20804
3102.90607,0.20547
3104.83454,0.20241
3106.76301,0.20052
3108.69148,0.20242
3110.61995,0.20467
3112.54842,0.20152
3114.47688,0.20013
3116.40535,0.20539
3118.33382,0.20754
3120.26229,0.20042
3122.19076,0.19435
3124.11923,0.19824
3126.04770,0.20403
3127.97617,0.20469
3129.90463,0.20324
3131.83310,0.20289
3133.76157,0.20429
3135.69004,0.20644
3137.61851,0.20865
3139.54698,0.20968
3141.47545,0.20769
3143.40391,0.20638
3145.33238,0.20998
3147.26085,0.21277
3149.18932,0.21054
3151.11779,0.21030
3153.04626,0.21389
3154.97473,0.21508
3156.90320,0.21374
3158.83166,0.21153
3160.76013,0.20885
3162.68860,0.20808
3164.61707,0.20957
3166.54554,0.21415
3168.47401,0.22114
3170.40248,0.22355
3172.33094,0.22014
3174.25941,0.21904
3176.18788,0.21956
3178.11635,0.21576
3180.04482,0.21440
3181.97329,0.21923
3183.90176,0.22270
3185.83022,0.22182
3187.75869,0.21651
3189.68716,0.20779
3191.61563,0.20436
3193.54410,0.21113
3195.47257,0.21869
3197.40104,0.21929
3199.32951,0.21679
3201.25797,0.21595
3203.18644,0.21779
3205.11491,0.21810
3207.04338,0.21322
3208.97185,0.20904
3210.90032,0.20899
3212.82879,0.21065
3214.75725,0.21280
3216.68572,0.21301
3218.61419,0.21012
3220.54266,0.20408
3222.47113,0.19994
3224.39960,0.20544
3226.32807,0.21564
3228.25654,0.21818
3230.18500,0.21121
3232.11347,0.20437
3234.04194,0.20320
3235.97041,0.20569
3237.89888,0.20995
3239.82735,0.21420
3241.75582,0.21605
3243.68428,0.21373
3245.61275,0.21093
3247.54122,0.21301
3249.46969,0.21859
3251.39816,0.22492
3253.32663,0.22743
3255.25510,0.22059
3257.18357,0.20902
3259.11203,0.20334
3261.04050,0.20683
3262.96897,0.21021
3264.89744,0.20594
3266.82591,0.20327
3268.75438,0.20915
3270.68285,0.21535
3272.61131,0.21602
3274.53978,0.21244
3276.46825,0.20840
3278.39672,0.20800
3280.32519,0.21075
3282.25366,0.21547
3284.18213,0.21892
3286.11060,0.21655
3288.03906,0.21284
3289.96753,0.21296
3291.89600,0.21345
3293.82447,0.21126
3295.75294,0.20882
3297.68141,0.20849
3299.60988,0.21101
3301.53834,0.21471
3303.46681,0.21308
3305.39528,0.20252
3307.32375,0.19426
3309.25222,0.20052
3311.18069,0.21106
3313.10916,0.21380
3315.03763,0.21389
3316.96609,0.21506
3318.89456,0.21689
3320.82303,0.21829
3322.75150,0.21763
3324.67997,0.21564
3326.60844,0.21400
3328.53691,0.21416
3330.46537,0.21460
3332.39384,0.21420
3334.32231,0.21463
3336.25078,0.21717
3338.17925,0.22040
3340.10772,0.22236
3342.03619,0.22366
3343.96466,0.22219
3345.89312,0.21709
3347.82159,0.21407
3349.75006,0.21531
3351.67853,0.21568
3353.60700,0.21326
3355.53547,0.21129
3357.46394,0.20970
3359.39240,0.20810
3361.32087,0.20956
3363.24934,0.21353
3365.17781,0.21493
3367.10628,0.21296
3369.03475,0.21219
3370.96322,0.21422
3372.89168,0.21505
3374.82015,0.21165
3376.74862,0.20821
3378.67709,0.20927
3380.60556,0.21318
3382.53403,0.21549
3384.46250,0.21502
3386.39097,0.21436
3388.31943,0.21134
3390.24790,0.20690
3392.17637,0.21050
3394.10484,0.21878
3396.03331,0.21933
3397.96178,0.21656
3399.89025,0.21875
3401.81871,0.21917
3403.74718,0.21353
3405.67565,0.20880
3407.60412,0.20880
3409.53259,0.21033
3411.46106,0.21062
3413.38953,0.21069
3415.31800,0.21135
3417.24646,0.21272
3419.17493,0.21565
3421.10340,0.21751
3423.03187,0.21513
3424.96034,0.21109
3426.88881,0.20866
3428.81728,0.20693
3430.74574,0.20389
3432.67421,0.20102
3434.60268,0.20141
3436.53115,0.20201
3438.45962,0.19759
3440.38809,0.19406
3442.31656,0.19788
3444.24503,0.20449
3446.17349,0.21039
3448.10196,0.21373
3450.03043,0.21349
3451.95890,0.21090
3453.88737,0.20559
3455.81584,0.20125
3457.74431,0.20142
3459.67277,0.20091
3461.60124,0.19486
3463.52971,0.18864
3465.45818,0.18702
3467.38665,0.18903
3469.31512,0.19392
3471.24359,0.19765
3473.17206,0.19704
3475.10052,0.19460
3477.02899,0.19192
3478.95746,0.18980
3480.88593,0.18920
3482.81440,0.18866
3484.74287,0.19138
3486.67134,0.19760
3488.59980,0.19706
3490.52827,0.18970
3492.45674,0.18432
3494.38521,0.18091
3496.31368,0.17705
3498.24215,0.17559
3500.17062,0.17979
3502.09909,0.18767
3504.02755,0.19105
3505.95602,0.18581
3507.88449,0.18000
3509.81296,0.18010
3511.74143,0.18187
3513.66990,0.18201
3515.59837,0.18323
3517.52683,0.18424
3519.45530,0.18406
3521.38377,0.18703
3523.31224,0.19235
3525.24071,0.19533
3527.16918,0.19446
3529.09765,0.18912
3531.02611,0.17964
3532.95458,0.16991
3534.88305,0.16692
3536.81152,0.17224
3538.73999,0.17837
3540.66846,0.18081
3542.59693,0.18125
3544.52540,0.18086
3546.45386,0.17948
3548.38233,0.17777
3550.31080,0.17514
3552.23927,0.16935
3554.16774,0.16371
3556.09621,0.16290
3558.02468,0.16465
3559.95314,0.16637
3561.88161,0.16673
3563.81008,0.16919
3565.73855,0.18027
3567.66702,0.18608
3569.59549,0.17365
3571.52396,0.16178
3573.45243,0.15919
3575.38089,0.16127
3577.30936,0.16202
3579.23783,0.16063
3581.16630,0.15883
3583.09477,0.15724
3585.02324,0.15834
3586.95171,0.16422
3588.88017,0.16531
3590.80864,0.15922
3592.73711,0.15685
3594.66558,0.16012
3596.59405,0.16348
3598.52252,0.16611
3600.45099,0.16706
3602.37946,0.16212
3604.30792,0.15919
3606.23639,0.16695
3608.16486,0.17511
3610.09333,0.17184
3612.02180,0.16590
3613.95027,0.16201
3615.87874,0.15634
3617.80720,0.15028
3619.73567,0.14682
3621.66414,0.14297
3623.59261,0.14026
3625.52108,0.14404
3627.44955,0.15643
3629.37802,0.16560
3631.30649,0.15914
3633.23495,0.15230
3635.16342,0.14973
3637.09189,0.15076
3639.02036,0.15308
3640.94883,0.15125
3642.87730,0.14700
3644.80577,0.14883
3646.73423,0.16254
3648.66270,0.17952
3650.59117,0.16729
3652.51964,0.14597
3654.44811,0.13871
3656.37658,0.13859
3658.30505,0.13972
3660.23352,0.14229
3662.16198,0.14313
3664.09045,0.13933
3666.01892,0.13598
3667.94739,0.14231
3669.87586,0.15636
3671.80433,0.15977
3673.73280,0.15739
3675.66126,0.15849
3677.58973,0.15763
3679.51820,0.15193
3681.44667,0.14502
3683.37514,0.14075
3685.30361,0.14038
3687.23208,0.14567
3689.16055,0.15347
3691.08901,0.15107
3693.01748,0.14307
3694.94595,0.13756
3696.87442,0.13624
3698.80289,0.13874
3700.73136,0.14175
3702.65983,0.14008
3704.58829,0.13270
3706.51676,0.12755
3708.44523,0.13296
3710.37370,0.14827
3712.30217,0.14946
3714.23064,0.13451
3716.15911,0.12962
3718.08757,0.13658
3720.01604,0.14437
3721.94451,0.14702
3723.87298,0.14620
3725.80145,0.14211
3727.72992,0.13784
3729.65839,0.13935
3731.58686,0.14623
3733.51532,0.15613
3735.44379,0.16321
3737.37226,0.16132
3739.30073,0.15831
3741.22920,0.15867
3743.15767,0.15934
3745.08614,0.15349
3747.01460,0.14571
3748.94307,0.14938
3750.87154,0.16195
3752.80001,0.15751
3754.72848,0.14533
3756.65695,0.14287
3758.58542,0.14547
3760.51389,0.14354
3762.44235,0.14104
3764.37082,0.14165
3766.29929,0.14126
3768.22776,0.13824
3770.15623,0.13328
3772.08470,0.12685
3774.01317,0.12245
3775.94163,0.12385
3777.87010,0.13099
3779.79857,0.13644
3781.72704,0.13741
3783.65551,0.13840
3785.58398,0.13782
3787.51245,0.13486
3789.44092,0.13158
3791.36938,0.12829
3793.29785,0.12645
3795.22632,0.12746
3797.15479,0.13014
3799.08326,0.13520
3801.01173,0.14055
3802.94020,0.13306
3804.86866,0.12382
3806.79713,0.12517
3808.72560,0.12790
3810.65407,0.12536
3812.58254,0.12511
3814.51101,0.13495
3816.43948,0.14763
3818.36795,0.14973
3820.29641,0.14810
3822.22488,0.13977
3824.15335,0.12885
3826.08182,0.12356
3828.01029,0.12448
3829.93876,0.12867
3831.86723,0.12905
3833.79569,0.12750
3835.72416,0.13527
3837.65263,0.14819
3839.58110,0.14739
3841.50957,0.13906
3843.43804,0.13441
3845.36651,0.13139
3847.29498,0.13104
3849.22344,0.13617
3851.15191,0.14417
3853.08038,0.14836
3855.00885,0.14634
3856.93732,0.13961
3858.86579,0.13274
3860.79426,0.13422
3862.72272,0.14266
3864.65119,0.14115
3866.57966,0.12854
3868.50813,0.12162
3870.43660,0.12620
3872.36507,0.13632
3874.29354,0.14175
3876.22200,0.13789
3878.15047,0.13161
3880.07894,0.12969
3882.00741,0.12992
3883.93588,0.12570
3885.86435,0.11974
3887.79282,0.12252
3889.72129,0.13069
3891.64975,0.13034
3893.57822,0.12023
3895.50669,0.11563
3897.43516,0.11788
3899.36363,0.12332
3901.29210,0.12872
3903.22057,0.12630
3905.14903,0.11930
3907.07750,0.11671
3909.00597,0.11512
3910.93444,0.11214
3912.86291,0.10960
3914.79138,0.11036
3916.71985,0.11636
3918.64832,0.12192
3920.57678,0.12055
3922.50525,0.11580
3924.43372,0.11250
3926.36219,0.11074
3928.29066,0.11060
3930.21913,0.11443
3932.14760,0.11928
3934.07606,0.11892
3936.00453,0.11721
3937.93300,0.11651
3939.86147,0.11312
3941.78994,0.10720
3943.71841,0.10375
3945.64688,0.10857
3947.57535,0.11681
3949.50381,0.11956
3951.43228,0.11920
3953.36075,0.11770
3955.28922,0.11367
3957.21769,0.11226
3959.14616,0.11568
3961.07463,0.11840
3963.00309,0.11570
3964.93156,0.11092
3966.86003,0.11195
3968.78850,0.11585
3970.71697,0.11465
3972.64544,0.11200
3974.57391,0.11038
3976.50238,0.10458
3978.43084,0.09805
3980.35931,0.09963
3982.28778,0.10652
3984.21625,0.10959
3986.14472,0.10818
3988.07319,0.10719
3990.00166,0.10780
3991.93012,0.10535
3993.85859,0.10103
3995.78706,0.10192
3997.71553,0.10399
3999.64400,0.10353
4001.57247,0.10485
4003.50094,0.10387
4005.42941,0.09946
4007.35787,0.09898
4009.28634,0.10209
4011.21481,0.10652
4013.14328,0.10853
4015.07175,0.10279
4017.00022,0.09814
4018.92869,0.10217
4020.85715,0.10373
4022.78562,0.09795
4024.71409,0.09209
4026.64256,0.08813
4028.57103,0.08962
4030.49950,0.09974
4032.42797,0.10894
4034.35644,0.10777
4036.28490,0.10067
4038.21337,0.09615
4040.14184,0.09731
4042.07031,0.10156
4043.99878,0.10347
4045.92725,0.10355
4047.85572,0.10493
4049.78418,0.10607
4051.71265,0.10713
4053.64112,0.10847
4055.56959,0.10842
4057.49806,0.10669
4059.42653,0.10014
4061.35500,0.09099
4063.28346,0.09094
4065.21193,0.09869
4067.14040,0.10049
4069.06887,0.09383
4070.99734,0.08653
4072.92581,0.08363
4074.85428,0.08591
4076.78275,0.09016
4078.71121,0.09120
4080.63968,0.08823
4082.56815,0.08648
4084.49662,0.08933
4086.42509,0.09183
4088.35356,0.09057
4090.28203,0.08835
4092.21049,0.08788
4094.13896,0.08964
4096.06743,0.09008
4097.99590,0.08773
4099.92437,0.08667
4101.85284,0.08767
4103.78131,0.08659
4105.70978,0.08532
4107.63824,0.09048
4109.56671,0.09564
4111.49518,0.09180
4113.42365,0.08780
4115.35212,0.09082
4117.28059,0.09347
4119.20906,0.09356
4121.13752,0.09272
4123.06599,0.09068
4124.99446,0.08940
4126.92293,0.08858
4128.85140,0.08939
4130.77987,0.09127
4132.70834,0.08906
4134.63681,0.08456
4136.56527,0.08501
4138.49374,0.08942
4140.42221,0.08975
4142.35068,0.08636
4144.27915,0.08732
4146.20762,0.09063
4148.13609,0.08595
4150.06455,0.07585
4151.99302,0.07088
4153.92149,0.07191
4155.84996,0.07526
4157.77843,0.07875
4159.70690,0.08121
4161.63537,0.08378
4163.56384,0.08655
4165.49230,0.08816
4167.42077,0.08860
4169.34924,0.08726
4171.27771,0.08428
4173.20618,0.08146
4175.13465,0.07735
4177.06312,0.07072
4178.99158,0.06400
4180.92005,0.06139
4182.84852,0.06652
4184.77699,0.07547
4186.70546,0.08051
4188.63393,0.07911
4190.56240,0.07379
4192.49087,0.07037
4194.41933,0.07244
4196.34780,0.07636
4198.27627,0.07939
4200.20474,0.08435
4202.13321,0.08928
4204.06168,0.08756
4205.99015,0.08048
4207.91861,0.07784
4209.84708,0.08197
4211.77555,0.08138
4213.70402,0.07200
4215.63249,0.06333
4217.56096,0.06115
4219.48943,0.06450
4221.41789,0.07026
4223.34636,0.07317
4225.27483,0.07016
4227.20330,0.06438
4229.13177,0.06149
4231.06024,0.06412
4232.98871,0.06854
4234.91718,0.07035
4236.84564,0.07016
4238.77411,0.06821
4240.70258,0.06495
4242.63105,0.06406
4244.55952,0.06852
4246.48799,0.07513
4248.41646,0.07743
4250.34492,0.07427
4252.27339,0.07080
4254.20186,0.07017
4256.13033,0.06723
4258.05880,0.06013
4259.98727,0.05576
4261.91574,0.05695
4263.84421,0.06069
4265.77267,0.06561
4267.70114,0.07068
4269.62961,0.07238
4271.55808,0.06565
4273.48655,0.05110
4275.41502,0.04290
4277.34349,0.04910
4279.27195,0.06029
4281.20042,0.06634
4283.12889,0.06525
4285.05736,0.06283
4286.98583,0.06110
4288.91430,0.05722
4290.84277,0.05296
4292.77124,0.05152
4294.69970,0.05334
4296.62817,0.05802
4298.55664,0.06454
4300.48511,0.06877
4302.41358,0.06820
4304.34205,0.06460
4306.27052,0.06350
4308.19898,0.06488
4310.12745,0.06026
4312.05592,0.05385
4313.98439,0.05408
4315.91286,0.05734
4317.84133,0.05750
4319.76980,0.05168
4321.69827,0.04457
4323.62673,0.04235
4325.55520,0.04456
4327.48367,0.04812
4329.41214,0.05128
4331.34061,0.05558
4333.26908,0.06281
4335.19755,0.06811
4337.12601,0.06358
4339.05448,0.05417
4340.98295,0.05092
4342.91142,0.05057
4344.83989,0.04655
4346.76836,0.04331
4348.69683,0.04460
4350.62530,0.04937
4352.55376,0.05654
4354.48223,0.05948
4356.41070,0.05360
4358.33917,0.04364
4360.26764,0.03638
4362.19611,0.03660
4364.12458,0.03816
4366.05304,0.03653
4367.98151,0.04235
4369.90998,0.05392
4371.83845,0.05746
4373.76692,0.05487
4375.69539,0.05437
4377.62386,0.05232
4379.55232,0.04625
4381.48079,0.04441
4383.40926,0.04603
4385.33773,0.04353
4387.26620,0.04205
4389.19467,0.04385
4391.12314,0.04045
4393.05161,0.03310
4394.98007,0.03123
4396.90854,0.03771
4398.83701,0.04793
4400.76548,0.05229
4402.69395,0.04404
4404.62242,0.03094
4406.55089,0.02528
4408.47935,0.02684
4410.40782,0.02754
4412.33629,0.02470
4414.26476,0.02129
4416.19323,0.02099
4418.12170,0.02775
4420.05017,0.03860
4421.97864,0.04374
4423.90710,0.04225
4425.83557,0.04146
4427.76404,0.04295
4429.69251,0.04214
4431.62098,0.03638
4433.54945,0.03369
4435.47792,0.03877
4437.40638,0.03965
4439.33485,0.03487
4441.26332,0.03327
4443.19179,0.03186
4445.12026,0.02555
4447.04873,0.01806
4448.97720,0.01906
4450.90567,0.02547
4452.83413,0.02449
4454.76260,0.02114
4456.69107,0.02582
4458.61954,0.03332
4460.54801,0.03644
4462.47648,0.03707
4464.40495,0.03436
4466.33341,0.03197
4468.26188,0.03642
4470.19035,0.03571
4472.11882,0.02562
4474.04729,0.02294
4475.97576,0.02807
4477.90423,0.02755
4479.83270,0.02352
4481.76116,0.02389
4483.68963,0.02636
4485.61810,0.02567
4487.54657,0.02404
4489.47504,0.02588
4491.40351,0.02825
4493.33198,0.02985
4495.26044,0.03008
4497.18891,0.02235
4499.11738,0.00956
4501.04585,0.00250
4502.97432,0.00299
4504.90279,0.00616
4506.83126,0.00734
4508.75973,0.00739
4510.68819,0.01346
4512.61666,0.02219
4514.54513,0.02009
4516.47360,0.01464
4518.40207,0.02224
4520.33054,0.03415
4522.25901,0.03646
4524.18747,0.02769
4526.11594,0.01495
4528.04441,0.01412
4529.97288,0.02757
4531.90135,0.03802
4533.82982,0.03660
4535.75829,0.03010
4537.68676,0.02307
4539.61522,0.01478
4541.54369,0.00844
4543.47216,0.00432
4545.40063,0.00197
4547.32910,0.00723
4549.25757,0.01992
4551.18604,0.03100
4553.11450,0.03118
4555.04297,0.02111
4556.97144,0.01510
4558.89991,0.01741
4560.82838,0.01528
4562.75685,0.01126
4564.68532,0.01856
4566.61378,0.02564
4568.54225,0.01844
4570.47072,0.01024
4572.39919,0.00896
4574.32766,0.00854
4576.25613,0.00997
4578.18460,0.01104
4580.11307,0.00561
4582.04153,-0.00123
4583.97000,-0.00082
4585.89847,0.00113
4587.82694,0.00149
4589.75541,0.00773
4591.68388,0.01294
4593.61235,0.01245
4595.54081,0.01413
4597.46928,0.01554
4599.39775,0.01349
4601.32622,0.00857
4603.25469,-0.00127
4605.18316,-0.00490
4607.11163,0.00804
4609.04010,0.01811
4610.96856,0.00920
4612.89703,-0.00292
4614.82550,-0.00688
4616.75397,-0.00321
4618.68244,0.00781
4620.61091,0.01504
4622.53938,0.01325
4624.46784,0.00795
4626.39631,0.00770
4628.32478,0.01564
4630.25325,0.02035
4632.18172,0.01555
4634.11019,0.00571
4636.03866,0.00068
4637.96713,0.00490
4639.89559,0.01243
4641.82406,0.01919
4643.75253,0.01845
4645.68100,0.01051
4647.60947,0.00739
4649.53794,0.00974
4651.46641,0.00696
4653.39487,-0.00262
4655.32334,-0.00846
4657.25181,-0.00271
4659.18028,0.01047
4661.10875,0.01879
4663.03722,0.01752
4664.96569,0.01607
4666.89416,0.01449
4668.82262,0.00577
4670.75109,0.00106
4672.67956,0.00374
4674.60803,0.00524
4676.53650,0.01083
4678.46497,0.01648
4680.39344,0.01140
4682.32190,0.00494
4684.25037,0.00589
4686.17884,0.00870
4688.10731,0.00660
4690.03578,0.00068
4691.96425,0.00117
4693.89272,0.01040
4695.82119,0.01582
4697.74965,0.01258
4699.67812,0.00963
4701.60659,0.01307
4703.53506,0.01598
4705.46353,0.01118
4707.39200,0.00663
4709.32047,0.00837
4711.24893,0.01196
4713.17740,0.01701
4715.10587,0.02464
4717.03434,0.02710
4718.96281,0.01696
4720.89128,0.00312
4722.81975,-0.00153
4724.74821,-0.00041
4726.67668,-0.00255
4728.60515,-0.00507
4730.53362,-0.00071
4732.46209,0.00899
4734.39056,0.01741
4736.31903,0.01773
4738.24750,0.01014
4740.17596,0.00855
4742.10443,0.01553
4744.03290,0.01658
4745.96137,0.00933
4747.88984,0.00247
4749.81831,-0.00296
4751.74678,-0.01143
4753.67524,-0.01380
4755.60371,-0.00042
4757.53218,0.00617
4759.46065,-0.00411
4761.38912,-0.00488
4763.31759,0.00660
4765.24606,0.01132
4767.17453,0.01239
4769.10299,0.01278
4771.03146,-0.00013
4772.95993,-0.01712
4774.88840,-0.01278
4776.81687,0.00532
4778.74534,0.01231
4780.67381,0.00485
4782.60227,-0.00374
4784.53074,-0.00393
4786.45921,0.00468
4788.38768,0.01636
4790.31615,0.02436
4792.24462,0.02668
4794.17309,0.02642
4796.10156,0.02363
4798.03002,0.02050
4799.95849,0.02452
4801.88696,0.02844
4803.81543,0.02199
4805.74390,0.01527
4807.67237,0.01086
4809.60084,0.00672
4811.52930,0.00790
4813.45777,0.00471
4815.38624,-0.00426
4817.31471,-0.01004
4819.24318,-0.01279
4821.17165,-0.01275
4823.10012,-0.00970
4825.02859,0.00018
4826.95705,0.01754
4828.88552,0.03094
4830.81399,0.03227
4832.74246,0.02504
4834.67093,0.01958
4836.59940,0.01674
4838.52787,0.00997
4840.45633,0.00307
4842.38480,0.00487
4844.31327,0.01534
4846.24174,0.02188
4848.17021,0.01877
4850.09868,0.01803
4852.02715,0.02323
4853.95562,0.01995
4855.88408,0.00516
4857.81255,-0.00508
4859.74102,-0.00380
4861.66949,0.00267
4863.59796,0.01372
4865.52643,0.02810
4867.45490,0.03458
4869.38336,0.02801
4871.31183,0.01611
4873.24030,0.00847
4875.16877,0.00868
4877.09724,0.01265
4879.02571,0.01151
4880.95418,0.00240
4882.88265,-0.00338
4884.81111,-0.00054
4886.73958,0.00061
4888.66805,0.00000
4890.59652,0.00658
4892.52499,0.01310
4894.45346,0.01108
4896.38193,0.00928
4898.31039,0.00994
4900.23886,0.00938
4902.16733,0.01229
4904.09580,0.01112
4906.02427,0.00189
4907.95274,0.00117
4909.88121,0.00938
4911.80967,0.01118
4913.73814,0.00438
4915.66661,0.00080
4917.59508,0.00373
4919.52355,0.00901
4921.45202,0.01548
4923.38049,0.01838
4925.30896,0.01253
4927.23742,0.00080
4929.16589,-0.00743
4931.09436,-0.00358
4933.02283,0.01611
4934.95130,0.04216
4936.87977,0.05571
4938.80824,0.05400
4940.73670,0.04604
4942.66517,0.03014
4944.59364,0.00177
4946.52211,-0.02116
4948.45058,-0.01812
4950.37905,-0.00202
4952.30752,0.01260
4954.23599,0.02627
4956.16445,0.02705
4958.09292,0.01062
4960.02139,0.00012
4961.94986,0.01119
4963.87833,0.02513
4965.80680,0.02100
4967.73527,0.00933
4969.66373,0.00812
4971.59220,0.01937
4973.52067,0.02915
4975.44914,0.02181
4977.37761,0.00788
4979.30608,0.00089
4981.23455,-0.00644
4983.16302,-0.01268
4985.09148,-0.00589
4987.01995,0.00331
4988.94842,0.00091
4990.87689,-0.00495
4992.80536,-0.01401
4994.73383,-0.02193
4996.66230,-0.01193
4998.59076,0.00568
5000.51923,0.00975
5002.44770,0.00544
5004.37617,0.01145
5006.30464,0.01914
5008.23311,0.00910
5010.16158,-0.00777
5012.09005,-0.01417
5014.01851,-0.01245
5015.94698,-0.00391
5017.87545,0.01140
5019.80392,0.02204
5021.73239,0.02079
5023.66086,0.00558
5025.58933,-0.00710
5027.51779,0.00461
5029.44626,0.02761
5031.37473,0.04648
5033.30320,0.05185
5035.23167,0.03252
5037.16014,0.00487
5039.08861,-0.00331
5041.01708,0.00927
5042.94554,0.02002
5044.87401,0.01913
5046.80248,0.01723
5048.73095,0.02486
5050.65942,0.03939
5052.58789,0.04988
5054.51636,0.05277
5056.44482,0.05433
5058.37329,0.05706
5060.30176,0.05296
5062.23023,0.03694
5064.15870,0.01825
5066.08717,0.01075
5068.01564,0.01672
5069.94410,0.02550
5071.87257,0.02805
5073.80104,0.02530
5075.72951,0.02054
5077.65798,0.01090
5079.58645,0.00095
5081.51492,0.00014
5083.44339,0.00792
5085.37185,0.01918
5087.30032,0.02087
5089.22879,0.00828
5091.15726,0.00172
5093.08573,0.01221
5095.01420,0.02629
5096.94267,0.02771
5098.87113,0.01358
5100.79960,0.00788
5102.72807,0.02557
5104.65654,0.04495
5106.58501,0.05145
5108.51348,0.04688
5110.44195,0.03803
5112.37042,0.03174
5114.29888,0.02374
5116.22735,0.01904
5118.15582,0.02344
5120.08429,0.02350
5122.01276,0.01665
5123.94123,0.02567
5125.86970,0.05194
5127.79816,0.05684
5129.72663,0.03432
5131.65510,0.01890
5133.58357,0.01259
5135.51204,0.00636
5137.44051,0.01328
5139.36898,0.02445
5141.29745,0.02464
5143.22591,0.02981
5145.15438,0.03847
5147.08285,0.03792
5149.01132,0.04646
5150.93979,0.06324
5152.86826,0.06502
5154.79673,0.05459
5156.72519,0.04852
5158.65366,0.04851
5160.58213,0.04615
5162.51060,0.04137
5164.43907,0.03310
5166.36754,0.02564
5168.29601,0.03188
5170.22448,0.04503
5172.15294,0.04823
5174.08141,0.04614
5176.00988,0.04966
5177.93835,0.05289
5179.86682,0.05408
5181.79529,0.04962
5183.72376,0.03228
5185.65222,0.02695
5187.58069,0.04178
5189.50916,0.04593
5191.43763,0.04120
5193.36610,0.04905
5195.29457,0.06270
5197.22304,0.05673
5199.15151,0.02908
5201.07997,0.01506
5203.00844,0.02322
5204.93691,0.03131
5206.86538,0.04002
5208.79385,0.05352
5210.72232,0.05830
5212.65079,0.05420
5214.57925,0.04832
5216.50772,0.03811
5218.43619,0.02426
5220.36466,0.02020
5222.29313,0.03589
5224.22160,0.06017
5226.15007,0.06667
5228.07854,0.05818
5230.00700,0.04676
5231.93547,0.03149
5233.86394,0.02629
5235.79241,0.02759
5237.72088,0.02647
5239.64935,0.03652
5241.57782,0.05868
5243.50628,0.06420
5245.43475,0.03887
5247.36322,0.01963
5249.29169,0.03133
5251.22016,0.05220
5253.14863,0.06344
5255.07710,0.05958
5257.00556,0.04241
5258.93403,0.03106
5260.86250,0.03124
5262.79097,0.02080
5264.71944,0.00591
5266.64791,0.01136
5268.57638,0.02705
5270.50485,0.04550
5272.43331,0.05528
5274.36178,0.03915
5276.29025,0.01662
5278.21872,0.01445
5280.14719,0.01690
5282.07566,0.01151
5284.00413,0.01720
5285.93259,0.02975
5287.86106,0.03985
5289.78953,0.05742
5291.71800,0.06949
5293.64647,0.05986
5295.57494,0.04632
5297.50341,0.04644
5299.43188,0.03966
5301.36034,0.01169
5303.28881,-0.00642
5305.21728,0.00274
5307.14575,0.02699
5309.07422,0.05198
5311.00269,0.06223
5312.93116,0.05161
5314.85962,0.03332
5316.78809,0.02819
5318.71656,0.03906
5320.64503,0.04556
5322.57350,0.04014
5324.50197,0.03829
5326.43044,0.03502
5328.35891,0.02800
5330.28737,0.04087
5332.21584,0.05836
5334.14431,0.05378
5336.07278,0.04054
5338.00125,0.03961
5339.92972,0.05750
5341.85819,0.07029
5343.78665,0.05175
5345.71512,0.02535
5347.64359,0.03645
5349.57206,0.06525
5351.50053,0.07326
5353.42900,0.07012
5355.35747,0.06933
5357.28594,0.05534
5359.21440,0.04197
5361.14287,0.04725
5363.07134,0.06861
5364.99981,0.09312
5366.92828,0.09370
5368.85675,0.07096
5370.78522,0.05695
5372.71368,0.06362
5374.64215,0.07942
5376.57062,0.08031
5378.49909,0.06087
5380.42756,0.04904
5382.35603,0.05132
5384.28450,0.05759
5386.21297,0.06068
5388.14143,0.06189
5390.06990,0.06957
5391.99837,0.07182
5393.92684,0.05075
5395.85531,0.03030
5397.78378,0.02724
5399.71225,0.03114
5401.64071,0.05025
5403.56918,0.07302
5405.49765,0.08296
5407.42612,0.09428
5409.35459,0.10422
5411.28306,0.10196
5413.21153,0.09685
5415.13999,0.09256
5417.06846,0.08327
5418.99693,0.08229
5420.92540,0.10038
5422.85387,0.10794
5424.78234,0.08771
5426.71081,0.07033
5428.63928,0.07535
5430.56774,0.08725
5432.49621,0.09972
5434.42468,0.11042
5436.35315,0.10547
5438.28162,0.09502
5440.21009,0.09136
5442.13856,0.09151
5444.06702,0.09293
5445.99549,0.08250
5447.92396,0.05783
5449.85243,0.05216
5451.78090,0.07969
5453.70937,0.11805
5455.63784,0.14575
5457.56631,0.14909
5459.49477,0.12802
5461.42324,0.08698
5463.35171,0.04213
5465.28018,0.02482
5467.20865,0.03913
5469.13712,0.06677
5471.06559,0.09350
5472.99405,0.11753
5474.92252,0.13539
5476.85099,0.13164
5478.77946,0.11415
5480.70793,0.09757
5482.63640,0.09319
5484.56487,0.10425
5486.49334,0.10147
5488.42180,0.07261
5490.35027,0.04593
5492.27874,0.04638
5494.20721,0.06380
5496.13568,0.06533
5498.06415,0.05339
5499.99262,0.04605
5501.92108,0.04598
5503.84955,0.05584
5505.77802,0.06218
5507.70649,0.05260
5509.63496,0.05653
5511.56343,0.08713
5513.49190,0.10532
5515.42037,0.09681
5517.34883,0.10039
5519.27730,0.11215
5521.20577,0.09437
5523.13424,0.05138
5525.06271,0.02938
5526.99118,0.06603
5528.91965,0.11639
5530.84811,0.11253
5532.77658,0.07973
5534.70505,0.06460
5536.63352,0.05700
5538.56199,0.03930
5540.49046,0.02899
5542.41893,0.05287
5544.34740,0.09199
5546.27586,0.09836
5548.20433,0.07942
5550.13280,0.06844
5552.06127,0.06544
5553.98974,0.07272
5555.91821,0.08468
5557.84668,0.08830
5559.77514,0.09272
5561.70361,0.10287
5563.63208,0.11058
5565.56055,0.10807
5567.48902,0.09188
5569.41749,0.07107
5571.34596,0.05393
5573.27443,0.05046
5575.20289,0.08132
5577.13136,0.13192
5579.05983,0.15315
5580.98830,0.12386
5582.91677,0.08484
5584.84524,0.07265
5586.77371,0.07035
5588.70217,0.06368
5590.63064,0.06139
5592.55911,0.06582
5594.48758,0.06723
5596.41605,0.06215
5598.34452,0.05979
5600.27299,0.07900
5602.20145,0.10775
5604.12992,0.10150
5606.05839,0.08007
5607.98686,0.09741
5609.91533,0.13560
5611.84380,0.14291
5613.77227,0.11684
5615.70074,0.08515
5617.62920,0.04903
5619.55767,0.01729
5621.48614,0.01569
5623.41461,0.04357
5625.34308,0.08773
5627.27155,0.12387
5629.20002,0.11889
5631.12848,0.08540
5633.05695,0.05520
5634.98542,0.04645
5636.91389,0.06709
5638.84236,0.08405
5640.77083,0.07785
5642.69930,0.07531
5644.62777,0.07304
5646.55623,0.05983
5648.48470,0.05631
5650.41317,0.06761
5652.34164,0.07662
5654.27011,0.07660
5656.19858,0.07430
5658.12705,0.07616
5660.05551,0.07765
5661.98398,0.06520
5663.91245,0.07042
5665.84092,0.12302
5667.76939,0.16134
5669.69786,0.14720
5671.62633,0.11799
5673.55480,0.09757
5675.48326,0.09319
5677.41173,0.10349
5679.34020,0.09537
5681.26867,0.05880
5683.19714,0.02370
5685.12561,0.01803
5687.05408,0.05833
5688.98254,0.10754
5690.91101,0.10958
5692.83948,0.09456
5694.76795,0.09644
5696.69642,0.08958
5698.62489,0.06778
5700.55336,0.04964
5702.48183,0.04814
5704.41029,0.07262
5706.33876,0.10289
5708.26723,0.11469
5710.19570,0.11171
5712.12417,0.09943
5714.05264,0.07772
5715.98111,0.06932
5717.90957,0.08893
5719.83804,0.11071
5721.76651,0.12610
5723.69498,0.13960
5725.62345,0.13123
5727.55192,0.09845
5729.48039,0.07095
5731.40886,0.06254
5733.33732,0.06202
5735.26579,0.06196
5737.19426,0.07961
5739.12273,0.12134
5741.05120,0.13198
5742.97967,0.10680
5744.90814,0.09956
5746.83660,0.10655
5748.76507,0.10061
5750.69354,0.07866
5752.62201,0.05408
5754.55048,0.04467
5756.47895,0.06419
5758.40742,0.09850
5760.33588,0.11064
5762.26435,0.09205
5764.19282,0.08364
5766.12129,0.10279
5768.04976,0.10096
5769.97823,0.07741
5771.90670,0.08066
5773.83517,0.10041
5775.76363,0.09883
5777.69210,0.07665
5779.62057,0.05084
5781.54904,0.02594
5783.47751,0.01677
5785.40598,0.03326
5787.33445,0.04616
5789.26291,0.02771
5791.19138,0.00939
5793.11985,0.04346
5795.04832,0.09272
5796.97679,0.08885
5798.90526,0.06972
5800.83373,0.08457
5802.76220,0.11187
5804.69066,0.13003
5806.61913,0.13414
5808.54760,0.12787
5810.47607,0.11809
5812.40454,0.10194
5814.33301,0.08041
5816.26148,0.06075
5818.18994,0.05540
5820.11841,0.08053
5822.04688,0.12249
5823.97535,0.13831
5825.90382,0.13150
5827.83229,0.13666
5829.76076,0.15286
5831.68923,0.15191
5833.61769,0.12773
5835.54616,0.11390
5837.47463,0.12020
5839.40310,0.11941
5841.33157,0.11023
5843.26004,0.10319
5845.18851,0.09111
5847.11697,0.07935
5849.04544,0.07740
5850.97391,0.07617
5852.90238,0.08339
5854.83085,0.10913
5856.75932,0.10786
5858.68779,0.05266
5860.61626,0.02301
5862.54472,0.05376
5864.47319,0.05883
5866.40166,0.02165
5868.33013,0.01377
5870.25860,0.03982
5872.18707,0.07212
5874.11554,0.12067
5876.04400,0.16433
5877.97247,0.15074
5879.90094,0.07305
5881.82941,-0.00185
5883.75788,0.00189
5885.68635,0.05972
5887.61482,0.11060
5889.54329,0.13307
5891.47175,0.12696
5893.40022,0.10430
5895.32869,0.07986
5897.25716,0.06857
5899.18563,0.07353
5901.11410,0.08937
5903.04257,0.10684
5904.97103,0.12066
5906.89950,0.13011
5908.82797,0.11580
5910.75644,0.08693
5912.68491,0.08644
5914.61338,0.10835
5916.54185,0.11121
5918.47032,0.10035
5920.39878,0.10389
5922.32725,0.11671
5924.25572,0.13532
5926.18419,0.14715
5928.11266,0.12136
5930.04113,0.09429
5931.96960,0.11122
5933.89806,0.13094
5935.82653,0.10294
5937.75500,0.04904
5939.68347,0.02819
5941.61194,0.05742
5943.54041,0.09387
5945.46888,0.09521
5947.39734,0.05456
5949.32581,0.00769
5951.25428,-0.00328
5953.18275,0.01364
5955.11122,0.05114
5957.03969,0.11110
5958.96816,0.14931
5960.89663,0.13966
5962.82509,0.13530
5964.75356,0.17387
5966.68203,0.21792
5968.61050,0.19567
5970.53897,0.12442
5972.46744,0.07811
5974.39591,0.05859
5976.32437,0.04768
5978.25284,0.04871
5980.18131,0.06124
5982.10978,0.07027
5984.03825,0.05247
5985.96672,0.03085
5987.89519,0.05095
5989.82366,0.08587
5991.75212,0.09005
5993.68059,0.09522
5995.60906,0.10679
5997.53753,0.07767
5999.46600,0.05318
6001.39447,0.07425
6003.32294,0.08579
6005.25140,0.05672
6007.17987,0.03074
6009.10834,0.03002
6011.03681,0.03587
6012.96528,0.04565
6014.89375,0.07635
6016.82222,0.12936
6018.75069,0.16846
6020.67915,0.16902
6022.60762,0.16654
6024.53609,0.16240
6026.46456,0.12830
6028.39303,0.09466
6030.32150,0.07548
6032.24997,0.03793
6034.17843,0.01078
6036.10690,0.02033
6038.03537,0.02557
6039.96384,0.01793
6041.89231,0.00469
6043.82078,-0.01019
6045.74925,0.01672
6047.67772,0.08066
6049.60618,0.11592
6051.53465,0.12637
6053.46312,0.14491
6055.39159,0.14623
6057.32006,0.11535
6059.24853,0.07254
6061.17700,0.04040
6063.10546,0.03154
6065.03393,0.04074
6066.96240,0.04589
6068.89087,0.06135
6070.81934,0.09871
6072.74781,0.10218
6074.67628,0.08007
6076.60475,0.07268
6078.53321,0.06645
6080.46168,0.07057
6082.39015,0.06564
6084.31862,0.03973
6086.24709,0.03299
6088.17556,0.04931
6090.10403,0.06290
6092.03249,0.07509
6093.96096,0.09617
6095.88943,0.11581
6097.81790,0.12621
6099.74637,0.11875
6101.67484,0.09765
6103.60331,0.10320
6105.53177,0.15527
6107.46024,0.21103
6109.38871,0.21174
6111.31718,0.17610
6113.24565,0.14366
6115.17412,0.11442
6117.10259,0.10830
6119.03106,0.12362
6120.95952,0.12547
6122.88799,0.13139
6124.81646,0.14312
6126.74493,0.14605
6128.67340,0.16566
6130.60187,0.18679
6132.53034,0.16436
6134.45880,0.10355
6136.38727,0.05778
6138.31574,0.07097
6140.24421,0.10726
6142.17268,0.10786
6144.10115,0.08137
6146.02962,0.06521
6147.95809,0.05917
6149.88655,0.03736
6151.81502,0.01306
6153.74349,0.03174
6155.67196,0.08514
6157.60043,0.14758
6159.52890,0.19537
6161.45737,0.20666
6163.38583,0.19213
6165.31430,0.15870
6167.24277,0.12079
6169.17124,0.07537
6171.09971,0.03327
6173.02818,0.03422
6174.95665,0.03343
6176.88512,0.01708
6178.81358,0.03452
6180.74205,0.05066
6182.67052,0.05036
6184.59899,0.06318
6186.52746,0.07709
6188.45593,0.06567
6190.38440,0.03150
6192.31286,0.02766
6194.24133,0.06510
6196.16980,0.09732
6198.09827,0.09336
6200.02674,0.05798
6201.95521,0.02958
6203.88368,0.02570
6205.81215,0.04353
6207.74061,0.07972
6209.66908,0.11076
6211.59755,0.12030
6213.52602,0.11291
6215.45449,0.08411
6217.38296,0.04755
6219.31143,0.03025
6221.23989,0.04084
6223.16836,0.05672
6225.09683,0.05098
6227.02530,0.05918
6228.95377,0.07986
6230.88224,0.08170
6232.81071,0.10288
6234.73918,0.15751
6236.66764,0.19660
6238.59611,0.17993
6240.52458,0.13548
6242.45305,0.10014
6244.38152,0.05555
6246.30999,0.02611
6248.23846,0.04923
6250.16692,0.07419
6252.09539,0.06258
6254.02386,0.05582
6255.95233,0.05789
6257.88080,0.06149
6259.80927,0.08295
6261.73774,0.11588
6263.66621,0.14124
6265.59467,0.14162
6267.52314,0.11418
6269.45161,0.06612
6271.38008,0.04833
6273.30855,0.11092
6275.23702,0.19406
6277.16549,0.20116
6279.09395,0.13327
6281.02242,0.05392
6282.95089,0.00609
6284.87936,0.00614
6286.80783,0.04036
6288.73630,0.03713
6290.66477,-0.00732
6292.59323,-0.01483
6294.52170,-0.01192
6296.45017,-0.02331
6298.37864,0.00398
6300.30711,0.06378
6302.23558,0.09365
6304.16405,0.07137
6306.09252,0.05158
6308.02098,0.07940
6309.94945,0.11612
6311.87792,0.11575
6313.80639,0.12608
6315.73486,0.15395
6317.66333,0.13774
6319.59180,0.11413
6321.52026,0.12436
6323.44873,0.13802
6325.37720,0.12573
6327.30567,0.06956
6329.23414,0.00502
6331.16261,-0.01907
6333.09108,-0.00374
6335.01955,0.03178
6336.94801,0.04865
6338.87648,0.03454
6340.80495,0.03951
6342.73342,0.07165
6344.66189,0.06718
6346.59036,0.02695
6348.51883,0.01408
6350.44729,0.03323
6352.37576,0.04336
6354.30423,0.02931
6356.23270,0.04091
6358.16117,0.09356
6360.08964,0.12406
6362.01811,0.12023
6363.94658,0.13364
6365.87504,0.17394
6367.80351,0.18051
6369.73198,0.11472
6371.66045,0.04510
6373.58892,0.05167
6375.51739,0.07116
6377.44586,0.02601
6379.37432,-0.01038
6381.30279,0.01883
6383.23126,0.06958
6385.15973,0.11264
6387.08820,0.14369
6389.01667,0.16004
6390.94514,0.16904
6392.87361,0.13995
6394.80207,0.09772
6396.73054,0.11399
6398.65901,0.11604
6400.58748,0.03849
6402.51595,-0.01383
6404.44442,0.03786
6406.37289,0.09696
6408.30135,0.08979
6410.22982,0.07568
6412.15829,0.06300
6414.08676,0.04597
6416.01523,0.09045
6417.94370,0.15985
6419.87217,0.13631
6421.80064,0.03805
6423.72910,-0.04847
6425.65757,-0.05780
6427.58604,-0.02937
6429.51451,-0.04821
6431.44298,-0.06557
6433.37145,-0.01853
6435.29992,0.03698
6437.22838,0.07435
6439.15685,0.11683
6441.08532,0.11290
6443.01379,0.04174
6444.94226,-0.00907
6446.87073,-0.02727
6448.79920,-0.04994
6450.72766,-0.06287
6452.65613,-0.04155
6454.58460,0.02932
6456.51307,0.12150
6458.44154,0.15771
6460.37001,0.12855
6462.29848,0.08121
6464.22695,0.02130
6466.15541,-0.03764
6468.08388,-0.04657
6470.01235,0.01933
6471.94082,0.11673
6473.86929,0.18037
6475.79776,0.18657
6477.72623,0.12437
6479.65469,0.07848
6481.58316,0.10136
6483.51163,0.08209
6485.44010,0.01753
6487.36857,0.00411
6489.29704,0.05908
6491.22551,0.14028
6493.15398,0.19102
6495.08244,0.21249
6497.01091,0.19729
6498.93938,0.11864
6500.86785,0.05248
6502.79632,0.05592
6504.72479,0.09128
6506.65326,0.14368
6508.58172,0.19487
6510.51019,0.20015
6512.43866,0.15204
6514.36713,0.13918
6516.29560,0.19678
6518.22407,0.20741
6520.15254,0.14087
6522.08101,0.08069
6524.00947,0.05225
6525.93794,0.06381
6527.86641,0.09723
6529.79488,0.11646
6531.72335,0.10208
6533.65182,0.05871
6535.58029,0.05566
6537.50875,0.09351
6539.43722,0.12087
6541.36569,0.14063
6543.29416,0.13960
6545.22263,0.08111
6547.15110,0.00839
6549.07957,0.02685
6551.00804,0.12770
6552.93650,0.17383
6554.86497,0.12864
6556.79344,0.04760
6558.72191,0.02010
6560.65038,0.06118
6562.57885,0.05641
6564.50732,0.01434
6566.43578,0.04072
6568.36425,0.06769
6570.29272,0.03744
6572.22119,0.01800
6574.14966,0.06107
6576.07813,0.12842
6578.00660,0.13199
6579.93507,0.07695
6581.86353,0.05278
6583.79200,0.06609
6585.72047,0.04210
6587.64894,-0.01041
6589.57741,-0.02768
6591.50588,-0.01839
6593.43435,-0.00626
6595.36281,0.04914
6597.29128,0.13339
6599.21975,0.12482
6601.14822,0.03149
6603.07669,0.04582
6605.00516,0.13580
6606.93363,0.13153
6608.86210,0.07854
6610.79056,0.12136
6612.71903,0.17617
6614.64750,0.11278
6616.57597,0.03868
6618.50444,0.06065
6620.43291,0.12233
6622.36138,0.16725
6624.28984,0.16528
6626.21831,0.14385
6628.14678,0.16392
6630.07525,0.16932
6632.00372,0.08214
6633.93219,-0.03302
6635.86066,-0.08379
6637.78912,-0.03817
6639.71759,0.02298
6641.64606,0.04613
6643.57453,0.05552
6645.50300,0.03741
6647.43147,0.00769
6649.35994,0.02729
6651.28841,0.04849
6653.21687,0.05530
6655.14534,0.10251
6657.07381,0.12197
6659.00228,0.05507
6660.93075,0.00929
6662.85922,0.01288
6664.78769,0.01604
6666.71615,0.00334
6668.64462,-0.01466
6670.57309,-0.02575
6672.50156,0.00689
6674.43003,0.09076
6676.35850,0.10836
6678.28697,0.04794
6680.21544,0.02444
6682.14390,0.03103
6684.07237,0.01409
6686.00084,0.00242
6687.92931,0.02096
6689.85778,0.03802
6691.78625,0.05711
6693.71472,0.10199
6695.64318,0.13584
6697.57165,0.15243
6699.50012,0.19653
6701.42859,0.23961
6703.35706,0.25040
6705.28553,0.26270
6707.21400,0.27041
6709.14247,0.21830
6711.07093,0.13110
6712.99940,0.09338
6714.92787,0.11460
6716.85634,0.14236
6718.78481,0.14935
6720.71328,0.13698
6722.64175,0.12705
6724.57021,0.11279
6726.49868,0.07067
6728.42715,0.02208
6730.35562,-0.01366
6732.28409,-0.02805
6734.21256,-0.00653
6736.14103,0.02898
6738.06950,0.01279
6739.99796,-0.04777
6741.92643,-0.05810
6743.85490,-0.00972
6745.78337,0.03049
6747.71184,0.06608
6749.64031,0.09810
6751.56878,0.10919
6753.49724,0.10805
6755.42571,0.08962
6757.35418,0.10572
6759.28265,0.20411
6761.21112,0.23081
6763.13959,0.09117
6765.06806,-0.04354
6766.99653,-0.07971
6768.92499,-0.08562
6770.85346,-0.09096
6772.78193,-0.05909
6774.71040,0.01502
6776.63887,0.06041
6778.56734,0.00344
6780.49581,-0.06927
6782.42427,-0.05632
6784.35274,0.03580
6786.28121,0.14012
6788.20968,0.16444
6790.13815,0.09855
6792.06662,0.01143
6793.99509,-0.04448
6795.92355,-0.05462
6797.85202,-0.02317
6799.78049,0.08662
6801.70896,0.27062
6803.63743,0.35731
6805.56590,0.26285
6807.49437,0.17029
6809.42284,0.20704
6811.35130,0.28093
6813.27977,0.28405
6815.20824,0.23729
6817.13671,0.15042
6819.06518,0.06703
6820.99365,0.03404
6822.92212,0.03191
6824.85058,0.00080
6826.77905,-0.04653
6828.70752,-0.03446
6830.63599,0.00874
6832.56446,0.01921
6834.49293,0.03908
6836.42140,0.06576
6838.34987,0.03753
6840.27833,0.00246
6842.20680,0.03482
6844.13527,0.08509
6846.06374,0.09645
6847.99221,0.09665
6849.92068,0.08070
6851.84915,0.04207
6853.77761,0.00082
6855.70608,-0.04193
6857.63455,-0.04900
6859.56302,-0.01313
6861.49149,0.04354
6863.41996,0.04936
6865.34843,-0.00330
6867.27690,0.01351
6869.20536,0.06936
6871.13383,0.06459
6873.06230,0.04371
6874.99077,0.01987
6876.91924,-0.02094
6878.84771,-0.03163
6880.77618,0.01919
6882.70464,0.07300
6884.63311,0.08604
6886.56158,0.10701
6888.49005,0.17369
6890.41852,0.22990
6892.34699,0.19701
6894.27546,0.08469
6896.20393,-0.01231
6898.13239,-0.00873
6900.06086,0.02812
6901.98933,0.00598
6903.91780,0.02016
6905.84627,0.10375
6907.77474,0.08035
6909.70321,-0.02118
6911.63167,-0.04010
6913.56014,0.01749
6915.48861,0.10008
6917.41708,0.18789
6919.34555,0.21849
6921.27402,0.16003
6923.20249,0.08547
6925.13096,0.02712
6927.05942,0.01365
6928.98789,0.04199
6930.91636,0.01947
6932.84483,-0.02727
6934.77330,0.02406
6936.70177,0.13959
6938.63024,0.23799
6940.55870,0.20706
6942.48717,0.01198
6944.41564,-0.13434
6946.34411,-0.07630
6948.27258,0.04745
6950.20105,0.06234
6952.12952,0.03290
6954.05799,0.05903
6955.98645,0.10714
6957.91492,0.10897
6959.84339,0.09869
6961.77186,0.06892
6963.70033,0.01982
6965.62880,0.01154
6967.55727,0.04249
6969.48573,0.03650
6971.41420,0.02341
6973.34267,0.11806
6975.27114,0.19016
6977.19961,0.13681
6979.12808,0.09379
6981.05655,0.07684
6982.98501,0.03400
6984.91348,-0.03542
6986.84195,-0.04945
6988.77042,0.04824
6990.69889,0.13666
6992.62736,0.11003
6994.55583,0.05885
6996.48430,0.09407
6998.41276,0.15863
7000.34123,0.14559
7002.26970,0.05140
7004.19817,-0.02982
7006.12664,0.04121
7008.05511,0.15252
7009.98358,0.07000
7011.91204,-0.08504
7013.84051,-0.13300
7015.76898,-0.09683
7017.69745,-0.03124
7019.62592,0.03570
7021.55439,0.07621
7023.48286,0.11213
7025.41133,0.12452
7027.33979,0.01115
7029.26826,-0.16598
7031.19673,-0.13606
7033.12520,0.03347
7035.05367,0.12829
7036.98214,0.12597
7038.91061,0.11070
7040.83907,0.09755
7042.76754,0.05790
7044.69601,0.05202
7046.62448,0.09640
7048.55295,0.08491
7050.48142,0.04062
7052.40989,0.03380
7054.33836,0.08493
7056.26682,0.18921
7058.19529,0.25474
7060.12376,0.23664
7062.05223,0.21632
7063.98070,0.17985
7065.90917,0.09884
7067.83764,0.07622
7069.76610,0.16637
7071.69457,0.24467
7073.62304,0.25245
7075.55151,0.23192
7077.47998,0.17078
7079.40845,0.07471
7081.33692,0.01402
7083.26539,0.07908
7085.19385,0.23106
7087.12232,0.33387
7089.05079,0.24757
7090.97926,0.09196
7092.90773,0.02825
7094.83620,0.00002
7096.76467,-0.01431
7098.69313,0.06198
7100.62160,0.15469
7102.55007,0.19759
7104.47854,0.18440
7106.40701,0.07263
7108.33548,-0.05890
7110.26395,-0.08912
7112.19242,-0.02719
7114.12088,0.05185
7116.04935,0.09180
7117.97782,0.06528
7119.90629,0.01679
7121.83476,-0.00986
7123.76323,-0.01473
7125.69170,-0.03966
7127.62016,-0.11043
7129.54863,-0.09208
7131.47710,0.05968
7133.40557,0.20416
7135.33404,0.25609
7137.26251,0.25624
7139.19098,0.24017
7141.11944,0.18638
7143.04791,0.07915
7144.97638,-0.03501
7146.90485,-0.04245
7148.83332,0.05153
7150.76179,0.16441
7152.69026,0.22436
7154.61873,0.14018
7156.54719,0.02729
7158.47566,0.01492
7160.40413,0.06642
7162.33260,0.12042
7164.26107,0.10270
7166.18954,0.03297
7168.11801,-0.04119
7170.04647,-0.09579
7171.97494,-0.00780
7173.90341,0.10848
7175.83188,0.08706
7177.76035,0.02862
7179.68882,0.03439
7181.61729,0.02945
7183.54576,0.02908
7185.47422,0.08869
7187.40269,0.08775
7189.33116,0.01741
7191.25963,-0.06614
7193.18810,-0.07449
7195.11657,0.02179
7197.04504,0.05331
7198.97350,-0.00935
7200.90197,-0.02400
7202.83044,0.01285
7204.75891,0.00452
7206.68738,0.02805
7208.61585,0.15392
7210.54432,0.20029
7212.47279,0.08404
7214.40125,-0.05174
7216.32972,-0.05153
7218.25819,0.04046
7220.18666,0.02382
7222.11513,0.02228
7224.04360,0.13365
7225.97207,0.17053
7227.90053,0.09970
7229.82900,0.15344
7231.75747,0.25347
7233.68594,0.16862
7235.61441,0.04905
7237.54288,0.04256
7239.47135,0.06584
7241.39982,0.04585
7243.32828,0.05900
7245.25675,0.07811
7247.18522,0.00108
7249.11369,-0.14608
7251.04216,-0.25789
7252.97063,-0.21392
7254.89910,-0.04294
7256.82756,0.07424
7258.75603,0.13083
7260.68450,0.21504
7262.61297,0.32825
7264.54144,0.25670
7266.46991,0.08486
7268.39838,0.03468
7270.32685,0.02374
7272.25531,-0.05369
7274.18378,-0.08155
7276.11225,-0.03186
7278.04072,0.00997
7279.96919,-0.06030
7281.89766,-0.14857
7283.82613,-0.02350
7285.75459,0.13193
7287.68306,0.11468
7289.61153,0.02192
7291.54000,0.02135
7293.46847,0.06130
7295.39694,0.01802
7297.32541,-0.01705
7299.25387,0.00728
7301.18234,0.07362
7303.11081,0.17848
7305.03928,0.21867
7306.96775,0.14955
7308.89622,0.07996
7310.82469,0.07173
7312.75316,0.05539
7314.68162,0.03595
7316.61009,0.08910
7318.53856,0.12355
7320.46703,0.05016
7322.39550,0.01286
7324.32397,0.10925
7326.25244,0.26595
7328.18090,0.34937
7330.10937,0.26092
7332.03784,0.11563
7333.96631,0.04264
7335.89478,0.07911
7337.82325,0.18511
7339.75172,0.21629
7341.68019,0.04941
7343.60865,-0.03530
7345.53712,0.09899
7347.46559,0.37775
7349.39406,0.55494
7351.32253,0.52352
7353.25100,0.46079
7355.17947,0.37971
7357.10793,0.13178
7359.03640,-0.12147
7360.96487,-0.10221
7362.89334,-0.00113
7364.82181,0.06230
7366.75028,0.13051
7368.67875,0.09535
7370.60722,0.03563
7372.53568,0.13682
7374.46415,0.30445
7376.39262,0.28808
7378.32109,0.32732
7380.24956,0.45247
7382.17803,0.30652
7384.10650,-0.00001
7386.03496,-0.11325
7387.96343,-0.09314
7389.89190,-0.09910
7391.82037,-0.05347
7393.74884,0.08967
7395.67731,0.20480
7397.60578,0.16955
7399.53425,-0.01656
7401.46271,-0.21432
7403.39118,-0.26889
7405.31965,-0.16800
7407.24812,-0.07281
7409.17659,-0.02331
7411.10506,-0.02910
7413.03353,-0.09441
7414.96199,-0.09166
7416.89046,0.00770
7418.81893,0.08144
7420.74740,0.18753
7422.67587,0.33657
7424.60434,0.29271
7426.53281,0.05826
7428.46128,-0.10663
7430.38974,-0.02011
7432.31821,0.12801
7434.24668,0.15815
7436.17515,0.16694
7438.10362,0.24867
7440.03209,0.29151
7441.96056,0.18973
7443.88902,0.09366
7445.81749,0.17021
7447.74596,0.28669
7449.67443,0.25334
7451.60290,0.09229
7453.53137,-0.00634
7455.45984,0.06480
7457.38831,0.25453
7459.31677,0.40738
7461.24524,0.25787
7463.17371,-0.05104
7465.10218,-0.13226
7467.03065,-0.01130
7468.95912,0.02308
7470.88759,-0.04036
7472.81605,-0.04694
7474.74452,0.08966
7476.67299,0.23058
7478.60146,0.18839
7480.52993,0.10657
7482.45840,0.10685
7484.38687,0.06973
7486.31533,0.11412
7488.24380,0.27800
7490.17227,0.27949
7492.10074,0.08281
7494.02921,-0.00799
7495.95768,0.03861
7497.88615,0.06023
