399.19301,0.44914
401.12148,0.33371
403.04995,0.44529
404.97842,0.10147
406.90689,-0.12627
408.83536,0.00349
410.76382,0.21634
412.69229,0.15876
414.62076,0.03501
416.54923,0.17456
418.47770,0.49322
420.40617,0.53561
422.33464,0.43880
424.26311,0.39808
426.19157,0.30643
428.12004,0.22058
430.04851,0.14895
431.97698,0.00005
433.90545,-0.08623
435.83392,0.00288
437.76239,0.16494
439.69085,0.32012
441.61932,0.42970
443.54779,0.37811
445.47626,0.19869
447.40473,0.08957
449.33320,0.04261
451.26167,-0.01835
453.19013,-0.06051
455.11860,-0.10303
457.04707,-0.11947
458.97554,-0.05472
460.90401,0.01523
462.83248,0.05796
464.76095,0.08104
466.68942,0.07578
468.61788,0.02455
470.54635,-0.06700
472.47482,-0.16203
474.40329,-0.14372
476.33176,-0.02271
478.26023,0.05088
480.18870,0.11926
482.11716,0.23147
484.04563,0.31593
485.97410,0.30618
487.90257,0.25480
489.83104,0.18630
491.75951,0.12050
493.68798,0.07538
495.61645,0.04518
497.54491,0.07033
499.47338,0.12580
501.40185,0.12718
503.33032,0.09639
505.25879,0.13502
507.18726,0.21304
509.11573,0.22199
511.04419,0.17342
512.97266,0.12710
514.90113,0.10008
516.82960,0.09466
518.75807,0.10912
520.68654,0.10070
522.61501,0.06193
524.54348,0.05703
526.47194,0.10821
528.40041,0.12950
530.32888,0.08784
532.25735,0.05039
534.18582,0.07890
536.11429,0.13174
538.04276,0.13308
539.97122,0.11779
541.89969,0.12718
543.82816,0.14874
545.75663,0.17083
547.68510,0.17014
549.61357,0.15787
551.54204,0.25616
553.47051,0.40783
555.39897,0.35650
557.32744,0.17518
559.25591,0.10963
561.18438,0.13947
563.11285,0.18361
565.04132,0.20784
566.96979,0.16510
568.89825,0.09224
570.82672,0.07793
572.75519,0.08984
574.68366,0.08448
576.61213,0.09609
578.54060,0.10715
580.46907,0.09465
582.39754,0.09224
584.32600,0.11686
586.25447,0.15552
588.18294,0.17481
590.11141,0.13822
592.03988,0.09247
593.96835,0.09850
595.89682,0.10811
597.82528,0.08895
599.75375,0.07280
601.68222,0.07920
603.61069,0.10330
605.53916,0.13152
607.46763,0.14590
609.39610,0.14931
611.32456,0.15589
613.25303,0.14849
615.18150,0.12393
617.10997,0.11426
619.03844,0.13080
620.96691,0.15948
622.89538,0.17284
624.82385,0.15647
626.75231,0.13067
628.68078,0.12636
630.60925,0.14509
632.53772,0.15257
634.46619,0.13631
636.39466,0.12692
638.32313,0.13144
640.25159,0.12754
642.18006,0.12808
644.10853,0.14182
646.03700,0.13811
647.96547,0.12108
649.89394,0.11548
651.82241,0.13000
653.75088,0.15875
655.67934,0.16534
657.60781,0.13774
659.53628,0.11647
661.46475,0.11874
663.39322,0.12236
665.32169,0.12024
667.25016,0.12096
669.17862,0.12536
671.10709,0.12014
673.03556,0.11688
674.96403,0.12468
676.89250,0.12520
678.82097,0.11561
680.74944,0.12131
682.67791,0.14089
684.60637,0.15317
686.53484,0.14953
688.46331,0.13540
690.39178,0.12341
692.32025,0.12279
694.24872,0.13926
696.17719,0.16436
698.10565,0.17408
700.03412,0.15966
701.96259,0.13818
703.89106,0.12627
705.81953,0.12412
707.74800,0.13067
709.67647,0.13975
711.60494,0.14156
713.53340,0.13892
715.46187,0.12994
717.39034,0.11392
719.31881,0.10650
721.24728,0.11678
723.17575,0.13237
725.10422,0.13941
727.03268,0.14097
728.96115,0.14569
730.88962,0.15514
732.81809,0.16359
734.74656,0.16310
736.67503,0.15410
738.60350,0.14092
740.53197,0.13041
742.46043,0.13040
744.38890,0.13572
746.31737,0.13689
748.24584,0.13319
750.17431,0.13250
752.10278,0.14264
754.03125,0.15499
755.95971,0.15664
757.88818,0.14996
759.81665,0.14129
761.74512,0.13852
763.67359,0.14480
765.60206,0.14502
767.53053,0.13330
769.45900,0.12845
771.38746,0.14151
773.31593,0.15332
775.24440,0.15135
777.17287,0.14741
779.10134,0.14306
781.02981,0.13816
782.95828,0.14245
784.88674,0.15217
786.81521,0.15504
788.74368,0.14885
790.67215,0.13927
792.60062,0.13531
794.52909,0.13947
796.45756,0.14097
798.38602,0.14036
800.31449,0.14466
802.24296,0.14565
804.17143,0.14001
806.09990,0.13785
808.02837,0.13599
809.95684,0.12511
811.88531,0.11925
813.81377,0.13294
815.74224,0.15019
817.67071,0.15199
819.59918,0.14487
821.52765,0.14063
823.45612,0.14036
825.38459,0.13245
827.31305,0.11537
829.24152,0.11374
831.16999,0.13175
833.09846,0.14824
835.02693,0.15272
836.95540,0.14702
838.88387,0.13307
840.81234,0.12626
842.74080,0.14123
844.66927,0.15516
846.59774,0.15097
848.52621,0.14513
850.45468,0.14572
852.38315,0.14854
854.31162,0.14789
856.24008,0.14294
858.16855,0.14452
860.09702,0.15324
862.02549,0.15620
863.95396,0.15520
865.88243,0.15921
867.81090,0.16586
869.73937,0.16641
871.66783,0.15319
873.59630,0.13387
875.52477,0.12803
877.45324,0.13415
879.38171,0.13526
881.31018,0.13140
883.23865,0.12756
885.16711,0.12778
887.09558,0.13570
889.02405,0.13898
890.95252,0.13579
892.88099,0.13831
894.80946,0.13905
896.73793,0.13141
898.66640,0.12686
900.59486,0.12797
902.52333,0.12883
904.45180,0.13233
906.38027,0.14095
908.30874,0.14978
910.23721,0.15778
912.16568,0.16347
914.09414,0.16131
916.02261,0.15436
917.95108,0.14873
919.87955,0.14492
921.80802,0.14438
923.73649,0.14782
925.66496,0.15104
927.59343,0.15208
929.52189,0.14969
931.45036,0.14591
933.37883,0.14640
935.30730,0.14793
937.23577,0.14979
939.16424,0.15483
941.09271,0.15770
943.02117,0.15604
944.94964,0.15665
946.87811,0.15896
948.80658,0.15389
950.73505,0.14881
952.66352,0.15223
954.59199,0.15824
956.52045,0.16097
958.44892,0.15776
960.37739,0.15055
962.30586,0.14118
964.23433,0.13359
966.16280,0.13603
968.09127,0.14618
970.01974,0.15408
971.94820,0.15529
973.87667,0.15239
975.80514,0.14972
977.73361,0.14575
979.66208,0.14001
981.59055,0.14117
983.51902,0.14960
985.44748,0.15532
987.37595,0.15677
989.30442,0.15914
991.23289,0.15856
993.16136,0.15072
995.08983,0.14403
997.01830,0.13902
998.94677,0.13298
1000.87523,0.13470
1002.80370,0.14874
1004.73217,0.16840
1006.66064,0.18012
1008.58911,0.17870
1010.51758,0.16942
1012.44605,0.15548
1014.37451,0.14213
1016.30298,0.13696
1018.23145,0.13981
1020.15992,0.14155
1022.08839,0.13971
1024.01686,0.14274
1025.94533,0.15690
1027.87380,0.17948
1029.80226,0.19178
1031.73073,0.18124
1033.65920,0.16168
1035.58767,0.14493
1037.51614,0.13587
1039.44461,0.14049
1041.37308,0.15165
1043.30154,0.15709
1045.23001,0.15527
1047.15848,0.15065
1049.08695,0.14985
1051.01542,0.15453
1052.94389,0.15644
1054.87236,0.15565
1056.80083,0.16110
1058.72929,0.16586
1060.65776,0.15843
1062.58623,0.15007
1064.51470,0.15376
1066.44317,0.16058
1068.37164,0.16015
1070.30011,0.15729
1072.22857,0.15688
1074.15704,0.15617
1076.08551,0.16252
1078.01398,0.17672
1079.94245,0.17752
1081.87092,0.16256
1083.79939,0.15106
1085.72786,0.14828
1087.65632,0.14763
1089.58479,0.14787
1091.51326,0.14997
1093.44173,0.15197
1095.37020,0.15478
1097.29867,0.15975
1099.22714,0.16653
1101.15560,0.17909
1103.08407,0.19091
1105.01254,0.18669
1106.94101,0.17119
1108.86948,0.15947
1110.79795,0.15706
1112.72642,0.16278
1114.65489,0.16934
1116.58335,0.16939
1118.51182,0.16467
1120.44029,0.16154
1122.36876,0.16385
1124.29723,0.16654
1126.22570,0.16279
1128.15417,0.15582
1130.08263,0.14990
1132.01110,0.14679
1133.93957,0.14505
1135.86804,0.14044
1137.79651,0.13947
1139.72498,0.14833
1141.65345,0.15703
1143.58191,0.15886
1145.51038,0.15862
1147.43885,0.15696
1149.36732,0.15476
1151.29579,0.15896
1153.22426,0.16907
1155.15273,0.17559
1157.08120,0.17633
1159.00966,0.17723
1160.93813,0.17609
1162.86660,0.16979
1164.79507,0.16313
1166.72354,0.15940
1168.65201,0.16013
1170.58048,0.16548
1172.50894,0.17108
1174.43741,0.17075
1176.36588,0.16469
1178.29435,0.16222
1180.22282,0.16458
1182.15129,0.16323
1184.07976,0.16093
1186.00823,0.16428
1187.93669,0.16787
1189.86516,0.16604
1191.79363,0.16290
1193.72210,0.16336
1195.65057,0.16609
1197.57904,0.16869
1199.50751,0.16950
1201.43597,0.16656
1203.36444,0.16267
1205.29291,0.16224
1207.22138,0.16425
1209.14985,0.16602
1211.07832,0.16425
1213.00679,0.16092
1214.93526,0.16407
1216.86372,0.16903
1218.79219,0.16884
1220.72066,0.16927
1222.64913,0.16981
1224.57760,0.16549
1226.50607,0.16169
1228.43454,0.16206
1230.36300,0.16309
1232.29147,0.16231
1234.21994,0.16002
1236.14841,0.16001
1238.07688,0.16388
1240.00535,0.16848
1241.93382,0.16948
1243.86229,0.16565
1245.79075,0.16375
1247.71922,0.16703
1249.64769,0.16840
1251.57616,0.16375
1253.50463,0.15726
1255.43310,0.15503
1257.36157,0.15767
1259.29003,0.15922
1261.21850,0.15768
1263.14697,0.15927
1265.07544,0.16664
1267.00391,0.17357
1268.93238,0.17483
1270.86085,0.17085
1272.78932,0.16513
1274.71778,0.16398
1276.64625,0.16845
1278.57472,0.17198
1280.50319,0.17066
1282.43166,0.16792
1284.36013,0.16945
1286.28860,0.17355
1288.21706,0.17514
1290.14553,0.17737
1292.07400,0.17954
1294.00247,0.17460
1295.93094,0.16643
1297.85941,0.16091
1299.78788,0.15590
1301.71634,0.15121
1303.64481,0.15020
1305.57328,0.15618
1307.50175,0.16731
1309.43022,0.17598
1311.35869,0.17870
1313.28716,0.17716
1315.21563,0.17457
1317.14409,0.17475
1319.07256,0.17521
1321.00103,0.17239
1322.92950,0.17173
1324.85797,0.17349
1326.78644,0.17139
1328.71491,0.16778
1330.64337,0.16633
1332.57184,0.16595
1334.50031,0.16764
1336.42878,0.17372
1338.35725,0.18140
1340.28572,0.18099
1342.21419,0.17206
1344.14266,0.16278
1346.07112,0.15739
1347.99959,0.15901
1349.92806,0.16363
1351.85653,0.16608
1353.78500,0.16856
1355.71347,0.17111
1357.64194,0.17195
1359.57040,0.17359
1361.49887,0.17809
1363.42734,0.17987
1365.35581,0.17600
1367.28428,0.17166
1369.21275,0.16924
1371.14122,0.17166
1373.06969,0.18032
1374.99815,0.18776
1376.92662,0.18545
1378.85509,0.17775
1380.78356,0.17341
1382.71203,0.17577
1384.64050,0.18215
1386.56897,0.18764
1388.49743,0.18647
1390.42590,0.18194
1392.35437,0.18193
1394.28284,0.18656
1396.21131,0.18982
1398.13978,0.18908
1400.06825,0.18525
1401.99672,0.18132
1403.92518,0.17992
1405.85365,0.17936
1407.78212,0.18013
1409.71059,0.18675
1411.63906,0.19643
1413.56753,0.20059
1415.49600,0.19948
1417.42446,0.19677
1419.35293,0.18903
1421.28140,0.18279
1423.20987,0.18392
1425.13834,0.18462
1427.06681,0.18397
1428.99528,0.18542
1430.92375,0.18645
1432.85221,0.18868
1434.78068,0.19419
1436.70915,0.19493
1438.63762,0.18644
1440.56609,0.17950
1442.49456,0.17797
1444.42303,0.18066
1446.35149,0.18405
1448.27996,0.18367
1450.20843,0.18104
1452.13690,0.18231
1454.06537,0.18976
1455.99384,0.20391
1457.92231,0.21319
1459.85077,0.20494
1461.77924,0.19901
1463.70771,0.20147
1465.63618,0.20199
1467.56465,0.19608
1469.49312,0.19566
1471.42159,0.20405
1473.35006,0.21301
1475.27852,0.21394
1477.20699,0.20941
1479.13546,0.20390
1481.06393,0.19807
1482.99240,0.19047
1484.92087,0.18715
1486.84934,0.19472
1488.77780,0.20800
1490.70627,0.20959
1492.63474,0.20219
1494.56321,0.20104
1496.49168,0.20927
1498.42015,0.21536
1500.34862,0.22169
1502.27709,0.24582
1504.20555,0.28956
1506.13402,0.32548
1508.06249,0.27593
1509.99096,0.22313
1511.91943,0.20719
1513.84790,0.21025
1515.77637,0.22359
1517.70483,0.23071
1519.63330,0.22940
1521.56177,0.22702
1523.49024,0.22256
1525.41871,0.21863
1527.34718,0.21157
1529.27565,0.20499
1531.20412,0.20471
1533.13258,0.20401
1535.06105,0.20050
1536.98952,0.20828
1538.91799,0.22992
1540.84646,0.23919
1542.77493,0.22493
1544.70340,0.21163
1546.63186,0.20086
1548.56033,0.19572
1550.48880,0.19434
1552.41727,0.19601
1554.34574,0.20454
1556.27421,0.22046
1558.20268,0.23690
1560.13115,0.21980
1562.05961,0.20039
1563.98808,0.19632
1565.91655,0.19720
1567.84502,0.19987
1569.77349,0.20113
1571.70196,0.19419
1573.63043,0.18757
1575.55889,0.18696
1577.48736,0.18620
1579.41583,0.18297
1581.34430,0.18245
1583.27277,0.18582
1585.20124,0.19060
1587.12971,0.19157
1589.05818,0.18815
1590.98664,0.18596
1592.91511,0.18703
1594.84358,0.18831
1596.77205,0.18511
1598.70052,0.17703
1600.62899,0.17166
1602.55746,0.17279
1604.48592,0.17560
1606.41439,0.17834
1608.34286,0.18105
1610.27133,0.18153
1612.19980,0.18235
1614.12827,0.18897
1616.05674,0.20215
1617.98521,0.20860
1619.91367,0.20671
1621.84214,0.20778
1623.77061,0.20835
1625.69908,0.20539
1627.62755,0.20354
1629.55602,0.20101
1631.48449,0.20100
1633.41295,0.21200
1635.34142,0.22970
1637.26989,0.22444
1639.19836,0.20939
1641.12683,0.20374
1643.05530,0.20706
1644.98377,0.22361
1646.91223,0.24622
1648.84070,0.24455
1650.76917,0.23999
1652.69764,0.24641
1654.62611,0.22728
1656.55458,0.20296
1658.48305,0.19680
1660.41152,0.20479
1662.33998,0.21512
1664.26845,0.21322
1666.19692,0.20854
1668.12539,0.21558
1670.05386,0.22477
1671.98233,0.21754
1673.91080,0.20689
1675.83926,0.20203
1677.76773,0.20527
1679.69620,0.21295
1681.62467,0.22271
1683.55314,0.23498
1685.48161,0.23090
1687.41008,0.21835
1689.33855,0.21235
1691.26701,0.20787
1693.19548,0.20803
1695.12395,0.21936
1697.05242,0.23443
1698.98089,0.23688
1700.90936,0.22481
1702.83783,0.21650
1704.76629,0.21615
1706.69476,0.21329
1708.62323,0.20732
1710.55170,0.20255
1712.48017,0.20366
1714.40864,0.21666
1716.33711,0.23012
1718.26558,0.21824
1720.19404,0.19978
1722.12251,0.19093
1724.05098,0.18762
1725.97945,0.18803
1727.90792,0.19225
1729.83639,0.19910
1731.76486,0.20632
1733.69332,0.20918
1735.62179,0.20231
1737.55026,0.19965
1739.47873,0.20408
1741.40720,0.20546
1743.33567,0.20118
1745.26414,0.20013
1747.19261,0.20703
1749.12107,0.21282
1751.04954,0.20546
1752.97801,0.19476
1754.90648,0.19235
1756.83495,0.19498
1758.76342,0.19665
1760.69189,0.19800
1762.62035,0.19613
1764.54882,0.19096
1766.47729,0.19136
1768.40576,0.19981
1770.33423,0.21226
1772.26270,0.21926
1774.19117,0.21230
1776.11964,0.20300
1778.04810,0.20032
1779.97657,0.20019
1781.90504,0.19583
1783.83351,0.19064
1785.76198,0.18884
1787.69045,0.19067
1789.61892,0.19716
1791.54738,0.20628
1793.47585,0.20684
1795.40432,0.19762
1797.33279,0.19194
1799.26126,0.19425
1801.18973,0.19748
1803.11820,0.19768
1805.04666,0.19742
1806.97513,0.19598
1808.90360,0.19348
1810.83207,0.19204
1812.76054,0.19056
1814.68901,0.18860
1816.61748,0.18960
1818.54595,0.19669
1820.47441,0.20368
1822.40288,0.20249
1824.33135,0.19721
1826.25982,0.19526
1828.18829,0.19690
1830.11676,0.19728
1832.04523,0.19337
1833.97369,0.18953
1835.90216,0.18733
1837.83063,0.18689
1839.75910,0.19000
1841.68757,0.19613
1843.61604,0.19885
1845.54451,0.19185
1847.47298,0.18546
1849.40144,0.18521
1851.32991,0.18650
1853.25838,0.18769
1855.18685,0.18940
1857.11532,0.19058
1859.04379,0.19051
1860.97226,0.18974
1862.90072,0.18933
1864.82919,0.19165
1866.75766,0.19808
1868.68613,0.20420
1870.61460,0.20242
1872.54307,0.19734
1874.47154,0.19540
1876.40001,0.19525
1878.32847,0.19435
1880.25694,0.19120
1882.18541,0.18722
1884.11388,0.18624
1886.04235,0.18837
1887.97082,0.19288
1889.89929,0.19743
1891.82775,0.19796
1893.75622,0.19531
1895.68469,0.19115
1897.61316,0.18795
1899.54163,0.18763
1901.47010,0.18798
1903.39857,0.18755
1905.32704,0.18681
1907.25550,0.18609
1909.18397,0.18719
1911.11244,0.19049
1913.04091,0.19364
1914.96938,0.19629
1916.89785,0.19841
1918.82632,0.19816
1920.75478,0.19679
1922.68325,0.19501
1924.61172,0.19061
1926.54019,0.18560
1928.46866,0.18361
1930.39713,0.18429
1932.32560,0.18442
1934.25407,0.18288
1936.18253,0.18137
1938.11100,0.18216
1940.03947,0.18580
1941.96794,0.18981
1943.89641,0.19187
1945.82488,0.19070
1947.75335,0.18692
1949.68181,0.18401
1951.61028,0.18284
1953.53875,0.18255
1955.46722,0.18441
1957.39569,0.18754
1959.32416,0.18950
1961.25263,0.19001
1963.18110,0.19242
1965.10956,0.19771
1967.03803,0.19836
1968.96650,0.19160
1970.89497,0.18562
1972.82344,0.18490
1974.75191,0.18358
1976.68038,0.18114
1978.60884,0.18206
1980.53731,0.18055
1982.46578,0.18042
1984.39425,0.18643
1986.32272,0.18912
1988.25119,0.18995
1990.17966,0.19472
1992.10812,0.19804
1994.03659,0.19521
1995.96506,0.19156
1997.89353,0.19119
1999.82200,0.19158
2001.75047,0.19153
2003.67894,0.19134
2005.60741,0.19072
2007.53587,0.18901
2009.46434,0.18778
2011.39281,0.18742
2013.32128,0.18648
2015.24975,0.18830
2017.17822,0.19175
2019.10669,0.19220
2021.03515,0.19180
2022.96362,0.19046
2024.89209,0.18693
2026.82056,0.18409
2028.74903,0.18271
2030.67750,0.18206
2032.60597,0.18289
2034.53444,0.18524
2036.46290,0.18768
2038.39137,0.18970
2040.31984,0.19075
2042.24831,0.19041
2044.17678,0.19043
2046.10525,0.19113
2048.03372,0.19175
2049.96218,0.19181
2051.89065,0.19134
2053.81912,0.19076
2055.74759,0.18891
2057.67606,0.18681
2059.60453,0.18743
2061.53300,0.18927
2063.46147,0.18942
2065.38993,0.18764
2067.31840,0.18511
2069.24687,0.18475
2071.17534,0.18638
2073.10381,0.18771
2075.03228,0.19023
2076.96075,0.19305
2078.88921,0.19307
2080.81768,0.19062
2082.74615,0.18915
2084.67462,0.19088
2086.60309,0.19366
2088.53156,0.19447
2090.46003,0.19264
2092.38850,0.19007
2094.31696,0.18848
2096.24543,0.18824
2098.17390,0.18916
2100.10237,0.19048
2102.03084,0.19244
2103.95931,0.19418
2105.88778,0.19344
2107.81624,0.19128
2109.74471,0.18986
2111.67318,0.18892
2113.60165,0.18809
2115.53012,0.18833
2117.45859,0.19064
2119.38706,0.19264
2121.31553,0.19195
2123.24399,0.19178
2125.17246,0.19342
2127.10093,0.19347
2129.02940,0.19245
2130.95787,0.19218
2132.88634,0.19103
2134.81481,0.19241
2136.74327,0.19766
2138.67174,0.19809
2140.60021,0.19348
2142.52868,0.19206
2144.45715,0.19410
2146.38562,0.19442
2148.31409,0.19096
2150.24255,0.18689
2152.17102,0.18680
2154.09949,0.19047
2156.02796,0.19266
2157.95643,0.18993
2159.88490,0.18479
2161.81337,0.18308
2163.74184,0.18645
2165.67030,0.19007
2167.59877,0.19098
2169.52724,0.19102
2171.45571,0.19189
2173.38418,0.19282
2175.31265,0.19156
2177.24112,0.19021
2179.16958,0.19197
2181.09805,0.19172
2183.02652,0.18733
2184.95499,0.18366
2186.88346,0.18137
2188.81193,0.18101
2190.74040,0.18385
2192.66887,0.18750
2194.59733,0.18927
2196.52580,0.18942
2198.45427,0.18979
2200.38274,0.19107
2202.31121,0.19333
2204.23968,0.19501
2206.16815,0.19399
2208.09661,0.19147
2210.02508,0.18915
2211.95355,0.18772
2213.88202,0.18849
2215.81049,0.19027
2217.73896,0.18970
2219.66743,0.18694
2221.59590,0.18615
2223.52436,0.18890
2225.45283,0.19135
2227.38130,0.19155
2229.30977,0.19210
2231.23824,0.19381
2233.16671,0.19499
2235.09518,0.19497
2237.02364,0.19454
2238.95211,0.19388
2240.88058,0.19115
2242.80905,0.18704
2244.73752,0.18666
2246.66599,0.19002
2248.59446,0.19159
2250.52293,0.19117
2252.45139,0.19144
2254.37986,0.19223
2256.30833,0.19259
2258.23680,0.19201
2260.16527,0.19029
2262.09374,0.18885
2264.02221,0.18996
2265.95067,0.19136
2267.87914,0.18975
2269.80761,0.18823
2271.73608,0.18964
2273.66455,0.19076
2275.59302,0.18808
2277.52149,0.18456
2279.44996,0.18451
2281.37842,0.18613
2283.30689,0.18710
2285.23536,0.18882
2287.16383,0.19181
2289.09230,0.19280
2291.02077,0.19050
2292.94924,0.18971
2294.87770,0.19200
2296.80617,0.19255
2298.73464,0.19149
2300.66311,0.19340
2302.59158,0.19702
2304.52005,0.19865
2306.44852,0.19936
2308.37699,0.20038
2310.30545,0.19975
2312.23392,0.19610
2314.16239,0.19189
2316.09086,0.19646
2318.01933,0.21148
2319.94780,0.22115
2321.87627,0.21948
2323.80473,0.21721
2325.73320,0.21813
2327.66167,0.22089
2329.59014,0.22185
2331.51861,0.21902
2333.44708,0.21841
2335.37555,0.21479
2337.30401,0.20248
2339.23248,0.20152
2341.16095,0.21944
2343.08942,0.22977
2345.01789,0.22421
2346.94636,0.21637
2348.87483,0.21149
2350.80330,0.21395
2352.73176,0.22407
2354.66023,0.22921
2356.58870,0.22980
2358.51717,0.23378
2360.44564,0.22636
2362.37411,0.20379
2364.30258,0.19229
2366.23104,0.20312
2368.15951,0.20288
2370.08798,0.18540
2372.01645,0.18386
2373.94492,0.20050
2375.87339,0.21207
2377.80186,0.21051
2379.73033,0.20196
2381.65879,0.19455
2383.58726,0.19109
2385.51573,0.18960
2387.44420,0.18961
2389.37267,0.19047
2391.30114,0.19198
2393.22961,0.19515
2395.15807,0.19675
2397.08654,0.19430
2399.01501,0.19173
2400.94348,0.19223
2402.87195,0.19296
2404.80042,0.19117
2406.72889,0.18981
2408.65736,0.19109
2410.58582,0.19222
2412.51429,0.19157
2414.44276,0.19071
2416.37123,0.19073
2418.29970,0.19287
2420.22817,0.19621
2422.15664,0.19676
2424.08510,0.19468
2426.01357,0.19341
2427.94204,0.19333
2429.87051,0.19174
2431.79898,0.18832
2433.72745,0.18673
2435.65592,0.18833
2437.58439,0.19120
2439.51285,0.19235
2441.44132,0.19066
2443.36979,0.18844
2445.29826,0.18758
2447.22673,0.18828
2449.15520,0.18781
2451.08367,0.18385
2453.01213,0.17995
2454.94060,0.18081
2456.86907,0.18486
2458.79754,0.18786
2460.72601,0.18970
2462.65448,0.19068
2464.58295,0.18989
2466.51142,0.18849
2468.43988,0.18861
2470.36835,0.19001
2472.29682,0.18960
2474.22529,0.18681
2476.15376,0.18490
2478.08223,0.18609
2480.01070,0.18946
2481.93916,0.19137
2483.86763,0.18918
2485.79610,0.18682
2487.72457,0.18809
2489.65304,0.18977
2491.58151,0.18997
2493.50998,0.19042
2495.43844,0.19077
2497.36691,0.19005
2499.29538,0.18977
2501.22385,0.19177
2503.15232,0.19446
2505.08079,0.19456
2507.00926,0.19228
2508.93773,0.19070
2510.86619,0.19287
2512.79466,0.19825
2514.72313,0.20238
2516.65160,0.20262
2518.58007,0.19926
2520.50854,0.19490
2522.43701,0.19268
2524.36547,0.19209
2526.29394,0.19238
2528.22241,0.19406
2530.15088,0.19450
2532.07935,0.19090
2534.00782,0.18636
2535.93629,0.18558
2537.86476,0.18846
2539.79322,0.19106
2541.72169,0.19076
2543.65016,0.19007
2545.57863,0.19119
2547.50710,0.19087
2549.43557,0.18850
2551.36404,0.18846
2553.29250,0.19207
2555.22097,0.19659
2557.14944,0.19814
2559.07791,0.19559
2561.00638,0.19284
2562.93485,0.19277
2564.86332,0.19341
2566.79179,0.19223
2568.72025,0.19083
2570.64872,0.19112
2572.57719,0.19178
2574.50566,0.19193
2576.43413,0.19266
2578.36260,0.19495
2580.29107,0.19687
2582.21953,0.19651
2584.14800,0.19580
2586.07647,0.19589
2588.00494,0.19499
2589.93341,0.19327
2591.86188,0.19191
2593.79035,0.19099
2595.71882,0.19204
2597.64728,0.19507
2599.57575,0.19687
2601.50422,0.19590
2603.43269,0.19382
2605.36116,0.19219
2607.28963,0.19200
2609.21810,0.19412
2611.14656,0.19562
2613.07503,0.19351
2615.00350,0.19047
2616.93197,0.18938
2618.86044,0.19041
2620.78891,0.19263
2622.71738,0.19456
2624.64585,0.19682
2626.57431,0.19908
2628.50278,0.19805
2630.43125,0.19555
2632.35972,0.19620
2634.28819,0.19906
2636.21666,0.19935
2638.14513,0.19674
2640.07359,0.19562
2642.00206,0.19542
2643.93053,0.19371
2645.85900,0.19237
2647.78747,0.19380
2649.71594,0.19772
2651.64441,0.20054
2653.57288,0.20039
2655.50134,0.19943
2657.42981,0.19964
2659.35828,0.20003
2661.28675,0.19918
2663.21522,0.19862
2665.14369,0.19960
2667.07216,0.20119
2669.00062,0.20276
2670.92909,0.20344
2672.85756,0.20234
2674.78603,0.20000
2676.71450,0.19700
2678.64297,0.19500
2680.57144,0.19568
2682.49990,0.19651
2684.42837,0.19600
2686.35684,0.19658
2688.28531,0.19802
2690.21378,0.19795
2692.14225,0.19611
2694.07072,0.19359
2695.99919,0.19227
2697.92765,0.19444
2699.85612,0.20015
2701.78459,0.20492
2703.71306,0.20523
2705.64153,0.20319
2707.57000,0.20157
2709.49847,0.20273
2711.42693,0.20626
2713.35540,0.20717
2715.28387,0.20389
2717.21234,0.19968
2719.14081,0.19722
2721.06928,0.19652
2722.99775,0.19855
2724.92622,0.20310
2726.85468,0.20457
2728.78315,0.20224
2730.71162,0.20032
2732.64009,0.19928
2734.56856,0.19899
2736.49703,0.20035
2738.42550,0.20304
2740.35396,0.20441
2742.28243,0.20289
2744.21090,0.20153
2746.13937,0.20253
2748.06784,0.20468
2749.99631,0.20680
2751.92478,0.20782
2753.85325,0.20598
2755.78171,0.20306
2757.71018,0.20081
2759.63865,0.19776
2761.56712,0.19863
2763.49559,0.20537
2765.42406,0.20940
2767.35253,0.20839
2769.28099,0.20647
2771.20946,0.20416
2773.13793,0.20147
2775.06640,0.19876
2776.99487,0.19586
2778.92334,0.19405
2780.85181,0.19556
2782.78028,0.20102
2784.70874,0.20696
2786.63721,0.20932
2788.56568,0.20887
2790.49415,0.20691
2792.42262,0.20466
2794.35109,0.20547
2796.27956,0.20826
2798.20802,0.20840
2800.13649,0.20567
2802.06496,0.20503
2803.99343,0.20719
2805.92190,0.20774
2807.85037,0.20665
2809.77884,0.20576
2811.70731,0.20465
2813.63577,0.20374
2815.56424,0.20496
2817.49271,0.20810
2819.42118,0.20907
2821.34965,0.20754
2823.27812,0.20793
2825.20659,0.20752
2827.13505,0.20245
2829.06352,0.19999
2830.99199,0.20320
2832.92046,0.20649
2834.84893,0.20980
2836.77740,0.21258
2838.70587,0.21239
2840.63433,0.21056
2842.56280,0.20806
2844.49127,0.20725
2846.41974,0.20970
2848.34821,0.21317
2850.27668,0.21455
2852.20515,0.21067
2854.13362,0.20339
2856.06208,0.19969
2857.99055,0.20197
2859.91902,0.20457
2861.84749,0.20380
2863.77596,0.20245
2865.70443,0.20068
2867.63290,0.19850
2869.56136,0.20077
2871.48983,0.20583
2873.41830,0.20654
2875.34677,0.20368
2877.27524,0.20225
2879.20371,0.20340
2881.13218,0.20691
2883.06065,0.21122
2884.98911,0.21249
2886.91758,0.21067
2888.84605,0.20980
2890.77452,0.21025
2892.70299,0.20932
2894.63146,0.20533
2896.55993,0.20038
2898.48839,0.19961
2900.41686,0.20131
2902.34533,0.20089
2904.27380,0.19988
2906.20227,0.20029
2908.13074,0.20294
2910.05921,0.20590
2911.98768,0.20512
2913.91614,0.20395
2915.84461,0.20574
2917.77308,0.20606
2919.70155,0.20511
2921.63002,0.20663
2923.55849,0.20505
2925.48696,0.19592
2927.41542,0.19049
2929.34389,0.19452
2931.27236,0.19981
2933.20083,0.20597
2935.12930,0.21116
2937.05777,0.20998
2938.98624,0.20791
2940.91471,0.20688
2942.84317,0.20389
2944.77164,0.20006
2946.70011,0.19873
2948.62858,0.20307
2950.55705,0.20956
2952.48552,0.21286
2954.41399,0.21197
2956.34245,0.20577
2958.27092,0.19721
2960.19939,0.19443
2962.12786,0.19867
2964.05633,0.20392
2965.98480,0.20756
2967.91327,0.20914
2969.84174,0.20883
2971.77020,0.20958
2973.69867,0.20981
2975.62714,0.20620
2977.55561,0.20320
2979.48408,0.20583
2981.41255,0.21188
2983.34102,0.21633
2985.26948,0.21511
2987.19795,0.20866
2989.12642,0.20516
2991.05489,0.20850
2992.98336,0.21177
2994.91183,0.21135
2996.84030,0.21028
2998.76877,0.21150
3000.69723,0.21540
3002.62570,0.21856
3004.55417,0.21714
3006.48264,0.21371
3008.41111,0.21432
3010.33958,0.21344
3012.26805,0.20148
3014.19651,0.17970
3016.12498,0.16210
3018.05345,0.16946
3019.98192,0.19452
3021.91039,0.20906
3023.83886,0.21153
3025.76733,0.21360
3027.69579,0.21486
3029.62426,0.21476
3031.55273,0.21620
3033.48120,0.21584
3035.40967,0.21000
3037.33814,0.20485
3039.26661,0.20577
3041.19508,0.20746
3043.12354,0.20703
3045.05201,0.20808
3046.98048,0.20809
3048.90895,0.20707
3050.83742,0.21128
3052.76589,0.21638
3054.69436,0.21422
3056.62282,0.20888
3058.55129,0.20947
3060.47976,0.21279
3062.40823,0.21057
3064.33670,0.20412
3066.26517,0.19764
3068.19364,0.19501
3070.12211,0.19682
3072.05057,0.20019
3073.97904,0.20373
3075.90751,0.20575
3077.83598,0.20933
3079.76445,0.21691
3081.69292,0.22182
3083.62139,0.21545
3085.54985,0.20257
3087.47832,0.19954
3089.40679,0.20707
3091.33526,0.21235
3093.26373,0.21128
3095.19220,0.21068
3097.12067,0.21572
3099.04914,0.22074
3100.97760,0.21810
3102.90607,0.20982
3104.83454,0.20719
3106.76301,0.21130
3108.69148,0.21182
3110.61995,0.20740
3112.54842,0.20400
3114.47688,0.20464
3116.40535,0.20826
3118.33382,0.21069
3120.26229,0.20902
3122.19076,0.20858
3124.11923,0.21334
3126.04770,0.21730
3127.97617,0.21645
3129.90463,0.21315
3131.83310,0.21296
3133.76157,0.21732
3135.69004,0.22024
3137.61851,0.21671
3139.54698,0.20959
3141.47545,0.20691
3143.40391,0.21024
3145.33238,0.21709
3147.26085,0.22339
3149.18932,0.22128
3151.11779,0.21347
3153.04626,0.21159
3154.97473,0.21505
3156.90320,0.21432
3158.83166,0.20997
3160.76013,0.20875
3162.68860,0.21173
3164.61707,0.21815
3166.54554,0.22466
3168.47401,0.22572
3170.40248,0.22254
3172.33094,0.22000
3174.25941,0.22014
3176.18788,0.21991
3178.11635,0.21464
3180.04482,0.20930
3181.97329,0.21104
3183.90176,0.21527
3185.83022,0.21801
3187.75869,0.22255
3189.68716,0.22637
3191.61563,0.22558
3193.54410,0.22406
3195.47257,0.22366
3197.40104,0.22135
3199.32951,0.21879
3201.25797,0.21700
3203.18644,0.21487
3205.11491,0.21595
3207.04338,0.21957
3208.97185,0.22013
3210.90032,0.21708
3212.82879,0.21508
3214.75725,0.21585
3216.68572,0.21741
3218.61419,0.22144
3220.54266,0.22593
3222.47113,0.22411
3224.39960,0.21717
3226.32807,0.21108
3228.25654,0.20749
3230.18500,0.20556
3232.11347,0.20532
3234.04194,0.20735
3235.97041,0.21085
3237.89888,0.21269
3239.82735,0.21450
3241.75582,0.21786
3243.68428,0.21576
3245.61275,0.20711
3247.54122,0.20132
3249.46969,0.20188
3251.39816,0.20483
3253.32663,0.20982
3255.25510,0.21666
3257.18357,0.22009
3259.11203,0.22014
3261.04050,0.21958
3262.96897,0.21751
3264.89744,0.21655
3266.82591,0.21715
3268.75438,0.21785
3270.68285,0.22200
3272.61131,0.22651
3274.53978,0.22401
3276.46825,0.21469
3278.39672,0.20621
3280.32519,0.20640
3282.25366,0.21217
3284.18213,0.21256
3286.11060,0.20421
3288.03906,0.19644
3289.96753,0.19801
3291.89600,0.20609
3293.82447,0.21334
3295.75294,0.21707
3297.68141,0.21741
3299.60988,0.21374
3301.53834,0.20900
3303.46681,0.20779
3305.39528,0.20790
3307.32375,0.20851
3309.25222,0.21195
3311.18069,0.21357
3313.10916,0.21055
3315.03763,0.20685
3316.96609,0.20753
3318.89456,0.21262
3320.82303,0.21632
3322.75150,0.21724
3324.67997,0.21550
3326.60844,0.21148
3328.53691,0.21027
3330.46537,0.21293
3332.39384,0.21600
3334.32231,0.21883
3336.25078,0.22340
3338.17925,0.22741
3340.10772,0.22469
3342.03619,0.21682
3343.96466,0.20963
3345.89312,0.20484
3347.82159,0.20347
3349.75006,0.20721
3351.67853,0.21642
3353.60700,0.22501
3355.53547,0.22464
3357.46394,0.21784
3359.39240,0.21383
3361.32087,0.21511
3363.24934,0.21863
3365.17781,0.22106
3367.10628,0.21896
3369.03475,0.21409
3370.96322,0.21245
3372.89168,0.21526
3374.82015,0.22018
3376.74862,0.22484
3378.67709,0.22721
3380.60556,0.22653
3382.53403,0.22184
3384.46250,0.21424
3386.39097,0.21068
3388.31943,0.21235
3390.24790,0.21326
3392.17637,0.21285
3394.10484,0.21237
3396.03331,0.21298
3397.96178,0.21443
3399.89025,0.21446
3401.81871,0.21396
3403.74718,0.21220
3405.67565,0.21063
3407.60412,0.21376
3409.53259,0.21751
3411.46106,0.21652
3413.38953,0.21246
3415.31800,0.20851
3417.24646,0.20981
3419.17493,0.21449
3421.10340,0.21420
3423.03187,0.21216
3424.96034,0.21323
3426.88881,0.21391
3428.81728,0.21325
3430.74574,0.21383
3432.67421,0.21404
3434.60268,0.20979
3436.53115,0.20478
3438.45962,0.20566
3440.38809,0.20670
3442.31656,0.19985
3444.24503,0.19514
3446.17349,0.20183
3448.10196,0.20881
3450.03043,0.20531
3451.95890,0.19842
3453.88737,0.19830
3455.81584,0.20288
3457.74431,0.20139
3459.67277,0.19270
3461.60124,0.19097
3463.52971,0.19899
3465.45818,0.20145
3467.38665,0.19583
3469.31512,0.19368
3471.24359,0.19843
3473.17206,0.20341
3475.10052,0.20290
3477.02899,0.19928
3478.95746,0.19829
3480.88593,0.19580
3482.81440,0.18781
3484.74287,0.18363
3486.67134,0.18669
3488.59980,0.18783
3490.52827,0.18227
3492.45674,0.17784
3494.38521,0.18081
3496.31368,0.18744
3498.24215,0.19153
3500.17062,0.19122
3502.09909,0.18904
3504.02755,0.18645
3505.95602,0.18333
3507.88449,0.17908
3509.81296,0.17402
3511.74143,0.17317
3513.66990,0.17767
3515.59837,0.18298
3517.52683,0.18515
3519.45530,0.18158
3521.38377,0.17768
3523.31224,0.17976
3525.24071,0.18201
3527.16918,0.18181
3529.09765,0.18068
3531.02611,0.17428
3532.95458,0.16602
3534.88305,0.16513
3536.81152,0.17050
3538.73999,0.17334
3540.66846,0.17513
3542.59693,0.17943
3544.52540,0.18414
3546.45386,0.18697
3548.38233,0.18549
3550.31080,0.18244
3552.23927,0.17946
3554.16774,0.17451
3556.09621,0.16774
3558.02468,0.16307
3559.95314,0.16714
3561.88161,0.17745
3563.81008,0.18389
3565.73855,0.18343
3567.66702,0.17713
3569.59549,0.16924
3571.52396,0.16629
3573.45243,0.16839
3575.38089,0.17258
3577.30936,0.17489
3579.23783,0.16959
3581.16630,0.16095
3583.09477,0.16071
3585.02324,0.16764
3586.95171,0.16933
3588.88017,0.16091
3590.80864,0.15403
3592.73711,0.15302
3594.66558,0.15507
3596.59405,0.15854
3598.52252,0.16302
3600.45099,0.16548
3602.37946,0.16256
3604.30792,0.15784
3606.23639,0.15624
3608.16486,0.15382
3610.09333,0.15005
3612.02180,0.15092
3613.95027,0.15185
3615.87874,0.15396
3617.80720,0.16180
3619.73567,0.16586
3621.66414,0.16315
3623.59261,0.16157
3625.52108,0.16234
3627.44955,0.16843
3629.37802,0.17170
3631.30649,0.15913
3633.23495,0.14723
3635.16342,0.14338
3637.09189,0.14424
3639.02036,0.14576
3640.94883,0.14619
3642.87730,0.14516
3644.80577,0.14893
3646.73423,0.16462
3648.66270,0.18123
3650.59117,0.17030
3652.51964,0.15110
3654.44811,0.14400
3656.37658,0.14284
3658.30505,0.13832
3660.23352,0.13450
3662.16198,0.13512
3664.09045,0.13776
3666.01892,0.14196
3667.94739,0.14963
3669.87586,0.15402
3671.80433,0.14778
3673.73280,0.14497
3675.66126,0.14832
3677.58973,0.14603
3679.51820,0.14205
3681.44667,0.14049
3683.37514,0.13726
3685.30361,0.13467
3687.23208,0.14069
3689.16055,0.15487
3691.08901,0.16048
3693.01748,0.15387
3694.94595,0.14401
3696.87442,0.13535
3698.80289,0.13148
3700.73136,0.13185
3702.65983,0.13350
3704.58829,0.13737
3706.51676,0.14218
3708.44523,0.14517
3710.37370,0.15123
3712.30217,0.15772
3714.23064,0.14916
3716.15911,0.13502
3718.08757,0.12860
3720.01604,0.13201
3721.94451,0.13657
3723.87298,0.13841
3725.80145,0.14089
3727.72992,0.14247
3729.65839,0.14336
3731.58686,0.14619
3733.51532,0.15107
3735.44379,0.15489
3737.37226,0.15325
3739.30073,0.14804
3741.22920,0.14276
3743.15767,0.14061
3745.08614,0.14179
3747.01460,0.14160
3748.94307,0.14487
3750.87154,0.15202
3752.80001,0.14950
3754.72848,0.14403
3756.65695,0.14341
3758.58542,0.14391
3760.51389,0.14313
3762.44235,0.14313
3764.37082,0.14172
3766.29929,0.13935
3768.22776,0.14111
3770.15623,0.14266
3772.08470,0.13811
3774.01317,0.13294
3775.94163,0.13254
3777.87010,0.13737
3779.79857,0.14187
3781.72704,0.14151
3783.65551,0.13782
3785.58398,0.13196
3787.51245,0.12650
3789.44092,0.12250
3791.36938,0.12278
3793.29785,0.13034
3795.22632,0.13759
3797.15479,0.13494
3799.08326,0.13228
3801.01173,0.14209
3802.94020,0.14979
3804.86866,0.14643
3806.79713,0.14043
3808.72560,0.13238
3810.65407,0.12715
3812.58254,0.12681
3814.51101,0.12979
3816.43948,0.13180
3818.36795,0.13282
3820.29641,0.14233
3822.22488,0.14698
3824.15335,0.13646
3826.08182,0.12684
3828.01029,0.12368
3829.93876,0.12743
3831.86723,0.13481
3833.79569,0.13998
3835.72416,0.14281
3837.65263,0.14804
3839.58110,0.15191
3841.50957,0.14587
3843.43804,0.13444
3845.36651,0.12535
3847.29498,0.12352
3849.22344,0.13223
3851.15191,0.15699
3853.08038,0.18693
3855.00885,0.16973
3856.93732,0.14068
3858.86579,0.12961
3860.79426,0.12931
3862.72272,0.12872
3864.65119,0.12252
3866.57966,0.11669
3868.50813,0.11364
3870.43660,0.11468
3872.36507,0.11646
3874.29354,0.11507
3876.22200,0.11750
3878.15047,0.12606
3880.07894,0.13182
3882.00741,0.12783
3883.93588,0.12142
3885.86435,0.11705
3887.79282,0.11717
3889.72129,0.12157
3891.64975,0.12537
3893.57822,0.12390
3895.50669,0.12509
3897.43516,0.13408
3899.36363,0.14419
3901.29210,0.14696
3903.22057,0.14069
3905.14903,0.12919
3907.07750,0.12075
3909.00597,0.11863
3910.93444,0.11906
3912.86291,0.11862
3914.79138,0.11926
3916.71985,0.12113
3918.64832,0.12269
3920.57678,0.12287
3922.50525,0.12143
3924.43372,0.12338
3926.36219,0.12983
3928.29066,0.13230
3930.21913,0.12540
3932.14760,0.11524
3934.07606,0.11107
3936.00453,0.10926
3937.93300,0.10809
3939.86147,0.11412
3941.78994,0.12053
3943.71841,0.11794
3945.64688,0.11740
3947.57535,0.11993
3949.50381,0.11786
3951.43228,0.11386
3953.36075,0.10762
3955.28922,0.10063
3957.21769,0.09934
3959.14616,0.10159
3961.07463,0.10009
3963.00309,0.09676
3964.93156,0.09876
3966.86003,0.10573
3968.78850,0.11259
3970.71697,0.11562
3972.64544,0.11227
3974.57391,0.10468
3976.50238,0.10004
3978.43084,0.10187
3980.35931,0.10675
3982.28778,0.10717
3984.21625,0.10255
3986.14472,0.10215
3988.07319,0.10667
3990.00166,0.10856
3991.93012,0.10709
3993.85859,0.10552
3995.78706,0.10500
3997.71553,0.10703
3999.64400,0.10866
4001.57247,0.10462
4003.50094,0.09932
4005.42941,0.10052
4007.35787,0.10643
4009.28634,0.10936
4011.21481,0.10823
4013.14328,0.10548
4015.07175,0.10243
4017.00022,0.10396
4018.92869,0.10906
4020.85715,0.11107
4022.78562,0.10930
4024.71409,0.10504
4026.64256,0.09965
4028.57103,0.09786
4030.49950,0.09863
4032.42797,0.09763
4034.35644,0.09840
4036.28490,0.10197
4038.21337,0.10342
4040.14184,0.10157
4042.07031,0.09968
4043.99878,0.09873
4045.92725,0.09749
4047.85572,0.09902
4049.78418,0.10246
4051.71265,0.10257
4053.64112,0.10070
4055.56959,0.09930
4057.49806,0.09618
4059.42653,0.09277
4061.35500,0.09483
4063.28346,0.10015
4065.21193,0.10264
4067.14040,0.10165
4069.06887,0.10075
4070.99734,0.10354
4072.92581,0.10429
4074.85428,0.09760
4076.78275,0.09111
4078.71121,0.08962
4080.63968,0.08964
4082.56815,0.08956
4084.49662,0.08825
4086.42509,0.08529
4088.35356,0.08395
4090.28203,0.08664
4092.21049,0.09251
4094.13896,0.09919
4096.06743,0.10303
4097.99590,0.10197
4099.92437,0.09877
4101.85284,0.09510
4103.78131,0.09031
4105.70978,0.08626
4107.63824,0.08350
4109.56671,0.08547
4111.49518,0.09536
4113.42365,0.10287
4115.35212,0.09950
4117.28059,0.09291
4119.20906,0.09143
4121.13752,0.09149
4123.06599,0.08867
4124.99446,0.08554
4126.92293,0.08443
4128.85140,0.08676
4130.77987,0.08906
4132.70834,0.08705
4134.63681,0.08344
4136.56527,0.08085
4138.49374,0.08257
4140.42221,0.08505
4142.35068,0.07923
4144.27915,0.07227
4146.20762,0.07329
4148.13609,0.07872
4150.06455,0.08423
4151.99302,0.08585
4153.92149,0.08269
4155.84996,0.08048
4157.77843,0.08038
4159.70690,0.07554
4161.63537,0.06953
4163.56384,0.07373
4165.49230,0.08400
4167.42077,0.09137
4169.34924,0.09534
4171.27771,0.09657
4173.20618,0.09397
4175.13465,0.08891
4177.06312,0.08395
4178.99158,0.07867
4180.92005,0.07530
4182.84852,0.07630
4184.77699,0.07839
4186.70546,0.07832
4188.63393,0.07755
4190.56240,0.07618
4192.49087,0.07094
4194.41933,0.06773
4196.34780,0.07224
4198.27627,0.07521
4200.20474,0.07077
4202.13321,0.06897
4204.06168,0.07335
4205.99015,0.07536
4207.91861,0.07591
4209.84708,0.07954
4211.77555,0.08118
4213.70402,0.07897
4215.63249,0.07403
4217.56096,0.06515
4219.48943,0.05828
4221.41789,0.05654
4223.34636,0.05759
4225.27483,0.06312
4227.20330,0.06905
4229.13177,0.07063
4231.06024,0.07156
4232.98871,0.07326
4234.91718,0.07225
4236.84564,0.07041
4238.77411,0.07016
4240.70258,0.07034
4242.63105,0.07428
4244.55952,0.07832
4246.48799,0.07500
4248.41646,0.06647
4250.34492,0.05760
4252.27339,0.05052
4254.20186,0.04704
4256.13033,0.05543
4258.05880,0.07277
4259.98727,0.07871
4261.91574,0.07187
4263.84421,0.06814
4265.77267,0.06735
4267.70114,0.06451
4269.62961,0.06481
4271.55808,0.06668
4273.48655,0.06431
4275.41502,0.06065
4277.34349,0.06131
4279.27195,0.06738
4281.20042,0.07226
4283.12889,0.06987
4285.05736,0.06573
4286.98583,0.06278
4288.91430,0.05693
4290.84277,0.05436
4292.77124,0.05565
4294.69970,0.05284
4296.62817,0.05170
4298.55664,0.05587
4300.48511,0.05773
4302.41358,0.05579
4304.34205,0.05653
4306.27052,0.06184
4308.19898,0.06589
4310.12745,0.06341
4312.05592,0.05709
4313.98439,0.05446
4315.91286,0.05693
4317.84133,0.05899
4319.76980,0.05634
4321.69827,0.05454
4323.62673,0.05725
4325.55520,0.05769
4327.48367,0.05503
4329.41214,0.05284
4331.34061,0.05170
4333.26908,0.05049
4335.19755,0.05083
4337.12601,0.05501
4339.05448,0.05899
4340.98295,0.06192
4342.91142,0.06205
4344.83989,0.05653
4346.76836,0.05220
4348.69683,0.05196
4350.62530,0.05211
4352.55376,0.04940
4354.48223,0.04292
4356.41070,0.03955
4358.33917,0.04180
4360.26764,0.04352
4362.19611,0.04452
4364.12458,0.04214
4366.05304,0.03550
4367.98151,0.03592
4369.90998,0.04221
4371.83845,0.04385
4373.76692,0.04276
4375.69539,0.04169
4377.62386,0.03910
4379.55232,0.03772
4381.48079,0.03721
4383.40926,0.03400
4385.33773,0.03273
4387.26620,0.03800
4389.19467,0.04421
4391.12314,0.04638
4393.05161,0.04734
4394.98007,0.04671
4396.90854,0.04109
4398.83701,0.03229
4400.76548,0.02413
4402.69395,0.02031
4404.62242,0.02188
4406.55089,0.02871
4408.47935,0.03741
4410.40782,0.04382
4412.33629,0.04981
4414.26476,0.05312
4416.19323,0.05234
4418.12170,0.05121
4420.05017,0.04816
4421.97864,0.04227
4423.90710,0.03758
4425.83557,0.03419
4427.76404,0.02745
4429.69251,0.02006
4431.62098,0.01547
4433.54945,0.00887
4435.47792,0.00668
4437.40638,0.01897
4439.33485,0.03113
4441.26332,0.02942
4443.19179,0.02607
4445.12026,0.03042
4447.04873,0.03528
4448.97720,0.03406
4450.90567,0.02786
4452.83413,0.02240
4454.76260,0.02228
4456.69107,0.02422
4458.61954,0.02384
4460.54801,0.02563
4462.47648,0.02792
4464.40495,0.02458
4466.33341,0.02186
4468.26188,0.02034
4470.19035,0.01781
4472.11882,0.02331
4474.04729,0.03390
4475.97576,0.03476
4477.90423,0.02288
4479.83270,0.01023
4481.76116,0.00989
4483.68963,0.02015
4485.61810,0.02752
4487.54657,0.02672
4489.47504,0.02651
4491.40351,0.02938
4493.33198,0.02684
4495.26044,0.02010
4497.18891,0.01592
4499.11738,0.01389
4501.04585,0.01308
4502.97432,0.01072
4504.90279,0.00565
4506.83126,0.00834
4508.75973,0.01789
4510.68819,0.01936
4512.61666,0.01607
4514.54513,0.02046
4516.47360,0.02878
4518.40207,0.02904
4520.33054,0.02242
4522.25901,0.01895
4524.18747,0.01929
4526.11594,0.01763
4528.04441,0.01316
4529.97288,0.01094
4531.90135,0.01111
4533.82982,0.00627
4535.75829,-0.00657
4537.68676,-0.01628
4539.61522,-0.01223
4541.54369,-0.00206
4543.47216,0.00595
4545.40063,0.01234
4547.32910,0.01884
4549.25757,0.02354
4551.18604,0.01798
4553.11450,0.00521
4555.04297,0.00218
4556.97144,0.01199
4558.89991,0.02364
4560.82838,0.03273
4562.75685,0.03961
4564.68532,0.03806
4566.61378,0.02216
4568.54225,0.00273
4570.47072,-0.00246
4572.39919,0.00480
4574.32766,0.00883
4576.25613,0.00915
4578.18460,0.01407
4580.11307,0.01653
4582.04153,0.01164
4583.97000,0.00976
4585.89847,0.01482
4587.82694,0.01839
4589.75541,0.01618
4591.68388,0.01444
4593.61235,0.01494
4595.54081,0.01684
4597.46928,0.01796
4599.39775,0.01011
4601.32622,-0.00316
4603.25469,-0.01135
4605.18316,-0.01334
4607.11163,-0.01271
4609.04010,-0.00665
4610.96856,0.00801
4612.89703,0.02298
4614.82550,0.02908
4616.75397,0.02493
4618.68244,0.01482
4620.61091,0.00617
4622.53938,0.00612
4624.46784,0.01387
4626.39631,0.01599
4628.32478,0.00594
4630.25325,-0.00175
4632.18172,0.00289
4634.11019,0.00858
4636.03866,0.01024
4637.96713,0.01792
4639.89559,0.02523
4641.82406,0.01793
4643.75253,0.00991
4645.68100,0.01581
4647.60947,0.02574
4649.53794,0.02694
4651.46641,0.01815
4653.39487,0.01339
4655.32334,0.02239
4657.25181,0.03160
4659.18028,0.02524
4661.10875,0.01346
4663.03722,0.01141
4664.96569,0.01255
4666.89416,0.01354
4668.82262,0.01656
4670.75109,0.01704
4672.67956,0.01524
4674.60803,0.01263
4676.53650,0.01243
4678.46497,0.02158
4680.39344,0.03120
4682.32190,0.02328
4684.25037,0.00944
4686.17884,0.01070
4688.10731,0.01286
4690.03578,0.00100
4691.96425,-0.01020
4693.89272,-0.00975
4695.82119,-0.00301
4697.74965,0.00507
4699.67812,0.01348
4701.60659,0.02042
4703.53506,0.02255
4705.46353,0.01928
4707.39200,0.01518
4709.32047,0.01687
4711.24893,0.02678
4713.17740,0.03478
4715.10587,0.03188
4717.03434,0.02598
4718.96281,0.02250
4720.89128,0.01446
4722.81975,0.00085
4724.74821,-0.00458
4726.67668,0.00921
4728.60515,0.02495
4730.53362,0.02287
4732.46209,0.01550
4734.39056,0.01547
4736.31903,0.01792
4738.24750,0.02270
4740.17596,0.02620
4742.10443,0.02191
4744.03290,0.01940
4745.96137,0.02530
4747.88984,0.02834
4749.81831,0.02317
4751.74678,0.02255
4753.67524,0.03054
4755.60371,0.03454
4757.53218,0.03276
4759.46065,0.02602
4761.38912,0.00628
4763.31759,-0.01594
4765.24606,-0.02031
4767.17453,-0.00789
4769.10299,0.00622
4771.03146,0.01348
4772.95993,0.01262
4774.88840,0.00616
4776.81687,-0.00049
4778.74534,-0.00156
4780.67381,0.00766
4782.60227,0.02141
4784.53074,0.02663
4786.45921,0.01856
4788.38768,0.00782
4790.31615,0.00503
4792.24462,0.00327
4794.17309,0.00154
4796.10156,0.00574
4798.03002,0.01260
4799.95849,0.01793
4801.88696,0.01824
4803.81543,0.01778
4805.74390,0.01816
4807.67237,0.01225
4809.60084,0.00216
4811.52930,0.00094
4813.45777,0.01500
4815.38624,0.02485
4817.31471,0.01498
4819.24318,-0.00008
4821.17165,-0.00795
4823.10012,-0.00978
4825.02859,-0.00737
4826.95705,-0.00272
4828.88552,0.00027
4830.81399,0.00165
4832.74246,0.00547
4834.67093,0.01106
4836.59940,0.01127
4838.52787,0.00467
4840.45633,-0.00076
4842.38480,-0.00042
4844.31327,0.00113
4846.24174,0.00450
4848.17021,0.01235
4850.09868,0.01389
4852.02715,0.00833
4853.95562,0.00573
4855.88408,0.00621
4857.81255,0.00816
4859.74102,0.00749
4861.66949,0.00165
4863.59796,-0.00276
4865.52643,-0.00200
4867.45490,0.00477
4869.38336,0.01683
4871.31183,0.02543
4873.24030,0.02428
4875.16877,0.02052
4877.09724,0.02293
4879.02571,0.02249
4880.95418,0.00725
4882.88265,-0.01077
4884.81111,-0.01125
4886.73958,0.00950
4888.66805,0.02617
4890.59652,0.01650
4892.52499,0.00447
4894.45346,0.01469
4896.38193,0.03057
4898.31039,0.03482
4900.23886,0.02867
4902.16733,0.01527
4904.09580,0.00723
4906.02427,0.01452
4907.95274,0.02178
4909.88121,0.01844
4911.80967,0.00847
4913.73814,-0.00150
4915.66661,0.00586
4917.59508,0.02935
4919.52355,0.04207
4921.45202,0.03651
4923.38049,0.02042
4925.30896,-0.00261
4927.23742,-0.01937
4929.16589,-0.01821
4931.09436,-0.01050
4933.02283,-0.01089
4934.95130,-0.00886
4936.87977,0.00634
4938.80824,0.01535
4940.73670,0.01012
4942.66517,0.00946
4944.59364,0.01369
4946.52211,0.01036
4948.45058,0.00214
4950.37905,0.00148
4952.30752,0.00818
4954.23599,0.00493
4956.16445,-0.01014
4958.09292,-0.02349
4960.02139,-0.02544
4961.94986,-0.01527
4963.87833,0.00126
4965.80680,0.02377
4967.73527,0.04088
4969.66373,0.03853
4971.59220,0.02225
4973.52067,0.00148
4975.44914,-0.00988
4977.37761,-0.00265
4979.30608,0.01296
4981.23455,0.02594
4983.16302,0.02945
4985.09148,0.02453
4987.01995,0.01864
4988.94842,0.01681
4990.87689,0.01950
4992.80536,0.02489
4994.73383,0.03484
4996.66230,0.03777
4998.59076,0.02243
5000.51923,0.00020
5002.44770,-0.01683
5004.37617,-0.02184
5006.30464,-0.01411
5008.23311,0.00224
5010.16158,0.01564
5012.09005,0.02223
5014.01851,0.03589
5015.94698,0.04394
5017.87545,0.03191
5019.80392,0.02554
5021.73239,0.03818
5023.66086,0.05227
5025.58933,0.05952
5027.51779,0.06169
5029.44626,0.05201
5031.37473,0.02959
5033.30320,0.01170
5035.23167,0.01214
5037.16014,0.01944
5039.08861,0.01735
5041.01708,0.00383
5042.94554,-0.01136
5044.87401,-0.00947
5046.80248,0.00688
5048.73095,0.01312
5050.65942,0.00734
5052.58789,0.00586
5054.51636,0.01261
5056.44482,0.01826
5058.37329,0.01782
5060.30176,0.01474
5062.23023,0.01132
5064.15870,0.00593
5066.08717,0.00240
5068.01564,0.00467
5069.94410,0.00852
5071.87257,0.01235
5073.80104,0.01394
5075.72951,0.01039
5077.65798,0.01203
5079.58645,0.03016
5081.51492,0.04844
5083.44339,0.04620
5085.37185,0.03261
5087.30032,0.02702
5089.22879,0.03324
5091.15726,0.03825
5093.08573,0.03705
5095.01420,0.03608
5096.94267,0.03600
5098.87113,0.03569
5100.79960,0.03360
5102.72807,0.03139
5104.65654,0.03302
5106.58501,0.03448
5108.51348,0.03666
5110.44195,0.04337
5112.37042,0.04323
5114.29888,0.03401
5116.22735,0.02320
5118.15582,0.00888
5120.08429,0.00378
5122.01276,0.01392
5123.94123,0.02196
5125.86970,0.02908
5127.79816,0.04081
5129.72663,0.04580
5131.65510,0.04799
5133.58357,0.04917
5135.51204,0.04264
5137.44051,0.04168
5139.36898,0.04459
5141.29745,0.03524
5143.22591,0.02383
5145.15438,0.02638
5147.08285,0.03676
5149.01132,0.04489
5150.93979,0.05476
5152.86826,0.06437
5154.79673,0.06644
5156.72519,0.05728
5158.65366,0.03774
5160.58213,0.02602
5162.51060,0.02644
5164.43907,0.02149
5166.36754,0.01587
5168.29601,0.01728
5170.22448,0.02048
5172.15294,0.02567
5174.08141,0.02726
5176.00988,0.02906
5177.93835,0.03258
5179.86682,0.02734
5181.79529,0.02615
5183.72376,0.03203
5185.65222,0.02957
5187.58069,0.02676
5189.50916,0.03289
5191.43763,0.03343
5193.36610,0.01790
5195.29457,-0.00220
5197.22304,-0.01402
5199.15151,-0.00694
5201.07997,0.02008
5203.00844,0.04659
5204.93691,0.05325
5206.86538,0.04708
5208.79385,0.04387
5210.72232,0.03398
5212.65079,0.02191
5214.57925,0.02599
5216.50772,0.03684
5218.43619,0.04208
5220.36466,0.04994
5222.29313,0.06069
5224.22160,0.05402
5226.15007,0.03064
5228.07854,0.02804
5230.00700,0.04169
5231.93547,0.04581
5233.86394,0.04718
5235.79241,0.04954
5237.72088,0.05895
5239.64935,0.07959
5241.57782,0.08928
5243.50628,0.07244
5245.43475,0.04705
5247.36322,0.04196
5249.29169,0.05353
5251.22016,0.06051
5253.14863,0.05309
5255.07710,0.03924
5257.00556,0.03958
5258.93403,0.05772
5260.86250,0.07724
5262.79097,0.07669
5264.71944,0.06950
5266.64791,0.07791
5268.57638,0.07987
5270.50485,0.05744
5272.43331,0.02381
5274.36178,0.00419
5276.29025,0.00505
5278.21872,0.01043
5280.14719,0.01184
5282.07566,0.02477
5284.00413,0.05494
5285.93259,0.07297
5287.86106,0.07309
5289.78953,0.07949
5291.71800,0.08441
5293.64647,0.06811
5295.57494,0.04606
5297.50341,0.04648
5299.43188,0.06401
5301.36034,0.07197
5303.28881,0.06648
5305.21728,0.05573
5307.14575,0.04666
5309.07422,0.03815
5311.00269,0.02949
5312.93116,0.03274
5314.85962,0.04301
5316.78809,0.05073
5318.71656,0.05710
5320.64503,0.05767
5322.57350,0.05465
5324.50197,0.05464
5326.43044,0.05449
5328.35891,0.04712
5330.28737,0.03895
5332.21584,0.04324
5334.14431,0.06212
5336.07278,0.08260
5338.00125,0.08315
5339.92972,0.06062
5341.85819,0.04409
5343.78665,0.05137
5345.71512,0.06859
5347.64359,0.08173
5349.57206,0.09245
5351.50053,0.07716
5353.42900,0.03140
5355.35747,0.00959
5357.28594,0.01932
5359.21440,0.02411
5361.14287,0.03438
5363.07134,0.05376
5364.99981,0.04101
5366.92828,0.00182
5368.85675,-0.00888
5370.78522,0.02933
5372.71368,0.08367
5374.64215,0.11554
5376.57062,0.11458
5378.49909,0.08880
5380.42756,0.06313
5382.35603,0.05947
5384.28450,0.07116
5386.21297,0.07867
5388.14143,0.08235
5390.06990,0.08194
5391.99837,0.07944
5393.92684,0.08873
5395.85531,0.10025
5397.78378,0.09302
5399.71225,0.07011
5401.64071,0.05181
5403.56918,0.04689
5405.49765,0.04775
5407.42612,0.05653
5409.35459,0.06963
5411.28306,0.08157
5413.21153,0.08830
5415.13999,0.06640
5417.06846,0.03314
5418.99693,0.02760
5420.92540,0.04364
5422.85387,0.06104
5424.78234,0.07880
5426.71081,0.09310
5428.63928,0.09707
5430.56774,0.09456
5432.49621,0.09106
5434.42468,0.07007
5436.35315,0.04347
5438.28162,0.04967
5440.21009,0.07570
5442.13856,0.09976
5444.06702,0.11906
5445.99549,0.12664
5447.92396,0.11161
5449.85243,0.07310
5451.78090,0.04380
5453.70937,0.05056
5455.63784,0.07669
5457.56631,0.08782
5459.49477,0.07127
5461.42324,0.05495
5463.35171,0.06430
5465.28018,0.07614
5467.20865,0.07477
5469.13712,0.07566
5471.06559,0.09201
5472.99405,0.11965
5474.92252,0.11556
5476.85099,0.08252
5478.77946,0.07590
5480.70793,0.06415
5482.63640,0.02834
5484.56487,0.01827
5486.49334,0.04557
5488.42180,0.06807
5490.35027,0.07619
5492.27874,0.10212
5494.20721,0.12913
5496.13568,0.12860
5498.06415,0.11576
5499.99262,0.08980
5501.92108,0.05076
5503.84955,0.03190
5505.77802,0.04867
5507.70649,0.07466
5509.63496,0.07991
5511.56343,0.06442
5513.49190,0.05602
5515.42037,0.06706
5517.34883,0.06853
5519.27730,0.05836
5521.20577,0.06402
5523.13424,0.07613
5525.06271,0.07296
5526.99118,0.07520
5528.91965,0.09220
5530.84811,0.08372
5532.77658,0.05336
5534.70505,0.04964
5536.63352,0.07698
5538.56199,0.09554
5540.49046,0.07524
5542.41893,0.04399
5544.34740,0.05127
5546.27586,0.07939
5548.20433,0.07977
5550.13280,0.05820
5552.06127,0.04113
5553.98974,0.03423
5555.91821,0.03384
5557.84668,0.03666
5559.77514,0.05519
5561.70361,0.06869
5563.63208,0.03595
5565.56055,-0.00697
5567.48902,-0.00923
5569.41749,0.02238
5571.34596,0.05344
5573.27443,0.06755
5575.20289,0.08652
5577.13136,0.10849
5579.05983,0.11620
5580.98830,0.12338
5582.91677,0.12930
5584.84524,0.11320
5586.77371,0.08985
5588.70217,0.08185
5590.63064,0.07338
5592.55911,0.05839
5594.48758,0.06562
5596.41605,0.11496
5598.34452,0.16162
5600.27299,0.14440
5602.20145,0.09375
5604.12992,0.06596
5606.05839,0.06284
5607.98686,0.06422
5609.91533,0.06568
5611.84380,0.07693
5613.77227,0.10294
5615.70074,0.12863
5617.62920,0.12644
5619.55767,0.10414
5621.48614,0.08922
5623.41461,0.08923
5625.34308,0.09386
5627.27155,0.08833
5629.20002,0.07734
5631.12848,0.07550
5633.05695,0.09300
5634.98542,0.11457
5636.91389,0.11368
5638.84236,0.10290
5640.77083,0.11080
5642.69930,0.12291
5644.62777,0.10567
5646.55623,0.08218
5648.48470,0.08179
5650.41317,0.07486
5652.34164,0.04650
5654.27011,0.02915
5656.19858,0.04502
5658.12705,0.07394
5660.05551,0.09145
5661.98398,0.08015
5663.91245,0.04376
5665.84092,0.03028
5667.76939,0.04912
5669.69786,0.05362
5671.62633,0.02981
5673.55480,0.01252
5675.48326,0.03751
5677.41173,0.08910
5679.34020,0.10987
5681.26867,0.08876
5683.19714,0.06938
5685.12561,0.07606
5687.05408,0.07826
5688.98254,0.05860
5690.91101,0.04480
5692.83948,0.04289
5694.76795,0.04711
5696.69642,0.04668
5698.62489,0.02371
5700.55336,0.01332
5702.48183,0.03035
5704.41029,0.03199
5706.33876,0.03148
5708.26723,0.05610
5710.19570,0.07337
5712.12417,0.07175
5714.05264,0.08324
5715.98111,0.12277
5717.90957,0.15752
5719.83804,0.13971
5721.76651,0.10005
5723.69498,0.09798
5725.62345,0.11578
5727.55192,0.12186
5729.48039,0.11652
5731.40886,0.09700
5733.33732,0.07888
5735.26579,0.09104
5737.19426,0.12618
5739.12273,0.15012
5741.05120,0.14237
5742.97967,0.12114
5744.90814,0.11686
5746.83660,0.12637
5748.76507,0.11158
5750.69354,0.05135
5752.62201,0.00139
5754.55048,0.00369
5756.47895,0.02553
5758.40742,0.04090
5760.33588,0.05883
5762.26435,0.09056
5764.19282,0.11584
5766.12129,0.12055
5768.04976,0.11901
5769.97823,0.11449
5771.90670,0.10405
5773.83517,0.07387
5775.76363,0.03028
5777.69210,0.01585
5779.62057,0.03282
5781.54904,0.04968
5783.47751,0.06422
5785.40598,0.09044
5787.33445,0.11618
5789.26291,0.10282
5791.19138,0.05547
5793.11985,0.03728
5795.04832,0.06186
5796.97679,0.07444
5798.90526,0.06968
5800.83373,0.06141
5802.76220,0.03133
5804.69066,0.00927
5806.61913,0.03725
5808.54760,0.09807
5810.47607,0.13786
5812.40454,0.11993
5814.33301,0.08836
5816.26148,0.09586
5818.18994,0.10924
5820.11841,0.09056
5822.04688,0.08166
5823.97535,0.10675
5825.90382,0.12038
5827.83229,0.10015
5829.76076,0.07568
5831.68923,0.07588
5833.61769,0.10163
5835.54616,0.11774
5837.47463,0.09972
5839.40310,0.09064
5841.33157,0.09656
5843.26004,0.08142
5845.18851,0.06934
5847.11697,0.08213
5849.04544,0.09760
5850.97391,0.09371
5852.90238,0.07473
5854.83085,0.06154
5856.75932,0.09293
5858.68779,0.16239
5860.61626,0.19523
5862.54472,0.15865
5864.47319,0.07942
5866.40166,0.02371
5868.33013,0.04591
5870.25860,0.10094
5872.18707,0.12033
5874.11554,0.08903
5876.04400,0.04291
5877.97247,0.04471
5879.90094,0.09232
5881.82941,0.12025
5883.75788,0.09716
5885.68635,0.05149
5887.61482,0.02275
5889.54329,0.02094
5891.47175,0.03958
5893.40022,0.06089
5895.32869,0.07098
5897.25716,0.09223
5899.18563,0.12342
5901.11410,0.11765
5903.04257,0.08729
5904.97103,0.09580
5906.89950,0.13012
5908.82797,0.14946
5910.75644,0.16255
5912.68491,0.16098
5914.61338,0.11742
5916.54185,0.06070
5918.47032,0.04733
5920.39878,0.07030
5922.32725,0.09249
5924.25572,0.12836
5926.18419,0.16681
5928.11266,0.15441
5930.04113,0.09150
5931.96960,0.05596
5933.89806,0.10318
5935.82653,0.15493
5937.75500,0.13561
5939.68347,0.08651
5941.61194,0.06039
5943.54041,0.06452
5945.46888,0.06890
5947.39734,0.07605
5949.32581,0.10063
5951.25428,0.12087
5953.18275,0.13713
5955.11122,0.16192
5957.03969,0.19353
5958.96816,0.21414
5960.89663,0.19493
5962.82509,0.15209
5964.75356,0.11682
5966.68203,0.11043
5968.61050,0.13858
5970.53897,0.15552
5972.46744,0.14195
5974.39591,0.12272
5976.32437,0.10701
5978.25284,0.11937
5980.18131,0.15335
5982.10978,0.16458
5984.03825,0.14315
5985.96672,0.10846
5987.89519,0.09594
5989.82366,0.09472
5991.75212,0.07482
5993.68059,0.08994
5995.60906,0.15235
5997.53753,0.15789
5999.46600,0.08813
6001.39447,0.02844
6003.32294,0.03061
6005.25140,0.07210
6007.17987,0.09593
6009.10834,0.10365
6011.03681,0.10830
6012.96528,0.05879
6014.89375,-0.00994
6016.82222,-0.00531
6018.75069,0.04338
6020.67915,0.09024
6022.60762,0.13284
6024.53609,0.12198
6026.46456,0.05921
6028.39303,0.02776
6030.32150,0.06154
6032.24997,0.07894
6034.17843,0.04932
6036.10690,0.05141
6038.03537,0.08864
6039.96384,0.11617
6041.89231,0.13543
6043.82078,0.12029
6045.74925,0.08329
6047.67772,0.08188
6049.60618,0.09552
6051.53465,0.07196
6053.46312,0.04129
6055.39159,0.03651
6057.32006,0.04295
6059.24853,0.04676
6061.17700,0.02660
6063.10546,-0.00290
6065.03393,0.01761
6066.96240,0.08245
6068.89087,0.11104
6070.81934,0.07957
6072.74781,0.06770
6074.67628,0.09197
6076.60475,0.11112
6078.53321,0.12944
6080.46168,0.14569
6082.39015,0.13351
6084.31862,0.07857
6086.24709,-0.00907
6088.17556,-0.08782
6090.10403,-0.08400
6092.03249,-0.00192
6093.96096,0.06204
6095.88943,0.08279
6097.81790,0.09581
6099.74637,0.10084
6101.67484,0.09027
6103.60331,0.06121
6105.53177,0.00973
6107.46024,-0.01349
6109.38871,0.02705
6111.31718,0.05461
6113.24565,0.04922
6115.17412,0.07448
6117.10259,0.10314
6119.03106,0.06066
6120.95952,0.00631
6122.88799,0.03620
6124.81646,0.10523
6126.74493,0.12368
6128.67340,0.10199
6130.60187,0.11262
6132.53034,0.14624
6134.45880,0.15916
6136.38727,0.13247
6138.31574,0.07093
6140.24421,0.04200
6142.17268,0.09291
6144.10115,0.15711
6146.02962,0.17087
6147.95809,0.16222
6149.88655,0.13929
6151.81502,0.09401
6153.74349,0.07982
6155.67196,0.09592
6157.60043,0.10279
6159.52890,0.09851
6161.45737,0.07171
6163.38583,0.05089
6165.31430,0.08687
6167.24277,0.12729
6169.17124,0.10110
6171.09971,0.06192
6173.02818,0.05124
6174.95665,0.02178
6176.88512,0.02027
6178.81358,0.08055
6180.74205,0.11865
6182.67052,0.11614
6184.59899,0.10560
6186.52746,0.07243
6188.45593,0.02557
6190.38440,-0.01305
6192.31286,-0.03624
6194.24133,-0.01473
6196.16980,0.01601
6198.09827,0.01616
6200.02674,0.01008
6201.95521,0.01023
6203.88368,0.05172
6205.81215,0.13499
6207.74061,0.19899
6209.66908,0.21223
6211.59755,0.16535
6213.52602,0.15053
6215.45449,0.21570
6217.38296,0.25506
6219.31143,0.22604
6221.23989,0.17786
6223.16836,0.14567
6225.09683,0.13872
6227.02530,0.12429
6228.95377,0.08879
6230.88224,0.07211
6232.81071,0.10509
6234.73918,0.13794
6236.66764,0.12575
6238.59611,0.10537
6240.52458,0.13151
6242.45305,0.18091
6244.38152,0.18776
6246.30999,0.15617
6248.23846,0.10927
6250.16692,0.08172
6252.09539,0.10881
6254.02386,0.12759
6255.95233,0.09150
6257.88080,0.04000
6259.80927,0.02039
6261.73774,0.06424
6263.66621,0.16696
6265.59467,0.25197
6267.52314,0.22702
6269.45161,0.13428
6271.38008,0.10175
6273.30855,0.11584
6275.23702,0.07039
6277.16549,0.02075
6279.09395,0.04802
6281.02242,0.08876
6282.95089,0.10197
6284.87936,0.11890
6286.80783,0.12607
6288.73630,0.09637
6290.66477,0.05146
6292.59323,0.02195
6294.52170,0.04025
6296.45017,0.06448
6298.37864,0.02158
6300.30711,-0.00802
6302.23558,0.07055
6304.16405,0.14999
6306.09252,0.13560
6308.02098,0.08681
6309.94945,0.07031
6311.87792,0.08427
6313.80639,0.12598
6315.73486,0.19546
6317.66333,0.25231
6319.59180,0.25263
6321.52026,0.19408
6323.44873,0.12133
6325.37720,0.08222
6327.30567,0.11183
6329.23414,0.17787
6331.16261,0.19616
6333.09108,0.19355
6335.01955,0.17110
6336.94801,0.08722
6338.87648,0.01134
6340.80495,-0.00371
6342.73342,0.00217
6344.66189,0.02179
6346.59036,0.10532
6348.51883,0.17891
6350.44729,0.12948
6352.37576,0.02769
6354.30423,-0.01312
6356.23270,0.01682
6358.16117,0.06500
6360.08964,0.08292
6362.01811,0.08941
6363.94658,0.09078
6365.87504,0.06174
6367.80351,0.03614
6369.73198,0.04888
6371.66045,0.07065
6373.58892,0.06566
6375.51739,0.03913
6377.44586,-0.00437
6379.37432,-0.07681
6381.30279,-0.10238
6383.23126,-0.02634
6385.15973,0.04638
6387.08820,0.07075
6389.01667,0.08573
6390.94514,0.08448
6392.87361,0.04759
6394.80207,0.00940
6396.73054,0.02655
6398.65901,0.10121
6400.58748,0.18903
6402.51595,0.20928
6404.44442,0.13577
6406.37289,0.02356
6408.30135,0.00035
6410.22982,0.08977
6412.15829,0.17161
6414.08676,0.19507
6416.01523,0.17684
6417.94370,0.16151
6419.87217,0.16721
6421.80064,0.15227
6423.72910,0.10397
6425.65757,0.06023
6427.58604,0.10649
6429.51451,0.22165
6431.44298,0.23588
6433.37145,0.11518
6435.29992,0.00348
6437.22838,-0.02896
6439.15685,0.00687
6441.08532,0.06138
6443.01379,0.06391
6444.94226,0.00550
6446.87073,0.00677
6448.79920,0.06983
6450.72766,0.07246
6452.65613,0.04027
6454.58460,0.04819
6456.51307,0.07614
6458.44154,0.07012
6460.37001,0.01976
6462.29848,0.00243
6464.22695,0.03051
6466.15541,0.01475
6468.08388,-0.01529
6470.01235,0.03287
6471.94082,0.09622
6473.86929,0.13695
6475.79776,0.20646
6477.72623,0.24839
6479.65469,0.21429
6481.58316,0.15701
6483.51163,0.11593
6485.44010,0.09652
6487.36857,0.09207
6489.29704,0.07162
6491.22551,0.04235
6493.15398,0.04446
6495.08244,0.05945
6497.01091,0.07021
6498.93938,0.10971
6500.86785,0.17788
6502.79632,0.20563
6504.72479,0.19130
6506.65326,0.17483
6508.58172,0.15041
6510.51019,0.11082
6512.43866,0.06602
6514.36713,0.05273
6516.29560,0.05538
6518.22407,0.05086
6520.15254,0.09443
6522.08101,0.17236
6524.00947,0.19785
6525.93794,0.16528
6527.86641,0.12296
6529.79488,0.07226
6531.72335,0.01074
6533.65182,-0.03807
6535.58029,-0.03721
6537.50875,0.01913
6539.43722,0.09562
6541.36569,0.13365
6543.29416,0.12361
6545.22263,0.12041
6547.15110,0.11465
6549.07957,0.09562
6551.00804,0.08989
6552.93650,0.06677
6554.86497,-0.00839
6556.79344,-0.08406
6558.72191,-0.05544
6560.65038,0.07653
6562.57885,0.19355
6564.50732,0.22667
6566.43578,0.21926
6568.36425,0.23142
6570.29272,0.20481
6572.22119,0.13794
6574.14966,0.09164
6576.07813,0.04036
6578.00660,0.01816
6579.93507,0.05201
6581.86353,0.03625
6583.79200,-0.06824
6585.72047,-0.12970
6587.64894,-0.09221
6589.57741,-0.03111
6591.50588,0.03212
6593.43435,0.07731
6595.36281,0.05829
6597.29128,0.04038
6599.21975,0.03541
6601.14822,0.00605
6603.07669,0.03258
6605.00516,0.12094
6606.93363,0.16017
6608.86210,0.14769
6610.79056,0.14719
6612.71903,0.16211
6614.64750,0.18567
6616.57597,0.17149
6618.50444,0.10665
6620.43291,0.05454
6622.36138,0.00840
6624.28984,-0.04425
6626.21831,-0.05628
6628.14678,-0.02238
6630.07525,-0.01387
6632.00372,-0.04386
6633.93219,0.00153
6635.86066,0.10640
6637.78912,0.10668
6639.71759,0.07845
6641.64606,0.09819
6643.57453,0.12536
6645.50300,0.14732
6647.43147,0.12563
6649.35994,0.09531
6651.28841,0.11161
6653.21687,0.12375
6655.14534,0.12685
6657.07381,0.17499
6659.00228,0.21243
6660.93075,0.21368
6662.85922,0.21842
6664.78769,0.16567
6666.71615,0.03861
6668.64462,-0.06978
6670.57309,-0.09220
6672.50156,-0.06162
6674.43003,-0.02335
6676.35850,0.04997
6678.28697,0.14045
6680.21544,0.16114
6682.14390,0.13084
6684.07237,0.14625
6686.00084,0.21252
6687.92931,0.24483
6689.85778,0.21226
6691.78625,0.16058
6693.71472,0.11194
6695.64318,0.05787
6697.57165,-0.00355
6699.50012,-0.01208
6701.42859,0.05192
6703.35706,0.09004
6705.28553,0.04274
6707.21400,-0.02580
6709.14247,-0.01245
6711.07093,0.08307
6712.99940,0.14451
6714.92787,0.08387
6716.85634,-0.00615
6718.78481,0.00213
6720.71328,0.04196
6722.64175,0.05245
6724.57021,0.08155
6726.49868,0.10516
6728.42715,0.08497
6730.35562,0.06579
6732.28409,0.09637
6734.21256,0.16936
6736.14103,0.22363
6738.06950,0.19077
6739.99796,0.09282
6741.92643,0.00215
6743.85490,-0.02307
6745.78337,0.01597
6747.71184,0.09580
6749.64031,0.18837
6751.56878,0.24331
6753.49724,0.19841
6755.42571,0.10097
6757.35418,0.07373
6759.28265,0.06389
6761.21112,-0.02465
6763.13959,-0.09710
6765.06806,-0.10831
6766.99653,-0.13632
6768.92499,-0.17486
6770.85346,-0.11802
6772.78193,0.04009
6774.71040,0.15312
6776.63887,0.12785
6778.56734,0.08726
6780.49581,0.09627
6782.42427,0.10524
6784.35274,0.11616
6786.28121,0.10676
6788.20968,0.05749
6790.13815,-0.00019
6792.06662,0.00478
6793.99509,0.11958
6795.92355,0.20553
6797.85202,0.14989
6799.78049,0.11110
6801.70896,0.19478
6803.63743,0.23668
6805.56590,0.18819
6807.49437,0.15498
6809.42284,0.10878
6811.35130,0.04392
6813.27977,0.05658
6815.20824,0.09760
6817.13671,0.03116
6819.06518,-0.06411
6820.99365,-0.11465
6822.92212,-0.12807
6824.85058,-0.04389
6826.77905,0.04830
6828.70752,0.02959
6830.63599,-0.01263
6832.56446,0.04087
6834.49293,0.16302
6836.42140,0.24012
6838.34987,0.23132
6840.27833,0.21369
6842.20680,0.18375
6844.13527,0.15864
6846.06374,0.19066
6847.99221,0.24850
6849.92068,0.28554
6851.84915,0.28108
6853.77761,0.24014
6855.70608,0.20409
6857.63455,0.20543
6859.56302,0.18311
6861.49149,0.10099
6863.41996,0.09605
6865.34843,0.19306
6867.27690,0.19610
6869.20536,0.09287
6871.13383,0.03385
6873.06230,0.10604
6874.99077,0.23266
6876.91924,0.23015
6878.84771,0.08502
6880.77618,-0.02608
6882.70464,-0.01827
6884.63311,0.00286
6886.56158,-0.02285
6888.49005,-0.07995
6890.41852,-0.13293
6892.34699,-0.09816
6894.27546,0.05899
6896.20393,0.20156
6898.13239,0.16160
6900.06086,0.04614
6901.98933,0.01688
6903.91780,0.01315
6905.84627,-0.01132
6907.77474,0.00309
6909.70321,0.03030
6911.63167,0.01996
6913.56014,-0.00803
6915.48861,-0.05329
6917.41708,-0.07632
6919.34555,-0.00089
6921.27402,0.11763
6923.20249,0.18114
6925.13096,0.17516
6927.05942,0.15836
6928.98789,0.16875
6930.91636,0.17294
6932.84483,0.15653
6934.77330,0.14324
6936.70177,0.11122
6938.63024,0.04966
6940.55870,0.05492
6942.48717,0.11581
6944.41564,0.10778
6946.34411,0.05790
6948.27258,0.01932
6950.20105,0.01337
6952.12952,0.02008
6954.05799,-0.01389
6955.98645,-0.06107
6957.91492,-0.05217
6959.84339,-0.05051
6961.77186,-0.08592
6963.70033,-0.03423
6965.62880,0.11241
6967.55727,0.19176
6969.48573,0.12936
6971.41420,0.05839
6973.34267,0.04823
6975.27114,-0.00900
6977.19961,-0.08498
6979.12808,-0.01092
6981.05655,0.19144
6982.98501,0.30664
6984.91348,0.22079
6986.84195,0.08565
6988.77042,0.04721
6990.69889,0.04284
6992.62736,0.03395
6994.55583,0.09976
6996.48430,0.16864
6998.41276,0.13607
7000.34123,0.10833
7002.26970,0.12053
7004.19817,0.14318
7006.12664,0.20789
7008.05511,0.26019
7009.98358,0.23080
7011.91204,0.20189
7013.84051,0.20213
7015.76898,0.14689
7017.69745,0.04228
7019.62592,-0.06217
7021.55439,-0.10058
7023.48286,-0.05330
7025.41133,-0.01572
7027.33979,-0.08996
7029.26826,-0.20083
7031.19673,-0.15175
7033.12520,-0.02848
7035.05367,0.02805
7036.98214,0.05493
7038.91061,0.06692
7040.83907,0.02250
7042.76754,-0.01684
7044.69601,0.07109
7046.62448,0.21171
7048.55295,0.26065
7050.48142,0.24487
7052.40989,0.22139
7054.33836,0.21495
7056.26682,0.23267
7058.19529,0.16216
7060.12376,0.06165
7062.05223,0.10704
7063.98070,0.17981
7065.90917,0.14230
7067.83764,0.12117
7069.76610,0.12293
7071.69457,-0.03934
7073.62304,-0.20542
7075.55151,-0.14546
7077.47998,0.04023
7079.40845,0.24920
7081.33692,0.40149
7083.26539,0.38394
7085.19385,0.24418
7087.12232,0.07428
7089.05079,-0.07623
7090.97926,-0.17343
7092.90773,-0.18483
7094.83620,-0.13391
7096.76467,-0.03019
7098.69313,0.09838
7100.62160,0.14269
7102.55007,0.09353
7104.47854,0.05379
7106.40701,0.13443
7108.33548,0.19870
7110.26395,0.13812
7112.19242,0.09247
7114.12088,0.12256
7116.04935,0.13981
7117.97782,0.04716
7119.90629,-0.01284
7121.83476,0.09180
7123.76323,0.16722
7125.69170,0.11732
7127.62016,0.01061
7129.54863,-0.09132
7131.47710,-0.08511
7133.40557,-0.02577
7135.33404,-0.08500
7137.26251,-0.17040
7139.19098,-0.13395
7141.11944,-0.07665
7143.04791,-0.05568
7144.97638,-0.01130
7146.90485,0.05879
7148.83332,0.20410
7150.76179,0.34819
7152.69026,0.36747
7154.61873,0.34098
7156.54719,0.29899
7158.47566,0.19867
7160.40413,0.11220
7162.33260,0.13759
7164.26107,0.24775
7166.18954,0.20976
7168.11801,-0.01067
7170.04647,-0.09892
7171.97494,0.08159
7173.90341,0.28201
7175.83188,0.25947
7177.76035,0.06780
7179.68882,-0.05043
7181.61729,-0.05965
7183.54576,-0.05867
7185.47422,-0.08803
7187.40269,-0.09204
7189.33116,0.01074
7191.25963,0.21957
7193.18810,0.26847
7195.11657,0.15575
7197.04504,0.08351
7198.97350,0.03151
7200.90197,-0.00253
7202.83044,-0.02830
7204.75891,-0.07294
7206.68738,0.04628
7208.61585,0.16122
7210.54432,0.13994
7212.47279,0.16160
7214.40125,0.18134
7216.32972,0.07094
7218.25819,0.01730
7220.18666,0.11814
7222.11513,0.11837
7224.04360,-0.03725
7225.97207,-0.15122
7227.90053,-0.14556
7229.82900,-0.10303
7231.75747,0.11167
7233.68594,0.32361
7235.61441,0.28937
7237.54288,0.18655
7239.47135,0.12165
7241.39982,0.01254
7243.32828,-0.06651
7245.25675,0.04013
7247.18522,0.19662
7249.11369,0.26711
7251.04216,0.26500
7252.97063,0.18760
7254.89910,0.06593
7256.82756,0.02139
7258.75603,0.06530
7260.68450,0.02124
7262.61297,-0.24417
7264.54144,-0.33088
7266.46991,-0.10541
7268.39838,0.08462
7270.32685,0.17955
7272.25531,0.32525
7274.18378,0.36517
7276.11225,0.25306
7278.04072,0.23994
7279.96919,0.33615
7281.89766,0.33364
7283.82613,0.21646
7285.75459,-0.01702
7287.68306,-0.22493
7289.61153,-0.16349
7291.54000,0.07136
7293.46847,0.16168
7295.39694,0.14301
7297.32541,0.16096
7299.25387,0.19904
7301.18234,0.19470
7303.11081,0.11134
7305.03928,0.03410
7306.96775,0.08234
7308.89622,0.12752
7310.82469,-0.00094
7312.75316,-0.10553
7314.68162,0.02080
7316.61009,0.39333
7318.53856,0.59634
7320.46703,0.48825
7322.39550,0.33074
7324.32397,0.14151
7326.25244,-0.05893
7328.18090,-0.04735
7330.10937,0.13121
7332.03784,0.11652
7333.96631,0.00402
7335.89478,-0.05009
7337.82325,-0.06696
7339.75172,0.09077
7341.68019,0.37465
7343.60865,0.48435
7345.53712,0.42488
7347.46559,0.21484
7349.39406,0.05274
7351.32253,0.08692
7353.25100,0.24432
7355.17947,0.36738
7357.10793,0.35643
7359.03640,0.28382
7360.96487,0.22760
7362.89334,0.19387
7364.82181,0.13765
7366.75028,0.04556
7368.67875,0.04985
7370.60722,0.13448
7372.53568,0.18623
7374.46415,0.22245
7376.39262,0.23879
7378.32109,0.20711
7380.24956,0.24328
7382.17803,0.39070
7384.10650,0.42997
7386.03496,0.25988
7387.96343,0.07341
7389.89190,-0.03421
7391.82037,-0.09380
7393.74884,-0.11080
7395.67731,-0.11456
7397.60578,-0.09001
7399.53425,-0.06224
7401.46271,-0.15147
7403.39118,-0.35279
7405.31965,-0.35729
7407.24812,-0.11750
7409.17659,0.02621
7411.10506,-0.05364
7413.03353,-0.25623
7414.96199,-0.43720
7416.89046,-0.49079
7418.81893,-0.32939
7420.74740,0.01103
7422.67587,0.20418
7424.60434,0.20423
7426.53281,0.16693
7428.46128,0.12303
7430.38974,0.10794
7432.31821,0.20090
7434.24668,0.31112
7436.17515,0.30226
7438.10362,0.15041
7440.03209,0.04307
7441.96056,0.09620
7443.88902,0.19533
7445.81749,0.24728
7447.74596,0.19911
7449.67443,0.02013
7451.60290,-0.18033
7453.53137,-0.19610
7455.45984,-0.05880
7457.38831,0.08077
7459.31677,0.18859
7461.24524,0.31848
7463.17371,0.44176
7465.10218,0.38997
7467.03065,0.20654
7468.95912,0.10965
7470.88759,0.11123
7472.81605,0.12653
7474.74452,0.13349
7476.67299,0.17977
7478.60146,0.17673
7480.52993,0.13142
7482.45840,0.23763
7484.38687,0.32617
7486.31533,0.24688
7488.24380,0.08379
7490.17227,-0.02192
7492.10074,-0.07714
7494.02921,-0.16874
7495.95768,-0.17319
7497.88615,-0.02821
