399.19301,1.11845
401.12148,0.76914
403.04995,0.48235
404.97842,0.34162
406.90689,0.21417
408.83536,0.16231
410.76382,0.13408
412.69229,0.06104
414.62076,0.05264
416.54923,0.16237
418.47770,0.30038
420.40617,0.31401
422.33464,0.31260
424.26311,0.28454
426.19157,0.17121
428.12004,0.10187
430.04851,0.08433
431.97698,0.06661
433.90545,0.07509
435.83392,0.09280
437.76239,0.09871
439.69085,0.12432
441.61932,0.17977
443.54779,0.20421
445.47626,0.19848
447.40473,0.19061
449.33320,0.15072
451.26167,0.09297
453.19013,0.06355
455.11860,0.06249
457.04707,0.06839
458.97554,0.06311
460.90401,0.03913
462.83248,0.06104
464.76095,0.15760
466.68942,0.20479
468.61788,0.12509
470.54635,0.01590
472.47482,0.02988
474.40329,0.19333
476.33176,0.25854
478.26023,0.23766
480.18870,0.21298
482.11716,0.19334
484.04563,0.15865
485.97410,0.08413
487.90257,0.03399
489.83104,0.07018
491.75951,0.12171
493.68798,0.11973
495.61645,0.09630
497.54491,0.07855
499.47338,0.05955
501.40185,0.06932
503.33032,0.10235
505.25879,0.09579
507.18726,0.08203
509.11573,0.11649
511.04419,0.16606
512.97266,0.18832
514.90113,0.16210
516.82960,0.09692
518.75807,0.06565
520.68654,0.11198
522.61501,0.17198
524.54348,0.19296
526.47194,0.16763
528.40041,0.12464
530.32888,0.10481
532.25735,0.09559
534.18582,0.10286
536.11429,0.13743
538.04276,0.15400
539.97122,0.14390
541.89969,0.13689
543.82816,0.13694
545.75663,0.11913
547.68510,0.08001
549.61357,0.10209
551.54204,0.30913
553.47051,0.52749
555.39897,0.45815
557.32744,0.23856
559.25591,0.14140
561.18438,0.13911
563.11285,0.14294
565.04132,0.12925
566.96979,0.11935
568.89825,0.13651
570.82672,0.16289
572.75519,0.18271
574.68366,0.19900
576.61213,0.20869
578.54060,0.19754
580.46907,0.17799
582.39754,0.17571
584.32600,0.17845
586.25447,0.16267
588.18294,0.13649
590.11141,0.11811
592.03988,0.11682
593.96835,0.11944
595.89682,0.10640
597.82528,0.10427
599.75375,0.12927
601.68222,0.13971
603.61069,0.11813
605.53916,0.09701
607.46763,0.09478
609.39610,0.09426
611.32456,0.08604
613.25303,0.09588
615.18150,0.11650
617.10997,0.11424
619.03844,0.11123
620.96691,0.12926
622.89538,0.13770
624.82385,0.12635
626.75231,0.11838
628.68078,0.11288
630.60925,0.10839
632.53772,0.11401
634.46619,0.11255
636.39466,0.10967
638.32313,0.11988
640.25159,0.12708
642.18006,0.13346
644.10853,0.13462
646.03700,0.12118
647.96547,0.12593
649.89394,0.15001
651.82241,0.15339
653.75088,0.13740
655.67934,0.12935
657.60781,0.13776
659.53628,0.14690
661.46475,0.14534
663.39322,0.14289
665.32169,0.15000
667.25016,0.15449
669.17862,0.12748
671.10709,0.10222
673.03556,0.09982
674.96403,0.10846
676.89250,0.11895
678.82097,0.12333
680.74944,0.12593
682.67791,0.13437
684.60637,0.13649
686.53484,0.13516
688.46331,0.14253
690.39178,0.14469
692.32025,0.13482
694.24872,0.12834
696.17719,0.14055
698.10565,0.15585
700.03412,0.15657
701.96259,0.15629
703.89106,0.15166
705.81953,0.13163
707.74800,0.12497
709.67647,0.14220
711.60494,0.15330
713.53340,0.14864
715.46187,0.13949
717.39034,0.13817
719.31881,0.13877
721.24728,0.13052
723.17575,0.12875
725.10422,0.13773
727.03268,0.14253
728.96115,0.13731
730.88962,0.12507
732.81809,0.10956
734.74656,0.10448
736.67503,0.12087
738.60350,0.14143
740.53197,0.14882
742.46043,0.15073
744.38890,0.15453
746.31737,0.15904
748.24584,0.16555
750.17431,0.16154
752.10278,0.14239
754.03125,0.13078
755.95971,0.12780
757.88818,0.12061
759.81665,0.12091
761.74512,0.13469
763.67359,0.14250
765.60206,0.13144
767.53053,0.10988
769.45900,0.09028
771.38746,0.08424
773.31593,0.09828
775.24440,0.12467
777.17287,0.14664
779.10134,0.15102
781.02981,0.14371
782.95828,0.14017
784.88674,0.13930
786.81521,0.13952
788.74368,0.14552
790.67215,0.14914
792.60062,0.14674
794.52909,0.14452
796.45756,0.14718
798.38602,0.15455
800.31449,0.15216
802.24296,0.13526
804.17143,0.12899
806.09990,0.13975
808.02837,0.14923
809.95684,0.14995
811.88531,0.14020
813.81377,0.12675
815.74224,0.12067
817.67071,0.12023
819.59918,0.12462
821.52765,0.12846
823.45612,0.12375
825.38459,0.12097
827.31305,0.12657
829.24152,0.13163
831.16999,0.13165
833.09846,0.12981
835.02693,0.13218
836.95540,0.13862
838.88387,0.14854
840.81234,0.16209
842.74080,0.16657
844.66927,0.15727
846.59774,0.15103
848.52621,0.15295
850.45468,0.15723
852.38315,0.16430
854.31162,0.16822
856.24008,0.16413
858.16855,0.15638
860.09702,0.15067
862.02549,0.15150
863.95396,0.15567
865.88243,0.15463
867.81090,0.14529
869.73937,0.13549
871.66783,0.13507
873.59630,0.14475
875.52477,0.15701
877.45324,0.15961
879.38171,0.15223
881.31018,0.14815
883.23865,0.15148
885.16711,0.15540
887.09558,0.15086
889.02405,0.13932
890.95252,0.13401
892.88099,0.13653
894.80946,0.13807
896.73793,0.13378
898.66640,0.13043
900.59486,0.13580
902.52333,0.14071
904.45180,0.13934
906.38027,0.13962
908.30874,0.14272
910.23721,0.14374
912.16568,0.13892
914.09414,0.12803
916.02261,0.12192
917.95108,0.12897
919.87955,0.13927
921.80802,0.14423
923.73649,0.14538
925.66496,0.14370
927.59343,0.14531
929.52189,0.15646
931.45036,0.16696
933.37883,0.16220
935.30730,0.14851
937.23577,0.14255
939.16424,0.14522
941.09271,0.14564
943.02117,0.13751
944.94964,0.12933
946.87811,0.13077
948.80658,0.13586
950.73505,0.13788
952.66352,0.14031
954.59199,0.14284
956.52045,0.14010
958.44892,0.13933
960.37739,0.14376
962.30586,0.14581
964.23433,0.15165
966.16280,0.16162
968.09127,0.16048
970.01974,0.14843
971.94820,0.13994
973.87667,0.13903
975.80514,0.13995
977.73361,0.14230
979.66208,0.14839
981.59055,0.15584
983.51902,0.16077
985.44748,0.16230
987.37595,0.16222
989.30442,0.16032
991.23289,0.15646
993.16136,0.15845
995.08983,0.16595
997.01830,0.16333
998.94677,0.15205
1000.87523,0.14859
1002.80370,0.15345
1004.73217,0.15581
1006.66064,0.15113
1008.58911,0.14376
1010.51758,0.14189
1012.44605,0.14418
1014.37451,0.14454
1016.30298,0.14905
1018.23145,0.15628
1020.15992,0.15121
1022.08839,0.13868
1024.01686,0.13634
1025.94533,0.14357
1027.87380,0.15113
1029.80226,0.15484
1031.73073,0.15554
1033.65920,0.15896
1035.58767,0.16598
1037.51614,0.16999
1039.44461,0.16573
1041.37308,0.15648
1043.30154,0.15191
1045.23001,0.15334
1047.15848,0.15298
1049.08695,0.15101
1051.01542,0.15417
1052.94389,0.16027
1054.87236,0.16464
1056.80083,0.16717
1058.72929,0.16664
1060.65776,0.16250
1062.58623,0.15439
1064.51470,0.14731
1066.44317,0.14685
1068.37164,0.14798
1070.30011,0.14738
1072.22857,0.14565
1074.15704,0.14421
1076.08551,0.14778
1078.01398,0.15795
1079.94245,0.16799
1081.87092,0.16926
1083.79939,0.16206
1085.72786,0.15105
1087.65632,0.14046
1089.58479,0.13720
1091.51326,0.14455
1093.44173,0.15669
1095.37020,0.16418
1097.29867,0.16540
1099.22714,0.16097
1101.15560,0.15211
1103.08407,0.15179
1105.01254,0.15957
1106.94101,0.16324
1108.86948,0.16561
1110.79795,0.17033
1112.72642,0.17364
1114.65489,0.17051
1116.58335,0.16558
1118.51182,0.16721
1120.44029,0.17013
1122.36876,0.16816
1124.29723,0.16038
1126.22570,0.14930
1128.15417,0.14294
1130.08263,0.14510
1132.01110,0.15212
1133.93957,0.15764
1135.86804,0.15951
1137.79651,0.16092
1139.72498,0.16190
1141.65345,0.16110
1143.58191,0.16148
1145.51038,0.16700
1147.43885,0.17411
1149.36732,0.17472
1151.29579,0.17135
1153.22426,0.17024
1155.15273,0.17364
1157.08120,0.18156
1159.00966,0.18391
1160.93813,0.17615
1162.86660,0.17003
1164.79507,0.17023
1166.72354,0.16994
1168.65201,0.16528
1170.58048,0.15926
1172.50894,0.15857
1174.43741,0.16538
1176.36588,0.17110
1178.29435,0.16874
1180.22282,0.16375
1182.15129,0.16018
1184.07976,0.15761
1186.00823,0.15955
1187.93669,0.16300
1189.86516,0.16231
1191.79363,0.16203
1193.72210,0.16642
1195.65057,0.17020
1197.57904,0.16940
1199.50751,0.16882
1201.43597,0.17124
1203.36444,0.17196
1205.29291,0.16738
1207.22138,0.16261
1209.14985,0.16590
1211.07832,0.17492
1213.00679,0.18002
1214.93526,0.17791
1216.86372,0.17295
1218.79219,0.16980
1220.72066,0.16881
1222.64913,0.16838
1224.57760,0.16765
1226.50607,0.16553
1228.43454,0.16414
1230.36300,0.16758
1232.29147,0.17354
1234.21994,0.17365
1236.14841,0.16712
1238.07688,0.16260
1240.00535,0.16235
1241.93382,0.16355
1243.86229,0.16597
1245.79075,0.16824
1247.71922,0.16758
1249.64769,0.16404
1251.57616,0.16276
1253.50463,0.16625
1255.43310,0.17006
1257.36157,0.16905
1259.29003,0.16448
1261.21850,0.16305
1263.14697,0.16629
1265.07544,0.17041
1267.00391,0.17216
1268.93238,0.17107
1270.86085,0.16971
1272.78932,0.16847
1274.71778,0.16625
1276.64625,0.16722
1278.57472,0.17288
1280.50319,0.17492
1282.43166,0.17176
1284.36013,0.17050
1286.28860,0.17079
1288.21706,0.16893
1290.14553,0.16720
1292.07400,0.16815
1294.00247,0.16871
1295.93094,0.16621
1297.85941,0.16533
1299.78788,0.16940
1301.71634,0.17081
1303.64481,0.16501
1305.57328,0.16069
1307.50175,0.16394
1309.43022,0.16929
1311.35869,0.17172
1313.28716,0.17372
1315.21563,0.17623
1317.14409,0.17674
1319.07256,0.17495
1321.00103,0.17158
1322.92950,0.16801
1324.85797,0.16607
1326.78644,0.16621
1328.71491,0.16698
1330.64337,0.16698
1332.57184,0.16725
1334.50031,0.16920
1336.42878,0.17422
1338.35725,0.18300
1340.28572,0.18442
1342.21419,0.16899
1344.14266,0.15211
1346.07112,0.15096
1347.99959,0.16321
1349.92806,0.17288
1351.85653,0.17260
1353.78500,0.16998
1355.71347,0.17313
1357.64194,0.17844
1359.57040,0.18072
1361.49887,0.18486
1363.42734,0.18723
1365.35581,0.18111
1367.28428,0.17494
1369.21275,0.17224
1371.14122,0.17431
1373.06969,0.18378
1374.99815,0.19019
1376.92662,0.18369
1378.85509,0.17617
1380.78356,0.17539
1382.71203,0.17916
1384.64050,0.18653
1386.56897,0.19103
1388.49743,0.18659
1390.42590,0.18268
1392.35437,0.18512
1394.28284,0.19205
1396.21131,0.19935
1398.13978,0.19972
1400.06825,0.19019
1401.99672,0.18256
1403.92518,0.18420
1405.85365,0.18548
1407.78212,0.18106
1409.71059,0.17751
1411.63906,0.17762
1413.56753,0.18141
1415.49600,0.18732
1417.42446,0.19296
1419.35293,0.19485
1421.28140,0.19157
1423.20987,0.18677
1425.13834,0.18313
1427.06681,0.18465
1428.99528,0.19057
1430.92375,0.19360
1432.85221,0.19200
1434.78068,0.19200
1436.70915,0.19188
1438.63762,0.18580
1440.56609,0.18171
1442.49456,0.18337
1444.42303,0.18704
1446.35149,0.19013
1448.27996,0.19182
1450.20843,0.19202
1452.13690,0.19380
1454.06537,0.20210
1455.99384,0.22126
1457.92231,0.22526
1459.85077,0.20020
1461.77924,0.18601
1463.70771,0.18625
1465.63618,0.18894
1467.56465,0.18698
1469.49312,0.18790
1471.42159,0.19913
1473.35006,0.21269
1475.27852,0.21123
1477.20699,0.20298
1479.13546,0.19481
1481.06393,0.18807
1482.99240,0.18603
1484.92087,0.18978
1486.84934,0.19806
1488.77780,0.20900
1490.70627,0.20903
1492.63474,0.19930
1494.56321,0.19677
1496.49168,0.20300
1498.42015,0.20476
1500.34862,0.19759
1502.27709,0.19232
1504.20555,0.19843
1506.13402,0.22651
1508.06249,0.24388
1509.99096,0.22487
1511.91943,0.21058
1513.84790,0.21060
1515.77637,0.22119
1517.70483,0.23223
1519.63330,0.23980
1521.56177,0.24149
1523.49024,0.22792
1525.41871,0.21027
1527.34718,0.19680
1529.27565,0.19310
1531.20412,0.20152
1533.13258,0.21253
1535.06105,0.21036
1536.98952,0.21016
1538.91799,0.23116
1540.84646,0.25747
1542.77493,0.24724
1544.70340,0.22387
1546.63186,0.20650
1548.56033,0.20125
1550.48880,0.20291
1552.41727,0.20567
1554.34574,0.21045
1556.27421,0.22273
1558.20268,0.24811
1560.13115,0.24243
1562.05961,0.21858
1563.98808,0.20828
1565.91655,0.20390
1567.84502,0.20379
1569.77349,0.20254
1571.70196,0.19612
1573.63043,0.19754
1575.55889,0.20436
1577.48736,0.19919
1579.41583,0.18969
1581.34430,0.18484
1583.27277,0.18111
1585.20124,0.17779
1587.12971,0.17701
1589.05818,0.17818
1590.98664,0.17725
1592.91511,0.17475
1594.84358,0.17578
1596.77205,0.17732
1598.70052,0.17664
1600.62899,0.17811
1602.55746,0.18049
1604.48592,0.18107
1606.41439,0.18245
1608.34286,0.18381
1610.27133,0.18158
1612.19980,0.17931
1614.12827,0.18450
1616.05674,0.19754
1617.98521,0.20169
1619.91367,0.19721
1621.84214,0.19830
1623.77061,0.20231
1625.69908,0.20437
1627.62755,0.20412
1629.55602,0.19847
1631.48449,0.19574
1633.41295,0.20715
1635.34142,0.22827
1637.26989,0.22420
1639.19836,0.20483
1641.12683,0.19573
1643.05530,0.20012
1644.98377,0.21807
1646.91223,0.23707
1648.84070,0.23550
1650.76917,0.23717
1652.69764,0.25100
1654.62611,0.23436
1656.55458,0.20896
1658.48305,0.19901
1660.41152,0.20012
1662.33998,0.20562
1664.26845,0.20603
1666.19692,0.20782
1668.12539,0.22114
1670.05386,0.23016
1671.98233,0.21898
1673.91080,0.21024
1675.83926,0.20838
1677.76773,0.20710
1679.69620,0.20935
1681.62467,0.21770
1683.55314,0.22479
1685.48161,0.21742
1687.41008,0.21336
1689.33855,0.21424
1691.26701,0.21067
1693.19548,0.20906
1695.12395,0.21821
1697.05242,0.23067
1698.98089,0.23407
1700.90936,0.22746
1702.83783,0.21814
1704.76629,0.21173
1706.69476,0.20406
1708.62323,0.19703
1710.55170,0.19465
1712.48017,0.19809
1714.40864,0.20953
1716.33711,0.22369
1718.26558,0.22005
1720.19404,0.20555
1722.12251,0.19558
1724.05098,0.18900
1725.97945,0.18716
1727.90792,0.19166
1729.83639,0.20000
1731.76486,0.20928
1733.69332,0.21241
1735.62179,0.20388
1737.55026,0.20011
1739.47873,0.20252
1741.40720,0.20311
1743.33567,0.20241
1745.26414,0.20504
1747.19261,0.21063
1749.12107,0.21284
1751.04954,0.20566
1752.97801,0.19685
1754.90648,0.19460
1756.83495,0.19616
1758.76342,0.19624
1760.69189,0.19650
1762.62035,0.19567
1764.54882,0.19220
1766.47729,0.19173
1768.40576,0.19750
1770.33423,0.21000
1772.26270,0.21931
1774.19117,0.21213
1776.11964,0.20124
1778.04810,0.19713
1779.97657,0.19719
1781.90504,0.19557
1783.83351,0.19377
1785.76198,0.19333
1787.69045,0.19375
1789.61892,0.19832
1791.54738,0.20522
1793.47585,0.20560
1795.40432,0.20092
1797.33279,0.19771
1799.26126,0.19782
1801.18973,0.19788
1803.11820,0.19413
1805.04666,0.18979
1806.97513,0.18812
1808.90360,0.19015
1810.83207,0.19302
1812.76054,0.19141
1814.68901,0.18748
1816.61748,0.18159
1818.54595,0.17066
1820.47441,0.16712
1822.40288,0.18041
1824.33135,0.19467
1826.25982,0.19716
1828.18829,0.19701
1830.11676,0.19869
1832.04523,0.19813
1833.97369,0.19697
1835.90216,0.19690
1837.83063,0.19449
1839.75910,0.19210
1841.68757,0.19557
1843.61604,0.20108
1845.54451,0.19824
1847.47298,0.18880
1849.40144,0.18288
1851.32991,0.18347
1853.25838,0.18601
1855.18685,0.18783
1857.11532,0.18985
1859.04379,0.19183
1860.97226,0.19299
1862.90072,0.19367
1864.82919,0.19582
1866.75766,0.20028
1868.68613,0.20334
1870.61460,0.20040
1872.54307,0.19350
1874.47154,0.18803
1876.40001,0.18566
1878.32847,0.18324
1880.25694,0.18179
1882.18541,0.18387
1884.11388,0.18611
1886.04235,0.18741
1887.97082,0.19123
1889.89929,0.19427
1891.82775,0.19397
1893.75622,0.19696
1895.68469,0.20010
1897.61316,0.19573
1899.54163,0.18848
1901.47010,0.18340
1903.39857,0.18275
1905.32704,0.18853
1907.25550,0.19430
1909.18397,0.19361
1911.11244,0.19008
1913.04091,0.18756
1914.96938,0.18805
1916.89785,0.19224
1918.82632,0.19502
1920.75478,0.19550
1922.68325,0.19487
1924.61172,0.18988
1926.54019,0.18494
1928.46866,0.18548
1930.39713,0.18823
1932.32560,0.18923
1934.25407,0.18870
1936.18253,0.18767
1938.11100,0.18784
1940.03947,0.19186
1941.96794,0.19684
1943.89641,0.19528
1945.82488,0.19086
1947.75335,0.19049
1949.68181,0.19153
1951.61028,0.19172
1953.53875,0.19247
1955.46722,0.19287
1957.39569,0.19220
1959.32416,0.19198
1961.25263,0.19232
1963.18110,0.19354
1965.10956,0.19590
1967.03803,0.19649
1968.96650,0.19375
1970.89497,0.19078
1972.82344,0.18580
1974.75191,0.17324
1976.68038,0.16190
1978.60884,0.16018
1980.53731,0.16716
1982.46578,0.18230
1984.39425,0.19238
1986.32272,0.19158
1988.25119,0.19043
1990.17966,0.19192
1992.10812,0.19342
1994.03659,0.19329
1995.96506,0.19369
1997.89353,0.19510
1999.82200,0.19383
2001.75047,0.19009
2003.67894,0.18666
2005.60741,0.18505
2007.53587,0.18592
2009.46434,0.18780
2011.39281,0.18822
2013.32128,0.18845
2015.24975,0.19038
2017.17822,0.19084
2019.10669,0.18765
2021.03515,0.18549
2022.96362,0.18648
2024.89209,0.18807
2026.82056,0.19045
2028.74903,0.19359
2030.67750,0.19506
2032.60597,0.19526
2034.53444,0.19655
2036.46290,0.19643
2038.39137,0.19297
2040.31984,0.18924
2042.24831,0.18722
2044.17678,0.18724
2046.10525,0.18905
2048.03372,0.19076
2049.96218,0.18942
2051.89065,0.18553
2053.81912,0.18382
2055.74759,0.18634
2057.67606,0.19022
2059.60453,0.19332
2061.53300,0.19540
2063.46147,0.19413
2065.38993,0.18917
2067.31840,0.18596
2069.24687,0.18764
2071.17534,0.18977
2073.10381,0.19000
2075.03228,0.19028
2076.96075,0.18959
2078.88921,0.18826
2080.81768,0.18812
2082.74615,0.18814
2084.67462,0.18729
2086.60309,0.18636
2088.53156,0.18654
2090.46003,0.18924
2092.38850,0.19301
2094.31696,0.19379
2096.24543,0.19218
2098.17390,0.19230
2100.10237,0.19466
2102.03084,0.19512
2103.95931,0.19276
2105.88778,0.19175
2107.81624,0.19188
2109.74471,0.19152
2111.67318,0.19284
2113.60165,0.19496
2115.53012,0.19345
2117.45859,0.18991
2119.38706,0.18973
2121.31553,0.19109
2123.24399,0.19034
2125.17246,0.18948
2127.10093,0.19013
2129.02940,0.19107
2130.95787,0.19146
2132.88634,0.18967
2134.81481,0.18501
2136.74327,0.18345
2138.67174,0.18795
2140.60021,0.19089
2142.52868,0.19003
2144.45715,0.18995
2146.38562,0.19001
2148.31409,0.19005
2150.24255,0.18979
2152.17102,0.18753
2154.09949,0.18826
2156.02796,0.19295
2157.95643,0.19441
2159.88490,0.19205
2161.81337,0.19044
2163.74184,0.19003
2165.67030,0.19110
2167.59877,0.19465
2169.52724,0.19678
2171.45571,0.19402
2173.38418,0.19063
2175.31265,0.19099
2177.24112,0.19296
2179.16958,0.19313
2181.09805,0.19154
2183.02652,0.19052
2184.95499,0.19064
2186.88346,0.19174
2188.81193,0.19366
2190.74040,0.19398
2192.66887,0.19192
2194.59733,0.18961
2196.52580,0.18844
2198.45427,0.18907
2200.38274,0.19104
2202.31121,0.19146
2204.23968,0.18907
2206.16815,0.18760
2208.09661,0.18923
2210.02508,0.18969
2211.95355,0.18721
2213.88202,0.18709
2215.81049,0.19054
2217.73896,0.19254
2219.66743,0.19082
2221.59590,0.18774
2223.52436,0.18611
2225.45283,0.18605
2227.38130,0.18779
2229.30977,0.19090
2231.23824,0.19209
2233.16671,0.18989
2235.09518,0.18699
2237.02364,0.18599
2238.95211,0.18514
2240.88058,0.18314
2242.80905,0.18294
2244.73752,0.18630
2246.66599,0.18959
2248.59446,0.18983
2250.52293,0.18975
2252.45139,0.19108
2254.37986,0.19336
2256.30833,0.19545
2258.23680,0.19561
2260.16527,0.19487
2262.09374,0.19443
2264.02221,0.19449
2265.95067,0.19447
2267.87914,0.19280
2269.80761,0.19046
2271.73608,0.18968
2273.66455,0.19040
2275.59302,0.19179
2277.52149,0.19365
2279.44996,0.19299
2281.37842,0.18950
2283.30689,0.18977
2285.23536,0.19359
2287.16383,0.19507
2289.09230,0.19489
2291.02077,0.19402
2292.94924,0.19126
2294.87770,0.18908
2296.80617,0.19045
2298.73464,0.19243
2300.66311,0.19079
2302.59158,0.18988
2304.52005,0.19352
2306.44852,0.19705
2308.37699,0.19805
2310.30545,0.19990
2312.23392,0.20371
2314.16239,0.20570
2316.09086,0.20494
2318.01933,0.20244
2319.94780,0.19844
2321.87627,0.19753
2323.80473,0.19837
2325.73320,0.19706
2327.66167,0.19966
2329.59014,0.20831
2331.51861,0.21769
2333.44708,0.22341
2335.37555,0.22597
2337.30401,0.21999
2339.23248,0.20244
2341.16095,0.19331
2343.08942,0.19746
2345.01789,0.19924
2346.94636,0.20042
2348.87483,0.20429
2350.80330,0.20794
2352.73176,0.20598
2354.66023,0.19709
2356.58870,0.19388
2358.51717,0.20149
2360.44564,0.22014
2362.37411,0.23643
2364.30258,0.22668
2366.23104,0.21516
2368.15951,0.22083
2370.08798,0.22443
2372.01645,0.21723
2373.94492,0.20420
2375.87339,0.19303
2377.80186,0.18893
2379.73033,0.19197
2381.65879,0.19635
2383.58726,0.19763
2385.51573,0.19630
2387.44420,0.19296
2389.37267,0.18993
2391.30114,0.18952
2393.22961,0.19075
2395.15807,0.19150
2397.08654,0.19022
2399.01501,0.18909
2400.94348,0.19004
2402.87195,0.19119
2404.80042,0.19323
2406.72889,0.19546
2408.65736,0.19364
2410.58582,0.19046
2412.51429,0.19014
2414.44276,0.19163
2416.37123,0.19336
2418.29970,0.19493
2420.22817,0.19744
2422.15664,0.19911
2424.08510,0.19772
2426.01357,0.19475
2427.94204,0.19074
2429.87051,0.18740
2431.79898,0.18740
2433.72745,0.18904
2435.65592,0.19050
2437.58439,0.19159
2439.51285,0.19081
2441.44132,0.18854
2443.36979,0.18715
2445.29826,0.18769
2447.22673,0.18929
2449.15520,0.19185
2451.08367,0.19465
2453.01213,0.19435
2454.94060,0.19139
2456.86907,0.18884
2458.79754,0.18922
2460.72601,0.19307
2462.65448,0.19561
2464.58295,0.19465
2466.51142,0.19310
2468.43988,0.19167
2470.36835,0.19118
2472.29682,0.19320
2474.22529,0.19494
2476.15376,0.19422
2478.08223,0.19337
2480.01070,0.19268
2481.93916,0.19022
2483.86763,0.18831
2485.79610,0.18944
2487.72457,0.19052
2489.65304,0.19025
2491.58151,0.19068
2493.50998,0.19163
2495.43844,0.19245
2497.36691,0.19297
2499.29538,0.19282
2501.22385,0.19339
2503.15232,0.19463
2505.08079,0.19365
2507.00926,0.19078
2508.93773,0.18942
2510.86619,0.19077
2512.79466,0.19184
2514.72313,0.19091
2516.65160,0.18975
2518.58007,0.19000
2520.50854,0.19247
2522.43701,0.19501
2524.36547,0.19704
2526.29394,0.19925
2528.22241,0.19949
2530.15088,0.19787
2532.07935,0.19583
2534.00782,0.19355
2535.93629,0.19037
2537.86476,0.18754
2539.79322,0.18832
2541.72169,0.19049
2543.65016,0.19070
2545.57863,0.19076
2547.50710,0.19112
2549.43557,0.19130
2551.36404,0.19178
2553.29250,0.19131
2555.22097,0.19079
2557.14944,0.19099
2559.07791,0.19041
2561.00638,0.19036
2562.93485,0.19239
2564.86332,0.19635
2566.79179,0.20124
2568.72025,0.20295
2570.64872,0.20006
2572.57719,0.19669
2574.50566,0.19469
2576.43413,0.19333
2578.36260,0.19320
2580.29107,0.19583
2582.21953,0.19851
2584.14800,0.19727
2586.07647,0.19547
2588.00494,0.19557
2589.93341,0.19644
2591.86188,0.19823
2593.79035,0.19927
2595.71882,0.19790
2597.64728,0.19543
2599.57575,0.19325
2601.50422,0.19057
2603.43269,0.18860
2605.36116,0.19015
2607.28963,0.19168
2609.21810,0.18750
2611.14656,0.18278
2613.07503,0.18681
2615.00350,0.19485
2616.93197,0.19764
2618.86044,0.19751
2620.78891,0.19765
2622.71738,0.19525
2624.64585,0.19189
2626.57431,0.19115
2628.50278,0.19249
2630.43125,0.19572
2632.35972,0.19870
2634.28819,0.19727
2636.21666,0.19353
2638.14513,0.19223
2640.07359,0.19292
2642.00206,0.19482
2643.93053,0.19732
2645.85900,0.19586
2647.78747,0.19279
2649.71594,0.19446
2651.64441,0.19717
2653.57288,0.19684
2655.50134,0.19706
2657.42981,0.19863
2659.35828,0.19769
2661.28675,0.19486
2663.21522,0.19290
2665.14369,0.19245
2667.07216,0.19414
2669.00062,0.19646
2670.92909,0.19716
2672.85756,0.19583
2674.78603,0.19522
2676.71450,0.19793
2678.64297,0.19940
2680.57144,0.19685
2682.49990,0.19669
2684.42837,0.19973
2686.35684,0.20016
2688.28531,0.19926
2690.21378,0.20143
2692.14225,0.20675
2694.07072,0.21085
2695.99919,0.21052
2697.92765,0.20776
2699.85612,0.20455
2701.78459,0.20244
2703.71306,0.20308
2705.64153,0.20310
2707.57000,0.20044
2709.49847,0.20073
2711.42693,0.20427
2713.35540,0.20358
2715.28387,0.19905
2717.21234,0.19796
2719.14081,0.20086
2721.06928,0.20212
2722.99775,0.20182
2724.92622,0.20308
2726.85468,0.20421
2728.78315,0.20403
2730.71162,0.20378
2732.64009,0.20330
2734.56856,0.20192
2736.49703,0.20039
2738.42550,0.19919
2740.35396,0.19736
2742.28243,0.19574
2744.21090,0.19649
2746.13937,0.19804
2748.06784,0.19843
2749.99631,0.19921
2751.92478,0.20102
2753.85325,0.20378
2755.78171,0.20662
2757.71018,0.20718
2759.63865,0.20617
2761.56712,0.20588
2763.49559,0.20660
2765.42406,0.20800
2767.35253,0.21060
2769.28099,0.21288
2771.20946,0.21080
2773.13793,0.20702
2775.06640,0.20803
2776.99487,0.21010
2778.92334,0.20846
2780.85181,0.20613
2782.78028,0.20544
2784.70874,0.20608
2786.63721,0.20655
2788.56568,0.20626
2790.49415,0.20732
2792.42262,0.20824
2794.35109,0.20665
2796.27956,0.20594
2798.20802,0.20603
2800.13649,0.20419
2802.06496,0.20298
2803.99343,0.20399
2805.92190,0.20524
2807.85037,0.20523
2809.77884,0.20567
2811.70731,0.20754
2813.63577,0.20900
2815.56424,0.20849
2817.49271,0.20637
2819.42118,0.20682
2821.34965,0.21056
2823.27812,0.21252
2825.20659,0.21147
2827.13505,0.21062
2829.06352,0.21017
2830.99199,0.20826
2832.92046,0.20670
2834.84893,0.20721
2836.77740,0.20895
2838.70587,0.21196
2840.63433,0.21534
2842.56280,0.21412
2844.49127,0.20716
2846.41974,0.20198
2848.34821,0.20243
2850.27668,0.20386
2852.20515,0.20371
2854.13362,0.20318
2856.06208,0.20161
2857.99055,0.19936
2859.91902,0.19859
2861.84749,0.19918
2863.77596,0.20042
2865.70443,0.20278
2867.63290,0.20511
2869.56136,0.20470
2871.48983,0.20436
2873.41830,0.20729
2875.34677,0.20917
2877.27524,0.20881
2879.20371,0.20880
2881.13218,0.20775
2883.06065,0.20671
2884.98911,0.20650
2886.91758,0.20586
2888.84605,0.20854
2890.77452,0.21168
2892.70299,0.20772
2894.63146,0.20191
2896.55993,0.20215
2898.48839,0.20677
2900.41686,0.21051
2902.34533,0.20995
2904.27380,0.20523
2906.20227,0.20207
2908.13074,0.20400
2910.05921,0.20599
2911.98768,0.20564
2913.91614,0.20459
2915.84461,0.20144
2917.77308,0.19873
2919.70155,0.20187
2921.63002,0.20827
2923.55849,0.21005
2925.48696,0.20518
2927.41542,0.20040
2929.34389,0.19975
2931.27236,0.19883
2933.20083,0.19628
2935.12930,0.19622
2937.05777,0.19873
2938.98624,0.20143
2940.91471,0.20300
2942.84317,0.20185
2944.77164,0.19830
2946.70011,0.19568
2948.62858,0.19606
2950.55705,0.19646
2952.48552,0.19736
2954.41399,0.20133
2956.34245,0.20191
2958.27092,0.19801
2960.19939,0.19849
2962.12786,0.20425
2964.05633,0.20844
2965.98480,0.20734
2967.91327,0.20455
2969.84174,0.20379
2971.77020,0.20271
2973.69867,0.20184
2975.62714,0.20367
2977.55561,0.20567
2979.48408,0.20837
2981.41255,0.21177
2983.34102,0.21198
2985.26948,0.21084
2987.19795,0.21069
2989.12642,0.21119
2991.05489,0.21068
2992.98336,0.20762
2994.91183,0.20720
2996.84030,0.21184
2998.76877,0.21543
3000.69723,0.21500
3002.62570,0.21277
3004.55417,0.21049
3006.48264,0.20768
3008.41111,0.20340
3010.33958,0.19791
3012.26805,0.18937
3014.19651,0.17566
3016.12498,0.16559
3018.05345,0.17341
3019.98192,0.19463
3021.91039,0.21087
3023.83886,0.21686
3025.76733,0.21808
3027.69579,0.21806
3029.62426,0.21652
3031.55273,0.21090
3033.48120,0.20600
3035.40967,0.20739
3037.33814,0.21057
3039.26661,0.21371
3041.19508,0.21652
3043.12354,0.21641
3045.05201,0.21386
3046.98048,0.21015
3048.90895,0.21040
3050.83742,0.21385
3052.76589,0.21278
3054.69436,0.20682
3056.62282,0.20143
3058.55129,0.20356
3060.47976,0.20922
3062.40823,0.21013
3064.33670,0.20820
3066.26517,0.20372
3068.19364,0.20027
3070.12211,0.20607
3072.05057,0.21424
3073.97904,0.21010
3075.90751,0.19951
3077.83598,0.20011
3079.76445,0.20981
3081.69292,0.21556
3083.62139,0.21089
3085.54985,0.20215
3087.47832,0.20194
3089.40679,0.20595
3091.33526,0.20584
3093.26373,0.20484
3095.19220,0.20514
3097.12067,0.20441
3099.04914,0.20299
3100.97760,0.20459
3102.90607,0.20745
3104.83454,0.21015
3106.76301,0.21399
3108.69148,0.21473
3110.61995,0.20921
3112.54842,0.20413
3114.47688,0.20967
3116.40535,0.21963
3118.33382,0.22159
3120.26229,0.21759
3122.19076,0.21176
3124.11923,0.20731
3126.04770,0.20887
3127.97617,0.21398
3129.90463,0.21768
3131.83310,0.21968
3133.76157,0.22082
3135.69004,0.21933
3137.61851,0.21483
3139.54698,0.21238
3141.47545,0.21472
3143.40391,0.21748
3145.33238,0.21908
3147.26085,0.21823
3149.18932,0.21263
3151.11779,0.20829
3153.04626,0.21067
3154.97473,0.21575
3156.90320,0.21607
3158.83166,0.21191
3160.76013,0.21056
3162.68860,0.21474
3164.61707,0.22238
3166.54554,0.22758
3168.47401,0.22379
3170.40248,0.21563
3172.33094,0.21472
3174.25941,0.22193
3176.18788,0.22746
3178.11635,0.22674
3180.04482,0.22584
3181.97329,0.22851
3183.90176,0.23058
3185.83022,0.22993
3187.75869,0.22273
3189.68716,0.21010
3191.61563,0.20539
3193.54410,0.21116
3195.47257,0.21747
3197.40104,0.22012
3199.32951,0.22180
3201.25797,0.22131
3203.18644,0.21794
3205.11491,0.21941
3207.04338,0.22293
3208.97185,0.21806
3210.90032,0.21102
3212.82879,0.21141
3214.75725,0.21494
3216.68572,0.21691
3218.61419,0.21710
3220.54266,0.21687
3222.47113,0.21896
3224.39960,0.21906
3226.32807,0.21582
3228.25654,0.21462
3230.18500,0.21460
3232.11347,0.21474
3234.04194,0.21605
3235.97041,0.21592
3237.89888,0.21291
3239.82735,0.21031
3241.75582,0.20862
3243.68428,0.20376
3245.61275,0.20011
3247.54122,0.20420
3249.46969,0.21096
3251.39816,0.21481
3253.32663,0.21596
3255.25510,0.21470
3257.18357,0.21222
3259.11203,0.21331
3261.04050,0.21931
3262.96897,0.22343
3264.89744,0.22033
3266.82591,0.21268
3268.75438,0.20690
3270.68285,0.20701
3272.61131,0.21130
3274.53978,0.21397
3276.46825,0.21359
3278.39672,0.21377
3280.32519,0.21482
3282.25366,0.21585
3284.18213,0.21685
3286.11060,0.21484
3288.03906,0.20873
3289.96753,0.20588
3291.89600,0.20909
3293.82447,0.21050
3295.75294,0.20808
3297.68141,0.20648
3299.60988,0.20945
3301.53834,0.21482
3303.46681,0.21550
3305.39528,0.21317
3307.32375,0.21272
3309.25222,0.21093
3311.18069,0.20769
3313.10916,0.20722
3315.03763,0.20824
3316.96609,0.21001
3318.89456,0.21563
3320.82303,0.22203
3322.75150,0.22278
3324.67997,0.21813
3326.60844,0.21168
3328.53691,0.20782
3330.46537,0.20882
3332.39384,0.21283
3334.32231,0.21589
3336.25078,0.21306
3338.17925,0.20872
3340.10772,0.20888
3342.03619,0.20803
3343.96466,0.20478
3345.89312,0.20531
3347.82159,0.20932
3349.75006,0.21245
3351.67853,0.21469
3353.60700,0.21813
3355.53547,0.22316
3357.46394,0.22545
3359.39240,0.22199
3361.32087,0.21870
3363.24934,0.21821
3365.17781,0.21796
3367.10628,0.21743
3369.03475,0.21504
3370.96322,0.21239
3372.89168,0.21186
3374.82015,0.21174
3376.74862,0.21220
3378.67709,0.21455
3380.60556,0.21724
3382.53403,0.21731
3384.46250,0.21501
3386.39097,0.21462
3388.31943,0.21542
3390.24790,0.21306
3392.17637,0.20865
3394.10484,0.20582
3396.03331,0.20638
3397.96178,0.21021
3399.89025,0.21596
3401.81871,0.21906
3403.74718,0.21720
3405.67565,0.21625
3407.60412,0.21541
3409.53259,0.20808
3411.46106,0.19999
3413.38953,0.20144
3415.31800,0.20969
3417.24646,0.21440
3419.17493,0.21216
3421.10340,0.20625
3423.03187,0.20180
3424.96034,0.20211
3426.88881,0.20674
3428.81728,0.21165
3430.74574,0.21044
3432.67421,0.20401
3434.60268,0.19910
3436.53115,0.19717
3438.45962,0.19702
3440.38809,0.19802
3442.31656,0.19927
3444.24503,0.20078
3446.17349,0.20198
3448.10196,0.20294
3450.03043,0.20470
3451.95890,0.20463
3453.88737,0.20110
3455.81584,0.19877
3457.74431,0.20053
3459.67277,0.20135
3461.60124,0.19869
3463.52971,0.19623
3465.45818,0.19463
3467.38665,0.19516
3469.31512,0.19828
3471.24359,0.19902
3473.17206,0.19685
3475.10052,0.19352
3477.02899,0.19127
3478.95746,0.19345
3480.88593,0.19667
3482.81440,0.19582
3484.74287,0.19315
3486.67134,0.19251
3488.59980,0.19199
3490.52827,0.18980
3492.45674,0.18806
3494.38521,0.18818
3496.31368,0.18904
3498.24215,0.18562
3500.17062,0.18000
3502.09909,0.18207
3504.02755,0.18938
3505.95602,0.19303
3507.88449,0.19553
3509.81296,0.19698
3511.74143,0.19168
3513.66990,0.18254
3515.59837,0.17669
3517.52683,0.17435
3519.45530,0.17171
3521.38377,0.17067
3523.31224,0.17594
3525.24071,0.18552
3527.16918,0.19227
3529.09765,0.18971
3531.02611,0.18091
3532.95458,0.17585
3534.88305,0.17699
3536.81152,0.17819
3538.73999,0.17545
3540.66846,0.17290
3542.59693,0.17364
3544.52540,0.17617
3546.45386,0.17722
3548.38233,0.17672
3550.31080,0.17832
3552.23927,0.17974
3554.16774,0.17709
3556.09621,0.17301
3558.02468,0.17046
3559.95314,0.16947
3561.88161,0.16927
3563.81008,0.17293
3565.73855,0.18205
3567.66702,0.18415
3569.59549,0.17499
3571.52396,0.16818
3573.45243,0.16515
3575.38089,0.16342
3577.30936,0.16403
3579.23783,0.16377
3581.16630,0.16018
3583.09477,0.16030
3585.02324,0.16778
3586.95171,0.17413
3588.88017,0.16966
3590.80864,0.16250
3592.73711,0.16058
3594.66558,0.16343
3596.59405,0.16601
3598.52252,0.16582
3600.45099,0.16576
3602.37946,0.16379
3604.30792,0.15806
3606.23639,0.15503
3608.16486,0.15822
3610.09333,0.16192
3612.02180,0.16264
3613.95027,0.16269
3615.87874,0.16598
3617.80720,0.17225
3619.73567,0.17357
3621.66414,0.16379
3623.59261,0.15079
3625.52108,0.14572
3627.44955,0.15255
3629.37802,0.15740
3631.30649,0.15241
3633.23495,0.14901
3635.16342,0.14519
3637.09189,0.14142
3639.02036,0.14102
3640.94883,0.14242
3642.87730,0.14505
3644.80577,0.15163
3646.73423,0.16588
3648.66270,0.18520
3650.59117,0.18293
3652.51964,0.16456
3654.44811,0.15240
3656.37658,0.14476
3658.30505,0.13790
3660.23352,0.13496
3662.16198,0.13465
3664.09045,0.13365
3666.01892,0.13624
3667.94739,0.14696
3669.87586,0.15505
3671.80433,0.15152
3673.73280,0.15311
3675.66126,0.15695
3677.58973,0.14936
3679.51820,0.14117
3681.44667,0.13842
3683.37514,0.13907
3685.30361,0.13909
3687.23208,0.14033
3689.16055,0.14620
3691.08901,0.14629
3693.01748,0.13879
3694.94595,0.13186
3696.87442,0.12809
3698.80289,0.13104
3700.73136,0.13836
3702.65983,0.13806
3704.58829,0.13325
3706.51676,0.13609
3708.44523,0.14551
3710.37370,0.15452
3712.30217,0.15104
3714.23064,0.13965
3716.15911,0.13576
3718.08757,0.13772
3720.01604,0.13953
3721.94451,0.13944
3723.87298,0.13889
3725.80145,0.14083
3727.72992,0.14301
3729.65839,0.14490
3731.58686,0.14727
3733.51532,0.14946
3735.44379,0.15887
3737.37226,0.16683
3739.30073,0.16250
3741.22920,0.15340
3743.15767,0.14325
3745.08614,0.13824
3747.01460,0.14409
3748.94307,0.15813
3750.87154,0.17306
3752.80001,0.16512
3754.72848,0.14918
3756.65695,0.14040
3758.58542,0.13695
3760.51389,0.13546
3762.44235,0.13373
3764.37082,0.13249
3766.29929,0.13248
3768.22776,0.13267
3770.15623,0.12877
3772.08470,0.12274
3774.01317,0.12287
3775.94163,0.12788
3777.87010,0.13385
3779.79857,0.13592
3781.72704,0.13378
3783.65551,0.13351
3785.58398,0.13163
3787.51245,0.12753
3789.44092,0.12613
3791.36938,0.12705
3793.29785,0.12853
3795.22632,0.12713
3797.15479,0.12535
3799.08326,0.13447
3801.01173,0.15272
3802.94020,0.15841
3804.86866,0.15159
3806.79713,0.14251
3808.72560,0.13322
3810.65407,0.13148
3812.58254,0.13700
3814.51101,0.14570
3816.43948,0.15005
3818.36795,0.14475
3820.29641,0.14046
3822.22488,0.14377
3824.15335,0.14596
3826.08182,0.14246
3828.01029,0.13562
3829.93876,0.13226
3831.86723,0.13569
3833.79569,0.13949
3835.72416,0.13926
3837.65263,0.14230
3839.58110,0.14833
3841.50957,0.14769
3843.43804,0.14187
3845.36651,0.13621
3847.29498,0.13353
3849.22344,0.13467
3851.15191,0.14158
3853.08038,0.14755
3855.00885,0.13612
3856.93732,0.12709
3858.86579,0.12964
3860.79426,0.14026
3862.72272,0.14805
3864.65119,0.13989
3866.57966,0.12977
3868.50813,0.13474
3870.43660,0.14202
3872.36507,0.13639
3874.29354,0.12863
3876.22200,0.12286
3878.15047,0.12036
3880.07894,0.12607
3882.00741,0.13352
3883.93588,0.13068
3885.86435,0.12211
3887.79282,0.12068
3889.72129,0.12441
3891.64975,0.12215
3893.57822,0.11261
3895.50669,0.10759
3897.43516,0.11059
3899.36363,0.12030
3901.29210,0.13395
3903.22057,0.14398
3905.14903,0.14241
3907.07750,0.12951
3909.00597,0.11511
3910.93444,0.10974
3912.86291,0.11398
3914.79138,0.12067
3916.71985,0.12622
3918.64832,0.12718
3920.57678,0.12327
3922.50525,0.11936
3924.43372,0.11684
3926.36219,0.11647
3928.29066,0.11898
3930.21913,0.12155
3932.14760,0.12006
3934.07606,0.11422
3936.00453,0.11105
3937.93300,0.11244
3939.86147,0.11447
3941.78994,0.11799
3943.71841,0.12073
3945.64688,0.11779
3947.57535,0.11326
3949.50381,0.11161
3951.43228,0.11156
3953.36075,0.11290
3955.28922,0.11451
3957.21769,0.11099
3959.14616,0.10823
3961.07463,0.11384
3963.00309,0.11828
3964.93156,0.11647
3966.86003,0.11478
3968.78850,0.11406
3970.71697,0.11173
3972.64544,0.10730
3974.57391,0.10431
3976.50238,0.10519
3978.43084,0.10376
3980.35931,0.09993
3982.28778,0.10123
3984.21625,0.10519
3986.14472,0.10695
3988.07319,0.10831
3990.00166,0.10764
3991.93012,0.10349
3993.85859,0.10100
3995.78706,0.10180
3997.71553,0.10225
3999.64400,0.10108
4001.57247,0.10004
4003.50094,0.09974
4005.42941,0.09792
4007.35787,0.09459
4009.28634,0.09525
4011.21481,0.10258
4013.14328,0.10771
4015.07175,0.10411
4017.00022,0.09912
4018.92869,0.09814
4020.85715,0.10119
4022.78562,0.10803
4024.71409,0.11056
4026.64256,0.10233
4028.57103,0.09301
4030.49950,0.09397
4032.42797,0.10083
4034.35644,0.10416
4036.28490,0.10413
4038.21337,0.10308
4040.14184,0.10085
4042.07031,0.09907
4043.99878,0.09762
4045.92725,0.09860
4047.85572,0.10504
4049.78418,0.10906
4051.71265,0.10463
4053.64112,0.09801
4055.56959,0.09490
4057.49806,0.09528
4059.42653,0.09494
4061.35500,0.09035
4063.28346,0.08814
4065.21193,0.09280
4067.14040,0.09603
4069.06887,0.09540
4070.99734,0.09490
4072.92581,0.09282
4074.85428,0.09144
4076.78275,0.09436
4078.71121,0.09824
4080.63968,0.10031
4082.56815,0.09999
4084.49662,0.09838
4086.42509,0.09827
4088.35356,0.10092
4090.28203,0.10337
4092.21049,0.10091
4094.13896,0.09652
4096.06743,0.09373
4097.99590,0.09192
4099.92437,0.09267
4101.85284,0.09230
4103.78131,0.08710
4105.70978,0.08246
4107.63824,0.08078
4109.56671,0.08139
4111.49518,0.08876
4113.42365,0.09624
4115.35212,0.09051
4117.28059,0.08047
4119.20906,0.07815
4121.13752,0.08301
4123.06599,0.09509
4124.99446,0.10697
4126.92293,0.10729
4128.85140,0.09979
4130.77987,0.09567
4132.70834,0.09150
4134.63681,0.08273
4136.56527,0.07834
4138.49374,0.08143
4140.42221,0.08594
4142.35068,0.08427
4144.27915,0.07649
4146.20762,0.07420
4148.13609,0.07947
4150.06455,0.08273
4151.99302,0.08309
4153.92149,0.08425
4155.84996,0.08437
4157.77843,0.08453
4159.70690,0.08680
4161.63537,0.08831
4163.56384,0.08657
4165.49230,0.08266
4167.42077,0.08038
4169.34924,0.08103
4171.27771,0.08473
4173.20618,0.08701
4175.13465,0.08044
4177.06312,0.07268
4178.99158,0.07315
4180.92005,0.07568
4182.84852,0.07599
4184.77699,0.07659
4186.70546,0.07830
4188.63393,0.08013
4190.56240,0.07878
4192.49087,0.07567
4194.41933,0.07605
4196.34780,0.07659
4198.27627,0.07229
4200.20474,0.06717
4202.13321,0.06729
4204.06168,0.07210
4205.99015,0.07583
4207.91861,0.07247
4209.84708,0.06543
4211.77555,0.06698
4213.70402,0.07523
4215.63249,0.07731
4217.56096,0.07470
4219.48943,0.07423
4221.41789,0.07576
4223.34636,0.07828
4225.27483,0.07938
4227.20330,0.07747
4229.13177,0.07378
4231.06024,0.06960
4232.98871,0.06556
4234.91718,0.06267
4236.84564,0.06361
4238.77411,0.06724
4240.70258,0.07087
4242.63105,0.07387
4244.55952,0.07425
4246.48799,0.07283
4248.41646,0.07239
4250.34492,0.07238
4252.27339,0.07049
4254.20186,0.06803
4256.13033,0.06594
4258.05880,0.06179
4259.98727,0.06049
4261.91574,0.06602
4263.84421,0.07021
4265.77267,0.06936
4267.70114,0.06906
4269.62961,0.06847
4271.55808,0.06361
4273.48655,0.05916
4275.41502,0.06090
4277.34349,0.06513
4279.27195,0.06447
4281.20042,0.06173
4283.12889,0.06116
4285.05736,0.06039
4286.98583,0.06141
4288.91430,0.06365
4290.84277,0.06378
4292.77124,0.06470
4294.69970,0.06383
4296.62817,0.05567
4298.55664,0.04654
4300.48511,0.04653
4302.41358,0.05426
4304.34205,0.06115
4306.27052,0.06289
4308.19898,0.05960
4310.12745,0.05720
4312.05592,0.06059
4313.98439,0.06280
4315.91286,0.05819
4317.84133,0.05169
4319.76980,0.04744
4321.69827,0.04389
4323.62673,0.04345
4325.55520,0.05020
4327.48367,0.05793
4329.41214,0.06105
4331.34061,0.05929
4333.26908,0.04981
4335.19755,0.03852
4337.12601,0.03948
4339.05448,0.05155
4340.98295,0.06029
4342.91142,0.06189
4344.83989,0.06313
4346.76836,0.06531
4348.69683,0.06424
4350.62530,0.05775
4352.55376,0.04903
4354.48223,0.04500
4356.41070,0.04727
4358.33917,0.05290
4360.26764,0.06178
4362.19611,0.06886
4364.12458,0.06663
4366.05304,0.05700
4367.98151,0.04717
4369.90998,0.04635
4371.83845,0.05458
4373.76692,0.05917
4375.69539,0.05448
4377.62386,0.04259
4379.55232,0.03156
4381.48079,0.03228
4383.40926,0.04036
4385.33773,0.04562
4387.26620,0.04750
4389.19467,0.04721
4391.12314,0.04443
4393.05161,0.04020
4394.98007,0.03556
4396.90854,0.03348
4398.83701,0.03615
4400.76548,0.04076
4402.69395,0.04562
4404.62242,0.04959
4406.55089,0.05111
4408.47935,0.04688
4410.40782,0.03368
4412.33629,0.02266
4414.26476,0.02372
4416.19323,0.02825
4418.12170,0.03011
4420.05017,0.03043
4421.97864,0.02909
4423.90710,0.02818
4425.83557,0.02399
4427.76404,0.01648
4429.69251,0.01919
4431.62098,0.02919
4433.54945,0.02930
4435.47792,0.02490
4437.40638,0.02743
4439.33485,0.02747
4441.26332,0.02376
4443.19179,0.03043
4445.12026,0.04117
4447.04873,0.03909
4448.97720,0.02938
4450.90567,0.02426
4452.83413,0.02410
4454.76260,0.02549
4456.69107,0.02548
4458.61954,0.02358
4460.54801,0.02321
4462.47648,0.02507
4464.40495,0.02747
4466.33341,0.02880
4468.26188,0.02451
4470.19035,0.01583
4472.11882,0.01201
4474.04729,0.01367
4475.97576,0.01472
4477.90423,0.01125
4479.83270,0.00677
4481.76116,0.01192
4483.68963,0.02349
4485.61810,0.02594
4487.54657,0.01985
4489.47504,0.02131
4491.40351,0.03115
4493.33198,0.03740
4495.26044,0.03678
4497.18891,0.02723
4499.11738,0.01297
4501.04585,0.00377
4502.97432,0.00115
4504.90279,0.00516
4506.83126,0.01234
4508.75973,0.01892
4510.68819,0.02508
4512.61666,0.02818
4514.54513,0.02659
4516.47360,0.01900
4518.40207,0.00644
4520.33054,-0.00218
4522.25901,-0.00081
4524.18747,0.00715
4526.11594,0.01443
4528.04441,0.01613
4529.97288,0.01478
4531.90135,0.01863
4533.82982,0.02728
4535.75829,0.03002
4537.68676,0.02585
4539.61522,0.02301
4541.54369,0.02254
4543.47216,0.02236
4545.40063,0.01940
4547.32910,0.00885
4549.25757,-0.00193
4551.18604,-0.00339
4553.11450,0.00420
4555.04297,0.01868
4556.97144,0.02682
4558.89991,0.02008
4560.82838,0.01201
4562.75685,0.00807
4564.68532,0.00748
4566.61378,0.01336
4568.54225,0.01773
4570.47072,0.01537
4572.39919,0.01136
4574.32766,0.00822
4576.25613,0.00786
4578.18460,0.01095
4580.11307,0.01440
4582.04153,0.01765
4583.97000,0.01939
4585.89847,0.01820
4587.82694,0.01966
4589.75541,0.02163
4591.68388,0.01640
4593.61235,0.01192
4595.54081,0.01648
4597.46928,0.02236
4599.39775,0.01689
4601.32622,0.00459
4603.25469,0.00332
4605.18316,0.01266
4607.11163,0.02045
4609.04010,0.02215
4610.96856,0.01517
4612.89703,0.00615
4614.82550,0.00498
4616.75397,0.00774
4618.68244,0.00894
4620.61091,0.01124
4622.53938,0.01369
4624.46784,0.00891
4626.39631,-0.00086
4628.32478,-0.00106
4630.25325,0.00662
4632.18172,0.01238
4634.11019,0.01818
4636.03866,0.01878
4637.96713,0.01441
4639.89559,0.01434
4641.82406,0.01020
4643.75253,0.00205
4645.68100,0.00558
4647.60947,0.01165
4649.53794,0.00982
4651.46641,0.01080
4653.39487,0.01288
4655.32334,0.00918
4657.25181,0.00554
4659.18028,0.00869
4661.10875,0.01657
4663.03722,0.02423
4664.96569,0.03161
4666.89416,0.03280
4668.82262,0.02732
4670.75109,0.02632
4672.67956,0.02595
4674.60803,0.02225
4676.53650,0.02489
4678.46497,0.03064
4680.39344,0.02877
4682.32190,0.01576
4684.25037,-0.00224
4686.17884,-0.00863
4688.10731,0.00230
4690.03578,0.01860
4691.96425,0.02374
4693.89272,0.01595
4695.82119,0.01192
4697.74965,0.01793
4699.67812,0.02160
4701.60659,0.01392
4703.53506,0.00353
4705.46353,0.00094
4707.39200,0.00326
4709.32047,0.00632
4711.24893,0.00957
4713.17740,0.01099
4715.10587,0.00628
4717.03434,-0.00161
4718.96281,-0.00231
4720.89128,0.00397
4722.81975,0.01021
4724.74821,0.01256
4726.67668,0.01419
4728.60515,0.02060
4730.53362,0.02049
4732.46209,0.00597
4734.39056,-0.00325
4736.31903,0.00706
4738.24750,0.02207
4740.17596,0.02478
4742.10443,0.01786
4744.03290,0.01005
4745.96137,0.00635
4747.88984,0.00541
4749.81831,0.00440
4751.74678,0.01030
4753.67524,0.01986
4755.60371,0.01726
4757.53218,0.00629
4759.46065,0.00332
4761.38912,0.00419
4763.31759,0.00193
4765.24606,0.00227
4767.17453,0.00381
4769.10299,0.00592
4771.03146,0.00868
4772.95993,0.00986
4774.88840,0.01128
4776.81687,0.00793
4778.74534,0.00401
4780.67381,0.01344
4782.60227,0.02471
4784.53074,0.02162
4786.45921,0.01362
4788.38768,0.00843
4790.31615,0.00439
4792.24462,0.00229
4794.17309,-0.00132
4796.10156,-0.00771
4798.03002,-0.00780
4799.95849,0.00224
4801.88696,0.00971
4803.81543,0.00995
4805.74390,0.01347
4807.67237,0.01974
4809.60084,0.02811
4811.52930,0.03993
4813.45777,0.03916
4815.38624,0.02237
4817.31471,0.01056
4819.24318,0.00959
4821.17165,0.00727
4823.10012,0.00287
4825.02859,0.01147
4826.95705,0.02664
4828.88552,0.02012
4830.81399,-0.00127
4832.74246,-0.00427
4834.67093,0.01000
4836.59940,0.01922
4838.52787,0.01943
4840.45633,0.00933
4842.38480,-0.00198
4844.31327,-0.00700
4846.24174,-0.01142
4848.17021,-0.00475
4850.09868,0.00947
4852.02715,0.01224
4853.95562,0.00574
4855.88408,-0.00238
4857.81255,-0.00725
4859.74102,0.00044
4861.66949,0.01301
4863.59796,0.01344
4865.52643,0.00877
4867.45490,0.00564
4869.38336,0.00882
4871.31183,0.02713
4873.24030,0.04161
4875.16877,0.02956
4877.09724,0.00274
4879.02571,-0.01478
4880.95418,-0.01104
4882.88265,0.00985
4884.81111,0.02737
4886.73958,0.02272
4888.66805,0.00137
4890.59652,-0.00885
4892.52499,0.00415
4894.45346,0.01508
4896.38193,0.00676
4898.31039,-0.00898
4900.23886,-0.01792
4902.16733,-0.01562
4904.09580,-0.00300
4906.02427,0.01235
4907.95274,0.01850
4909.88121,0.01288
4911.80967,0.00745
4913.73814,0.01003
4915.66661,0.01277
4917.59508,0.01193
4919.52355,0.01228
4921.45202,0.01417
4923.38049,0.01105
4925.30896,0.00343
4927.23742,-0.00060
4929.16589,0.00358
4931.09436,0.01416
4933.02283,0.02171
4934.95130,0.02308
4936.87977,0.01943
4938.80824,0.01105
4940.73670,0.00237
4942.66517,-0.00113
4944.59364,0.00356
4946.52211,0.01099
4948.45058,0.01106
4950.37905,-0.00030
4952.30752,-0.00834
4954.23599,0.00054
4956.16445,0.01379
4958.09292,0.02117
4960.02139,0.02048
4961.94986,0.01284
4963.87833,0.01556
4965.80680,0.02344
4967.73527,0.01261
4969.66373,-0.00098
4971.59220,-0.00193
4973.52067,0.00412
4975.44914,0.02133
4977.37761,0.03775
4979.30608,0.03746
4981.23455,0.02747
4983.16302,0.01683
4985.09148,0.01068
4987.01995,0.01377
4988.94842,0.02541
4990.87689,0.03796
4992.80536,0.03630
4994.73383,0.01598
4996.66230,-0.00049
4998.59076,0.00366
5000.51923,0.02131
5002.44770,0.03927
5004.37617,0.04548
5006.30464,0.03728
5008.23311,0.02236
5010.16158,0.01384
5012.09005,0.02033
5014.01851,0.03264
5015.94698,0.03645
5017.87545,0.03589
5019.80392,0.03998
5021.73239,0.04747
5023.66086,0.04765
5025.58933,0.03113
5027.51779,0.01243
5029.44626,0.00679
5031.37473,0.01420
5033.30320,0.02491
5035.23167,0.02253
5037.16014,0.00484
5039.08861,-0.01216
5041.01708,-0.00383
5042.94554,0.02415
5044.87401,0.04445
5046.80248,0.04663
5048.73095,0.02937
5050.65942,0.00692
5052.58789,0.00191
5054.51636,0.02144
5056.44482,0.04481
5058.37329,0.04383
5060.30176,0.03402
5062.23023,0.03943
5064.15870,0.03873
5066.08717,0.02533
5068.01564,0.02768
5069.94410,0.03837
5071.87257,0.03424
5073.80104,0.02699
5075.72951,0.02503
5077.65798,0.02014
5079.58645,0.01539
5081.51492,0.01520
5083.44339,0.01718
5085.37185,0.02572
5087.30032,0.03834
5089.22879,0.04173
5091.15726,0.04529
5093.08573,0.05895
5095.01420,0.05479
5096.94267,0.02628
5098.87113,0.01013
5100.79960,0.00658
5102.72807,-0.00509
5104.65654,-0.00359
5106.58501,0.01810
5108.51348,0.02499
5110.44195,0.01667
5112.37042,0.02976
5114.29888,0.05565
5116.22735,0.05912
5118.15582,0.04479
5120.08429,0.03092
5122.01276,0.02853
5123.94123,0.03834
5125.86970,0.03887
5127.79816,0.02366
5129.72663,0.01585
5131.65510,0.03101
5133.58357,0.05384
5135.51204,0.05729
5137.44051,0.04881
5139.36898,0.04648
5141.29745,0.04400
5143.22591,0.03381
5145.15438,0.01852
5147.08285,0.01411
5149.01132,0.02872
5150.93979,0.04079
5152.86826,0.03954
5154.79673,0.03658
5156.72519,0.03382
5158.65366,0.02806
5160.58213,0.02309
5162.51060,0.02989
5164.43907,0.04262
5166.36754,0.03367
5168.29601,0.00763
5170.22448,-0.00598
5172.15294,0.00218
5174.08141,0.01851
5176.00988,0.03361
5177.93835,0.04535
5179.86682,0.04765
5181.79529,0.04642
5183.72376,0.05004
5185.65222,0.05479
5187.58069,0.06305
5189.50916,0.06946
5191.43763,0.05949
5193.36610,0.04591
5195.29457,0.04428
5197.22304,0.03614
5199.15151,0.01448
5201.07997,0.00437
5203.00844,0.01601
5204.93691,0.03628
5206.86538,0.04803
5208.79385,0.04453
5210.72232,0.04388
5212.65079,0.05538
5214.57925,0.05770
5216.50772,0.04719
5218.43619,0.04441
5220.36466,0.04277
5222.29313,0.02977
5224.22160,0.02558
5226.15007,0.03988
5228.07854,0.04817
5230.00700,0.04483
5231.93547,0.03836
5233.86394,0.02963
5235.79241,0.02835
5237.72088,0.04060
5239.64935,0.05692
5241.57782,0.06750
5243.50628,0.07023
5245.43475,0.07286
5247.36322,0.07831
5249.29169,0.07551
5251.22016,0.06658
5253.14863,0.05764
5255.07710,0.04946
5257.00556,0.04829
5258.93403,0.05415
5260.86250,0.05281
5262.79097,0.03745
5264.71944,0.03430
5266.64791,0.04438
5268.57638,0.03890
5270.50485,0.02515
5272.43331,0.01861
5274.36178,0.01449
5276.29025,0.02260
5278.21872,0.05199
5280.14719,0.07181
5282.07566,0.06241
5284.00413,0.04872
5285.93259,0.05997
5287.86106,0.09493
5289.78953,0.11693
5291.71800,0.09408
5293.64647,0.05098
5295.57494,0.02802
5297.50341,0.03205
5299.43188,0.04652
5301.36034,0.05487
5303.28881,0.05365
5305.21728,0.04733
5307.14575,0.04499
5309.07422,0.05058
5311.00269,0.05669
5312.93116,0.05935
5314.85962,0.05194
5316.78809,0.03644
5318.71656,0.02789
5320.64503,0.02557
5322.57350,0.02936
5324.50197,0.04722
5326.43044,0.06592
5328.35891,0.06846
5330.28737,0.05441
5332.21584,0.04018
5334.14431,0.05201
5336.07278,0.06975
5338.00125,0.05011
5339.92972,0.01304
5341.85819,0.01086
5343.78665,0.03374
5345.71512,0.03855
5347.64359,0.02864
5349.57206,0.02723
5351.50053,0.03672
5353.42900,0.04833
5355.35747,0.05265
5357.28594,0.05643
5359.21440,0.06641
5361.14287,0.06909
5363.07134,0.05415
5364.99981,0.04533
5366.92828,0.04841
5368.85675,0.05348
5370.78522,0.07396
5372.71368,0.09960
5374.64215,0.10079
5376.57062,0.07988
5378.49909,0.06797
5380.42756,0.06842
5382.35603,0.06336
5384.28450,0.05695
5386.21297,0.06197
5388.14143,0.06169
5390.06990,0.04954
5391.99837,0.04053
5393.92684,0.04108
5395.85531,0.04301
5397.78378,0.04242
5399.71225,0.04757
5401.64071,0.05730
5403.56918,0.06982
5405.49765,0.08973
5407.42612,0.10290
5409.35459,0.09591
5411.28306,0.08668
5413.21153,0.08534
5415.13999,0.08321
5417.06846,0.08172
5418.99693,0.07325
5420.92540,0.05924
5422.85387,0.05289
5424.78234,0.05128
5426.71081,0.05034
5428.63928,0.05496
5430.56774,0.06407
5432.49621,0.06225
5434.42468,0.04328
5436.35315,0.04009
5438.28162,0.06445
5440.21009,0.06884
5442.13856,0.05007
5444.06702,0.06327
5445.99549,0.09861
5447.92396,0.10541
5449.85243,0.07803
5451.78090,0.04008
5453.70937,0.01405
5455.63784,0.01303
5457.56631,0.02720
5459.49477,0.04385
5461.42324,0.06712
5463.35171,0.08389
5465.28018,0.08120
5467.20865,0.06861
5469.13712,0.05481
5471.06559,0.04358
5472.99405,0.04340
5474.92252,0.06293
5476.85099,0.08228
5478.77946,0.07213
5480.70793,0.05332
5482.63640,0.05498
5484.56487,0.07202
5486.49334,0.09331
5488.42180,0.11380
5490.35027,0.12200
5492.27874,0.09864
5494.20721,0.06314
5496.13568,0.06274
5498.06415,0.09022
5499.99262,0.10930
5501.92108,0.10155
5503.84955,0.08453
5505.77802,0.06868
5507.70649,0.05251
5509.63496,0.06193
5511.56343,0.08637
5513.49190,0.07789
5515.42037,0.04458
5517.34883,0.03858
5519.27730,0.06141
5521.20577,0.06962
5523.13424,0.05957
5525.06271,0.05251
5526.99118,0.04929
5528.91965,0.05423
5530.84811,0.06661
5532.77658,0.07074
5534.70505,0.07483
5536.63352,0.08590
5538.56199,0.08631
5540.49046,0.08090
5542.41893,0.08338
5544.34740,0.08307
5546.27586,0.06766
5548.20433,0.04729
5550.13280,0.04672
5552.06127,0.05244
5553.98974,0.04053
5555.91821,0.03341
5557.84668,0.04451
5559.77514,0.05375
5561.70361,0.05330
5563.63208,0.05899
5565.56055,0.07418
5567.48902,0.06800
5569.41749,0.05079
5571.34596,0.05742
5573.27443,0.06434
5575.20289,0.06226
5577.13136,0.07789
5579.05983,0.09753
5580.98830,0.09864
5582.91677,0.08195
5584.84524,0.06652
5586.77371,0.07166
5588.70217,0.08612
5590.63064,0.09062
5592.55911,0.08050
5594.48758,0.05120
5596.41605,0.01637
5598.34452,0.00826
5600.27299,0.02335
5602.20145,0.03405
5604.12992,0.04571
5606.05839,0.06831
5607.98686,0.10172
5609.91533,0.12480
5611.84380,0.11248
5613.77227,0.09906
5615.70074,0.11089
5617.62920,0.11584
5619.55767,0.08997
5621.48614,0.05902
5623.41461,0.05847
5625.34308,0.08387
5627.27155,0.09077
5629.20002,0.05388
5631.12848,0.03041
5633.05695,0.04573
5634.98542,0.05992
5636.91389,0.06771
5638.84236,0.07893
5640.77083,0.08281
5642.69930,0.08037
5644.62777,0.08648
5646.55623,0.10614
5648.48470,0.13069
5650.41317,0.12331
5652.34164,0.07875
5654.27011,0.06605
5656.19858,0.09681
5658.12705,0.12988
5660.05551,0.14432
5661.98398,0.11971
5663.91245,0.06734
5665.84092,0.03034
5667.76939,0.02402
5669.69786,0.02907
5671.62633,0.03498
5673.55480,0.05748
5675.48326,0.10359
5677.41173,0.14006
5679.34020,0.14050
5681.26867,0.12073
5683.19714,0.09222
5685.12561,0.05562
5687.05408,0.03031
5688.98254,0.03659
5690.91101,0.05192
5692.83948,0.05964
5694.76795,0.08167
5696.69642,0.11502
5698.62489,0.13177
5700.55336,0.12148
5702.48183,0.09667
5704.41029,0.07406
5706.33876,0.06421
5708.26723,0.06983
5710.19570,0.07098
5712.12417,0.05660
5714.05264,0.04756
5715.98111,0.05850
5717.90957,0.07834
5719.83804,0.09166
5721.76651,0.10151
5723.69498,0.10484
5725.62345,0.10126
5727.55192,0.10174
5729.48039,0.10309
5731.40886,0.10328
5733.33732,0.09134
5735.26579,0.07030
5737.19426,0.06805
5739.12273,0.08030
5741.05120,0.08498
5742.97967,0.07076
5744.90814,0.05847
5746.83660,0.07190
5748.76507,0.09271
5750.69354,0.10595
5752.62201,0.12249
5754.55048,0.12873
5756.47895,0.10189
5758.40742,0.06196
5760.33588,0.04897
5762.26435,0.06975
5764.19282,0.08636
5766.12129,0.09082
5768.04976,0.10268
5769.97823,0.10618
5771.90670,0.09471
5773.83517,0.09397
5775.76363,0.12065
5777.69210,0.14152
5779.62057,0.10184
5781.54904,0.03295
5783.47751,0.01665
5785.40598,0.05052
5787.33445,0.07051
5789.26291,0.05329
5791.19138,0.03195
5793.11985,0.05143
5795.04832,0.09977
5796.97679,0.12788
5798.90526,0.13055
5800.83373,0.12000
5802.76220,0.09192
5804.69066,0.06319
5806.61913,0.06554
5808.54760,0.09184
5810.47607,0.11700
5812.40454,0.12751
5814.33301,0.12615
5816.26148,0.13286
5818.18994,0.13675
5820.11841,0.11214
5822.04688,0.08831
5823.97535,0.09950
5825.90382,0.11192
5827.83229,0.08913
5829.76076,0.05319
5831.68923,0.03604
5833.61769,0.04895
5835.54616,0.07618
5837.47463,0.07358
5839.40310,0.05608
5841.33157,0.07537
5843.26004,0.10495
5845.18851,0.09845
5847.11697,0.07742
5849.04544,0.06606
5850.97391,0.06329
5852.90238,0.09113
5854.83085,0.14450
5856.75932,0.16329
5858.68779,0.13684
5860.61626,0.10209
5862.54472,0.08206
5864.47319,0.09015
5866.40166,0.11577
5868.33013,0.14310
5870.25860,0.15128
5872.18707,0.13419
5874.11554,0.11668
5876.04400,0.10703
5877.97247,0.11154
5879.90094,0.13054
5881.82941,0.14337
5883.75788,0.14117
5885.68635,0.13242
5887.61482,0.13163
5889.54329,0.13295
5891.47175,0.11930
5893.40022,0.08826
5895.32869,0.06698
5897.25716,0.09294
5899.18563,0.13750
5901.11410,0.13401
5903.04257,0.08758
5904.97103,0.05341
5906.89950,0.04608
5908.82797,0.05923
5910.75644,0.07004
5912.68491,0.05597
5914.61338,0.05925
5916.54185,0.10048
5918.47032,0.10976
5920.39878,0.07381
5922.32725,0.07191
5924.25572,0.11755
5926.18419,0.15035
5928.11266,0.13445
5930.04113,0.09721
5931.96960,0.09559
5933.89806,0.13067
5935.82653,0.14958
5937.75500,0.14005
5939.68347,0.10579
5941.61194,0.04940
5943.54041,0.01711
5945.46888,0.03159
5947.39734,0.06770
5949.32581,0.09675
5951.25428,0.09982
5953.18275,0.09852
5955.11122,0.11707
5957.03969,0.13588
5958.96816,0.13569
5960.89663,0.12784
5962.82509,0.12235
5964.75356,0.10184
5966.68203,0.04783
5968.61050,0.00017
5970.53897,0.01011
5972.46744,0.02702
5974.39591,0.01829
5976.32437,0.06029
5978.25284,0.13363
5980.18131,0.14429
5982.10978,0.10359
5984.03825,0.06257
5985.96672,0.05306
5987.89519,0.07774
5989.82366,0.09263
5991.75212,0.10140
5993.68059,0.12396
5995.60906,0.14199
5997.53753,0.12205
5999.46600,0.05573
6001.39447,0.01071
6003.32294,0.01324
6005.25140,0.01945
6007.17987,0.03804
6009.10834,0.05691
6011.03681,0.05285
6012.96528,0.05707
6014.89375,0.07498
6016.82222,0.09707
6018.75069,0.11992
6020.67915,0.12501
6022.60762,0.09986
6024.53609,0.05992
6026.46456,0.04169
6028.39303,0.07826
6030.32150,0.15764
6032.24997,0.19195
6034.17843,0.13405
6036.10690,0.07217
6038.03537,0.07041
6039.96384,0.07460
6041.89231,0.06196
6043.82078,0.06479
6045.74925,0.07244
6047.67772,0.06788
6049.60618,0.08689
6051.53465,0.13018
6053.46312,0.15179
6055.39159,0.13848
6057.32006,0.10995
6059.24853,0.10570
6061.17700,0.13559
6063.10546,0.13299
6065.03393,0.08017
6066.96240,0.06753
6068.89087,0.10893
6070.81934,0.13899
6072.74781,0.13436
6074.67628,0.10837
6076.60475,0.10322
6078.53321,0.13139
6080.46168,0.11633
6082.39015,0.03978
6084.31862,-0.00142
6086.24709,0.02377
6088.17556,0.04609
6090.10403,0.05478
6092.03249,0.08103
6093.96096,0.10644
6095.88943,0.09380
6097.81790,0.04929
6099.74637,0.01327
6101.67484,0.01958
6103.60331,0.06603
6105.53177,0.11553
6107.46024,0.14241
6109.38871,0.13647
6111.31718,0.08642
6113.24565,0.02202
6115.17412,0.00402
6117.10259,0.06509
6119.03106,0.14569
6120.95952,0.15845
6122.88799,0.15537
6124.81646,0.16075
6126.74493,0.13020
6128.67340,0.10415
6130.60187,0.11156
6132.53034,0.10981
6134.45880,0.08452
6136.38727,0.07409
6138.31574,0.10070
6140.24421,0.12597
6142.17268,0.12834
6144.10115,0.10986
6146.02962,0.06207
6147.95809,0.01145
6149.88655,0.01103
6151.81502,0.04485
6153.74349,0.05774
6155.67196,0.06725
6157.60043,0.09301
6159.52890,0.12311
6161.45737,0.13559
6163.38583,0.14308
6165.31430,0.16972
6167.24277,0.16895
6169.17124,0.12245
6171.09971,0.07332
6173.02818,0.06088
6174.95665,0.07456
6176.88512,0.06817
6178.81358,0.04555
6180.74205,0.04415
6182.67052,0.04150
6184.59899,0.01590
6186.52746,0.00141
6188.45593,0.01552
6190.38440,0.05815
6192.31286,0.10363
6194.24133,0.08059
6196.16980,0.02549
6198.09827,0.02798
6200.02674,0.04605
6201.95521,0.03717
6203.88368,0.03067
6205.81215,0.02877
6207.74061,0.02469
6209.66908,0.04486
6211.59755,0.06093
6213.52602,0.04295
6215.45449,0.04378
6217.38296,0.07150
6219.31143,0.09771
6221.23989,0.10630
6223.16836,0.08043
6225.09683,0.04439
6227.02530,0.03536
6228.95377,0.05255
6230.88224,0.09016
6232.81071,0.13835
6234.73918,0.13621
6236.66764,0.08481
6238.59611,0.04633
6240.52458,0.01763
6242.45305,-0.00806
6244.38152,0.00258
6246.30999,0.03201
6248.23846,0.02749
6250.16692,0.00285
6252.09539,-0.00479
6254.02386,0.02098
6255.95233,0.08558
6257.88080,0.13860
6259.80927,0.15070
6261.73774,0.15008
6263.66621,0.16277
6265.59467,0.18558
6267.52314,0.17487
6269.45161,0.11913
6271.38008,0.05734
6273.30855,0.02282
6275.23702,0.03061
6277.16549,0.06963
6279.09395,0.08444
6281.02242,0.03659
6282.95089,-0.01501
6284.87936,-0.00273
6286.80783,0.02510
6288.73630,0.02461
6290.66477,0.03765
6292.59323,0.07220
6294.52170,0.06674
6296.45017,0.02087
6298.37864,0.00818
6300.30711,0.02945
6302.23558,0.05316
6304.16405,0.07460
6306.09252,0.09182
6308.02098,0.13491
6309.94945,0.15257
6311.87792,0.10243
6313.80639,0.09284
6315.73486,0.13873
6317.66333,0.13977
6319.59180,0.09818
6321.52026,0.06214
6323.44873,0.03967
6325.37720,0.04975
6327.30567,0.05538
6329.23414,-0.00828
6331.16261,-0.07185
6333.09108,-0.00709
6335.01955,0.12056
6336.94801,0.16290
6338.87648,0.11844
6340.80495,0.04085
6342.73342,-0.00705
6344.66189,0.01159
6346.59036,0.06002
6348.51883,0.10215
6350.44729,0.13563
6352.37576,0.14530
6354.30423,0.13283
6356.23270,0.14550
6358.16117,0.18733
6360.08964,0.22255
6362.01811,0.24461
6363.94658,0.24650
6365.87504,0.23612
6367.80351,0.23030
6369.73198,0.17935
6371.66045,0.06632
6373.58892,-0.01286
6375.51739,-0.01764
6377.44586,-0.01182
6379.37432,0.00316
6381.30279,0.07638
6383.23126,0.14715
6385.15973,0.09272
6387.08820,0.00633
6389.01667,0.02112
6390.94514,0.10878
6392.87361,0.16239
6394.80207,0.17092
6396.73054,0.20102
6398.65901,0.23445
6400.58748,0.21909
6402.51595,0.15583
6404.44442,0.11425
6406.37289,0.10477
6408.30135,0.10537
6410.22982,0.15155
6412.15829,0.18905
6414.08676,0.20708
6416.01523,0.23083
6417.94370,0.15658
6419.87217,0.03444
6421.80064,-0.00407
6423.72910,-0.00154
6425.65757,0.00990
6427.58604,0.03452
6429.51451,0.08359
6431.44298,0.14290
6433.37145,0.14903
6435.29992,0.11902
6437.22838,0.09193
6439.15685,0.07278
6441.08532,0.07548
6443.01379,0.06927
6444.94226,0.04291
6446.87073,0.04674
6448.79920,0.06958
6450.72766,0.06854
6452.65613,0.02357
6454.58460,-0.01654
6456.51307,0.03132
6458.44154,0.11404
6460.37001,0.12447
6462.29848,0.08038
6464.22695,0.04889
6466.15541,0.07013
6468.08388,0.12072
6470.01235,0.12599
6471.94082,0.09521
6473.86929,0.07012
6475.79776,0.01766
6477.72623,-0.00153
6479.65469,0.04618
6481.58316,0.03456
6483.51163,-0.01054
6485.44010,0.02416
6487.36857,0.09105
6489.29704,0.11779
6491.22551,0.10005
6493.15398,0.04516
6495.08244,-0.00078
6497.01091,0.00479
6498.93938,0.01971
6500.86785,0.03874
6502.79632,0.07867
6504.72479,0.05835
6506.65326,0.01049
6508.58172,0.07248
6510.51019,0.19632
6512.43866,0.23322
6514.36713,0.17771
6516.29560,0.08278
6518.22407,-0.00155
6520.15254,-0.04232
6522.08101,-0.04846
6524.00947,-0.02175
6525.93794,-0.00157
6527.86641,0.00655
6529.79488,0.07523
6531.72335,0.18294
6533.65182,0.22255
6535.58029,0.18825
6537.50875,0.17956
6539.43722,0.21377
6541.36569,0.21701
6543.29416,0.15973
6545.22263,0.09361
6547.15110,0.09524
6549.07957,0.14059
6551.00804,0.13201
6552.93650,0.08313
6554.86497,0.07342
6556.79344,0.09450
6558.72191,0.13701
6560.65038,0.20881
6562.57885,0.26386
6564.50732,0.25954
6566.43578,0.20691
6568.36425,0.15432
6570.29272,0.12803
6572.22119,0.11327
6574.14966,0.08619
6576.07813,0.04646
6578.00660,0.04436
6579.93507,0.08913
6581.86353,0.10097
6583.79200,0.07498
6585.72047,0.09304
6587.64894,0.14555
6589.57741,0.18179
6591.50588,0.21010
6593.43435,0.19549
6595.36281,0.12486
6597.29128,0.09803
6599.21975,0.09397
6601.14822,0.03343
6603.07669,-0.04217
6605.00516,-0.06590
6606.93363,-0.00775
6608.86210,0.10146
6610.79056,0.15797
6612.71903,0.14321
6614.64750,0.13525
6616.57597,0.12781
6618.50444,0.11072
6620.43291,0.13552
6622.36138,0.15672
6624.28984,0.12645
6626.21831,0.10059
6628.14678,0.07305
6630.07525,-0.00912
6632.00372,-0.07442
6633.93219,-0.08621
6635.86066,-0.04383
6637.78912,0.09647
6639.71759,0.22718
6641.64606,0.23853
6643.57453,0.14938
6645.50300,0.04471
6647.43147,0.03114
6649.35994,0.09169
6651.28841,0.13777
6653.21687,0.14343
6655.14534,0.07448
6657.07381,-0.04228
6659.00228,-0.04378
6660.93075,0.07763
6662.85922,0.16754
6664.78769,0.16162
6666.71615,0.08038
6668.64462,0.00741
6670.57309,0.00728
6672.50156,0.01058
6674.43003,-0.03987
6676.35850,-0.07134
6678.28697,-0.02631
6680.21544,0.06381
6682.14390,0.16789
6684.07237,0.24641
6686.00084,0.25484
6687.92931,0.20173
6689.85778,0.13342
6691.78625,0.11815
6693.71472,0.14562
6695.64318,0.14069
6697.57165,0.07604
6699.50012,0.07497
6701.42859,0.18910
6703.35706,0.26416
6705.28553,0.23879
6707.21400,0.19027
6709.14247,0.13407
6711.07093,0.05578
6712.99940,0.02500
6714.92787,0.08375
6716.85634,0.12216
6718.78481,0.07051
6720.71328,0.02201
6722.64175,0.02213
6724.57021,0.00426
6726.49868,-0.01896
6728.42715,0.01730
6730.35562,0.10207
6732.28409,0.14304
6734.21256,0.11087
6736.14103,0.06891
6738.06950,0.04239
6739.99796,0.03009
6741.92643,-0.00539
6743.85490,-0.09770
6745.78337,-0.13683
6747.71184,-0.07619
6749.64031,0.00151
6751.56878,0.05612
6753.49724,0.04200
6755.42571,-0.03046
6757.35418,-0.00136
6759.28265,0.17198
6761.21112,0.28313
6763.13959,0.19413
6765.06806,0.07364
6766.99653,0.04752
6768.92499,0.06525
6770.85346,0.08051
6772.78193,0.08356
6774.71040,0.09054
6776.63887,0.12288
6778.56734,0.14393
6780.49581,0.12986
6782.42427,0.08951
6784.35274,0.04969
6786.28121,0.03568
6788.20968,0.02786
6790.13815,-0.00390
6792.06662,-0.00982
6793.99509,0.03396
6795.92355,0.08694
6797.85202,0.12584
6799.78049,0.13155
6801.70896,0.09499
6803.63743,0.03569
6805.56590,0.02070
6807.49437,0.05522
6809.42284,0.06612
6811.35130,0.04382
6813.27977,0.03359
6815.20824,0.03748
6817.13671,0.04169
6819.06518,0.09791
6820.99365,0.17362
6822.92212,0.14281
6824.85058,0.04291
6826.77905,-0.00938
6828.70752,-0.03206
6830.63599,-0.04541
6832.56446,-0.03641
6834.49293,-0.05246
6836.42140,-0.09397
6838.34987,-0.06651
6840.27833,-0.02014
6842.20680,-0.01142
6844.13527,-0.02396
6846.06374,-0.04580
6847.99221,0.00106
6849.92068,0.09221
6851.84915,0.08372
6853.77761,0.04232
6855.70608,0.06818
6857.63455,0.08945
6859.56302,0.08298
6861.49149,0.13612
6863.41996,0.20111
6865.34843,0.21139
6867.27690,0.15989
6869.20536,0.01895
6871.13383,-0.10461
6873.06230,-0.06267
6874.99077,0.08578
6876.91924,0.21875
6878.84771,0.26572
6880.77618,0.20515
6882.70464,0.13737
6884.63311,0.08295
6886.56158,0.04464
6888.49005,0.05917
6890.41852,0.09410
6892.34699,0.09251
6894.27546,0.05493
6896.20393,0.04705
6898.13239,0.06555
6900.06086,0.03612
6901.98933,0.01842
6903.91780,0.05322
6905.84627,0.07149
6907.77474,0.02482
6909.70321,-0.04654
6911.63167,-0.02404
6913.56014,0.07695
6915.48861,0.09791
6917.41708,0.00278
6919.34555,-0.14716
6921.27402,-0.16280
6923.20249,-0.03053
6925.13096,0.05834
6927.05942,0.07121
6928.98789,0.03681
6930.91636,-0.06044
6932.84483,-0.09217
6934.77330,-0.00027
6936.70177,0.06107
6938.63024,0.09416
6940.55870,0.15707
6942.48717,0.18255
6944.41564,0.16784
6946.34411,0.10340
6948.27258,0.01173
6950.20105,0.02970
6952.12952,0.14107
6954.05799,0.16090
6955.98645,0.05101
6957.91492,-0.02401
6959.84339,-0.00948
6961.77186,0.04873
6963.70033,0.03796
6965.62880,-0.06547
6967.55727,-0.10744
6969.48573,-0.01037
6971.41420,0.10199
6973.34267,0.15275
6975.27114,0.17672
6977.19961,0.17943
6979.12808,0.14623
6981.05655,0.10656
6982.98501,0.09962
6984.91348,0.11811
6986.84195,0.12221
6988.77042,0.13578
6990.69889,0.16744
6992.62736,0.15888
6994.55583,0.11932
6996.48430,0.06005
6998.41276,-0.02130
7000.34123,-0.02782
7002.26970,0.06545
7004.19817,0.17601
7006.12664,0.27816
7008.05511,0.31567
7009.98358,0.27005
7011.91204,0.20878
7013.84051,0.12382
7015.76898,0.02470
7017.69745,-0.00806
7019.62592,0.01886
7021.55439,0.10185
7023.48286,0.28936
7025.41133,0.40902
7027.33979,0.31008
7029.26826,0.14453
7031.19673,0.06296
7033.12520,0.08542
7035.05367,0.14909
7036.98214,0.11906
7038.91061,0.05837
7040.83907,0.06916
7042.76754,0.10541
7044.69601,0.05163
7046.62448,0.01002
7048.55295,0.03851
7050.48142,-0.00398
7052.40989,-0.07994
7054.33836,-0.05339
7056.26682,0.11183
7058.19529,0.28088
7060.12376,0.24232
7062.05223,0.06674
7063.98070,-0.04780
7065.90917,-0.03716
7067.83764,0.04081
7069.76610,0.16088
7071.69457,0.18092
7073.62304,0.01347
7075.55151,-0.13260
7077.47998,-0.12475
7079.40845,-0.02617
7081.33692,0.06730
7083.26539,0.11670
7085.19385,0.11119
7087.12232,0.07075
7089.05079,0.13236
7090.97926,0.32901
7092.90773,0.41554
7094.83620,0.25719
7096.76467,0.01269
7098.69313,-0.16712
7100.62160,-0.22988
7102.55007,-0.22626
7104.47854,-0.16037
7106.40701,-0.02753
7108.33548,0.02338
7110.26395,0.00745
7112.19242,0.09504
7114.12088,0.18553
7116.04935,0.10751
7117.97782,0.01217
7119.90629,0.00471
7121.83476,-0.03592
7123.76323,-0.02761
7125.69170,0.01422
7127.62016,0.02483
7129.54863,0.03204
7131.47710,0.02793
7133.40557,0.05542
7135.33404,0.09640
7137.26251,0.10472
7139.19098,0.11886
7141.11944,0.09128
7143.04791,0.05030
7144.97638,0.12825
7146.90485,0.18859
7148.83332,0.10826
7150.76179,0.02358
7152.69026,-0.00006
7154.61873,0.01119
7156.54719,0.02225
7158.47566,0.04931
7160.40413,0.09569
7162.33260,0.09767
7164.26107,0.05744
7166.18954,0.03658
7168.11801,0.06408
7170.04647,0.08963
7171.97494,-0.03128
7173.90341,-0.19088
7175.83188,-0.12942
7177.76035,0.11992
7179.68882,0.33661
7181.61729,0.35338
7183.54576,0.10466
7185.47422,-0.13167
7187.40269,-0.23141
7189.33116,-0.22004
7191.25963,-0.05942
7193.18810,0.08687
7195.11657,0.13495
7197.04504,0.17172
7198.97350,0.17055
7200.90197,0.12944
7202.83044,0.11772
7204.75891,0.15035
7206.68738,0.13198
7208.61585,0.05550
7210.54432,0.04832
7212.47279,0.10854
7214.40125,0.07392
7216.32972,-0.00145
7218.25819,0.08586
7220.18666,0.15417
7222.11513,0.11919
7224.04360,0.05524
7225.97207,0.00371
7227.90053,0.00762
7229.82900,-0.02670
7231.75747,-0.03397
7233.68594,0.09464
7235.61441,0.14995
7237.54288,0.09054
7239.47135,0.13604
7241.39982,0.25869
7243.32828,0.11443
7245.25675,-0.16072
7247.18522,-0.20521
7249.11369,-0.14436
7251.04216,-0.18435
7252.97063,-0.25254
7254.89910,-0.17066
7256.82756,-0.03638
7258.75603,0.09277
7260.68450,0.09091
7262.61297,-0.13313
7264.54144,-0.23917
7266.46991,-0.08633
7268.39838,0.08662
7270.32685,0.16576
7272.25531,0.13819
7274.18378,0.04988
7276.11225,-0.02214
7278.04072,-0.07127
7279.96919,-0.03691
7281.89766,0.09633
7283.82613,0.15433
7285.75459,0.15470
7287.68306,0.18858
7289.61153,0.18255
7291.54000,0.11639
7293.46847,0.06279
7295.39694,0.00290
7297.32541,-0.00484
7299.25387,0.02447
7301.18234,0.01012
7303.11081,0.02113
7305.03928,0.04347
7306.96775,-0.00169
7308.89622,0.09094
7310.82469,0.28026
7312.75316,0.23855
7314.68162,0.12880
7316.61009,0.21454
7318.53856,0.31683
7320.46703,0.29605
7322.39550,0.28985
7324.32397,0.22172
7326.25244,0.13907
7328.18090,0.18017
7330.10937,0.13873
7332.03784,0.02236
7333.96631,0.05411
7335.89478,0.11236
7337.82325,0.06778
7339.75172,-0.10554
7341.68019,-0.22637
7343.60865,-0.17465
7345.53712,-0.07537
7347.46559,-0.09658
7349.39406,-0.27298
7351.32253,-0.38464
7353.25100,-0.31273
7355.17947,-0.15588
7357.10793,0.02185
7359.03640,0.16674
7360.96487,0.17473
7362.89334,0.11491
7364.82181,0.04944
7366.75028,-0.00557
7368.67875,0.06501
7370.60722,0.15373
7372.53568,0.13955
7374.46415,0.00719
7376.39262,-0.30661
7378.32109,-0.44218
7380.24956,-0.26027
7382.17803,-0.03651
7384.10650,0.09991
7386.03496,0.23831
7387.96343,0.31940
7389.89190,0.34383
7391.82037,0.37082
7393.74884,0.39441
7395.67731,0.35679
7397.60578,0.24223
7399.53425,0.15883
7401.46271,0.14129
7403.39118,0.15861
7405.31965,0.19252
7407.24812,0.21722
7409.17659,0.23071
7411.10506,0.18913
7413.03353,0.09723
7414.96199,0.05459
7416.89046,0.05546
7418.81893,0.04103
7420.74740,0.07200
7422.67587,0.10857
7424.60434,0.15373
7426.53281,0.26387
7428.46128,0.34659
7430.38974,0.27549
7432.31821,0.21347
7434.24668,0.26405
7436.17515,0.26483
7438.10362,0.21955
7440.03209,0.23154
7441.96056,0.23955
7443.88902,0.20440
7445.81749,0.18200
7447.74596,0.07200
7449.67443,-0.17398
7451.60290,-0.19421
7453.53137,-0.00166
7455.45984,-0.00639
7457.38831,-0.08886
7459.31677,-0.03902
7461.24524,0.11233
7463.17371,0.21017
7465.10218,0.16702
7467.03065,-0.02421
7468.95912,-0.20428
7470.88759,-0.13916
7472.81605,0.16733
7474.74452,0.31459
7476.67299,0.21014
7478.60146,0.06914
7480.52993,0.02290
7482.45840,0.10505
7484.38687,0.21414
7486.31533,0.15750
7488.24380,-0.03968
7490.17227,-0.08616
7492.10074,0.05522
7494.02921,0.19710
7495.95768,0.35852
7497.88615,0.51010
