399.19301,0.93256
401.12148,0.00891
403.04995,-0.39009
404.97842,-0.18260
406.90689,0.17855
408.83536,0.28226
410.76382,0.11720
412.69229,0.07414
414.62076,0.17186
416.54923,0.15352
418.47770,0.02083
420.40617,0.10031
422.33464,0.31033
424.26311,0.31877
426.19157,0.12994
428.12004,-0.00617
430.04851,-0.08034
431.97698,-0.13596
433.90545,-0.07992
435.83392,0.02535
437.76239,0.08871
439.69085,0.12757
441.61932,0.16269
443.54779,0.17702
445.47626,0.12992
447.40473,0.01567
449.33320,-0.06410
451.26167,-0.03444
453.19013,0.01804
455.11860,-0.00773
457.04707,-0.08194
458.97554,-0.07249
460.90401,0.04752
462.83248,0.16668
464.76095,0.19642
466.68942,0.16234
468.61788,0.13301
470.54635,0.13013
472.47482,0.14306
474.40329,0.15171
476.33176,0.13350
478.26023,0.07726
480.18870,0.03617
482.11716,0.07865
484.04563,0.17014
485.97410,0.20703
487.90257,0.15952
489.83104,0.08824
491.75951,0.09664
493.68798,0.17429
495.61645,0.20832
497.54491,0.16590
499.47338,0.12505
501.40185,0.12322
503.33032,0.11776
505.25879,0.11261
507.18726,0.12641
509.11573,0.13395
511.04419,0.13752
512.97266,0.13618
514.90113,0.11712
516.82960,0.09789
518.75807,0.09362
520.68654,0.09422
522.61501,0.08928
524.54348,0.06613
526.47194,0.05742
528.40041,0.10389
530.32888,0.16658
532.25735,0.18236
534.18582,0.14808
536.11429,0.13476
538.04276,0.15168
539.97122,0.13962
541.89969,0.11027
543.82816,0.09782
545.75663,0.08210
547.68510,0.04930
549.61357,0.02069
551.54204,-0.00186
553.47051,-0.00212
555.39897,0.04621
557.32744,0.10494
559.25591,0.12241
561.18438,0.09430
563.11285,0.06788
565.04132,0.09704
566.96979,0.15408
568.89825,0.17641
570.82672,0.15078
572.75519,0.10112
574.68366,0.07041
576.61213,0.08014
578.54060,0.11193
580.46907,0.14498
582.39754,0.15339
584.32600,0.12654
586.25447,0.10615
588.18294,0.12398
590.11141,0.14055
592.03988,0.12357
593.96835,0.10831
595.89682,0.11625
597.82528,0.11490
599.75375,0.09261
601.68222,0.08193
603.61069,0.09339
605.53916,0.11069
607.46763,0.13642
609.39610,0.15391
611.32456,0.14816
613.25303,0.13785
615.18150,0.12193
617.10997,0.11220
619.03844,0.13165
620.96691,0.14555
622.89538,0.14203
624.82385,0.15417
626.75231,0.16374
628.68078,0.14303
630.60925,0.12344
632.53772,0.11960
634.46619,0.11356
636.39466,0.11289
638.32313,0.12876
640.25159,0.15336
642.18006,0.17365
644.10853,0.18064
646.03700,0.17050
647.96547,0.14587
649.89394,0.12422
651.82241,0.11319
653.75088,0.10115
655.67934,0.10589
657.60781,0.13646
659.53628,0.15276
661.46475,0.13983
663.39322,0.13225
665.32169,0.14534
667.25016,0.17172
669.17862,0.19074
671.10709,0.17291
673.03556,0.14502
674.96403,0.12791
676.89250,0.12514
678.82097,0.12829
680.74944,0.12584
682.67791,0.12362
684.60637,0.13065
686.53484,0.14057
688.46331,0.14185
690.39178,0.13084
692.32025,0.12392
694.24872,0.13465
696.17719,0.15018
698.10565,0.16103
700.03412,0.16600
701.96259,0.16026
703.89106,0.14760
705.81953,0.13653
707.74800,0.13964
709.67647,0.13301
711.60494,0.10737
713.53340,0.11960
715.46187,0.14854
717.39034,0.14123
719.31881,0.12838
721.24728,0.13424
723.17575,0.14200
725.10422,0.13501
727.03268,0.11987
728.96115,0.11322
730.88962,0.11640
732.81809,0.11930
734.74656,0.11537
736.67503,0.11281
738.60350,0.11764
740.53197,0.12346
742.46043,0.13082
744.38890,0.14151
746.31737,0.14935
748.24584,0.15260
750.17431,0.14903
752.10278,0.14645
754.03125,0.15243
755.95971,0.15320
757.88818,0.14789
759.81665,0.14512
761.74512,0.13967
763.67359,0.13738
765.60206,0.14758
767.53053,0.15259
769.45900,0.13959
771.38746,0.12389
773.31593,0.12342
775.24440,0.13560
777.17287,0.14102
779.10134,0.13857
781.02981,0.13639
782.95828,0.13280
784.88674,0.13183
786.81521,0.13355
788.74368,0.13368
790.67215,0.13408
792.60062,0.13850
794.52909,0.14555
796.45756,0.14893
798.38602,0.15022
800.31449,0.15068
802.24296,0.14537
804.17143,0.14151
806.09990,0.14203
808.02837,0.13784
809.95684,0.14073
811.88531,0.16161
813.81377,0.17850
815.74224,0.17463
817.67071,0.16180
819.59918,0.15681
821.52765,0.16452
823.45612,0.16722
825.38459,0.15208
827.31305,0.13107
829.24152,0.11967
831.16999,0.12434
833.09846,0.12940
835.02693,0.12391
836.95540,0.12344
838.88387,0.13446
840.81234,0.14307
842.74080,0.13651
844.66927,0.12748
846.59774,0.13044
848.52621,0.13549
850.45468,0.13476
852.38315,0.12930
854.31162,0.12313
856.24008,0.12651
858.16855,0.13926
860.09702,0.14734
862.02549,0.14201
863.95396,0.12786
865.88243,0.11988
867.81090,0.11935
869.73937,0.12244
871.66783,0.13425
873.59630,0.14031
875.52477,0.13419
877.45324,0.13437
879.38171,0.14063
881.31018,0.14083
883.23865,0.13731
885.16711,0.13521
887.09558,0.13829
889.02405,0.14978
890.95252,0.15932
892.88099,0.15526
894.80946,0.14511
896.73793,0.14217
898.66640,0.14332
900.59486,0.14481
902.52333,0.14888
904.45180,0.14742
906.38027,0.14063
908.30874,0.14039
910.23721,0.14541
912.16568,0.14695
914.09414,0.14634
916.02261,0.14484
917.95108,0.14039
919.87955,0.13989
921.80802,0.14488
923.73649,0.15104
925.66496,0.15770
927.59343,0.15731
929.52189,0.14866
931.45036,0.14313
933.37883,0.14348
935.30730,0.14997
937.23577,0.16050
939.16424,0.16032
941.09271,0.14968
943.02117,0.14338
944.94964,0.14652
946.87811,0.15589
948.80658,0.16255
950.73505,0.16337
952.66352,0.16119
954.59199,0.15745
956.52045,0.15388
958.44892,0.15296
960.37739,0.15645
962.30586,0.15553
964.23433,0.14245
966.16280,0.12955
968.09127,0.13137
970.01974,0.14468
971.94820,0.15533
973.87667,0.15392
975.80514,0.14847
977.73361,0.14717
979.66208,0.14326
981.59055,0.13721
983.51902,0.13443
985.44748,0.13360
987.37595,0.13312
989.30442,0.13273
991.23289,0.13886
993.16136,0.15132
995.08983,0.15800
997.01830,0.15828
998.94677,0.16246
1000.87523,0.16904
1002.80370,0.16691
1004.73217,0.16037
1006.66064,0.15796
1008.58911,0.15295
1010.51758,0.15030
1012.44605,0.15724
1014.37451,0.15850
1016.30298,0.14904
1018.23145,0.14149
1020.15992,0.14381
1022.08839,0.15183
1024.01686,0.15646
1025.94533,0.15838
1027.87380,0.15883
1029.80226,0.15576
1031.73073,0.15111
1033.65920,0.14713
1035.58767,0.15018
1037.51614,0.16028
1039.44461,0.16314
1041.37308,0.15485
1043.30154,0.14614
1045.23001,0.14623
1047.15848,0.15579
1049.08695,0.16486
1051.01542,0.16693
1052.94389,0.16761
1054.87236,0.16998
1056.80083,0.16968
1058.72929,0.16540
1060.65776,0.16216
1062.58623,0.16446
1064.51470,0.16652
1066.44317,0.15980
1068.37164,0.14915
1070.30011,0.14345
1072.22857,0.14019
1074.15704,0.13712
1076.08551,0.14343
1078.01398,0.15559
1079.94245,0.15800
1081.87092,0.15345
1083.79939,0.15231
1085.72786,0.15539
1087.65632,0.15835
1089.58479,0.15395
1091.51326,0.14703
1093.44173,0.15144
1095.37020,0.15946
1097.29867,0.15940
1099.22714,0.15856
1101.15560,0.16018
1103.08407,0.16049
1105.01254,0.16226
1106.94101,0.16653
1108.86948,0.16958
1110.79795,0.16830
1112.72642,0.15956
1114.65489,0.15225
1116.58335,0.15640
1118.51182,0.16323
1120.44029,0.16252
1122.36876,0.15457
1124.29723,0.14926
1126.22570,0.15381
1128.15417,0.15946
1130.08263,0.15750
1132.01110,0.15480
1133.93957,0.15825
1135.86804,0.16288
1137.79651,0.16186
1139.72498,0.15887
1141.65345,0.16383
1143.58191,0.17071
1145.51038,0.16983
1147.43885,0.16850
1149.36732,0.17032
1151.29579,0.17098
1153.22426,0.16957
1155.15273,0.16494
1157.08120,0.15930
1159.00966,0.15996
1160.93813,0.16725
1162.86660,0.17341
1164.79507,0.17373
1166.72354,0.17069
1168.65201,0.16609
1170.58048,0.15978
1172.50894,0.15890
1174.43741,0.16624
1176.36588,0.17098
1178.29435,0.16723
1180.22282,0.16149
1182.15129,0.15920
1184.07976,0.16062
1186.00823,0.16477
1187.93669,0.16562
1189.86516,0.16149
1191.79363,0.15997
1193.72210,0.16223
1195.65057,0.16579
1197.57904,0.17062
1199.50751,0.17250
1201.43597,0.17039
1203.36444,0.17004
1205.29291,0.17156
1207.22138,0.17209
1209.14985,0.17253
1211.07832,0.17170
1213.00679,0.17064
1214.93526,0.17462
1216.86372,0.18001
1218.79219,0.17939
1220.72066,0.17653
1222.64913,0.17845
1224.57760,0.18035
1226.50607,0.17476
1228.43454,0.16841
1230.36300,0.16805
1232.29147,0.16820
1234.21994,0.16491
1236.14841,0.16225
1238.07688,0.16619
1240.00535,0.17422
1241.93382,0.17802
1243.86229,0.17619
1245.79075,0.17024
1247.71922,0.16262
1249.64769,0.15960
1251.57616,0.16048
1253.50463,0.16051
1255.43310,0.16200
1257.36157,0.16540
1259.29003,0.16744
1261.21850,0.16737
1263.14697,0.16414
1265.07544,0.15985
1267.00391,0.15834
1268.93238,0.16057
1270.86085,0.16600
1272.78932,0.17044
1274.71778,0.17209
1276.64625,0.17261
1278.57472,0.17092
1280.50319,0.16714
1282.43166,0.16473
1284.36013,0.16518
1286.28860,0.16664
1288.21706,0.16830
1290.14553,0.16915
1292.07400,0.16947
1294.00247,0.17244
1295.93094,0.17532
1297.85941,0.17464
1299.78788,0.17105
1301.71634,0.16203
1303.64481,0.15045
1305.57328,0.14887
1307.50175,0.15890
1309.43022,0.16605
1311.35869,0.16513
1313.28716,0.16570
1315.21563,0.17192
1317.14409,0.17910
1319.07256,0.18287
1321.00103,0.18180
1322.92950,0.17824
1324.85797,0.17628
1326.78644,0.17744
1328.71491,0.17772
1330.64337,0.17360
1332.57184,0.17064
1334.50031,0.17230
1336.42878,0.17346
1338.35725,0.17247
1340.28572,0.16880
1342.21419,0.16483
1344.14266,0.16590
1346.07112,0.16839
1347.99959,0.16884
1349.92806,0.16907
1351.85653,0.16841
1353.78500,0.16838
1355.71347,0.17043
1357.64194,0.17154
1359.57040,0.17372
1361.49887,0.17849
1363.42734,0.17929
1365.35581,0.17669
1367.28428,0.17613
1369.21275,0.17721
1371.14122,0.18044
1373.06969,0.18624
1374.99815,0.18939
1376.92662,0.18599
1378.85509,0.18002
1380.78356,0.17565
1382.71203,0.17451
1384.64050,0.17832
1386.56897,0.18495
1388.49743,0.18559
1390.42590,0.18271
1392.35437,0.18401
1394.28284,0.18782
1396.21131,0.19233
1398.13978,0.19478
1400.06825,0.18857
1401.99672,0.18134
1403.92518,0.18022
1405.85365,0.17806
1407.78212,0.17327
1409.71059,0.17257
1411.63906,0.17667
1413.56753,0.18236
1415.49600,0.19020
1417.42446,0.19757
1419.35293,0.19192
1421.28140,0.18274
1423.20987,0.18339
1425.13834,0.18622
1427.06681,0.18759
1428.99528,0.18845
1430.92375,0.18657
1432.85221,0.18424
1434.78068,0.18588
1436.70915,0.18747
1438.63762,0.18301
1440.56609,0.17950
1442.49456,0.18060
1444.42303,0.18302
1446.35149,0.18517
1448.27996,0.18882
1450.20843,0.19316
1452.13690,0.19811
1454.06537,0.20677
1455.99384,0.22039
1457.92231,0.21843
1459.85077,0.19878
1461.77924,0.19162
1463.70771,0.19582
1465.63618,0.19791
1467.56465,0.19383
1469.49312,0.19374
1471.42159,0.20249
1473.35006,0.21268
1475.27852,0.20987
1477.20699,0.19949
1479.13546,0.18982
1481.06393,0.18416
1482.99240,0.18406
1484.92087,0.19073
1486.84934,0.20200
1488.77780,0.20903
1490.70627,0.20390
1492.63474,0.19574
1494.56321,0.19393
1496.49168,0.19917
1498.42015,0.20098
1500.34862,0.19449
1502.27709,0.19123
1504.20555,0.20155
1506.13402,0.22996
1508.06249,0.23443
1509.99096,0.21311
1511.91943,0.20453
1513.84790,0.20841
1515.77637,0.22228
1517.70483,0.23589
1519.63330,0.23883
1521.56177,0.23397
1523.49024,0.22540
1525.41871,0.22051
1527.34718,0.21419
1529.27565,0.20647
1531.20412,0.20894
1533.13258,0.21906
1535.06105,0.22211
1536.98952,0.22707
1538.91799,0.24404
1540.84646,0.25165
1542.77493,0.23673
1544.70340,0.21734
1546.63186,0.20163
1548.56033,0.19901
1550.48880,0.20286
1552.41727,0.20619
1554.34574,0.21205
1556.27421,0.21956
1558.20268,0.22911
1560.13115,0.21919
1562.05961,0.19964
1563.98808,0.19062
1565.91655,0.19130
1567.84502,0.19957
1569.77349,0.20414
1571.70196,0.19721
1573.63043,0.19377
1575.55889,0.19749
1577.48736,0.19394
1579.41583,0.18370
1581.34430,0.17876
1583.27277,0.17799
1585.20124,0.17680
1587.12971,0.17717
1589.05818,0.17935
1590.98664,0.17906
1592.91511,0.17805
1594.84358,0.17874
1596.77205,0.17865
1598.70052,0.17960
1600.62899,0.18175
1602.55746,0.18069
1604.48592,0.17894
1606.41439,0.18164
1608.34286,0.18831
1610.27133,0.19265
1612.19980,0.19078
1614.12827,0.18914
1616.05674,0.19208
1617.98521,0.19188
1619.91367,0.19130
1621.84214,0.19705
1623.77061,0.20324
1625.69908,0.20573
1627.62755,0.20417
1629.55602,0.19757
1631.48449,0.19456
1633.41295,0.19916
1635.34142,0.21035
1637.26989,0.21578
1639.19836,0.20859
1641.12683,0.20157
1643.05530,0.20291
1644.98377,0.21360
1646.91223,0.22394
1648.84070,0.22357
1650.76917,0.22807
1652.69764,0.23720
1654.62611,0.22158
1656.55458,0.20469
1658.48305,0.19926
1660.41152,0.20136
1662.33998,0.20461
1664.26845,0.20326
1666.19692,0.20652
1668.12539,0.21854
1670.05386,0.22536
1671.98233,0.21800
1673.91080,0.21124
1675.83926,0.20690
1677.76773,0.20436
1679.69620,0.20886
1681.62467,0.22166
1683.55314,0.23380
1685.48161,0.22509
1687.41008,0.21453
1689.33855,0.21132
1691.26701,0.20735
1693.19548,0.20718
1695.12395,0.21911
1697.05242,0.23786
1698.98089,0.25067
1700.90936,0.24535
1702.83783,0.22635
1704.76629,0.21228
1706.69476,0.20209
1708.62323,0.19370
1710.55170,0.19006
1712.48017,0.19332
1714.40864,0.20361
1716.33711,0.21509
1718.26558,0.21104
1720.19404,0.19887
1722.12251,0.19264
1724.05098,0.18959
1725.97945,0.18847
1727.90792,0.19201
1729.83639,0.19934
1731.76486,0.20681
1733.69332,0.20788
1735.62179,0.19963
1737.55026,0.19746
1739.47873,0.20207
1741.40720,0.20530
1743.33567,0.20702
1745.26414,0.21034
1747.19261,0.21485
1749.12107,0.21705
1751.04954,0.20964
1752.97801,0.20012
1754.90648,0.19849
1756.83495,0.19969
1758.76342,0.19900
1760.69189,0.20053
1762.62035,0.20023
1764.54882,0.19461
1766.47729,0.19174
1768.40576,0.19604
1770.33423,0.20788
1772.26270,0.21865
1774.19117,0.21337
1776.11964,0.20312
1778.04810,0.20148
1779.97657,0.20431
1781.90504,0.20169
1783.83351,0.19586
1785.76198,0.19088
1787.69045,0.18989
1789.61892,0.19703
1791.54738,0.20671
1793.47585,0.20588
1795.40432,0.19956
1797.33279,0.19572
1799.26126,0.19269
1801.18973,0.19035
1803.11820,0.18914
1805.04666,0.18968
1806.97513,0.19203
1808.90360,0.19316
1810.83207,0.19008
1812.76054,0.18599
1814.68901,0.18771
1816.61748,0.19245
1818.54595,0.19376
1820.47441,0.19355
1822.40288,0.19636
1824.33135,0.20085
1826.25982,0.20187
1828.18829,0.20073
1830.11676,0.19781
1832.04523,0.19139
1833.97369,0.18774
1835.90216,0.18871
1837.83063,0.19050
1839.75910,0.19352
1841.68757,0.20104
1843.61604,0.20889
1845.54451,0.20697
1847.47298,0.19947
1849.40144,0.19407
1851.32991,0.19034
1853.25838,0.18767
1855.18685,0.18622
1857.11532,0.18520
1859.04379,0.18594
1860.97226,0.18949
1862.90072,0.19338
1864.82919,0.19673
1866.75766,0.20010
1868.68613,0.20024
1870.61460,0.19458
1872.54307,0.18841
1874.47154,0.18647
1876.40001,0.18900
1878.32847,0.19212
1880.25694,0.19213
1882.18541,0.19085
1884.11388,0.19172
1886.04235,0.19416
1887.97082,0.19627
1889.89929,0.19559
1891.82775,0.19283
1893.75622,0.19101
1895.68469,0.18812
1897.61316,0.18450
1899.54163,0.18416
1901.47010,0.18699
1903.39857,0.19017
1905.32704,0.19166
1907.25550,0.19170
1909.18397,0.19121
1911.11244,0.19065
1913.04091,0.19095
1914.96938,0.19268
1916.89785,0.19543
1918.82632,0.19646
1920.75478,0.19541
1922.68325,0.19370
1924.61172,0.18939
1926.54019,0.18589
1928.46866,0.18725
1930.39713,0.19016
1932.32560,0.19116
1934.25407,0.18894
1936.18253,0.18477
1938.11100,0.18347
1940.03947,0.18731
1941.96794,0.19337
1943.89641,0.19402
1945.82488,0.18794
1947.75335,0.18457
1949.68181,0.18687
1951.61028,0.18921
1953.53875,0.19018
1955.46722,0.19087
1957.39569,0.19057
1959.32416,0.19136
1961.25263,0.19420
1963.18110,0.19577
1965.10956,0.19525
1967.03803,0.19252
1968.96650,0.18805
1970.89497,0.18589
1972.82344,0.18682
1974.75191,0.18932
1976.68038,0.19073
1978.60884,0.18900
1980.53731,0.18732
1982.46578,0.18739
1984.39425,0.18745
1986.32272,0.18722
1988.25119,0.18875
1990.17966,0.19224
1992.10812,0.19394
1994.03659,0.19213
1995.96506,0.18953
1997.89353,0.18907
1999.82200,0.18971
2001.75047,0.18857
2003.67894,0.18680
2005.60741,0.18643
2007.53587,0.18831
2009.46434,0.19157
2011.39281,0.19219
2013.32128,0.19051
2015.24975,0.19130
2017.17822,0.19339
2019.10669,0.19272
2021.03515,0.19151
2022.96362,0.19294
2024.89209,0.19502
2026.82056,0.19499
2028.74903,0.19413
2030.67750,0.19361
2032.60597,0.19191
2034.53444,0.19004
2036.46290,0.19016
2038.39137,0.19093
2040.31984,0.19057
2042.24831,0.19016
2044.17678,0.19154
2046.10525,0.19340
2048.03372,0.19408
2049.96218,0.19382
2051.89065,0.19227
2053.81912,0.19020
2055.74759,0.18832
2057.67606,0.18732
2059.60453,0.18857
2061.53300,0.19052
2063.46147,0.19168
2065.38993,0.19145
2067.31840,0.18920
2069.24687,0.18769
2071.17534,0.18807
2073.10381,0.18837
2075.03228,0.18856
2076.96075,0.18931
2078.88921,0.19014
2080.81768,0.19024
2082.74615,0.18968
2084.67462,0.18879
2086.60309,0.18769
2088.53156,0.18818
2090.46003,0.19025
2092.38850,0.19100
2094.31696,0.19049
2096.24543,0.19053
2098.17390,0.19081
2100.10237,0.18994
2102.03084,0.18900
2103.95931,0.19059
2105.88778,0.19190
2107.81624,0.19014
2109.74471,0.18951
2111.67318,0.19031
2113.60165,0.18844
2115.53012,0.18569
2117.45859,0.18510
2119.38706,0.18567
2121.31553,0.18637
2123.24399,0.18742
2125.17246,0.18845
2127.10093,0.18871
2129.02940,0.18755
2130.95787,0.18708
2132.88634,0.19275
2134.81481,0.20225
2136.74327,0.20534
2138.67174,0.19991
2140.60021,0.19303
2142.52868,0.18937
2144.45715,0.18924
2146.38562,0.19163
2148.31409,0.19326
2150.24255,0.19220
2152.17102,0.19134
2154.09949,0.19209
2156.02796,0.19292
2157.95643,0.19362
2159.88490,0.19402
2161.81337,0.19279
2163.74184,0.18991
2165.67030,0.18797
2167.59877,0.18881
2169.52724,0.19061
2171.45571,0.19230
2173.38418,0.19506
2175.31265,0.19714
2177.24112,0.19584
2179.16958,0.19242
2181.09805,0.18916
2183.02652,0.18803
2184.95499,0.18961
2186.88346,0.19104
2188.81193,0.19099
2190.74040,0.19130
2192.66887,0.19250
2194.59733,0.19380
2196.52580,0.19498
2198.45427,0.19469
2200.38274,0.19272
2202.31121,0.19313
2204.23968,0.19686
2206.16815,0.19799
2208.09661,0.19368
2210.02508,0.18829
2211.95355,0.18543
2213.88202,0.18426
2215.81049,0.18364
2217.73896,0.18446
2219.66743,0.18699
2221.59590,0.18947
2223.52436,0.19128
2225.45283,0.19258
2227.38130,0.19201
2229.30977,0.19003
2231.23824,0.18921
2233.16671,0.18963
2235.09518,0.18997
2237.02364,0.19021
2238.95211,0.19108
2240.88058,0.19244
2242.80905,0.19221
2244.73752,0.19005
2246.66599,0.18848
2248.59446,0.18912
2250.52293,0.19104
2252.45139,0.19190
2254.37986,0.19103
2256.30833,0.19007
2258.23680,0.18976
2260.16527,0.18969
2262.09374,0.19063
2264.02221,0.19196
2265.95067,0.19228
2267.87914,0.19328
2269.80761,0.19587
2271.73608,0.19867
2273.66455,0.19852
2275.59302,0.19499
2277.52149,0.19355
2279.44996,0.19555
2281.37842,0.19682
2283.30689,0.19626
2285.23536,0.19544
2287.16383,0.19445
2289.09230,0.19265
2291.02077,0.18970
2292.94924,0.18687
2294.87770,0.18741
2296.80617,0.18992
2298.73464,0.18997
2300.66311,0.18958
2302.59158,0.19241
2304.52005,0.19591
2306.44852,0.19853
2308.37699,0.20182
2310.30545,0.20381
2312.23392,0.20423
2314.16239,0.20438
2316.09086,0.20420
2318.01933,0.20756
2319.94780,0.21281
2321.87627,0.21074
2323.80473,0.20206
2325.73320,0.19517
2327.66167,0.19303
2329.59014,0.19886
2331.51861,0.21453
2333.44708,0.22413
2335.37555,0.22047
2337.30401,0.22477
2339.23248,0.23489
2341.16095,0.22381
2343.08942,0.20114
2345.01789,0.19253
2346.94636,0.19651
2348.87483,0.20161
2350.80330,0.20301
2352.73176,0.20244
2354.66023,0.20855
2356.58870,0.22372
2358.51717,0.23376
2360.44564,0.22685
2362.37411,0.22120
2364.30258,0.22536
2366.23104,0.21731
2368.15951,0.20021
2370.08798,0.19146
2372.01645,0.19108
2373.94492,0.19218
2375.87339,0.19173
2377.80186,0.19309
2379.73033,0.19714
2381.65879,0.19854
2383.58726,0.19624
2385.51573,0.19461
2387.44420,0.19369
2389.37267,0.19156
2391.30114,0.19121
2393.22961,0.19310
2395.15807,0.19261
2397.08654,0.18977
2399.01501,0.18819
2400.94348,0.18944
2402.87195,0.19218
2404.80042,0.19325
2406.72889,0.19311
2408.65736,0.19411
2410.58582,0.19622
2412.51429,0.19755
2414.44276,0.19538
2416.37123,0.19122
2418.29970,0.18944
2420.22817,0.19026
2422.15664,0.19058
2424.08510,0.18895
2426.01357,0.18779
2427.94204,0.18956
2429.87051,0.19277
2431.79898,0.19591
2433.72745,0.19844
2435.65592,0.19757
2437.58439,0.19380
2439.51285,0.19128
2441.44132,0.19033
2443.36979,0.18961
2445.29826,0.18923
2447.22673,0.18794
2449.15520,0.18657
2451.08367,0.18790
2453.01213,0.18926
2454.94060,0.18860
2456.86907,0.18892
2458.79754,0.19061
2460.72601,0.19117
2462.65448,0.18949
2464.58295,0.18746
2466.51142,0.18824
2468.43988,0.19105
2470.36835,0.19290
2472.29682,0.19366
2474.22529,0.19384
2476.15376,0.19353
2478.08223,0.19421
2480.01070,0.19561
2481.93916,0.19568
2483.86763,0.19518
2485.79610,0.19580
2487.72457,0.19632
2489.65304,0.19521
2491.58151,0.19350
2493.50998,0.19350
2495.43844,0.19544
2497.36691,0.19755
2499.29538,0.19836
2501.22385,0.19703
2503.15232,0.19409
2505.08079,0.19170
2507.00926,0.19177
2508.93773,0.19390
2510.86619,0.19494
2512.79466,0.19194
2514.72313,0.18772
2516.65160,0.18645
2518.58007,0.18715
2520.50854,0.18831
2522.43701,0.18889
2524.36547,0.18867
2526.29394,0.18901
2528.22241,0.19033
2530.15088,0.19162
2532.07935,0.19081
2534.00782,0.18884
2535.93629,0.18965
2537.86476,0.19309
2539.79322,0.19483
2541.72169,0.19308
2543.65016,0.18938
2545.57863,0.18725
2547.50710,0.18947
2549.43557,0.19276
2551.36404,0.19371
2553.29250,0.19335
2555.22097,0.19226
2557.14944,0.19097
2559.07791,0.19153
2561.00638,0.19374
2562.93485,0.19501
2564.86332,0.19531
2566.79179,0.19476
2568.72025,0.19191
2570.64872,0.18949
2572.57719,0.19103
2574.50566,0.19303
2576.43413,0.19115
2578.36260,0.18853
2580.29107,0.18975
2582.21953,0.19292
2584.14800,0.19353
2586.07647,0.19069
2588.00494,0.18790
2589.93341,0.18872
2591.86188,0.19251
2593.79035,0.19684
2595.71882,0.19859
2597.64728,0.19583
2599.57575,0.19211
2601.50422,0.19110
2603.43269,0.19170
2605.36116,0.19270
2607.28963,0.19416
2609.21810,0.19472
2611.14656,0.19532
2613.07503,0.19737
2615.00350,0.19804
2616.93197,0.19788
2618.86044,0.19842
2620.78891,0.19638
2622.71738,0.19243
2624.64585,0.19162
2626.57431,0.19361
2628.50278,0.19599
2630.43125,0.19886
2632.35972,0.19912
2634.28819,0.19573
2636.21666,0.19300
2638.14513,0.19286
2640.07359,0.19366
2642.00206,0.19200
2643.93053,0.18872
2645.85900,0.18868
2647.78747,0.19000
2649.71594,0.19006
2651.64441,0.19105
2653.57288,0.19225
2655.50134,0.19369
2657.42981,0.19738
2659.35828,0.20043
2661.28675,0.19856
2663.21522,0.19375
2665.14369,0.19170
2667.07216,0.19319
2669.00062,0.19547
2670.92909,0.19706
2672.85756,0.19881
2674.78603,0.20094
2676.71450,0.20095
2678.64297,0.19858
2680.57144,0.19655
2682.49990,0.19603
2684.42837,0.19628
2686.35684,0.19770
2688.28531,0.19942
2690.21378,0.19934
2692.14225,0.19912
2694.07072,0.19988
2695.99919,0.20023
2697.92765,0.20025
2699.85612,0.20009
2701.78459,0.19940
2703.71306,0.19814
2705.64153,0.19609
2707.57000,0.19435
2709.49847,0.19373
2711.42693,0.19302
2713.35540,0.19239
2715.28387,0.19538
2717.21234,0.20365
2719.14081,0.21046
2721.06928,0.20930
2722.99775,0.20318
2724.92622,0.19833
2726.85468,0.19706
2728.78315,0.19750
2730.71162,0.19778
2732.64009,0.19921
2734.56856,0.20337
2736.49703,0.20656
2738.42550,0.20486
2740.35396,0.20135
2742.28243,0.19842
2744.21090,0.19505
2746.13937,0.19358
2748.06784,0.19697
2749.99631,0.20287
2751.92478,0.20574
2753.85325,0.20323
2755.78171,0.19940
2757.71018,0.19926
2759.63865,0.20210
2761.56712,0.20392
2763.49559,0.20272
2765.42406,0.20140
2767.35253,0.20510
2769.28099,0.20985
2771.20946,0.20820
2773.13793,0.20546
2775.06640,0.20616
2776.99487,0.20527
2778.92334,0.20287
2780.85181,0.20212
2782.78028,0.20279
2784.70874,0.20574
2786.63721,0.21055
2788.56568,0.21222
2790.49415,0.20919
2792.42262,0.20582
2794.35109,0.20481
2796.27956,0.20546
2798.20802,0.20521
2800.13649,0.20317
2802.06496,0.20410
2803.99343,0.20860
2805.92190,0.20963
2807.85037,0.20766
2809.77884,0.20828
2811.70731,0.20818
2813.63577,0.20466
2815.56424,0.20382
2817.49271,0.20628
2819.42118,0.20805
2821.34965,0.20973
2823.27812,0.21111
2825.20659,0.21171
2827.13505,0.21040
2829.06352,0.20690
2830.99199,0.20525
2832.92046,0.20658
2834.84893,0.20788
2836.77740,0.20720
2838.70587,0.20637
2840.63433,0.20694
2842.56280,0.20852
2844.49127,0.20913
2846.41974,0.20594
2848.34821,0.20176
2850.27668,0.20056
2852.20515,0.20166
2854.13362,0.20249
2856.06208,0.20164
2857.99055,0.20071
2859.91902,0.20125
2861.84749,0.20278
2863.77596,0.20386
2865.70443,0.20330
2867.63290,0.20117
2869.56136,0.19947
2871.48983,0.19960
2873.41830,0.20050
2875.34677,0.20291
2877.27524,0.20756
2879.20371,0.21121
2881.13218,0.21337
2883.06065,0.21631
2884.98911,0.21559
2886.91758,0.20773
2888.84605,0.20071
2890.77452,0.20077
2892.70299,0.20316
2894.63146,0.20392
2896.55993,0.20377
2898.48839,0.20253
2900.41686,0.20043
2902.34533,0.19912
2904.27380,0.20046
2906.20227,0.20394
2908.13074,0.20619
2910.05921,0.20538
2911.98768,0.20208
2913.91614,0.19848
2915.84461,0.19701
2917.77308,0.19672
2919.70155,0.19722
2921.63002,0.20061
2923.55849,0.20360
2925.48696,0.20088
2927.41542,0.19523
2929.34389,0.19387
2931.27236,0.19844
2933.20083,0.20388
2935.12930,0.20537
2937.05777,0.20448
2938.98624,0.20668
2940.91471,0.21051
2942.84317,0.21186
2944.77164,0.21075
2946.70011,0.20612
2948.62858,0.20222
2950.55705,0.20363
2952.48552,0.20519
2954.41399,0.20214
2956.34245,0.19566
2958.27092,0.19235
2960.19939,0.19564
2962.12786,0.20122
2964.05633,0.20732
2965.98480,0.21210
2967.91327,0.21151
2969.84174,0.20807
2971.77020,0.20604
2973.69867,0.20707
2975.62714,0.20944
2977.55561,0.20785
2979.48408,0.20619
2981.41255,0.21183
2983.34102,0.21858
2985.26948,0.21764
2987.19795,0.21233
2989.12642,0.21083
2991.05489,0.21384
2992.98336,0.21720
2994.91183,0.21898
2996.84030,0.21965
2998.76877,0.21949
3000.69723,0.21839
3002.62570,0.21673
3004.55417,0.21236
3006.48264,0.20656
3008.41111,0.20463
3010.33958,0.20237
3012.26805,0.19435
3014.19651,0.18304
3016.12498,0.17361
3018.05345,0.17575
3019.98192,0.19008
3021.91039,0.20256
3023.83886,0.20728
3025.76733,0.20866
3027.69579,0.21012
3029.62426,0.21202
3031.55273,0.21329
3033.48120,0.21380
3035.40967,0.21203
3037.33814,0.21014
3039.26661,0.21388
3041.19508,0.21837
3043.12354,0.21683
3045.05201,0.21447
3046.98048,0.21518
3048.90895,0.21508
3050.83742,0.21434
3052.76589,0.21738
3054.69436,0.21971
3056.62282,0.21325
3058.55129,0.20552
3060.47976,0.20866
3062.40823,0.21653
3064.33670,0.21484
3066.26517,0.20614
3068.19364,0.20341
3070.12211,0.20581
3072.05057,0.20689
3073.97904,0.20422
3075.90751,0.19866
3077.83598,0.19731
3079.76445,0.20169
3081.69292,0.20600
3083.62139,0.20427
3085.54985,0.20006
3087.47832,0.20187
3089.40679,0.20649
3091.33526,0.20963
3093.26373,0.20831
3095.19220,0.20238
3097.12067,0.20195
3099.04914,0.20935
3100.97760,0.21255
3102.90607,0.20545
3104.83454,0.20034
3106.76301,0.20531
3108.69148,0.21186
3110.61995,0.21169
3112.54842,0.20756
3114.47688,0.20888
3116.40535,0.21526
3118.33382,0.21865
3120.26229,0.21638
3122.19076,0.21071
3124.11923,0.20780
3126.04770,0.21076
3127.97617,0.21553
3129.90463,0.21814
3131.83310,0.21816
3133.76157,0.21604
3135.69004,0.21177
3137.61851,0.20986
3139.54698,0.21539
3141.47545,0.22272
3143.40391,0.22345
3145.33238,0.21946
3147.26085,0.21755
3149.18932,0.21623
3151.11779,0.21239
3153.04626,0.20956
3154.97473,0.20744
3156.90320,0.20824
3158.83166,0.21559
3160.76013,0.22280
3162.68860,0.22414
3164.61707,0.21976
3166.54554,0.21310
3168.47401,0.20987
3170.40248,0.21072
3172.33094,0.21227
3174.25941,0.21279
3176.18788,0.21121
3178.11635,0.20955
3180.04482,0.21139
3181.97329,0.21379
3183.90176,0.21234
3185.83022,0.20962
3187.75869,0.21001
3189.68716,0.21263
3191.61563,0.21465
3193.54410,0.21663
3195.47257,0.22019
3197.40104,0.22091
3199.32951,0.21787
3201.25797,0.21970
3203.18644,0.22535
3205.11491,0.22349
3207.04338,0.21341
3208.97185,0.20897
3210.90032,0.21568
3212.82879,0.22197
3214.75725,0.22153
3216.68572,0.21809
3218.61419,0.21574
3220.54266,0.21404
3222.47113,0.20997
3224.39960,0.20658
3226.32807,0.20932
3228.25654,0.21551
3230.18500,0.21751
3232.11347,0.21493
3234.04194,0.21354
3235.97041,0.21500
3237.89888,0.21932
3239.82735,0.22369
3241.75582,0.22084
3243.68428,0.21405
3245.61275,0.21103
3247.54122,0.21140
3249.46969,0.21484
3251.39816,0.21523
3253.32663,0.21037
3255.25510,0.21118
3257.18357,0.21516
3259.11203,0.21290
3261.04050,0.20875
3262.96897,0.20618
3264.89744,0.20407
3266.82591,0.20471
3268.75438,0.20685
3270.68285,0.20586
3272.61131,0.20438
3274.53978,0.20775
3276.46825,0.21203
3278.39672,0.21229
3280.32519,0.21002
3282.25366,0.20796
3284.18213,0.21057
3286.11060,0.21573
3288.03906,0.21631
3289.96753,0.21574
3291.89600,0.21636
3293.82447,0.21420
3295.75294,0.21260
3297.68141,0.21335
3299.60988,0.21341
3301.53834,0.21366
3303.46681,0.21172
3305.39528,0.20740
3307.32375,0.21003
3309.25222,0.21622
3311.18069,0.21466
3313.10916,0.21176
3315.03763,0.21211
3316.96609,0.21242
3318.89456,0.21637
3320.82303,0.22075
3322.75150,0.21978
3324.67997,0.21606
3326.60844,0.21100
3328.53691,0.20858
3330.46537,0.21127
3332.39384,0.21168
3334.32231,0.20860
3336.25078,0.20817
3338.17925,0.21096
3340.10772,0.21563
3342.03619,0.21838
3343.96466,0.21768
3345.89312,0.21910
3347.82159,0.22265
3349.75006,0.22376
3351.67853,0.22399
3353.60700,0.22588
3355.53547,0.22472
3357.46394,0.21875
3359.39240,0.21460
3361.32087,0.21578
3363.24934,0.22109
3365.17781,0.22628
3367.10628,0.22578
3369.03475,0.22244
3370.96322,0.22091
3372.89168,0.22019
3374.82015,0.22069
3376.74862,0.22089
3378.67709,0.21884
3380.60556,0.21494
3382.53403,0.21053
3384.46250,0.20887
3386.39097,0.20856
3388.31943,0.20905
3390.24790,0.21293
3392.17637,0.21779
3394.10484,0.21888
3396.03331,0.21603
3397.96178,0.21223
3399.89025,0.20766
3401.81871,0.20405
3403.74718,0.20360
3405.67565,0.20578
3407.60412,0.21215
3409.53259,0.21826
3411.46106,0.21497
3413.38953,0.20880
3415.31800,0.21070
3417.24646,0.21627
3419.17493,0.21918
3421.10340,0.21975
3423.03187,0.21702
3424.96034,0.20942
3426.88881,0.20219
3428.81728,0.20029
3430.74574,0.19966
3432.67421,0.19860
3434.60268,0.20167
3436.53115,0.20648
3438.45962,0.20709
3440.38809,0.20643
3442.31656,0.20682
3444.24503,0.20672
3446.17349,0.20512
3448.10196,0.19964
3450.03043,0.19514
3451.95890,0.19368
3453.88737,0.19320
3455.81584,0.19406
3457.74431,0.19256
3459.67277,0.19117
3461.60124,0.19656
3463.52971,0.20416
3465.45818,0.20467
3467.38665,0.19856
3469.31512,0.19329
3471.24359,0.18913
3473.17206,0.18426
3475.10052,0.18530
3477.02899,0.19059
3478.95746,0.18906
3480.88593,0.18319
3482.81440,0.18225
3484.74287,0.18452
3486.67134,0.18536
3488.59980,0.18610
3490.52827,0.18865
3492.45674,0.19148
3494.38521,0.19311
3496.31368,0.19163
3498.24215,0.18667
3500.17062,0.18541
3502.09909,0.19051
3504.02755,0.19234
3505.95602,0.18897
3507.88449,0.18681
3509.81296,0.18501
3511.74143,0.18248
3513.66990,0.18164
3515.59837,0.18182
3517.52683,0.18100
3519.45530,0.17998
3521.38377,0.18037
3523.31224,0.18180
3525.24071,0.18214
3527.16918,0.18001
3529.09765,0.17573
3531.02611,0.17028
3532.95458,0.16760
3534.88305,0.16914
3536.81152,0.17090
3538.73999,0.17174
3540.66846,0.17204
3542.59693,0.17351
3544.52540,0.17824
3546.45386,0.17889
3548.38233,0.17536
3550.31080,0.17807
3552.23927,0.18273
3554.16774,0.17954
3556.09621,0.17330
3558.02468,0.17254
3559.95314,0.17556
3561.88161,0.17684
3563.81008,0.17831
3565.73855,0.18333
3567.66702,0.18159
3569.59549,0.16812
3571.52396,0.15901
3573.45243,0.15787
3575.38089,0.15948
3577.30936,0.16225
3579.23783,0.16360
3581.16630,0.16100
3583.09477,0.15852
3585.02324,0.16359
3586.95171,0.17520
3588.88017,0.17422
3590.80864,0.16389
3592.73711,0.16199
3594.66558,0.16576
3596.59405,0.16503
3598.52252,0.16056
3600.45099,0.15819
3602.37946,0.15977
3604.30792,0.16187
3606.23639,0.16385
3608.16486,0.16742
3610.09333,0.17076
3612.02180,0.17108
3613.95027,0.16672
3615.87874,0.16447
3617.80720,0.16906
3619.73567,0.16661
3621.66414,0.15362
3623.59261,0.14863
3625.52108,0.15749
3627.44955,0.17295
3629.37802,0.17512
3631.30649,0.16456
3633.23495,0.15746
3635.16342,0.14884
3637.09189,0.14123
3639.02036,0.14246
3640.94883,0.14812
3642.87730,0.14852
3644.80577,0.14781
3646.73423,0.16145
3648.66270,0.19081
3650.59117,0.18924
3652.51964,0.16423
3654.44811,0.15196
3656.37658,0.14694
3658.30505,0.13908
3660.23352,0.13277
3662.16198,0.13089
3664.09045,0.13449
3666.01892,0.14332
3667.94739,0.15571
3669.87586,0.16508
3671.80433,0.15901
3673.73280,0.15000
3675.66126,0.14499
3677.58973,0.13890
3679.51820,0.13435
3681.44667,0.13232
3683.37514,0.13362
3685.30361,0.13798
3687.23208,0.14387
3689.16055,0.15282
3691.08901,0.15435
3693.01748,0.14433
3694.94595,0.13660
3696.87442,0.13326
3698.80289,0.13037
3700.73136,0.12969
3702.65983,0.12985
3704.58829,0.12635
3706.51676,0.12562
3708.44523,0.13527
3710.37370,0.15058
3712.30217,0.15187
3714.23064,0.13941
3716.15911,0.13115
3718.08757,0.13034
3720.01604,0.13246
3721.94451,0.13472
3723.87298,0.13575
3725.80145,0.13495
3727.72992,0.13520
3729.65839,0.13853
3731.58686,0.14750
3733.51532,0.16260
3735.44379,0.16974
3737.37226,0.15742
3739.30073,0.14656
3741.22920,0.14772
3743.15767,0.15282
3745.08614,0.15195
3747.01460,0.15192
3748.94307,0.16497
3750.87154,0.17794
3752.80001,0.16140
3754.72848,0.14179
3756.65695,0.13640
3758.58542,0.13785
3760.51389,0.13716
3762.44235,0.13842
3764.37082,0.14513
3766.29929,0.15003
3768.22776,0.14840
3770.15623,0.14011
3772.08470,0.13106
3774.01317,0.12961
3775.94163,0.13145
3777.87010,0.13343
3779.79857,0.13814
3781.72704,0.14052
3783.65551,0.13660
3785.58398,0.13167
3787.51245,0.12793
3789.44092,0.12224
3791.36938,0.11728
3793.29785,0.12038
3795.22632,0.13380
3797.15479,0.14583
3799.08326,0.14742
3801.01173,0.14583
3802.94020,0.13998
3804.86866,0.13488
3806.79713,0.13242
3808.72560,0.12234
3810.65407,0.11313
3812.58254,0.11655
3814.51101,0.12949
3816.43948,0.13889
3818.36795,0.14056
3820.29641,0.14102
3822.22488,0.13531
3824.15335,0.12957
3826.08182,0.12803
3828.01029,0.12902
3829.93876,0.13334
3831.86723,0.13423
3833.79569,0.13015
3835.72416,0.13228
3837.65263,0.13983
3839.58110,0.14052
3841.50957,0.13686
3843.43804,0.13181
3845.36651,0.12370
3847.29498,0.11913
3849.22344,0.12314
3851.15191,0.13557
3853.08038,0.15270
3855.00885,0.15643
3856.93732,0.14905
3858.86579,0.14152
3860.79426,0.13694
3862.72272,0.13552
3864.65119,0.13207
3866.57966,0.12843
3868.50813,0.13400
3870.43660,0.14359
3872.36507,0.13811
3874.29354,0.12312
3876.22200,0.11562
3878.15047,0.11958
3880.07894,0.12669
3882.00741,0.12939
3883.93588,0.13433
3885.86435,0.13820
3887.79282,0.12869
3889.72129,0.11848
3891.64975,0.12153
3893.57822,0.12773
3895.50669,0.12710
3897.43516,0.12844
3899.36363,0.13119
3901.29210,0.12804
3903.22057,0.12479
3905.14903,0.12018
3907.07750,0.11209
3909.00597,0.11017
3910.93444,0.11485
3912.86291,0.11717
3914.79138,0.11427
3916.71985,0.10942
3918.64832,0.10625
3920.57678,0.10951
3922.50525,0.11620
3924.43372,0.11905
3926.36219,0.11979
3928.29066,0.12148
3930.21913,0.11848
3932.14760,0.10986
3934.07606,0.10584
3936.00453,0.10888
3937.93300,0.11524
3939.86147,0.12188
3941.78994,0.12348
3943.71841,0.12086
3945.64688,0.11893
3947.57535,0.11349
3949.50381,0.10551
3951.43228,0.10531
3953.36075,0.11009
3955.28922,0.11178
3957.21769,0.11052
3959.14616,0.10906
3961.07463,0.10949
3963.00309,0.11091
3964.93156,0.11044
3966.86003,0.10779
3968.78850,0.10317
3970.71697,0.09745
3972.64544,0.09438
3974.57391,0.09456
3976.50238,0.09648
3978.43084,0.10226
3980.35931,0.11028
3982.28778,0.11419
3984.21625,0.11261
3986.14472,0.10924
3988.07319,0.10627
3990.00166,0.10529
3991.93012,0.10617
3993.85859,0.10567
3995.78706,0.10408
3997.71553,0.10419
3999.64400,0.10544
4001.57247,0.10513
4003.50094,0.10481
4005.42941,0.10766
4007.35787,0.10800
4009.28634,0.10120
4011.21481,0.09521
4013.14328,0.09697
4015.07175,0.10336
4017.00022,0.10665
4018.92869,0.10265
4020.85715,0.09754
4022.78562,0.09872
4024.71409,0.10486
4026.64256,0.10877
4028.57103,0.10482
4030.49950,0.09888
4032.42797,0.10121
4034.35644,0.10859
4036.28490,0.10951
4038.21337,0.10416
4040.14184,0.10002
4042.07031,0.09707
4043.99878,0.09379
4045.92725,0.09205
4047.85572,0.09230
4049.78418,0.09325
4051.71265,0.09628
4053.64112,0.10275
4055.56959,0.10634
4057.49806,0.10381
4059.42653,0.10004
4061.35500,0.09472
4063.28346,0.08911
4065.21193,0.08892
4067.14040,0.09156
4069.06887,0.09432
4070.99734,0.09790
4072.92581,0.09881
4074.85428,0.09575
4076.78275,0.09281
4078.71121,0.09451
4080.63968,0.09878
4082.56815,0.09783
4084.49662,0.09315
4086.42509,0.09356
4088.35356,0.09939
4090.28203,0.10287
4092.21049,0.09851
4094.13896,0.09096
4096.06743,0.08839
4097.99590,0.08939
4099.92437,0.08933
4101.85284,0.08930
4103.78131,0.08938
4105.70978,0.08809
4107.63824,0.08790
4109.56671,0.08811
4111.49518,0.08501
4113.42365,0.08187
4115.35212,0.08373
4117.28059,0.08882
4119.20906,0.09223
4121.13752,0.09363
4123.06599,0.09434
4124.99446,0.09303
4126.92293,0.08901
4128.85140,0.08477
4130.77987,0.08541
4132.70834,0.08970
4134.63681,0.09232
4136.56527,0.09199
4138.49374,0.08973
4140.42221,0.09069
4142.35068,0.09417
4144.27915,0.09234
4146.20762,0.08583
4148.13609,0.08153
4150.06455,0.08473
4151.99302,0.09081
4153.92149,0.08934
4155.84996,0.08318
4157.77843,0.08146
4159.70690,0.08364
4161.63537,0.08588
4163.56384,0.08963
4165.49230,0.09391
4167.42077,0.09089
4169.34924,0.07888
4171.27771,0.07001
4173.20618,0.07532
4175.13465,0.08564
4177.06312,0.08607
4178.99158,0.08189
4180.92005,0.08097
4182.84852,0.07830
4184.77699,0.07524
4186.70546,0.07946
4188.63393,0.08709
4190.56240,0.08826
4192.49087,0.08272
4194.41933,0.07709
4196.34780,0.07748
4198.27627,0.08289
4200.20474,0.08633
4202.13321,0.08605
4204.06168,0.08374
4205.99015,0.08120
4207.91861,0.08031
4209.84708,0.07972
4211.77555,0.07744
4213.70402,0.07305
4215.63249,0.06691
4217.56096,0.06229
4219.48943,0.06488
4221.41789,0.07386
4223.34636,0.07921
4225.27483,0.07833
4227.20330,0.08154
4229.13177,0.08707
4231.06024,0.08383
4232.98871,0.07533
4234.91718,0.06886
4236.84564,0.06482
4238.77411,0.06178
4240.70258,0.05980
4242.63105,0.05772
4244.55952,0.05443
4246.48799,0.05611
4248.41646,0.06391
4250.34492,0.07033
4252.27339,0.07267
4254.20186,0.07188
4256.13033,0.07090
4258.05880,0.07273
4259.98727,0.07448
4261.91574,0.07370
4263.84421,0.07305
4265.77267,0.07076
4267.70114,0.06238
4269.62961,0.05489
4271.55808,0.05721
4273.48655,0.06393
4275.41502,0.06801
4277.34349,0.06897
4279.27195,0.06841
4281.20042,0.07045
4283.12889,0.07203
4285.05736,0.06652
4286.98583,0.05877
4288.91430,0.05850
4290.84277,0.06636
4292.77124,0.07110
4294.69970,0.06564
4296.62817,0.05867
4298.55664,0.05649
4300.48511,0.05678
4302.41358,0.05903
4304.34205,0.06117
4306.27052,0.06213
4308.19898,0.06192
4310.12745,0.05757
4312.05592,0.05030
4313.98439,0.04501
4315.91286,0.04568
4317.84133,0.04970
4319.76980,0.05043
4321.69827,0.04671
4323.62673,0.04258
4325.55520,0.04449
4327.48367,0.04936
4329.41214,0.04887
4331.34061,0.04802
4333.26908,0.04873
4335.19755,0.04555
4337.12601,0.04509
4339.05448,0.05044
4340.98295,0.05371
4342.91142,0.05554
4344.83989,0.06058
4346.76836,0.06319
4348.69683,0.05830
4350.62530,0.05358
4352.55376,0.05534
4354.48223,0.05730
4356.41070,0.05300
4358.33917,0.04607
4360.26764,0.04394
4362.19611,0.04720
4364.12458,0.05013
4366.05304,0.05136
4367.98151,0.05170
4369.90998,0.04802
4371.83845,0.03990
4373.76692,0.03026
4375.69539,0.02315
4377.62386,0.02297
4379.55232,0.03203
4381.48079,0.04351
4383.40926,0.04436
4385.33773,0.03740
4387.26620,0.03507
4389.19467,0.04079
4391.12314,0.04866
4393.05161,0.04932
4394.98007,0.04217
4396.90854,0.03478
4398.83701,0.03057
4400.76548,0.02905
4402.69395,0.03123
4404.62242,0.03083
4406.55089,0.02354
4408.47935,0.02062
4410.40782,0.02410
4412.33629,0.02860
4414.26476,0.03714
4416.19323,0.04564
4418.12170,0.04898
4420.05017,0.04853
4421.97864,0.04317
4423.90710,0.03713
4425.83557,0.03649
4427.76404,0.03588
4429.69251,0.02987
4431.62098,0.02449
4433.54945,0.02529
4435.47792,0.02702
4437.40638,0.02623
4439.33485,0.02674
4441.26332,0.02875
4443.19179,0.02871
4445.12026,0.02465
4447.04873,0.02436
4448.97720,0.03325
4450.90567,0.04045
4452.83413,0.04141
4454.76260,0.04008
4456.69107,0.03843
4458.61954,0.03863
4460.54801,0.03717
4462.47648,0.03269
4464.40495,0.02628
4466.33341,0.02114
4468.26188,0.02641
4470.19035,0.03732
4472.11882,0.04019
4474.04729,0.03627
4475.97576,0.03383
4477.90423,0.03123
4479.83270,0.02230
4481.76116,0.01179
4483.68963,0.01080
4485.61810,0.01932
4487.54657,0.02863
4489.47504,0.03313
4491.40351,0.02998
4493.33198,0.02328
4495.26044,0.02025
4497.18891,0.02350
4499.11738,0.03063
4501.04585,0.03485
4502.97432,0.03826
4504.90279,0.04128
4506.83126,0.03538
4508.75973,0.02487
4510.68819,0.02065
4512.61666,0.02155
4514.54513,0.02023
4516.47360,0.01770
4518.40207,0.01434
4520.33054,0.00722
4522.25901,0.00465
4524.18747,0.00796
4526.11594,0.00717
4528.04441,0.00762
4529.97288,0.01920
4531.90135,0.02660
4533.82982,0.01610
4535.75829,0.01014
4537.68676,0.02565
4539.61522,0.04185
4541.54369,0.04068
4543.47216,0.03188
4545.40063,0.02674
4547.32910,0.02205
4549.25757,0.01555
4551.18604,0.01138
4553.11450,0.01037
4555.04297,0.01250
4556.97144,0.01707
4558.89991,0.01563
4560.82838,0.00873
4562.75685,0.00649
4564.68532,0.00524
4566.61378,0.00644
4568.54225,0.01692
4570.47072,0.02250
4572.39919,0.01556
4574.32766,0.00937
4576.25613,0.01161
4578.18460,0.01512
4580.11307,0.01245
4582.04153,0.00646
4583.97000,0.00254
4585.89847,0.00553
4587.82694,0.01536
4589.75541,0.01846
4591.68388,0.00841
4593.61235,-0.00038
4595.54081,0.00263
4597.46928,0.00988
4599.39775,0.01202
4601.32622,0.01173
4603.25469,0.01243
4605.18316,0.01388
4607.11163,0.02185
4609.04010,0.03468
4610.96856,0.03870
4612.89703,0.03035
4614.82550,0.02047
4616.75397,0.01470
4618.68244,0.01195
4620.61091,0.01241
4622.53938,0.01206
4624.46784,0.01264
4626.39631,0.01758
4628.32478,0.01755
4630.25325,0.01500
4632.18172,0.02295
4634.11019,0.03531
4636.03866,0.03912
4637.96713,0.03382
4639.89559,0.02216
4641.82406,0.00805
4643.75253,0.00006
4645.68100,-0.00152
4647.60947,-0.00219
4649.53794,-0.00136
4651.46641,-0.00116
4653.39487,-0.00009
4655.32334,0.00528
4657.25181,0.00620
4659.18028,-0.00098
4661.10875,-0.00263
4663.03722,0.00857
4664.96569,0.01893
4666.89416,0.02501
4668.82262,0.02897
4670.75109,0.01892
4672.67956,0.00330
4674.60803,-0.00103
4676.53650,0.00654
4678.46497,0.01896
4680.39344,0.02053
4682.32190,0.01223
4684.25037,0.01127
4686.17884,0.01199
4688.10731,0.00541
4690.03578,0.00187
4691.96425,0.00766
4693.89272,0.02241
4695.82119,0.03263
4697.74965,0.02341
4699.67812,0.01162
4701.60659,0.01239
4703.53506,0.01625
4705.46353,0.01477
4707.39200,0.00758
4709.32047,-0.00150
4711.24893,-0.00613
4713.17740,0.00370
4715.10587,0.02033
4717.03434,0.02149
4718.96281,0.01621
4720.89128,0.01924
4722.81975,0.01906
4724.74821,0.01782
4726.67668,0.02334
4728.60515,0.02270
4730.53362,0.01517
4732.46209,0.01410
4734.39056,0.01416
4736.31903,0.00647
4738.24750,0.00338
4740.17596,0.00903
4742.10443,0.00828
4744.03290,0.00170
4745.96137,-0.00035
4747.88984,0.00446
4749.81831,0.01432
4751.74678,0.02076
4753.67524,0.02314
4755.60371,0.02461
4757.53218,0.02026
4759.46065,0.01757
4761.38912,0.02274
4763.31759,0.02118
4765.24606,0.01031
4767.17453,0.00432
4769.10299,0.00146
4771.03146,-0.00524
4772.95993,-0.01252
4774.88840,-0.01522
4776.81687,-0.00721
4778.74534,0.00662
4780.67381,0.01222
4782.60227,0.00815
4784.53074,0.00882
4786.45921,0.02067
4788.38768,0.02622
4790.31615,0.01821
4792.24462,0.00712
4794.17309,-0.00647
4796.10156,-0.00828
4798.03002,0.01499
4799.95849,0.03339
4801.88696,0.02961
4803.81543,0.02513
4805.74390,0.02176
4807.67237,0.01262
4809.60084,0.01006
4811.52930,0.00959
4813.45777,-0.00234
4815.38624,-0.01318
4817.31471,-0.00789
4819.24318,0.00315
4821.17165,0.00798
4823.10012,0.00814
4825.02859,0.00771
4826.95705,0.00717
4828.88552,0.01237
4830.81399,0.02418
4832.74246,0.02490
4834.67093,0.01059
4836.59940,0.00073
4838.52787,0.00843
4840.45633,0.02179
4842.38480,0.02172
4844.31327,0.01121
4846.24174,-0.00122
4848.17021,-0.00990
4850.09868,-0.00658
4852.02715,0.00314
4853.95562,0.00869
4855.88408,0.01449
4857.81255,0.02022
4859.74102,0.01796
4861.66949,0.01111
4863.59796,0.00460
4865.52643,0.00255
4867.45490,0.00919
4869.38336,0.01988
4871.31183,0.02344
4873.24030,0.01049
4875.16877,-0.00995
4877.09724,-0.01935
4879.02571,-0.01620
4880.95418,-0.00937
4882.88265,-0.00576
4884.81111,-0.00440
4886.73958,0.00402
4888.66805,0.01884
4890.59652,0.02566
4892.52499,0.01717
4894.45346,0.00837
4896.38193,0.01216
4898.31039,0.01671
4900.23886,0.01408
4902.16733,0.00676
4904.09580,-0.00597
4906.02427,-0.01721
4907.95274,-0.01301
4909.88121,0.00872
4911.80967,0.02872
4913.73814,0.02928
4915.66661,0.01796
4917.59508,0.01553
4919.52355,0.01984
4921.45202,0.01322
4923.38049,0.00518
4925.30896,0.01350
4927.23742,0.02122
4929.16589,0.00973
4931.09436,-0.00292
4933.02283,-0.00575
4934.95130,-0.00745
4936.87977,-0.00836
4938.80824,-0.01281
4940.73670,-0.02011
4942.66517,-0.01566
4944.59364,0.00361
4946.52211,0.02144
4948.45058,0.03117
4950.37905,0.03188
4952.30752,0.01751
4954.23599,-0.00110
4956.16445,-0.00896
4958.09292,-0.00783
4960.02139,-0.00480
4961.94986,0.00022
4963.87833,0.00860
4965.80680,0.01059
4967.73527,0.00123
4969.66373,-0.00512
4971.59220,0.00085
4973.52067,0.01017
4975.44914,0.01154
4977.37761,-0.00466
4979.30608,-0.02367
4981.23455,-0.01513
4983.16302,0.00349
4985.09148,0.00127
4987.01995,-0.00695
4988.94842,-0.00189
4990.87689,0.00893
4992.80536,0.01330
4994.73383,0.01127
4996.66230,0.01181
4998.59076,0.01387
5000.51923,0.01122
5002.44770,0.01110
5004.37617,0.01641
5006.30464,0.01863
5008.23311,0.02021
5010.16158,0.03037
5012.09005,0.04023
5014.01851,0.03502
5015.94698,0.01945
5017.87545,0.00684
5019.80392,0.00553
5021.73239,0.01558
5023.66086,0.02630
5025.58933,0.03290
5027.51779,0.04205
5029.44626,0.04197
5031.37473,0.02585
5033.30320,0.01732
5035.23167,0.01807
5037.16014,0.01331
5039.08861,0.01019
5041.01708,0.01413
5042.94554,0.01850
5044.87401,0.02891
5046.80248,0.04851
5048.73095,0.05655
5050.65942,0.04870
5052.58789,0.04390
5054.51636,0.04253
5056.44482,0.02708
5058.37329,0.00377
5060.30176,-0.00217
5062.23023,0.00258
5064.15870,0.00587
5066.08717,0.00887
5068.01564,0.00607
5069.94410,0.00310
5071.87257,-0.00302
5073.80104,-0.01452
5075.72951,-0.00906
5077.65798,0.01183
5079.58645,0.02581
5081.51492,0.03196
5083.44339,0.03310
5085.37185,0.02146
5087.30032,0.00597
5089.22879,0.00769
5091.15726,0.02614
5093.08573,0.04100
5095.01420,0.03797
5096.94267,0.02725
5098.87113,0.02610
5100.79960,0.03250
5102.72807,0.03851
5104.65654,0.04185
5106.58501,0.04285
5108.51348,0.03581
5110.44195,0.02075
5112.37042,0.01985
5114.29888,0.02734
5116.22735,0.01543
5118.15582,0.00533
5120.08429,0.01634
5122.01276,0.02304
5123.94123,0.01703
5125.86970,0.01227
5127.79816,0.00828
5129.72663,0.00821
5131.65510,0.02708
5133.58357,0.04599
5135.51204,0.03662
5137.44051,0.01926
5139.36898,0.01622
5141.29745,0.01359
5143.22591,0.00304
5145.15438,0.00047
5147.08285,0.00943
5149.01132,0.01751
5150.93979,0.02999
5152.86826,0.04754
5154.79673,0.04918
5156.72519,0.02626
5158.65366,0.00361
5160.58213,0.00675
5162.51060,0.02692
5164.43907,0.03914
5166.36754,0.03669
5168.29601,0.03008
5170.22448,0.02349
5172.15294,0.01968
5174.08141,0.02605
5176.00988,0.03758
5177.93835,0.05339
5179.86682,0.06945
5181.79529,0.05464
5183.72376,0.01321
5185.65222,-0.00654
5187.58069,0.00776
5189.50916,0.03155
5191.43763,0.04673
5193.36610,0.04587
5195.29457,0.03153
5197.22304,0.01638
5199.15151,0.02171
5201.07997,0.03309
5203.00844,0.02356
5204.93691,0.02242
5206.86538,0.04289
5208.79385,0.04345
5210.72232,0.03219
5212.65079,0.03227
5214.57925,0.04107
5216.50772,0.04697
5218.43619,0.04032
5220.36466,0.03618
5222.29313,0.04703
5224.22160,0.05975
5226.15007,0.05345
5228.07854,0.03372
5230.00700,0.01588
5231.93547,-0.00638
5233.86394,-0.01820
5235.79241,-0.00268
5237.72088,0.02021
5239.64935,0.03517
5241.57782,0.04985
5243.50628,0.05769
5245.43475,0.04382
5247.36322,0.02367
5249.29169,0.01870
5251.22016,0.01799
5253.14863,0.00339
5255.07710,-0.01540
5257.00556,-0.02348
5258.93403,-0.01512
5260.86250,0.01430
5262.79097,0.05562
5264.71944,0.08524
5266.64791,0.08462
5268.57638,0.06638
5270.50485,0.05015
5272.43331,0.03937
5274.36178,0.03101
5276.29025,0.02564
5278.21872,0.02611
5280.14719,0.03389
5282.07566,0.04478
5284.00413,0.05221
5285.93259,0.06219
5287.86106,0.06766
5289.78953,0.05936
5291.71800,0.05761
5293.64647,0.06081
5295.57494,0.05973
5297.50341,0.06463
5299.43188,0.06853
5301.36034,0.06303
5303.28881,0.06358
5305.21728,0.07274
5307.14575,0.07327
5309.07422,0.07291
5311.00269,0.07648
5312.93116,0.06638
5314.85962,0.05411
5316.78809,0.06290
5318.71656,0.08048
5320.64503,0.08795
5322.57350,0.08466
5324.50197,0.07007
5326.43044,0.04782
5328.35891,0.03965
5330.28737,0.05199
5332.21584,0.05500
5334.14431,0.04250
5336.07278,0.05309
5338.00125,0.09840
5339.92972,0.12433
5341.85819,0.10229
5343.78665,0.07319
5345.71512,0.07099
5347.64359,0.07881
5349.57206,0.07889
5351.50053,0.07759
5353.42900,0.07497
5355.35747,0.06241
5357.28594,0.05228
5359.21440,0.05629
5361.14287,0.05603
5363.07134,0.03302
5364.99981,0.01611
5366.92828,0.03080
5368.85675,0.05364
5370.78522,0.06997
5372.71368,0.08962
5374.64215,0.10543
5376.57062,0.09950
5378.49909,0.08654
5380.42756,0.07440
5382.35603,0.06491
5384.28450,0.06883
5386.21297,0.06385
5388.14143,0.04474
5390.06990,0.04434
5391.99837,0.05750
5393.92684,0.05312
5395.85531,0.03682
5397.78378,0.03384
5399.71225,0.04586
5401.64071,0.06845
5403.56918,0.08354
5405.49765,0.08416
5407.42612,0.06956
5409.35459,0.03481
5411.28306,0.02352
5413.21153,0.05462
5415.13999,0.07692
5417.06846,0.08301
5418.99693,0.08412
5420.92540,0.08079
5422.85387,0.07524
5424.78234,0.05263
5426.71081,0.02394
5428.63928,0.03149
5430.56774,0.06964
5432.49621,0.08921
5434.42468,0.07743
5436.35315,0.06509
5438.28162,0.06354
5440.21009,0.04785
5442.13856,0.02785
5444.06702,0.03680
5445.99549,0.04590
5447.92396,0.03108
5449.85243,0.03320
5451.78090,0.05353
5453.70937,0.06950
5455.63784,0.08308
5457.56631,0.10267
5459.49477,0.12768
5461.42324,0.12420
5463.35171,0.08996
5465.28018,0.06315
5467.20865,0.05022
5469.13712,0.05013
5471.06559,0.06763
5472.99405,0.08490
5474.92252,0.08529
5476.85099,0.07706
5478.77946,0.07980
5480.70793,0.09841
5482.63640,0.11303
5484.56487,0.10526
5486.49334,0.08803
5488.42180,0.08319
5490.35027,0.08510
5492.27874,0.07381
5494.20721,0.06192
5496.13568,0.06528
5498.06415,0.07273
5499.99262,0.06900
5501.92108,0.05510
5503.84955,0.05319
5505.77802,0.07069
5507.70649,0.08380
5509.63496,0.07364
5511.56343,0.05666
5513.49190,0.04323
5515.42037,0.03785
5517.34883,0.06020
5519.27730,0.08890
5521.20577,0.08693
5523.13424,0.07594
5525.06271,0.08305
5526.99118,0.08622
5528.91965,0.07638
5530.84811,0.07167
5532.77658,0.06877
5534.70505,0.06017
5536.63352,0.05560
5538.56199,0.06025
5540.49046,0.06826
5542.41893,0.07963
5544.34740,0.08927
5546.27586,0.08972
5548.20433,0.09322
5550.13280,0.09369
5552.06127,0.06643
5553.98974,0.02870
5555.91821,0.02826
5557.84668,0.06691
5559.77514,0.09214
5561.70361,0.09137
5563.63208,0.10279
5565.56055,0.13323
5567.48902,0.14541
5569.41749,0.12215
5571.34596,0.09157
5573.27443,0.07934
5575.20289,0.07704
5577.13136,0.06328
5579.05983,0.04706
5580.98830,0.05687
5582.91677,0.07150
5584.84524,0.05591
5586.77371,0.04346
5588.70217,0.06614
5590.63064,0.09371
5592.55911,0.09836
5594.48758,0.09101
5596.41605,0.08974
5598.34452,0.09837
5600.27299,0.09834
5602.20145,0.09490
5604.12992,0.11284
5606.05839,0.12828
5607.98686,0.11838
5609.91533,0.10372
5611.84380,0.11031
5613.77227,0.12873
5615.70074,0.11642
5617.62920,0.07500
5619.55767,0.04360
5621.48614,0.04503
5623.41461,0.07950
5625.34308,0.11640
5627.27155,0.11167
5629.20002,0.06502
5631.12848,0.03660
5633.05695,0.05090
5634.98542,0.07452
5636.91389,0.09288
5638.84236,0.09908
5640.77083,0.07846
5642.69930,0.04340
5644.62777,0.02133
5646.55623,0.04073
5648.48470,0.08860
5650.41317,0.12083
5652.34164,0.12983
5654.27011,0.11637
5656.19858,0.09123
5658.12705,0.07649
5660.05551,0.06073
5661.98398,0.03540
5663.91245,0.02229
5665.84092,0.04559
5667.76939,0.09156
5669.69786,0.11438
5671.62633,0.10141
5673.55480,0.08252
5675.48326,0.07931
5677.41173,0.08282
5679.34020,0.07445
5681.26867,0.06868
5683.19714,0.08524
5685.12561,0.10183
5687.05408,0.09555
5688.98254,0.06759
5690.91101,0.05007
5692.83948,0.07296
5694.76795,0.10411
5696.69642,0.10888
5698.62489,0.08668
5700.55336,0.05914
5702.48183,0.06931
5704.41029,0.11354
5706.33876,0.13680
5708.26723,0.11778
5710.19570,0.08604
5712.12417,0.06704
5714.05264,0.06566
5715.98111,0.07475
5717.90957,0.06711
5719.83804,0.03497
5721.76651,0.02099
5723.69498,0.03625
5725.62345,0.04267
5727.55192,0.04614
5729.48039,0.07667
5731.40886,0.11307
5733.33732,0.12447
5735.26579,0.11996
5737.19426,0.11374
5739.12273,0.09526
5741.05120,0.07207
5742.97967,0.06224
5744.90814,0.07671
5746.83660,0.11931
5748.76507,0.15949
5750.69354,0.15382
5752.62201,0.11599
5754.55048,0.09766
5756.47895,0.09474
5758.40742,0.08721
5760.33588,0.09621
5762.26435,0.12518
5764.19282,0.13242
5766.12129,0.10024
5768.04976,0.06619
5769.97823,0.05746
5771.90670,0.07267
5773.83517,0.10358
5775.76363,0.12206
5777.69210,0.11621
5779.62057,0.10055
5781.54904,0.07276
5783.47751,0.03624
5785.40598,0.02665
5787.33445,0.06959
5789.26291,0.12605
5791.19138,0.14717
5793.11985,0.12657
5795.04832,0.08866
5796.97679,0.07229
5798.90526,0.08277
5800.83373,0.08794
5802.76220,0.05224
5804.69066,0.00771
5806.61913,0.01675
5808.54760,0.04350
5810.47607,0.05193
5812.40454,0.05991
5814.33301,0.07668
5816.26148,0.12176
5818.18994,0.18195
5820.11841,0.17246
5822.04688,0.08138
5823.97535,0.01638
5825.90382,0.01966
5827.83229,0.05263
5829.76076,0.07923
5831.68923,0.07146
5833.61769,0.04286
5835.54616,0.03653
5837.47463,0.06546
5839.40310,0.11091
5841.33157,0.13282
5843.26004,0.10103
5845.18851,0.03878
5847.11697,0.01213
5849.04544,0.04151
5850.97391,0.05827
5852.90238,0.03871
5854.83085,0.03276
5856.75932,0.05378
5858.68779,0.05890
5860.61626,0.03375
5862.54472,0.03915
5864.47319,0.09461
5866.40166,0.12644
5868.33013,0.10747
5870.25860,0.08708
5872.18707,0.10063
5874.11554,0.14717
5876.04400,0.17943
5877.97247,0.16347
5879.90094,0.14232
5881.82941,0.14071
5883.75788,0.12785
5885.68635,0.10416
5887.61482,0.11180
5889.54329,0.14407
5891.47175,0.14721
5893.40022,0.11641
5895.32869,0.08339
5897.25716,0.06475
5899.18563,0.08153
5901.11410,0.12370
5903.04257,0.13385
5904.97103,0.11948
5906.89950,0.11532
5908.82797,0.10742
5910.75644,0.08591
5912.68491,0.04862
5914.61338,0.03316
5916.54185,0.06641
5918.47032,0.07906
5920.39878,0.06087
5922.32725,0.08613
5924.25572,0.11853
5926.18419,0.09321
5928.11266,0.05793
5930.04113,0.05804
5931.96960,0.06904
5933.89806,0.06407
5935.82653,0.05358
5937.75500,0.06095
5939.68347,0.07842
5941.61194,0.09246
5943.54041,0.10984
5945.46888,0.12525
5947.39734,0.11246
5949.32581,0.06969
5951.25428,0.04740
5953.18275,0.05860
5955.11122,0.06231
5957.03969,0.07402
5958.96816,0.09771
5960.89663,0.07919
5962.82509,0.04335
5964.75356,0.05584
5966.68203,0.08692
5968.61050,0.06812
5970.53897,0.03046
5972.46744,0.02905
5974.39591,0.03230
5976.32437,0.01870
5978.25284,0.02849
5980.18131,0.07440
5982.10978,0.12846
5984.03825,0.15574
5985.96672,0.13267
5987.89519,0.10025
5989.82366,0.10063
5991.75212,0.09448
5993.68059,0.04099
5995.60906,-0.02653
5997.53753,-0.02339
5999.46600,0.04895
6001.39447,0.11290
6003.32294,0.13658
6005.25140,0.11916
6007.17987,0.09493
6009.10834,0.12226
6011.03681,0.16303
6012.96528,0.17494
6014.89375,0.16954
6016.82222,0.12138
6018.75069,0.03808
6020.67915,-0.01493
6022.60762,-0.00371
6024.53609,0.05303
6026.46456,0.11134
6028.39303,0.12971
6030.32150,0.07723
6032.24997,0.01102
6034.17843,0.00961
6036.10690,0.03668
6038.03537,0.04078
6039.96384,0.05873
6041.89231,0.10521
6043.82078,0.13050
6045.74925,0.11097
6047.67772,0.08729
6049.60618,0.09500
6051.53465,0.09600
6053.46312,0.06273
6055.39159,0.03903
6057.32006,0.05678
6059.24853,0.10884
6061.17700,0.15128
6063.10546,0.13779
6065.03393,0.11895
6066.96240,0.15020
6068.89087,0.19073
6070.81934,0.18922
6072.74781,0.16447
6074.67628,0.16101
6076.60475,0.16043
6078.53321,0.12896
6080.46168,0.10606
6082.39015,0.09644
6084.31862,0.05752
6086.24709,0.02945
6088.17556,0.03618
6090.10403,0.03330
6092.03249,0.03666
6093.96096,0.08099
6095.88943,0.13083
6097.81790,0.12674
6099.74637,0.06837
6101.67484,0.00780
6103.60331,0.01000
6105.53177,0.06291
6107.46024,0.08601
6109.38871,0.08535
6111.31718,0.10224
6113.24565,0.11540
6115.17412,0.10181
6117.10259,0.07044
6119.03106,0.06752
6120.95952,0.08011
6122.88799,0.08478
6124.81646,0.10983
6126.74493,0.10866
6128.67340,0.06035
6130.60187,0.05499
6132.53034,0.10192
6134.45880,0.13375
6136.38727,0.13410
6138.31574,0.12366
6140.24421,0.11127
6142.17268,0.09773
6144.10115,0.08870
6146.02962,0.08789
6147.95809,0.08273
6149.88655,0.05895
6151.81502,0.04413
6153.74349,0.03605
6155.67196,0.01611
6157.60043,0.02624
6159.52890,0.04452
6161.45737,0.02935
6163.38583,0.02792
6165.31430,0.05371
6167.24277,0.06851
6169.17124,0.06044
6171.09971,0.03726
6173.02818,0.04045
6174.95665,0.09324
6176.88512,0.15216
6178.81358,0.18499
6180.74205,0.18251
6182.67052,0.15699
6184.59899,0.13061
6186.52746,0.08411
6188.45593,0.03697
6190.38440,0.04398
6192.31286,0.08870
6194.24133,0.12790
6196.16980,0.13054
6198.09827,0.09314
6200.02674,0.06995
6201.95521,0.08302
6203.88368,0.08551
6205.81215,0.09084
6207.74061,0.11688
6209.66908,0.10720
6211.59755,0.05041
6213.52602,0.00454
6215.45449,-0.00977
6217.38296,0.00441
6219.31143,0.04882
6221.23989,0.09287
6223.16836,0.10412
6225.09683,0.08444
6227.02530,0.05545
6228.95377,0.05078
6230.88224,0.06518
6232.81071,0.07235
6234.73918,0.06607
6236.66764,0.05558
6238.59611,0.05830
6240.52458,0.07443
6242.45305,0.09869
6244.38152,0.09922
6246.30999,0.07057
6248.23846,0.07872
6250.16692,0.09543
6252.09539,0.03648
6254.02386,-0.03209
6255.95233,-0.02527
6257.88080,0.03124
6259.80927,0.06883
6261.73774,0.06235
6263.66621,0.04954
6265.59467,0.05332
6267.52314,0.03886
6269.45161,0.01942
6271.38008,0.05506
6273.30855,0.14631
6275.23702,0.20919
6277.16549,0.19203
6279.09395,0.15163
6281.02242,0.12262
6282.95089,0.07739
6284.87936,0.05293
6286.80783,0.08980
6288.73630,0.10928
6290.66477,0.06142
6292.59323,0.00702
6294.52170,-0.01043
6296.45017,-0.01212
6298.37864,-0.01618
6300.30711,0.00790
6302.23558,0.06242
6304.16405,0.10332
6306.09252,0.13292
6308.02098,0.15215
6309.94945,0.16122
6311.87792,0.17182
6313.80639,0.17344
6315.73486,0.16242
6317.66333,0.13037
6319.59180,0.09877
6321.52026,0.10223
6323.44873,0.12446
6325.37720,0.15190
6327.30567,0.16163
6329.23414,0.09448
6331.16261,-0.04135
6333.09108,-0.12527
6335.01955,-0.09276
6336.94801,-0.04262
6338.87648,-0.03605
6340.80495,-0.00876
6342.73342,0.03734
6344.66189,0.04704
6346.59036,0.05049
6348.51883,0.08556
6350.44729,0.11598
6352.37576,0.08946
6354.30423,0.04208
6356.23270,0.04240
6358.16117,0.07364
6360.08964,0.08047
6362.01811,0.04842
6363.94658,0.00780
6365.87504,-0.02030
6367.80351,-0.01952
6369.73198,0.05346
6371.66045,0.13504
6373.58892,0.12689
6375.51739,0.08780
6377.44586,0.08513
6379.37432,0.10971
6381.30279,0.12599
6383.23126,0.08060
6385.15973,-0.00044
6387.08820,-0.03446
6389.01667,-0.03204
6390.94514,-0.04332
6392.87361,-0.03457
6394.80207,0.05765
6396.73054,0.13808
6398.65901,0.14298
6400.58748,0.13363
6402.51595,0.13569
6404.44442,0.09687
6406.37289,-0.01218
6408.30135,-0.08629
6410.22982,-0.02012
6412.15829,0.05726
6414.08676,0.05160
6416.01523,0.05485
6417.94370,0.07511
6419.87217,0.05706
6421.80064,0.02596
6423.72910,0.01919
6425.65757,0.04278
6427.58604,0.09833
6429.51451,0.17681
6431.44298,0.21209
6433.37145,0.18909
6435.29992,0.16753
6437.22838,0.13104
6439.15685,0.06653
6441.08532,0.04002
6443.01379,0.06137
6444.94226,0.07748
6446.87073,0.09190
6448.79920,0.11581
6450.72766,0.12159
6452.65613,0.10254
6454.58460,0.06489
6456.51307,0.03637
6458.44154,0.04944
6460.37001,0.07792
6462.29848,0.10001
6464.22695,0.12934
6466.15541,0.18111
6468.08388,0.22271
6470.01235,0.13065
6471.94082,-0.02636
6473.86929,0.00904
6475.79776,0.14870
6477.72623,0.14257
6479.65469,0.05007
6481.58316,0.02694
6483.51163,0.03911
6485.44010,0.00905
6487.36857,-0.01575
6489.29704,0.01840
6491.22551,0.06351
6493.15398,0.03749
6495.08244,-0.01998
6497.01091,-0.01708
6498.93938,0.01106
6500.86785,0.03155
6502.79632,0.07263
6504.72479,0.11318
6506.65326,0.14001
6508.58172,0.14621
6510.51019,0.11979
6512.43866,0.07011
6514.36713,0.02213
6516.29560,0.00181
6518.22407,-0.00402
6520.15254,-0.00643
6522.08101,0.00615
6524.00947,0.06222
6525.93794,0.14666
6527.86641,0.15497
6529.79488,0.09053
6531.72335,0.07776
6533.65182,0.12132
6535.58029,0.13445
6537.50875,0.14815
6539.43722,0.19383
6541.36569,0.20065
6543.29416,0.13672
6545.22263,0.05454
6547.15110,0.01857
6549.07957,0.02286
6551.00804,0.02660
6552.93650,0.01664
6554.86497,0.00645
6556.79344,-0.01128
6558.72191,-0.05411
6560.65038,-0.07649
6562.57885,-0.05689
6564.50732,-0.01878
6566.43578,0.07398
6568.36425,0.16924
6570.29272,0.15966
6572.22119,0.09640
6574.14966,0.05000
6576.07813,0.00947
6578.00660,-0.01058
6579.93507,0.00087
6581.86353,0.02655
6583.79200,0.03313
6585.72047,-0.00406
6587.64894,-0.03043
6589.57741,-0.01376
6591.50588,0.04440
6593.43435,0.13424
6595.36281,0.13618
6597.29128,0.05395
6599.21975,0.04123
6601.14822,0.10049
6603.07669,0.12272
6605.00516,0.10741
6606.93363,0.08718
6608.86210,0.07017
6610.79056,0.08343
6612.71903,0.12876
6614.64750,0.16384
6616.57597,0.14495
6618.50444,0.10978
6620.43291,0.13980
6622.36138,0.17091
6624.28984,0.14921
6626.21831,0.15280
6628.14678,0.17908
6630.07525,0.15101
6632.00372,0.05783
6633.93219,-0.01041
6635.86066,0.05174
6637.78912,0.15978
6639.71759,0.18504
6641.64606,0.14179
6643.57453,0.05464
6645.50300,-0.02843
6647.43147,-0.04298
6649.35994,0.01983
6651.28841,0.08009
6653.21687,0.08570
6655.14534,0.08181
6657.07381,0.09334
6659.00228,0.12578
6660.93075,0.14631
6662.85922,0.10312
6664.78769,0.02952
6666.71615,-0.04655
6668.64462,-0.07148
6670.57309,-0.02346
6672.50156,-0.00753
6674.43003,-0.03004
6676.35850,-0.01040
6678.28697,0.01309
6680.21544,0.02785
6682.14390,0.07171
6684.07237,0.10546
6686.00084,0.10041
6687.92931,0.08128
6689.85778,0.05556
6691.78625,0.00774
6693.71472,-0.05842
6695.64318,-0.07898
6697.57165,-0.02864
6699.50012,-0.00640
6701.42859,-0.02248
6703.35706,-0.02325
6705.28553,-0.04580
6707.21400,-0.04232
6709.14247,0.05578
6711.07093,0.17078
6712.99940,0.22150
6714.92787,0.19928
6716.85634,0.17984
6718.78481,0.18679
6720.71328,0.18261
6722.64175,0.18972
6724.57021,0.20724
6726.49868,0.21469
6728.42715,0.18068
6730.35562,0.09776
6732.28409,0.04538
6734.21256,0.04771
6736.14103,0.05381
6738.06950,0.06933
6739.99796,0.12046
6741.92643,0.16002
6743.85490,0.12693
6745.78337,0.04626
6747.71184,-0.01864
6749.64031,-0.03290
6751.56878,-0.01928
6753.49724,-0.03232
6755.42571,-0.04965
6757.35418,0.00452
6759.28265,0.05897
6761.21112,-0.00424
6763.13959,-0.09548
6765.06806,-0.08823
6766.99653,-0.02459
6768.92499,-0.00626
6770.85346,0.03144
6772.78193,0.15222
6774.71040,0.22485
6776.63887,0.16309
6778.56734,0.08090
6780.49581,0.05550
6782.42427,0.06560
6784.35274,0.08993
6786.28121,0.12551
6788.20968,0.14847
6790.13815,0.13012
6792.06662,0.11932
6793.99509,0.15486
6795.92355,0.17719
6797.85202,0.20292
6799.78049,0.26751
6801.70896,0.27176
6803.63743,0.16271
6805.56590,0.06727
6807.49437,0.04014
6809.42284,0.04698
6811.35130,0.11337
6813.27977,0.21672
6815.20824,0.27941
6817.13671,0.25761
6819.06518,0.17070
6820.99365,0.09388
6822.92212,0.03248
6824.85058,-0.03304
6826.77905,-0.05108
6828.70752,0.00549
6830.63599,0.07879
6832.56446,0.11844
6834.49293,0.13373
6836.42140,0.10122
6838.34987,0.03808
6840.27833,-0.00427
6842.20680,-0.00367
6844.13527,0.03764
6846.06374,0.06065
6847.99221,0.03645
6849.92068,0.00052
6851.84915,-0.01549
6853.77761,-0.01192
6855.70608,-0.00909
6857.63455,-0.03727
6859.56302,-0.08886
6861.49149,-0.10425
6863.41996,-0.03742
6865.34843,0.03711
6867.27690,0.03838
6869.20536,0.03415
6871.13383,0.07738
6873.06230,0.09055
6874.99077,0.03408
6876.91924,-0.00233
6878.84771,0.03306
6880.77618,0.07994
6882.70464,0.13444
6884.63311,0.17160
6886.56158,0.06728
6888.49005,-0.08686
6890.41852,-0.12558
6892.34699,-0.14524
6894.27546,-0.20691
6896.20393,-0.20188
6898.13239,-0.15883
6900.06086,-0.14443
6901.98933,-0.12504
6903.91780,-0.08549
6905.84627,0.02397
6907.77474,0.14448
6909.70321,0.10720
6911.63167,-0.03598
6913.56014,-0.07050
6915.48861,-0.02231
6917.41708,-0.07437
6919.34555,-0.16195
6921.27402,-0.11447
6923.20249,0.01967
6925.13096,0.16214
6927.05942,0.30241
6928.98789,0.40235
6930.91636,0.40221
6932.84483,0.30424
6934.77330,0.17744
6936.70177,0.08203
6938.63024,0.07513
6940.55870,0.12200
6942.48717,0.10594
6944.41564,0.04992
6946.34411,0.02046
6948.27258,0.05813
6950.20105,0.11722
6952.12952,0.10584
6954.05799,-0.00423
6955.98645,-0.11592
6957.91492,-0.13019
6959.84339,-0.08146
6961.77186,-0.02336
6963.70033,-0.00365
6965.62880,0.00600
6967.55727,0.02363
6969.48573,0.02699
6971.41420,0.05910
6973.34267,0.15192
6975.27114,0.25938
6977.19961,0.28715
6979.12808,0.20889
6981.05655,0.08804
6982.98501,0.02303
6984.91348,0.00896
6986.84195,0.00753
6988.77042,0.04583
6990.69889,0.02660
6992.62736,-0.03147
6994.55583,0.01624
6996.48430,0.12575
6998.41276,0.13290
7000.34123,0.03020
7002.26970,-0.08202
7004.19817,-0.15852
7006.12664,-0.15066
7008.05511,-0.02872
7009.98358,0.11728
7011.91204,0.16899
7013.84051,0.11814
7015.76898,0.12257
7017.69745,0.18139
7019.62592,0.13909
7021.55439,0.05049
7023.48286,0.07500
7025.41133,0.09852
7027.33979,-0.02214
7029.26826,-0.06287
7031.19673,0.13102
7033.12520,0.28097
7035.05367,0.16216
7036.98214,-0.02274
7038.91061,-0.03953
7040.83907,0.03372
7042.76754,0.08990
7044.69601,0.11910
7046.62448,0.09541
7048.55295,0.04623
7050.48142,0.06064
7052.40989,0.08732
7054.33836,0.10797
7056.26682,0.15801
7058.19529,0.16145
7060.12376,0.13406
7062.05223,0.14140
7063.98070,0.17022
7065.90917,0.21224
7067.83764,0.19638
7069.76610,0.08686
7071.69457,0.02034
7073.62304,0.03736
7075.55151,0.05178
7077.47998,0.10198
7079.40845,0.22172
7081.33692,0.25952
7083.26539,0.14825
7085.19385,0.05664
7087.12232,-0.03056
7089.05079,-0.12385
7090.97926,-0.14208
7092.90773,-0.10649
7094.83620,-0.03513
7096.76467,0.05925
7098.69313,0.10738
7100.62160,0.08515
7102.55007,0.03487
7104.47854,-0.00439
7106.40701,-0.03732
7108.33548,-0.04375
7110.26395,0.03628
7112.19242,0.19960
7114.12088,0.32846
7116.04935,0.34412
7117.97782,0.27017
7119.90629,0.14127
7121.83476,0.01174
7123.76323,-0.06274
7125.69170,-0.11911
7127.62016,-0.14976
7129.54863,-0.10830
7131.47710,-0.03943
7133.40557,0.04880
7135.33404,0.14430
7137.26251,0.13611
7139.19098,0.04233
7141.11944,0.04093
7143.04791,0.10747
7144.97638,0.06205
7146.90485,-0.02147
7148.83332,0.03071
7150.76179,0.10323
7152.69026,0.06362
7154.61873,-0.03453
7156.54719,-0.10026
7158.47566,-0.10751
7160.40413,-0.07151
7162.33260,-0.00428
7164.26107,0.11047
7166.18954,0.20777
7168.11801,0.12346
7170.04647,-0.09052
7171.97494,-0.16224
7173.90341,-0.10085
7175.83188,-0.03181
7177.76035,0.09567
7179.68882,0.23682
7181.61729,0.30811
7183.54576,0.30620
7185.47422,0.25843
7187.40269,0.18815
7189.33116,0.09096
7191.25963,-0.04181
7193.18810,-0.20971
7195.11657,-0.25777
7197.04504,-0.06043
7198.97350,0.14559
7200.90197,0.15012
7202.83044,0.01213
7204.75891,-0.09491
7206.68738,-0.05549
7208.61585,-0.03204
7210.54432,-0.03295
7212.47279,0.03199
7214.40125,0.11651
7216.32972,0.21705
7218.25819,0.36487
7220.18666,0.43823
7222.11513,0.41511
7224.04360,0.20538
7225.97207,-0.11841
7227.90053,-0.24874
7229.82900,-0.14689
7231.75747,-0.02898
7233.68594,-0.01889
7235.61441,0.02356
7237.54288,0.10082
7239.47135,0.15423
7241.39982,0.26271
7243.32828,0.32646
7245.25675,0.25782
7247.18522,0.18548
7249.11369,0.10576
7251.04216,0.04884
7252.97063,0.12594
7254.89910,0.23646
7256.82756,0.20734
7258.75603,0.09149
7260.68450,-0.07325
7262.61297,-0.23537
7264.54144,-0.26159
7266.46991,-0.17282
7268.39838,-0.07790
7270.32685,-0.01697
7272.25531,0.00817
7274.18378,0.11266
7276.11225,0.24285
7278.04072,0.30120
7279.96919,0.23884
7281.89766,0.07686
7283.82613,0.05559
7285.75459,0.20413
7287.68306,0.34184
7289.61153,0.39084
7291.54000,0.29295
7293.46847,0.11983
7295.39694,0.04717
7297.32541,-0.01592
7299.25387,-0.16162
7301.18234,-0.27895
7303.11081,-0.23295
7305.03928,-0.05738
7306.96775,0.01229
7308.89622,-0.03909
7310.82469,0.02539
7312.75316,0.14593
7314.68162,0.16954
7316.61009,0.01083
7318.53856,-0.09993
7320.46703,-0.02820
7322.39550,0.07412
7324.32397,0.19107
7326.25244,0.25559
7328.18090,0.14573
7330.10937,0.05961
7332.03784,0.15711
7333.96631,0.15910
7335.89478,0.05947
7337.82325,0.09950
7339.75172,0.30585
7341.68019,0.29602
7343.60865,0.17097
7345.53712,0.10359
7347.46559,-0.00650
7349.39406,-0.07397
7351.32253,0.00239
7353.25100,0.10313
7355.17947,0.23218
7357.10793,0.47690
7359.03640,0.56031
7360.96487,0.32079
7362.89334,0.15492
7364.82181,0.05199
7366.75028,-0.06557
7368.67875,0.00613
7370.60722,0.11378
7372.53568,0.07338
7374.46415,-0.01066
7376.39262,-0.04370
7378.32109,0.01394
7380.24956,0.14801
7382.17803,0.24346
7384.10650,0.21108
7386.03496,0.05750
7387.96343,-0.15325
7389.89190,-0.25265
7391.82037,-0.18234
7393.74884,-0.08339
7395.67731,-0.12827
7397.60578,-0.23234
7399.53425,-0.13783
7401.46271,0.14527
7403.39118,0.30889
7405.31965,0.22675
7407.24812,0.19980
7409.17659,0.21880
7411.10506,0.12041
7413.03353,0.04284
7414.96199,0.06886
7416.89046,0.06899
7418.81893,-0.02649
7420.74740,0.03722
7422.67587,0.23019
7424.60434,0.28737
7426.53281,0.28145
7428.46128,0.28962
7430.38974,0.21542
7432.31821,0.10724
7434.24668,-0.02764
7436.17515,-0.18331
7438.10362,-0.12995
7440.03209,0.10031
7441.96056,0.26622
7443.88902,0.28070
7445.81749,0.20992
7447.74596,0.21263
7449.67443,0.25749
7451.60290,0.20051
7453.53137,0.12257
7455.45984,0.13324
7457.38831,0.20152
7459.31677,0.21997
7461.24524,0.24151
7463.17371,0.40108
7465.10218,0.43583
7467.03065,0.26052
7468.95912,0.16869
7470.88759,0.20554
7472.81605,0.18542
7474.74452,-0.00841
7476.67299,-0.24766
7478.60146,-0.18212
7480.52993,0.14135
7482.45840,0.11832
7484.38687,-0.13255
7486.31533,-0.11143
7488.24380,0.10966
7490.17227,0.27153
7492.10074,0.31113
7494.02921,0.22344
7495.95768,0.04049
7497.88615,-0.15569
