399.19301,-0.15690
401.12148,0.08394
403.04995,-0.02778
404.97842,-0.14700
406.90689,-0.14173
408.83536,-0.22748
410.76382,-0.34423
412.69229,-0.24111
414.62076,-0.01742
416.54923,0.06749
418.47770,0.04290
420.40617,0.09089
422.33464,0.15257
424.26311,0.17920
426.19157,0.18542
428.12004,0.22409
430.04851,0.26701
431.97698,0.21712
433.90545,0.15299
435.83392,0.14905
437.76239,0.17726
439.69085,0.24131
441.61932,0.31429
443.54779,0.29148
445.47626,0.17558
447.40473,0.08051
449.33320,0.07291
451.26167,0.07944
453.19013,0.04613
455.11860,0.02761
457.04707,0.05436
458.97554,0.09681
460.90401,0.13533
462.83248,0.16748
464.76095,0.13635
466.68942,0.06343
468.61788,0.07803
470.54635,0.21259
472.47482,0.34685
474.40329,0.27511
476.33176,0.15064
478.26023,0.15997
480.18870,0.22245
482.11716,0.24507
484.04563,0.21490
485.97410,0.19333
487.90257,0.18225
489.83104,0.13471
491.75951,0.04924
493.68798,-0.00995
495.61645,-0.00281
497.54491,0.03686
499.47338,0.06487
501.40185,0.07296
503.33032,0.07648
505.25879,0.10241
507.18726,0.12577
509.11573,0.10899
511.04419,0.08767
512.97266,0.10658
514.90113,0.13241
516.82960,0.12247
518.75807,0.13189
520.68654,0.17468
522.61501,0.19509
524.54348,0.18021
526.47194,0.16650
528.40041,0.16777
530.32888,0.16820
532.25735,0.16089
534.18582,0.15181
536.11429,0.14918
538.04276,0.13477
539.97122,0.12885
541.89969,0.14665
543.82816,0.14744
545.75663,0.13224
547.68510,0.12428
549.61357,0.15508
551.54204,0.31245
553.47051,0.48388
555.39897,0.40788
557.32744,0.19466
559.25591,0.10452
561.18438,0.08759
563.11285,0.08074
565.04132,0.11958
566.96979,0.16569
568.89825,0.17292
570.82672,0.16136
572.75519,0.14303
574.68366,0.11832
576.61213,0.09651
578.54060,0.07815
580.46907,0.06230
582.39754,0.06203
584.32600,0.07564
586.25447,0.07438
588.18294,0.07392
590.11141,0.11906
592.03988,0.18107
593.96835,0.19432
595.89682,0.16105
597.82528,0.12044
599.75375,0.11288
601.68222,0.13227
603.61069,0.12947
605.53916,0.10619
607.46763,0.08410
609.39610,0.06903
611.32456,0.06607
613.25303,0.06959
615.18150,0.07626
617.10997,0.10020
619.03844,0.13197
620.96691,0.13384
622.89538,0.11561
624.82385,0.10925
626.75231,0.10655
628.68078,0.09673
630.60925,0.11242
632.53772,0.15457
634.46619,0.16696
636.39466,0.15106
638.32313,0.14078
640.25159,0.14846
642.18006,0.16749
644.10853,0.16847
646.03700,0.15347
647.96547,0.14825
649.89394,0.15007
651.82241,0.14268
653.75088,0.12985
655.67934,0.12466
657.60781,0.12752
659.53628,0.13275
661.46475,0.14134
663.39322,0.15147
665.32169,0.15330
667.25016,0.14914
669.17862,0.16336
671.10709,0.17923
673.03556,0.17448
674.96403,0.16171
676.89250,0.15724
678.82097,0.15243
680.74944,0.13253
682.67791,0.11921
684.60637,0.13553
686.53484,0.15384
688.46331,0.14003
690.39178,0.11801
692.32025,0.11624
694.24872,0.12591
696.17719,0.13763
698.10565,0.14361
700.03412,0.13982
701.96259,0.13325
703.89106,0.12878
705.81953,0.13006
707.74800,0.13068
709.67647,0.12497
711.60494,0.11945
713.53340,0.12105
715.46187,0.13410
717.39034,0.14843
719.31881,0.14565
721.24728,0.12568
723.17575,0.11363
725.10422,0.12359
727.03268,0.14038
728.96115,0.14716
730.88962,0.14781
732.81809,0.15280
734.74656,0.15041
736.67503,0.13642
738.60350,0.13205
740.53197,0.13828
742.46043,0.13804
744.38890,0.13211
746.31737,0.13022
748.24584,0.13611
750.17431,0.14826
752.10278,0.15776
754.03125,0.15737
755.95971,0.14991
757.88818,0.14373
759.81665,0.13952
761.74512,0.13861
763.67359,0.14382
765.60206,0.14075
767.53053,0.13063
769.45900,0.13085
771.38746,0.13782
773.31593,0.14512
775.24440,0.14588
777.17287,0.13512
779.10134,0.13329
781.02981,0.14290
782.95828,0.13922
784.88674,0.12431
786.81521,0.11348
788.74368,0.11244
790.67215,0.11875
792.60062,0.12255
794.52909,0.12322
796.45756,0.12564
798.38602,0.12849
800.31449,0.13403
802.24296,0.14683
804.17143,0.15705
806.09990,0.15364
808.02837,0.14675
809.95684,0.14767
811.88531,0.14879
813.81377,0.14738
815.74224,0.14823
817.67071,0.14524
819.59918,0.14262
821.52765,0.15024
823.45612,0.15375
825.38459,0.14243
827.31305,0.13002
829.24152,0.12630
831.16999,0.12900
833.09846,0.13070
835.02693,0.13144
836.95540,0.13777
838.88387,0.13443
840.81234,0.12323
842.74080,0.13591
844.66927,0.15880
846.59774,0.15500
848.52621,0.13855
850.45468,0.13655
852.38315,0.14377
854.31162,0.14160
856.24008,0.12976
858.16855,0.12662
860.09702,0.13711
862.02549,0.14889
863.95396,0.15639
865.88243,0.15967
867.81090,0.15765
869.73937,0.15168
871.66783,0.14336
873.59630,0.13832
875.52477,0.14274
877.45324,0.15256
879.38171,0.16057
881.31018,0.16150
883.23865,0.15766
885.16711,0.15919
887.09558,0.16161
889.02405,0.15840
890.95252,0.15886
892.88099,0.15549
894.80946,0.14378
896.73793,0.14375
898.66640,0.15349
900.59486,0.15567
902.52333,0.14736
904.45180,0.13674
906.38027,0.13489
908.30874,0.14328
910.23721,0.15495
912.16568,0.16545
914.09414,0.17202
916.02261,0.16993
917.95108,0.16272
919.87955,0.16020
921.80802,0.15738
923.73649,0.14197
925.66496,0.12310
927.59343,0.12014
929.52189,0.13341
931.45036,0.14522
933.37883,0.14443
935.30730,0.14151
937.23577,0.14585
939.16424,0.15146
941.09271,0.15283
943.02117,0.14947
944.94964,0.14810
946.87811,0.15187
948.80658,0.15281
950.73505,0.15249
952.66352,0.15160
954.59199,0.14739
956.52045,0.14892
958.44892,0.15520
960.37739,0.15951
962.30586,0.15899
964.23433,0.15433
966.16280,0.15376
968.09127,0.15242
970.01974,0.14575
971.94820,0.14073
973.87667,0.13724
975.80514,0.13770
977.73361,0.14401
979.66208,0.14530
981.59055,0.13986
983.51902,0.13828
985.44748,0.13683
987.37595,0.13026
989.30442,0.13204
991.23289,0.14550
993.16136,0.15486
995.08983,0.15484
997.01830,0.15091
998.94677,0.14914
1000.87523,0.15145
1002.80370,0.15087
1004.73217,0.14256
1006.66064,0.13494
1008.58911,0.14027
1010.51758,0.15091
1012.44605,0.15021
1014.37451,0.14404
1016.30298,0.14332
1018.23145,0.14551
1020.15992,0.14878
1022.08839,0.14897
1024.01686,0.14272
1025.94533,0.14029
1027.87380,0.14656
1029.80226,0.15439
1031.73073,0.16048
1033.65920,0.16431
1035.58767,0.16182
1037.51614,0.15980
1039.44461,0.16373
1041.37308,0.16157
1043.30154,0.15682
1045.23001,0.15690
1047.15848,0.15437
1049.08695,0.15396
1051.01542,0.15731
1052.94389,0.15626
1054.87236,0.15694
1056.80083,0.16642
1058.72929,0.17322
1060.65776,0.16653
1062.58623,0.15645
1064.51470,0.15485
1066.44317,0.16001
1068.37164,0.16752
1070.30011,0.17368
1072.22857,0.17595
1074.15704,0.17837
1076.08551,0.18220
1078.01398,0.17794
1079.94245,0.16360
1081.87092,0.15016
1083.79939,0.14766
1085.72786,0.15800
1087.65632,0.16771
1089.58479,0.17052
1091.51326,0.17474
1093.44173,0.17291
1095.37020,0.16060
1097.29867,0.15302
1099.22714,0.15328
1101.15560,0.15416
1103.08407,0.15548
1105.01254,0.15802
1106.94101,0.16001
1108.86948,0.15998
1110.79795,0.15967
1112.72642,0.16134
1114.65489,0.16997
1116.58335,0.17990
1118.51182,0.17535
1120.44029,0.16646
1122.36876,0.16729
1124.29723,0.16983
1126.22570,0.16906
1128.15417,0.16372
1130.08263,0.15574
1132.01110,0.15419
1133.93957,0.15712
1135.86804,0.15563
1137.79651,0.15094
1139.72498,0.14695
1141.65345,0.14634
1143.58191,0.15105
1145.51038,0.15434
1147.43885,0.15741
1149.36732,0.16695
1151.29579,0.17046
1153.22426,0.16390
1155.15273,0.15951
1157.08120,0.15811
1159.00966,0.15780
1160.93813,0.16014
1162.86660,0.16237
1164.79507,0.16112
1166.72354,0.16023
1168.65201,0.16599
1170.58048,0.17356
1172.50894,0.17225
1174.43741,0.16194
1176.36588,0.15567
1178.29435,0.15894
1180.22282,0.16425
1182.15129,0.16747
1184.07976,0.16761
1186.00823,0.16476
1187.93669,0.16360
1189.86516,0.16570
1191.79363,0.16787
1193.72210,0.16983
1195.65057,0.17068
1197.57904,0.16920
1199.50751,0.16923
1201.43597,0.17027
1203.36444,0.16872
1205.29291,0.16731
1207.22138,0.16794
1209.14985,0.16874
1211.07832,0.16974
1213.00679,0.17024
1214.93526,0.16806
1216.86372,0.16357
1218.79219,0.15857
1220.72066,0.15476
1222.64913,0.15482
1224.57760,0.15918
1226.50607,0.16571
1228.43454,0.17332
1230.36300,0.17810
1232.29147,0.17591
1234.21994,0.16921
1236.14841,0.16267
1238.07688,0.16024
1240.00535,0.16310
1241.93382,0.16590
1243.86229,0.16377
1245.79075,0.16024
1247.71922,0.16199
1249.64769,0.16683
1251.57616,0.16724
1253.50463,0.16388
1255.43310,0.16201
1257.36157,0.16258
1259.29003,0.16385
1261.21850,0.16582
1263.14697,0.16956
1265.07544,0.17350
1267.00391,0.17538
1268.93238,0.17486
1270.86085,0.17377
1272.78932,0.17428
1274.71778,0.17426
1276.64625,0.17203
1278.57472,0.17187
1280.50319,0.17388
1282.43166,0.17384
1284.36013,0.17481
1286.28860,0.17939
1288.21706,0.18063
1290.14553,0.17499
1292.07400,0.16863
1294.00247,0.16461
1295.93094,0.16271
1297.85941,0.16473
1299.78788,0.16675
1301.71634,0.16389
1303.64481,0.16021
1305.57328,0.16267
1307.50175,0.17007
1309.43022,0.17297
1311.35869,0.17055
1313.28716,0.16952
1315.21563,0.17069
1317.14409,0.17304
1319.07256,0.17535
1321.00103,0.17655
1322.92950,0.17705
1324.85797,0.17445
1326.78644,0.16778
1328.71491,0.16233
1330.64337,0.16213
1332.57184,0.16671
1334.50031,0.17305
1336.42878,0.17611
1338.35725,0.17663
1340.28572,0.17495
1342.21419,0.17478
1344.14266,0.18644
1346.07112,0.19613
1347.99959,0.18650
1349.92806,0.17433
1351.85653,0.17484
1353.78500,0.17668
1355.71347,0.17231
1357.64194,0.17025
1359.57040,0.17640
1361.49887,0.18457
1363.42734,0.18403
1365.35581,0.17754
1367.28428,0.17524
1369.21275,0.17658
1371.14122,0.17814
1373.06969,0.18062
1374.99815,0.18178
1376.92662,0.18009
1378.85509,0.17854
1380.78356,0.17794
1382.71203,0.17867
1384.64050,0.18194
1386.56897,0.18636
1388.49743,0.18709
1390.42590,0.18567
1392.35437,0.18905
1394.28284,0.19692
1396.21131,0.20142
1398.13978,0.19801
1400.06825,0.18807
1401.99672,0.18096
1403.92518,0.18045
1405.85365,0.17874
1407.78212,0.17513
1409.71059,0.17661
1411.63906,0.18138
1413.56753,0.18550
1415.49600,0.19242
1417.42446,0.20026
1419.35293,0.19734
1421.28140,0.19044
1423.20987,0.18866
1425.13834,0.18613
1427.06681,0.18490
1428.99528,0.18834
1430.92375,0.19133
1432.85221,0.19309
1434.78068,0.19726
1436.70915,0.19983
1438.63762,0.19445
1440.56609,0.18552
1442.49456,0.17844
1444.42303,0.17803
1446.35149,0.18351
1448.27996,0.18911
1450.20843,0.19310
1452.13690,0.19867
1454.06537,0.21061
1455.99384,0.23041
1457.92231,0.23338
1459.85077,0.21332
1461.77924,0.20292
1463.70771,0.20304
1465.63618,0.20082
1467.56465,0.19321
1469.49312,0.19399
1471.42159,0.20807
1473.35006,0.21515
1475.27852,0.20079
1477.20699,0.18964
1479.13546,0.18775
1481.06393,0.18694
1482.99240,0.18397
1484.92087,0.18547
1486.84934,0.19548
1488.77780,0.20816
1490.70627,0.20728
1492.63474,0.19625
1494.56321,0.19190
1496.49168,0.19579
1498.42015,0.19490
1500.34862,0.18313
1502.27709,0.17554
1504.20555,0.17751
1506.13402,0.18849
1508.06249,0.21098
1509.99096,0.21619
1511.91943,0.21135
1513.84790,0.21097
1515.77637,0.21545
1517.70483,0.22014
1519.63330,0.22504
1521.56177,0.23089
1523.49024,0.22719
1525.41871,0.21872
1527.34718,0.21152
1529.27565,0.20618
1531.20412,0.20740
1533.13258,0.21195
1535.06105,0.21351
1536.98952,0.22412
1538.91799,0.25497
1540.84646,0.27631
1542.77493,0.25105
1544.70340,0.21937
1546.63186,0.19924
1548.56033,0.19461
1550.48880,0.19732
1552.41727,0.20280
1554.34574,0.21612
1556.27421,0.23501
1558.20268,0.24225
1560.13115,0.21794
1562.05961,0.20610
1563.98808,0.20340
1565.91655,0.20023
1567.84502,0.20299
1569.77349,0.20640
1571.70196,0.19876
1573.63043,0.19565
1575.55889,0.20420
1577.48736,0.20363
1579.41583,0.18803
1581.34430,0.17802
1583.27277,0.17895
1585.20124,0.18182
1587.12971,0.18119
1589.05818,0.18133
1590.98664,0.18533
1592.91511,0.18878
1594.84358,0.18622
1596.77205,0.18075
1598.70052,0.17876
1600.62899,0.18100
1602.55746,0.18546
1604.48592,0.18941
1606.41439,0.19095
1608.34286,0.19138
1610.27133,0.19056
1612.19980,0.19029
1614.12827,0.19663
1616.05674,0.20784
1617.98521,0.20596
1619.91367,0.19756
1621.84214,0.19910
1623.77061,0.20393
1625.69908,0.20207
1627.62755,0.19793
1629.55602,0.19457
1631.48449,0.19562
1633.41295,0.20562
1635.34142,0.22220
1637.26989,0.21808
1639.19836,0.20119
1641.12683,0.19557
1643.05530,0.20324
1644.98377,0.22043
1646.91223,0.23385
1648.84070,0.22792
1650.76917,0.22278
1652.69764,0.22484
1654.62611,0.21365
1656.55458,0.19959
1658.48305,0.19743
1660.41152,0.20788
1662.33998,0.21801
1664.26845,0.20953
1666.19692,0.20031
1668.12539,0.21003
1670.05386,0.22519
1671.98233,0.22318
1673.91080,0.21820
1675.83926,0.21254
1677.76773,0.20692
1679.69620,0.21008
1681.62467,0.22238
1683.55314,0.23396
1685.48161,0.22712
1687.41008,0.21822
1689.33855,0.21265
1691.26701,0.20555
1693.19548,0.20592
1695.12395,0.21979
1697.05242,0.23419
1698.98089,0.23534
1700.90936,0.22701
1702.83783,0.22144
1704.76629,0.22155
1706.69476,0.21608
1708.62323,0.20710
1710.55170,0.20319
1712.48017,0.20350
1714.40864,0.20989
1716.33711,0.21927
1718.26558,0.21156
1720.19404,0.19867
1722.12251,0.19627
1724.05098,0.19572
1725.97945,0.19059
1727.90792,0.18778
1729.83639,0.19397
1731.76486,0.20713
1733.69332,0.21896
1735.62179,0.21470
1737.55026,0.20574
1739.47873,0.20393
1741.40720,0.20733
1743.33567,0.20979
1745.26414,0.20959
1747.19261,0.21036
1749.12107,0.21514
1751.04954,0.21355
1752.97801,0.20181
1754.90648,0.19538
1756.83495,0.19757
1758.76342,0.20015
1760.69189,0.20193
1762.62035,0.20049
1764.54882,0.19513
1766.47729,0.19476
1768.40576,0.20196
1770.33423,0.21161
1772.26270,0.21451
1774.19117,0.20751
1776.11964,0.19948
1778.04810,0.19471
1779.97657,0.19372
1781.90504,0.19454
1783.83351,0.19499
1785.76198,0.19261
1787.69045,0.19065
1789.61892,0.19732
1791.54738,0.20933
1793.47585,0.20931
1795.40432,0.20015
1797.33279,0.19520
1799.26126,0.19468
1801.18973,0.19286
1803.11820,0.18802
1805.04666,0.18646
1806.97513,0.19000
1808.90360,0.19446
1810.83207,0.19588
1812.76054,0.19179
1814.68901,0.18717
1816.61748,0.18637
1818.54595,0.18332
1820.47441,0.17928
1822.40288,0.18493
1824.33135,0.19386
1826.25982,0.19599
1828.18829,0.19917
1830.11676,0.20100
1832.04523,0.19499
1833.97369,0.19032
1835.90216,0.18964
1837.83063,0.18917
1839.75910,0.18927
1841.68757,0.19259
1843.61604,0.19714
1845.54451,0.19789
1847.47298,0.19522
1849.40144,0.19245
1851.32991,0.19135
1853.25838,0.19052
1855.18685,0.18836
1857.11532,0.18891
1859.04379,0.19332
1860.97226,0.19576
1862.90072,0.19523
1864.82919,0.19719
1866.75766,0.20372
1868.68613,0.20623
1870.61460,0.19808
1872.54307,0.19012
1874.47154,0.18788
1876.40001,0.18773
1878.32847,0.18842
1880.25694,0.19031
1882.18541,0.19028
1884.11388,0.18845
1886.04235,0.18782
1887.97082,0.18822
1889.89929,0.18666
1891.82775,0.18573
1893.75622,0.19050
1895.68469,0.19516
1897.61316,0.19421
1899.54163,0.19083
1901.47010,0.18730
1903.39857,0.18505
1905.32704,0.18552
1907.25550,0.18938
1909.18397,0.19473
1911.11244,0.19707
1913.04091,0.19420
1914.96938,0.18943
1916.89785,0.18756
1918.82632,0.18896
1920.75478,0.19239
1922.68325,0.19530
1924.61172,0.19319
1926.54019,0.18954
1928.46866,0.18984
1930.39713,0.19280
1932.32560,0.19380
1934.25407,0.19143
1936.18253,0.18875
1938.11100,0.18801
1940.03947,0.18991
1941.96794,0.19262
1943.89641,0.19218
1945.82488,0.19067
1947.75335,0.19093
1949.68181,0.19176
1951.61028,0.19235
1953.53875,0.19255
1955.46722,0.19130
1957.39569,0.18862
1959.32416,0.18783
1961.25263,0.18938
1963.18110,0.18907
1965.10956,0.18776
1967.03803,0.18973
1968.96650,0.19175
1970.89497,0.19025
1972.82344,0.18840
1974.75191,0.19038
1976.68038,0.19584
1978.60884,0.19892
1980.53731,0.19694
1982.46578,0.19191
1984.39425,0.18704
1986.32272,0.18511
1988.25119,0.18610
1990.17966,0.18933
1992.10812,0.19116
1994.03659,0.18985
1995.96506,0.18989
1997.89353,0.19207
1999.82200,0.19379
2001.75047,0.19436
2003.67894,0.19398
2005.60741,0.19203
2007.53587,0.18987
2009.46434,0.19126
2011.39281,0.19550
2013.32128,0.19714
2015.24975,0.19593
2017.17822,0.19419
2019.10669,0.19113
2021.03515,0.18890
2022.96362,0.18852
2024.89209,0.18779
2026.82056,0.18767
2028.74903,0.18961
2030.67750,0.19144
2032.60597,0.19184
2034.53444,0.19164
2036.46290,0.18995
2038.39137,0.18765
2040.31984,0.18768
2042.24831,0.18929
2044.17678,0.18901
2046.10525,0.18623
2048.03372,0.18437
2049.96218,0.18527
2051.89065,0.18750
2053.81912,0.18999
2055.74759,0.19198
2057.67606,0.19353
2059.60453,0.19428
2061.53300,0.19324
2063.46147,0.19349
2065.38993,0.19565
2067.31840,0.19552
2069.24687,0.19441
2071.17534,0.19452
2073.10381,0.19345
2075.03228,0.19159
2076.96075,0.19182
2078.88921,0.19231
2080.81768,0.19141
2082.74615,0.19162
2084.67462,0.19187
2086.60309,0.18974
2088.53156,0.18860
2090.46003,0.19048
2092.38850,0.19167
2094.31696,0.19171
2096.24543,0.19202
2098.17390,0.19114
2100.10237,0.19022
2102.03084,0.19043
2103.95931,0.18996
2105.88778,0.18877
2107.81624,0.18906
2109.74471,0.19020
2111.67318,0.18993
2113.60165,0.19046
2115.53012,0.19296
2117.45859,0.19202
2119.38706,0.18712
2121.31553,0.18569
2123.24399,0.18942
2125.17246,0.19304
2127.10093,0.19370
2129.02940,0.19263
2130.95787,0.19127
2132.88634,0.18878
2134.81481,0.18574
2136.74327,0.18474
2138.67174,0.18604
2140.60021,0.18865
2142.52868,0.19190
2144.45715,0.19415
2146.38562,0.19370
2148.31409,0.19244
2150.24255,0.19349
2152.17102,0.19498
2154.09949,0.19436
2156.02796,0.19244
2157.95643,0.19040
2159.88490,0.18870
2161.81337,0.18831
2163.74184,0.18965
2165.67030,0.19148
2167.59877,0.19341
2169.52724,0.19518
2171.45571,0.19501
2173.38418,0.19341
2175.31265,0.19211
2177.24112,0.19051
2179.16958,0.18844
2181.09805,0.18644
2183.02652,0.18502
2184.95499,0.18664
2186.88346,0.19058
2188.81193,0.19153
2190.74040,0.18778
2192.66887,0.18346
2194.59733,0.18377
2196.52580,0.18761
2198.45427,0.18856
2200.38274,0.18676
2202.31121,0.18729
2204.23968,0.18940
2206.16815,0.19010
2208.09661,0.18927
2210.02508,0.18822
2211.95355,0.18816
2213.88202,0.18780
2215.81049,0.18597
2217.73896,0.18533
2219.66743,0.18741
2221.59590,0.18939
2223.52436,0.18887
2225.45283,0.18711
2227.38130,0.18630
2229.30977,0.18656
2231.23824,0.18690
2233.16671,0.18714
2235.09518,0.18921
2237.02364,0.19279
2238.95211,0.19515
2240.88058,0.19682
2242.80905,0.19754
2244.73752,0.19607
2246.66599,0.19376
2248.59446,0.19186
2250.52293,0.19137
2252.45139,0.19285
2254.37986,0.19581
2256.30833,0.19893
2258.23680,0.19907
2260.16527,0.19512
2262.09374,0.19156
2264.02221,0.19180
2265.95067,0.19312
2267.87914,0.19161
2269.80761,0.18912
2271.73608,0.19054
2273.66455,0.19493
2275.59302,0.19758
2277.52149,0.19636
2279.44996,0.19386
2281.37842,0.19326
2283.30689,0.19375
2285.23536,0.19354
2287.16383,0.19283
2289.09230,0.19292
2291.02077,0.19423
2292.94924,0.19715
2294.87770,0.20066
2296.80617,0.20012
2298.73464,0.19598
2300.66311,0.19529
2302.59158,0.19897
2304.52005,0.20183
2306.44852,0.20080
2308.37699,0.19656
2310.30545,0.19277
2312.23392,0.19268
2314.16239,0.19676
2316.09086,0.20352
2318.01933,0.21174
2319.94780,0.21915
2321.87627,0.22171
2323.80473,0.21785
2325.73320,0.21033
2327.66167,0.20515
2329.59014,0.20413
2331.51861,0.20782
2333.44708,0.21964
2335.37555,0.23487
2337.30401,0.23573
2339.23248,0.21302
2341.16095,0.18849
2343.08942,0.18090
2345.01789,0.18700
2346.94636,0.19348
2348.87483,0.19380
2350.80330,0.19633
2352.73176,0.20770
2354.66023,0.21651
2356.58870,0.20937
2358.51717,0.19710
2360.44564,0.19766
2362.37411,0.21218
2364.30258,0.22643
2366.23104,0.23072
2368.15951,0.22566
2370.08798,0.21457
2372.01645,0.20152
2373.94492,0.19378
2375.87339,0.19322
2377.80186,0.19507
2379.73033,0.19699
2381.65879,0.19632
2383.58726,0.19227
2385.51573,0.18908
2387.44420,0.18841
2389.37267,0.18839
2391.30114,0.18882
2393.22961,0.19074
2395.15807,0.19279
2397.08654,0.19299
2399.01501,0.19262
2400.94348,0.19314
2402.87195,0.19374
2404.80042,0.19433
2406.72889,0.19589
2408.65736,0.19679
2410.58582,0.19541
2412.51429,0.19304
2414.44276,0.19020
2416.37123,0.18773
2418.29970,0.18798
2420.22817,0.19069
2422.15664,0.19226
2424.08510,0.19066
2426.01357,0.18809
2427.94204,0.18769
2429.87051,0.18875
2431.79898,0.18804
2433.72745,0.18720
2435.65592,0.18875
2437.58439,0.18913
2439.51285,0.18880
2441.44132,0.19099
2443.36979,0.19239
2445.29826,0.19281
2447.22673,0.19406
2449.15520,0.19308
2451.08367,0.18995
2453.01213,0.18804
2454.94060,0.18838
2456.86907,0.18920
2458.79754,0.18926
2460.72601,0.18885
2462.65448,0.18890
2464.58295,0.19099
2466.51142,0.19407
2468.43988,0.19573
2470.36835,0.19596
2472.29682,0.19605
2474.22529,0.19605
2476.15376,0.19503
2478.08223,0.19310
2480.01070,0.19161
2481.93916,0.19082
2483.86763,0.18846
2485.79610,0.18519
2487.72457,0.18539
2489.65304,0.18830
2491.58151,0.18967
2493.50998,0.18980
2495.43844,0.19026
2497.36691,0.19001
2499.29538,0.18790
2501.22385,0.18750
2503.15232,0.19330
2505.08079,0.20067
2507.00926,0.20197
2508.93773,0.19839
2510.86619,0.19554
2512.79466,0.19383
2514.72313,0.19234
2516.65160,0.19185
2518.58007,0.19112
2520.50854,0.19033
2522.43701,0.19042
2524.36547,0.19193
2526.29394,0.19394
2528.22241,0.19391
2530.15088,0.19255
2532.07935,0.19043
2534.00782,0.18869
2535.93629,0.18997
2537.86476,0.19228
2539.79322,0.19216
2541.72169,0.18999
2543.65016,0.18865
2545.57863,0.18904
2547.50710,0.18971
2549.43557,0.19106
2551.36404,0.19328
2553.29250,0.19407
2555.22097,0.19357
2557.14944,0.19359
2559.07791,0.19432
2561.00638,0.19536
2562.93485,0.19599
2564.86332,0.19608
2566.79179,0.19518
2568.72025,0.19276
2570.64872,0.19018
2572.57719,0.18930
2574.50566,0.19134
2576.43413,0.19378
2578.36260,0.19299
2580.29107,0.19200
2582.21953,0.19362
2584.14800,0.19521
2586.07647,0.19564
2588.00494,0.19566
2589.93341,0.19516
2591.86188,0.19293
2593.79035,0.18890
2595.71882,0.18672
2597.64728,0.18901
2599.57575,0.19295
2601.50422,0.19542
2603.43269,0.19647
2605.36116,0.19599
2607.28963,0.19542
2609.21810,0.19750
2611.14656,0.20000
2613.07503,0.19831
2615.00350,0.19487
2616.93197,0.19531
2618.86044,0.19652
2620.78891,0.19473
2622.71738,0.19398
2624.64585,0.19438
2626.57431,0.19241
2628.50278,0.19156
2630.43125,0.19404
2632.35972,0.19395
2634.28819,0.18899
2636.21666,0.18599
2638.14513,0.19073
2640.07359,0.19837
2642.00206,0.20018
2643.93053,0.19703
2645.85900,0.19421
2647.78747,0.19263
2649.71594,0.19375
2651.64441,0.19711
2653.57288,0.19760
2655.50134,0.19598
2657.42981,0.19685
2659.35828,0.19840
2661.28675,0.19810
2663.21522,0.19553
2665.14369,0.19145
2667.07216,0.19242
2669.00062,0.19973
2670.92909,0.20381
2672.85756,0.20242
2674.78603,0.20131
2676.71450,0.20077
2678.64297,0.19908
2680.57144,0.19893
2682.49990,0.20129
2684.42837,0.20175
2686.35684,0.19971
2688.28531,0.19924
2690.21378,0.19934
2692.14225,0.19804
2694.07072,0.19882
2695.99919,0.20123
2697.92765,0.20089
2699.85612,0.19996
2701.78459,0.20127
2703.71306,0.20174
2705.64153,0.19988
2707.57000,0.19869
2709.49847,0.19938
2711.42693,0.20107
2713.35540,0.20223
2715.28387,0.20095
2717.21234,0.19833
2719.14081,0.19609
2721.06928,0.19542
2722.99775,0.19693
2724.92622,0.19915
2726.85468,0.20067
2728.78315,0.20027
2730.71162,0.19912
2732.64009,0.20154
2734.56856,0.20499
2736.49703,0.20334
2738.42550,0.19911
2740.35396,0.19675
2742.28243,0.19744
2744.21090,0.20043
2746.13937,0.20199
2748.06784,0.20086
2749.99631,0.19973
2751.92478,0.20016
2753.85325,0.20069
2755.78171,0.19998
2757.71018,0.19943
2759.63865,0.20092
2761.56712,0.20333
2763.49559,0.20502
2765.42406,0.20498
2767.35253,0.20328
2769.28099,0.20383
2771.20946,0.20440
2773.13793,0.20093
2775.06640,0.19887
2776.99487,0.20063
2778.92334,0.20309
2780.85181,0.20332
2782.78028,0.20056
2784.70874,0.19938
2786.63721,0.20203
2788.56568,0.20626
2790.49415,0.21046
2792.42262,0.21112
2794.35109,0.20786
2796.27956,0.20638
2798.20802,0.20700
2800.13649,0.20656
2802.06496,0.20604
2803.99343,0.20568
2805.92190,0.20538
2807.85037,0.20630
2809.77884,0.20653
2811.70731,0.20295
2813.63577,0.19798
2815.56424,0.19758
2817.49271,0.20259
2819.42118,0.20772
2821.34965,0.20862
2823.27812,0.20756
2825.20659,0.20713
2827.13505,0.20557
2829.06352,0.20383
2830.99199,0.20407
2832.92046,0.20445
2834.84893,0.20351
2836.77740,0.20298
2838.70587,0.20383
2840.63433,0.20441
2842.56280,0.20476
2844.49127,0.20516
2846.41974,0.20393
2848.34821,0.20373
2850.27668,0.20631
2852.20515,0.20669
2854.13362,0.20353
2856.06208,0.20057
2857.99055,0.19939
2859.91902,0.19961
2861.84749,0.20090
2863.77596,0.20292
2865.70443,0.20590
2867.63290,0.20981
2869.56136,0.21085
2871.48983,0.20673
2873.41830,0.20285
2875.34677,0.20376
2877.27524,0.20659
2879.20371,0.20566
2881.13218,0.20222
2883.06065,0.20327
2884.98911,0.20693
2886.91758,0.20683
2888.84605,0.20471
2890.77452,0.20343
2892.70299,0.20118
2894.63146,0.20010
2896.55993,0.20427
2898.48839,0.20744
2900.41686,0.20439
2902.34533,0.20136
2904.27380,0.20098
2906.20227,0.20026
2908.13074,0.20110
2910.05921,0.20446
2911.98768,0.20681
2913.91614,0.20645
2915.84461,0.20378
2917.77308,0.20058
2919.70155,0.20024
2921.63002,0.20407
2923.55849,0.20609
2925.48696,0.19981
2927.41542,0.19123
2929.34389,0.18924
2931.27236,0.19543
2933.20083,0.20378
2935.12930,0.20280
2937.05777,0.19440
2938.98624,0.19275
2940.91471,0.19991
2942.84317,0.20481
2944.77164,0.20174
2946.70011,0.19770
2948.62858,0.19850
2950.55705,0.20191
2952.48552,0.20542
2954.41399,0.20508
2956.34245,0.20008
2958.27092,0.19901
2960.19939,0.20358
2962.12786,0.20496
2964.05633,0.20347
2965.98480,0.20587
2967.91327,0.20867
2969.84174,0.20708
2971.77020,0.20601
2973.69867,0.20810
2975.62714,0.20755
2977.55561,0.20247
2979.48408,0.19991
2981.41255,0.20502
2983.34102,0.21481
2985.26948,0.22083
2987.19795,0.21744
2989.12642,0.21120
2991.05489,0.21140
2992.98336,0.21408
2994.91183,0.21142
2996.84030,0.20737
2998.76877,0.20770
3000.69723,0.20869
3002.62570,0.20772
3004.55417,0.20798
3006.48264,0.20992
3008.41111,0.21032
3010.33958,0.20564
3012.26805,0.19367
3014.19651,0.17521
3016.12498,0.15980
3018.05345,0.16330
3019.98192,0.18244
3021.91039,0.19780
3023.83886,0.20699
3025.76733,0.21498
3027.69579,0.21718
3029.62426,0.21572
3031.55273,0.21711
3033.48120,0.21665
3035.40967,0.21102
3037.33814,0.20890
3039.26661,0.21324
3041.19508,0.21545
3043.12354,0.21285
3045.05201,0.20932
3046.98048,0.20638
3048.90895,0.20691
3050.83742,0.21158
3052.76589,0.21400
3054.69436,0.21053
3056.62282,0.20568
3058.55129,0.20508
3060.47976,0.20589
3062.40823,0.20326
3064.33670,0.19963
3066.26517,0.19902
3068.19364,0.20371
3070.12211,0.21136
3072.05057,0.21510
3073.97904,0.21091
3075.90751,0.20420
3077.83598,0.20483
3079.76445,0.21019
3081.69292,0.20945
3083.62139,0.20254
3085.54985,0.20070
3087.47832,0.20612
3089.40679,0.20828
3091.33526,0.20714
3093.26373,0.20536
3095.19220,0.20285
3097.12067,0.20832
3099.04914,0.21873
3100.97760,0.22028
3102.90607,0.21366
3104.83454,0.21131
3106.76301,0.21719
3108.69148,0.22067
3110.61995,0.21447
3112.54842,0.20722
3114.47688,0.20777
3116.40535,0.21111
3118.33382,0.21125
3120.26229,0.20917
3122.19076,0.20821
3124.11923,0.21247
3126.04770,0.21869
3127.97617,0.21791
3129.90463,0.20838
3131.83310,0.20083
3133.76157,0.20324
3135.69004,0.20706
3137.61851,0.20644
3139.54698,0.20642
3141.47545,0.20909
3143.40391,0.21328
3145.33238,0.21671
3147.26085,0.21723
3149.18932,0.21634
3151.11779,0.21448
3153.04626,0.21155
3154.97473,0.21207
3156.90320,0.21773
3158.83166,0.22196
3160.76013,0.21895
3162.68860,0.21440
3164.61707,0.21537
3166.54554,0.21668
3168.47401,0.21507
3170.40248,0.21698
3172.33094,0.22060
3174.25941,0.21781
3176.18788,0.21296
3178.11635,0.21477
3180.04482,0.22051
3181.97329,0.22198
3183.90176,0.21795
3185.83022,0.21269
3187.75869,0.20943
3189.68716,0.21087
3191.61563,0.21595
3193.54410,0.21857
3195.47257,0.21608
3197.40104,0.21373
3199.32951,0.21535
3201.25797,0.21639
3203.18644,0.21693
3205.11491,0.22050
3207.04338,0.22143
3208.97185,0.21734
3210.90032,0.21489
3212.82879,0.21501
3214.75725,0.21556
3216.68572,0.21877
3218.61419,0.22260
3220.54266,0.22440
3222.47113,0.22305
3224.39960,0.21363
3226.32807,0.20312
3228.25654,0.20350
3230.18500,0.21010
3232.11347,0.21665
3234.04194,0.22359
3235.97041,0.22700
3237.89888,0.22400
3239.82735,0.21978
3241.75582,0.21972
3243.68428,0.22264
3245.61275,0.22238
3247.54122,0.21762
3249.46969,0.21315
3251.39816,0.21211
3253.32663,0.21523
3255.25510,0.21626
3257.18357,0.21194
3259.11203,0.21009
3261.04050,0.21254
3262.96897,0.21519
3264.89744,0.21723
3266.82591,0.21919
3268.75438,0.21853
3270.68285,0.21419
3272.61131,0.21276
3274.53978,0.21631
3276.46825,0.21882
3278.39672,0.21694
3280.32519,0.21214
3282.25366,0.20866
3284.18213,0.20960
3286.11060,0.21365
3288.03906,0.21805
3289.96753,0.21927
3291.89600,0.21602
3293.82447,0.21314
3295.75294,0.21525
3297.68141,0.22018
3299.60988,0.21910
3301.53834,0.21274
3303.46681,0.21267
3305.39528,0.21832
3307.32375,0.22188
3309.25222,0.22108
3311.18069,0.21672
3313.10916,0.21275
3315.03763,0.21212
3316.96609,0.21197
3318.89456,0.20845
3320.82303,0.20498
3322.75150,0.20616
3324.67997,0.20913
3326.60844,0.21011
3328.53691,0.21014
3330.46537,0.21068
3332.39384,0.21190
3334.32231,0.21467
3336.25078,0.21573
3338.17925,0.21304
3340.10772,0.21119
3342.03619,0.21199
3343.96466,0.21382
3345.89312,0.21363
3347.82159,0.21152
3349.75006,0.21131
3351.67853,0.21220
3353.60700,0.21311
3355.53547,0.21490
3357.46394,0.21596
3359.39240,0.21682
3361.32087,0.21852
3363.24934,0.21810
3365.17781,0.21810
3367.10628,0.22180
3369.03475,0.22348
3370.96322,0.22162
3372.89168,0.21693
3374.82015,0.20900
3376.74862,0.20468
3378.67709,0.20610
3380.60556,0.20768
3382.53403,0.20916
3384.46250,0.21391
3386.39097,0.22052
3388.31943,0.22322
3390.24790,0.21990
3392.17637,0.21671
3394.10484,0.21829
3396.03331,0.21944
3397.96178,0.21721
3399.89025,0.21666
3401.81871,0.21589
3403.74718,0.20987
3405.67565,0.20612
3407.60412,0.20827
3409.53259,0.20756
3411.46106,0.20307
3413.38953,0.20245
3415.31800,0.20652
3417.24646,0.20838
3419.17493,0.20628
3421.10340,0.20578
3423.03187,0.20704
3424.96034,0.20631
3426.88881,0.20551
3428.81728,0.20802
3430.74574,0.21388
3432.67421,0.21938
3434.60268,0.21810
3436.53115,0.20977
3438.45962,0.20364
3440.38809,0.20639
3442.31656,0.21277
3444.24503,0.21389
3446.17349,0.20864
3448.10196,0.20224
3450.03043,0.19938
3451.95890,0.19946
3453.88737,0.19750
3455.81584,0.19158
3457.74431,0.18904
3459.67277,0.19268
3461.60124,0.19632
3463.52971,0.20052
3465.45818,0.20523
3467.38665,0.20351
3469.31512,0.19632
3471.24359,0.19045
3473.17206,0.18999
3475.10052,0.19599
3477.02899,0.20216
3478.95746,0.20357
3480.88593,0.20264
3482.81440,0.19948
3484.74287,0.19637
3486.67134,0.19598
3488.59980,0.19405
3490.52827,0.18985
3492.45674,0.18751
3494.38521,0.18663
3496.31368,0.18456
3498.24215,0.18520
3500.17062,0.19232
3502.09909,0.19957
3504.02755,0.19986
3505.95602,0.19524
3507.88449,0.19114
3509.81296,0.18960
3511.74143,0.18567
3513.66990,0.17928
3515.59837,0.17903
3517.52683,0.17942
3519.45530,0.17457
3521.38377,0.17581
3523.31224,0.18348
3525.24071,0.18693
3527.16918,0.18704
3529.09765,0.18677
3531.02611,0.18373
3532.95458,0.17840
3534.88305,0.17454
3536.81152,0.17465
3538.73999,0.17721
3540.66846,0.17662
3542.59693,0.17309
3544.52540,0.17313
3546.45386,0.17725
3548.38233,0.17890
3550.31080,0.17540
3552.23927,0.17002
3554.16774,0.16554
3556.09621,0.16300
3558.02468,0.16611
3559.95314,0.17145
3561.88161,0.17136
3563.81008,0.17309
3565.73855,0.18398
3567.66702,0.18838
3569.59549,0.17746
3571.52396,0.16684
3573.45243,0.15888
3575.38089,0.15107
3577.30936,0.14778
3579.23783,0.14984
3581.16630,0.15340
3583.09477,0.15804
3585.02324,0.16547
3586.95171,0.17347
3588.88017,0.17196
3590.80864,0.16359
3592.73711,0.15925
3594.66558,0.16153
3596.59405,0.16342
3598.52252,0.16020
3600.45099,0.15716
3602.37946,0.15593
3604.30792,0.15532
3606.23639,0.15905
3608.16486,0.16342
3610.09333,0.16110
3612.02180,0.15962
3613.95027,0.15890
3615.87874,0.15569
3617.80720,0.15805
3619.73567,0.16342
3621.66414,0.16149
3623.59261,0.15745
3625.52108,0.15782
3627.44955,0.16295
3629.37802,0.16205
3631.30649,0.15088
3633.23495,0.14169
3635.16342,0.13748
3637.09189,0.13906
3639.02036,0.14567
3640.94883,0.15274
3642.87730,0.15549
3644.80577,0.15802
3646.73423,0.16864
3648.66270,0.18214
3650.59117,0.17202
3652.51964,0.15211
3654.44811,0.14370
3656.37658,0.14380
3658.30505,0.14271
3660.23352,0.13905
3662.16198,0.13521
3664.09045,0.13455
3666.01892,0.13886
3667.94739,0.14317
3669.87586,0.14333
3671.80433,0.14248
3673.73280,0.14649
3675.66126,0.15448
3677.58973,0.15584
3679.51820,0.15099
3681.44667,0.14488
3683.37514,0.14315
3685.30361,0.14862
3687.23208,0.15515
3689.16055,0.15551
3691.08901,0.15009
3693.01748,0.14222
3694.94595,0.13315
3696.87442,0.12684
3698.80289,0.13040
3700.73136,0.14231
3702.65983,0.14635
3704.58829,0.13899
3706.51676,0.13356
3708.44523,0.13742
3710.37370,0.15150
3712.30217,0.15561
3714.23064,0.14354
3716.15911,0.13407
3718.08757,0.12904
3720.01604,0.12824
3721.94451,0.13382
3723.87298,0.14074
3725.80145,0.14414
3727.72992,0.14468
3729.65839,0.14417
3731.58686,0.14615
3733.51532,0.15503
3735.44379,0.16531
3737.37226,0.16433
3739.30073,0.15838
3741.22920,0.15632
3743.15767,0.15777
3745.08614,0.15687
3747.01460,0.15392
3748.94307,0.15777
3750.87154,0.16849
3752.80001,0.16813
3754.72848,0.15845
3756.65695,0.15153
3758.58542,0.14827
3760.51389,0.14346
3762.44235,0.13797
3764.37082,0.13572
3766.29929,0.13660
3768.22776,0.13875
3770.15623,0.13608
3772.08470,0.12814
3774.01317,0.12492
3775.94163,0.13007
3777.87010,0.13962
3779.79857,0.14084
3781.72704,0.13269
3783.65551,0.12942
3785.58398,0.13065
3787.51245,0.13140
3789.44092,0.13183
3791.36938,0.12995
3793.29785,0.12818
3795.22632,0.13067
3797.15479,0.13191
3799.08326,0.12862
3801.01173,0.12822
3802.94020,0.13284
3804.86866,0.13526
3806.79713,0.13418
3808.72560,0.13161
3810.65407,0.12865
3812.58254,0.12599
3814.51101,0.12687
3816.43948,0.13728
3818.36795,0.15571
3820.29641,0.16866
3822.22488,0.15731
3824.15335,0.13785
3826.08182,0.12954
3828.01029,0.12734
3829.93876,0.12546
3831.86723,0.12673
3833.79569,0.13233
3835.72416,0.13841
3837.65263,0.14151
3839.58110,0.13884
3841.50957,0.13574
3843.43804,0.13432
3845.36651,0.13013
3847.29498,0.12506
3849.22344,0.12542
3851.15191,0.13511
3853.08038,0.15074
3855.00885,0.14800
3856.93732,0.13102
3858.86579,0.11722
3860.79426,0.11531
3862.72272,0.12639
3864.65119,0.13843
3866.57966,0.14246
3868.50813,0.14347
3870.43660,0.14379
3872.36507,0.13913
3874.29354,0.13246
3876.22200,0.12846
3878.15047,0.12734
3880.07894,0.12684
3882.00741,0.12472
3883.93588,0.12654
3885.86435,0.12758
3887.79282,0.12080
3889.72129,0.11753
3891.64975,0.11965
3893.57822,0.12189
3895.50669,0.12686
3897.43516,0.13401
3899.36363,0.13748
3901.29210,0.13480
3903.22057,0.13101
3905.14903,0.12635
3907.07750,0.11976
3909.00597,0.11832
3910.93444,0.12358
3912.86291,0.12675
3914.79138,0.12495
3916.71985,0.12241
3918.64832,0.11823
3920.57678,0.11180
3922.50525,0.10958
3924.43372,0.11288
3926.36219,0.11218
3928.29066,0.10761
3930.21913,0.10722
3932.14760,0.11032
3934.07606,0.11296
3936.00453,0.11632
3937.93300,0.12136
3939.86147,0.12425
3941.78994,0.12320
3943.71841,0.12018
3945.64688,0.11626
3947.57535,0.11423
3949.50381,0.11470
3951.43228,0.11385
3953.36075,0.11162
3955.28922,0.11136
3957.21769,0.11216
3959.14616,0.11003
3961.07463,0.10649
3963.00309,0.10544
3964.93156,0.10702
3966.86003,0.10859
3968.78850,0.10967
3970.71697,0.11270
3972.64544,0.11701
3974.57391,0.11837
3976.50238,0.11357
3978.43084,0.10672
3980.35931,0.10453
3982.28778,0.10729
3984.21625,0.11111
3986.14472,0.11193
3988.07319,0.10873
3990.00166,0.10425
3991.93012,0.10243
3993.85859,0.10384
3995.78706,0.10471
3997.71553,0.10318
3999.64400,0.10088
4001.57247,0.10001
4003.50094,0.10084
4005.42941,0.10085
4007.35787,0.09994
4009.28634,0.10216
4011.21481,0.10687
4013.14328,0.10893
4015.07175,0.10905
4017.00022,0.11001
4018.92869,0.10886
4020.85715,0.10567
4022.78562,0.10440
4024.71409,0.10507
4026.64256,0.10544
4028.57103,0.10303
4030.49950,0.10088
4032.42797,0.10299
4034.35644,0.10590
4036.28490,0.10589
4038.21337,0.10253
4040.14184,0.10176
4042.07031,0.10806
4043.99878,0.11230
4045.92725,0.10839
4047.85572,0.10239
4049.78418,0.09848
4051.71265,0.09526
4053.64112,0.09243
4055.56959,0.09368
4057.49806,0.09761
4059.42653,0.09951
4061.35500,0.10076
4063.28346,0.09924
4065.21193,0.09395
4067.14040,0.09124
4069.06887,0.09257
4070.99734,0.09630
4072.92581,0.10031
4074.85428,0.10111
4076.78275,0.09923
4078.71121,0.09808
4080.63968,0.09678
4082.56815,0.09340
4084.49662,0.09179
4086.42509,0.09255
4088.35356,0.09445
4090.28203,0.09786
4092.21049,0.09727
4094.13896,0.09219
4096.06743,0.09015
4097.99590,0.09220
4099.92437,0.09430
4101.85284,0.09594
4103.78131,0.09716
4105.70978,0.09531
4107.63824,0.09226
4109.56671,0.09425
4111.49518,0.09879
4113.42365,0.09976
4115.35212,0.09766
4117.28059,0.09372
4119.20906,0.09212
4121.13752,0.09492
4123.06599,0.09395
4124.99446,0.08843
4126.92293,0.08679
4128.85140,0.08862
4130.77987,0.08737
4132.70834,0.08699
4134.63681,0.09339
4136.56527,0.09797
4138.49374,0.09639
4140.42221,0.09353
4142.35068,0.08776
4144.27915,0.08033
4146.20762,0.07626
4148.13609,0.07435
4150.06455,0.07340
4151.99302,0.07756
4153.92149,0.08798
4155.84996,0.09527
4157.77843,0.09328
4159.70690,0.08966
4161.63537,0.08823
4163.56384,0.08170
4165.49230,0.06946
4167.42077,0.06089
4169.34924,0.06310
4171.27771,0.07274
4173.20618,0.08000
4175.13465,0.08012
4177.06312,0.07612
4178.99158,0.07535
4180.92005,0.07985
4182.84852,0.08439
4184.77699,0.08638
4186.70546,0.08732
4188.63393,0.08756
4190.56240,0.08499
4192.49087,0.08017
4194.41933,0.07465
4196.34780,0.07396
4198.27627,0.08286
4200.20474,0.08612
4202.13321,0.07551
4204.06168,0.06597
4205.99015,0.06198
4207.91861,0.06003
4209.84708,0.06266
4211.77555,0.06603
4213.70402,0.06527
4215.63249,0.06661
4217.56096,0.07339
4219.48943,0.07838
4221.41789,0.07793
4223.34636,0.07545
4225.27483,0.07290
4227.20330,0.07206
4229.13177,0.07588
4231.06024,0.07898
4232.98871,0.07384
4234.91718,0.06391
4236.84564,0.05701
4238.77411,0.05717
4240.70258,0.06194
4242.63105,0.06341
4244.55952,0.05984
4246.48799,0.05938
4248.41646,0.06501
4250.34492,0.07127
4252.27339,0.07226
4254.20186,0.06462
4256.13033,0.05586
4258.05880,0.05401
4259.98727,0.05823
4261.91574,0.06747
4263.84421,0.07724
4265.77267,0.08208
4267.70114,0.07812
4269.62961,0.06611
4271.55808,0.05597
4273.48655,0.05325
4275.41502,0.05599
4277.34349,0.06006
4279.27195,0.06114
4281.20042,0.05985
4283.12889,0.05830
4285.05736,0.05811
4286.98583,0.06017
4288.91430,0.06125
4290.84277,0.06007
4292.77124,0.05713
4294.69970,0.05430
4296.62817,0.05890
4298.55664,0.06824
4300.48511,0.06859
4302.41358,0.06016
4304.34205,0.05439
4306.27052,0.05281
4308.19898,0.05112
4310.12745,0.04823
4312.05592,0.04660
4313.98439,0.05095
4315.91286,0.05917
4317.84133,0.06264
4319.76980,0.05788
4321.69827,0.05578
4323.62673,0.06265
4325.55520,0.06460
4327.48367,0.05820
4329.41214,0.05084
4331.34061,0.04325
4333.26908,0.04214
4335.19755,0.04941
4337.12601,0.05779
4339.05448,0.06368
4340.98295,0.06403
4342.91142,0.06110
4344.83989,0.06099
4346.76836,0.06014
4348.69683,0.05530
4350.62530,0.05436
4352.55376,0.05923
4354.48223,0.05923
4356.41070,0.05079
4358.33917,0.04143
4360.26764,0.03590
4362.19611,0.03598
4364.12458,0.04028
4366.05304,0.04264
4367.98151,0.04360
4369.90998,0.04578
4371.83845,0.04345
4373.76692,0.03711
4375.69539,0.03517
4377.62386,0.03897
4379.55232,0.04451
4381.48079,0.04790
4383.40926,0.04599
4385.33773,0.04030
4387.26620,0.03528
4389.19467,0.03490
4391.12314,0.03989
4393.05161,0.04535
4394.98007,0.04582
4396.90854,0.04018
4398.83701,0.03634
4400.76548,0.04177
4402.69395,0.04911
4404.62242,0.05204
4406.55089,0.05309
4408.47935,0.05223
4410.40782,0.05131
4412.33629,0.05052
4414.26476,0.04747
4416.19323,0.04650
4418.12170,0.04607
4420.05017,0.04153
4421.97864,0.04011
4423.90710,0.04529
4425.83557,0.04721
4427.76404,0.04095
4429.69251,0.03232
4431.62098,0.02463
4433.54945,0.02158
4435.47792,0.02890
4437.40638,0.04112
4439.33485,0.04613
4441.26332,0.04528
4443.19179,0.04519
4445.12026,0.03668
4447.04873,0.01902
4448.97720,0.00980
4450.90567,0.01440
4452.83413,0.02510
4454.76260,0.03087
4456.69107,0.02591
4458.61954,0.02321
4460.54801,0.02837
4462.47648,0.02601
4464.40495,0.01748
4466.33341,0.01546
4468.26188,0.01939
4470.19035,0.02252
4472.11882,0.02277
4474.04729,0.02435
4475.97576,0.02838
4477.90423,0.03425
4479.83270,0.03680
4481.76116,0.02914
4483.68963,0.01768
4485.61810,0.01133
4487.54657,0.01350
4489.47504,0.02778
4491.40351,0.04459
4493.33198,0.04373
4495.26044,0.02782
4497.18891,0.01523
4499.11738,0.01629
4501.04585,0.02611
4502.97432,0.02659
4504.90279,0.01597
4506.83126,0.01126
4508.75973,0.01597
4510.68819,0.02123
4512.61666,0.02508
4514.54513,0.02823
4516.47360,0.02895
4518.40207,0.02942
4520.33054,0.03181
4522.25901,0.03298
4524.18747,0.03136
4526.11594,0.02701
4528.04441,0.02116
4529.97288,0.02163
4531.90135,0.02653
4533.82982,0.02383
4535.75829,0.01446
4537.68676,0.00725
4539.61522,0.00621
4541.54369,0.00824
4543.47216,0.00888
4545.40063,0.00646
4547.32910,0.00320
4549.25757,0.00617
4551.18604,0.01598
4553.11450,0.02547
4555.04297,0.02749
4556.97144,0.02261
4558.89991,0.02062
4560.82838,0.02023
4562.75685,0.01437
4564.68532,0.01147
4566.61378,0.01717
4568.54225,0.02170
4570.47072,0.01958
4572.39919,0.01291
4574.32766,0.00713
4576.25613,0.00872
4578.18460,0.01147
4580.11307,0.00926
4582.04153,0.01013
4583.97000,0.01635
4585.89847,0.01961
4587.82694,0.01937
4589.75541,0.02604
4591.68388,0.03652
4593.61235,0.03547
4595.54081,0.02431
4597.46928,0.01154
4599.39775,0.00327
4601.32622,0.00705
4603.25469,0.01565
4605.18316,0.01889
4607.11163,0.02295
4609.04010,0.02698
4610.96856,0.02376
4612.89703,0.01692
4614.82550,0.01270
4616.75397,0.01385
4618.68244,0.01621
4620.61091,0.01625
4622.53938,0.01495
4624.46784,0.00963
4626.39631,0.00338
4628.32478,0.00119
4630.25325,-0.00221
4632.18172,-0.00576
4634.11019,-0.00079
4636.03866,0.01283
4637.96713,0.02447
4639.89559,0.02172
4641.82406,0.01149
4643.75253,0.00998
4645.68100,0.01315
4647.60947,0.00740
4649.53794,-0.00630
4651.46641,-0.01283
4653.39487,-0.00693
4655.32334,0.00327
4657.25181,0.00809
4659.18028,0.00452
4661.10875,0.00154
4663.03722,0.00379
4664.96569,0.00723
4666.89416,0.01384
4668.82262,0.02313
4670.75109,0.02467
4672.67956,0.01767
4674.60803,0.01355
4676.53650,0.01499
4678.46497,0.01326
4680.39344,0.00803
4682.32190,0.00828
4684.25037,0.01327
4686.17884,0.01959
4688.10731,0.02197
4690.03578,0.01609
4691.96425,0.01255
4693.89272,0.01404
4695.82119,0.01060
4697.74965,0.00352
4699.67812,0.00076
4701.60659,-0.00194
4703.53506,-0.00607
4705.46353,-0.00084
4707.39200,0.00496
4709.32047,-0.00117
4711.24893,-0.00411
4713.17740,0.00272
4715.10587,0.00517
4717.03434,0.00983
4718.96281,0.02430
4720.89128,0.02816
4722.81975,0.01492
4724.74821,0.00490
4726.67668,0.00437
4728.60515,0.00393
4730.53362,0.00703
4732.46209,0.01233
4734.39056,0.00756
4736.31903,0.00031
4738.24750,0.00114
4740.17596,0.00884
4742.10443,0.01719
4744.03290,0.01525
4745.96137,0.00968
4747.88984,0.01379
4749.81831,0.01859
4751.74678,0.01756
4753.67524,0.01857
4755.60371,0.02125
4757.53218,0.02181
4759.46065,0.02392
4761.38912,0.02620
4763.31759,0.02056
4765.24606,0.01100
4767.17453,0.01049
4769.10299,0.01874
4771.03146,0.02280
4772.95993,0.01832
4774.88840,0.01128
4776.81687,0.00344
4778.74534,-0.00621
4780.67381,-0.01286
4782.60227,-0.00747
4784.53074,0.00709
4786.45921,0.02163
4788.38768,0.02812
4790.31615,0.01840
4792.24462,0.00812
4794.17309,0.00908
4796.10156,0.01305
4798.03002,0.01558
4799.95849,0.00861
4801.88696,0.00080
4803.81543,0.00384
4805.74390,0.00309
4807.67237,-0.00341
4809.60084,-0.00110
4811.52930,0.01202
4813.45777,0.02646
4815.38624,0.03129
4817.31471,0.02039
4819.24318,0.00228
4821.17165,-0.00474
4823.10012,0.00151
4825.02859,0.00902
4826.95705,0.01243
4828.88552,0.01640
4830.81399,0.02048
4832.74246,0.01792
4834.67093,0.01123
4836.59940,0.00426
4838.52787,-0.00192
4840.45633,0.00089
4842.38480,0.01491
4844.31327,0.02630
4846.24174,0.02998
4848.17021,0.02916
4850.09868,0.02096
4852.02715,0.01214
4853.95562,0.00776
4855.88408,0.00323
4857.81255,0.00084
4859.74102,0.00614
4861.66949,0.01731
4863.59796,0.02416
4865.52643,0.02164
4867.45490,0.01458
4869.38336,0.00911
4871.31183,0.00630
4873.24030,-0.00020
4875.16877,-0.00973
4877.09724,-0.01140
4879.02571,-0.00828
4880.95418,-0.00575
4882.88265,0.00353
4884.81111,0.01734
4886.73958,0.02870
4888.66805,0.02747
4890.59652,0.00754
4892.52499,-0.00867
4894.45346,-0.00673
4896.38193,0.00237
4898.31039,0.01095
4900.23886,0.01639
4902.16733,0.01818
4904.09580,0.01032
4906.02427,-0.00645
4907.95274,-0.01836
4909.88121,-0.02548
4911.80967,-0.02636
4913.73814,-0.01698
4915.66661,-0.00623
4917.59508,0.00221
4919.52355,0.00439
4921.45202,-0.00113
4923.38049,0.00094
4925.30896,0.01832
4927.23742,0.03155
4929.16589,0.02915
4931.09436,0.02265
4933.02283,0.01578
4934.95130,0.00659
4936.87977,0.00381
4938.80824,0.00839
4940.73670,0.00771
4942.66517,-0.00167
4944.59364,-0.01075
4946.52211,-0.00278
4948.45058,0.01997
4950.37905,0.02972
4952.30752,0.02298
4954.23599,0.01328
4956.16445,0.00884
4958.09292,0.00700
4960.02139,0.00200
4961.94986,0.00516
4963.87833,0.00959
4965.80680,0.00172
4967.73527,-0.00384
4969.66373,0.00197
4971.59220,0.01147
4973.52067,0.02411
4975.44914,0.04351
4977.37761,0.05691
4979.30608,0.05475
4981.23455,0.04366
4983.16302,0.03374
4985.09148,0.03193
4987.01995,0.02983
4988.94842,0.02116
4990.87689,0.01930
4992.80536,0.03227
4994.73383,0.04732
4996.66230,0.04555
4998.59076,0.02677
5000.51923,0.00940
5002.44770,0.00148
5004.37617,-0.00373
5006.30464,-0.00318
5008.23311,0.00612
5010.16158,0.00972
5012.09005,0.01247
5014.01851,0.02180
5015.94698,0.02063
5017.87545,0.01565
5019.80392,0.02229
5021.73239,0.02618
5023.66086,0.01462
5025.58933,0.00394
5027.51779,0.01014
5029.44626,0.01543
5031.37473,0.00299
5033.30320,-0.01010
5035.23167,0.00032
5037.16014,0.02588
5039.08861,0.03406
5041.01708,0.02447
5042.94554,0.02247
5044.87401,0.02422
5046.80248,0.02459
5048.73095,0.02908
5050.65942,0.03004
5052.58789,0.02551
5054.51636,0.01744
5056.44482,0.01182
5058.37329,0.01826
5060.30176,0.02341
5062.23023,0.01176
5064.15870,0.00467
5066.08717,0.01954
5068.01564,0.02624
5069.94410,0.00766
5071.87257,-0.00853
5073.80104,-0.00673
5075.72951,0.00133
5077.65798,0.00481
5079.58645,-0.00016
5081.51492,-0.00560
5083.44339,-0.00565
5085.37185,-0.00883
5087.30032,-0.00932
5089.22879,0.00298
5091.15726,0.01824
5093.08573,0.02401
5095.01420,0.02238
5096.94267,0.02225
5098.87113,0.02790
5100.79960,0.03940
5102.72807,0.04923
5104.65654,0.05109
5106.58501,0.04323
5108.51348,0.03154
5110.44195,0.03371
5112.37042,0.05141
5114.29888,0.06540
5116.22735,0.06120
5118.15582,0.04734
5120.08429,0.04380
5122.01276,0.05058
5123.94123,0.05120
5125.86970,0.04068
5127.79816,0.03460
5129.72663,0.04173
5131.65510,0.04066
5133.58357,0.02313
5135.51204,0.01855
5137.44051,0.03365
5139.36898,0.04520
5141.29745,0.04946
5143.22591,0.05371
5145.15438,0.05555
5147.08285,0.05673
5149.01132,0.05353
5150.93979,0.03191
5152.86826,0.01566
5154.79673,0.02973
5156.72519,0.04308
5158.65366,0.03773
5160.58213,0.04148
5162.51060,0.04963
5164.43907,0.02959
5166.36754,0.01110
5168.29601,0.03433
5170.22448,0.06426
5172.15294,0.06375
5174.08141,0.04859
5176.00988,0.03737
5177.93835,0.03678
5179.86682,0.04796
5181.79529,0.06245
5183.72376,0.07614
5185.65222,0.08410
5187.58069,0.07739
5189.50916,0.05967
5191.43763,0.03813
5193.36610,0.01617
5195.29457,0.00528
5197.22304,0.01775
5199.15151,0.03244
5201.07997,0.02644
5203.00844,0.01586
5204.93691,0.01535
5206.86538,0.01865
5208.79385,0.02440
5210.72232,0.03844
5212.65079,0.04597
5214.57925,0.03825
5216.50772,0.03433
5218.43619,0.04127
5220.36466,0.04076
5222.29313,0.03146
5224.22160,0.02929
5226.15007,0.03689
5228.07854,0.04553
5230.00700,0.05007
5231.93547,0.05490
5233.86394,0.05575
5235.79241,0.05017
5237.72088,0.05311
5239.64935,0.06286
5241.57782,0.06791
5243.50628,0.06520
5245.43475,0.05483
5247.36322,0.03661
5249.29169,0.01756
5251.22016,0.02126
5253.14863,0.04229
5255.07710,0.05422
5257.00556,0.05176
5258.93403,0.03547
5260.86250,0.00899
5262.79097,-0.00813
5264.71944,-0.00063
5266.64791,0.03170
5268.57638,0.06843
5270.50485,0.07795
5272.43331,0.07026
5274.36178,0.07709
5276.29025,0.08233
5278.21872,0.06780
5280.14719,0.04879
5282.07566,0.03531
5284.00413,0.03100
5285.93259,0.03994
5287.86106,0.05985
5289.78953,0.07127
5291.71800,0.05336
5293.64647,0.03234
5295.57494,0.03201
5297.50341,0.03800
5299.43188,0.03526
5301.36034,0.03211
5303.28881,0.04065
5305.21728,0.04454
5307.14575,0.03766
5309.07422,0.04120
5311.00269,0.04514
5312.93116,0.03837
5314.85962,0.03494
5316.78809,0.03765
5318.71656,0.04994
5320.64503,0.05991
5322.57350,0.05561
5324.50197,0.06444
5326.43044,0.08671
5328.35891,0.08548
5330.28737,0.06718
5332.21584,0.05451
5334.14431,0.05011
5336.07278,0.05556
5338.00125,0.06767
5339.92972,0.08429
5341.85819,0.09090
5343.78665,0.06425
5345.71512,0.03503
5347.64359,0.03684
5349.57206,0.03327
5351.50053,0.01951
5353.42900,0.03318
5355.35747,0.06345
5357.28594,0.08254
5359.21440,0.09751
5361.14287,0.10901
5363.07134,0.11443
5364.99981,0.09989
5366.92828,0.06788
5368.85675,0.04313
5370.78522,0.03467
5372.71368,0.05333
5374.64215,0.09402
5376.57062,0.11409
5378.49909,0.08711
5380.42756,0.04365
5382.35603,0.01499
5384.28450,0.00866
5386.21297,0.02409
5388.14143,0.04167
5390.06990,0.03759
5391.99837,0.02725
5393.92684,0.03783
5395.85531,0.05351
5397.78378,0.05141
5399.71225,0.04639
5401.64071,0.05055
5403.56918,0.05243
5405.49765,0.04107
5407.42612,0.02502
5409.35459,0.02084
5411.28306,0.03253
5413.21153,0.04973
5415.13999,0.06793
5417.06846,0.08309
5418.99693,0.09029
5420.92540,0.08809
5422.85387,0.07159
5424.78234,0.05226
5426.71081,0.04203
5428.63928,0.04884
5430.56774,0.08260
5432.49621,0.10404
5434.42468,0.09496
5436.35315,0.08580
5438.28162,0.07349
5440.21009,0.06269
5442.13856,0.07028
5444.06702,0.07582
5445.99549,0.07185
5447.92396,0.07066
5449.85243,0.08755
5451.78090,0.11551
5453.70937,0.11569
5455.63784,0.08552
5457.56631,0.06772
5459.49477,0.08223
5461.42324,0.10433
5463.35171,0.10358
5465.28018,0.08970
5467.20865,0.09102
5469.13712,0.09846
5471.06559,0.10766
5472.99405,0.13155
5474.92252,0.13740
5476.85099,0.10428
5478.77946,0.07617
5480.70793,0.06076
5482.63640,0.03927
5484.56487,0.02629
5486.49334,0.04290
5488.42180,0.07073
5490.35027,0.08612
5492.27874,0.10323
5494.20721,0.12279
5496.13568,0.11592
5498.06415,0.08994
5499.99262,0.07067
5501.92108,0.04931
5503.84955,0.02784
5505.77802,0.04504
5507.70649,0.08609
5509.63496,0.09574
5511.56343,0.08034
5513.49190,0.06150
5515.42037,0.04823
5517.34883,0.04947
5519.27730,0.05739
5521.20577,0.07642
5523.13424,0.09167
5525.06271,0.07235
5526.99118,0.04667
5528.91965,0.04682
5530.84811,0.05773
5532.77658,0.05990
5534.70505,0.05774
5536.63352,0.05591
5538.56199,0.05192
5540.49046,0.05293
5542.41893,0.06485
5544.34740,0.07709
5546.27586,0.07574
5548.20433,0.06937
5550.13280,0.08219
5552.06127,0.11285
5553.98974,0.13574
5555.91821,0.13588
5557.84668,0.10275
5559.77514,0.04373
5561.70361,0.00520
5563.63208,0.02018
5565.56055,0.05903
5567.48902,0.07373
5569.41749,0.06822
5571.34596,0.08247
5573.27443,0.12341
5575.20289,0.13303
5577.13136,0.08940
5579.05983,0.04643
5580.98830,0.03200
5582.91677,0.04201
5584.84524,0.05545
5586.77371,0.05267
5588.70217,0.05150
5590.63064,0.07326
5592.55911,0.10244
5594.48758,0.11428
5596.41605,0.11226
5598.34452,0.10582
5600.27299,0.09128
5602.20145,0.06930
5604.12992,0.05790
5606.05839,0.06543
5607.98686,0.07483
5609.91533,0.08266
5611.84380,0.09505
5613.77227,0.10125
5615.70074,0.07678
5617.62920,0.02906
5619.55767,0.01005
5621.48614,0.04325
5623.41461,0.09164
5625.34308,0.10457
5627.27155,0.07546
5629.20002,0.04742
5631.12848,0.05056
5633.05695,0.06456
5634.98542,0.07773
5636.91389,0.10242
5638.84236,0.11210
5640.77083,0.08598
5642.69930,0.05063
5644.62777,0.04367
5646.55623,0.07433
5648.48470,0.09983
5650.41317,0.08943
5652.34164,0.07086
5654.27011,0.07720
5656.19858,0.08879
5658.12705,0.08752
5660.05551,0.09626
5661.98398,0.11154
5663.91245,0.10486
5665.84092,0.08168
5667.76939,0.06949
5669.69786,0.06750
5671.62633,0.05650
5673.55480,0.04305
5675.48326,0.04201
5677.41173,0.04333
5679.34020,0.02371
5681.26867,0.00281
5683.19714,0.00959
5685.12561,0.02687
5687.05408,0.04431
5688.98254,0.06555
5690.91101,0.09085
5692.83948,0.10599
5694.76795,0.09471
5696.69642,0.08005
5698.62489,0.07806
5700.55336,0.08228
5702.48183,0.09303
5704.41029,0.10010
5706.33876,0.08944
5708.26723,0.07584
5710.19570,0.07726
5712.12417,0.06763
5714.05264,0.04250
5715.98111,0.04691
5717.90957,0.07989
5719.83804,0.09119
5721.76651,0.07399
5723.69498,0.06545
5725.62345,0.07313
5727.55192,0.08472
5729.48039,0.09406
5731.40886,0.08918
5733.33732,0.06931
5735.26579,0.05124
5737.19426,0.03974
5739.12273,0.03444
5741.05120,0.03986
5742.97967,0.04705
5744.90814,0.05926
5746.83660,0.07844
5748.76507,0.09177
5750.69354,0.10352
5752.62201,0.12270
5754.55048,0.13199
5756.47895,0.11763
5758.40742,0.10837
5760.33588,0.13077
5762.26435,0.15327
5764.19282,0.12303
5766.12129,0.05925
5768.04976,0.02848
5769.97823,0.04786
5771.90670,0.07876
5773.83517,0.08529
5775.76363,0.08507
5777.69210,0.09933
5779.62057,0.11345
5781.54904,0.12258
5783.47751,0.13940
5785.40598,0.13841
5787.33445,0.08895
5789.26291,0.04123
5791.19138,0.04372
5793.11985,0.07949
5795.04832,0.11230
5796.97679,0.10270
5798.90526,0.05773
5800.83373,0.02145
5802.76220,0.02098
5804.69066,0.05953
5806.61913,0.09542
5808.54760,0.08628
5810.47607,0.05077
5812.40454,0.03249
5814.33301,0.04080
5816.26148,0.04781
5818.18994,0.04847
5820.11841,0.05810
5822.04688,0.05365
5823.97535,0.03018
5825.90382,0.02906
5827.83229,0.03719
5829.76076,0.01863
5831.68923,0.01115
5833.61769,0.04141
5835.54616,0.07351
5837.47463,0.09179
5839.40310,0.09208
5841.33157,0.07268
5843.26004,0.06614
5845.18851,0.07906
5847.11697,0.07317
5849.04544,0.02890
5850.97391,-0.00553
5852.90238,0.01975
5854.83085,0.06212
5856.75932,0.07034
5858.68779,0.07681
5860.61626,0.10978
5862.54472,0.12846
5864.47319,0.10239
5866.40166,0.06367
5868.33013,0.04728
5870.25860,0.05195
5872.18707,0.05750
5874.11554,0.05047
5876.04400,0.07101
5877.97247,0.12490
5879.90094,0.13041
5881.82941,0.10177
5883.75788,0.10876
5885.68635,0.12162
5887.61482,0.11180
5889.54329,0.09837
5891.47175,0.08201
5893.40022,0.06748
5895.32869,0.07439
5897.25716,0.09272
5899.18563,0.09770
5901.11410,0.10671
5903.04257,0.12697
5904.97103,0.12485
5906.89950,0.10568
5908.82797,0.09445
5910.75644,0.09212
5912.68491,0.08686
5914.61338,0.08346
5916.54185,0.10689
5918.47032,0.12726
5920.39878,0.09662
5922.32725,0.06589
5924.25572,0.07847
5926.18419,0.07572
5928.11266,0.04008
5930.04113,0.03334
5931.96960,0.06557
5933.89806,0.08898
5935.82653,0.08727
5937.75500,0.09112
5939.68347,0.10741
5941.61194,0.10840
5943.54041,0.08667
5945.46888,0.07138
5947.39734,0.07668
5949.32581,0.08271
5951.25428,0.07100
5953.18275,0.04571
5955.11122,0.01623
5957.03969,-0.01395
5958.96816,-0.03136
5960.89663,-0.01843
5962.82509,0.01984
5964.75356,0.07174
5966.68203,0.11739
5968.61050,0.11938
5970.53897,0.08172
5972.46744,0.07216
5974.39591,0.11114
5976.32437,0.12587
5978.25284,0.09662
5980.18131,0.08564
5982.10978,0.10460
5984.03825,0.10483
5985.96672,0.08562
5987.89519,0.09212
5989.82366,0.11909
5991.75212,0.12043
5993.68059,0.10340
5995.60906,0.10805
5997.53753,0.12129
5999.46600,0.12578
6001.39447,0.11831
6003.32294,0.09240
6005.25140,0.07217
6007.17987,0.07877
6009.10834,0.11013
6011.03681,0.13156
6012.96528,0.11202
6014.89375,0.08142
6016.82222,0.08243
6018.75069,0.12946
6020.67915,0.17060
6022.60762,0.15142
6024.53609,0.10657
6026.46456,0.06390
6028.39303,0.02260
6030.32150,0.02060
6032.24997,0.04604
6034.17843,0.06533
6036.10690,0.10399
6038.03537,0.12877
6039.96384,0.10207
6041.89231,0.05837
6043.82078,0.03682
6045.74925,0.07073
6047.67772,0.12954
6049.60618,0.14967
6051.53465,0.13783
6053.46312,0.11692
6055.39159,0.07250
6057.32006,0.02998
6059.24853,0.04417
6061.17700,0.06345
6063.10546,0.02413
6065.03393,0.01519
6066.96240,0.06425
6068.89087,0.06329
6070.81934,0.01350
6072.74781,0.02353
6074.67628,0.09297
6076.60475,0.12347
6078.53321,0.09167
6080.46168,0.05752
6082.39015,0.07257
6084.31862,0.12728
6086.24709,0.16437
6088.17556,0.16432
6090.10403,0.14156
6092.03249,0.10119
6093.96096,0.07739
6095.88943,0.06373
6097.81790,0.02930
6099.74637,0.01303
6101.67484,0.02727
6103.60331,0.03213
6105.53177,0.02679
6107.46024,0.02701
6109.38871,0.03703
6111.31718,0.06383
6113.24565,0.09960
6115.17412,0.11490
6117.10259,0.09475
6119.03106,0.07180
6120.95952,0.06171
6122.88799,0.04227
6124.81646,0.05743
6126.74493,0.12676
6128.67340,0.16942
6130.60187,0.16021
6132.53034,0.14723
6134.45880,0.11201
6136.38727,0.04046
6138.31574,0.01359
6140.24421,0.06136
6142.17268,0.10171
6144.10115,0.09487
6146.02962,0.07864
6147.95809,0.07041
6149.88655,0.06116
6151.81502,0.05758
6153.74349,0.05879
6155.67196,0.06800
6157.60043,0.07673
6159.52890,0.04228
6161.45737,0.00595
6163.38583,0.03277
6165.31430,0.07469
6167.24277,0.08226
6169.17124,0.06613
6171.09971,0.04954
6173.02818,0.05344
6174.95665,0.07938
6176.88512,0.11037
6178.81358,0.13061
6180.74205,0.14403
6182.67052,0.14418
6184.59899,0.14383
6186.52746,0.16666
6188.45593,0.17681
6190.38440,0.15894
6192.31286,0.12528
6194.24133,0.07040
6196.16980,0.03827
6198.09827,0.06691
6200.02674,0.12594
6201.95521,0.17345
6203.88368,0.15188
6205.81215,0.05652
6207.74061,0.02260
6209.66908,0.07114
6211.59755,0.07332
6213.52602,0.04381
6215.45449,0.04872
6217.38296,0.05840
6219.31143,0.06914
6221.23989,0.11846
6223.16836,0.18073
6225.09683,0.22098
6227.02530,0.24498
6228.95377,0.21860
6230.88224,0.12538
6232.81071,0.02206
6234.73918,-0.01242
6236.66764,0.03889
6238.59611,0.12759
6240.52458,0.18150
6242.45305,0.17175
6244.38152,0.13670
6246.30999,0.12031
6248.23846,0.12247
6250.16692,0.09861
6252.09539,0.06880
6254.02386,0.07493
6255.95233,0.08328
6257.88080,0.12135
6259.80927,0.21291
6261.73774,0.25042
6263.66621,0.17746
6265.59467,0.08594
6267.52314,0.06170
6269.45161,0.07771
6271.38008,0.05808
6273.30855,0.00704
6275.23702,0.00859
6277.16549,0.07080
6279.09395,0.13211
6281.02242,0.15636
6282.95089,0.14242
6284.87936,0.12885
6286.80783,0.14660
6288.73630,0.13722
6290.66477,0.05019
6292.59323,-0.02113
6294.52170,-0.00265
6296.45017,0.05872
6298.37864,0.11364
6300.30711,0.14951
6302.23558,0.15959
6304.16405,0.16743
6306.09252,0.17512
6308.02098,0.13203
6309.94945,0.04108
6311.87792,-0.03910
6313.80639,-0.05644
6315.73486,-0.00767
6317.66333,0.05004
6319.59180,0.06992
6321.52026,0.07600
6323.44873,0.07284
6325.37720,0.02478
6327.30567,-0.00489
6329.23414,0.07002
6331.16261,0.17815
6333.09108,0.18474
6335.01955,0.05678
6336.94801,-0.10921
6338.87648,-0.16095
6340.80495,-0.06382
6342.73342,0.04956
6344.66189,0.07284
6346.59036,0.05119
6348.51883,0.08502
6350.44729,0.11896
6352.37576,0.04441
6354.30423,-0.06362
6356.23270,-0.10564
6358.16117,-0.08755
6360.08964,-0.05476
6362.01811,-0.02420
6363.94658,0.02166
6365.87504,0.06479
6367.80351,0.06638
6369.73198,0.08305
6371.66045,0.14195
6373.58892,0.18186
6375.51739,0.18350
6377.44586,0.15222
6379.37432,0.11088
6381.30279,0.10308
6383.23126,0.12691
6385.15973,0.11897
6387.08820,0.05647
6389.01667,0.00438
6390.94514,0.01835
6392.87361,0.05659
6394.80207,0.04918
6396.73054,0.04547
6398.65901,0.08543
6400.58748,0.09717
6402.51595,0.05717
6404.44442,0.03388
6406.37289,0.01673
6408.30135,0.00523
6410.22982,0.05549
6412.15829,0.11019
6414.08676,0.12921
6416.01523,0.13296
6417.94370,0.08769
6419.87217,0.04012
6421.80064,0.05769
6423.72910,0.08768
6425.65757,0.12148
6427.58604,0.17755
6429.51451,0.17175
6431.44298,0.09861
6433.37145,0.08664
6435.29992,0.12125
6437.22838,0.09422
6439.15685,0.00799
6441.08532,-0.04258
6443.01379,0.00431
6444.94226,0.10421
6446.87073,0.12700
6448.79920,0.06881
6450.72766,0.02600
6452.65613,0.03159
6454.58460,0.06629
6456.51307,0.05944
6458.44154,-0.04494
6460.37001,-0.11556
6462.29848,-0.05790
6464.22695,0.04222
6466.15541,0.11225
6468.08388,0.12777
6470.01235,0.08903
6471.94082,0.06843
6473.86929,0.10133
6475.79776,0.13599
6477.72623,0.15442
6479.65469,0.15090
6481.58316,0.09675
6483.51163,0.04751
6485.44010,0.05557
6487.36857,0.06913
6489.29704,0.06393
6491.22551,0.09222
6493.15398,0.14259
6495.08244,0.15009
6497.01091,0.12335
6498.93938,0.08886
6500.86785,0.05053
6502.79632,0.03470
6504.72479,0.07473
6506.65326,0.12095
6508.58172,0.07618
6510.51019,-0.04529
6512.43866,-0.10689
6514.36713,-0.07846
6516.29560,-0.03895
6518.22407,-0.01420
6520.15254,-0.00835
6522.08101,-0.01791
6524.00947,-0.02015
6525.93794,-0.00163
6527.86641,0.02254
6529.79488,0.03206
6531.72335,0.02274
6533.65182,0.02233
6535.58029,0.04587
6537.50875,0.05279
6539.43722,0.03219
6541.36569,0.03353
6543.29416,0.07113
6545.22263,0.08315
6547.15110,0.07335
6549.07957,0.08113
6551.00804,0.04096
6552.93650,-0.04509
6554.86497,-0.06255
6556.79344,0.00274
6558.72191,0.09287
6560.65038,0.15995
6562.57885,0.16478
6564.50732,0.09871
6566.43578,0.03184
6568.36425,0.04975
6570.29272,0.12910
6572.22119,0.19609
6574.14966,0.21234
6576.07813,0.17288
6578.00660,0.10688
6579.93507,0.06253
6581.86353,0.04548
6583.79200,0.03646
6585.72047,0.02898
6587.64894,0.02763
6589.57741,0.01782
6591.50588,-0.01999
6593.43435,-0.06504
6595.36281,-0.05746
6597.29128,-0.01326
6599.21975,-0.01245
6601.14822,-0.04223
6603.07669,-0.03657
6605.00516,-0.02346
6606.93363,0.01054
6608.86210,0.12103
6610.79056,0.21563
6612.71903,0.17105
6614.64750,0.04694
6616.57597,-0.02019
6618.50444,0.01622
6620.43291,0.09970
6622.36138,0.18283
6624.28984,0.18456
6626.21831,0.08913
6628.14678,0.06797
6630.07525,0.16358
6632.00372,0.15989
6633.93219,0.04883
6635.86066,0.00323
6637.78912,0.01305
6639.71759,-0.00290
6641.64606,0.01563
6643.57453,0.05849
6645.50300,0.05222
6647.43147,0.03324
6649.35994,0.04724
6651.28841,0.05904
6653.21687,0.03642
6655.14534,0.01127
6657.07381,0.07305
6659.00228,0.17900
6660.93075,0.18686
6662.85922,0.11437
6664.78769,0.00814
6666.71615,-0.09260
6668.64462,-0.09163
6670.57309,-0.01104
6672.50156,0.03458
6674.43003,0.05373
6676.35850,0.07476
6678.28697,0.07397
6680.21544,0.10837
6682.14390,0.16298
6684.07237,0.13189
6686.00084,0.07394
6687.92931,0.07746
6689.85778,0.08640
6691.78625,0.08514
6693.71472,0.08064
6695.64318,0.03920
6697.57165,0.02621
6699.50012,0.10735
6701.42859,0.18792
6703.35706,0.20084
6705.28553,0.18950
6707.21400,0.15806
6709.14247,0.09773
6711.07093,0.10464
6712.99940,0.18592
6714.92787,0.20545
6716.85634,0.14791
6718.78481,0.12987
6720.71328,0.16099
6722.64175,0.17665
6724.57021,0.16639
6726.49868,0.15654
6728.42715,0.14014
6730.35562,0.12621
6732.28409,0.11538
6734.21256,0.03965
6736.14103,-0.03974
6738.06950,0.01496
6739.99796,0.19012
6741.92643,0.33400
6743.85490,0.26744
6745.78337,0.05958
6747.71184,-0.04775
6749.64031,0.02435
6751.56878,0.10625
6753.49724,0.09605
6755.42571,0.00683
6757.35418,-0.07150
6759.28265,-0.06225
6761.21112,-0.03271
6763.13959,-0.00520
6765.06806,0.09164
6766.99653,0.15761
6768.92499,0.10354
6770.85346,0.03541
6772.78193,0.00803
6774.71040,-0.04749
6776.63887,-0.10784
6778.56734,-0.06398
6780.49581,0.07085
6782.42427,0.19730
6784.35274,0.24402
6786.28121,0.19847
6788.20968,0.14619
6790.13815,0.16584
6792.06662,0.19470
6793.99509,0.21615
6795.92355,0.23733
6797.85202,0.15377
6799.78049,0.02569
6801.70896,0.02740
6803.63743,0.15188
6805.56590,0.27233
6807.49437,0.26434
6809.42284,0.11595
6811.35130,-0.00398
6813.27977,0.02124
6815.20824,0.10251
6817.13671,0.14915
6819.06518,0.15699
6820.99365,0.16142
6822.92212,0.17596
6824.85058,0.17770
6826.77905,0.09688
6828.70752,-0.02206
6830.63599,0.00111
6832.56446,0.10801
6834.49293,0.13759
6836.42140,0.15121
6838.34987,0.22469
6840.27833,0.28396
6842.20680,0.25133
6844.13527,0.13309
6846.06374,0.07536
6847.99221,0.12688
6849.92068,0.10289
6851.84915,0.00811
6853.77761,-0.00299
6855.70608,0.07788
6857.63455,0.12191
6859.56302,0.05090
6861.49149,-0.06681
6863.41996,-0.12365
6865.34843,-0.09471
6867.27690,-0.02755
6869.20536,-0.00619
6871.13383,-0.05601
6873.06230,-0.08245
6874.99077,0.00408
6876.91924,0.13911
6878.84771,0.20614
6880.77618,0.14508
6882.70464,0.04193
6884.63311,-0.00861
6886.56158,-0.01849
6888.49005,-0.02833
6890.41852,-0.00377
6892.34699,0.03313
6894.27546,-0.01903
6896.20393,-0.10678
6898.13239,-0.08142
6900.06086,0.04618
6901.98933,0.11303
6903.91780,0.07638
6905.84627,0.07873
6907.77474,0.17862
6909.70321,0.25140
6911.63167,0.22630
6913.56014,0.08203
6915.48861,-0.08783
6917.41708,-0.11927
6919.34555,-0.08790
6921.27402,-0.14710
6923.20249,-0.17291
6925.13096,-0.11152
6927.05942,-0.04783
6928.98789,-0.01971
6930.91636,-0.01625
6932.84483,0.01243
6934.77330,0.07801
6936.70177,0.12367
6938.63024,0.12746
6940.55870,0.10650
6942.48717,0.07376
6944.41564,0.04116
6946.34411,0.06030
6948.27258,0.09741
6950.20105,0.09639
6952.12952,0.14449
6954.05799,0.25366
6955.98645,0.28483
6957.91492,0.20785
6959.84339,0.08110
6961.77186,-0.04107
6963.70033,-0.06812
6965.62880,-0.01629
6967.55727,-0.00447
6969.48573,-0.07515
6971.41420,-0.12287
6973.34267,-0.05302
6975.27114,0.07675
6977.19961,0.12480
6979.12808,0.09158
6981.05655,0.02138
6982.98501,-0.03373
6984.91348,-0.00068
6986.84195,0.04513
6988.77042,0.01209
6990.69889,-0.06421
6992.62736,-0.14936
6994.55583,-0.19756
6996.48430,-0.12085
6998.41276,0.01724
7000.34123,0.03605
7002.26970,-0.01163
7004.19817,-0.01877
7006.12664,0.01945
7008.05511,0.06990
7009.98358,0.07692
7011.91204,0.03829
7013.84051,-0.02935
7015.76898,-0.04339
7017.69745,0.03768
7019.62592,0.09157
7021.55439,0.09122
7023.48286,0.12119
7025.41133,0.14352
7027.33979,0.14872
7029.26826,0.17106
7031.19673,0.13804
7033.12520,0.09578
7035.05367,0.16104
7036.98214,0.21866
7038.91061,0.20376
7040.83907,0.22540
7042.76754,0.28171
7044.69601,0.32681
7046.62448,0.35253
7048.55295,0.27764
7050.48142,0.09375
7052.40989,-0.10502
7054.33836,-0.14878
7056.26682,0.01183
7058.19529,0.15301
7060.12376,0.13459
7062.05223,0.08725
7063.98070,0.07579
7065.90917,0.07325
7067.83764,0.13587
7069.76610,0.28953
7071.69457,0.32135
7073.62304,0.15423
7075.55151,0.02413
7077.47998,0.01944
7079.40845,0.12260
7081.33692,0.26717
7083.26539,0.25167
7085.19385,0.15002
7087.12232,0.12215
7089.05079,0.12720
7090.97926,0.13522
7092.90773,0.15306
7094.83620,0.11186
7096.76467,0.00426
7098.69313,-0.05696
7100.62160,-0.01741
7102.55007,0.01035
7104.47854,-0.02186
7106.40701,-0.07409
7108.33548,-0.08851
7110.26395,-0.03610
7112.19242,0.03121
7114.12088,0.04779
7116.04935,0.03591
7117.97782,0.00556
7119.90629,-0.09195
7121.83476,-0.19895
7123.76323,-0.16655
7125.69170,0.02741
7127.62016,0.19312
7129.54863,0.21097
7131.47710,0.18635
7133.40557,0.16276
7135.33404,0.12421
7137.26251,0.15953
7139.19098,0.20212
7141.11944,0.07168
7143.04791,-0.09256
7144.97638,-0.08453
7146.90485,0.04422
7148.83332,0.15161
7150.76179,0.18835
7152.69026,0.13966
7154.61873,0.10081
7156.54719,0.12623
7158.47566,0.10825
7160.40413,0.05494
7162.33260,0.03564
7164.26107,0.05862
7166.18954,0.12874
7168.11801,0.22677
7170.04647,0.27255
7171.97494,0.28600
7173.90341,0.33772
7175.83188,0.35030
7177.76035,0.33322
7179.68882,0.29878
7181.61729,0.13396
7183.54576,-0.05070
7185.47422,-0.08089
7187.40269,-0.03884
7189.33116,0.00530
7191.25963,0.07591
7193.18810,0.14417
7195.11657,0.06487
7197.04504,-0.03489
7198.97350,0.02965
7200.90197,0.12060
7202.83044,0.13135
7204.75891,0.09916
7206.68738,0.03357
7208.61585,-0.05117
7210.54432,-0.11270
7212.47279,-0.14300
7214.40125,-0.15019
7216.32972,-0.07072
7218.25819,0.16017
7220.18666,0.28938
7222.11513,0.21088
7224.04360,0.13970
7225.97207,0.18386
7227.90053,0.18002
7229.82900,0.03238
7231.75747,-0.13085
7233.68594,-0.13497
7235.61441,-0.04721
7237.54288,0.04082
7239.47135,0.07469
7241.39982,0.00372
7243.32828,-0.08676
7245.25675,-0.11575
7247.18522,-0.10221
7249.11369,-0.01993
7251.04216,0.04535
7252.97063,0.06864
7254.89910,0.14966
7256.82756,0.23762
7258.75603,0.27529
7260.68450,0.23612
7262.61297,0.16643
7264.54144,0.08090
7266.46991,0.06378
7268.39838,0.15459
7270.32685,0.20054
7272.25531,0.16110
7274.18378,0.16406
7276.11225,0.16146
7278.04072,0.06148
7279.96919,-0.12344
7281.89766,-0.21116
7283.82613,-0.13726
7285.75459,-0.05354
7287.68306,0.00225
7289.61153,0.12303
7291.54000,0.22403
7293.46847,0.16959
7295.39694,0.06309
7297.32541,0.08135
7299.25387,0.22330
7301.18234,0.33937
7303.11081,0.34466
7305.03928,0.32807
7306.96775,0.34317
7308.89622,0.27698
7310.82469,0.22819
7312.75316,0.26990
7314.68162,0.26299
7316.61009,0.13932
7318.53856,-0.07674
7320.46703,-0.28198
7322.39550,-0.35688
7324.32397,-0.29866
7326.25244,-0.19984
7328.18090,-0.09570
7330.10937,-0.08638
7332.03784,-0.11999
7333.96631,-0.04278
7335.89478,-0.00537
7337.82325,-0.06462
7339.75172,-0.02960
7341.68019,0.05906
7343.60865,0.06995
7345.53712,0.13214
7347.46559,0.19219
7349.39406,0.27823
7351.32253,0.44749
7353.25100,0.43713
7355.17947,0.19825
7357.10793,-0.05324
7359.03640,-0.19528
7360.96487,-0.18436
7362.89334,-0.01320
7364.82181,0.14064
7366.75028,0.12621
7368.67875,0.03945
7370.60722,0.04455
7372.53568,0.08808
7374.46415,0.01541
7376.39262,-0.07781
7378.32109,0.05682
7380.24956,0.21536
7382.17803,0.22701
7384.10650,0.18646
7386.03496,0.19380
7387.96343,0.22624
7389.89190,0.19493
7391.82037,0.12355
7393.74884,0.05593
7395.67731,0.02236
7397.60578,0.14880
7399.53425,0.36259
7401.46271,0.42885
7403.39118,0.27467
7405.31965,0.11609
7407.24812,0.06482
7409.17659,-0.02272
7411.10506,-0.13046
7413.03353,-0.15157
7414.96199,-0.02569
7416.89046,0.25689
7418.81893,0.52380
7420.74740,0.43109
7422.67587,0.16472
7424.60434,0.08970
7426.53281,0.16251
7428.46128,0.10643
7430.38974,-0.16105
7432.31821,-0.20906
7434.24668,-0.00734
7436.17515,0.08285
7438.10362,0.06250
7440.03209,-0.00318
7441.96056,-0.08808
7443.88902,-0.04562
7445.81749,0.03125
7447.74596,0.03789
7449.67443,0.07174
7451.60290,0.11162
7453.53137,-0.04789
7455.45984,-0.23585
7457.38831,-0.17651
7459.31677,0.06967
7461.24524,0.14598
7463.17371,0.04056
7465.10218,0.03158
7467.03065,0.09176
7468.95912,0.01666
7470.88759,-0.12280
7472.81605,-0.12734
7474.74452,-0.03621
7476.67299,0.06535
7478.60146,0.13443
7480.52993,0.12593
7482.45840,0.13081
7484.38687,0.19820
7486.31533,0.27721
7488.24380,0.30670
7490.17227,0.20729
7492.10074,0.04998
7494.02921,0.03357
7495.95768,0.11882
7497.88615,0.15624
