399.19301,1.49289
401.12148,-0.54723
403.04995,-0.48606
404.97842,-0.04078
406.90689,0.12969
408.83536,0.00849
410.76382,-0.19882
412.69229,-0.22932
414.62076,-0.04752
416.54923,0.12685
418.47770,0.11059
420.40617,0.00105
422.33464,-0.04401
424.26311,-0.00042
426.19157,0.12235
428.12004,0.19850
430.04851,0.23397
431.97698,0.19940
433.90545,0.02068
435.83392,-0.15792
437.76239,-0.15235
439.69085,0.01123
441.61932,0.12190
443.54779,0.06288
445.47626,0.01876
447.40473,0.12641
449.33320,0.22073
451.26167,0.13192
453.19013,-0.01212
455.11860,-0.04444
457.04707,-0.00362
458.97554,0.03198
460.90401,0.07072
462.83248,0.07267
464.76095,0.00795
466.68942,-0.06122
468.61788,-0.07320
470.54635,-0.00708
472.47482,0.16689
474.40329,0.34435
476.33176,0.29314
478.26023,0.18703
480.18870,0.11679
482.11716,0.04470
484.04563,0.01877
485.97410,0.08167
487.90257,0.12781
489.83104,0.09930
491.75951,0.04284
493.68798,0.02354
495.61645,0.06106
497.54491,0.11861
499.47338,0.13083
501.40185,0.08643
503.33032,0.06170
505.25879,0.08022
507.18726,0.11623
509.11573,0.17149
511.04419,0.20157
512.97266,0.18523
514.90113,0.15640
516.82960,0.13716
518.75807,0.14562
520.68654,0.17630
522.61501,0.22047
524.54348,0.25121
526.47194,0.20453
528.40041,0.13652
530.32888,0.12420
532.25735,0.12444
534.18582,0.09221
536.11429,0.05999
538.04276,0.07420
539.97122,0.11685
541.89969,0.13575
543.82816,0.11798
545.75663,0.11603
547.68510,0.14990
549.61357,0.17555
551.54204,0.22111
553.47051,0.29013
555.39897,0.25836
557.32744,0.14917
559.25591,0.09436
561.18438,0.09095
563.11285,0.10849
565.04132,0.11353
566.96979,0.10243
568.89825,0.11754
570.82672,0.13348
572.75519,0.11220
574.68366,0.07318
576.61213,0.06983
578.54060,0.09929
580.46907,0.12787
582.39754,0.16000
584.32600,0.18157
586.25447,0.16120
588.18294,0.11863
590.11141,0.09853
592.03988,0.10613
593.96835,0.12765
595.89682,0.15305
597.82528,0.15776
599.75375,0.12953
601.68222,0.10321
603.61069,0.10657
605.53916,0.10784
607.46763,0.09443
609.39610,0.09127
611.32456,0.09203
613.25303,0.09150
615.18150,0.10558
617.10997,0.12256
619.03844,0.12774
620.96691,0.12628
622.89538,0.12453
624.82385,0.12831
626.75231,0.12803
628.68078,0.11272
630.60925,0.10081
632.53772,0.11770
634.46619,0.14417
636.39466,0.15001
638.32313,0.15679
640.25159,0.17205
642.18006,0.16750
644.10853,0.15320
646.03700,0.14590
647.96547,0.13320
649.89394,0.12223
651.82241,0.12530
653.75088,0.13624
655.67934,0.15273
657.60781,0.15916
659.53628,0.13712
661.46475,0.11038
663.39322,0.10765
665.32169,0.11362
667.25016,0.12278
669.17862,0.15694
671.10709,0.17566
673.03556,0.16783
674.96403,0.14667
676.89250,0.12773
678.82097,0.13150
680.74944,0.13562
682.67791,0.11344
684.60637,0.09940
686.53484,0.11587
688.46331,0.12635
690.39178,0.12177
692.32025,0.11958
694.24872,0.11351
696.17719,0.10786
698.10565,0.11555
700.03412,0.12399
701.96259,0.11106
703.89106,0.08436
705.81953,0.07605
707.74800,0.09513
709.67647,0.12452
711.60494,0.14437
713.53340,0.14037
715.46187,0.11874
717.39034,0.11144
719.31881,0.13204
721.24728,0.14912
723.17575,0.14634
725.10422,0.14058
727.03268,0.13593
728.96115,0.12803
730.88962,0.12119
732.81809,0.11760
734.74656,0.11515
736.67503,0.12157
738.60350,0.13163
740.53197,0.12625
742.46043,0.11366
744.38890,0.11898
746.31737,0.13652
748.24584,0.14001
750.17431,0.13435
752.10278,0.13006
754.03125,0.12501
755.95971,0.13298
757.88818,0.15454
759.81665,0.16580
761.74512,0.15964
763.67359,0.15043
765.60206,0.14119
767.53053,0.13008
769.45900,0.13039
771.38746,0.13893
773.31593,0.13790
775.24440,0.12740
777.17287,0.11455
779.10134,0.10558
781.02981,0.10970
782.95828,0.12732
784.88674,0.14315
786.81521,0.14905
788.74368,0.15398
790.67215,0.15568
792.60062,0.15131
794.52909,0.15082
796.45756,0.15413
798.38602,0.15513
800.31449,0.15246
802.24296,0.14560
804.17143,0.13137
806.09990,0.11556
808.02837,0.11723
809.95684,0.13332
811.88531,0.14192
813.81377,0.14474
815.74224,0.15269
817.67071,0.15539
819.59918,0.14555
821.52765,0.13694
823.45612,0.13960
825.38459,0.14813
827.31305,0.15166
829.24152,0.14569
831.16999,0.14191
833.09846,0.14752
835.02693,0.15308
836.95540,0.15664
838.88387,0.15601
840.81234,0.15051
842.74080,0.15408
844.66927,0.16545
846.59774,0.16551
848.52621,0.15489
850.45468,0.15028
852.38315,0.15170
854.31162,0.15240
856.24008,0.14933
858.16855,0.14365
860.09702,0.14648
862.02549,0.15322
863.95396,0.15056
865.88243,0.14610
867.81090,0.14690
869.73937,0.14526
871.66783,0.14512
873.59630,0.15270
875.52477,0.15294
877.45324,0.14241
879.38171,0.13881
881.31018,0.14570
883.23865,0.14750
885.16711,0.13939
887.09558,0.13363
889.02405,0.13492
890.95252,0.14239
892.88099,0.15090
894.80946,0.14734
896.73793,0.13864
898.66640,0.14204
900.59486,0.14789
902.52333,0.14576
904.45180,0.14559
906.38027,0.15058
908.30874,0.15454
910.23721,0.15020
912.16568,0.13919
914.09414,0.13448
916.02261,0.13742
917.95108,0.13819
919.87955,0.13459
921.80802,0.13203
923.73649,0.13698
925.66496,0.14952
927.59343,0.15514
929.52189,0.14555
931.45036,0.13482
933.37883,0.13252
935.30730,0.13278
937.23577,0.13208
939.16424,0.13117
941.09271,0.12943
943.02117,0.13148
944.94964,0.14032
946.87811,0.14917
948.80658,0.14886
950.73505,0.13999
952.66352,0.13414
954.59199,0.13731
956.52045,0.14272
958.44892,0.14252
960.37739,0.14035
962.30586,0.14531
964.23433,0.15450
966.16280,0.15789
968.09127,0.15556
970.01974,0.15151
971.94820,0.14363
973.87667,0.13612
975.80514,0.13762
977.73361,0.15004
979.66208,0.16389
981.59055,0.16282
983.51902,0.14965
985.44748,0.13962
987.37595,0.13613
989.30442,0.13814
991.23289,0.14808
993.16136,0.15905
995.08983,0.15723
997.01830,0.14980
998.94677,0.15070
1000.87523,0.15473
1002.80370,0.15840
1004.73217,0.16431
1006.66064,0.16746
1008.58911,0.16448
1010.51758,0.15815
1012.44605,0.15016
1014.37451,0.14239
1016.30298,0.14144
1018.23145,0.14909
1020.15992,0.15718
1022.08839,0.16198
1024.01686,0.16128
1025.94533,0.15439
1027.87380,0.15309
1029.80226,0.15436
1031.73073,0.14834
1033.65920,0.14797
1035.58767,0.15101
1037.51614,0.14470
1039.44461,0.13971
1041.37308,0.14259
1043.30154,0.14873
1045.23001,0.15885
1047.15848,0.17093
1049.08695,0.17641
1051.01542,0.17197
1052.94389,0.16112
1054.87236,0.14928
1056.80083,0.14231
1058.72929,0.14351
1060.65776,0.15201
1062.58623,0.16114
1064.51470,0.16552
1066.44317,0.16759
1068.37164,0.16668
1070.30011,0.15927
1072.22857,0.15642
1074.15704,0.16661
1076.08551,0.17439
1078.01398,0.17266
1079.94245,0.17160
1081.87092,0.17180
1083.79939,0.17048
1085.72786,0.16865
1087.65632,0.16292
1089.58479,0.15629
1091.51326,0.15798
1093.44173,0.16177
1095.37020,0.15814
1097.29867,0.15320
1099.22714,0.15241
1101.15560,0.15615
1103.08407,0.16641
1105.01254,0.17243
1106.94101,0.16203
1108.86948,0.14762
1110.79795,0.14853
1112.72642,0.16266
1114.65489,0.17303
1116.58335,0.17305
1118.51182,0.17083
1120.44029,0.17354
1122.36876,0.17944
1124.29723,0.18029
1126.22570,0.17391
1128.15417,0.16718
1130.08263,0.16488
1132.01110,0.16291
1133.93957,0.15632
1135.86804,0.15462
1137.79651,0.16159
1139.72498,0.16342
1141.65345,0.16076
1143.58191,0.16110
1145.51038,0.16237
1147.43885,0.16364
1149.36732,0.16115
1151.29579,0.15663
1153.22426,0.15904
1155.15273,0.16535
1157.08120,0.16773
1159.00966,0.16845
1160.93813,0.16911
1162.86660,0.16737
1164.79507,0.16809
1166.72354,0.17186
1168.65201,0.17204
1170.58048,0.16809
1172.50894,0.16337
1174.43741,0.16138
1176.36588,0.16178
1178.29435,0.16238
1180.22282,0.16509
1182.15129,0.16871
1184.07976,0.16900
1186.00823,0.16676
1187.93669,0.16758
1189.86516,0.17099
1191.79363,0.16997
1193.72210,0.16665
1195.65057,0.16678
1197.57904,0.16641
1199.50751,0.16147
1201.43597,0.15723
1203.36444,0.15929
1205.29291,0.16408
1207.22138,0.16692
1209.14985,0.16824
1211.07832,0.16721
1213.00679,0.16416
1214.93526,0.16357
1216.86372,0.16512
1218.79219,0.16563
1220.72066,0.16650
1222.64913,0.16867
1224.57760,0.16883
1226.50607,0.16416
1228.43454,0.15987
1230.36300,0.16101
1232.29147,0.16556
1234.21994,0.17153
1236.14841,0.17541
1238.07688,0.17622
1240.00535,0.17694
1241.93382,0.17610
1243.86229,0.17151
1245.79075,0.16627
1247.71922,0.16441
1249.64769,0.16527
1251.57616,0.16518
1253.50463,0.16125
1255.43310,0.15580
1257.36157,0.15420
1259.29003,0.15631
1261.21850,0.15804
1263.14697,0.16061
1265.07544,0.16601
1267.00391,0.16962
1268.93238,0.16975
1270.86085,0.17009
1272.78932,0.17189
1274.71778,0.17202
1276.64625,0.16933
1278.57472,0.16807
1280.50319,0.16911
1282.43166,0.17011
1284.36013,0.17195
1286.28860,0.17372
1288.21706,0.17317
1290.14553,0.17222
1292.07400,0.17125
1294.00247,0.16895
1295.93094,0.16584
1297.85941,0.16382
1299.78788,0.16481
1301.71634,0.16601
1303.64481,0.16379
1305.57328,0.16082
1307.50175,0.16127
1309.43022,0.16481
1311.35869,0.17051
1313.28716,0.17488
1315.21563,0.17423
1317.14409,0.17325
1319.07256,0.17421
1321.00103,0.17262
1322.92950,0.16925
1324.85797,0.16897
1326.78644,0.17070
1328.71491,0.17117
1330.64337,0.16817
1332.57184,0.16199
1334.50031,0.15894
1336.42878,0.16385
1338.35725,0.17161
1340.28572,0.17709
1342.21419,0.20736
1344.14266,0.26529
1346.07112,0.29392
1347.99959,0.25802
1349.92806,0.19797
1351.85653,0.16942
1353.78500,0.16835
1355.71347,0.16800
1357.64194,0.16798
1359.57040,0.17087
1361.49887,0.17468
1363.42734,0.17311
1365.35581,0.16653
1367.28428,0.16454
1369.21275,0.16794
1371.14122,0.17260
1373.06969,0.17675
1374.99815,0.17872
1376.92662,0.17660
1378.85509,0.17366
1380.78356,0.17298
1382.71203,0.17637
1384.64050,0.18444
1386.56897,0.19223
1388.49743,0.19159
1390.42590,0.18679
1392.35437,0.18582
1394.28284,0.18721
1396.21131,0.18883
1398.13978,0.18915
1400.06825,0.18589
1401.99672,0.18414
1403.92518,0.18564
1405.85365,0.18511
1407.78212,0.18429
1409.71059,0.18460
1411.63906,0.18214
1413.56753,0.18144
1415.49600,0.18688
1417.42446,0.19499
1419.35293,0.19513
1421.28140,0.18895
1423.20987,0.18834
1425.13834,0.18747
1427.06681,0.18464
1428.99528,0.18651
1430.92375,0.18955
1432.85221,0.18945
1434.78068,0.19106
1436.70915,0.19155
1438.63762,0.18497
1440.56609,0.18083
1442.49456,0.18318
1444.42303,0.18784
1446.35149,0.18945
1448.27996,0.18499
1450.20843,0.18048
1452.13690,0.18370
1454.06537,0.19421
1455.99384,0.20986
1457.92231,0.21299
1459.85077,0.19727
1461.77924,0.19118
1463.70771,0.19658
1465.63618,0.19697
1467.56465,0.18935
1469.49312,0.19091
1471.42159,0.20513
1473.35006,0.21737
1475.27852,0.21384
1477.20699,0.20490
1479.13546,0.19746
1481.06393,0.19257
1482.99240,0.19154
1484.92087,0.19607
1486.84934,0.20587
1488.77780,0.21532
1490.70627,0.21151
1492.63474,0.20284
1494.56321,0.20311
1496.49168,0.20675
1498.42015,0.20322
1500.34862,0.19701
1502.27709,0.19470
1504.20555,0.20461
1506.13402,0.23549
1508.06249,0.24821
1509.99096,0.22839
1511.91943,0.21293
1513.84790,0.20856
1515.77637,0.21333
1517.70483,0.21727
1519.63330,0.22165
1521.56177,0.22782
1523.49024,0.22442
1525.41871,0.21987
1527.34718,0.21321
1529.27565,0.20432
1531.20412,0.20697
1533.13258,0.21707
1535.06105,0.21577
1536.98952,0.21650
1538.91799,0.23766
1540.84646,0.25804
1542.77493,0.24108
1544.70340,0.21580
1546.63186,0.19849
1548.56033,0.19392
1550.48880,0.19471
1552.41727,0.19564
1554.34574,0.20252
1556.27421,0.22256
1558.20268,0.25349
1560.13115,0.23571
1562.05961,0.20382
1563.98808,0.19257
1565.91655,0.19112
1567.84502,0.19716
1569.77349,0.20083
1571.70196,0.19245
1573.63043,0.18955
1575.55889,0.19665
1577.48736,0.19721
1579.41583,0.18993
1581.34430,0.18582
1583.27277,0.18468
1585.20124,0.18148
1587.12971,0.17669
1589.05818,0.17597
1590.98664,0.18170
1592.91511,0.18850
1594.84358,0.18817
1596.77205,0.18166
1598.70052,0.17842
1600.62899,0.18247
1602.55746,0.18604
1604.48592,0.18435
1606.41439,0.18409
1608.34286,0.18658
1610.27133,0.18690
1612.19980,0.18639
1614.12827,0.19018
1616.05674,0.19742
1617.98521,0.19692
1619.91367,0.19263
1621.84214,0.19502
1623.77061,0.19994
1625.69908,0.20018
1627.62755,0.19744
1629.55602,0.19302
1631.48449,0.19195
1633.41295,0.20136
1635.34142,0.22531
1637.26989,0.23424
1639.19836,0.21874
1641.12683,0.20757
1643.05530,0.20896
1644.98377,0.22020
1646.91223,0.23006
1648.84070,0.22394
1650.76917,0.22090
1652.69764,0.23254
1654.62611,0.22994
1656.55458,0.21277
1658.48305,0.20376
1660.41152,0.20584
1662.33998,0.21312
1664.26845,0.21397
1666.19692,0.21509
1668.12539,0.22424
1670.05386,0.22766
1671.98233,0.21836
1673.91080,0.21588
1675.83926,0.21835
1677.76773,0.21421
1679.69620,0.21023
1681.62467,0.21750
1683.55314,0.23408
1685.48161,0.23159
1687.41008,0.21873
1689.33855,0.21053
1691.26701,0.20440
1693.19548,0.20579
1695.12395,0.21844
1697.05242,0.23110
1698.98089,0.23230
1700.90936,0.22566
1702.83783,0.21775
1704.76629,0.21335
1706.69476,0.20790
1708.62323,0.19949
1710.55170,0.19493
1712.48017,0.19880
1714.40864,0.21252
1716.33711,0.23337
1718.26558,0.23399
1720.19404,0.21208
1722.12251,0.19587
1724.05098,0.18875
1725.97945,0.18808
1727.90792,0.19271
1729.83639,0.19957
1731.76486,0.20580
1733.69332,0.20964
1735.62179,0.20750
1737.55026,0.20560
1739.47873,0.20708
1741.40720,0.20986
1743.33567,0.21077
1745.26414,0.20984
1747.19261,0.21220
1749.12107,0.21701
1751.04954,0.21108
1752.97801,0.19815
1754.90648,0.19329
1756.83495,0.19468
1758.76342,0.19427
1760.69189,0.19329
1762.62035,0.19160
1764.54882,0.18915
1766.47729,0.19301
1768.40576,0.20304
1770.33423,0.21205
1772.26270,0.21398
1774.19117,0.20614
1776.11964,0.19721
1778.04810,0.19324
1779.97657,0.19310
1781.90504,0.19231
1783.83351,0.19031
1785.76198,0.18907
1787.69045,0.18922
1789.61892,0.19328
1791.54738,0.20115
1793.47585,0.20358
1795.40432,0.20069
1797.33279,0.19951
1799.26126,0.19922
1801.18973,0.19731
1803.11820,0.19453
1805.04666,0.19202
1806.97513,0.18903
1808.90360,0.18753
1810.83207,0.18950
1812.76054,0.19015
1814.68901,0.18804
1816.61748,0.19142
1818.54595,0.20386
1820.47441,0.21459
1822.40288,0.21355
1824.33135,0.20232
1826.25982,0.19313
1828.18829,0.19344
1830.11676,0.19480
1832.04523,0.19114
1833.97369,0.18879
1835.90216,0.19057
1837.83063,0.19111
1839.75910,0.18872
1841.68757,0.18983
1843.61604,0.19510
1845.54451,0.19667
1847.47298,0.19369
1849.40144,0.19075
1851.32991,0.18914
1853.25838,0.18886
1855.18685,0.18851
1857.11532,0.18734
1859.04379,0.18697
1860.97226,0.18703
1862.90072,0.18712
1864.82919,0.19037
1866.75766,0.19800
1868.68613,0.20327
1870.61460,0.19945
1872.54307,0.19324
1874.47154,0.18920
1876.40001,0.18672
1878.32847,0.18609
1880.25694,0.18638
1882.18541,0.18623
1884.11388,0.18628
1886.04235,0.18743
1887.97082,0.18978
1889.89929,0.19168
1891.82775,0.19120
1893.75622,0.19066
1895.68469,0.19074
1897.61316,0.18798
1899.54163,0.18380
1901.47010,0.18279
1903.39857,0.18474
1905.32704,0.18531
1907.25550,0.18509
1909.18397,0.18858
1911.11244,0.19399
1913.04091,0.19618
1914.96938,0.19526
1916.89785,0.19536
1918.82632,0.19602
1920.75478,0.19364
1922.68325,0.18888
1924.61172,0.18464
1926.54019,0.18289
1928.46866,0.18262
1930.39713,0.18432
1932.32560,0.18730
1934.25407,0.18900
1936.18253,0.18869
1938.11100,0.18674
1940.03947,0.18771
1941.96794,0.19209
1943.89641,0.19297
1945.82488,0.19092
1947.75335,0.18818
1949.68181,0.18265
1951.61028,0.17911
1953.53875,0.18217
1955.46722,0.18750
1957.39569,0.19101
1959.32416,0.19220
1961.25263,0.19196
1963.18110,0.19205
1965.10956,0.19331
1967.03803,0.19363
1968.96650,0.19122
1970.89497,0.18926
1972.82344,0.18903
1974.75191,0.18868
1976.68038,0.18878
1978.60884,0.19009
1980.53731,0.19076
1982.46578,0.18990
1984.39425,0.18996
1986.32272,0.19207
1988.25119,0.19369
1990.17966,0.19341
1992.10812,0.19220
1994.03659,0.19004
1995.96506,0.18746
1997.89353,0.18594
1999.82200,0.18634
2001.75047,0.18879
2003.67894,0.19091
2005.60741,0.19059
2007.53587,0.19012
2009.46434,0.19127
2011.39281,0.19152
2013.32128,0.19151
2015.24975,0.19442
2017.17822,0.19641
2019.10669,0.19407
2021.03515,0.19118
2022.96362,0.18912
2024.89209,0.18650
2026.82056,0.18433
2028.74903,0.18569
2030.67750,0.19068
2032.60597,0.19436
2034.53444,0.19361
2036.46290,0.19166
2038.39137,0.19113
2040.31984,0.18939
2042.24831,0.18667
2044.17678,0.18676
2046.10525,0.18922
2048.03372,0.19056
2049.96218,0.18868
2051.89065,0.18550
2053.81912,0.18558
2055.74759,0.19027
2057.67606,0.19410
2059.60453,0.19214
2061.53300,0.18764
2063.46147,0.18548
2065.38993,0.18526
2067.31840,0.18469
2069.24687,0.18429
2071.17534,0.18510
2073.10381,0.18655
2075.03228,0.18756
2076.96075,0.18747
2078.88921,0.18713
2080.81768,0.18807
2082.74615,0.18958
2084.67462,0.19033
2086.60309,0.19078
2088.53156,0.19150
2090.46003,0.19309
2092.38850,0.19494
2094.31696,0.19592
2096.24543,0.19629
2098.17390,0.19459
2100.10237,0.19193
2102.03084,0.19207
2103.95931,0.19266
2105.88778,0.19069
2107.81624,0.18865
2109.74471,0.18817
2111.67318,0.18944
2113.60165,0.19193
2115.53012,0.19302
2117.45859,0.19269
2119.38706,0.19240
2121.31553,0.19222
2123.24399,0.19175
2125.17246,0.19019
2127.10093,0.18753
2129.02940,0.18495
2130.95787,0.18421
2132.88634,0.18557
2134.81481,0.18762
2136.74327,0.18907
2138.67174,0.19028
2140.60021,0.19104
2142.52868,0.18915
2144.45715,0.18650
2146.38562,0.18729
2148.31409,0.19015
2150.24255,0.19123
2152.17102,0.19020
2154.09949,0.19022
2156.02796,0.19227
2157.95643,0.19279
2159.88490,0.19131
2161.81337,0.19149
2163.74184,0.19290
2165.67030,0.19233
2167.59877,0.18944
2169.52724,0.18777
2171.45571,0.18998
2173.38418,0.19317
2175.31265,0.19341
2177.24112,0.19165
2179.16958,0.19134
2181.09805,0.19233
2183.02652,0.19154
2184.95499,0.18979
2186.88346,0.19011
2188.81193,0.19184
2190.74040,0.19271
2192.66887,0.19181
2194.59733,0.19025
2196.52580,0.18998
2198.45427,0.19026
2200.38274,0.18950
2202.31121,0.18857
2204.23968,0.18879
2206.16815,0.18854
2208.09661,0.18666
2210.02508,0.18576
2211.95355,0.18654
2213.88202,0.18695
2215.81049,0.18651
2217.73896,0.18676
2219.66743,0.18775
2221.59590,0.18839
2223.52436,0.18963
2225.45283,0.19143
2227.38130,0.19292
2229.30977,0.19361
2231.23824,0.19221
2233.16671,0.19103
2235.09518,0.19281
2237.02364,0.19472
2238.95211,0.19375
2240.88058,0.19076
2242.80905,0.18925
2244.73752,0.19093
2246.66599,0.19190
2248.59446,0.19094
2250.52293,0.19100
2252.45139,0.19075
2254.37986,0.18889
2256.30833,0.18787
2258.23680,0.18886
2260.16527,0.19145
2262.09374,0.19347
2264.02221,0.19323
2265.95067,0.19272
2267.87914,0.19204
2269.80761,0.18989
2271.73608,0.18933
2273.66455,0.19233
2275.59302,0.19552
2277.52149,0.19556
2279.44996,0.19197
2281.37842,0.18752
2283.30689,0.18641
2285.23536,0.18850
2287.16383,0.19039
2289.09230,0.19159
2291.02077,0.19343
2292.94924,0.19446
2294.87770,0.19369
2296.80617,0.19347
2298.73464,0.19394
2300.66311,0.19345
2302.59158,0.19248
2304.52005,0.19126
2306.44852,0.18964
2308.37699,0.19041
2310.30545,0.19264
2312.23392,0.19150
2314.16239,0.19305
2316.09086,0.20193
2318.01933,0.20765
2319.94780,0.20656
2321.87627,0.20749
2323.80473,0.20984
2325.73320,0.20922
2327.66167,0.21130
2329.59014,0.21422
2331.51861,0.21174
2333.44708,0.21285
2335.37555,0.22127
2337.30401,0.22382
2339.23248,0.21563
2341.16095,0.21168
2343.08942,0.21747
2345.01789,0.21771
2346.94636,0.21408
2348.87483,0.21593
2350.80330,0.22093
2352.73176,0.22315
2354.66023,0.21538
2356.58870,0.20985
2358.51717,0.22692
2360.44564,0.23548
2362.37411,0.21444
2364.30258,0.20911
2366.23104,0.22942
2368.15951,0.23508
2370.08798,0.22443
2372.01645,0.21638
2373.94492,0.21155
2375.87339,0.20588
2377.80186,0.19899
2379.73033,0.19177
2381.65879,0.18621
2383.58726,0.18547
2385.51573,0.18855
2387.44420,0.19079
2389.37267,0.19017
2391.30114,0.18889
2393.22961,0.18980
2395.15807,0.19119
2397.08654,0.19125
2399.01501,0.19213
2400.94348,0.19402
2402.87195,0.19336
2404.80042,0.18910
2406.72889,0.18692
2408.65736,0.18878
2410.58582,0.18986
2412.51429,0.18966
2414.44276,0.19055
2416.37123,0.19218
2418.29970,0.19246
2420.22817,0.19169
2422.15664,0.19211
2424.08510,0.19211
2426.01357,0.19068
2427.94204,0.19060
2429.87051,0.19262
2431.79898,0.19396
2433.72745,0.19228
2435.65592,0.19007
2437.58439,0.18983
2439.51285,0.19031
2441.44132,0.19133
2443.36979,0.19314
2445.29826,0.19463
2447.22673,0.19411
2449.15520,0.19243
2451.08367,0.19283
2453.01213,0.19394
2454.94060,0.19293
2456.86907,0.19090
2458.79754,0.18959
2460.72601,0.19072
2462.65448,0.19393
2464.58295,0.19454
2466.51142,0.19168
2468.43988,0.18992
2470.36835,0.19003
2472.29682,0.19012
2474.22529,0.19129
2476.15376,0.19326
2478.08223,0.19358
2480.01070,0.19298
2481.93916,0.19328
2483.86763,0.19472
2485.79610,0.19516
2487.72457,0.19275
2489.65304,0.19131
2491.58151,0.19314
2493.50998,0.19405
2495.43844,0.19310
2497.36691,0.19271
2499.29538,0.19185
2501.22385,0.18960
2503.15232,0.18788
2505.08079,0.18873
2507.00926,0.19132
2508.93773,0.19212
2510.86619,0.19151
2512.79466,0.19211
2514.72313,0.19322
2516.65160,0.19441
2518.58007,0.19524
2520.50854,0.19437
2522.43701,0.19274
2524.36547,0.18980
2526.29394,0.18644
2528.22241,0.18724
2530.15088,0.18922
2532.07935,0.18985
2534.00782,0.19202
2535.93629,0.19221
2537.86476,0.18983
2539.79322,0.18942
2541.72169,0.19004
2543.65016,0.19012
2545.57863,0.18994
2547.50710,0.18902
2549.43557,0.18886
2551.36404,0.19096
2553.29250,0.19316
2555.22097,0.19393
2557.14944,0.19412
2559.07791,0.19317
2561.00638,0.19052
2562.93485,0.18829
2564.86332,0.18813
2566.79179,0.18939
2568.72025,0.19125
2570.64872,0.19239
2572.57719,0.19241
2574.50566,0.19320
2576.43413,0.19466
2578.36260,0.19515
2580.29107,0.19366
2582.21953,0.18935
2584.14800,0.18530
2586.07647,0.18676
2588.00494,0.19248
2589.93341,0.19533
2591.86188,0.19313
2593.79035,0.19076
2595.71882,0.19044
2597.64728,0.19104
2599.57575,0.19239
2601.50422,0.19260
2603.43269,0.19140
2605.36116,0.19345
2607.28963,0.19837
2609.21810,0.20057
2611.14656,0.20006
2613.07503,0.19932
2615.00350,0.19847
2616.93197,0.19751
2618.86044,0.19583
2620.78891,0.19359
2622.71738,0.19284
2624.64585,0.19429
2626.57431,0.19624
2628.50278,0.19746
2630.43125,0.19836
2632.35972,0.19922
2634.28819,0.19963
2636.21666,0.19991
2638.14513,0.19980
2640.07359,0.19726
2642.00206,0.19445
2643.93053,0.19631
2645.85900,0.20009
2647.78747,0.20049
2649.71594,0.19955
2651.64441,0.19951
2653.57288,0.19862
2655.50134,0.19742
2657.42981,0.19717
2659.35828,0.19689
2661.28675,0.19606
2663.21522,0.19541
2665.14369,0.19508
2667.07216,0.19559
2669.00062,0.19853
2670.92909,0.20257
2672.85756,0.20465
2674.78603,0.20392
2676.71450,0.20147
2678.64297,0.19882
2680.57144,0.19713
2682.49990,0.19770
2684.42837,0.20040
2686.35684,0.20310
2688.28531,0.20298
2690.21378,0.19989
2692.14225,0.19698
2694.07072,0.19678
2695.99919,0.19892
2697.92765,0.20034
2699.85612,0.19961
2701.78459,0.19820
2703.71306,0.19810
2705.64153,0.19941
2707.57000,0.19968
2709.49847,0.19864
2711.42693,0.19789
2713.35540,0.19795
2715.28387,0.19895
2717.21234,0.19962
2719.14081,0.19858
2721.06928,0.19803
2722.99775,0.20004
2724.92622,0.20319
2726.85468,0.20532
2728.78315,0.20357
2730.71162,0.19922
2732.64009,0.19831
2734.56856,0.20118
2736.49703,0.20317
2738.42550,0.20374
2740.35396,0.20471
2742.28243,0.20429
2744.21090,0.20179
2746.13937,0.19994
2748.06784,0.20036
2749.99631,0.20371
2751.92478,0.20797
2753.85325,0.21030
2755.78171,0.21095
2757.71018,0.21007
2759.63865,0.20875
2761.56712,0.20820
2763.49559,0.20740
2765.42406,0.20673
2767.35253,0.20638
2769.28099,0.20582
2771.20946,0.20672
2773.13793,0.20881
2775.06640,0.20869
2776.99487,0.20682
2778.92334,0.20599
2780.85181,0.20507
2782.78028,0.20386
2784.70874,0.20549
2786.63721,0.20978
2788.56568,0.21227
2790.49415,0.21067
2792.42262,0.20837
2794.35109,0.20778
2796.27956,0.20764
2798.20802,0.20713
2800.13649,0.20524
2802.06496,0.20366
2803.99343,0.20444
2805.92190,0.20516
2807.85037,0.20505
2809.77884,0.20612
2811.70731,0.20737
2813.63577,0.20686
2815.56424,0.20685
2817.49271,0.20811
2819.42118,0.20779
2821.34965,0.20614
2823.27812,0.20435
2825.20659,0.20106
2827.13505,0.19792
2829.06352,0.19957
2830.99199,0.20383
2832.92046,0.20533
2834.84893,0.20471
2836.77740,0.20446
2838.70587,0.20457
2840.63433,0.20549
2842.56280,0.20914
2844.49127,0.21247
2846.41974,0.21034
2848.34821,0.20525
2850.27668,0.20129
2852.20515,0.19859
2854.13362,0.19791
2856.06208,0.20050
2857.99055,0.20498
2859.91902,0.20897
2861.84749,0.21067
2863.77596,0.20715
2865.70443,0.20215
2867.63290,0.20436
2869.56136,0.20990
2871.48983,0.20858
2873.41830,0.20108
2875.34677,0.19533
2877.27524,0.19553
2879.20371,0.19954
2881.13218,0.20337
2883.06065,0.20509
2884.98911,0.20607
2886.91758,0.20615
2888.84605,0.20519
2890.77452,0.20690
2892.70299,0.20955
2894.63146,0.20880
2896.55993,0.20833
2898.48839,0.20956
2900.41686,0.20809
2902.34533,0.20580
2904.27380,0.20496
2906.20227,0.20194
2908.13074,0.19796
2910.05921,0.19850
2911.98768,0.20305
2913.91614,0.20658
2915.84461,0.20819
2917.77308,0.20992
2919.70155,0.21037
2921.63002,0.20756
2923.55849,0.20444
2925.48696,0.20265
2927.41542,0.20152
2929.34389,0.20427
2931.27236,0.20858
2933.20083,0.20814
2935.12930,0.20350
2937.05777,0.19822
2938.98624,0.19793
2940.91471,0.20282
2942.84317,0.20588
2944.77164,0.20645
2946.70011,0.20649
2948.62858,0.20541
2950.55705,0.20380
2952.48552,0.20162
2954.41399,0.20105
2956.34245,0.20160
2958.27092,0.19985
2960.19939,0.20118
2962.12786,0.20842
2964.05633,0.21333
2965.98480,0.20998
2967.91327,0.20393
2969.84174,0.20399
2971.77020,0.20617
2973.69867,0.20516
2975.62714,0.20461
2977.55561,0.20402
2979.48408,0.20227
2981.41255,0.20209
2983.34102,0.20445
2985.26948,0.20909
2987.19795,0.21298
2989.12642,0.21367
2991.05489,0.21243
2992.98336,0.21106
2994.91183,0.21052
2996.84030,0.21120
2998.76877,0.21406
3000.69723,0.21511
3002.62570,0.21099
3004.55417,0.20823
3006.48264,0.20872
3008.41111,0.20706
3010.33958,0.20235
3012.26805,0.19431
3014.19651,0.17972
3016.12498,0.16624
3018.05345,0.17205
3019.98192,0.19302
3021.91039,0.20772
3023.83886,0.21316
3025.76733,0.21439
3027.69579,0.21052
3029.62426,0.20735
3031.55273,0.21207
3033.48120,0.21935
3035.40967,0.22123
3037.33814,0.21850
3039.26661,0.21604
3041.19508,0.21525
3043.12354,0.21306
3045.05201,0.20981
3046.98048,0.20934
3048.90895,0.21170
3050.83742,0.21371
3052.76589,0.21261
3054.69436,0.20908
3056.62282,0.20962
3058.55129,0.21821
3060.47976,0.22571
3062.40823,0.22377
3064.33670,0.21634
3066.26517,0.20981
3068.19364,0.20790
3070.12211,0.20967
3072.05057,0.21238
3073.97904,0.21228
3075.90751,0.20729
3077.83598,0.20576
3079.76445,0.20923
3081.69292,0.20619
3083.62139,0.19598
3085.54985,0.19291
3087.47832,0.20114
3089.40679,0.20804
3091.33526,0.20714
3093.26373,0.20232
3095.19220,0.20272
3097.12067,0.21075
3099.04914,0.21441
3100.97760,0.21007
3102.90607,0.20477
3104.83454,0.20232
3106.76301,0.20242
3108.69148,0.20425
3110.61995,0.20708
3112.54842,0.20840
3114.47688,0.20816
3116.40535,0.21085
3118.33382,0.21601
3120.26229,0.21475
3122.19076,0.21030
3124.11923,0.21400
3126.04770,0.22065
3127.97617,0.21896
3129.90463,0.21049
3131.83310,0.20523
3133.76157,0.20529
3135.69004,0.20735
3137.61851,0.20957
3139.54698,0.20887
3141.47545,0.20560
3143.40391,0.20401
3145.33238,0.20440
3147.26085,0.20304
3149.18932,0.20521
3151.11779,0.21428
3153.04626,0.21923
3154.97473,0.21703
3156.90320,0.21377
3158.83166,0.21191
3160.76013,0.21267
3162.68860,0.21543
3164.61707,0.21930
3166.54554,0.22331
3168.47401,0.22544
3170.40248,0.22601
3172.33094,0.22531
3174.25941,0.22253
3176.18788,0.21911
3178.11635,0.21840
3180.04482,0.22234
3181.97329,0.22539
3183.90176,0.22351
3185.83022,0.22191
3187.75869,0.21869
3189.68716,0.21134
3191.61563,0.21028
3193.54410,0.21622
3195.47257,0.22035
3197.40104,0.22321
3199.32951,0.22311
3201.25797,0.21755
3203.18644,0.21532
3205.11491,0.22116
3207.04338,0.22667
3208.97185,0.22536
3210.90032,0.22289
3212.82879,0.22424
3214.75725,0.22298
3216.68572,0.21636
3218.61419,0.21123
3220.54266,0.21022
3222.47113,0.21052
3224.39960,0.20942
3226.32807,0.20752
3228.25654,0.20746
3230.18500,0.20755
3232.11347,0.20632
3234.04194,0.20837
3235.97041,0.21501
3237.89888,0.21828
3239.82735,0.21454
3241.75582,0.21124
3243.68428,0.21521
3245.61275,0.22137
3247.54122,0.21992
3249.46969,0.21427
3251.39816,0.21344
3253.32663,0.21834
3255.25510,0.22505
3257.18357,0.22757
3259.11203,0.22391
3261.04050,0.21769
3262.96897,0.21187
3264.89744,0.20820
3266.82591,0.20765
3268.75438,0.20717
3270.68285,0.20236
3272.61131,0.19930
3274.53978,0.20529
3276.46825,0.21378
3278.39672,0.21812
3280.32519,0.21703
3282.25366,0.21418
3284.18213,0.21468
3286.11060,0.21357
3288.03906,0.20981
3289.96753,0.20847
3291.89600,0.20873
3293.82447,0.21060
3295.75294,0.21261
3297.68141,0.21031
3299.60988,0.20765
3301.53834,0.20939
3303.46681,0.21027
3305.39528,0.20843
3307.32375,0.20855
3309.25222,0.21024
3311.18069,0.20970
3313.10916,0.20656
3315.03763,0.20364
3316.96609,0.20357
3318.89456,0.20701
3320.82303,0.21059
3322.75150,0.21362
3324.67997,0.21660
3326.60844,0.21546
3328.53691,0.21411
3330.46537,0.21640
3332.39384,0.21733
3334.32231,0.21864
3336.25078,0.22251
3338.17925,0.22553
3340.10772,0.22539
3342.03619,0.22251
3343.96466,0.22092
3345.89312,0.21870
3347.82159,0.21420
3349.75006,0.21394
3351.67853,0.21815
3353.60700,0.22199
3355.53547,0.22130
3357.46394,0.21680
3359.39240,0.21753
3361.32087,0.22448
3363.24934,0.22688
3365.17781,0.22009
3367.10628,0.21401
3369.03475,0.21779
3370.96322,0.22350
3372.89168,0.22239
3374.82015,0.21893
3376.74862,0.21647
3378.67709,0.21564
3380.60556,0.21958
3382.53403,0.22558
3384.46250,0.22585
3386.39097,0.21861
3388.31943,0.21085
3390.24790,0.21092
3392.17637,0.21994
3394.10484,0.22637
3396.03331,0.22207
3397.96178,0.21779
3399.89025,0.22148
3401.81871,0.22305
3403.74718,0.21574
3405.67565,0.20815
3407.60412,0.20665
3409.53259,0.20794
3411.46106,0.20958
3413.38953,0.21099
3415.31800,0.21014
3417.24646,0.20831
3419.17493,0.20944
3421.10340,0.21415
3423.03187,0.21711
3424.96034,0.21246
3426.88881,0.20566
3428.81728,0.20459
3430.74574,0.20773
3432.67421,0.21200
3434.60268,0.21352
3436.53115,0.20784
3438.45962,0.20008
3440.38809,0.19950
3442.31656,0.20311
3444.24503,0.20311
3446.17349,0.19964
3448.10196,0.19503
3450.03043,0.19475
3451.95890,0.19971
3453.88737,0.20031
3455.81584,0.19521
3457.74431,0.19586
3459.67277,0.20358
3461.60124,0.20794
3463.52971,0.20690
3465.45818,0.20360
3467.38665,0.19805
3469.31512,0.19423
3471.24359,0.19507
3473.17206,0.19760
3475.10052,0.19993
3477.02899,0.19811
3478.95746,0.18963
3480.88593,0.18285
3482.81440,0.18447
3484.74287,0.18936
3486.67134,0.19120
3488.59980,0.19039
3490.52827,0.19074
3492.45674,0.19179
3494.38521,0.19198
3496.31368,0.19412
3498.24215,0.19849
3500.17062,0.19947
3502.09909,0.19559
3504.02755,0.19327
3505.95602,0.19499
3507.88449,0.19498
3509.81296,0.18977
3511.74143,0.18118
3513.66990,0.17240
3515.59837,0.16797
3517.52683,0.16947
3519.45530,0.17403
3521.38377,0.18100
3523.31224,0.18739
3525.24071,0.18970
3527.16918,0.18917
3529.09765,0.18359
3531.02611,0.17314
3532.95458,0.16549
3534.88305,0.16735
3536.81152,0.17544
3538.73999,0.17931
3540.66846,0.17732
3542.59693,0.17546
3544.52540,0.17795
3546.45386,0.17943
3548.38233,0.17522
3550.31080,0.17395
3552.23927,0.17508
3554.16774,0.17080
3556.09621,0.16557
3558.02468,0.16641
3559.95314,0.17162
3561.88161,0.17484
3563.81008,0.17908
3565.73855,0.18592
3567.66702,0.17869
3569.59549,0.16334
3571.52396,0.16020
3573.45243,0.16457
3575.38089,0.16619
3577.30936,0.16365
3579.23783,0.16188
3581.16630,0.16397
3583.09477,0.16967
3585.02324,0.17790
3586.95171,0.18466
3588.88017,0.17762
3590.80864,0.16647
3592.73711,0.16549
3594.66558,0.16624
3596.59405,0.16117
3598.52252,0.15704
3600.45099,0.15726
3602.37946,0.15911
3604.30792,0.15952
3606.23639,0.15863
3608.16486,0.15601
3610.09333,0.15560
3612.02180,0.16112
3613.95027,0.16424
3615.87874,0.16074
3617.80720,0.15788
3619.73567,0.15636
3621.66414,0.15383
3623.59261,0.15386
3625.52108,0.15722
3627.44955,0.16284
3629.37802,0.16108
3631.30649,0.14874
3633.23495,0.14098
3635.16342,0.14127
3637.09189,0.14715
3639.02036,0.15201
3640.94883,0.15060
3642.87730,0.14564
3644.80577,0.14394
3646.73423,0.15016
3648.66270,0.16311
3650.59117,0.16486
3652.51964,0.15418
3654.44811,0.14605
3656.37658,0.14290
3658.30505,0.14219
3660.23352,0.14164
3662.16198,0.13908
3664.09045,0.13453
3666.01892,0.13335
3667.94739,0.13901
3669.87586,0.14591
3671.80433,0.14807
3673.73280,0.15252
3675.66126,0.15744
3677.58973,0.15190
3679.51820,0.14442
3681.44667,0.14112
3683.37514,0.13965
3685.30361,0.14066
3687.23208,0.14881
3689.16055,0.15862
3691.08901,0.15371
3693.01748,0.13981
3694.94595,0.12792
3696.87442,0.12263
3698.80289,0.12593
3700.73136,0.13566
3702.65983,0.14376
3704.58829,0.14408
3706.51676,0.14457
3708.44523,0.15100
3710.37370,0.15571
3712.30217,0.14722
3714.23064,0.13870
3716.15911,0.13939
3718.08757,0.14240
3720.01604,0.14223
3721.94451,0.14068
3723.87298,0.14016
3725.80145,0.13762
3727.72992,0.13342
3729.65839,0.13399
3731.58686,0.14071
3733.51532,0.15008
3735.44379,0.15705
3737.37226,0.15391
3739.30073,0.14434
3741.22920,0.13747
3743.15767,0.13641
3745.08614,0.14265
3747.01460,0.15205
3748.94307,0.16050
3750.87154,0.16126
3752.80001,0.14979
3754.72848,0.13863
3756.65695,0.13143
3758.58542,0.12851
3760.51389,0.12814
3762.44235,0.12908
3764.37082,0.13204
3766.29929,0.13534
3768.22776,0.13724
3770.15623,0.13318
3772.08470,0.12622
3774.01317,0.12585
3775.94163,0.12898
3777.87010,0.13043
3779.79857,0.13107
3781.72704,0.13226
3783.65551,0.13173
3785.58398,0.13009
3787.51245,0.13002
3789.44092,0.12801
3791.36938,0.12376
3793.29785,0.12410
3795.22632,0.13196
3797.15479,0.14034
3799.08326,0.14151
3801.01173,0.13719
3802.94020,0.12849
3804.86866,0.12362
3806.79713,0.12898
3808.72560,0.13479
3810.65407,0.13292
3812.58254,0.13240
3814.51101,0.13644
3816.43948,0.13824
3818.36795,0.14095
3820.29641,0.14926
3822.22488,0.14648
3824.15335,0.13538
3826.08182,0.13003
3828.01029,0.13188
3829.93876,0.13880
3831.86723,0.14492
3833.79569,0.14953
3835.72416,0.15762
3837.65263,0.16219
3839.58110,0.15220
3841.50957,0.14116
3843.43804,0.13837
3845.36651,0.13797
3847.29498,0.13636
3849.22344,0.13650
3851.15191,0.14083
3853.08038,0.14420
3855.00885,0.14045
3856.93732,0.13775
3858.86579,0.13610
3860.79426,0.13538
3862.72272,0.13732
3864.65119,0.13730
3866.57966,0.13284
3868.50813,0.13176
3870.43660,0.13368
3872.36507,0.12937
3874.29354,0.12171
3876.22200,0.11748
3878.15047,0.11863
3880.07894,0.12173
3882.00741,0.12139
3883.93588,0.12227
3885.86435,0.12241
3887.79282,0.11672
3889.72129,0.11503
3891.64975,0.11751
3893.57822,0.11626
3895.50669,0.11621
3897.43516,0.12158
3899.36363,0.12867
3901.29210,0.13033
3903.22057,0.12518
3905.14903,0.12073
3907.07750,0.11934
3909.00597,0.11861
3910.93444,0.11900
3912.86291,0.11912
3914.79138,0.11936
3916.71985,0.12170
3918.64832,0.12401
3920.57678,0.12492
3922.50525,0.12511
3924.43372,0.12359
3926.36219,0.11833
3928.29066,0.11361
3930.21913,0.11388
3932.14760,0.11531
3934.07606,0.11274
3936.00453,0.10725
3937.93300,0.10449
3939.86147,0.10600
3941.78994,0.10798
3943.71841,0.10921
3945.64688,0.10918
3947.57535,0.10847
3949.50381,0.11071
3951.43228,0.11623
3953.36075,0.11933
3955.28922,0.11690
3957.21769,0.11190
3959.14616,0.10853
3961.07463,0.10964
3963.00309,0.11262
3964.93156,0.11242
3966.86003,0.11160
3968.78850,0.11275
3970.71697,0.11367
3972.64544,0.11500
3974.57391,0.11574
3976.50238,0.11127
3978.43084,0.10490
3980.35931,0.10281
3982.28778,0.10249
3984.21625,0.10120
3986.14472,0.10284
3988.07319,0.10860
3990.00166,0.11197
3991.93012,0.10845
3993.85859,0.10282
3995.78706,0.10062
3997.71553,0.10181
3999.64400,0.10291
4001.57247,0.09950
4003.50094,0.09293
4005.42941,0.09054
4007.35787,0.09350
4009.28634,0.09737
4011.21481,0.10148
4013.14328,0.10535
4015.07175,0.10471
4017.00022,0.10261
4018.92869,0.10637
4020.85715,0.11140
4022.78562,0.11050
4024.71409,0.10539
4026.64256,0.10220
4028.57103,0.10166
4030.49950,0.10067
4032.42797,0.09884
4034.35644,0.09411
4036.28490,0.09178
4038.21337,0.09538
4040.14184,0.09719
4042.07031,0.09729
4043.99878,0.09905
4045.92725,0.10232
4047.85572,0.10480
4049.78418,0.10342
4051.71265,0.10236
4053.64112,0.10520
4055.56959,0.10660
4057.49806,0.10256
4059.42653,0.09735
4061.35500,0.09641
4063.28346,0.09913
4065.21193,0.10089
4067.14040,0.10027
4069.06887,0.09888
4070.99734,0.09792
4072.92581,0.09648
4074.85428,0.09482
4076.78275,0.09717
4078.71121,0.10213
4080.63968,0.10525
4082.56815,0.10392
4084.49662,0.09912
4086.42509,0.09610
4088.35356,0.09483
4090.28203,0.09521
4092.21049,0.09889
4094.13896,0.10349
4096.06743,0.10538
4097.99590,0.10390
4099.92437,0.10353
4101.85284,0.10335
4103.78131,0.10032
4105.70978,0.09891
4107.63824,0.09956
4109.56671,0.09742
4111.49518,0.08897
4113.42365,0.07733
4115.35212,0.07570
4117.28059,0.08447
4119.20906,0.08844
4121.13752,0.08468
4123.06599,0.07983
4124.99446,0.07822
4126.92293,0.08131
4128.85140,0.08628
4130.77987,0.08859
4132.70834,0.08812
4134.63681,0.08607
4136.56527,0.08081
4138.49374,0.07963
4140.42221,0.08747
4142.35068,0.09237
4144.27915,0.09077
4146.20762,0.09219
4148.13609,0.09639
4150.06455,0.09579
4151.99302,0.08883
4153.92149,0.08039
4155.84996,0.07830
4157.77843,0.08315
4159.70690,0.08522
4161.63537,0.08358
4163.56384,0.08535
4165.49230,0.08779
4167.42077,0.08512
4169.34924,0.08052
4171.27771,0.08193
4173.20618,0.08800
4175.13465,0.08944
4177.06312,0.08561
4178.99158,0.08210
4180.92005,0.08002
4182.84852,0.07767
4184.77699,0.07642
4186.70546,0.07663
4188.63393,0.07615
4190.56240,0.07917
4192.49087,0.08273
4194.41933,0.07717
4196.34780,0.07048
4198.27627,0.07105
4200.20474,0.07109
4202.13321,0.06969
4204.06168,0.07409
4205.99015,0.07837
4207.91861,0.07428
4209.84708,0.06662
4211.77555,0.06352
4213.70402,0.06691
4215.63249,0.07195
4217.56096,0.07422
4219.48943,0.07478
4221.41789,0.07447
4223.34636,0.07526
4225.27483,0.07797
4227.20330,0.07560
4229.13177,0.06951
4231.06024,0.06938
4232.98871,0.07084
4234.91718,0.06883
4236.84564,0.06915
4238.77411,0.06940
4240.70258,0.06255
4242.63105,0.05528
4244.55952,0.05929
4246.48799,0.07046
4248.41646,0.07288
4250.34492,0.06153
4252.27339,0.05099
4254.20186,0.05675
4256.13033,0.06929
4258.05880,0.06989
4259.98727,0.06220
4261.91574,0.05611
4263.84421,0.05427
4265.77267,0.05820
4267.70114,0.06056
4269.62961,0.05617
4271.55808,0.05310
4273.48655,0.05518
4275.41502,0.05925
4277.34349,0.06059
4279.27195,0.05503
4281.20042,0.05021
4283.12889,0.05444
4285.05736,0.05859
4286.98583,0.05578
4288.91430,0.05502
4290.84277,0.05847
4292.77124,0.05909
4294.69970,0.05929
4296.62817,0.05990
4298.55664,0.05711
4300.48511,0.05793
4302.41358,0.06519
4304.34205,0.06908
4306.27052,0.06546
4308.19898,0.05540
4310.12745,0.04567
4312.05592,0.04678
4313.98439,0.05496
4315.91286,0.06306
4317.84133,0.06504
4319.76980,0.05691
4321.69827,0.05070
4323.62673,0.05302
4325.55520,0.05548
4327.48367,0.05206
4329.41214,0.04727
4331.34061,0.04662
4333.26908,0.05085
4335.19755,0.06118
4337.12601,0.07214
4339.05448,0.07595
4340.98295,0.07136
4342.91142,0.06357
4344.83989,0.05948
4346.76836,0.05623
4348.69683,0.04842
4350.62530,0.04157
4352.55376,0.04103
4354.48223,0.04224
4356.41070,0.04431
4358.33917,0.04623
4360.26764,0.04317
4362.19611,0.04022
4364.12458,0.04664
4366.05304,0.05758
4367.98151,0.05844
4369.90998,0.05200
4371.83845,0.04813
4373.76692,0.04459
4375.69539,0.04220
4377.62386,0.04485
4379.55232,0.04872
4381.48079,0.04955
4383.40926,0.04782
4385.33773,0.04711
4387.26620,0.05093
4389.19467,0.05254
4391.12314,0.04629
4393.05161,0.04117
4394.98007,0.04336
4396.90854,0.04621
4398.83701,0.04251
4400.76548,0.03825
4402.69395,0.03843
4404.62242,0.03602
4406.55089,0.03181
4408.47935,0.03282
4410.40782,0.03605
4412.33629,0.03760
4414.26476,0.03632
4416.19323,0.03039
4418.12170,0.02886
4420.05017,0.03529
4421.97864,0.04027
4423.90710,0.04471
4425.83557,0.04764
4427.76404,0.04233
4429.69251,0.03630
4431.62098,0.03521
4433.54945,0.03203
4435.47792,0.02764
4437.40638,0.02849
4439.33485,0.03126
4441.26332,0.02760
4443.19179,0.01940
4445.12026,0.01745
4447.04873,0.01940
4448.97720,0.02027
4450.90567,0.02389
4452.83413,0.02622
4454.76260,0.02630
4456.69107,0.02952
4458.61954,0.03446
4460.54801,0.03745
4462.47648,0.03710
4464.40495,0.03710
4466.33341,0.03923
4468.26188,0.04058
4470.19035,0.03965
4472.11882,0.03563
4474.04729,0.03713
4475.97576,0.05204
4477.90423,0.06602
4479.83270,0.06313
4481.76116,0.04611
4483.68963,0.02475
4485.61810,0.01284
4487.54657,0.01864
4489.47504,0.02927
4491.40351,0.03526
4493.33198,0.03924
4495.26044,0.03573
4497.18891,0.02177
4499.11738,0.00831
4501.04585,0.00501
4502.97432,0.01098
4504.90279,0.02152
4506.83126,0.03084
4508.75973,0.03476
4510.68819,0.03369
4512.61666,0.03226
4514.54513,0.03582
4516.47360,0.03854
4518.40207,0.03035
4520.33054,0.02081
4522.25901,0.02387
4524.18747,0.02607
4526.11594,0.01391
4528.04441,0.00236
4529.97288,0.00603
4531.90135,0.01824
4533.82982,0.02521
4535.75829,0.02427
4537.68676,0.02537
4539.61522,0.03316
4541.54369,0.03810
4543.47216,0.03343
4545.40063,0.02396
4547.32910,0.01584
4549.25757,0.00845
4551.18604,0.00198
4553.11450,0.00071
4555.04297,0.00279
4556.97144,0.00942
4558.89991,0.01948
4560.82838,0.02056
4562.75685,0.01347
4564.68532,0.01163
4566.61378,0.01602
4568.54225,0.01815
4570.47072,0.01975
4572.39919,0.02221
4574.32766,0.01960
4576.25613,0.01427
4578.18460,0.01415
4580.11307,0.02040
4582.04153,0.02354
4583.97000,0.01697
4585.89847,0.00724
4587.82694,0.00077
4589.75541,-0.00164
4591.68388,-0.00166
4593.61235,-0.00400
4595.54081,-0.00915
4597.46928,-0.01025
4599.39775,-0.00211
4601.32622,0.00834
4603.25469,0.00702
4605.18316,-0.00235
4607.11163,-0.00511
4609.04010,-0.00247
4610.96856,0.00398
4612.89703,0.01582
4614.82550,0.02142
4616.75397,0.01363
4618.68244,0.00360
4620.61091,0.00101
4622.53938,0.00539
4624.46784,0.01925
4626.39631,0.03808
4628.32478,0.04004
4630.25325,0.02409
4632.18172,0.01288
4634.11019,0.00930
4636.03866,0.00439
4637.96713,0.00415
4639.89559,0.01100
4641.82406,0.01204
4643.75253,0.00351
4645.68100,-0.00629
4647.60947,-0.01335
4649.53794,-0.01590
4651.46641,-0.01329
4653.39487,-0.00655
4655.32334,0.00119
4657.25181,0.00317
4659.18028,-0.00228
4661.10875,-0.00549
4663.03722,0.00044
4664.96569,0.00442
4666.89416,-0.00421
4668.82262,-0.01351
4670.75109,-0.00900
4672.67956,0.00754
4674.60803,0.02436
4676.53650,0.02955
4678.46497,0.02293
4680.39344,0.01229
4682.32190,0.00651
4684.25037,0.00849
4686.17884,0.00958
4688.10731,0.00574
4690.03578,0.00092
4691.96425,0.00179
4693.89272,0.01168
4695.82119,0.02067
4697.74965,0.01896
4699.67812,0.01372
4701.60659,0.01642
4703.53506,0.02087
4705.46353,0.01643
4707.39200,0.01034
4709.32047,0.01073
4711.24893,0.00906
4713.17740,-0.00213
4715.10587,-0.01338
4717.03434,-0.01298
4718.96281,-0.00315
4720.89128,0.00631
4722.81975,0.01462
4724.74821,0.02005
4726.67668,0.01687
4728.60515,0.01619
4730.53362,0.01995
4732.46209,0.01376
4734.39056,0.00416
4736.31903,0.00375
4738.24750,0.00898
4740.17596,0.01395
4742.10443,0.01709
4744.03290,0.02094
4745.96137,0.02097
4747.88984,0.01297
4749.81831,0.01225
4751.74678,0.02328
4753.67524,0.03057
4755.60371,0.03103
4757.53218,0.02898
4759.46065,0.02316
4761.38912,0.01441
4763.31759,0.00879
4765.24606,0.00860
4767.17453,0.00919
4769.10299,0.00715
4771.03146,0.00420
4772.95993,0.00039
4774.88840,-0.00453
4776.81687,-0.00406
4778.74534,0.00262
4780.67381,0.00547
4782.60227,0.00444
4784.53074,0.00717
4786.45921,0.01215
4788.38768,0.01862
4790.31615,0.02301
4792.24462,0.01705
4794.17309,0.00685
4796.10156,0.00304
4798.03002,0.01069
4799.95849,0.02504
4801.88696,0.02713
4803.81543,0.01675
4805.74390,0.01489
4807.67237,0.01966
4809.60084,0.01717
4811.52930,0.00714
4813.45777,-0.00542
4815.38624,-0.01014
4817.31471,0.00074
4819.24318,0.01147
4821.17165,0.00165
4823.10012,-0.01085
4825.02859,-0.00388
4826.95705,0.00548
4828.88552,0.00144
4830.81399,-0.00707
4832.74246,-0.00692
4834.67093,-0.00196
4836.59940,-0.00216
4838.52787,-0.00100
4840.45633,0.01372
4842.38480,0.03704
4844.31327,0.04493
4846.24174,0.03619
4848.17021,0.03089
4850.09868,0.02595
4852.02715,0.01311
4853.95562,0.00382
4855.88408,0.00752
4857.81255,0.00950
4859.74102,-0.00060
4861.66949,-0.00793
4863.59796,-0.00044
4865.52643,0.01218
4867.45490,0.00723
4869.38336,-0.01431
4871.31183,-0.02563
4873.24030,-0.01869
4875.16877,-0.00274
4877.09724,0.01726
4879.02571,0.03367
4880.95418,0.03353
4882.88265,0.02083
4884.81111,0.01443
4886.73958,0.01615
4888.66805,0.01229
4890.59652,-0.00439
4892.52499,-0.01714
4894.45346,-0.00739
4896.38193,0.01283
4898.31039,0.02318
4900.23886,0.02407
4902.16733,0.03085
4904.09580,0.04119
4906.02427,0.03644
4907.95274,0.01873
4909.88121,0.00331
4911.80967,-0.00785
4913.73814,-0.02437
4915.66661,-0.03836
4917.59508,-0.03588
4919.52355,-0.02683
4921.45202,-0.01261
4923.38049,0.01345
4925.30896,0.03494
4927.23742,0.04040
4929.16589,0.03867
4931.09436,0.03246
4933.02283,0.01756
4934.95130,0.00631
4936.87977,0.01025
4938.80824,0.01875
4940.73670,0.01701
4942.66517,0.00810
4944.59364,0.00342
4946.52211,0.00702
4948.45058,0.00487
4950.37905,-0.00837
4952.30752,-0.01550
4954.23599,-0.00978
4956.16445,-0.00414
4958.09292,-0.00737
4960.02139,-0.00963
4961.94986,0.00006
4963.87833,0.01389
4965.80680,0.02042
4967.73527,0.01876
4969.66373,0.00824
4971.59220,-0.00609
4973.52067,-0.00826
4975.44914,0.00384
4977.37761,0.01284
4979.30608,0.00278
4981.23455,-0.01857
4983.16302,-0.02205
4985.09148,-0.01331
4987.01995,-0.01301
4988.94842,-0.01005
4990.87689,0.00010
4992.80536,0.00552
4994.73383,0.00352
4996.66230,0.00775
4998.59076,0.02161
5000.51923,0.02424
5002.44770,0.01357
5004.37617,0.01134
5006.30464,0.01993
5008.23311,0.01960
5010.16158,0.00674
5012.09005,-0.00025
5014.01851,0.00877
5015.94698,0.01941
5017.87545,0.01500
5019.80392,0.00115
5021.73239,-0.00449
5023.66086,0.00931
5025.58933,0.03281
5027.51779,0.04880
5029.44626,0.05115
5031.37473,0.04481
5033.30320,0.04769
5035.23167,0.05590
5037.16014,0.04410
5039.08861,0.02134
5041.01708,0.01724
5042.94554,0.02591
5044.87401,0.02162
5046.80248,0.00491
5048.73095,-0.00635
5050.65942,-0.00076
5052.58789,0.02077
5054.51636,0.04351
5056.44482,0.04942
5058.37329,0.03254
5060.30176,0.01953
5062.23023,0.03479
5064.15870,0.05558
5066.08717,0.06339
5068.01564,0.06837
5069.94410,0.07089
5071.87257,0.05789
5073.80104,0.03486
5075.72951,0.02862
5077.65798,0.04017
5079.58645,0.04266
5081.51492,0.02599
5083.44339,0.00336
5085.37185,-0.01073
5087.30032,-0.00599
5089.22879,0.02009
5091.15726,0.04603
5093.08573,0.05151
5095.01420,0.04404
5096.94267,0.03183
5098.87113,0.02029
5100.79960,0.01745
5102.72807,0.02168
5104.65654,0.02897
5106.58501,0.03288
5108.51348,0.02563
5110.44195,0.01285
5112.37042,0.00544
5114.29888,0.00078
5116.22735,-0.00026
5118.15582,0.01413
5120.08429,0.03672
5122.01276,0.05127
5123.94123,0.05183
5125.86970,0.04647
5127.79816,0.04649
5129.72663,0.04076
5131.65510,0.02722
5133.58357,0.02428
5135.51204,0.02813
5137.44051,0.02320
5139.36898,0.01642
5141.29745,0.02517
5143.22591,0.04023
5145.15438,0.03270
5147.08285,0.01211
5149.01132,0.00724
5150.93979,0.01003
5152.86826,0.01311
5154.79673,0.01822
5156.72519,0.01153
5158.65366,-0.00108
5160.58213,-0.00037
5162.51060,0.00562
5164.43907,0.01030
5166.36754,0.02232
5168.29601,0.02534
5170.22448,0.01739
5172.15294,0.03107
5174.08141,0.05342
5176.00988,0.05296
5177.93835,0.04208
5179.86682,0.04249
5181.79529,0.05544
5183.72376,0.06397
5185.65222,0.05728
5187.58069,0.04664
5189.50916,0.03551
5191.43763,0.02498
5193.36610,0.02677
5195.29457,0.03112
5197.22304,0.02265
5199.15151,0.02189
5201.07997,0.04282
5203.00844,0.06218
5204.93691,0.06620
5206.86538,0.05114
5208.79385,0.02523
5210.72232,0.01759
5212.65079,0.03124
5214.57925,0.04999
5216.50772,0.06455
5218.43619,0.06422
5220.36466,0.04833
5222.29313,0.04169
5224.22160,0.05300
5226.15007,0.06144
5228.07854,0.06119
5230.00700,0.06296
5231.93547,0.06192
5233.86394,0.05555
5235.79241,0.06055
5237.72088,0.06929
5239.64935,0.04629
5241.57782,0.00578
5243.50628,-0.00542
5245.43475,0.01006
5247.36322,0.02178
5249.29169,0.02797
5251.22016,0.02982
5253.14863,0.02583
5255.07710,0.02528
5257.00556,0.02741
5258.93403,0.02587
5260.86250,0.02681
5262.79097,0.04363
5264.71944,0.07539
5266.64791,0.09188
5268.57638,0.07415
5270.50485,0.04002
5272.43331,0.02576
5274.36178,0.04190
5276.29025,0.06572
5278.21872,0.07735
5280.14719,0.07761
5282.07566,0.07484
5284.00413,0.07554
5285.93259,0.07845
5287.86106,0.07569
5289.78953,0.07489
5291.71800,0.07681
5293.64647,0.05725
5295.57494,0.02727
5297.50341,0.02279
5299.43188,0.03857
5301.36034,0.04453
5303.28881,0.03443
5305.21728,0.01732
5307.14575,0.01312
5309.07422,0.03255
5311.00269,0.05026
5312.93116,0.05480
5314.85962,0.06244
5316.78809,0.07069
5318.71656,0.05980
5320.64503,0.04796
5322.57350,0.05649
5324.50197,0.06850
5326.43044,0.07398
5328.35891,0.06539
5330.28737,0.04197
5332.21584,0.03332
5334.14431,0.04844
5336.07278,0.05638
5338.00125,0.04111
5339.92972,0.03038
5341.85819,0.03754
5343.78665,0.04662
5345.71512,0.05179
5347.64359,0.04460
5349.57206,0.02648
5351.50053,0.01379
5353.42900,0.02382
5355.35747,0.05076
5357.28594,0.05294
5359.21440,0.03750
5361.14287,0.04008
5363.07134,0.05349
5364.99981,0.06586
5366.92828,0.07366
5368.85675,0.06693
5370.78522,0.05131
5372.71368,0.04560
5374.64215,0.05377
5376.57062,0.05135
5378.49909,0.04139
5380.42756,0.04174
5382.35603,0.04254
5384.28450,0.04961
5386.21297,0.06443
5388.14143,0.07451
5390.06990,0.08938
5391.99837,0.09698
5393.92684,0.08309
5395.85531,0.07985
5397.78378,0.09216
5399.71225,0.08773
5401.64071,0.06627
5403.56918,0.05026
5405.49765,0.04257
5407.42612,0.03270
5409.35459,0.03390
5411.28306,0.06242
5413.21153,0.09477
5415.13999,0.09180
5417.06846,0.05749
5418.99693,0.03198
5420.92540,0.04385
5422.85387,0.07126
5424.78234,0.08209
5426.71081,0.07889
5428.63928,0.06803
5430.56774,0.05889
5432.49621,0.07036
5434.42468,0.09053
5436.35315,0.09270
5438.28162,0.08236
5440.21009,0.06961
5442.13856,0.05140
5444.06702,0.03514
5445.99549,0.03110
5447.92396,0.03099
5449.85243,0.03177
5451.78090,0.03957
5453.70937,0.04605
5455.63784,0.04950
5457.56631,0.05892
5459.49477,0.06963
5461.42324,0.07928
5463.35171,0.09256
5465.28018,0.10260
5467.20865,0.11982
5469.13712,0.14024
5471.06559,0.12419
5472.99405,0.09215
5474.92252,0.10009
5476.85099,0.13015
5478.77946,0.12273
5480.70793,0.08423
5482.63640,0.04717
5484.56487,0.02563
5486.49334,0.02532
5488.42180,0.04249
5490.35027,0.06368
5492.27874,0.07703
5494.20721,0.07805
5496.13568,0.06832
5498.06415,0.04664
5499.99262,0.03122
5501.92108,0.04538
5503.84955,0.06849
5505.77802,0.07567
5507.70649,0.07204
5509.63496,0.07639
5511.56343,0.09976
5513.49190,0.10993
5515.42037,0.07412
5517.34883,0.03206
5519.27730,0.02316
5521.20577,0.03419
5523.13424,0.05230
5525.06271,0.06989
5526.99118,0.07304
5528.91965,0.06499
5530.84811,0.06703
5532.77658,0.08336
5534.70505,0.09331
5536.63352,0.08930
5538.56199,0.08375
5540.49046,0.08476
5542.41893,0.09218
5544.34740,0.09769
5546.27586,0.09611
5548.20433,0.09347
5550.13280,0.08582
5552.06127,0.07168
5553.98974,0.07314
5555.91821,0.09307
5557.84668,0.10359
5559.77514,0.09971
5561.70361,0.08957
5563.63208,0.08284
5565.56055,0.08812
5567.48902,0.07641
5569.41749,0.05174
5571.34596,0.05766
5573.27443,0.07973
5575.20289,0.09069
5577.13136,0.10148
5579.05983,0.10804
5580.98830,0.09982
5582.91677,0.09391
5584.84524,0.08753
5586.77371,0.07134
5588.70217,0.08136
5590.63064,0.12542
5592.55911,0.15798
5594.48758,0.15195
5596.41605,0.11369
5598.34452,0.08230
5600.27299,0.09167
5602.20145,0.10864
5604.12992,0.10344
5606.05839,0.10603
5607.98686,0.11139
5609.91533,0.09053
5611.84380,0.06318
5613.77227,0.05606
5615.70074,0.07078
5617.62920,0.08620
5619.55767,0.07429
5621.48614,0.06202
5623.41461,0.09078
5625.34308,0.11757
5627.27155,0.10455
5629.20002,0.09585
5631.12848,0.10095
5633.05695,0.09593
5634.98542,0.08625
5636.91389,0.07257
5638.84236,0.05464
5640.77083,0.04642
5642.69930,0.05354
5644.62777,0.08316
5646.55623,0.11882
5648.48470,0.11617
5650.41317,0.09117
5652.34164,0.08089
5654.27011,0.08091
5656.19858,0.09827
5658.12705,0.11672
5660.05551,0.09506
5661.98398,0.06257
5663.91245,0.05358
5665.84092,0.03803
5667.76939,0.02503
5669.69786,0.04730
5671.62633,0.07578
5673.55480,0.09417
5675.48326,0.12217
5677.41173,0.13204
5679.34020,0.09950
5681.26867,0.06744
5683.19714,0.07365
5685.12561,0.10250
5687.05408,0.12439
5688.98254,0.12011
5690.91101,0.09297
5692.83948,0.07774
5694.76795,0.09952
5696.69642,0.13185
5698.62489,0.12049
5700.55336,0.06302
5702.48183,-0.00089
5704.41029,-0.03077
5706.33876,-0.00990
5708.26723,0.02082
5710.19570,0.03179
5712.12417,0.04180
5714.05264,0.05655
5715.98111,0.05833
5717.90957,0.04857
5719.83804,0.06921
5721.76651,0.12310
5723.69498,0.14296
5725.62345,0.12021
5727.55192,0.09709
5729.48039,0.07836
5731.40886,0.06850
5733.33732,0.07056
5735.26579,0.07193
5737.19426,0.07075
5739.12273,0.08244
5741.05120,0.10354
5742.97967,0.10482
5744.90814,0.09507
5746.83660,0.08447
5748.76507,0.05221
5750.69354,0.01936
5752.62201,0.04019
5754.55048,0.07383
5756.47895,0.04747
5758.40742,0.01448
5760.33588,0.04247
5762.26435,0.08961
5764.19282,0.09367
5766.12129,0.07869
5768.04976,0.07654
5769.97823,0.07430
5771.90670,0.08243
5773.83517,0.09130
5775.76363,0.08100
5777.69210,0.07676
5779.62057,0.08093
5781.54904,0.06843
5783.47751,0.04881
5785.40598,0.05358
5787.33445,0.08260
5789.26291,0.11637
5791.19138,0.13140
5793.11985,0.10879
5795.04832,0.08060
5796.97679,0.06545
5798.90526,0.05607
5800.83373,0.07897
5802.76220,0.12390
5804.69066,0.13885
5806.61913,0.10853
5808.54760,0.06192
5810.47607,0.03581
5812.40454,0.03578
5814.33301,0.05013
5816.26148,0.06844
5818.18994,0.07868
5820.11841,0.09090
5822.04688,0.10088
5823.97535,0.08758
5825.90382,0.07442
5827.83229,0.07938
5829.76076,0.08608
5831.68923,0.08800
5833.61769,0.09305
5835.54616,0.10710
5837.47463,0.10708
5839.40310,0.06387
5841.33157,0.01683
5843.26004,0.02755
5845.18851,0.06591
5847.11697,0.07078
5849.04544,0.06504
5850.97391,0.08413
5852.90238,0.09814
5854.83085,0.10117
5856.75932,0.11586
5858.68779,0.12216
5860.61626,0.08935
5862.54472,0.03210
5864.47319,-0.00231
5866.40166,0.02631
5868.33013,0.07274
5870.25860,0.06688
5872.18707,0.04216
5874.11554,0.04295
5876.04400,0.05203
5877.97247,0.05768
5879.90094,0.05401
5881.82941,0.03647
5883.75788,0.05272
5885.68635,0.10993
5887.61482,0.12738
5889.54329,0.09515
5891.47175,0.08170
5893.40022,0.08246
5895.32869,0.06008
5897.25716,0.02830
5899.18563,0.01264
5901.11410,0.01787
5903.04257,0.03046
5904.97103,0.03967
5906.89950,0.06572
5908.82797,0.10651
5910.75644,0.12598
5912.68491,0.12526
5914.61338,0.11500
5916.54185,0.09733
5918.47032,0.08434
5920.39878,0.06932
5922.32725,0.06214
5924.25572,0.07783
5926.18419,0.09317
5928.11266,0.09394
5930.04113,0.09357
5931.96960,0.10812
5933.89806,0.11005
5935.82653,0.08746
5937.75500,0.09792
5939.68347,0.12823
5941.61194,0.11013
5943.54041,0.06629
5945.46888,0.06563
5947.39734,0.10131
5949.32581,0.13404
5951.25428,0.13029
5953.18275,0.07188
5955.11122,0.02134
5957.03969,0.03329
5958.96816,0.05499
5960.89663,0.04388
5962.82509,0.04604
5964.75356,0.07254
5966.68203,0.07028
5968.61050,0.04529
5970.53897,0.05654
5972.46744,0.07833
5974.39591,0.05533
5976.32437,0.01658
5978.25284,0.02098
5980.18131,0.06567
5982.10978,0.08764
5984.03825,0.06680
5985.96672,0.04719
5987.89519,0.06051
5989.82366,0.10599
5991.75212,0.13361
5993.68059,0.10232
5995.60906,0.06714
5997.53753,0.07359
5999.46600,0.07837
6001.39447,0.06622
6003.32294,0.05393
6005.25140,0.04031
6007.17987,0.04578
6009.10834,0.08648
6011.03681,0.12294
6012.96528,0.13454
6014.89375,0.14426
6016.82222,0.14906
6018.75069,0.11279
6020.67915,0.05873
6022.60762,0.06660
6024.53609,0.11397
6026.46456,0.12968
6028.39303,0.11069
6030.32150,0.07908
6032.24997,0.07171
6034.17843,0.09233
6036.10690,0.08353
6038.03537,0.03134
6039.96384,-0.00973
6041.89231,-0.00248
6043.82078,0.03623
6045.74925,0.07909
6047.67772,0.11876
6049.60618,0.13839
6051.53465,0.12385
6053.46312,0.09357
6055.39159,0.07480
6057.32006,0.05984
6059.24853,0.05960
6061.17700,0.10961
6063.10546,0.15317
6065.03393,0.12374
6066.96240,0.06201
6068.89087,0.01205
6070.81934,-0.00290
6072.74781,0.04749
6074.67628,0.12617
6076.60475,0.13281
6078.53321,0.08159
6080.46168,0.07258
6082.39015,0.09328
6084.31862,0.09235
6086.24709,0.08443
6088.17556,0.06835
6090.10403,0.05090
6092.03249,0.05926
6093.96096,0.07016
6095.88943,0.06235
6097.81790,0.08029
6099.74637,0.13540
6101.67484,0.15030
6103.60331,0.11943
6105.53177,0.10182
6107.46024,0.09765
6109.38871,0.09395
6111.31718,0.07015
6113.24565,0.03030
6115.17412,0.04255
6117.10259,0.09738
6119.03106,0.10942
6120.95952,0.08948
6122.88799,0.06538
6124.81646,0.04364
6126.74493,0.06656
6128.67340,0.09001
6130.60187,0.09695
6132.53034,0.13970
6134.45880,0.15126
6136.38727,0.10147
6138.31574,0.07347
6140.24421,0.07116
6142.17268,0.05981
6144.10115,0.07880
6146.02962,0.11820
6147.95809,0.12880
6149.88655,0.10363
6151.81502,0.07820
6153.74349,0.07978
6155.67196,0.07372
6157.60043,0.05804
6159.52890,0.07091
6161.45737,0.10021
6163.38583,0.09437
6165.31430,0.06297
6167.24277,0.06131
6169.17124,0.06675
6171.09971,0.05386
6173.02818,0.08093
6174.95665,0.13489
6176.88512,0.12572
6178.81358,0.08211
6180.74205,0.06608
6182.67052,0.04055
6184.59899,-0.00236
6186.52746,-0.00140
6188.45593,0.06328
6190.38440,0.12353
6192.31286,0.13135
6194.24133,0.12119
6196.16980,0.12426
6198.09827,0.11969
6200.02674,0.11759
6201.95521,0.12449
6203.88368,0.10240
6205.81215,0.07050
6207.74061,0.07893
6209.66908,0.10956
6211.59755,0.13637
6213.52602,0.15079
6215.45449,0.10958
6217.38296,0.06154
6219.31143,0.07763
6221.23989,0.10413
6223.16836,0.11547
6225.09683,0.10857
6227.02530,0.07627
6228.95377,0.06121
6230.88224,0.08129
6232.81071,0.12475
6234.73918,0.16435
6236.66764,0.16773
6238.59611,0.13738
6240.52458,0.09539
6242.45305,0.06689
6244.38152,0.06777
6246.30999,0.05520
6248.23846,0.03379
6250.16692,0.09820
6252.09539,0.20734
6254.02386,0.23472
6255.95233,0.19213
6257.88080,0.12529
6259.80927,0.04836
6261.73774,0.00821
6263.66621,0.03628
6265.59467,0.08157
6267.52314,0.10297
6269.45161,0.12177
6271.38008,0.12097
6273.30855,0.05521
6275.23702,-0.02857
6277.16549,-0.01908
6279.09395,0.04376
6281.02242,0.07288
6282.95089,0.10329
6284.87936,0.11473
6286.80783,0.08684
6288.73630,0.12985
6290.66477,0.22333
6292.59323,0.21574
6294.52170,0.11627
6296.45017,0.05726
6298.37864,0.08111
6300.30711,0.10701
6302.23558,0.08263
6304.16405,0.06549
6306.09252,0.11245
6308.02098,0.16653
6309.94945,0.13562
6311.87792,0.07182
6313.80639,0.05233
6315.73486,0.03422
6317.66333,0.03963
6319.59180,0.11194
6321.52026,0.14127
6323.44873,0.07185
6325.37720,0.00072
6327.30567,-0.03458
6329.23414,-0.04839
6331.16261,-0.02617
6333.09108,0.03785
6335.01955,0.09457
6336.94801,0.08181
6338.87648,0.04698
6340.80495,0.06787
6342.73342,0.08246
6344.66189,0.05298
6346.59036,0.05526
6348.51883,0.08883
6350.44729,0.08583
6352.37576,0.06986
6354.30423,0.09647
6356.23270,0.12718
6358.16117,0.10703
6360.08964,0.06402
6362.01811,0.07222
6363.94658,0.12140
6365.87504,0.13550
6367.80351,0.15276
6369.73198,0.18733
6371.66045,0.14869
6373.58892,0.10778
6375.51739,0.12333
6377.44586,0.10576
6379.37432,0.05290
6381.30279,0.02103
6383.23126,0.04796
6385.15973,0.12162
6387.08820,0.16896
6389.01667,0.13605
6390.94514,0.02800
6392.87361,-0.05885
6394.80207,-0.05769
6396.73054,-0.02587
6398.65901,0.01904
6400.58748,0.06700
6402.51595,0.06632
6404.44442,0.05137
6406.37289,0.06245
6408.30135,0.06377
6410.22982,0.06454
6412.15829,0.09410
6414.08676,0.11065
6416.01523,0.07360
6417.94370,0.02416
6419.87217,0.01800
6421.80064,0.04501
6423.72910,0.09572
6425.65757,0.12144
6427.58604,0.08447
6429.51451,0.06815
6431.44298,0.09909
6433.37145,0.08624
6435.29992,0.03758
6437.22838,0.01141
6439.15685,0.01662
6441.08532,0.06317
6443.01379,0.11628
6444.94226,0.09826
6446.87073,0.04204
6448.79920,0.00861
6450.72766,-0.01273
6452.65613,-0.00749
6454.58460,0.05172
6456.51307,0.10538
6458.44154,0.08684
6460.37001,0.02988
6462.29848,-0.00484
6464.22695,0.00347
6466.15541,0.04481
6468.08388,0.09087
6470.01235,0.08877
6471.94082,0.06294
6473.86929,0.10189
6475.79776,0.13295
6477.72623,0.07844
6479.65469,0.05322
6481.58316,0.07677
6483.51163,0.09091
6485.44010,0.12824
6487.36857,0.16124
6489.29704,0.12862
6491.22551,0.05768
6493.15398,0.00517
6495.08244,0.00061
6497.01091,0.05862
6498.93938,0.13426
6500.86785,0.14328
6502.79632,0.09226
6504.72479,0.07538
6506.65326,0.10896
6508.58172,0.13389
6510.51019,0.13168
6512.43866,0.07335
6514.36713,-0.07558
6516.29560,-0.19188
6518.22407,-0.14338
6520.15254,0.01275
6522.08101,0.13892
6524.00947,0.12824
6525.93794,0.02451
6527.86641,-0.02311
6529.79488,0.00276
6531.72335,0.06661
6533.65182,0.13916
6535.58029,0.17770
6537.50875,0.19536
6539.43722,0.21169
6541.36569,0.21299
6543.29416,0.18687
6545.22263,0.14747
6547.15110,0.12781
6549.07957,0.11726
6551.00804,0.11227
6552.93650,0.14743
6554.86497,0.21470
6556.79344,0.25016
6558.72191,0.21682
6560.65038,0.15360
6562.57885,0.11334
6564.50732,0.09643
6566.43578,0.05270
6568.36425,0.00806
6570.29272,0.04553
6572.22119,0.08455
6574.14966,0.04238
6576.07813,0.00464
6578.00660,0.01831
6579.93507,0.04002
6581.86353,0.05134
6583.79200,0.05446
6585.72047,0.02431
6587.64894,-0.03167
6589.57741,-0.03640
6591.50588,0.03721
6593.43435,0.10471
6595.36281,0.10303
6597.29128,0.09628
6599.21975,0.10759
6601.14822,0.08517
6603.07669,0.05595
6605.00516,0.08022
6606.93363,0.11514
6608.86210,0.11683
6610.79056,0.13349
6612.71903,0.17203
6614.64750,0.17897
6616.57597,0.14302
6618.50444,0.08226
6620.43291,0.04181
6622.36138,0.03292
6624.28984,0.02459
6626.21831,-0.00571
6628.14678,-0.05549
6630.07525,-0.05167
6632.00372,0.03182
6633.93219,0.10076
6635.86066,0.10925
6637.78912,0.09174
6639.71759,0.08305
6641.64606,0.11329
6643.57453,0.20210
6645.50300,0.26328
6647.43147,0.21271
6649.35994,0.12197
6651.28841,0.07770
6653.21687,0.13704
6655.14534,0.25396
6657.07381,0.27689
6659.00228,0.19897
6660.93075,0.07317
6662.85922,-0.05911
6664.78769,-0.09943
6666.71615,-0.04805
6668.64462,0.04089
6670.57309,0.13872
6672.50156,0.16666
6674.43003,0.09759
6676.35850,0.03013
6678.28697,-0.01364
6680.21544,-0.01908
6682.14390,0.06397
6684.07237,0.15844
6686.00084,0.16218
6687.92931,0.11389
6689.85778,0.09031
6691.78625,0.09435
6693.71472,0.06376
6695.64318,-0.00812
6697.57165,-0.02798
6699.50012,-0.00146
6701.42859,-0.02979
6703.35706,-0.04466
6705.28553,0.05312
6707.21400,0.15083
6709.14247,0.14984
6711.07093,0.08859
6712.99940,-0.01764
6714.92787,-0.07974
6716.85634,-0.05175
6718.78481,-0.04611
6720.71328,-0.05203
6722.64175,0.01477
6724.57021,0.11771
6726.49868,0.16183
6728.42715,0.11336
6730.35562,0.02457
6732.28409,-0.04093
6734.21256,-0.02005
6736.14103,0.09021
6738.06950,0.17968
6739.99796,0.15801
6741.92643,0.02115
6743.85490,-0.09532
6745.78337,-0.08093
6747.71184,0.02059
6749.64031,0.11125
6751.56878,0.14752
6753.49724,0.14477
6755.42571,0.13228
6757.35418,0.09055
6759.28265,-0.00399
6761.21112,-0.03859
6763.13959,0.04428
6765.06806,0.12895
6766.99653,0.15660
6768.92499,0.12042
6770.85346,0.01338
6772.78193,-0.09430
6774.71040,-0.09728
6776.63887,-0.02686
6778.56734,-0.02699
6780.49581,-0.04837
6782.42427,0.00841
6784.35274,0.09056
6786.28121,0.12685
6788.20968,0.12092
6790.13815,0.10486
6792.06662,0.05924
6793.99509,-0.01131
6795.92355,-0.04394
6797.85202,-0.02975
6799.78049,0.01663
6801.70896,0.09098
6803.63743,0.15670
6805.56590,0.16577
6807.49437,0.14147
6809.42284,0.14516
6811.35130,0.15503
6813.27977,0.09420
6815.20824,0.00397
6817.13671,-0.01569
6819.06518,0.02391
6820.99365,0.07167
6822.92212,0.12449
6824.85058,0.16966
6826.77905,0.19465
6828.70752,0.18153
6830.63599,0.10836
6832.56446,0.06674
6834.49293,0.11847
6836.42140,0.16799
6838.34987,0.16103
6840.27833,0.16687
6842.20680,0.16995
6844.13527,0.08088
6846.06374,-0.06301
6847.99221,-0.09326
6849.92068,0.07828
6851.84915,0.28314
6853.77761,0.33832
6855.70608,0.24731
6857.63455,0.15691
6859.56302,0.12141
6861.49149,0.10574
6863.41996,0.05617
6865.34843,-0.05884
6867.27690,-0.12790
6869.20536,-0.09135
6871.13383,-0.04862
6873.06230,0.01202
6874.99077,0.12205
6876.91924,0.24650
6878.84771,0.34524
6880.77618,0.35550
6882.70464,0.29550
6884.63311,0.18718
6886.56158,0.07372
6888.49005,0.03482
6890.41852,0.06835
6892.34699,0.09901
6894.27546,0.06733
6896.20393,0.02028
6898.13239,-0.01891
6900.06086,-0.04411
6901.98933,-0.01438
6903.91780,0.05280
6905.84627,0.06311
6907.77474,-0.02051
6909.70321,-0.09121
6911.63167,-0.08765
6913.56014,-0.05976
6915.48861,-0.06497
6917.41708,-0.07118
6919.34555,-0.02181
6921.27402,0.04706
6923.20249,0.08156
6925.13096,0.06545
6927.05942,0.02908
6928.98789,0.03317
6930.91636,0.06618
6932.84483,0.03932
6934.77330,-0.01684
6936.70177,0.02231
6938.63024,0.13931
6940.55870,0.18185
6942.48717,0.15716
6944.41564,0.12813
6946.34411,0.04899
6948.27258,0.02811
6950.20105,0.13847
6952.12952,0.28948
6954.05799,0.40252
6955.98645,0.36240
6957.91492,0.25035
6959.84339,0.23421
6961.77186,0.24624
6963.70033,0.20640
6965.62880,0.13932
6967.55727,0.08562
6969.48573,0.04312
6971.41420,0.00307
6973.34267,0.01486
6975.27114,0.04837
6977.19961,0.10515
6979.12808,0.21466
6981.05655,0.24501
6982.98501,0.18420
6984.91348,0.22331
6986.84195,0.32501
6988.77042,0.30619
6990.69889,0.16797
6992.62736,0.04170
6994.55583,0.05762
6996.48430,0.15748
6998.41276,0.13457
7000.34123,0.02575
7002.26970,-0.01237
7004.19817,0.03422
7006.12664,0.08611
7008.05511,0.01089
7009.98358,-0.11746
7011.91204,-0.10806
7013.84051,0.01113
7015.76898,0.06462
7017.69745,0.07552
7019.62592,0.12461
7021.55439,0.19393
7023.48286,0.21941
7025.41133,0.17002
7027.33979,0.13527
7029.26826,0.18694
7031.19673,0.22265
7033.12520,0.17930
7035.05367,0.15790
7036.98214,0.17816
7038.91061,0.14655
7040.83907,0.08484
7042.76754,0.05131
7044.69601,0.07280
7046.62448,0.09829
7048.55295,0.05623
7050.48142,0.03605
7052.40989,0.10342
7054.33836,0.19508
7056.26682,0.29263
7058.19529,0.35405
7060.12376,0.26744
7062.05223,0.13835
7063.98070,0.06074
7065.90917,-0.02034
7067.83764,-0.04666
7069.76610,0.02268
7071.69457,0.05817
7073.62304,0.03495
7075.55151,-0.00817
7077.47998,-0.06047
7079.40845,-0.05843
7081.33692,0.01815
7083.26539,0.10077
7085.19385,0.20177
7087.12232,0.29354
7089.05079,0.26481
7090.97926,0.09556
7092.90773,-0.07420
7094.83620,-0.01431
7096.76467,0.14276
7098.69313,0.10713
7100.62160,0.04881
7102.55007,0.12322
7104.47854,0.10428
7106.40701,-0.03681
7108.33548,-0.06515
7110.26395,-0.04713
7112.19242,-0.02723
7114.12088,0.07405
7116.04935,0.17946
7117.97782,0.17128
7119.90629,0.03986
7121.83476,-0.00178
7123.76323,0.12462
7125.69170,0.24562
7127.62016,0.27930
7129.54863,0.23740
7131.47710,0.18952
7133.40557,0.17312
7135.33404,0.08535
7137.26251,-0.00433
7139.19098,0.08703
7141.11944,0.27047
7143.04791,0.32315
7144.97638,0.19274
7146.90485,-0.02554
7148.83332,-0.18195
7150.76179,-0.23081
7152.69026,-0.17931
7154.61873,-0.06116
7156.54719,0.02251
7158.47566,0.06289
7160.40413,0.14410
7162.33260,0.23493
7164.26107,0.27299
7166.18954,0.28764
7168.11801,0.31422
7170.04647,0.33202
7171.97494,0.29864
7173.90341,0.24329
7175.83188,0.23347
7177.76035,0.27955
7179.68882,0.32886
7181.61729,0.30336
7183.54576,0.16072
7185.47422,-0.00231
7187.40269,-0.06045
7189.33116,0.01564
7191.25963,0.14869
7193.18810,0.27898
7195.11657,0.38502
7197.04504,0.34627
7198.97350,0.21123
7200.90197,0.19889
7202.83044,0.24955
7204.75891,0.14829
7206.68738,0.04527
7208.61585,0.05468
7210.54432,-0.00165
7212.47279,-0.13405
7214.40125,-0.22707
7216.32972,-0.23347
7218.25819,-0.09232
7220.18666,0.14637
7222.11513,0.28969
7224.04360,0.37606
7225.97207,0.41866
7227.90053,0.31626
7229.82900,0.17486
7231.75747,0.12331
7233.68594,-0.01776
7235.61441,-0.23094
7237.54288,-0.22342
7239.47135,-0.01136
7241.39982,0.18465
7243.32828,0.23410
7245.25675,0.08369
7247.18522,0.00338
7249.11369,0.07694
7251.04216,0.12126
7252.97063,0.00893
7254.89910,-0.08885
7256.82756,0.03526
7258.75603,0.24492
7260.68450,0.26042
7262.61297,0.07529
7264.54144,-0.04882
7266.46991,-0.07291
7268.39838,-0.05099
7270.32685,0.01723
7272.25531,0.09012
7274.18378,0.07682
7276.11225,0.07249
7278.04072,0.11435
7279.96919,0.11426
7281.89766,0.04721
7283.82613,0.00599
7285.75459,0.02910
7287.68306,0.03069
7289.61153,-0.04837
7291.54000,-0.06810
7293.46847,-0.02974
7295.39694,-0.09336
7297.32541,-0.14934
7299.25387,-0.08627
7301.18234,-0.07184
7303.11081,-0.10305
7305.03928,0.03516
7306.96775,0.23745
7308.89622,0.33634
7310.82469,0.46120
7312.75316,0.59394
7314.68162,0.63262
7316.61009,0.55458
7318.53856,0.35005
7320.46703,0.16164
7322.39550,0.16404
7324.32397,0.23379
7326.25244,0.19634
7328.18090,0.16125
7330.10937,0.16388
7332.03784,0.10228
7333.96631,0.02750
7335.89478,-0.02878
7337.82325,-0.13488
7339.75172,-0.24836
7341.68019,-0.11081
7343.60865,0.18975
7345.53712,0.39177
7347.46559,0.33254
7349.39406,0.17390
7351.32253,0.11918
7353.25100,0.09586
7355.17947,0.06030
7357.10793,0.07986
7359.03640,0.15544
7360.96487,0.29753
7362.89334,0.46349
7364.82181,0.42927
7366.75028,0.14772
7368.67875,-0.17620
7370.60722,-0.31793
7372.53568,-0.25876
7374.46415,-0.00963
7376.39262,0.26212
7378.32109,0.24191
7380.24956,0.08899
7382.17803,0.04162
7384.10650,0.08457
7386.03496,0.15423
7387.96343,0.32881
7389.89190,0.41150
7391.82037,0.24342
7393.74884,-0.03626
7395.67731,-0.17371
7397.60578,-0.06260
7399.53425,0.04493
7401.46271,0.00524
7403.39118,-0.11729
7405.31965,-0.27776
7407.24812,-0.32646
7409.17659,-0.21011
7411.10506,-0.01234
7413.03353,0.18039
7414.96199,0.34134
7416.89046,0.41804
7418.81893,0.30853
7420.74740,0.18683
7422.67587,0.21851
7424.60434,0.26288
7426.53281,0.26901
7428.46128,0.27086
7430.38974,0.26376
7432.31821,0.19300
7434.24668,0.04961
7436.17515,-0.04012
7438.10362,0.06908
7440.03209,0.13388
7441.96056,0.00826
7443.88902,0.00546
7445.81749,0.11909
7447.74596,0.14911
7449.67443,0.19360
7451.60290,0.30535
7453.53137,0.40476
7455.45984,0.46031
7457.38831,0.45183
7459.31677,0.44843
7461.24524,0.50063
7463.17371,0.46414
7465.10218,0.36587
7467.03065,0.30628
7468.95912,0.13187
7470.88759,-0.13123
7472.81605,-0.16254
7474.74452,-0.00881
7476.67299,0.07357
7478.60146,0.03430
7480.52993,0.03600
7482.45840,0.11508
7484.38687,0.14559
7486.31533,0.16100
7488.24380,0.03474
7490.17227,-0.25056
7492.10074,-0.32546
7494.02921,-0.16780
7495.95768,-0.02251
7497.88615,0.05449
