399.19301,1.19110
401.12148,0.80396
403.04995,0.64864
404.97842,0.34779
406.90689,0.21145
408.83536,0.16792
410.76382,0.11420
412.69229,0.09224
414.62076,0.13843
416.54923,0.22575
418.47770,0.26567
420.40617,0.12253
422.33464,-0.03026
424.26311,-0.08054
426.19157,-0.02997
428.12004,0.05789
430.04851,0.12829
431.97698,0.14970
433.90545,0.16958
435.83392,0.24551
437.76239,0.31085
439.69085,0.29705
441.61932,0.23567
443.54779,0.18247
445.47626,0.11151
447.40473,0.04337
449.33320,0.05414
451.26167,0.13728
453.19013,0.22704
455.11860,0.28610
457.04707,0.27512
458.97554,0.16148
460.90401,0.06955
462.83248,0.07306
464.76095,0.10891
466.68942,0.10281
468.61788,0.05118
470.54635,0.00041
472.47482,-0.02217
474.40329,0.04408
476.33176,0.13884
478.26023,0.16548
480.18870,0.15989
482.11716,0.12592
484.04563,0.05780
485.97410,0.00951
487.90257,0.03749
489.83104,0.11293
491.75951,0.15191
493.68798,0.14331
495.61645,0.14051
497.54491,0.15797
499.47338,0.16919
501.40185,0.15089
503.33032,0.10292
505.25879,0.04603
507.18726,0.01823
509.11573,0.03671
511.04419,0.05711
512.97266,0.07802
514.90113,0.11477
516.82960,0.13429
518.75807,0.11689
520.68654,0.09943
522.61501,0.10534
524.54348,0.13379
526.47194,0.15386
528.40041,0.12596
530.32888,0.09359
532.25735,0.08645
534.18582,0.08029
536.11429,0.09414
538.04276,0.13904
539.97122,0.17386
541.89969,0.17254
543.82816,0.14447
545.75663,0.11510
547.68510,0.08511
549.61357,0.10963
551.54204,0.34167
553.47051,0.60882
555.39897,0.53452
557.32744,0.26213
559.25591,0.12271
561.18438,0.08713
563.11285,0.09540
565.04132,0.12129
566.96979,0.12934
568.89825,0.13918
570.82672,0.14661
572.75519,0.14427
574.68366,0.13477
576.61213,0.11130
578.54060,0.09765
580.46907,0.11667
582.39754,0.13689
584.32600,0.12383
586.25447,0.09517
588.18294,0.09189
590.11141,0.10842
592.03988,0.10572
593.96835,0.10396
595.89682,0.13231
597.82528,0.14614
599.75375,0.12464
601.68222,0.11781
603.61069,0.12700
605.53916,0.11060
607.46763,0.08549
609.39610,0.07317
611.32456,0.07209
613.25303,0.09312
615.18150,0.12194
617.10997,0.13002
619.03844,0.12373
620.96691,0.11749
622.89538,0.12392
624.82385,0.13870
626.75231,0.14659
628.68078,0.15262
630.60925,0.15175
632.53772,0.13113
634.46619,0.10910
636.39466,0.10897
638.32313,0.11560
640.25159,0.11452
642.18006,0.11103
644.10853,0.10348
646.03700,0.10338
647.96547,0.12374
649.89394,0.14104
651.82241,0.13525
653.75088,0.12662
655.67934,0.12373
657.60781,0.12178
659.53628,0.12873
661.46475,0.14725
663.39322,0.16862
665.32169,0.17745
667.25016,0.16366
669.17862,0.14137
671.10709,0.14345
673.03556,0.15244
674.96403,0.15717
676.89250,0.14450
678.82097,0.11221
680.74944,0.09954
682.67791,0.11301
684.60637,0.12908
686.53484,0.14101
688.46331,0.13997
690.39178,0.13424
692.32025,0.13169
694.24872,0.12553
696.17719,0.12305
698.10565,0.12618
700.03412,0.12702
701.96259,0.12616
703.89106,0.13227
705.81953,0.15010
707.74800,0.18631
709.67647,0.29037
711.60494,0.39482
713.53340,0.33068
715.46187,0.18963
717.39034,0.14678
719.31881,0.15932
721.24728,0.16192
723.17575,0.15485
725.10422,0.14607
727.03268,0.14433
728.96115,0.14640
730.88962,0.14694
732.81809,0.14637
734.74656,0.14037
736.67503,0.12893
738.60350,0.12279
740.53197,0.12800
742.46043,0.13746
744.38890,0.13884
746.31737,0.13084
748.24584,0.12195
750.17431,0.12228
752.10278,0.13205
754.03125,0.14352
755.95971,0.15254
757.88818,0.14659
759.81665,0.12931
761.74512,0.12593
763.67359,0.13626
765.60206,0.14374
767.53053,0.14477
769.45900,0.13923
771.38746,0.13423
773.31593,0.13687
775.24440,0.13757
777.17287,0.13073
779.10134,0.12702
781.02981,0.13619
782.95828,0.15117
784.88674,0.15777
786.81521,0.15793
788.74368,0.16354
790.67215,0.17145
792.60062,0.16882
794.52909,0.15368
796.45756,0.13506
798.38602,0.12315
800.31449,0.12802
802.24296,0.14530
804.17143,0.15006
806.09990,0.13673
808.02837,0.12812
809.95684,0.13700
811.88531,0.14851
813.81377,0.14758
815.74224,0.13983
817.67071,0.13171
819.59918,0.12409
821.52765,0.11964
823.45612,0.12315
825.38459,0.13367
827.31305,0.13522
829.24152,0.12683
831.16999,0.12571
833.09846,0.13363
835.02693,0.14010
836.95540,0.13824
838.88387,0.13223
840.81234,0.13125
842.74080,0.13481
844.66927,0.14267
846.59774,0.15604
848.52621,0.15879
850.45468,0.14108
852.38315,0.12700
854.31162,0.13161
856.24008,0.13850
858.16855,0.13948
860.09702,0.14207
862.02549,0.14746
863.95396,0.14987
865.88243,0.14080
867.81090,0.10112
869.73937,0.05634
871.66783,0.06957
873.59630,0.11493
875.52477,0.13593
877.45324,0.14317
879.38171,0.15242
881.31018,0.16132
883.23865,0.16373
885.16711,0.15652
887.09558,0.14564
889.02405,0.13614
890.95252,0.13172
892.88099,0.13455
894.80946,0.14324
896.73793,0.15018
898.66640,0.14779
900.59486,0.13950
902.52333,0.13006
904.45180,0.12224
906.38027,0.12418
908.30874,0.13696
910.23721,0.14772
912.16568,0.14569
914.09414,0.13853
916.02261,0.14115
917.95108,0.15240
919.87955,0.15928
921.80802,0.15391
923.73649,0.14347
925.66496,0.14241
927.59343,0.14993
929.52189,0.15083
931.45036,0.14469
933.37883,0.14422
935.30730,0.15137
937.23577,0.15960
939.16424,0.16176
941.09271,0.15801
943.02117,0.15507
944.94964,0.15158
946.87811,0.14437
948.80658,0.14026
950.73505,0.14148
952.66352,0.14211
954.59199,0.14666
956.52045,0.15788
958.44892,0.16173
960.37739,0.15485
962.30586,0.14981
964.23433,0.14832
966.16280,0.14560
968.09127,0.14607
970.01974,0.14910
971.94820,0.14612
973.87667,0.13983
975.80514,0.14061
977.73361,0.14738
979.66208,0.15125
981.59055,0.15030
983.51902,0.14678
985.44748,0.14259
987.37595,0.14171
989.30442,0.14584
991.23289,0.15101
993.16136,0.15068
995.08983,0.14494
997.01830,0.14218
998.94677,0.14663
1000.87523,0.15573
1002.80370,0.16241
1004.73217,0.15823
1006.66064,0.14745
1008.58911,0.14345
1010.51758,0.14768
1012.44605,0.15295
1014.37451,0.16022
1016.30298,0.16774
1018.23145,0.16678
1020.15992,0.16175
1022.08839,0.16576
1024.01686,0.17607
1025.94533,0.17790
1027.87380,0.16890
1029.80226,0.15507
1031.73073,0.14441
1033.65920,0.14193
1035.58767,0.13855
1037.51614,0.13467
1039.44461,0.14002
1041.37308,0.14754
1043.30154,0.15093
1045.23001,0.15444
1047.15848,0.15956
1049.08695,0.16652
1051.01542,0.17246
1052.94389,0.16829
1054.87236,0.16138
1056.80083,0.16350
1058.72929,0.16358
1060.65776,0.16056
1062.58623,0.16317
1064.51470,0.16620
1066.44317,0.17034
1068.37164,0.17779
1070.30011,0.18123
1072.22857,0.17813
1074.15704,0.16850
1076.08551,0.15309
1078.01398,0.14209
1079.94245,0.14314
1081.87092,0.14932
1083.79939,0.15116
1085.72786,0.14879
1087.65632,0.14468
1089.58479,0.14066
1091.51326,0.14252
1093.44173,0.15218
1095.37020,0.16334
1097.29867,0.16406
1099.22714,0.15733
1101.15560,0.15833
1103.08407,0.16159
1105.01254,0.15936
1106.94101,0.16307
1108.86948,0.17534
1110.79795,0.18020
1112.72642,0.17278
1114.65489,0.16510
1116.58335,0.16368
1118.51182,0.16394
1120.44029,0.16081
1122.36876,0.15977
1124.29723,0.16509
1126.22570,0.17050
1128.15417,0.17520
1130.08263,0.17854
1132.01110,0.16957
1133.93957,0.15195
1135.86804,0.14569
1137.79651,0.15085
1139.72498,0.15023
1141.65345,0.14543
1143.58191,0.15028
1145.51038,0.16027
1147.43885,0.16454
1149.36732,0.16659
1151.29579,0.17105
1153.22426,0.17564
1155.15273,0.17650
1157.08120,0.17170
1159.00966,0.16549
1160.93813,0.16613
1162.86660,0.17325
1164.79507,0.17514
1166.72354,0.16959
1168.65201,0.16625
1170.58048,0.16486
1172.50894,0.16325
1174.43741,0.16196
1176.36588,0.15702
1178.29435,0.15423
1180.22282,0.15751
1182.15129,0.15980
1184.07976,0.16040
1186.00823,0.16225
1187.93669,0.16410
1189.86516,0.16399
1191.79363,0.16464
1193.72210,0.16874
1195.65057,0.17305
1197.57904,0.17129
1199.50751,0.16045
1201.43597,0.14745
1203.36444,0.14377
1205.29291,0.15336
1207.22138,0.16565
1209.14985,0.16832
1211.07832,0.16428
1213.00679,0.16240
1214.93526,0.16381
1216.86372,0.16524
1218.79219,0.16527
1220.72066,0.16209
1222.64913,0.15553
1224.57760,0.15222
1226.50607,0.15581
1228.43454,0.16254
1230.36300,0.16892
1232.29147,0.17184
1234.21994,0.17203
1236.14841,0.17226
1238.07688,0.16992
1240.00535,0.16565
1241.93382,0.16412
1243.86229,0.16419
1245.79075,0.16294
1247.71922,0.16358
1249.64769,0.16822
1251.57616,0.17171
1253.50463,0.17127
1255.43310,0.17118
1257.36157,0.17359
1259.29003,0.17334
1261.21850,0.16882
1263.14697,0.16748
1265.07544,0.17251
1267.00391,0.17771
1268.93238,0.18002
1270.86085,0.18120
1272.78932,0.17775
1274.71778,0.17106
1276.64625,0.16948
1278.57472,0.17208
1280.50319,0.17323
1282.43166,0.17406
1284.36013,0.17407
1286.28860,0.16812
1288.21706,0.16222
1290.14553,0.16496
1292.07400,0.16972
1294.00247,0.16984
1295.93094,0.16718
1297.85941,0.16398
1299.78788,0.16190
1301.71634,0.15875
1303.64481,0.15243
1305.57328,0.15055
1307.50175,0.15859
1309.43022,0.16843
1311.35869,0.17309
1313.28716,0.17555
1315.21563,0.17719
1317.14409,0.17823
1319.07256,0.17978
1321.00103,0.17809
1322.92950,0.17304
1324.85797,0.16786
1326.78644,0.16446
1328.71491,0.16369
1330.64337,0.16353
1332.57184,0.16578
1334.50031,0.17149
1336.42878,0.17582
1338.35725,0.17820
1340.28572,0.17828
1342.21419,0.17122
1344.14266,0.16183
1346.07112,0.16065
1347.99959,0.16774
1349.92806,0.17268
1351.85653,0.17159
1353.78500,0.17048
1355.71347,0.17184
1357.64194,0.17182
1359.57040,0.17221
1361.49887,0.17893
1363.42734,0.18448
1365.35581,0.18023
1367.28428,0.17439
1369.21275,0.17314
1371.14122,0.17862
1373.06969,0.18926
1374.99815,0.19603
1376.92662,0.19376
1378.85509,0.18477
1380.78356,0.17256
1382.71203,0.16725
1384.64050,0.17388
1386.56897,0.18330
1388.49743,0.18512
1390.42590,0.18379
1392.35437,0.18750
1394.28284,0.19526
1396.21131,0.19789
1398.13978,0.19348
1400.06825,0.18781
1401.99672,0.18504
1403.92518,0.18599
1405.85365,0.18679
1407.78212,0.18593
1409.71059,0.18504
1411.63906,0.18274
1413.56753,0.18129
1415.49600,0.18454
1417.42446,0.18871
1419.35293,0.18586
1421.28140,0.18294
1423.20987,0.18475
1425.13834,0.18402
1427.06681,0.18303
1428.99528,0.18611
1430.92375,0.19071
1432.85221,0.19590
1434.78068,0.19933
1436.70915,0.19522
1438.63762,0.18621
1440.56609,0.18051
1442.49456,0.17754
1444.42303,0.17660
1446.35149,0.18092
1448.27996,0.18888
1450.20843,0.19313
1452.13690,0.19490
1454.06537,0.20186
1455.99384,0.21974
1457.92231,0.22358
1459.85077,0.20167
1461.77924,0.19048
1463.70771,0.19135
1465.63618,0.19091
1467.56465,0.18684
1469.49312,0.19061
1471.42159,0.20322
1473.35006,0.21100
1475.27852,0.20574
1477.20699,0.19878
1479.13546,0.19396
1481.06393,0.18893
1482.99240,0.18455
1484.92087,0.18615
1486.84934,0.19580
1488.77780,0.20735
1490.70627,0.20489
1492.63474,0.19509
1494.56321,0.19475
1496.49168,0.20331
1498.42015,0.20618
1500.34862,0.19941
1502.27709,0.19537
1504.20555,0.20165
1506.13402,0.21938
1508.06249,0.22369
1509.99096,0.21136
1511.91943,0.20584
1513.84790,0.20996
1515.77637,0.21771
1517.70483,0.21878
1519.63330,0.21924
1521.56177,0.22318
1523.49024,0.21992
1525.41871,0.21630
1527.34718,0.20965
1529.27565,0.20165
1531.20412,0.20515
1533.13258,0.21466
1535.06105,0.21655
1536.98952,0.22265
1538.91799,0.24624
1540.84646,0.26870
1542.77493,0.25175
1544.70340,0.21985
1546.63186,0.19854
1548.56033,0.19611
1550.48880,0.20366
1552.41727,0.21221
1554.34574,0.22069
1556.27421,0.23280
1558.20268,0.24720
1560.13115,0.22608
1562.05961,0.20457
1563.98808,0.19867
1565.91655,0.19566
1567.84502,0.19763
1569.77349,0.20381
1571.70196,0.20204
1573.63043,0.20107
1575.55889,0.20906
1577.48736,0.20870
1579.41583,0.19412
1581.34430,0.18395
1583.27277,0.18290
1585.20124,0.18476
1587.12971,0.18727
1589.05818,0.18885
1590.98664,0.18649
1592.91511,0.18390
1594.84358,0.18158
1596.77205,0.17764
1598.70052,0.17772
1600.62899,0.18218
1602.55746,0.18516
1604.48592,0.18592
1606.41439,0.18577
1608.34286,0.18602
1610.27133,0.18740
1612.19980,0.18916
1614.12827,0.19445
1616.05674,0.20309
1617.98521,0.20111
1619.91367,0.19499
1621.84214,0.19728
1623.77061,0.19853
1625.69908,0.19223
1627.62755,0.18738
1629.55602,0.18602
1631.48449,0.18931
1633.41295,0.20108
1635.34142,0.21820
1637.26989,0.21622
1639.19836,0.20383
1641.12683,0.19925
1643.05530,0.20318
1644.98377,0.21931
1646.91223,0.24191
1648.84070,0.24194
1650.76917,0.23907
1652.69764,0.24867
1654.62611,0.23587
1656.55458,0.21415
1658.48305,0.20600
1660.41152,0.20925
1662.33998,0.21232
1664.26845,0.20663
1666.19692,0.20627
1668.12539,0.21773
1670.05386,0.22784
1671.98233,0.22145
1673.91080,0.21084
1675.83926,0.20501
1677.76773,0.20537
1679.69620,0.20990
1681.62467,0.22081
1683.55314,0.23856
1685.48161,0.23313
1687.41008,0.21330
1689.33855,0.20420
1691.26701,0.20270
1693.19548,0.20582
1695.12395,0.21664
1697.05242,0.23177
1698.98089,0.23875
1700.90936,0.23099
1702.83783,0.21932
1704.76629,0.21401
1706.69476,0.20836
1708.62323,0.20109
1710.55170,0.20002
1712.48017,0.20505
1714.40864,0.21320
1716.33711,0.22304
1718.26558,0.21771
1720.19404,0.20007
1722.12251,0.19082
1724.05098,0.18969
1725.97945,0.19052
1727.90792,0.19417
1729.83639,0.20276
1731.76486,0.21336
1733.69332,0.21824
1735.62179,0.20888
1737.55026,0.20206
1739.47873,0.20449
1741.40720,0.20772
1743.33567,0.20570
1745.26414,0.20324
1747.19261,0.20577
1749.12107,0.21269
1751.04954,0.21315
1752.97801,0.20311
1754.90648,0.19482
1756.83495,0.19172
1758.76342,0.19096
1760.69189,0.19407
1762.62035,0.19722
1764.54882,0.19695
1766.47729,0.19786
1768.40576,0.20135
1770.33423,0.20843
1772.26270,0.21325
1774.19117,0.20635
1776.11964,0.19889
1778.04810,0.19896
1779.97657,0.20202
1781.90504,0.20075
1783.83351,0.19787
1785.76198,0.19643
1787.69045,0.19594
1789.61892,0.20082
1791.54738,0.20941
1793.47585,0.20755
1795.40432,0.19836
1797.33279,0.19390
1799.26126,0.19350
1801.18973,0.19218
1803.11820,0.18997
1805.04666,0.19022
1806.97513,0.19250
1808.90360,0.19372
1810.83207,0.19179
1812.76054,0.18734
1814.68901,0.18557
1816.61748,0.19326
1818.54595,0.20671
1820.47441,0.21040
1822.40288,0.20287
1824.33135,0.19690
1826.25982,0.19661
1828.18829,0.19945
1830.11676,0.20068
1832.04523,0.19404
1833.97369,0.18825
1835.90216,0.18937
1837.83063,0.19066
1839.75910,0.18990
1841.68757,0.19544
1843.61604,0.20456
1845.54451,0.20259
1847.47298,0.19582
1849.40144,0.19239
1851.32991,0.18917
1853.25838,0.18706
1855.18685,0.18731
1857.11532,0.18889
1859.04379,0.19106
1860.97226,0.19152
1862.90072,0.19054
1864.82919,0.19305
1866.75766,0.20026
1868.68613,0.20383
1870.61460,0.19716
1872.54307,0.18885
1874.47154,0.18447
1876.40001,0.18439
1878.32847,0.18720
1880.25694,0.18893
1882.18541,0.18812
1884.11388,0.18594
1886.04235,0.18414
1887.97082,0.18454
1889.89929,0.18674
1891.82775,0.18947
1893.75622,0.19155
1895.68469,0.19166
1897.61316,0.19106
1899.54163,0.19067
1901.47010,0.18831
1903.39857,0.18519
1905.32704,0.18527
1907.25550,0.18824
1909.18397,0.18955
1911.11244,0.18851
1913.04091,0.18823
1914.96938,0.18912
1916.89785,0.19237
1918.82632,0.19605
1920.75478,0.19612
1922.68325,0.19432
1924.61172,0.19148
1926.54019,0.18805
1928.46866,0.18551
1930.39713,0.18546
1932.32560,0.18721
1934.25407,0.18698
1936.18253,0.18549
1938.11100,0.18622
1940.03947,0.18902
1941.96794,0.19255
1943.89641,0.19474
1945.82488,0.19271
1947.75335,0.18804
1949.68181,0.18668
1951.61028,0.19020
1953.53875,0.19366
1955.46722,0.19406
1957.39569,0.19220
1959.32416,0.19006
1961.25263,0.19017
1963.18110,0.19272
1965.10956,0.19547
1967.03803,0.19635
1968.96650,0.19433
1970.89497,0.19021
1972.82344,0.18541
1974.75191,0.18193
1976.68038,0.18139
1978.60884,0.18394
1980.53731,0.18740
1982.46578,0.18877
1984.39425,0.18950
1986.32272,0.19223
1988.25119,0.19478
1990.17966,0.19435
1992.10812,0.19146
1994.03659,0.18830
1995.96506,0.18703
1997.89353,0.18797
1999.82200,0.18881
2001.75047,0.18853
2003.67894,0.18908
2005.60741,0.18975
2007.53587,0.18809
2009.46434,0.18546
2011.39281,0.18514
2013.32128,0.18840
2015.24975,0.19213
2017.17822,0.19245
2019.10669,0.19013
2021.03515,0.18833
2022.96362,0.18807
2024.89209,0.18837
2026.82056,0.18841
2028.74903,0.18763
2030.67750,0.18612
2032.60597,0.18443
2034.53444,0.18265
2036.46290,0.18276
2038.39137,0.18618
2040.31984,0.19002
2042.24831,0.19139
2044.17678,0.19067
2046.10525,0.18892
2048.03372,0.18814
2049.96218,0.18988
2051.89065,0.19166
2053.81912,0.19173
2055.74759,0.19081
2057.67606,0.18926
2059.60453,0.18776
2061.53300,0.18741
2063.46147,0.18933
2065.38993,0.19261
2067.31840,0.19376
2069.24687,0.19152
2071.17534,0.18968
2073.10381,0.19113
2075.03228,0.19220
2076.96075,0.18985
2078.88921,0.18691
2080.81768,0.18638
2082.74615,0.18765
2084.67462,0.18889
2086.60309,0.18969
2088.53156,0.19033
2090.46003,0.19104
2092.38850,0.19132
2094.31696,0.19111
2096.24543,0.19247
2098.17390,0.19397
2100.10237,0.19275
2102.03084,0.19104
2103.95931,0.19052
2105.88778,0.19111
2107.81624,0.19164
2109.74471,0.19004
2111.67318,0.18863
2113.60165,0.18984
2115.53012,0.19088
2117.45859,0.19027
2119.38706,0.19061
2121.31553,0.19093
2123.24399,0.19014
2125.17246,0.19179
2127.10093,0.19504
2129.02940,0.19548
2130.95787,0.19208
2132.88634,0.18493
2134.81481,0.17797
2136.74327,0.18082
2138.67174,0.19044
2140.60021,0.19336
2142.52868,0.19161
2144.45715,0.19140
2146.38562,0.18952
2148.31409,0.18724
2150.24255,0.18861
2152.17102,0.19194
2154.09949,0.19308
2156.02796,0.19139
2157.95643,0.18991
2159.88490,0.18988
2161.81337,0.19040
2163.74184,0.19075
2165.67030,0.19007
2167.59877,0.18852
2169.52724,0.18768
2171.45571,0.18859
2173.38418,0.18913
2175.31265,0.18686
2177.24112,0.18567
2179.16958,0.18895
2181.09805,0.19154
2183.02652,0.19024
2184.95499,0.18835
2186.88346,0.18769
2188.81193,0.18750
2190.74040,0.18794
2192.66887,0.19016
2194.59733,0.19263
2196.52580,0.19297
2198.45427,0.19170
2200.38274,0.18948
2202.31121,0.18696
2204.23968,0.18611
2206.16815,0.18741
2208.09661,0.18880
2210.02508,0.18856
2211.95355,0.18776
2213.88202,0.18718
2215.81049,0.18623
2217.73896,0.18756
2219.66743,0.19166
2221.59590,0.19368
2223.52436,0.19266
2225.45283,0.19198
2227.38130,0.19300
2229.30977,0.19282
2231.23824,0.19026
2233.16671,0.18903
2235.09518,0.18940
2237.02364,0.18906
2238.95211,0.18856
2240.88058,0.18762
2242.80905,0.18651
2244.73752,0.18769
2246.66599,0.19071
2248.59446,0.19306
2250.52293,0.19374
2252.45139,0.19371
2254.37986,0.19435
2256.30833,0.19487
2258.23680,0.19325
2260.16527,0.19077
2262.09374,0.19113
2264.02221,0.19265
2265.95067,0.19154
2267.87914,0.18899
2269.80761,0.18845
2271.73608,0.19054
2273.66455,0.19195
2275.59302,0.19049
2277.52149,0.18718
2279.44996,0.18486
2281.37842,0.18543
2283.30689,0.18774
2285.23536,0.18915
2287.16383,0.18765
2289.09230,0.18504
2291.02077,0.18688
2292.94924,0.19523
2294.87770,0.20096
2296.80617,0.19731
2298.73464,0.19223
2300.66311,0.18984
2302.59158,0.18750
2304.52005,0.18851
2306.44852,0.19430
2308.37699,0.19991
2310.30545,0.20013
2312.23392,0.19633
2314.16239,0.19650
2316.09086,0.20246
2318.01933,0.20875
2319.94780,0.20984
2321.87627,0.20534
2323.80473,0.20114
2325.73320,0.19925
2327.66167,0.20097
2329.59014,0.20808
2331.51861,0.20981
2333.44708,0.20125
2335.37555,0.20123
2337.30401,0.20914
2339.23248,0.21075
2341.16095,0.21835
2343.08942,0.23055
2345.01789,0.22991
2346.94636,0.21909
2348.87483,0.21178
2350.80330,0.21382
2352.73176,0.21994
2354.66023,0.22423
2356.58870,0.22719
2358.51717,0.23437
2360.44564,0.25455
2362.37411,0.26723
2364.30258,0.26088
2366.23104,0.24522
2368.15951,0.22367
2370.08798,0.20675
2372.01645,0.20057
2373.94492,0.20117
2375.87339,0.20335
2377.80186,0.20150
2379.73033,0.19427
2381.65879,0.18825
2383.58726,0.18934
2385.51573,0.19463
2387.44420,0.19763
2389.37267,0.19625
2391.30114,0.19335
2393.22961,0.19213
2395.15807,0.19187
2397.08654,0.19064
2399.01501,0.18955
2400.94348,0.18886
2402.87195,0.18764
2404.80042,0.18828
2406.72889,0.19173
2408.65736,0.19341
2410.58582,0.19059
2412.51429,0.18757
2414.44276,0.18824
2416.37123,0.19054
2418.29970,0.19071
2420.22817,0.18804
2422.15664,0.18603
2424.08510,0.18548
2426.01357,0.18399
2427.94204,0.18403
2429.87051,0.18774
2431.79898,0.19207
2433.72745,0.19340
2435.65592,0.19122
2437.58439,0.18975
2439.51285,0.19096
2441.44132,0.19171
2443.36979,0.19126
2445.29826,0.19066
2447.22673,0.19027
2449.15520,0.18885
2451.08367,0.18547
2453.01213,0.18364
2454.94060,0.18530
2456.86907,0.18816
2458.79754,0.19007
2460.72601,0.19025
2462.65448,0.19005
2464.58295,0.19130
2466.51142,0.19270
2468.43988,0.19231
2470.36835,0.19157
2472.29682,0.19127
2474.22529,0.19053
2476.15376,0.19043
2478.08223,0.19235
2480.01070,0.19470
2481.93916,0.19482
2483.86763,0.19401
2485.79610,0.19448
2487.72457,0.19438
2489.65304,0.19271
2491.58151,0.19137
2493.50998,0.19126
2495.43844,0.19263
2497.36691,0.19494
2499.29538,0.19753
2501.22385,0.19947
2503.15232,0.19719
2505.08079,0.19215
2507.00926,0.19003
2508.93773,0.19025
2510.86619,0.18965
2512.79466,0.18953
2514.72313,0.19151
2516.65160,0.19243
2518.58007,0.19073
2520.50854,0.18943
2522.43701,0.19024
2524.36547,0.19205
2526.29394,0.19286
2528.22241,0.19317
2530.15088,0.19421
2532.07935,0.19409
2534.00782,0.19294
2535.93629,0.19354
2537.86476,0.19511
2539.79322,0.19357
2541.72169,0.19037
2543.65016,0.19143
2545.57863,0.19457
2547.50710,0.19539
2549.43557,0.19474
2551.36404,0.19358
2553.29250,0.19433
2555.22097,0.19754
2557.14944,0.19838
2559.07791,0.19474
2561.00638,0.19139
2562.93485,0.19177
2564.86332,0.19281
2566.79179,0.19267
2568.72025,0.19341
2570.64872,0.19492
2572.57719,0.19512
2574.50566,0.19410
2576.43413,0.19268
2578.36260,0.19067
2580.29107,0.18854
2582.21953,0.18766
2584.14800,0.19074
2586.07647,0.19579
2588.00494,0.19767
2589.93341,0.19716
2591.86188,0.19517
2593.79035,0.19232
2595.71882,0.19155
2597.64728,0.19177
2599.57575,0.19143
2601.50422,0.19107
2603.43269,0.19129
2605.36116,0.19264
2607.28963,0.19278
2609.21810,0.19152
2611.14656,0.19405
2613.07503,0.19936
2615.00350,0.20059
2616.93197,0.19806
2618.86044,0.19457
2620.78891,0.19063
2622.71738,0.18972
2624.64585,0.19276
2626.57431,0.19606
2628.50278,0.19864
2630.43125,0.20032
2632.35972,0.19791
2634.28819,0.19228
2636.21666,0.18951
2638.14513,0.19194
2640.07359,0.19590
2642.00206,0.19644
2643.93053,0.19413
2645.85900,0.19256
2647.78747,0.19236
2649.71594,0.19265
2651.64441,0.19320
2653.57288,0.19440
2655.50134,0.19523
2657.42981,0.19579
2659.35828,0.19675
2661.28675,0.19741
2663.21522,0.19899
2665.14369,0.20060
2667.07216,0.20046
2669.00062,0.19930
2670.92909,0.19784
2672.85756,0.19711
2674.78603,0.19599
2676.71450,0.19230
2678.64297,0.18898
2680.57144,0.19162
2682.49990,0.19773
2684.42837,0.19963
2686.35684,0.19635
2688.28531,0.19213
2690.21378,0.19152
2692.14225,0.19413
2694.07072,0.19429
2695.99919,0.19286
2697.92765,0.19403
2699.85612,0.19533
2701.78459,0.19532
2703.71306,0.19604
2705.64153,0.19785
2707.57000,0.19967
2709.49847,0.20118
2711.42693,0.20421
2713.35540,0.20675
2715.28387,0.20498
2717.21234,0.20200
2719.14081,0.20083
2721.06928,0.20071
2722.99775,0.20038
2724.92622,0.19793
2726.85468,0.19666
2728.78315,0.19930
2730.71162,0.20044
2732.64009,0.19919
2734.56856,0.19878
2736.49703,0.19867
2738.42550,0.19933
2740.35396,0.20127
2742.28243,0.20291
2744.21090,0.20223
2746.13937,0.19931
2748.06784,0.19794
2749.99631,0.20009
2751.92478,0.20232
2753.85325,0.20123
2755.78171,0.19920
2757.71018,0.19910
2759.63865,0.20087
2761.56712,0.20433
2763.49559,0.20589
2765.42406,0.20400
2767.35253,0.20416
2769.28099,0.20685
2771.20946,0.20715
2773.13793,0.20726
2775.06640,0.21162
2776.99487,0.21426
2778.92334,0.21040
2780.85181,0.20724
2782.78028,0.20742
2784.70874,0.20611
2786.63721,0.20476
2788.56568,0.20679
2790.49415,0.21003
2792.42262,0.21147
2794.35109,0.21073
2796.27956,0.20823
2798.20802,0.20536
2800.13649,0.20333
2802.06496,0.20259
2803.99343,0.20398
2805.92190,0.20650
2807.85037,0.20734
2809.77884,0.20544
2811.70731,0.20330
2813.63577,0.20343
2815.56424,0.20533
2817.49271,0.20749
2819.42118,0.20980
2821.34965,0.21259
2823.27812,0.21432
2825.20659,0.21480
2827.13505,0.21452
2829.06352,0.21179
2830.99199,0.20887
2832.92046,0.20852
2834.84893,0.20851
2836.77740,0.20846
2838.70587,0.20888
2840.63433,0.20770
2842.56280,0.20532
2844.49127,0.20458
2846.41974,0.20530
2848.34821,0.20539
2850.27668,0.20537
2852.20515,0.20645
2854.13362,0.20598
2856.06208,0.20255
2857.99055,0.20117
2859.91902,0.20428
2861.84749,0.20986
2863.77596,0.21512
2865.70443,0.21479
2867.63290,0.20816
2869.56136,0.20124
2871.48983,0.19964
2873.41830,0.20208
2875.34677,0.20334
2877.27524,0.20297
2879.20371,0.20118
2881.13218,0.19804
2883.06065,0.19727
2884.98911,0.20042
2886.91758,0.20370
2888.84605,0.20378
2890.77452,0.20277
2892.70299,0.20453
2894.63146,0.20704
2896.55993,0.20532
2898.48839,0.20246
2900.41686,0.20327
2902.34533,0.20430
2904.27380,0.20317
2906.20227,0.20328
2908.13074,0.20547
2910.05921,0.20619
2911.98768,0.20500
2913.91614,0.20480
2915.84461,0.20620
2917.77308,0.20752
2919.70155,0.20766
2921.63002,0.20719
2923.55849,0.20450
2925.48696,0.19879
2927.41542,0.19687
2929.34389,0.19926
2931.27236,0.19719
2933.20083,0.19377
2935.12930,0.19595
2937.05777,0.19832
2938.98624,0.19769
2940.91471,0.19783
2942.84317,0.20138
2944.77164,0.20457
2946.70011,0.20106
2948.62858,0.19781
2950.55705,0.20275
2952.48552,0.20803
2954.41399,0.20602
2956.34245,0.20168
2958.27092,0.20454
2960.19939,0.21133
2962.12786,0.21209
2964.05633,0.20950
2965.98480,0.20881
2967.91327,0.20827
2969.84174,0.20719
2971.77020,0.20618
2973.69867,0.20605
2975.62714,0.20722
2977.55561,0.20719
2979.48408,0.20648
2981.41255,0.20868
2983.34102,0.21259
2985.26948,0.21346
2987.19795,0.20897
2989.12642,0.20435
2991.05489,0.20558
2992.98336,0.20835
2994.91183,0.20636
2996.84030,0.20402
2998.76877,0.20891
3000.69723,0.21653
3002.62570,0.21969
3004.55417,0.21925
3006.48264,0.21390
3008.41111,0.20439
3010.33958,0.19538
3012.26805,0.18622
3014.19651,0.17638
3016.12498,0.17029
3018.05345,0.17681
3019.98192,0.19552
3021.91039,0.21001
3023.83886,0.21171
3025.76733,0.20737
3027.69579,0.20520
3029.62426,0.20790
3031.55273,0.21156
3033.48120,0.21306
3035.40967,0.21243
3037.33814,0.20830
3039.26661,0.20607
3041.19508,0.21029
3043.12354,0.21306
3045.05201,0.21042
3046.98048,0.20693
3048.90895,0.20642
3050.83742,0.20712
3052.76589,0.20428
3054.69436,0.20063
3056.62282,0.19993
3058.55129,0.20127
3060.47976,0.20514
3062.40823,0.20947
3064.33670,0.20801
3066.26517,0.20253
3068.19364,0.20402
3070.12211,0.21315
3072.05057,0.21730
3073.97904,0.21079
3075.90751,0.20317
3077.83598,0.20437
3079.76445,0.20965
3081.69292,0.21026
3083.62139,0.20690
3085.54985,0.20474
3087.47832,0.20835
3089.40679,0.21462
3091.33526,0.21434
3093.26373,0.20574
3095.19220,0.19746
3097.12067,0.19960
3099.04914,0.20960
3100.97760,0.21451
3102.90607,0.20839
3104.83454,0.20097
3106.76301,0.20325
3108.69148,0.21167
3110.61995,0.21694
3112.54842,0.21572
3114.47688,0.21107
3116.40535,0.20828
3118.33382,0.20954
3120.26229,0.21258
3122.19076,0.21520
3124.11923,0.21632
3126.04770,0.21491
3127.97617,0.21491
3129.90463,0.21749
3131.83310,0.21864
3133.76157,0.21989
3135.69004,0.22107
3137.61851,0.21767
3139.54698,0.21137
3141.47545,0.20576
3143.40391,0.20230
3145.33238,0.20262
3147.26085,0.20641
3149.18932,0.21348
3151.11779,0.21795
3153.04626,0.21192
3154.97473,0.20343
3156.90320,0.20233
3158.83166,0.20591
3160.76013,0.21078
3162.68860,0.21425
3164.61707,0.21387
3166.54554,0.21463
3168.47401,0.21990
3170.40248,0.22227
3172.33094,0.21845
3174.25941,0.21724
3176.18788,0.22232
3178.11635,0.22740
3180.04482,0.22913
3181.97329,0.22547
3183.90176,0.21794
3185.83022,0.21343
3187.75869,0.21128
3189.68716,0.21076
3191.61563,0.21479
3193.54410,0.21754
3195.47257,0.21736
3197.40104,0.21996
3199.32951,0.22178
3201.25797,0.22074
3203.18644,0.21899
3205.11491,0.21421
3207.04338,0.21050
3208.97185,0.21300
3210.90032,0.21621
3212.82879,0.21379
3214.75725,0.20843
3216.68572,0.20790
3218.61419,0.21202
3220.54266,0.21230
3222.47113,0.20909
3224.39960,0.21029
3226.32807,0.21405
3228.25654,0.21406
3230.18500,0.21277
3232.11347,0.21640
3234.04194,0.22300
3235.97041,0.22554
3237.89888,0.22278
3239.82735,0.21933
3241.75582,0.22013
3243.68428,0.22322
3245.61275,0.22236
3247.54122,0.22046
3249.46969,0.22328
3251.39816,0.22430
3253.32663,0.21982
3255.25510,0.21736
3257.18357,0.21869
3259.11203,0.22132
3261.04050,0.22187
3262.96897,0.21614
3264.89744,0.20734
3266.82591,0.20245
3268.75438,0.20507
3270.68285,0.21115
3272.61131,0.21456
3274.53978,0.21592
3276.46825,0.21512
3278.39672,0.21073
3280.32519,0.20822
3282.25366,0.20807
3284.18213,0.20370
3286.11060,0.20027
3288.03906,0.20685
3289.96753,0.21545
3291.89600,0.21597
3293.82447,0.21481
3295.75294,0.21833
3297.68141,0.22281
3299.60988,0.22317
3301.53834,0.21748
3303.46681,0.20910
3305.39528,0.20510
3307.32375,0.20887
3309.25222,0.21401
3311.18069,0.21455
3313.10916,0.21273
3315.03763,0.21122
3316.96609,0.21060
3318.89456,0.21044
3320.82303,0.21112
3322.75150,0.21224
3324.67997,0.21294
3326.60844,0.21351
3328.53691,0.21088
3330.46537,0.20669
3332.39384,0.20926
3334.32231,0.21639
3336.25078,0.21991
3338.17925,0.22079
3340.10772,0.21920
3342.03619,0.21404
3343.96466,0.21204
3345.89312,0.21486
3347.82159,0.21953
3349.75006,0.22720
3351.67853,0.23225
3353.60700,0.22791
3355.53547,0.21838
3357.46394,0.21144
3359.39240,0.21239
3361.32087,0.22016
3363.24934,0.22681
3365.17781,0.22671
3367.10628,0.22129
3369.03475,0.21440
3370.96322,0.21196
3372.89168,0.21604
3374.82015,0.21999
3376.74862,0.22304
3378.67709,0.22461
3380.60556,0.22016
3382.53403,0.21648
3384.46250,0.21842
3386.39097,0.21859
3388.31943,0.21448
3390.24790,0.21367
3392.17637,0.21846
3394.10484,0.22278
3396.03331,0.22038
3397.96178,0.20986
3399.89025,0.20122
3401.81871,0.20019
3403.74718,0.20103
3405.67565,0.20456
3407.60412,0.21059
3409.53259,0.21201
3411.46106,0.20967
3413.38953,0.20683
3415.31800,0.20345
3417.24646,0.20317
3419.17493,0.20664
3421.10340,0.21061
3423.03187,0.21287
3424.96034,0.21165
3426.88881,0.20834
3428.81728,0.20655
3430.74574,0.20839
3432.67421,0.21111
3434.60268,0.21104
3436.53115,0.20949
3438.45962,0.20883
3440.38809,0.20891
3442.31656,0.20854
3444.24503,0.20815
3446.17349,0.20849
3448.10196,0.20761
3450.03043,0.20226
3451.95890,0.19622
3453.88737,0.19604
3455.81584,0.20017
3457.74431,0.20376
3459.67277,0.20378
3461.60124,0.19966
3463.52971,0.19418
3465.45818,0.19036
3467.38665,0.18853
3469.31512,0.18846
3471.24359,0.19181
3473.17206,0.19597
3475.10052,0.19553
3477.02899,0.19067
3478.95746,0.18809
3480.88593,0.19078
3482.81440,0.19241
3484.74287,0.19121
3486.67134,0.19063
3488.59980,0.19040
3490.52827,0.18980
3492.45674,0.18804
3494.38521,0.18415
3496.31368,0.18038
3498.24215,0.18062
3500.17062,0.18341
3502.09909,0.18557
3504.02755,0.18666
3505.95602,0.18804
3507.88449,0.19263
3509.81296,0.19463
3511.74143,0.18683
3513.66990,0.17940
3515.59837,0.18114
3517.52683,0.18527
3519.45530,0.18663
3521.38377,0.18794
3523.31224,0.18892
3525.24071,0.18928
3527.16918,0.18827
3529.09765,0.18095
3531.02611,0.17143
3532.95458,0.16778
3534.88305,0.16868
3536.81152,0.16994
3538.73999,0.17181
3540.66846,0.17377
3542.59693,0.17651
3544.52540,0.18366
3546.45386,0.18892
3548.38233,0.18578
3550.31080,0.18261
3552.23927,0.18249
3554.16774,0.17942
3556.09621,0.17276
3558.02468,0.16847
3559.95314,0.17008
3561.88161,0.17343
3563.81008,0.17647
3565.73855,0.18097
3567.66702,0.18091
3569.59549,0.17671
3571.52396,0.17477
3573.45243,0.17304
3575.38089,0.16971
3577.30936,0.16390
3579.23783,0.15727
3581.16630,0.15653
3583.09477,0.16320
3585.02324,0.17262
3586.95171,0.17776
3588.88017,0.17024
3590.80864,0.16336
3592.73711,0.16656
3594.66558,0.16874
3596.59405,0.16325
3598.52252,0.15898
3600.45099,0.15986
3602.37946,0.16250
3604.30792,0.16504
3606.23639,0.16650
3608.16486,0.16306
3610.09333,0.15896
3612.02180,0.16138
3613.95027,0.16546
3615.87874,0.16978
3617.80720,0.17810
3619.73567,0.18179
3621.66414,0.17305
3623.59261,0.16118
3625.52108,0.15602
3627.44955,0.16205
3629.37802,0.16635
3631.30649,0.15771
3633.23495,0.14795
3635.16342,0.14087
3637.09189,0.13965
3639.02036,0.14253
3640.94883,0.14382
3642.87730,0.14177
3644.80577,0.14102
3646.73423,0.14964
3648.66270,0.16766
3650.59117,0.16844
3652.51964,0.15503
3654.44811,0.14658
3656.37658,0.14085
3658.30505,0.13598
3660.23352,0.13548
3662.16198,0.13539
3664.09045,0.13108
3666.01892,0.12980
3667.94739,0.14117
3669.87586,0.15936
3671.80433,0.16317
3673.73280,0.16125
3675.66126,0.16176
3677.58973,0.15347
3679.51820,0.14514
3681.44667,0.14165
3683.37514,0.13913
3685.30361,0.14033
3687.23208,0.14764
3689.16055,0.15623
3691.08901,0.15703
3693.01748,0.14894
3694.94595,0.13809
3696.87442,0.13170
3698.80289,0.13569
3700.73136,0.14468
3702.65983,0.14421
3704.58829,0.13745
3706.51676,0.13769
3708.44523,0.14344
3710.37370,0.15055
3712.30217,0.15441
3714.23064,0.15043
3716.15911,0.14816
3718.08757,0.15166
3720.01604,0.15656
3721.94451,0.15832
3723.87298,0.15747
3725.80145,0.15720
3727.72992,0.15701
3729.65839,0.15801
3731.58686,0.16152
3733.51532,0.16809
3735.44379,0.17172
3737.37226,0.15875
3739.30073,0.14273
3741.22920,0.13736
3743.15767,0.14213
3745.08614,0.14840
3747.01460,0.14617
3748.94307,0.14430
3750.87154,0.15274
3752.80001,0.16019
3754.72848,0.15642
3756.65695,0.14930
3758.58542,0.14071
3760.51389,0.13131
3762.44235,0.12910
3764.37082,0.13501
3766.29929,0.13877
3768.22776,0.13630
3770.15623,0.13400
3772.08470,0.13140
3774.01317,0.12954
3775.94163,0.13183
3777.87010,0.13449
3779.79857,0.13214
3781.72704,0.13063
3783.65551,0.13406
3785.58398,0.13390
3787.51245,0.12594
3789.44092,0.11769
3791.36938,0.11425
3793.29785,0.11893
3795.22632,0.13096
3797.15479,0.13818
3799.08326,0.13919
3801.01173,0.14323
3802.94020,0.14200
3804.86866,0.13987
3806.79713,0.14198
3808.72560,0.13614
3810.65407,0.12932
3812.58254,0.13129
3814.51101,0.13707
3816.43948,0.14094
3818.36795,0.14204
3820.29641,0.14212
3822.22488,0.14030
3824.15335,0.13795
3826.08182,0.13795
3828.01029,0.13670
3829.93876,0.13419
3831.86723,0.13624
3833.79569,0.14256
3835.72416,0.14904
3837.65263,0.15359
3839.58110,0.15098
3841.50957,0.14036
3843.43804,0.12919
3845.36651,0.12345
3847.29498,0.12337
3849.22344,0.12822
3851.15191,0.14216
3853.08038,0.16074
3855.00885,0.15104
3856.93732,0.13542
3858.86579,0.13266
3860.79426,0.13866
3862.72272,0.14881
3864.65119,0.15174
3866.57966,0.14536
3868.50813,0.13979
3870.43660,0.13246
3872.36507,0.12249
3874.29354,0.11642
3876.22200,0.11429
3878.15047,0.11605
3880.07894,0.12468
3882.00741,0.13679
3883.93588,0.14316
3885.86435,0.13887
3887.79282,0.12934
3889.72129,0.12582
3891.64975,0.12713
3893.57822,0.12744
3895.50669,0.12974
3897.43516,0.13435
3899.36363,0.13254
3901.29210,0.12506
3903.22057,0.12467
3905.14903,0.12536
3907.07750,0.11893
3909.00597,0.11302
3910.93444,0.11264
3912.86291,0.11642
3914.79138,0.12037
3916.71985,0.11857
3918.64832,0.10846
3920.57678,0.09946
3922.50525,0.10223
3924.43372,0.11342
3926.36219,0.11887
3928.29066,0.11595
3930.21913,0.11261
3932.14760,0.11313
3934.07606,0.11420
3936.00453,0.11331
3937.93300,0.11535
3939.86147,0.12070
3941.78994,0.12288
3943.71841,0.12042
3945.64688,0.12000
3947.57535,0.12263
3949.50381,0.12202
3951.43228,0.11860
3953.36075,0.11597
3955.28922,0.11468
3957.21769,0.11454
3959.14616,0.11361
3961.07463,0.11306
3963.00309,0.11370
3964.93156,0.11379
3966.86003,0.11433
3968.78850,0.11577
3970.71697,0.11579
3972.64544,0.11387
3974.57391,0.11292
3976.50238,0.11371
3978.43084,0.11305
3980.35931,0.11197
3982.28778,0.11335
3984.21625,0.11215
3986.14472,0.10747
3988.07319,0.10784
3990.00166,0.11256
3991.93012,0.11365
3993.85859,0.11129
3995.78706,0.10929
3997.71553,0.10796
3999.64400,0.10719
4001.57247,0.10706
4003.50094,0.10792
4005.42941,0.10751
4007.35787,0.10221
4009.28634,0.09744
4011.21481,0.10118
4013.14328,0.10974
4015.07175,0.11454
4017.00022,0.11173
4018.92869,0.10339
4020.85715,0.09680
4022.78562,0.09545
4024.71409,0.09595
4026.64256,0.09646
4028.57103,0.09819
4030.49950,0.10194
4032.42797,0.10532
4034.35644,0.10575
4036.28490,0.10401
4038.21337,0.10064
4040.14184,0.09445
4042.07031,0.08830
4043.99878,0.08748
4045.92725,0.09077
4047.85572,0.09326
4049.78418,0.09233
4051.71265,0.09115
4053.64112,0.09620
4055.56959,0.10323
4057.49806,0.10580
4059.42653,0.10810
4061.35500,0.10947
4063.28346,0.10444
4065.21193,0.09691
4067.14040,0.09322
4069.06887,0.09289
4070.99734,0.09469
4072.92581,0.09828
4074.85428,0.09803
4076.78275,0.09492
4078.71121,0.09566
4080.63968,0.09657
4082.56815,0.09552
4084.49662,0.09603
4086.42509,0.09614
4088.35356,0.09427
4090.28203,0.08987
4092.21049,0.08487
4094.13896,0.08778
4096.06743,0.09328
4097.99590,0.09286
4099.92437,0.09523
4101.85284,0.09978
4103.78131,0.10005
4105.70978,0.09851
4107.63824,0.09526
4109.56671,0.09191
4111.49518,0.09152
4113.42365,0.09082
4115.35212,0.08870
4117.28059,0.08946
4119.20906,0.09007
4121.13752,0.08842
4123.06599,0.08939
4124.99446,0.08849
4126.92293,0.08176
4128.85140,0.07693
4130.77987,0.07630
4132.70834,0.07632
4134.63681,0.07903
4136.56527,0.08412
4138.49374,0.08662
4140.42221,0.08594
4142.35068,0.08610
4144.27915,0.08990
4146.20762,0.09290
4148.13609,0.08787
4150.06455,0.07834
4151.99302,0.07517
4153.92149,0.08031
4155.84996,0.08550
4157.77843,0.08750
4159.70690,0.08994
4161.63537,0.08956
4163.56384,0.08134
4165.49230,0.07279
4167.42077,0.07328
4169.34924,0.08036
4171.27771,0.08527
4173.20618,0.08730
4175.13465,0.08901
4177.06312,0.08738
4178.99158,0.08497
4180.92005,0.08305
4182.84852,0.07821
4184.77699,0.07742
4186.70546,0.08260
4188.63393,0.08535
4190.56240,0.08461
4192.49087,0.08472
4194.41933,0.08557
4196.34780,0.08206
4198.27627,0.07463
4200.20474,0.07010
4202.13321,0.07040
4204.06168,0.07266
4205.99015,0.07204
4207.91861,0.06651
4209.84708,0.06316
4211.77555,0.06837
4213.70402,0.07716
4215.63249,0.08055
4217.56096,0.07615
4219.48943,0.07124
4221.41789,0.07224
4223.34636,0.07313
4225.27483,0.07055
4227.20330,0.07172
4229.13177,0.07462
4231.06024,0.07305
4232.98871,0.07248
4234.91718,0.07330
4236.84564,0.06937
4238.77411,0.06453
4240.70258,0.06277
4242.63105,0.06273
4244.55952,0.06345
4246.48799,0.06398
4248.41646,0.06346
4250.34492,0.06162
4252.27339,0.05972
4254.20186,0.06050
4256.13033,0.06698
4258.05880,0.07638
4259.98727,0.08097
4261.91574,0.07962
4263.84421,0.07738
4265.77267,0.07684
4267.70114,0.07354
4269.62961,0.06399
4271.55808,0.05787
4273.48655,0.06032
4275.41502,0.06283
4277.34349,0.06283
4279.27195,0.06142
4281.20042,0.05699
4283.12889,0.05187
4285.05736,0.04904
4286.98583,0.04622
4288.91430,0.04261
4290.84277,0.04465
4292.77124,0.05457
4294.69970,0.06693
4296.62817,0.07529
4298.55664,0.07584
4300.48511,0.07117
4302.41358,0.06689
4304.34205,0.06683
4306.27052,0.06995
4308.19898,0.07137
4310.12745,0.06796
4312.05592,0.05976
4313.98439,0.05046
4315.91286,0.04606
4317.84133,0.04759
4319.76980,0.04842
4321.69827,0.04525
4323.62673,0.04504
4325.55520,0.04917
4327.48367,0.04995
4329.41214,0.04749
4331.34061,0.04720
4333.26908,0.05254
4335.19755,0.06168
4337.12601,0.06510
4339.05448,0.06008
4340.98295,0.05205
4342.91142,0.04636
4344.83989,0.04441
4346.76836,0.04145
4348.69683,0.03985
4350.62530,0.04291
4352.55376,0.04601
4354.48223,0.05033
4356.41070,0.05519
4358.33917,0.05313
4360.26764,0.04653
4362.19611,0.04482
4364.12458,0.04749
4366.05304,0.05057
4367.98151,0.05584
4369.90998,0.05683
4371.83845,0.04814
4373.76692,0.03835
4375.69539,0.03430
4377.62386,0.03641
4379.55232,0.04326
4381.48079,0.04729
4383.40926,0.04249
4385.33773,0.03648
4387.26620,0.03438
4389.19467,0.03377
4391.12314,0.03585
4393.05161,0.03885
4394.98007,0.04071
4396.90854,0.04177
4398.83701,0.04229
4400.76548,0.04299
4402.69395,0.04171
4404.62242,0.03919
4406.55089,0.03520
4408.47935,0.02613
4410.40782,0.02088
4412.33629,0.02754
4414.26476,0.03403
4416.19323,0.03201
4418.12170,0.03141
4420.05017,0.03798
4421.97864,0.04281
4423.90710,0.04080
4425.83557,0.03778
4427.76404,0.03565
4429.69251,0.03405
4431.62098,0.03664
4433.54945,0.04119
4435.47792,0.04303
4437.40638,0.04152
4439.33485,0.03408
4441.26332,0.02185
4443.19179,0.01311
4445.12026,0.01262
4447.04873,0.01814
4448.97720,0.02394
4450.90567,0.02673
4452.83413,0.02937
4454.76260,0.03282
4456.69107,0.03204
4458.61954,0.02619
4460.54801,0.02228
4462.47648,0.02486
4464.40495,0.02884
4466.33341,0.02617
4468.26188,0.01967
4470.19035,0.01858
4472.11882,0.02170
4474.04729,0.02277
4475.97576,0.02394
4477.90423,0.02768
4479.83270,0.02848
4481.76116,0.02824
4483.68963,0.03245
4485.61810,0.03435
4487.54657,0.03084
4489.47504,0.02181
4491.40351,0.01009
4493.33198,0.01209
4495.26044,0.02427
4497.18891,0.02933
4499.11738,0.02801
4501.04585,0.02217
4502.97432,0.01590
4504.90279,0.01877
4506.83126,0.02713
4508.75973,0.02850
4510.68819,0.02137
4512.61666,0.01635
4514.54513,0.01652
4516.47360,0.01736
4518.40207,0.01806
4520.33054,0.02245
4522.25901,0.02806
4524.18747,0.02313
4526.11594,0.01233
4528.04441,0.00698
4529.97288,0.00227
4531.90135,-0.00216
4533.82982,0.00273
4535.75829,0.01364
4537.68676,0.02025
4539.61522,0.02147
4541.54369,0.02161
4543.47216,0.02123
4545.40063,0.01394
4547.32910,0.00543
4549.25757,0.00895
4551.18604,0.01865
4553.11450,0.02903
4555.04297,0.03660
4556.97144,0.03010
4558.89991,0.01911
4560.82838,0.02487
4562.75685,0.04012
4564.68532,0.04097
4566.61378,0.02726
4568.54225,0.01696
4570.47072,0.01416
4572.39919,0.01164
4574.32766,0.01056
4576.25613,0.01140
4578.18460,0.00559
4580.11307,-0.00103
4582.04153,0.00367
4583.97000,0.00812
4585.89847,0.00316
4587.82694,-0.00028
4589.75541,0.00205
4591.68388,0.00572
4593.61235,0.00986
4595.54081,0.01468
4597.46928,0.01666
4599.39775,0.00942
4601.32622,0.00044
4603.25469,0.00377
4605.18316,0.01422
4607.11163,0.02026
4609.04010,0.01903
4610.96856,0.01348
4612.89703,0.01030
4614.82550,0.00943
4616.75397,0.00876
4618.68244,0.00432
4620.61091,-0.00598
4622.53938,-0.00726
4624.46784,0.00621
4626.39631,0.01823
4628.32478,0.01972
4630.25325,0.01405
4632.18172,0.00670
4634.11019,0.00413
4636.03866,0.00697
4637.96713,0.01204
4639.89559,0.01711
4641.82406,0.01815
4643.75253,0.01523
4645.68100,0.01291
4647.60947,0.00971
4649.53794,0.00368
4651.46641,0.00310
4653.39487,0.01188
4655.32334,0.01998
4657.25181,0.01748
4659.18028,0.00879
4661.10875,0.00827
4663.03722,0.01279
4664.96569,0.00634
4666.89416,-0.00352
4668.82262,0.00550
4670.75109,0.02520
4672.67956,0.02405
4674.60803,0.00338
4676.53650,-0.00614
4678.46497,0.00216
4680.39344,0.00834
4682.32190,0.00726
4684.25037,0.00684
4686.17884,0.00578
4688.10731,0.00091
4690.03578,-0.00255
4691.96425,0.00324
4693.89272,0.01211
4695.82119,0.01626
4697.74965,0.01604
4699.67812,0.01021
4701.60659,0.00439
4703.53506,0.00365
4705.46353,0.00586
4707.39200,0.01095
4709.32047,0.01684
4711.24893,0.01648
4713.17740,0.00757
4715.10587,-0.00071
4717.03434,0.00053
4718.96281,0.00554
4720.89128,0.00753
4722.81975,0.00942
4724.74821,0.00758
4726.67668,0.00313
4728.60515,0.00355
4730.53362,0.00523
4732.46209,0.00424
4734.39056,-0.00103
4736.31903,-0.00666
4738.24750,-0.00686
4740.17596,-0.00313
4742.10443,0.00495
4744.03290,0.01177
4745.96137,0.00861
4747.88984,0.00031
4749.81831,-0.00340
4751.74678,0.00482
4753.67524,0.02373
4755.60371,0.03687
4757.53218,0.03414
4759.46065,0.02554
4761.38912,0.01953
4763.31759,0.01523
4765.24606,0.01067
4767.17453,0.00390
4769.10299,-0.00011
4771.03146,0.00433
4772.95993,0.00923
4774.88840,0.00755
4776.81687,0.00647
4778.74534,0.01052
4780.67381,0.01214
4782.60227,0.01386
4784.53074,0.02473
4786.45921,0.02957
4788.38768,0.01697
4790.31615,0.00733
4792.24462,0.00963
4794.17309,0.01123
4796.10156,0.01488
4798.03002,0.02375
4799.95849,0.02853
4801.88696,0.02563
4803.81543,0.01334
4805.74390,-0.00375
4807.67237,-0.01539
4809.60084,-0.01511
4811.52930,-0.00223
4813.45777,0.01129
4815.38624,0.01574
4817.31471,0.01395
4819.24318,0.00981
4821.17165,0.00708
4823.10012,0.00217
4825.02859,-0.00472
4826.95705,-0.00085
4828.88552,0.00659
4830.81399,0.00009
4832.74246,-0.01044
4834.67093,-0.00870
4836.59940,0.00027
4838.52787,0.00873
4840.45633,0.01520
4842.38480,0.01411
4844.31327,0.01183
4846.24174,0.01649
4848.17021,0.01346
4850.09868,0.00294
4852.02715,0.00450
4853.95562,0.00672
4855.88408,-0.00540
4857.81255,-0.01462
4859.74102,-0.00652
4861.66949,0.00672
4863.59796,0.00822
4865.52643,0.00643
4867.45490,0.01700
4869.38336,0.02377
4871.31183,0.01294
4873.24030,0.00561
4875.16877,0.00723
4877.09724,0.00552
4879.02571,0.00282
4880.95418,0.00040
4882.88265,0.00432
4884.81111,0.01201
4886.73958,0.00831
4888.66805,0.00247
4890.59652,0.00319
4892.52499,-0.00002
4894.45346,-0.00318
4896.38193,0.00395
4898.31039,0.00864
4900.23886,0.00666
4902.16733,0.01616
4904.09580,0.03301
4906.02427,0.04167
4907.95274,0.04274
4909.88121,0.03910
4911.80967,0.02765
4913.73814,0.01060
4915.66661,-0.00178
4917.59508,-0.00586
4919.52355,-0.00090
4921.45202,0.00968
4923.38049,0.01491
4925.30896,0.01449
4927.23742,0.01555
4929.16589,0.01433
4931.09436,0.00474
4933.02283,-0.00385
4934.95130,-0.00718
4936.87977,-0.01147
4938.80824,-0.01364
4940.73670,-0.01581
4942.66517,-0.02212
4944.59364,-0.02474
4946.52211,-0.02032
4948.45058,-0.01409
4950.37905,-0.00453
4952.30752,0.00798
4954.23599,0.00353
4956.16445,-0.02256
4958.09292,-0.04141
4960.02139,-0.03714
4961.94986,-0.02100
4963.87833,-0.00419
4965.80680,0.00794
4967.73527,0.01156
4969.66373,0.00921
4971.59220,0.01525
4973.52067,0.03271
4975.44914,0.03568
4977.37761,0.02050
4979.30608,0.01055
4981.23455,0.00762
4983.16302,0.00322
4985.09148,-0.00476
4987.01995,-0.00786
4988.94842,0.00001
4990.87689,0.00192
4992.80536,-0.00927
4994.73383,-0.01576
4996.66230,-0.00953
4998.59076,0.00037
5000.51923,0.00932
5002.44770,0.01139
5004.37617,0.00389
5006.30464,0.00637
5008.23311,0.01291
5010.16158,-0.00085
5012.09005,-0.01823
5014.01851,-0.01770
5015.94698,-0.00487
5017.87545,0.01072
5019.80392,0.02574
5021.73239,0.04249
5023.66086,0.05375
5025.58933,0.04631
5027.51779,0.03038
5029.44626,0.02063
5031.37473,0.01171
5033.30320,0.01025
5035.23167,0.02185
5037.16014,0.02294
5039.08861,0.00695
5041.01708,0.00271
5042.94554,0.01989
5044.87401,0.03557
5046.80248,0.03674
5048.73095,0.03055
5050.65942,0.02968
5052.58789,0.03137
5054.51636,0.02220
5056.44482,0.00707
5058.37329,-0.00491
5060.30176,-0.00667
5062.23023,0.00494
5064.15870,0.01412
5066.08717,0.01497
5068.01564,0.01636
5069.94410,0.01219
5071.87257,0.00615
5073.80104,0.01343
5075.72951,0.02272
5077.65798,0.02873
5079.58645,0.03307
5081.51492,0.02074
5083.44339,-0.00181
5085.37185,-0.01675
5087.30032,-0.02023
5089.22879,-0.01287
5091.15726,0.00643
5093.08573,0.02545
5095.01420,0.02560
5096.94267,0.01830
5098.87113,0.03182
5100.79960,0.06409
5102.72807,0.07039
5104.65654,0.03424
5106.58501,0.00424
5108.51348,0.00926
5110.44195,0.02679
5112.37042,0.03459
5114.29888,0.03368
5116.22735,0.03437
5118.15582,0.03837
5120.08429,0.03997
5122.01276,0.03472
5123.94123,0.02586
5125.86970,0.01952
5127.79816,0.02742
5129.72663,0.04786
5131.65510,0.05099
5133.58357,0.02759
5135.51204,0.00803
5137.44051,0.01245
5139.36898,0.02555
5141.29745,0.03302
5143.22591,0.03493
5145.15438,0.02463
5147.08285,0.01076
5149.01132,0.01513
5150.93979,0.02247
5152.86826,0.01412
5154.79673,0.01277
5156.72519,0.02931
5158.65366,0.04221
5160.58213,0.02994
5162.51060,-0.00115
5164.43907,-0.00856
5166.36754,0.01940
5168.29601,0.04505
5170.22448,0.04419
5172.15294,0.02542
5174.08141,0.01367
5176.00988,0.02013
5177.93835,0.02910
5179.86682,0.03597
5181.79529,0.05795
5183.72376,0.08135
5185.65222,0.07752
5187.58069,0.06009
5189.50916,0.05705
5191.43763,0.06395
5193.36610,0.06194
5195.29457,0.04863
5197.22304,0.03575
5199.15151,0.03003
5201.07997,0.03208
5203.00844,0.04146
5204.93691,0.04557
5206.86538,0.03704
5208.79385,0.03419
5210.72232,0.04653
5212.65079,0.05670
5214.57925,0.04404
5216.50772,0.01677
5218.43619,0.01047
5220.36466,0.03622
5222.29313,0.05940
5224.22160,0.06022
5226.15007,0.04767
5228.07854,0.03792
5230.00700,0.04036
5231.93547,0.05208
5233.86394,0.06796
5235.79241,0.07246
5237.72088,0.06575
5239.64935,0.07137
5241.57782,0.08433
5243.50628,0.08450
5245.43475,0.07625
5247.36322,0.07336
5249.29169,0.06662
5251.22016,0.04779
5253.14863,0.03113
5255.07710,0.02268
5257.00556,0.02161
5258.93403,0.03472
5260.86250,0.06061
5262.79097,0.07590
5264.71944,0.06590
5266.64791,0.05753
5268.57638,0.06004
5270.50485,0.05533
5272.43331,0.05608
5274.36178,0.06633
5276.29025,0.06658
5278.21872,0.06016
5280.14719,0.05440
5282.07566,0.05639
5284.00413,0.06271
5285.93259,0.04790
5287.86106,0.02950
5289.78953,0.04320
5291.71800,0.06520
5293.64647,0.06079
5295.57494,0.04458
5297.50341,0.04267
5299.43188,0.05520
5301.36034,0.05740
5303.28881,0.04887
5305.21728,0.05180
5307.14575,0.05692
5309.07422,0.04945
5311.00269,0.04395
5312.93116,0.04326
5314.85962,0.03903
5316.78809,0.03277
5318.71656,0.02685
5320.64503,0.03048
5322.57350,0.05009
5324.50197,0.07151
5326.43044,0.07448
5328.35891,0.06239
5330.28737,0.06531
5332.21584,0.08433
5334.14431,0.08335
5336.07278,0.05449
5338.00125,0.03472
5339.92972,0.04961
5341.85819,0.06347
5343.78665,0.04554
5345.71512,0.03471
5347.64359,0.05879
5349.57206,0.07701
5351.50053,0.07539
5353.42900,0.06073
5355.35747,0.04344
5357.28594,0.04858
5359.21440,0.05472
5361.14287,0.04060
5363.07134,0.04183
5364.99981,0.06278
5366.92828,0.06796
5368.85675,0.06381
5370.78522,0.06731
5372.71368,0.07267
5374.64215,0.07816
5376.57062,0.08493
5378.49909,0.08190
5380.42756,0.07312
5382.35603,0.06898
5384.28450,0.06635
5386.21297,0.05615
5388.14143,0.04279
5390.06990,0.03549
5391.99837,0.03632
5393.92684,0.04671
5395.85531,0.05037
5397.78378,0.03975
5399.71225,0.02526
5401.64071,0.00987
5403.56918,0.01040
5405.49765,0.03401
5407.42612,0.06064
5409.35459,0.07027
5411.28306,0.05042
5413.21153,0.01842
5415.13999,0.01104
5417.06846,0.02852
5418.99693,0.05006
5420.92540,0.06340
5422.85387,0.07165
5424.78234,0.08500
5426.71081,0.10355
5428.63928,0.11386
5430.56774,0.10100
5432.49621,0.07347
5434.42468,0.05539
5436.35315,0.05253
5438.28162,0.05049
5440.21009,0.05279
5442.13856,0.06345
5444.06702,0.07116
5445.99549,0.07658
5447.92396,0.08285
5449.85243,0.08694
5451.78090,0.09197
5453.70937,0.09836
5455.63784,0.09537
5457.56631,0.07692
5459.49477,0.06261
5461.42324,0.04505
5463.35171,0.00724
5465.28018,-0.00231
5467.20865,0.04031
5469.13712,0.07365
5471.06559,0.05365
5472.99405,0.01976
5474.92252,0.01829
5476.85099,0.05525
5478.77946,0.09985
5480.70793,0.11618
5482.63640,0.09919
5484.56487,0.07617
5486.49334,0.06154
5488.42180,0.05965
5490.35027,0.08038
5492.27874,0.10203
5494.20721,0.08876
5496.13568,0.06299
5498.06415,0.05629
5499.99262,0.06015
5501.92108,0.05778
5503.84955,0.05601
5505.77802,0.06289
5507.70649,0.07296
5509.63496,0.07580
5511.56343,0.06033
5513.49190,0.04043
5515.42037,0.03756
5517.34883,0.04906
5519.27730,0.06190
5521.20577,0.06225
5523.13424,0.06275
5525.06271,0.07828
5526.99118,0.09080
5528.91965,0.08592
5530.84811,0.06944
5532.77658,0.06216
5534.70505,0.06098
5536.63352,0.04234
5538.56199,0.02306
5540.49046,0.01712
5542.41893,0.01668
5544.34740,0.04208
5546.27586,0.07636
5548.20433,0.06447
5550.13280,0.03465
5552.06127,0.04357
5553.98974,0.06930
5555.91821,0.07636
5557.84668,0.07588
5559.77514,0.07774
5561.70361,0.07272
5563.63208,0.06313
5565.56055,0.06897
5567.48902,0.08369
5569.41749,0.07431
5571.34596,0.04644
5573.27443,0.04239
5575.20289,0.07607
5577.13136,0.10402
5579.05983,0.09974
5580.98830,0.08365
5582.91677,0.07594
5584.84524,0.06512
5586.77371,0.03228
5588.70217,0.00202
5590.63064,0.01353
5592.55911,0.05139
5594.48758,0.08174
5596.41605,0.09936
5598.34452,0.10885
5600.27299,0.09932
5602.20145,0.07250
5604.12992,0.05701
5606.05839,0.06515
5607.98686,0.08474
5609.91533,0.10364
5611.84380,0.10871
5613.77227,0.08083
5615.70074,0.03533
5617.62920,0.02848
5619.55767,0.05750
5621.48614,0.05504
5623.41461,0.03358
5625.34308,0.04624
5627.27155,0.06938
5629.20002,0.06452
5631.12848,0.03661
5633.05695,0.02200
5634.98542,0.05190
5636.91389,0.09562
5638.84236,0.10335
5640.77083,0.07158
5642.69930,0.04003
5644.62777,0.05104
5646.55623,0.09018
5648.48470,0.10854
5650.41317,0.08669
5652.34164,0.03941
5654.27011,0.02103
5656.19858,0.05728
5658.12705,0.10426
5660.05551,0.12174
5661.98398,0.11566
5663.91245,0.11309
5665.84092,0.10672
5667.76939,0.08748
5669.69786,0.07252
5671.62633,0.06369
5673.55480,0.07063
5675.48326,0.09870
5677.41173,0.10552
5679.34020,0.06825
5681.26867,0.03483
5683.19714,0.04632
5685.12561,0.07032
5687.05408,0.06757
5688.98254,0.05945
5690.91101,0.07075
5692.83948,0.09135
5694.76795,0.10228
5696.69642,0.08333
5698.62489,0.05499
5700.55336,0.05690
5702.48183,0.07976
5704.41029,0.09903
5706.33876,0.10782
5708.26723,0.10152
5710.19570,0.08090
5712.12417,0.06535
5714.05264,0.06403
5715.98111,0.06994
5717.90957,0.07697
5719.83804,0.07501
5721.76651,0.06510
5723.69498,0.04893
5725.62345,0.03387
5727.55192,0.03552
5729.48039,0.04437
5731.40886,0.05033
5733.33732,0.06162
5735.26579,0.07857
5737.19426,0.10081
5739.12273,0.12045
5741.05120,0.12250
5742.97967,0.12040
5744.90814,0.11512
5746.83660,0.07230
5748.76507,0.01517
5750.69354,0.02464
5752.62201,0.08233
5754.55048,0.10525
5756.47895,0.10775
5758.40742,0.13319
5760.33588,0.15600
5762.26435,0.11772
5764.19282,0.03638
5766.12129,0.00122
5768.04976,0.02048
5769.97823,0.05054
5771.90670,0.09246
5773.83517,0.11385
5775.76363,0.08482
5777.69210,0.06202
5779.62057,0.07568
5781.54904,0.08848
5783.47751,0.07768
5785.40598,0.05039
5787.33445,0.01986
5789.26291,0.01464
5791.19138,0.05168
5793.11985,0.07976
5795.04832,0.07449
5796.97679,0.08457
5798.90526,0.11499
5800.83373,0.12280
5802.76220,0.11211
5804.69066,0.09750
5806.61913,0.07692
5808.54760,0.08302
5810.47607,0.10612
5812.40454,0.10211
5814.33301,0.08069
5816.26148,0.06957
5818.18994,0.06669
5820.11841,0.04893
5822.04688,0.02374
5823.97535,0.02686
5825.90382,0.05878
5827.83229,0.07611
5829.76076,0.05784
5831.68923,0.05940
5833.61769,0.09406
5835.54616,0.06784
5837.47463,-0.00356
5839.40310,-0.00125
5841.33157,0.04968
5843.26004,0.08520
5845.18851,0.13406
5847.11697,0.19299
5849.04544,0.20143
5850.97391,0.13745
5852.90238,0.08737
5854.83085,0.10550
5856.75932,0.13105
5858.68779,0.12252
5860.61626,0.10765
5862.54472,0.08747
5864.47319,0.06433
5866.40166,0.05424
5868.33013,0.06018
5870.25860,0.09177
5872.18707,0.11313
5874.11554,0.09850
5876.04400,0.09146
5877.97247,0.11353
5879.90094,0.12421
5881.82941,0.10137
5883.75788,0.06147
5885.68635,0.01871
5887.61482,0.00910
5889.54329,0.04031
5891.47175,0.06713
5893.40022,0.07127
5895.32869,0.04492
5897.25716,0.00726
5899.18563,0.00394
5901.11410,0.03160
5903.04257,0.06292
5904.97103,0.07880
5906.89950,0.08039
5908.82797,0.09518
5910.75644,0.12417
5912.68491,0.15125
5914.61338,0.16952
5916.54185,0.15240
5918.47032,0.08328
5920.39878,0.00765
5922.32725,-0.01574
5924.25572,0.00751
5926.18419,0.05263
5928.11266,0.09689
5930.04113,0.09245
5931.96960,0.06216
5933.89806,0.08107
5935.82653,0.11836
5937.75500,0.12300
5939.68347,0.11300
5941.61194,0.07918
5943.54041,0.02917
5945.46888,0.01031
5947.39734,0.02547
5949.32581,0.02806
5951.25428,0.01003
5953.18275,0.00499
5955.11122,0.02253
5957.03969,0.08537
5958.96816,0.14888
5960.89663,0.12325
5962.82509,0.05955
5964.75356,0.03242
5966.68203,0.02747
5968.61050,0.02588
5970.53897,0.04515
5972.46744,0.07438
5974.39591,0.08060
5976.32437,0.08786
5978.25284,0.10106
5980.18131,0.07329
5982.10978,0.03909
5984.03825,0.05970
5985.96672,0.07989
5987.89519,0.04271
5989.82366,0.01435
5991.75212,0.05237
5993.68059,0.09468
5995.60906,0.10011
5997.53753,0.10820
5999.46600,0.11565
6001.39447,0.09883
6003.32294,0.05090
6005.25140,0.01833
6007.17987,0.06195
6009.10834,0.12283
6011.03681,0.11523
6012.96528,0.05724
6014.89375,0.02676
6016.82222,0.05509
6018.75069,0.10668
6020.67915,0.14886
6022.60762,0.15931
6024.53609,0.13863
6026.46456,0.13292
6028.39303,0.15114
6030.32150,0.13832
6032.24997,0.08121
6034.17843,0.04608
6036.10690,0.05614
6038.03537,0.06120
6039.96384,0.05128
6041.89231,0.04460
6043.82078,0.05166
6045.74925,0.05893
6047.67772,0.04274
6049.60618,0.02347
6051.53465,0.03136
6053.46312,0.05929
6055.39159,0.08684
6057.32006,0.09150
6059.24853,0.06032
6061.17700,0.02976
6063.10546,0.04314
6065.03393,0.06167
6066.96240,0.07253
6068.89087,0.10299
6070.81934,0.13107
6072.74781,0.15969
6074.67628,0.19692
6076.60475,0.20668
6078.53321,0.19508
6080.46168,0.18502
6082.39015,0.17300
6084.31862,0.16208
6086.24709,0.13246
6088.17556,0.07808
6090.10403,0.04817
6092.03249,0.05357
6093.96096,0.07506
6095.88943,0.11148
6097.81790,0.15101
6099.74637,0.16049
6101.67484,0.11779
6103.60331,0.06576
6105.53177,0.05680
6107.46024,0.07628
6109.38871,0.09313
6111.31718,0.10491
6113.24565,0.11156
6115.17412,0.09539
6117.10259,0.03289
6119.03106,-0.02508
6120.95952,-0.00461
6122.88799,0.03972
6124.81646,0.07383
6126.74493,0.12536
6128.67340,0.15026
6130.60187,0.10456
6132.53034,0.03685
6134.45880,0.00827
6136.38727,0.03521
6138.31574,0.08084
6140.24421,0.10188
6142.17268,0.09396
6144.10115,0.06006
6146.02962,0.01754
6147.95809,0.02032
6149.88655,0.05947
6151.81502,0.04473
6153.74349,-0.00679
6155.67196,0.00003
6157.60043,0.03218
6159.52890,0.03636
6161.45737,0.04456
6163.38583,0.06405
6165.31430,0.05457
6167.24277,0.04358
6169.17124,0.05605
6171.09971,0.04435
6173.02818,0.00547
6174.95665,-0.01456
6176.88512,0.00278
6178.81358,0.04788
6180.74205,0.07175
6182.67052,0.05854
6184.59899,0.03750
6186.52746,0.02166
6188.45593,0.04168
6190.38440,0.09008
6192.31286,0.07973
6194.24133,-0.01474
6196.16980,-0.10613
6198.09827,-0.13006
6200.02674,-0.11407
6201.95521,-0.06265
6203.88368,0.01797
6205.81215,0.04830
6207.74061,0.03282
6209.66908,0.05308
6211.59755,0.08446
6213.52602,0.08742
6215.45449,0.11066
6217.38296,0.12145
6219.31143,0.07485
6221.23989,0.04049
6223.16836,0.07029
6225.09683,0.11059
6227.02530,0.10259
6228.95377,0.07896
6230.88224,0.07322
6232.81071,0.07599
6234.73918,0.08096
6236.66764,0.09034
6238.59611,0.09767
6240.52458,0.09793
6242.45305,0.10522
6244.38152,0.10714
6246.30999,0.07842
6248.23846,0.03803
6250.16692,0.00842
6252.09539,0.01355
6254.02386,0.06939
6255.95233,0.10639
6257.88080,0.07132
6259.80927,0.02113
6261.73774,-0.00660
6263.66621,-0.01623
6265.59467,0.00160
6267.52314,0.04840
6269.45161,0.08220
6271.38008,0.08847
6273.30855,0.10439
6275.23702,0.13331
6277.16549,0.14287
6279.09395,0.09473
6281.02242,0.00969
6282.95089,-0.03421
6284.87936,-0.02774
6286.80783,0.00773
6288.73630,0.06255
6290.66477,0.08689
6292.59323,0.06707
6294.52170,0.05214
6296.45017,0.06142
6298.37864,0.07675
6300.30711,0.07210
6302.23558,0.04522
6304.16405,0.03275
6306.09252,0.05705
6308.02098,0.09816
6309.94945,0.11908
6311.87792,0.10928
6313.80639,0.10006
6315.73486,0.12233
6317.66333,0.14550
6319.59180,0.15760
6321.52026,0.18531
6323.44873,0.19420
6325.37720,0.16628
6327.30567,0.14368
6329.23414,0.14260
6331.16261,0.11698
6333.09108,0.06334
6335.01955,0.05139
6336.94801,0.09987
6338.87648,0.15679
6340.80495,0.15028
6342.73342,0.08202
6344.66189,0.02742
6346.59036,0.03693
6348.51883,0.07010
6350.44729,0.04808
6352.37576,0.00374
6354.30423,0.02374
6356.23270,0.08529
6358.16117,0.12261
6360.08964,0.13097
6362.01811,0.15641
6363.94658,0.19146
6365.87504,0.15096
6367.80351,0.05999
6369.73198,0.04386
6371.66045,0.06792
6373.58892,0.09360
6375.51739,0.13757
6377.44586,0.12502
6379.37432,0.03233
6381.30279,-0.06028
6383.23126,-0.05338
6385.15973,0.01864
6387.08820,0.03286
6389.01667,0.02978
6390.94514,0.02544
6392.87361,-0.05191
6394.80207,-0.13856
6396.73054,-0.14282
6398.65901,-0.07710
6400.58748,0.03229
6402.51595,0.10196
6404.44442,0.10345
6406.37289,0.10310
6408.30135,0.09415
6410.22982,0.07861
6412.15829,0.11922
6414.08676,0.16344
6416.01523,0.15962
6417.94370,0.17609
6419.87217,0.22878
6421.80064,0.22262
6423.72910,0.13950
6425.65757,0.03966
6427.58604,-0.02079
6429.51451,-0.02958
6431.44298,-0.00809
6433.37145,0.00619
6435.29992,0.01538
6437.22838,0.05961
6439.15685,0.09942
6441.08532,0.07916
6443.01379,0.03567
6444.94226,0.04377
6446.87073,0.11384
6448.79920,0.16788
6450.72766,0.16633
6452.65613,0.13448
6454.58460,0.09636
6456.51307,0.10129
6458.44154,0.15966
6460.37001,0.17429
6462.29848,0.09085
6464.22695,-0.01508
6466.15541,-0.03308
6468.08388,0.07225
6470.01235,0.19010
6471.94082,0.20648
6473.86929,0.16422
6475.79776,0.09965
6477.72623,0.04464
6479.65469,0.03806
6481.58316,0.04021
6483.51163,0.06865
6485.44010,0.13097
6487.36857,0.12747
6489.29704,0.04694
6491.22551,-0.03053
6493.15398,-0.08154
6495.08244,-0.10146
6497.01091,-0.08810
6498.93938,-0.02243
6500.86785,0.08831
6502.79632,0.11136
6504.72479,0.03950
6506.65326,0.03468
6508.58172,0.08800
6510.51019,0.06524
6512.43866,-0.00409
6514.36713,-0.03177
6516.29560,-0.00681
6518.22407,0.05006
6520.15254,0.07436
6522.08101,0.05366
6524.00947,0.01502
6525.93794,0.00768
6527.86641,0.08961
6529.79488,0.19684
6531.72335,0.22308
6533.65182,0.16132
6535.58029,0.05110
6537.50875,-0.05694
6539.43722,-0.05993
6541.36569,0.03711
6543.29416,0.06091
6545.22263,-0.02711
6547.15110,-0.09203
6549.07957,-0.06582
6551.00804,0.02652
6552.93650,0.08381
6554.86497,0.08523
6556.79344,0.12480
6558.72191,0.18435
6560.65038,0.15560
6562.57885,0.07792
6564.50732,0.04317
6566.43578,0.01941
6568.36425,-0.00386
6570.29272,0.06157
6572.22119,0.15652
6574.14966,0.16542
6576.07813,0.14334
6578.00660,0.09727
6579.93507,-0.01525
6581.86353,-0.06996
6583.79200,0.00721
6585.72047,0.07756
6587.64894,0.08725
6589.57741,0.08118
6591.50588,0.06593
6593.43435,0.06523
6595.36281,0.04724
6597.29128,-0.01814
6599.21975,-0.03583
6601.14822,-0.00248
6603.07669,-0.02333
6605.00516,-0.07003
6606.93363,-0.05207
6608.86210,0.01828
6610.79056,0.06013
6612.71903,0.09637
6614.64750,0.16033
6616.57597,0.15176
6618.50444,0.06373
6620.43291,0.00087
6622.36138,-0.02255
6624.28984,-0.01049
6626.21831,0.04980
6628.14678,0.12285
6630.07525,0.11602
6632.00372,0.03667
6633.93219,-0.01518
6635.86066,-0.01614
6637.78912,0.04498
6639.71759,0.13558
6641.64606,0.14635
6643.57453,0.05834
6645.50300,-0.04654
6647.43147,-0.08830
6649.35994,-0.05416
6651.28841,-0.04471
6653.21687,-0.08213
6655.14534,-0.06287
6657.07381,0.00762
6659.00228,0.04830
6660.93075,0.09765
6662.85922,0.13030
6664.78769,0.07232
6666.71615,-0.01680
6668.64462,-0.02893
6670.57309,0.05034
6672.50156,0.11991
6674.43003,0.09543
6676.35850,0.04417
6678.28697,0.00969
6680.21544,-0.02454
6682.14390,-0.01337
6684.07237,0.04743
6686.00084,0.08265
6687.92931,0.09018
6689.85778,0.12739
6691.78625,0.17850
6693.71472,0.19854
6695.64318,0.20747
6697.57165,0.21816
6699.50012,0.15739
6701.42859,0.01023
6703.35706,-0.05615
6705.28553,0.06673
6707.21400,0.20700
6709.14247,0.18426
6711.07093,0.08401
6712.99940,0.02988
6714.92787,0.02249
6716.85634,0.02063
6718.78481,0.05195
6720.71328,0.11859
6722.64175,0.10907
6724.57021,0.01757
6726.49868,-0.06742
6728.42715,-0.11324
6730.35562,-0.11543
6732.28409,-0.05385
6734.21256,0.07942
6736.14103,0.18150
6738.06950,0.14684
6739.99796,0.03476
6741.92643,-0.05702
6743.85490,-0.12172
6745.78337,-0.15142
6747.71184,-0.10944
6749.64031,-0.06152
6751.56878,-0.07233
6753.49724,-0.07309
6755.42571,-0.01797
6757.35418,0.03184
6759.28265,0.04836
6761.21112,0.05035
6763.13959,0.01845
6765.06806,-0.04661
6766.99653,-0.05472
6768.92499,0.03750
6770.85346,0.12226
6772.78193,0.12254
6774.71040,0.11045
6776.63887,0.13610
6778.56734,0.11449
6780.49581,0.06187
6782.42427,0.07951
6784.35274,0.10187
6786.28121,0.08017
6788.20968,0.09839
6790.13815,0.11933
6792.06662,0.08764
6793.99509,0.12033
6795.92355,0.19667
6797.85202,0.16358
6799.78049,0.02872
6801.70896,-0.05362
6803.63743,-0.03082
6805.56590,0.00981
6807.49437,0.07408
6809.42284,0.14481
6811.35130,0.17538
6813.27977,0.16811
6815.20824,0.13784
6817.13671,0.11229
6819.06518,0.11376
6820.99365,0.16946
6822.92212,0.23557
6824.85058,0.17298
6826.77905,0.01622
6828.70752,-0.11716
6830.63599,-0.15347
6832.56446,-0.05462
6834.49293,0.14625
6836.42140,0.27391
6838.34987,0.18958
6840.27833,0.04524
6842.20680,-0.00169
6844.13527,0.02730
6846.06374,0.06044
6847.99221,0.08739
6849.92068,0.10153
6851.84915,0.08741
6853.77761,0.07960
6855.70608,0.07851
6857.63455,0.02517
6859.56302,-0.06379
6861.49149,-0.03772
6863.41996,0.17239
6865.34843,0.32165
6867.27690,0.22897
6869.20536,0.03638
6871.13383,-0.08474
6873.06230,-0.11678
6874.99077,-0.12273
6876.91924,-0.10247
6878.84771,-0.01401
6880.77618,0.09111
6882.70464,0.12120
6884.63311,0.10424
6886.56158,0.08711
6888.49005,0.07680
6890.41852,0.10545
6892.34699,0.14327
6894.27546,0.10810
6896.20393,-0.00220
6898.13239,-0.07278
6900.06086,-0.02127
6901.98933,0.06245
6903.91780,0.06645
6905.84627,-0.03554
6907.77474,-0.04591
6909.70321,0.09314
6911.63167,0.18654
6913.56014,0.19497
6915.48861,0.18383
6917.41708,0.15892
6919.34555,0.16422
6921.27402,0.13561
6923.20249,0.02664
6925.13096,-0.02508
6927.05942,-0.00854
6928.98789,0.03125
6930.91636,0.11100
6932.84483,0.15361
6934.77330,0.10597
6936.70177,0.06113
6938.63024,0.09593
6940.55870,0.15014
6942.48717,0.12288
6944.41564,0.10301
6946.34411,0.16896
6948.27258,0.26762
6950.20105,0.27492
6952.12952,0.17296
6954.05799,0.12544
6955.98645,0.22049
6957.91492,0.27910
6959.84339,0.22834
6961.77186,0.15161
6963.70033,0.07641
6965.62880,-0.01348
6967.55727,-0.05120
6969.48573,0.02317
6971.41420,0.14523
6973.34267,0.25823
6975.27114,0.26552
6977.19961,0.18090
6979.12808,0.19509
6981.05655,0.25202
6982.98501,0.17374
6984.91348,0.06512
6986.84195,0.06222
6988.77042,0.03598
6990.69889,-0.00599
6992.62736,0.03460
6994.55583,0.04432
6996.48430,-0.09073
6998.41276,-0.22245
7000.34123,-0.16408
7002.26970,-0.02077
7004.19817,0.05963
7006.12664,0.06204
7008.05511,0.01899
7009.98358,-0.07053
7011.91204,-0.13224
7013.84051,-0.03987
7015.76898,0.08941
7017.69745,0.16146
7019.62592,0.26118
7021.55439,0.31307
7023.48286,0.24476
7025.41133,0.17609
7027.33979,0.13383
7029.26826,0.04192
7031.19673,-0.06561
7033.12520,-0.12759
7035.05367,-0.14422
7036.98214,-0.16596
7038.91061,-0.15983
7040.83907,-0.10144
7042.76754,-0.04410
7044.69601,-0.00693
7046.62448,-0.01290
7048.55295,-0.07484
7050.48142,-0.04412
7052.40989,0.13296
7054.33836,0.24659
7056.26682,0.20718
7058.19529,0.18265
7060.12376,0.16733
7062.05223,0.07521
7063.98070,0.00240
7065.90917,0.00970
7067.83764,0.05442
7069.76610,0.11468
7071.69457,0.10202
7073.62304,-0.05141
7075.55151,-0.19876
7077.47998,-0.17117
7079.40845,-0.00463
7081.33692,0.12393
7083.26539,0.21876
7085.19385,0.29953
7087.12232,0.18099
7089.05079,-0.08312
7090.97926,-0.14632
7092.90773,-0.01162
7094.83620,0.12778
7096.76467,0.18593
7098.69313,0.10409
7100.62160,-0.02164
7102.55007,-0.07928
7104.47854,-0.12084
7106.40701,-0.20057
7108.33548,-0.20852
7110.26395,-0.06508
7112.19242,0.06361
7114.12088,0.11092
7116.04935,0.17623
7117.97782,0.14199
7119.90629,0.02805
7121.83476,0.05715
7123.76323,0.07042
7125.69170,-0.01990
7127.62016,-0.06274
7129.54863,-0.06458
7131.47710,-0.07429
7133.40557,-0.07355
7135.33404,0.00710
7137.26251,0.15177
7139.19098,0.20940
7141.11944,0.15389
7143.04791,0.09043
7144.97638,-0.02587
7146.90485,-0.06597
7148.83332,0.06410
7150.76179,0.17775
7152.69026,0.20422
7154.61873,0.16033
7156.54719,0.14474
7158.47566,0.16782
7160.40413,0.12210
7162.33260,0.02245
7164.26107,0.00914
7166.18954,0.06092
7168.11801,0.14074
7170.04647,0.30103
7171.97494,0.36734
7173.90341,0.22932
7175.83188,0.09612
7177.76035,0.09571
7179.68882,0.11939
7181.61729,0.10003
7183.54576,0.05832
7185.47422,0.07149
7187.40269,0.15205
7189.33116,0.19420
7191.25963,0.18760
7193.18810,0.25026
7195.11657,0.31175
7197.04504,0.23483
7198.97350,0.11688
7200.90197,0.06747
7202.83044,0.01193
7204.75891,-0.04669
7206.68738,0.04822
7208.61585,0.14322
7210.54432,0.14823
7212.47279,0.20707
7214.40125,0.28899
7216.32972,0.17577
7218.25819,-0.10894
7220.18666,-0.18856
7222.11513,-0.04012
7224.04360,0.15662
7225.97207,0.22841
7227.90053,0.10573
7229.82900,-0.08238
7231.75747,-0.15101
7233.68594,-0.00024
7235.61441,0.21239
7237.54288,0.35370
7239.47135,0.45179
7241.39982,0.48902
7243.32828,0.32780
7245.25675,0.13169
7247.18522,0.06654
7249.11369,0.04576
7251.04216,-0.05506
7252.97063,-0.26044
7254.89910,-0.31389
7256.82756,-0.20814
7258.75603,-0.07574
7260.68450,0.06199
7262.61297,0.16280
7264.54144,0.16722
7266.46991,0.07088
7268.39838,-0.00060
7270.32685,-0.04461
7272.25531,-0.16361
7274.18378,-0.17808
7276.11225,-0.06546
7278.04072,0.03518
7279.96919,0.18694
7281.89766,0.29392
7283.82613,0.24141
7285.75459,0.12901
7287.68306,-0.01152
7289.61153,-0.10523
7291.54000,-0.02979
7293.46847,0.16322
7295.39694,0.23990
7297.32541,0.12963
7299.25387,0.06590
7301.18234,0.04928
7303.11081,-0.01126
7305.03928,-0.02049
7306.96775,0.03119
7308.89622,0.07328
7310.82469,0.06217
7312.75316,0.04439
7314.68162,0.08119
7316.61009,0.15725
7318.53856,0.15425
7320.46703,0.07053
7322.39550,-0.00583
7324.32397,-0.05385
7326.25244,-0.06725
7328.18090,-0.05015
7330.10937,-0.00686
7332.03784,0.01829
7333.96631,0.03764
7335.89478,0.08058
7337.82325,0.10759
7339.75172,0.17315
7341.68019,0.25895
7343.60865,0.16262
7345.53712,0.02231
7347.46559,0.12486
7349.39406,0.34114
7351.32253,0.34611
7353.25100,0.17038
7355.17947,-0.05044
7357.10793,-0.26685
7359.03640,-0.35620
7360.96487,-0.33223
7362.89334,-0.24183
7364.82181,-0.09816
7366.75028,-0.11910
7368.67875,-0.30343
7370.60722,-0.30509
7372.53568,-0.11382
7374.46415,0.00820
7376.39262,0.00441
7378.32109,0.03722
7380.24956,0.06754
7382.17803,0.08018
7384.10650,0.20456
7386.03496,0.47280
7387.96343,0.62747
7389.89190,0.51578
7391.82037,0.24532
7393.74884,-0.00078
7395.67731,0.04204
7397.60578,0.27980
7399.53425,0.32211
7401.46271,0.15162
7403.39118,0.10351
7405.31965,0.25245
7407.24812,0.24846
7409.17659,0.07843
7411.10506,-0.02985
7413.03353,-0.02376
7414.96199,-0.01733
7416.89046,-0.03860
7418.81893,-0.01203
7420.74740,0.07076
7422.67587,0.12692
7424.60434,0.10735
7426.53281,-0.02784
7428.46128,-0.29514
7430.38974,-0.42904
7432.31821,-0.18526
7434.24668,0.11241
7436.17515,0.21605
7438.10362,0.15962
7440.03209,0.13712
7441.96056,0.18905
7443.88902,0.18951
7445.81749,0.16982
7447.74596,0.15213
7449.67443,0.09580
7451.60290,0.00430
7453.53137,-0.07623
7455.45984,-0.03236
7457.38831,0.10439
7459.31677,0.21332
7461.24524,0.24853
7463.17371,0.31404
7465.10218,0.38864
7467.03065,0.28438
7468.95912,0.09999
7470.88759,0.01605
7472.81605,-0.03471
7474.74452,-0.08343
7476.67299,-0.04511
7478.60146,0.00590
7480.52993,0.04905
7482.45840,0.20344
7484.38687,0.29793
7486.31533,0.28265
7488.24380,0.27110
7490.17227,0.20649
7492.10074,0.13593
7494.02921,0.19956
7495.95768,0.30214
7497.88615,0.32695
