399.19301,1.20888
401.12148,0.51651
403.04995,0.52732
404.97842,0.39853
406.90689,0.30238
408.83536,0.24308
410.76382,0.20412
412.69229,0.20736
414.62076,0.23148
416.54923,0.20615
418.47770,0.07365
420.40617,-0.03272
422.33464,-0.04094
424.26311,-0.04636
426.19157,-0.09224
428.12004,-0.16616
430.04851,-0.17810
431.97698,-0.05948
433.90545,0.09938
435.83392,0.18779
437.76239,0.20288
439.69085,0.17966
441.61932,0.07898
443.54779,-0.04296
445.47626,-0.07403
447.40473,-0.07895
449.33320,-0.03249
451.26167,0.08467
453.19013,0.14283
455.11860,0.11541
457.04707,0.04826
458.97554,-0.00614
460.90401,0.01538
462.83248,0.03119
464.76095,0.01148
466.68942,0.02691
468.61788,0.06629
470.54635,0.10232
472.47482,0.22433
474.40329,0.37902
476.33176,0.31110
478.26023,0.19601
480.18870,0.13961
482.11716,0.12133
484.04563,0.10432
485.97410,0.10377
487.90257,0.15558
489.83104,0.22132
491.75951,0.23956
493.68798,0.19708
495.61645,0.11365
497.54491,0.02975
499.47338,0.00832
501.40185,0.03772
503.33032,0.05088
505.25879,0.05868
507.18726,0.08962
509.11573,0.10434
511.04419,0.11623
512.97266,0.15904
514.90113,0.18304
516.82960,0.15335
518.75807,0.10633
520.68654,0.06438
522.61501,0.04055
524.54348,0.06331
526.47194,0.10710
528.40041,0.12904
530.32888,0.13442
532.25735,0.12655
534.18582,0.10174
536.11429,0.07744
538.04276,0.09383
539.97122,0.12231
541.89969,0.11778
543.82816,0.10268
545.75663,0.07102
547.68510,0.02949
549.61357,0.02856
551.54204,0.02979
553.47051,0.00793
555.39897,0.03171
557.32744,0.09386
559.25591,0.12895
561.18438,0.13115
563.11285,0.11353
565.04132,0.10557
566.96979,0.13397
568.89825,0.16337
570.82672,0.16271
572.75519,0.14293
574.68366,0.12537
576.61213,0.12697
578.54060,0.13207
580.46907,0.13731
582.39754,0.15849
584.32600,0.17004
586.25447,0.13789
588.18294,0.09100
590.11141,0.08611
592.03988,0.10829
593.96835,0.12672
595.89682,0.15050
597.82528,0.16880
599.75375,0.18154
601.68222,0.18349
603.61069,0.15574
605.53916,0.12021
607.46763,0.10218
609.39610,0.10675
611.32456,0.11565
613.25303,0.09813
615.18150,0.07608
617.10997,0.08957
619.03844,0.10354
620.96691,0.09116
622.89538,0.09698
624.82385,0.12337
626.75231,0.12955
628.68078,0.11986
630.60925,0.11930
632.53772,0.11685
634.46619,0.10880
636.39466,0.11163
638.32313,0.11749
640.25159,0.12769
642.18006,0.14199
644.10853,0.13732
646.03700,0.12234
647.96547,0.11920
649.89394,0.11997
651.82241,0.10146
653.75088,0.07703
655.67934,0.09562
657.60781,0.14826
659.53628,0.17053
661.46475,0.15585
663.39322,0.14404
665.32169,0.14047
667.25016,0.13433
669.17862,0.13611
671.10709,0.14539
673.03556,0.15180
674.96403,0.15809
676.89250,0.16065
678.82097,0.16147
680.74944,0.16566
682.67791,0.17201
684.60637,0.17969
686.53484,0.18392
688.46331,0.18239
690.39178,0.17535
692.32025,0.15936
694.24872,0.14225
696.17719,0.13144
698.10565,0.12410
700.03412,0.12279
701.96259,0.13140
703.89106,0.14998
705.81953,0.16869
707.74800,0.17506
709.67647,0.17231
711.60494,0.16518
713.53340,0.15246
715.46187,0.13115
717.39034,0.11287
719.31881,0.11982
721.24728,0.14242
723.17575,0.15903
725.10422,0.16750
727.03268,0.16523
728.96115,0.15412
730.88962,0.14063
732.81809,0.12941
734.74656,0.13348
736.67503,0.15158
738.60350,0.15938
740.53197,0.14833
742.46043,0.13350
744.38890,0.12641
746.31737,0.12817
748.24584,0.13344
750.17431,0.13689
752.10278,0.14256
754.03125,0.15610
755.95971,0.16989
757.88818,0.17125
759.81665,0.16112
761.74512,0.15295
763.67359,0.15466
765.60206,0.15959
767.53053,0.15922
769.45900,0.15222
771.38746,0.14437
773.31593,0.13878
775.24440,0.12682
777.17287,0.11465
779.10134,0.12268
781.02981,0.14079
782.95828,0.14378
784.88674,0.13651
786.81521,0.13348
788.74368,0.13320
790.67215,0.13941
792.60062,0.15124
794.52909,0.15016
796.45756,0.13384
798.38602,0.12569
800.31449,0.13691
802.24296,0.14573
804.17143,0.13358
806.09990,0.11830
808.02837,0.11574
809.95684,0.11541
811.88531,0.11709
813.81377,0.12608
815.74224,0.12734
817.67071,0.11933
819.59918,0.12024
821.52765,0.12937
823.45612,0.13334
825.38459,0.13439
827.31305,0.13841
829.24152,0.14209
831.16999,0.14409
833.09846,0.14486
835.02693,0.14525
836.95540,0.14436
838.88387,0.14276
840.81234,0.14632
842.74080,0.15185
844.66927,0.15091
846.59774,0.14534
848.52621,0.13979
850.45468,0.13531
852.38315,0.13304
854.31162,0.13245
856.24008,0.13144
858.16855,0.13024
860.09702,0.13343
862.02549,0.14095
863.95396,0.14354
865.88243,0.14506
867.81090,0.15124
869.73937,0.14679
871.66783,0.13440
873.59630,0.13415
875.52477,0.14429
877.45324,0.15482
879.38171,0.15760
881.31018,0.14932
883.23865,0.14036
885.16711,0.14157
887.09558,0.14872
889.02405,0.14729
890.95252,0.13593
892.88099,0.12677
894.80946,0.12504
896.73793,0.12852
898.66640,0.13657
900.59486,0.14681
902.52333,0.15356
904.45180,0.15224
906.38027,0.14179
908.30874,0.13392
910.23721,0.14227
912.16568,0.15728
914.09414,0.15879
916.02261,0.14993
917.95108,0.14832
919.87955,0.15150
921.80802,0.14950
923.73649,0.14675
925.66496,0.15038
927.59343,0.15635
929.52189,0.15338
931.45036,0.14646
933.37883,0.14586
935.30730,0.14686
937.23577,0.14786
939.16424,0.14907
941.09271,0.14800
943.02117,0.14935
944.94964,0.15174
946.87811,0.14615
948.80658,0.13426
950.73505,0.12834
952.66352,0.13399
954.59199,0.14107
956.52045,0.14470
958.44892,0.15039
960.37739,0.15396
962.30586,0.15570
964.23433,0.16013
966.16280,0.16302
968.09127,0.16290
970.01974,0.15517
971.94820,0.13833
973.87667,0.13319
975.80514,0.14687
977.73361,0.15428
979.66208,0.15042
981.59055,0.15446
983.51902,0.16127
985.44748,0.15726
987.37595,0.15100
989.30442,0.14772
991.23289,0.14162
993.16136,0.13766
995.08983,0.13977
997.01830,0.14015
998.94677,0.13726
1000.87523,0.13708
1002.80370,0.13952
1004.73217,0.14166
1006.66064,0.14488
1008.58911,0.14981
1010.51758,0.15437
1012.44605,0.15759
1014.37451,0.15882
1016.30298,0.15499
1018.23145,0.14772
1020.15992,0.14179
1022.08839,0.13719
1024.01686,0.13767
1025.94533,0.14451
1027.87380,0.14676
1029.80226,0.14071
1031.73073,0.13943
1033.65920,0.14738
1035.58767,0.15534
1037.51614,0.16131
1039.44461,0.16706
1041.37308,0.16847
1043.30154,0.16279
1045.23001,0.15461
1047.15848,0.14619
1049.08695,0.13589
1051.01542,0.13424
1052.94389,0.14778
1054.87236,0.15920
1056.80083,0.15729
1058.72929,0.15679
1060.65776,0.16774
1062.58623,0.17703
1064.51470,0.17641
1066.44317,0.17324
1068.37164,0.16729
1070.30011,0.15600
1072.22857,0.15370
1074.15704,0.16428
1076.08551,0.17118
1078.01398,0.17141
1079.94245,0.16837
1081.87092,0.16173
1083.79939,0.15791
1085.72786,0.15737
1087.65632,0.15780
1089.58479,0.16294
1091.51326,0.16965
1093.44173,0.17569
1095.37020,0.18062
1097.29867,0.17616
1099.22714,0.16472
1101.15560,0.15804
1103.08407,0.16487
1105.01254,0.17888
1106.94101,0.17901
1108.86948,0.16818
1110.79795,0.16395
1112.72642,0.16544
1114.65489,0.16520
1116.58335,0.16239
1118.51182,0.15824
1120.44029,0.15119
1122.36876,0.14577
1124.29723,0.15058
1126.22570,0.16131
1128.15417,0.16708
1130.08263,0.16775
1132.01110,0.16862
1133.93957,0.16932
1135.86804,0.16819
1137.79651,0.16727
1139.72498,0.16523
1141.65345,0.16115
1143.58191,0.16068
1145.51038,0.16238
1147.43885,0.16087
1149.36732,0.15818
1151.29579,0.15965
1153.22426,0.16639
1155.15273,0.16975
1157.08120,0.16822
1159.00966,0.16999
1160.93813,0.16909
1162.86660,0.16020
1164.79507,0.15372
1166.72354,0.15430
1168.65201,0.15758
1170.58048,0.15898
1172.50894,0.15781
1174.43741,0.16021
1176.36588,0.16638
1178.29435,0.16970
1180.22282,0.17200
1182.15129,0.17637
1184.07976,0.17776
1186.00823,0.17271
1187.93669,0.16568
1189.86516,0.16383
1191.79363,0.16680
1193.72210,0.16985
1195.65057,0.17048
1197.57904,0.16591
1199.50751,0.16056
1201.43597,0.16314
1203.36444,0.16993
1205.29291,0.17156
1207.22138,0.16935
1209.14985,0.16701
1211.07832,0.16309
1213.00679,0.16245
1214.93526,0.16797
1216.86372,0.17134
1218.79219,0.16993
1220.72066,0.16921
1222.64913,0.16976
1224.57760,0.16955
1226.50607,0.16832
1228.43454,0.16657
1230.36300,0.16594
1232.29147,0.16562
1234.21994,0.16640
1236.14841,0.16954
1238.07688,0.16890
1240.00535,0.16453
1241.93382,0.16331
1243.86229,0.16475
1245.79075,0.16712
1247.71922,0.17025
1249.64769,0.17171
1251.57616,0.16934
1253.50463,0.16509
1255.43310,0.16376
1257.36157,0.16468
1259.29003,0.16511
1261.21850,0.16592
1263.14697,0.16819
1265.07544,0.17260
1267.00391,0.17543
1268.93238,0.17377
1270.86085,0.17243
1272.78932,0.17363
1274.71778,0.17536
1276.64625,0.17675
1278.57472,0.17699
1280.50319,0.17420
1282.43166,0.17000
1284.36013,0.16843
1286.28860,0.16781
1288.21706,0.16851
1290.14553,0.17414
1292.07400,0.17916
1294.00247,0.17819
1295.93094,0.17410
1297.85941,0.16963
1299.78788,0.16501
1301.71634,0.15966
1303.64481,0.15310
1305.57328,0.15077
1307.50175,0.15768
1309.43022,0.16725
1311.35869,0.17463
1313.28716,0.17993
1315.21563,0.17944
1317.14409,0.17452
1319.07256,0.17052
1321.00103,0.16866
1322.92950,0.16796
1324.85797,0.16776
1326.78644,0.16763
1328.71491,0.16759
1330.64337,0.16699
1332.57184,0.16669
1334.50031,0.16998
1336.42878,0.17577
1338.35725,0.17704
1340.28572,0.17140
1342.21419,0.16701
1344.14266,0.16332
1346.07112,0.15963
1347.99959,0.16274
1349.92806,0.16650
1351.85653,0.16668
1353.78500,0.16920
1355.71347,0.17340
1357.64194,0.17684
1359.57040,0.17874
1361.49887,0.18049
1363.42734,0.18037
1365.35581,0.17479
1367.28428,0.17059
1369.21275,0.17390
1371.14122,0.17989
1373.06969,0.18333
1374.99815,0.18473
1376.92662,0.18383
1378.85509,0.18279
1380.78356,0.18312
1382.71203,0.18192
1384.64050,0.17925
1386.56897,0.17918
1388.49743,0.18180
1390.42590,0.18444
1392.35437,0.18892
1394.28284,0.19364
1396.21131,0.19308
1398.13978,0.18784
1400.06825,0.18249
1401.99672,0.18358
1403.92518,0.19065
1405.85365,0.19243
1407.78212,0.18691
1409.71059,0.18345
1411.63906,0.18283
1413.56753,0.18307
1415.49600,0.18653
1417.42446,0.19730
1419.35293,0.20587
1421.28140,0.20080
1423.20987,0.19430
1425.13834,0.18866
1427.06681,0.18505
1428.99528,0.18576
1430.92375,0.18533
1432.85221,0.18428
1434.78068,0.18787
1436.70915,0.19180
1438.63762,0.18936
1440.56609,0.18614
1442.49456,0.18421
1444.42303,0.18468
1446.35149,0.18836
1448.27996,0.18959
1450.20843,0.18735
1452.13690,0.18745
1454.06537,0.19425
1455.99384,0.21225
1457.92231,0.22145
1459.85077,0.20432
1461.77924,0.19380
1463.70771,0.19506
1465.63618,0.19561
1467.56465,0.19233
1469.49312,0.19547
1471.42159,0.20639
1473.35006,0.21140
1475.27852,0.20251
1477.20699,0.19501
1479.13546,0.19357
1481.06393,0.19281
1482.99240,0.19046
1484.92087,0.19447
1486.84934,0.20849
1488.77780,0.21909
1490.70627,0.21029
1492.63474,0.19868
1494.56321,0.19948
1496.49168,0.20763
1498.42015,0.20698
1500.34862,0.19784
1502.27709,0.19572
1504.20555,0.20612
1506.13402,0.22578
1508.06249,0.23404
1509.99096,0.22504
1511.91943,0.21474
1513.84790,0.21167
1515.77637,0.21582
1517.70483,0.21907
1519.63330,0.22670
1521.56177,0.23848
1523.49024,0.23448
1525.41871,0.22237
1527.34718,0.20798
1529.27565,0.19622
1531.20412,0.19926
1533.13258,0.21209
1535.06105,0.21253
1536.98952,0.21017
1538.91799,0.22287
1540.84646,0.23276
1542.77493,0.22127
1544.70340,0.21115
1546.63186,0.20655
1548.56033,0.20887
1550.48880,0.20958
1552.41727,0.20365
1554.34574,0.20175
1556.27421,0.21326
1558.20268,0.23564
1560.13115,0.22653
1562.05961,0.20482
1563.98808,0.19396
1565.91655,0.18958
1567.84502,0.19624
1569.77349,0.20698
1571.70196,0.20628
1573.63043,0.20786
1575.55889,0.21505
1577.48736,0.20766
1579.41583,0.19598
1581.34430,0.19250
1583.27277,0.19003
1585.20124,0.18648
1587.12971,0.18714
1589.05818,0.18993
1590.98664,0.18787
1592.91511,0.18239
1594.84358,0.17923
1596.77205,0.18034
1598.70052,0.18338
1600.62899,0.18422
1602.55746,0.18421
1604.48592,0.18707
1606.41439,0.18925
1608.34286,0.18674
1610.27133,0.18227
1612.19980,0.18236
1614.12827,0.19093
1616.05674,0.20173
1617.98521,0.19630
1619.91367,0.18732
1621.84214,0.19104
1623.77061,0.19920
1625.69908,0.20104
1627.62755,0.19953
1629.55602,0.19668
1631.48449,0.19830
1633.41295,0.21129
1635.34142,0.22854
1637.26989,0.21925
1639.19836,0.19987
1641.12683,0.19144
1643.05530,0.19589
1644.98377,0.21596
1646.91223,0.23814
1648.84070,0.23428
1650.76917,0.22878
1652.69764,0.23358
1654.62611,0.22352
1656.55458,0.20973
1658.48305,0.20563
1660.41152,0.20883
1662.33998,0.21217
1664.26845,0.20601
1666.19692,0.20003
1668.12539,0.20583
1670.05386,0.21637
1671.98233,0.21701
1673.91080,0.21538
1675.83926,0.21325
1677.76773,0.21066
1679.69620,0.21461
1681.62467,0.22741
1683.55314,0.23913
1685.48161,0.22709
1687.41008,0.21446
1689.33855,0.21207
1691.26701,0.21021
1693.19548,0.21166
1695.12395,0.22366
1697.05242,0.23651
1698.98089,0.23493
1700.90936,0.22238
1702.83783,0.21611
1704.76629,0.21866
1706.69476,0.21577
1708.62323,0.20446
1710.55170,0.19726
1712.48017,0.20086
1714.40864,0.21594
1716.33711,0.23306
1718.26558,0.22720
1720.19404,0.20863
1722.12251,0.19681
1724.05098,0.19016
1725.97945,0.18750
1727.90792,0.18925
1729.83639,0.19560
1731.76486,0.20686
1733.69332,0.21846
1735.62179,0.21679
1737.55026,0.21111
1739.47873,0.20926
1741.40720,0.20621
1743.33567,0.20249
1745.26414,0.20430
1747.19261,0.21283
1749.12107,0.22054
1751.04954,0.21647
1752.97801,0.20548
1754.90648,0.19768
1756.83495,0.19391
1758.76342,0.19303
1760.69189,0.19383
1762.62035,0.19296
1764.54882,0.19098
1766.47729,0.19099
1768.40576,0.19483
1770.33423,0.20629
1772.26270,0.21486
1774.19117,0.20605
1776.11964,0.19624
1778.04810,0.19374
1779.97657,0.19341
1781.90504,0.19009
1783.83351,0.18715
1785.76198,0.18831
1787.69045,0.19151
1789.61892,0.19745
1791.54738,0.20428
1793.47585,0.20336
1795.40432,0.19751
1797.33279,0.19324
1799.26126,0.19272
1801.18973,0.19481
1803.11820,0.19331
1805.04666,0.18958
1806.97513,0.18983
1808.90360,0.19376
1810.83207,0.19436
1812.76054,0.18879
1814.68901,0.18450
1816.61748,0.18445
1818.54595,0.18430
1820.47441,0.18407
1822.40288,0.18768
1824.33135,0.19291
1826.25982,0.19546
1828.18829,0.19851
1830.11676,0.19962
1832.04523,0.19398
1833.97369,0.18915
1835.90216,0.18827
1837.83063,0.18960
1839.75910,0.19399
1841.68757,0.20178
1843.61604,0.20665
1845.54451,0.20121
1847.47298,0.19489
1849.40144,0.19364
1851.32991,0.19245
1853.25838,0.18949
1855.18685,0.18817
1857.11532,0.18975
1859.04379,0.19096
1860.97226,0.18923
1862.90072,0.18626
1864.82919,0.18601
1866.75766,0.19141
1868.68613,0.19789
1870.61460,0.19506
1872.54307,0.18828
1874.47154,0.18727
1876.40001,0.19041
1878.32847,0.19167
1880.25694,0.19014
1882.18541,0.18884
1884.11388,0.18951
1886.04235,0.19144
1887.97082,0.19419
1889.89929,0.19514
1891.82775,0.19210
1893.75622,0.18871
1895.68469,0.18617
1897.61316,0.18423
1899.54163,0.18456
1901.47010,0.18596
1903.39857,0.18759
1905.32704,0.19109
1907.25550,0.19486
1909.18397,0.19726
1911.11244,0.19829
1913.04091,0.19503
1914.96938,0.19006
1916.89785,0.19087
1918.82632,0.19609
1920.75478,0.20119
1922.68325,0.20432
1924.61172,0.20054
1926.54019,0.19364
1928.46866,0.19107
1930.39713,0.19081
1932.32560,0.18954
1934.25407,0.18926
1936.18253,0.18987
1938.11100,0.18827
1940.03947,0.18667
1941.96794,0.18868
1943.89641,0.18948
1945.82488,0.18528
1947.75335,0.18303
1949.68181,0.18614
1951.61028,0.18938
1953.53875,0.19073
1955.46722,0.19293
1957.39569,0.19561
1959.32416,0.19586
1961.25263,0.19370
1963.18110,0.19212
1965.10956,0.19305
1967.03803,0.19441
1968.96650,0.19245
1970.89497,0.18799
1972.82344,0.18433
1974.75191,0.18302
1976.68038,0.18452
1978.60884,0.18642
1980.53731,0.18666
1982.46578,0.18800
1984.39425,0.19029
1986.32272,0.19024
1988.25119,0.18980
1990.17966,0.19153
1992.10812,0.19230
1994.03659,0.18954
1995.96506,0.18701
1997.89353,0.18821
1999.82200,0.19030
2001.75047,0.19050
2003.67894,0.19052
2005.60741,0.19000
2007.53587,0.18820
2009.46434,0.18739
2011.39281,0.18828
2013.32128,0.19025
2015.24975,0.19319
2017.17822,0.19471
2019.10669,0.19147
2021.03515,0.18723
2022.96362,0.18687
2024.89209,0.18767
2026.82056,0.18821
2028.74903,0.18902
2030.67750,0.18874
2032.60597,0.18947
2034.53444,0.19071
2036.46290,0.18852
2038.39137,0.18514
2040.31984,0.18441
2042.24831,0.18624
2044.17678,0.18794
2046.10525,0.18773
2048.03372,0.18850
2049.96218,0.19074
2051.89065,0.19055
2053.81912,0.18844
2055.74759,0.18798
2057.67606,0.19083
2059.60453,0.19490
2061.53300,0.19539
2063.46147,0.19230
2065.38993,0.19016
2067.31840,0.18951
2069.24687,0.18799
2071.17534,0.18683
2073.10381,0.18852
2075.03228,0.19189
2076.96075,0.19265
2078.88921,0.18949
2080.81768,0.18688
2082.74615,0.18786
2084.67462,0.18989
2086.60309,0.19044
2088.53156,0.19106
2090.46003,0.19302
2092.38850,0.19459
2094.31696,0.19413
2096.24543,0.19176
2098.17390,0.18959
2100.10237,0.18932
2102.03084,0.18963
2103.95931,0.18876
2105.88778,0.18676
2107.81624,0.18500
2109.74471,0.18556
2111.67318,0.18854
2113.60165,0.19174
2115.53012,0.19306
2117.45859,0.19205
2119.38706,0.19099
2121.31553,0.19048
2123.24399,0.18911
2125.17246,0.18966
2127.10093,0.19289
2129.02940,0.19352
2130.95787,0.19043
2132.88634,0.18724
2134.81481,0.18454
2136.74327,0.18247
2138.67174,0.18443
2140.60021,0.18842
2142.52868,0.18782
2144.45715,0.18569
2146.38562,0.18780
2148.31409,0.19047
2150.24255,0.19016
2152.17102,0.18919
2154.09949,0.18937
2156.02796,0.18931
2157.95643,0.18752
2159.88490,0.18620
2161.81337,0.18804
2163.74184,0.19022
2165.67030,0.19000
2167.59877,0.19054
2169.52724,0.19339
2171.45571,0.19446
2173.38418,0.19114
2175.31265,0.18697
2177.24112,0.18575
2179.16958,0.18701
2181.09805,0.18919
2183.02652,0.19147
2184.95499,0.19295
2186.88346,0.19258
2188.81193,0.19118
2190.74040,0.19034
2192.66887,0.18938
2194.59733,0.18776
2196.52580,0.18746
2198.45427,0.18896
2200.38274,0.18963
2202.31121,0.18979
2204.23968,0.19096
2206.16815,0.19206
2208.09661,0.19331
2210.02508,0.19515
2211.95355,0.19674
2213.88202,0.19651
2215.81049,0.19382
2217.73896,0.19210
2219.66743,0.19295
2221.59590,0.19337
2223.52436,0.19360
2225.45283,0.19517
2227.38130,0.19574
2229.30977,0.19431
2231.23824,0.19289
2233.16671,0.19199
2235.09518,0.19101
2237.02364,0.19079
2238.95211,0.19208
2240.88058,0.19314
2242.80905,0.19216
2244.73752,0.19046
2246.66599,0.18909
2248.59446,0.18663
2250.52293,0.18458
2252.45139,0.18651
2254.37986,0.18984
2256.30833,0.19113
2258.23680,0.19209
2260.16527,0.19209
2262.09374,0.19012
2264.02221,0.18950
2265.95067,0.19009
2267.87914,0.18857
2269.80761,0.18691
2271.73608,0.18747
2273.66455,0.18787
2275.59302,0.18723
2277.52149,0.18872
2279.44996,0.19266
2281.37842,0.19467
2283.30689,0.19316
2285.23536,0.18957
2287.16383,0.18586
2289.09230,0.18531
2291.02077,0.18743
2292.94924,0.18757
2294.87770,0.18462
2296.80617,0.18416
2298.73464,0.18986
2300.66311,0.19586
2302.59158,0.19840
2304.52005,0.20090
2306.44852,0.20335
2308.37699,0.20549
2310.30545,0.20697
2312.23392,0.20392
2314.16239,0.19903
2316.09086,0.19860
2318.01933,0.20563
2319.94780,0.21530
2321.87627,0.21654
2323.80473,0.21166
2325.73320,0.20982
2327.66167,0.21054
2329.59014,0.20865
2331.51861,0.20161
2333.44708,0.19645
2335.37555,0.20157
2337.30401,0.21535
2339.23248,0.22430
2341.16095,0.21843
2343.08942,0.20510
2345.01789,0.19815
2346.94636,0.20284
2348.87483,0.21226
2350.80330,0.21931
2352.73176,0.22027
2354.66023,0.21917
2356.58870,0.21935
2358.51717,0.20788
2360.44564,0.19574
2362.37411,0.20879
2364.30258,0.22540
2366.23104,0.22554
2368.15951,0.22495
2370.08798,0.22232
2372.01645,0.20705
2373.94492,0.19180
2375.87339,0.18914
2377.80186,0.19177
2379.73033,0.19306
2381.65879,0.19423
2383.58726,0.19303
2385.51573,0.18934
2387.44420,0.18799
2389.37267,0.18763
2391.30114,0.18521
2393.22961,0.18518
2395.15807,0.18865
2397.08654,0.19056
2399.01501,0.19050
2400.94348,0.19007
2402.87195,0.18939
2404.80042,0.18990
2406.72889,0.19275
2408.65736,0.19600
2410.58582,0.19462
2412.51429,0.19060
2414.44276,0.19081
2416.37123,0.19124
2418.29970,0.18759
2420.22817,0.18567
2422.15664,0.18817
2424.08510,0.19046
2426.01357,0.19030
2427.94204,0.19078
2429.87051,0.19385
2431.79898,0.19736
2433.72745,0.19639
2435.65592,0.19097
2437.58439,0.18736
2439.51285,0.18729
2441.44132,0.18824
2443.36979,0.18965
2445.29826,0.19174
2447.22673,0.19281
2449.15520,0.19243
2451.08367,0.19165
2453.01213,0.18925
2454.94060,0.18726
2456.86907,0.18915
2458.79754,0.19224
2460.72601,0.19293
2462.65448,0.19059
2464.58295,0.18758
2466.51142,0.18818
2468.43988,0.19088
2470.36835,0.19082
2472.29682,0.19034
2474.22529,0.19159
2476.15376,0.19229
2478.08223,0.19345
2480.01070,0.19395
2481.93916,0.19056
2483.86763,0.18713
2485.79610,0.18824
2487.72457,0.19122
2489.65304,0.19260
2491.58151,0.19365
2493.50998,0.19429
2495.43844,0.19253
2497.36691,0.19059
2499.29538,0.19045
2501.22385,0.18999
2503.15232,0.18817
2505.08079,0.18569
2507.00926,0.18404
2508.93773,0.18702
2510.86619,0.19422
2512.79466,0.19862
2514.72313,0.19808
2516.65160,0.19646
2518.58007,0.19478
2520.50854,0.19301
2522.43701,0.19220
2524.36547,0.19140
2526.29394,0.18993
2528.22241,0.18869
2530.15088,0.18890
2532.07935,0.19172
2534.00782,0.19446
2535.93629,0.19370
2537.86476,0.19261
2539.79322,0.19432
2541.72169,0.19632
2543.65016,0.19749
2545.57863,0.19890
2547.50710,0.19913
2549.43557,0.19674
2551.36404,0.19435
2553.29250,0.19504
2555.22097,0.19804
2557.14944,0.19972
2559.07791,0.19777
2561.00638,0.19479
2562.93485,0.19436
2564.86332,0.19629
2566.79179,0.19780
2568.72025,0.19734
2570.64872,0.19596
2572.57719,0.19433
2574.50566,0.19329
2576.43413,0.19420
2578.36260,0.19516
2580.29107,0.19422
2582.21953,0.19439
2584.14800,0.19728
2586.07647,0.19848
2588.00494,0.19493
2589.93341,0.18947
2591.86188,0.18732
2593.79035,0.18921
2595.71882,0.19218
2597.64728,0.19514
2599.57575,0.19691
2601.50422,0.19602
2603.43269,0.19377
2605.36116,0.19210
2607.28963,0.19244
2609.21810,0.19434
2611.14656,0.19495
2613.07503,0.19427
2615.00350,0.19454
2616.93197,0.19442
2618.86044,0.19286
2620.78891,0.19258
2622.71738,0.19339
2624.64585,0.19272
2626.57431,0.19273
2628.50278,0.19553
2630.43125,0.19865
2632.35972,0.20041
2634.28819,0.19967
2636.21666,0.19523
2638.14513,0.19139
2640.07359,0.19260
2642.00206,0.19537
2643.93053,0.19512
2645.85900,0.19348
2647.78747,0.19326
2649.71594,0.19280
2651.64441,0.19300
2653.57288,0.19660
2655.50134,0.19931
2657.42981,0.19826
2659.35828,0.19692
2661.28675,0.19657
2663.21522,0.19484
2665.14369,0.19310
2667.07216,0.19342
2669.00062,0.19285
2670.92909,0.19176
2672.85756,0.19301
2674.78603,0.19574
2676.71450,0.19818
2678.64297,0.19873
2680.57144,0.19688
2682.49990,0.19433
2684.42837,0.19461
2686.35684,0.19853
2688.28531,0.20189
2690.21378,0.20238
2692.14225,0.20043
2694.07072,0.19628
2695.99919,0.19439
2697.92765,0.19742
2699.85612,0.19914
2701.78459,0.19764
2703.71306,0.19881
2705.64153,0.20315
2707.57000,0.20597
2709.49847,0.20567
2711.42693,0.20510
2713.35540,0.20659
2715.28387,0.20710
2717.21234,0.20519
2719.14081,0.20452
2721.06928,0.20516
2722.99775,0.20462
2724.92622,0.20288
2726.85468,0.20241
2728.78315,0.20420
2730.71162,0.20500
2732.64009,0.20416
2734.56856,0.20350
2736.49703,0.20276
2738.42550,0.20245
2740.35396,0.20239
2742.28243,0.20134
2744.21090,0.20151
2746.13937,0.20387
2748.06784,0.20463
2749.99631,0.20280
2751.92478,0.20028
2753.85325,0.19815
2755.78171,0.19838
2757.71018,0.20123
2759.63865,0.20325
2761.56712,0.20287
2763.49559,0.20265
2765.42406,0.20466
2767.35253,0.20752
2769.28099,0.20730
2771.20946,0.20345
2773.13793,0.20120
2775.06640,0.20240
2776.99487,0.20345
2778.92334,0.20482
2780.85181,0.20818
2782.78028,0.20984
2784.70874,0.20775
2786.63721,0.20504
2788.56568,0.20481
2790.49415,0.20593
2792.42262,0.20536
2794.35109,0.20290
2796.27956,0.20138
2798.20802,0.20441
2800.13649,0.20940
2802.06496,0.20954
2803.99343,0.20611
2805.92190,0.20508
2807.85037,0.20647
2809.77884,0.20739
2811.70731,0.20855
2813.63577,0.21108
2815.56424,0.21228
2817.49271,0.21143
2819.42118,0.21080
2821.34965,0.20870
2823.27812,0.20661
2825.20659,0.20777
2827.13505,0.20731
2829.06352,0.20530
2830.99199,0.20623
2832.92046,0.20751
2834.84893,0.20832
2836.77740,0.20804
2838.70587,0.20440
2840.63433,0.20220
2842.56280,0.20358
2844.49127,0.20479
2846.41974,0.20663
2848.34821,0.20976
2850.27668,0.21128
2852.20515,0.21120
2854.13362,0.21149
2856.06208,0.21231
2857.99055,0.21221
2859.91902,0.21020
2861.84749,0.20793
2863.77596,0.20622
2865.70443,0.20456
2867.63290,0.20349
2869.56136,0.20258
2871.48983,0.20218
2873.41830,0.20309
2875.34677,0.20431
2877.27524,0.20563
2879.20371,0.20712
2881.13218,0.20693
2883.06065,0.20418
2884.98911,0.20217
2886.91758,0.20373
2888.84605,0.20626
2890.77452,0.20735
2892.70299,0.20977
2894.63146,0.21285
2896.55993,0.21210
2898.48839,0.20867
2900.41686,0.20653
2902.34533,0.20668
2904.27380,0.20662
2906.20227,0.20561
2908.13074,0.20605
2910.05921,0.20875
2911.98768,0.21131
2913.91614,0.21108
2915.84461,0.20796
2917.77308,0.20363
2919.70155,0.20021
2921.63002,0.19818
2923.55849,0.19732
2925.48696,0.19554
2927.41542,0.18956
2929.34389,0.18510
2931.27236,0.19158
2933.20083,0.20328
2935.12930,0.20617
2937.05777,0.20077
2938.98624,0.19512
2940.91471,0.19271
2942.84317,0.19682
2944.77164,0.20370
2946.70011,0.20293
2948.62858,0.19733
2950.55705,0.19871
2952.48552,0.20381
2954.41399,0.20185
2956.34245,0.19301
2958.27092,0.18962
2960.19939,0.19809
2962.12786,0.20649
2964.05633,0.20919
2965.98480,0.21070
2967.91327,0.21091
2969.84174,0.21260
2971.77020,0.21616
2973.69867,0.21647
2975.62714,0.21274
2977.55561,0.20739
2979.48408,0.20668
2981.41255,0.21361
2983.34102,0.21708
2985.26948,0.21148
2987.19795,0.20673
2989.12642,0.20920
2991.05489,0.21655
2992.98336,0.22274
2994.91183,0.22351
2996.84030,0.21951
2998.76877,0.21398
3000.69723,0.20869
3002.62570,0.20453
3004.55417,0.20295
3006.48264,0.20239
3008.41111,0.20279
3010.33958,0.20357
3012.26805,0.19912
3014.19651,0.18472
3016.12498,0.16669
3018.05345,0.16686
3019.98192,0.18836
3021.91039,0.20569
3023.83886,0.20998
3025.76733,0.20971
3027.69579,0.20859
3029.62426,0.21078
3031.55273,0.21660
3033.48120,0.22086
3035.40967,0.22147
3037.33814,0.21861
3039.26661,0.21606
3041.19508,0.21591
3043.12354,0.21388
3045.05201,0.20870
3046.98048,0.20457
3048.90895,0.20421
3050.83742,0.20395
3052.76589,0.20157
3054.69436,0.19983
3056.62282,0.20025
3058.55129,0.20472
3060.47976,0.21118
3062.40823,0.21248
3064.33670,0.20639
3066.26517,0.20099
3068.19364,0.20625
3070.12211,0.21707
3072.05057,0.22024
3073.97904,0.21245
3075.90751,0.20264
3077.83598,0.20123
3079.76445,0.20724
3081.69292,0.21119
3083.62139,0.20645
3085.54985,0.19977
3087.47832,0.20084
3089.40679,0.20693
3091.33526,0.21192
3093.26373,0.21064
3095.19220,0.20552
3097.12067,0.20427
3099.04914,0.20405
3100.97760,0.19961
3102.90607,0.19306
3104.83454,0.19261
3106.76301,0.20223
3108.69148,0.21242
3110.61995,0.21173
3112.54842,0.20523
3114.47688,0.20518
3116.40535,0.20851
3118.33382,0.20799
3120.26229,0.20793
3122.19076,0.21457
3124.11923,0.22204
3126.04770,0.22034
3127.97617,0.21418
3129.90463,0.21254
3131.83310,0.21522
3133.76157,0.21944
3135.69004,0.22349
3137.61851,0.22568
3139.54698,0.22590
3141.47545,0.22461
3143.40391,0.22311
3145.33238,0.22422
3147.26085,0.22524
3149.18932,0.22194
3151.11779,0.21644
3153.04626,0.21261
3154.97473,0.21182
3156.90320,0.21230
3158.83166,0.21409
3160.76013,0.21664
3162.68860,0.21899
3164.61707,0.22288
3166.54554,0.22340
3168.47401,0.21892
3170.40248,0.21670
3172.33094,0.21685
3174.25941,0.21619
3176.18788,0.21656
3178.11635,0.21840
3180.04482,0.21827
3181.97329,0.21811
3183.90176,0.22113
3185.83022,0.21975
3187.75869,0.21233
3189.68716,0.20906
3191.61563,0.21087
3193.54410,0.21325
3195.47257,0.21534
3197.40104,0.21395
3199.32951,0.20866
3201.25797,0.20664
3203.18644,0.21057
3205.11491,0.21354
3207.04338,0.21398
3208.97185,0.21817
3210.90032,0.22383
3212.82879,0.22313
3214.75725,0.21805
3216.68572,0.21593
3218.61419,0.21571
3220.54266,0.21433
3222.47113,0.21419
3224.39960,0.21652
3226.32807,0.21867
3228.25654,0.21785
3230.18500,0.21733
3232.11347,0.22019
3234.04194,0.22371
3235.97041,0.22435
3237.89888,0.22191
3239.82735,0.22132
3241.75582,0.22344
3243.68428,0.22512
3245.61275,0.22467
3247.54122,0.21986
3249.46969,0.21505
3251.39816,0.21593
3253.32663,0.21868
3255.25510,0.21913
3257.18357,0.21832
3259.11203,0.21704
3261.04050,0.21497
3262.96897,0.21354
3264.89744,0.21682
3266.82591,0.22276
3268.75438,0.22395
3270.68285,0.21993
3272.61131,0.21584
3274.53978,0.21465
3276.46825,0.21459
3278.39672,0.21430
3280.32519,0.21498
3282.25366,0.21753
3284.18213,0.22247
3286.11060,0.22598
3288.03906,0.22364
3289.96753,0.21945
3291.89600,0.21909
3293.82447,0.22002
3295.75294,0.21991
3297.68141,0.22006
3299.60988,0.21646
3301.53834,0.21021
3303.46681,0.20928
3305.39528,0.21365
3307.32375,0.22030
3309.25222,0.22435
3311.18069,0.21690
3313.10916,0.20239
3315.03763,0.19569
3316.96609,0.20076
3318.89456,0.21169
3320.82303,0.21980
3322.75150,0.22003
3324.67997,0.22000
3326.60844,0.22397
3328.53691,0.22504
3330.46537,0.22378
3332.39384,0.22331
3334.32231,0.22082
3336.25078,0.21718
3338.17925,0.21394
3340.10772,0.21073
3342.03619,0.21218
3343.96466,0.21873
3345.89312,0.22197
3347.82159,0.22080
3349.75006,0.21926
3351.67853,0.21722
3353.60700,0.21658
3355.53547,0.21747
3357.46394,0.21739
3359.39240,0.21755
3361.32087,0.21637
3363.24934,0.21337
3365.17781,0.21029
3367.10628,0.20602
3369.03475,0.20746
3370.96322,0.21763
3372.89168,0.22401
3374.82015,0.22072
3376.74862,0.21469
3378.67709,0.21034
3380.60556,0.20763
3382.53403,0.20795
3384.46250,0.21201
3386.39097,0.21688
3388.31943,0.21870
3390.24790,0.21776
3392.17637,0.21572
3394.10484,0.21302
3396.03331,0.21294
3397.96178,0.21547
3399.89025,0.21536
3401.81871,0.21162
3403.74718,0.20814
3405.67565,0.20878
3407.60412,0.21438
3409.53259,0.21849
3411.46106,0.21612
3413.38953,0.21223
3415.31800,0.21052
3417.24646,0.21203
3419.17493,0.21606
3421.10340,0.21945
3423.03187,0.22154
3424.96034,0.22023
3426.88881,0.21307
3428.81728,0.20322
3430.74574,0.19899
3432.67421,0.20088
3434.60268,0.20205
3436.53115,0.20239
3438.45962,0.20142
3440.38809,0.19718
3442.31656,0.19498
3444.24503,0.19907
3446.17349,0.20375
3448.10196,0.20310
3450.03043,0.19944
3451.95890,0.19589
3453.88737,0.19584
3455.81584,0.20028
3457.74431,0.20451
3459.67277,0.20669
3461.60124,0.20552
3463.52971,0.20167
3465.45818,0.19935
3467.38665,0.19543
3469.31512,0.19089
3471.24359,0.19007
3473.17206,0.18955
3475.10052,0.19271
3477.02899,0.19849
3478.95746,0.19800
3480.88593,0.19565
3482.81440,0.19575
3484.74287,0.19433
3486.67134,0.19214
3488.59980,0.18955
3490.52827,0.18510
3492.45674,0.18385
3494.38521,0.18848
3496.31368,0.19230
3498.24215,0.19240
3500.17062,0.19420
3502.09909,0.19797
3504.02755,0.19622
3505.95602,0.18862
3507.88449,0.18388
3509.81296,0.18523
3511.74143,0.18726
3513.66990,0.18649
3515.59837,0.18506
3517.52683,0.18491
3519.45530,0.18631
3521.38377,0.19007
3523.31224,0.19353
3525.24071,0.19053
3527.16918,0.18365
3529.09765,0.17958
3531.02611,0.17853
3532.95458,0.18003
3534.88305,0.18506
3536.81152,0.18758
3538.73999,0.18206
3540.66846,0.17560
3542.59693,0.17396
3544.52540,0.17564
3546.45386,0.17695
3548.38233,0.17675
3550.31080,0.17728
3552.23927,0.17585
3554.16774,0.16859
3556.09621,0.15988
3558.02468,0.15909
3559.95314,0.16688
3561.88161,0.17306
3563.81008,0.17538
3565.73855,0.17828
3567.66702,0.17637
3569.59549,0.16731
3571.52396,0.16187
3573.45243,0.16226
3575.38089,0.16342
3577.30936,0.16360
3579.23783,0.16530
3581.16630,0.16801
3583.09477,0.16937
3585.02324,0.17241
3586.95171,0.17700
3588.88017,0.17491
3590.80864,0.17320
3592.73711,0.17788
3594.66558,0.18065
3596.59405,0.17534
3598.52252,0.16811
3600.45099,0.16295
3602.37946,0.15855
3604.30792,0.15760
3606.23639,0.16168
3608.16486,0.16495
3610.09333,0.16483
3612.02180,0.16741
3613.95027,0.17109
3615.87874,0.16966
3617.80720,0.16607
3619.73567,0.16258
3621.66414,0.15819
3623.59261,0.15562
3625.52108,0.15542
3627.44955,0.15780
3629.37802,0.16077
3631.30649,0.16145
3633.23495,0.16126
3635.16342,0.15404
3637.09189,0.14105
3639.02036,0.13578
3640.94883,0.14213
3642.87730,0.15077
3644.80577,0.16041
3646.73423,0.17783
3648.66270,0.19446
3650.59117,0.18089
3652.51964,0.15455
3654.44811,0.14016
3656.37658,0.13892
3658.30505,0.14104
3660.23352,0.13774
3662.16198,0.13434
3664.09045,0.13700
3666.01892,0.14165
3667.94739,0.14705
3669.87586,0.15546
3671.80433,0.15934
3673.73280,0.16124
3675.66126,0.15807
3677.58973,0.14440
3679.51820,0.13713
3681.44667,0.13715
3683.37514,0.13795
3685.30361,0.13947
3687.23208,0.14556
3689.16055,0.15507
3691.08901,0.15668
3693.01748,0.14973
3694.94595,0.14332
3696.87442,0.14072
3698.80289,0.14130
3700.73136,0.14346
3702.65983,0.14394
3704.58829,0.14183
3706.51676,0.14085
3708.44523,0.14193
3710.37370,0.14103
3712.30217,0.13517
3714.23064,0.12926
3716.15911,0.12714
3718.08757,0.12974
3720.01604,0.13493
3721.94451,0.14096
3723.87298,0.14578
3725.80145,0.14216
3727.72992,0.13327
3729.65839,0.13199
3731.58686,0.14470
3733.51532,0.16812
3735.44379,0.17868
3737.37226,0.16314
3739.30073,0.14501
3741.22920,0.13693
3743.15767,0.14104
3745.08614,0.15143
3747.01460,0.15247
3748.94307,0.15267
3750.87154,0.15542
3752.80001,0.14797
3754.72848,0.14057
3756.65695,0.14220
3758.58542,0.14553
3760.51389,0.14178
3762.44235,0.13940
3764.37082,0.14230
3766.29929,0.14365
3768.22776,0.14274
3770.15623,0.14001
3772.08470,0.13211
3774.01317,0.12308
3775.94163,0.11919
3777.87010,0.12269
3779.79857,0.12520
3781.72704,0.12403
3783.65551,0.12870
3785.58398,0.13431
3787.51245,0.13328
3789.44092,0.13191
3791.36938,0.13481
3793.29785,0.13765
3795.22632,0.13306
3797.15479,0.12560
3799.08326,0.12947
3801.01173,0.14061
3802.94020,0.14073
3804.86866,0.13590
3806.79713,0.13540
3808.72560,0.13200
3810.65407,0.12705
3812.58254,0.12870
3814.51101,0.13640
3816.43948,0.14073
3818.36795,0.14358
3820.29641,0.15131
3822.22488,0.14653
3824.15335,0.13332
3826.08182,0.12670
3828.01029,0.12499
3829.93876,0.12716
3831.86723,0.13300
3833.79569,0.14014
3835.72416,0.14946
3837.65263,0.15806
3839.58110,0.15406
3841.50957,0.14414
3843.43804,0.13829
3845.36651,0.13318
3847.29498,0.12967
3849.22344,0.13411
3851.15191,0.14663
3853.08038,0.15648
3855.00885,0.14664
3856.93732,0.12950
3858.86579,0.11956
3860.79426,0.12347
3862.72272,0.13395
3864.65119,0.13362
3866.57966,0.12834
3868.50813,0.13066
3870.43660,0.13538
3872.36507,0.13522
3874.29354,0.13252
3876.22200,0.13134
3878.15047,0.13459
3880.07894,0.14006
3882.00741,0.13941
3883.93588,0.13332
3885.86435,0.12615
3887.79282,0.11999
3889.72129,0.11691
3891.64975,0.11560
3893.57822,0.11621
3895.50669,0.11835
3897.43516,0.12195
3899.36363,0.12750
3901.29210,0.12682
3903.22057,0.11855
3905.14903,0.11378
3907.07750,0.11408
3909.00597,0.11499
3910.93444,0.11373
3912.86291,0.11167
3914.79138,0.11252
3916.71985,0.11700
3918.64832,0.11847
3920.57678,0.11373
3922.50525,0.11136
3924.43372,0.11261
3926.36219,0.11327
3928.29066,0.11619
3930.21913,0.12123
3932.14760,0.12198
3934.07606,0.11906
3936.00453,0.11857
3937.93300,0.11781
3939.86147,0.11560
3941.78994,0.11371
3943.71841,0.10993
3945.64688,0.10864
3947.57535,0.11337
3949.50381,0.11761
3951.43228,0.11259
3953.36075,0.10294
3955.28922,0.10142
3957.21769,0.10574
3959.14616,0.10713
3961.07463,0.10832
3963.00309,0.11048
3964.93156,0.11100
3966.86003,0.11237
3968.78850,0.11325
3970.71697,0.11022
3972.64544,0.10941
3974.57391,0.11393
3976.50238,0.11581
3978.43084,0.11111
3980.35931,0.10466
3982.28778,0.10229
3984.21625,0.10340
3986.14472,0.10488
3988.07319,0.11013
3990.00166,0.11610
3991.93012,0.11297
3993.85859,0.10452
3995.78706,0.09801
3997.71553,0.09369
3999.64400,0.09306
4001.57247,0.09451
4003.50094,0.09613
4005.42941,0.10191
4007.35787,0.11075
4009.28634,0.11441
4011.21481,0.11072
4013.14328,0.10619
4015.07175,0.10406
4017.00022,0.10098
4018.92869,0.09724
4020.85715,0.09785
4022.78562,0.10224
4024.71409,0.10540
4026.64256,0.10818
4028.57103,0.11026
4030.49950,0.10557
4032.42797,0.09904
4034.35644,0.09937
4036.28490,0.10214
4038.21337,0.10234
4040.14184,0.10272
4042.07031,0.10385
4043.99878,0.10234
4045.92725,0.10065
4047.85572,0.10180
4049.78418,0.10124
4051.71265,0.09888
4053.64112,0.09846
4055.56959,0.09979
4057.49806,0.10251
4059.42653,0.10572
4061.35500,0.10764
4063.28346,0.10711
4065.21193,0.10561
4067.14040,0.10451
4069.06887,0.10118
4070.99734,0.09798
4072.92581,0.09604
4074.85428,0.09065
4076.78275,0.08835
4078.71121,0.09332
4080.63968,0.09415
4082.56815,0.08941
4084.49662,0.08773
4086.42509,0.08963
4088.35356,0.09225
4090.28203,0.09317
4092.21049,0.09213
4094.13896,0.09083
4096.06743,0.08989
4097.99590,0.09039
4099.92437,0.09022
4101.85284,0.08771
4103.78131,0.08634
4105.70978,0.08720
4107.63824,0.08791
4109.56671,0.08946
4111.49518,0.09340
4113.42365,0.09621
4115.35212,0.09496
4117.28059,0.09042
4119.20906,0.08577
4121.13752,0.08639
4123.06599,0.09098
4124.99446,0.09119
4126.92293,0.08799
4128.85140,0.08951
4130.77987,0.09399
4132.70834,0.09469
4134.63681,0.09251
4136.56527,0.08999
4138.49374,0.08391
4140.42221,0.07696
4142.35068,0.07711
4144.27915,0.08162
4146.20762,0.08040
4148.13609,0.07276
4150.06455,0.07116
4151.99302,0.08018
4153.92149,0.08964
4155.84996,0.09339
4157.77843,0.09351
4159.70690,0.09126
4161.63537,0.08697
4163.56384,0.08367
4165.49230,0.08337
4167.42077,0.08418
4169.34924,0.08164
4171.27771,0.07524
4173.20618,0.07093
4175.13465,0.07256
4177.06312,0.07794
4178.99158,0.08228
4180.92005,0.08660
4182.84852,0.09139
4184.77699,0.09062
4186.70546,0.08466
4188.63393,0.07985
4190.56240,0.07915
4192.49087,0.07852
4194.41933,0.07338
4196.34780,0.06789
4198.27627,0.06903
4200.20474,0.07525
4202.13321,0.07577
4204.06168,0.06814
4205.99015,0.06413
4207.91861,0.07092
4209.84708,0.07931
4211.77555,0.07687
4213.70402,0.06897
4215.63249,0.06637
4217.56096,0.06669
4219.48943,0.06856
4221.41789,0.07309
4223.34636,0.07455
4225.27483,0.07382
4227.20330,0.07683
4229.13177,0.08037
4231.06024,0.07832
4232.98871,0.07051
4234.91718,0.06411
4236.84564,0.06591
4238.77411,0.07279
4240.70258,0.07601
4242.63105,0.07172
4244.55952,0.06649
4246.48799,0.06858
4248.41646,0.07429
4250.34492,0.07600
4252.27339,0.07547
4254.20186,0.07363
4256.13033,0.06870
4258.05880,0.06209
4259.98727,0.05795
4261.91574,0.06334
4263.84421,0.07256
4265.77267,0.07325
4267.70114,0.06758
4269.62961,0.06449
4271.55808,0.06908
4273.48655,0.07699
4275.41502,0.07668
4277.34349,0.06826
4279.27195,0.06500
4281.20042,0.06824
4283.12889,0.06688
4285.05736,0.06163
4286.98583,0.05921
4288.91430,0.05824
4290.84277,0.05679
4292.77124,0.05681
4294.69970,0.05787
4296.62817,0.05756
4298.55664,0.05739
4300.48511,0.05894
4302.41358,0.06140
4304.34205,0.06335
4306.27052,0.05970
4308.19898,0.04924
4310.12745,0.04170
4312.05592,0.04345
4313.98439,0.05057
4315.91286,0.05828
4317.84133,0.06284
4319.76980,0.06045
4321.69827,0.05217
4323.62673,0.04610
4325.55520,0.04929
4327.48367,0.05427
4329.41214,0.05256
4331.34061,0.04973
4333.26908,0.04808
4335.19755,0.04757
4337.12601,0.05099
4339.05448,0.05271
4340.98295,0.04914
4342.91142,0.04642
4344.83989,0.04827
4346.76836,0.05074
4348.69683,0.04808
4350.62530,0.04007
4352.55376,0.03515
4354.48223,0.03765
4356.41070,0.04312
4358.33917,0.04733
4360.26764,0.04408
4362.19611,0.03302
4364.12458,0.02428
4366.05304,0.02327
4367.98151,0.02639
4369.90998,0.03027
4371.83845,0.03599
4373.76692,0.04399
4375.69539,0.04959
4377.62386,0.04792
4379.55232,0.04328
4381.48079,0.04114
4383.40926,0.03918
4385.33773,0.03754
4387.26620,0.03967
4389.19467,0.04237
4391.12314,0.03981
4393.05161,0.03690
4394.98007,0.04278
4396.90854,0.05190
4398.83701,0.05420
4400.76548,0.05172
4402.69395,0.04674
4404.62242,0.03964
4406.55089,0.03691
4408.47935,0.03818
4410.40782,0.03637
4412.33629,0.03508
4414.26476,0.03902
4416.19323,0.04034
4418.12170,0.03768
4420.05017,0.03838
4421.97864,0.04019
4423.90710,0.03641
4425.83557,0.02788
4427.76404,0.02669
4429.69251,0.03509
4431.62098,0.03454
4433.54945,0.02440
4435.47792,0.02431
4437.40638,0.02946
4439.33485,0.02468
4441.26332,0.01885
4443.19179,0.01948
4445.12026,0.02096
4447.04873,0.02407
4448.97720,0.02902
4450.90567,0.03388
4452.83413,0.03911
4454.76260,0.04022
4456.69107,0.03477
4458.61954,0.02705
4460.54801,0.02409
4462.47648,0.03264
4464.40495,0.04297
4466.33341,0.03977
4468.26188,0.02920
4470.19035,0.02109
4472.11882,0.01807
4474.04729,0.02094
4475.97576,0.02621
4477.90423,0.03193
4479.83270,0.03494
4481.76116,0.03323
4483.68963,0.02983
4485.61810,0.02662
4487.54657,0.02381
4489.47504,0.02055
4491.40351,0.01559
4493.33198,0.00911
4495.26044,0.00521
4497.18891,0.00399
4499.11738,0.00337
4501.04585,0.00874
4502.97432,0.01962
4504.90279,0.02677
4506.83126,0.02686
4508.75973,0.02270
4510.68819,0.01580
4512.61666,0.00826
4514.54513,0.00414
4516.47360,0.00881
4518.40207,0.02170
4520.33054,0.02780
4522.25901,0.02039
4524.18747,0.01339
4526.11594,0.01584
4528.04441,0.02041
4529.97288,0.01711
4531.90135,0.00978
4533.82982,0.01356
4535.75829,0.02880
4537.68676,0.03589
4539.61522,0.02908
4541.54369,0.02010
4543.47216,0.01343
4545.40063,0.01126
4547.32910,0.01490
4549.25757,0.01627
4551.18604,0.01267
4553.11450,0.01170
4555.04297,0.01341
4556.97144,0.01234
4558.89991,0.01168
4560.82838,0.01675
4562.75685,0.02223
4564.68532,0.01863
4566.61378,0.00913
4568.54225,0.00670
4570.47072,0.01252
4572.39919,0.01641
4574.32766,0.01716
4576.25613,0.01425
4578.18460,0.00881
4580.11307,0.01047
4582.04153,0.01106
4583.97000,0.00128
4585.89847,-0.00606
4587.82694,-0.00519
4589.75541,-0.00299
4591.68388,-0.00206
4593.61235,-0.00052
4595.54081,-0.00072
4597.46928,-0.00770
4599.39775,-0.01411
4601.32622,-0.01061
4603.25469,0.00085
4605.18316,0.01045
4607.11163,0.00578
4609.04010,-0.00266
4610.96856,0.00153
4612.89703,0.00852
4614.82550,0.01342
4616.75397,0.02140
4618.68244,0.02589
4620.61091,0.02070
4622.53938,0.01050
4624.46784,0.00425
4626.39631,0.00360
4628.32478,0.00621
4630.25325,0.01071
4632.18172,0.00879
4634.11019,-0.00092
4636.03866,-0.00750
4637.96713,-0.00624
4639.89559,0.00122
4641.82406,0.00887
4643.75253,0.01451
4645.68100,0.02076
4647.60947,0.01869
4649.53794,0.00777
4651.46641,0.00548
4653.39487,0.00937
4655.32334,0.00461
4657.25181,-0.00447
4659.18028,-0.00498
4661.10875,0.00936
4663.03722,0.02253
4664.96569,0.01931
4666.89416,0.01771
4668.82262,0.02395
4670.75109,0.02230
4672.67956,0.01539
4674.60803,0.01079
4676.53650,0.00559
4678.46497,-0.00028
4680.39344,-0.00317
4682.32190,-0.00211
4684.25037,0.00212
4686.17884,0.00749
4688.10731,0.01077
4690.03578,0.01253
4691.96425,0.01340
4693.89272,0.00748
4695.82119,-0.00151
4697.74965,-0.00121
4699.67812,0.00879
4701.60659,0.02271
4703.53506,0.03086
4705.46353,0.02620
4707.39200,0.01909
4709.32047,0.02101
4711.24893,0.02429
4713.17740,0.01785
4715.10587,0.00972
4717.03434,0.00803
4718.96281,0.00512
4720.89128,0.00052
4722.81975,0.00461
4724.74821,0.01580
4726.67668,0.02352
4728.60515,0.02324
4730.53362,0.01641
4732.46209,0.00475
4734.39056,-0.00473
4736.31903,0.00203
4738.24750,0.01938
4740.17596,0.02253
4742.10443,0.00853
4744.03290,-0.00235
4745.96137,-0.00293
4747.88984,-0.00445
4749.81831,-0.00667
4751.74678,-0.00116
4753.67524,0.00594
4755.60371,0.00969
4757.53218,0.01087
4759.46065,0.01014
4761.38912,0.01099
4763.31759,0.00833
4765.24606,0.00498
4767.17453,0.00902
4769.10299,0.01233
4771.03146,0.01044
4772.95993,0.00746
4774.88840,0.00735
4776.81687,0.00902
4778.74534,0.01174
4780.67381,0.01189
4782.60227,-0.00076
4784.53074,-0.01698
4786.45921,-0.02779
4788.38768,-0.03529
4790.31615,-0.03067
4792.24462,-0.01115
4794.17309,0.00831
4796.10156,0.01572
4798.03002,0.01917
4799.95849,0.02118
4801.88696,0.01555
4803.81543,0.01187
4805.74390,0.01395
4807.67237,0.00902
4809.60084,-0.00282
4811.52930,-0.00647
4813.45777,0.00215
4815.38624,0.01364
4817.31471,0.02226
4819.24318,0.02772
4821.17165,0.02749
4823.10012,0.02108
4825.02859,0.01386
4826.95705,0.00920
4828.88552,0.00325
4830.81399,-0.00411
4832.74246,-0.00330
4834.67093,0.00435
4836.59940,0.00899
4838.52787,0.01418
4840.45633,0.01887
4842.38480,0.01346
4844.31327,0.00382
4846.24174,0.00397
4848.17021,0.01236
4850.09868,0.01672
4852.02715,0.01408
4853.95562,0.01343
4855.88408,0.01741
4857.81255,0.01313
4859.74102,0.00313
4861.66949,0.00613
4863.59796,0.01327
4865.52643,0.00900
4867.45490,0.00601
4869.38336,0.01081
4871.31183,0.00728
4873.24030,-0.00287
4875.16877,-0.00029
4877.09724,0.01621
4879.02571,0.03170
4880.95418,0.03329
4882.88265,0.02395
4884.81111,0.01262
4886.73958,0.00316
4888.66805,-0.00076
4890.59652,-0.00223
4892.52499,-0.00656
4894.45346,-0.00796
4896.38193,0.00478
4898.31039,0.02671
4900.23886,0.04113
4902.16733,0.03935
4904.09580,0.02381
4906.02427,0.01787
4907.95274,0.02852
4909.88121,0.02985
4911.80967,0.01843
4913.73814,0.01221
4915.66661,0.01456
4917.59508,0.00935
4919.52355,-0.01045
4921.45202,-0.01971
4923.38049,-0.00716
4925.30896,0.00203
4927.23742,-0.00144
4929.16589,-0.00225
4931.09436,-0.00036
4933.02283,0.00361
4934.95130,0.01447
4936.87977,0.01795
4938.80824,0.00932
4940.73670,-0.00145
4942.66517,-0.00852
4944.59364,-0.00401
4946.52211,0.00028
4948.45058,-0.00786
4950.37905,-0.00845
4952.30752,0.00560
4954.23599,0.01463
4956.16445,0.01743
4958.09292,0.02367
4960.02139,0.02994
4961.94986,0.03435
4963.87833,0.03279
4965.80680,0.02259
4967.73527,0.01279
4969.66373,0.00882
4971.59220,0.01293
4973.52067,0.01944
4975.44914,0.01658
4977.37761,0.00870
4979.30608,0.01013
4981.23455,0.01885
4983.16302,0.02360
4985.09148,0.02670
4987.01995,0.02768
4988.94842,0.02233
4990.87689,0.02379
4992.80536,0.03827
4994.73383,0.04866
4996.66230,0.05055
4998.59076,0.04390
5000.51923,0.01862
5002.44770,-0.00373
5004.37617,0.00121
5006.30464,0.01319
5008.23311,0.01382
5010.16158,0.01131
5012.09005,0.00599
5014.01851,0.00167
5015.94698,0.01562
5017.87545,0.03560
5019.80392,0.04189
5021.73239,0.04130
5023.66086,0.03739
5025.58933,0.02935
5027.51779,0.02402
5029.44626,0.02155
5031.37473,0.01988
5033.30320,0.01928
5035.23167,0.01553
5037.16014,0.00788
5039.08861,0.00762
5041.01708,0.02532
5042.94554,0.03938
5044.87401,0.02869
5046.80248,0.01614
5048.73095,0.01919
5050.65942,0.02224
5052.58789,0.01997
5054.51636,0.01768
5056.44482,0.00706
5058.37329,-0.01225
5060.30176,-0.02593
5062.23023,-0.01971
5064.15870,0.00481
5066.08717,0.02016
5068.01564,0.01210
5069.94410,-0.00040
5071.87257,0.00335
5073.80104,0.02337
5075.72951,0.04398
5077.65798,0.04682
5079.58645,0.03199
5081.51492,0.02609
5083.44339,0.02971
5085.37185,0.02050
5087.30032,0.00890
5089.22879,0.01055
5091.15726,0.01448
5093.08573,0.02112
5095.01420,0.03801
5096.94267,0.04594
5098.87113,0.03077
5100.79960,0.00980
5102.72807,0.00318
5104.65654,0.01170
5106.58501,0.02286
5108.51348,0.02707
5110.44195,0.03167
5112.37042,0.04755
5114.29888,0.06570
5116.22735,0.07157
5118.15582,0.06639
5120.08429,0.05247
5122.01276,0.02463
5123.94123,-0.00131
5125.86970,-0.00363
5127.79816,0.00705
5129.72663,0.00939
5131.65510,0.00143
5133.58357,0.00013
5135.51204,0.01294
5137.44051,0.02165
5139.36898,0.02208
5141.29745,0.03227
5143.22591,0.04468
5145.15438,0.03551
5147.08285,0.01461
5149.01132,0.00893
5150.93979,0.02534
5152.86826,0.04774
5154.79673,0.05528
5156.72519,0.04525
5158.65366,0.03776
5160.58213,0.04216
5162.51060,0.04104
5164.43907,0.03036
5166.36754,0.02973
5168.29601,0.03993
5170.22448,0.03994
5172.15294,0.02689
5174.08141,0.01806
5176.00988,0.01260
5177.93835,0.01044
5179.86682,0.02785
5181.79529,0.05107
5183.72376,0.04883
5185.65222,0.03154
5187.58069,0.02458
5189.50916,0.02512
5191.43763,0.03066
5193.36610,0.04424
5195.29457,0.05873
5197.22304,0.05684
5199.15151,0.03595
5201.07997,0.02728
5203.00844,0.04257
5204.93691,0.06380
5206.86538,0.07281
5208.79385,0.06583
5210.72232,0.05151
5212.65079,0.02975
5214.57925,0.01708
5216.50772,0.03084
5218.43619,0.05101
5220.36466,0.04792
5222.29313,0.02716
5224.22160,0.02143
5226.15007,0.03754
5228.07854,0.05352
5230.00700,0.05946
5231.93547,0.05669
5233.86394,0.05318
5235.79241,0.04735
5237.72088,0.03297
5239.64935,0.02118
5241.57782,0.02827
5243.50628,0.05072
5245.43475,0.06297
5247.36322,0.05397
5249.29169,0.04720
5251.22016,0.06582
5253.14863,0.08634
5255.07710,0.07416
5257.00556,0.04848
5258.93403,0.04495
5260.86250,0.04673
5262.79097,0.02434
5264.71944,0.00488
5266.64791,0.02092
5268.57638,0.04796
5270.50485,0.06230
5272.43331,0.06366
5274.36178,0.05124
5276.29025,0.03037
5278.21872,0.02165
5280.14719,0.02626
5282.07566,0.02460
5284.00413,0.01336
5285.93259,0.00790
5287.86106,0.02321
5289.78953,0.04986
5291.71800,0.05597
5293.64647,0.03013
5295.57494,0.00420
5297.50341,0.01576
5299.43188,0.04281
5301.36034,0.03937
5303.28881,0.02571
5305.21728,0.02985
5307.14575,0.03895
5309.07422,0.05125
5311.00269,0.06586
5312.93116,0.06962
5314.85962,0.06739
5316.78809,0.06528
5318.71656,0.05854
5320.64503,0.05324
5322.57350,0.05834
5324.50197,0.06467
5326.43044,0.05797
5328.35891,0.04603
5330.28737,0.04108
5332.21584,0.03988
5334.14431,0.03875
5336.07278,0.04807
5338.00125,0.07673
5339.92972,0.09915
5341.85819,0.10768
5343.78665,0.12290
5345.71512,0.12605
5347.64359,0.10633
5349.57206,0.08974
5351.50053,0.07881
5353.42900,0.06788
5355.35747,0.06892
5357.28594,0.08239
5359.21440,0.09708
5361.14287,0.10568
5363.07134,0.09480
5364.99981,0.06378
5366.92828,0.04777
5368.85675,0.05790
5370.78522,0.06161
5372.71368,0.04705
5374.64215,0.04272
5376.57062,0.06923
5378.49909,0.09402
5380.42756,0.08913
5382.35603,0.07327
5384.28450,0.07465
5386.21297,0.08226
5388.14143,0.06725
5390.06990,0.05033
5391.99837,0.04940
5393.92684,0.04297
5395.85531,0.01578
5397.78378,0.00434
5399.71225,0.03073
5401.64071,0.06109
5403.56918,0.06888
5405.49765,0.07118
5407.42612,0.08127
5409.35459,0.08043
5411.28306,0.06245
5413.21153,0.05431
5415.13999,0.06726
5417.06846,0.07665
5418.99693,0.06709
5420.92540,0.05053
5422.85387,0.04362
5424.78234,0.05240
5426.71081,0.06062
5428.63928,0.04433
5430.56774,0.03485
5432.49621,0.05908
5434.42468,0.07709
5436.35315,0.06632
5438.28162,0.06182
5440.21009,0.07067
5442.13856,0.07303
5444.06702,0.07640
5445.99549,0.08716
5447.92396,0.10124
5449.85243,0.11577
5451.78090,0.11563
5453.70937,0.09669
5455.63784,0.06277
5457.56631,0.02539
5459.49477,0.01423
5461.42324,0.03889
5463.35171,0.06900
5465.28018,0.08261
5467.20865,0.09577
5469.13712,0.11120
5471.06559,0.11519
5472.99405,0.11287
5474.92252,0.10057
5476.85099,0.07964
5478.77946,0.07627
5480.70793,0.08645
5482.63640,0.07999
5484.56487,0.06335
5486.49334,0.08125
5488.42180,0.11877
5490.35027,0.11883
5492.27874,0.09519
5494.20721,0.08372
5496.13568,0.08180
5498.06415,0.08154
5499.99262,0.08022
5501.92108,0.08930
5503.84955,0.09773
5505.77802,0.08082
5507.70649,0.06259
5509.63496,0.06177
5511.56343,0.05989
5513.49190,0.05995
5515.42037,0.07632
5517.34883,0.09875
5519.27730,0.10122
5521.20577,0.08106
5523.13424,0.05620
5525.06271,0.04087
5526.99118,0.03247
5528.91965,0.01765
5530.84811,0.00698
5532.77658,0.02371
5534.70505,0.05095
5536.63352,0.04766
5538.56199,0.03326
5540.49046,0.04104
5542.41893,0.03384
5544.34740,0.00430
5546.27586,-0.00474
5548.20433,0.01797
5550.13280,0.04576
5552.06127,0.04763
5553.98974,0.03975
5555.91821,0.05219
5557.84668,0.06444
5559.77514,0.04375
5561.70361,0.01936
5563.63208,0.05186
5565.56055,0.10892
5567.48902,0.12099
5569.41749,0.11945
5571.34596,0.13426
5573.27443,0.12019
5575.20289,0.06885
5577.13136,0.03130
5579.05983,0.02987
5580.98830,0.04763
5582.91677,0.06100
5584.84524,0.06789
5586.77371,0.07206
5588.70217,0.06694
5590.63064,0.05429
5592.55911,0.04474
5594.48758,0.04854
5596.41605,0.06791
5598.34452,0.09319
5600.27299,0.12251
5602.20145,0.14575
5604.12992,0.13635
5606.05839,0.10534
5607.98686,0.08323
5609.91533,0.06618
5611.84380,0.05133
5613.77227,0.06769
5615.70074,0.11208
5617.62920,0.13153
5619.55767,0.11370
5621.48614,0.09524
5623.41461,0.09772
5625.34308,0.11260
5627.27155,0.10064
5629.20002,0.05642
5631.12848,0.03633
5633.05695,0.05653
5634.98542,0.07023
5636.91389,0.06916
5638.84236,0.09054
5640.77083,0.11295
5642.69930,0.10195
5644.62777,0.07605
5646.55623,0.06854
5648.48470,0.08605
5650.41317,0.10465
5652.34164,0.10210
5654.27011,0.07726
5656.19858,0.04997
5658.12705,0.04722
5660.05551,0.07373
5661.98398,0.08996
5663.91245,0.07751
5665.84092,0.08694
5667.76939,0.12652
5669.69786,0.13916
5671.62633,0.11804
5673.55480,0.09583
5675.48326,0.06965
5677.41173,0.04276
5679.34020,0.03480
5681.26867,0.04014
5683.19714,0.03246
5685.12561,0.01456
5687.05408,0.03372
5688.98254,0.07953
5690.91101,0.09111
5692.83948,0.07982
5694.76795,0.08989
5696.69642,0.11927
5698.62489,0.13246
5700.55336,0.11704
5702.48183,0.10881
5704.41029,0.12873
5706.33876,0.14219
5708.26723,0.13146
5710.19570,0.11434
5712.12417,0.09799
5714.05264,0.08692
5715.98111,0.08216
5717.90957,0.07623
5719.83804,0.06819
5721.76651,0.06824
5723.69498,0.06952
5725.62345,0.05265
5727.55192,0.03842
5729.48039,0.05471
5731.40886,0.09527
5733.33732,0.14015
5735.26579,0.14627
5737.19426,0.11895
5739.12273,0.11369
5741.05120,0.10417
5742.97967,0.07550
5744.90814,0.07018
5746.83660,0.08551
5748.76507,0.07755
5750.69354,0.03939
5752.62201,0.04143
5754.55048,0.09542
5756.47895,0.12575
5758.40742,0.11801
5760.33588,0.11703
5762.26435,0.13086
5764.19282,0.12735
5766.12129,0.11515
5768.04976,0.09914
5769.97823,0.06310
5771.90670,0.05206
5773.83517,0.09957
5775.76363,0.14277
5777.69210,0.12656
5779.62057,0.10031
5781.54904,0.10696
5783.47751,0.10299
5785.40598,0.08998
5787.33445,0.11450
5789.26291,0.11397
5791.19138,0.05202
5793.11985,0.02296
5795.04832,0.03598
5796.97679,0.04980
5798.90526,0.06576
5800.83373,0.07285
5802.76220,0.08063
5804.69066,0.07524
5806.61913,0.04121
5808.54760,0.02857
5810.47607,0.05757
5812.40454,0.09670
5814.33301,0.10984
5816.26148,0.09958
5818.18994,0.09845
5820.11841,0.10976
5822.04688,0.12373
5823.97535,0.13041
5825.90382,0.10539
5827.83229,0.06901
5829.76076,0.07503
5831.68923,0.10448
5833.61769,0.10360
5835.54616,0.09173
5837.47463,0.08810
5839.40310,0.06809
5841.33157,0.05173
5843.26004,0.07081
5845.18851,0.10155
5847.11697,0.10340
5849.04544,0.07144
5850.97391,0.04842
5852.90238,0.07153
5854.83085,0.11511
5856.75932,0.10628
5858.68779,0.04400
5860.61626,0.01443
5862.54472,0.03524
5864.47319,0.05537
5866.40166,0.07470
5868.33013,0.10829
5870.25860,0.12495
5872.18707,0.12167
5874.11554,0.12220
5876.04400,0.11330
5877.97247,0.08482
5879.90094,0.05536
5881.82941,0.05033
5883.75788,0.07338
5885.68635,0.09560
5887.61482,0.11744
5889.54329,0.14483
5891.47175,0.14574
5893.40022,0.12158
5895.32869,0.09421
5897.25716,0.06908
5899.18563,0.07106
5901.11410,0.10650
5903.04257,0.12411
5904.97103,0.09653
5906.89950,0.06186
5908.82797,0.04235
5910.75644,0.03386
5912.68491,0.04636
5914.61338,0.06753
5916.54185,0.07819
5918.47032,0.10326
5920.39878,0.14605
5922.32725,0.15474
5924.25572,0.11563
5926.18419,0.07699
5928.11266,0.06877
5930.04113,0.08006
5931.96960,0.08276
5933.89806,0.06517
5935.82653,0.05698
5937.75500,0.07290
5939.68347,0.08268
5941.61194,0.06892
5943.54041,0.04103
5945.46888,0.01557
5947.39734,0.02844
5949.32581,0.07399
5951.25428,0.10035
5953.18275,0.10840
5955.11122,0.09689
5957.03969,0.07797
5958.96816,0.10598
5960.89663,0.14301
5962.82509,0.13231
5964.75356,0.12102
5966.68203,0.11778
5968.61050,0.07879
5970.53897,0.04377
5972.46744,0.07422
5974.39591,0.14603
5976.32437,0.19262
5978.25284,0.18425
5980.18131,0.13899
5982.10978,0.07372
5984.03825,0.00772
5985.96672,-0.00796
5987.89519,0.03849
5989.82366,0.09701
5991.75212,0.13644
5993.68059,0.13926
5995.60906,0.09498
5997.53753,0.04959
5999.46600,0.05135
6001.39447,0.09296
6003.32294,0.13145
6005.25140,0.12384
6007.17987,0.09060
6009.10834,0.08337
6011.03681,0.11359
6012.96528,0.15072
6014.89375,0.13052
6016.82222,0.06240
6018.75069,0.03394
6020.67915,0.01862
6022.60762,-0.00963
6024.53609,0.01491
6026.46456,0.05687
6028.39303,0.06401
6030.32150,0.05667
6032.24997,0.04497
6034.17843,0.05607
6036.10690,0.08718
6038.03537,0.08139
6039.96384,0.06382
6041.89231,0.06647
6043.82078,0.05410
6045.74925,0.04161
6047.67772,0.07638
6049.60618,0.12971
6051.53465,0.15269
6053.46312,0.15339
6055.39159,0.14151
6057.32006,0.11930
6059.24853,0.11332
6061.17700,0.12912
6063.10546,0.12629
6065.03393,0.09556
6066.96240,0.07500
6068.89087,0.07636
6070.81934,0.06374
6072.74781,0.03622
6074.67628,0.04922
6076.60475,0.08644
6078.53321,0.08368
6080.46168,0.04995
6082.39015,0.02145
6084.31862,0.02001
6086.24709,0.07345
6088.17556,0.13957
6090.10403,0.15313
6092.03249,0.14005
6093.96096,0.14832
6095.88943,0.18242
6097.81790,0.20713
6099.74637,0.18485
6101.67484,0.10637
6103.60331,0.02632
6105.53177,0.01084
6107.46024,0.03701
6109.38871,0.04438
6111.31718,0.03311
6113.24565,0.03565
6115.17412,0.04970
6117.10259,0.07703
6119.03106,0.12907
6120.95952,0.15538
6122.88799,0.12209
6124.81646,0.08183
6126.74493,0.09367
6128.67340,0.14651
6130.60187,0.17124
6132.53034,0.13018
6134.45880,0.08599
6136.38727,0.09580
6138.31574,0.13461
6140.24421,0.17530
6142.17268,0.19507
6144.10115,0.19576
6146.02962,0.19310
6147.95809,0.16165
6149.88655,0.11884
6151.81502,0.11629
6153.74349,0.13468
6155.67196,0.12849
6157.60043,0.09903
6159.52890,0.05496
6161.45737,0.01279
6163.38583,0.00669
6165.31430,0.04092
6167.24277,0.09050
6169.17124,0.14937
6171.09971,0.19561
6173.02818,0.19584
6174.95665,0.16795
6176.88512,0.13487
6178.81358,0.10507
6180.74205,0.09150
6182.67052,0.09841
6184.59899,0.13268
6186.52746,0.17183
6188.45593,0.14267
6190.38440,0.07588
6192.31286,0.06290
6194.24133,0.07816
6196.16980,0.08120
6198.09827,0.06445
6200.02674,0.03414
6201.95521,0.00242
6203.88368,-0.03267
6205.81215,-0.01984
6207.74061,0.06399
6209.66908,0.13611
6211.59755,0.12760
6213.52602,0.05957
6215.45449,0.01643
6217.38296,0.06532
6219.31143,0.12993
6221.23989,0.14209
6223.16836,0.14481
6225.09683,0.17142
6227.02530,0.19879
6228.95377,0.18632
6230.88224,0.13499
6232.81071,0.07082
6234.73918,0.01817
6236.66764,0.01627
6238.59611,0.04943
6240.52458,0.04131
6242.45305,0.00760
6244.38152,0.03272
6246.30999,0.08735
6248.23846,0.10430
6250.16692,0.09480
6252.09539,0.06188
6254.02386,0.00659
6255.95233,0.01193
6257.88080,0.08473
6259.80927,0.12559
6261.73774,0.12721
6263.66621,0.11472
6265.59467,0.09216
6267.52314,0.08421
6269.45161,0.09932
6271.38008,0.12367
6273.30855,0.12490
6275.23702,0.12667
6277.16549,0.18368
6279.09395,0.22023
6281.02242,0.18878
6282.95089,0.16446
6284.87936,0.15089
6286.80783,0.09584
6288.73630,0.04889
6290.66477,0.08000
6292.59323,0.12413
6294.52170,0.09914
6296.45017,0.06030
6298.37864,0.05625
6300.30711,0.05917
6302.23558,0.06051
6304.16405,0.03830
6306.09252,-0.02522
6308.02098,-0.04181
6309.94945,0.04089
6311.87792,0.14232
6313.80639,0.18852
6315.73486,0.17131
6317.66333,0.12368
6319.59180,0.08102
6321.52026,0.05505
6323.44873,0.05228
6325.37720,0.05833
6327.30567,0.04260
6329.23414,0.01276
6331.16261,0.01340
6333.09108,0.06093
6335.01955,0.12070
6336.94801,0.11153
6338.87648,0.02730
6340.80495,-0.02235
6342.73342,0.01241
6344.66189,0.07910
6346.59036,0.13037
6348.51883,0.16265
6350.44729,0.16634
6352.37576,0.12835
6354.30423,0.08690
6356.23270,0.09623
6358.16117,0.15116
6360.08964,0.18132
6362.01811,0.18028
6363.94658,0.19871
6365.87504,0.25032
6367.80351,0.28960
6369.73198,0.26069
6371.66045,0.20522
6373.58892,0.16682
6375.51739,0.11967
6377.44586,0.06778
6379.37432,0.04086
6381.30279,0.03821
6383.23126,0.02859
6385.15973,0.02046
6387.08820,0.03506
6389.01667,0.01594
6390.94514,-0.03188
6392.87361,-0.01095
6394.80207,0.05551
6396.73054,0.05588
6398.65901,0.00311
6400.58748,-0.02441
6402.51595,0.01546
6404.44442,0.09965
6406.37289,0.17310
6408.30135,0.16994
6410.22982,0.11140
6412.15829,0.08180
6414.08676,0.07251
6416.01523,0.05783
6417.94370,0.06144
6419.87217,0.07404
6421.80064,0.07879
6423.72910,0.07209
6425.65757,0.07034
6427.58604,0.10885
6429.51451,0.11799
6431.44298,0.05648
6433.37145,0.04216
6435.29992,0.04799
6437.22838,-0.00331
6439.15685,-0.02284
6441.08532,0.00518
6443.01379,0.03312
6444.94226,0.06626
6446.87073,0.06825
6448.79920,0.03291
6450.72766,0.03492
6452.65613,0.05657
6454.58460,0.02732
6456.51307,-0.00470
6458.44154,0.01074
6460.37001,0.05595
6462.29848,0.08915
6464.22695,0.09555
6466.15541,0.12957
6468.08388,0.18941
6470.01235,0.20815
6471.94082,0.20292
6473.86929,0.26022
6475.79776,0.32714
6477.72623,0.27369
6479.65469,0.16388
6481.58316,0.12119
6483.51163,0.12849
6485.44010,0.11034
6487.36857,0.07078
6489.29704,0.06939
6491.22551,0.11865
6493.15398,0.13644
6495.08244,0.09332
6497.01091,0.08604
6498.93938,0.12621
6500.86785,0.13227
6502.79632,0.10402
6504.72479,0.10471
6506.65326,0.09313
6508.58172,0.01768
6510.51019,-0.02639
6512.43866,0.02415
6514.36713,0.07392
6516.29560,0.04958
6518.22407,-0.03547
6520.15254,-0.11857
6522.08101,-0.14114
6524.00947,-0.07669
6525.93794,0.01625
6527.86641,0.05923
6529.79488,0.05865
6531.72335,0.02297
6533.65182,-0.01703
6535.58029,0.01380
6537.50875,0.10938
6539.43722,0.18753
6541.36569,0.19959
6543.29416,0.16746
6545.22263,0.15527
6547.15110,0.16959
6549.07957,0.15520
6551.00804,0.12185
6552.93650,0.14703
6554.86497,0.20860
6556.79344,0.20035
6558.72191,0.10811
6560.65038,0.03207
6562.57885,0.00897
6564.50732,-0.00623
6566.43578,-0.00567
6568.36425,0.01855
6570.29272,0.07959
6572.22119,0.18191
6574.14966,0.21899
6576.07813,0.17202
6578.00660,0.12943
6579.93507,0.12147
6581.86353,0.17450
6583.79200,0.24622
6585.72047,0.20146
6587.64894,0.08278
6589.57741,0.04123
6591.50588,0.07451
6593.43435,0.08086
6595.36281,0.03722
6597.29128,0.02991
6599.21975,0.11295
6601.14822,0.20114
6603.07669,0.16727
6605.00516,0.07946
6606.93363,0.08015
6608.86210,0.15649
6610.79056,0.17189
6612.71903,0.12485
6614.64750,0.13386
6616.57597,0.18514
6618.50444,0.16110
6620.43291,0.07627
6622.36138,0.01724
6624.28984,0.01853
6626.21831,0.07788
6628.14678,0.16688
6630.07525,0.23490
6632.00372,0.25424
6633.93219,0.24408
6635.86066,0.21409
6637.78912,0.16140
6639.71759,0.11986
6641.64606,0.11815
6643.57453,0.17411
6645.50300,0.23984
6647.43147,0.21367
6649.35994,0.14259
6651.28841,0.13195
6653.21687,0.18028
6655.14534,0.20102
6657.07381,0.11324
6659.00228,0.00357
6660.93075,-0.00738
6662.85922,0.01819
6664.78769,-0.02343
6666.71615,-0.09190
6668.64462,-0.07994
6670.57309,-0.03500
6672.50156,-0.02531
6674.43003,0.03073
6676.35850,0.13564
6678.28697,0.19662
6680.21544,0.16630
6682.14390,0.08150
6684.07237,0.05270
6686.00084,0.07253
6687.92931,0.04943
6689.85778,0.02717
6691.78625,0.03588
6693.71472,0.05776
6695.64318,0.10568
6697.57165,0.13151
6699.50012,0.08739
6701.42859,0.04035
6703.35706,0.03405
6705.28553,-0.01221
6707.21400,-0.09461
6709.14247,-0.10849
6711.07093,-0.05614
6712.99940,0.01314
6714.92787,0.06763
6716.85634,0.07821
6718.78481,0.03396
6720.71328,0.00336
6722.64175,0.06885
6724.57021,0.13931
6726.49868,0.13531
6728.42715,0.12834
6730.35562,0.12609
6732.28409,0.04065
6734.21256,-0.06376
6736.14103,-0.07076
6738.06950,-0.03170
6739.99796,-0.01227
6741.92643,0.03806
6743.85490,0.08807
6745.78337,0.01386
6747.71184,-0.09269
6749.64031,-0.07011
6751.56878,-0.01395
6753.49724,0.00406
6755.42571,0.05694
6757.35418,0.14391
6759.28265,0.20654
6761.21112,0.20352
6763.13959,0.16764
6765.06806,0.14985
6766.99653,0.11934
6768.92499,0.03532
6770.85346,-0.04310
6772.78193,-0.04612
6774.71040,-0.02015
6776.63887,-0.02250
6778.56734,-0.00456
6780.49581,0.06571
6782.42427,0.11863
6784.35274,0.09813
6786.28121,0.04106
6788.20968,-0.00537
6790.13815,-0.04961
6792.06662,-0.05291
6793.99509,0.01817
6795.92355,0.08202
6797.85202,0.10781
6799.78049,0.11828
6801.70896,0.12897
6803.63743,0.14125
6805.56590,0.12967
6807.49437,0.14019
6809.42284,0.15036
6811.35130,0.10332
6813.27977,0.11668
6815.20824,0.19282
6817.13671,0.14962
6819.06518,0.05016
6820.99365,-0.00809
6822.92212,-0.08997
6824.85058,-0.11794
6826.77905,-0.05020
6828.70752,-0.02338
6830.63599,-0.03424
6832.56446,-0.01585
6834.49293,-0.02087
6836.42140,0.00119
6838.34987,0.09600
6840.27833,0.09319
6842.20680,-0.01883
6844.13527,-0.03975
6846.06374,0.07276
6847.99221,0.16830
6849.92068,0.17360
6851.84915,0.18552
6853.77761,0.27419
6855.70608,0.36757
6857.63455,0.28957
6859.56302,0.10742
6861.49149,-0.01618
6863.41996,-0.07243
6865.34843,-0.11713
6867.27690,-0.14504
6869.20536,-0.11348
6871.13383,-0.05255
6873.06230,-0.03819
6874.99077,-0.09780
6876.91924,-0.14352
6878.84771,-0.07525
6880.77618,0.05104
6882.70464,0.13546
6884.63311,0.19397
6886.56158,0.18461
6888.49005,0.09449
6890.41852,0.04322
6892.34699,0.03866
6894.27546,0.01494
6896.20393,0.00849
6898.13239,-0.00196
6900.06086,-0.01286
6901.98933,0.08563
6903.91780,0.21070
6905.84627,0.18183
6907.77474,0.12083
6909.70321,0.11081
6911.63167,0.04860
6913.56014,-0.03465
6915.48861,-0.01959
6917.41708,0.08224
6919.34555,0.11842
6921.27402,0.08636
6923.20249,0.10532
6925.13096,0.14116
6927.05942,0.15219
6928.98789,0.13846
6930.91636,0.16153
6932.84483,0.24578
6934.77330,0.24200
6936.70177,0.10704
6938.63024,-0.01866
6940.55870,-0.00993
6942.48717,0.07180
6944.41564,0.12579
6946.34411,0.14130
6948.27258,0.14381
6950.20105,0.11531
6952.12952,0.04564
6954.05799,0.00345
6955.98645,0.03597
6957.91492,0.12256
6959.84339,0.23428
6961.77186,0.32542
6963.70033,0.35243
6965.62880,0.30467
6967.55727,0.18865
6969.48573,0.03538
6971.41420,-0.13717
6973.34267,-0.27010
6975.27114,-0.27459
6977.19961,-0.13470
6979.12808,0.00555
6981.05655,-0.00046
6982.98501,-0.03846
6984.91348,0.02610
6986.84195,0.06920
6988.77042,0.04096
6990.69889,0.07030
6992.62736,0.17211
6994.55583,0.23697
6996.48430,0.23467
6998.41276,0.21842
7000.34123,0.18150
7002.26970,0.09514
7004.19817,0.01595
7006.12664,-0.03929
7008.05511,-0.06661
7009.98358,-0.07209
7011.91204,-0.08419
7013.84051,-0.04244
7015.76898,0.00508
7017.69745,-0.01983
7019.62592,-0.01440
7021.55439,0.03182
7023.48286,0.00656
7025.41133,-0.08768
7027.33979,-0.14987
7029.26826,-0.09776
7031.19673,0.00136
7033.12520,0.04613
7035.05367,0.06564
7036.98214,0.11220
7038.91061,0.15205
7040.83907,0.11084
7042.76754,0.00370
7044.69601,-0.06996
7046.62448,-0.09216
7048.55295,-0.05949
7050.48142,-0.02590
7052.40989,0.01038
7054.33836,0.13722
7056.26682,0.27580
7058.19529,0.19814
7060.12376,0.01098
7062.05223,0.03007
7063.98070,0.18606
7065.90917,0.18105
7067.83764,0.01336
7069.76610,-0.14043
7071.69457,-0.15437
7073.62304,-0.08363
7075.55151,-0.02638
7077.47998,0.00389
7079.40845,-0.02250
7081.33692,-0.05283
7083.26539,0.05711
7085.19385,0.19659
7087.12232,0.24842
7089.05079,0.25021
7090.97926,0.23208
7092.90773,0.18331
7094.83620,0.15651
7096.76467,0.14999
7098.69313,0.12957
7100.62160,0.11066
7102.55007,0.09665
7104.47854,0.10933
7106.40701,0.09360
7108.33548,-0.00710
7110.26395,-0.07498
7112.19242,-0.00865
7114.12088,0.10668
7116.04935,0.09870
7117.97782,-0.02504
7119.90629,-0.07168
7121.83476,0.03363
7123.76323,0.13438
7125.69170,0.05675
7127.62016,-0.01751
7129.54863,0.07001
7131.47710,0.13994
7133.40557,0.15084
7135.33404,0.15492
7137.26251,0.10438
7139.19098,0.07974
7141.11944,0.19267
7143.04791,0.28392
7144.97638,0.21299
7146.90485,0.14131
7148.83332,0.11872
7150.76179,-0.01223
7152.69026,-0.19048
7154.61873,-0.22211
7156.54719,-0.09600
7158.47566,0.07778
7160.40413,0.13647
7162.33260,-0.01520
7164.26107,-0.16670
7166.18954,-0.06040
7168.11801,0.11601
7170.04647,0.01110
7171.97494,-0.11842
7173.90341,0.01059
7175.83188,0.14649
7177.76035,0.14879
7179.68882,0.17717
7181.61729,0.30012
7183.54576,0.36450
7185.47422,0.21261
7187.40269,0.00545
7189.33116,-0.06210
7191.25963,0.01934
7193.18810,0.16745
7195.11657,0.30573
7197.04504,0.29004
7198.97350,0.06239
7200.90197,-0.15125
7202.83044,-0.16758
7204.75891,-0.09109
7206.68738,-0.06051
7208.61585,0.06975
7210.54432,0.21792
7212.47279,0.22707
7214.40125,0.16150
7216.32972,0.04009
7218.25819,-0.11619
7220.18666,-0.06156
7222.11513,0.12236
7224.04360,0.20468
7225.97207,0.12409
7227.90053,0.04728
7229.82900,0.02942
7231.75747,-0.01348
7233.68594,-0.02666
7235.61441,0.01070
7237.54288,0.04328
7239.47135,-0.01273
7241.39982,-0.14258
7243.32828,-0.14704
7245.25675,-0.02375
7247.18522,-0.00037
7249.11369,-0.04989
7251.04216,-0.03162
7252.97063,0.07743
7254.89910,0.10300
7256.82756,0.05885
7258.75603,0.09197
7260.68450,0.18132
7262.61297,0.17609
7264.54144,0.02258
7266.46991,-0.21085
7268.39838,-0.34069
7270.32685,-0.35992
7272.25531,-0.38065
7274.18378,-0.27793
7276.11225,-0.00722
7278.04072,0.21986
7279.96919,0.21176
7281.89766,0.10489
7283.82613,0.06510
7285.75459,0.04362
7287.68306,0.05346
7289.61153,0.13471
7291.54000,0.24961
7293.46847,0.18684
7295.39694,0.03162
7297.32541,0.07054
7299.25387,0.17599
7301.18234,0.14612
7303.11081,0.04701
7305.03928,-0.00490
7306.96775,-0.04531
7308.89622,0.03486
7310.82469,0.28786
7312.75316,0.42540
7314.68162,0.41102
7316.61009,0.29926
7318.53856,0.15278
7320.46703,0.00241
7322.39550,-0.10858
7324.32397,-0.06785
7326.25244,0.11003
7328.18090,0.31862
7330.10937,0.34179
7332.03784,0.20714
7333.96631,0.12048
7335.89478,0.04960
7337.82325,-0.07925
7339.75172,-0.13085
7341.68019,0.04609
7343.60865,0.12176
7345.53712,0.04808
7347.46559,-0.05201
7349.39406,-0.10179
7351.32253,-0.01594
7353.25100,0.18312
7355.17947,0.32997
7357.10793,0.26003
7359.03640,-0.03539
7360.96487,-0.17466
7362.89334,-0.05606
7364.82181,-0.01954
7366.75028,-0.06526
7368.67875,-0.04072
7370.60722,-0.03048
7372.53568,-0.04358
7374.46415,0.08222
7376.39262,0.34974
7378.32109,0.48762
7380.24956,0.46012
7382.17803,0.23853
7384.10650,-0.06346
7386.03496,-0.25826
7387.96343,-0.27722
7389.89190,-0.11277
7391.82037,0.12966
7393.74884,0.28502
7395.67731,0.31196
7397.60578,0.23728
7399.53425,0.11815
7401.46271,0.10078
7403.39118,0.11194
7405.31965,0.03805
7407.24812,0.03733
7409.17659,0.08414
7411.10506,0.12088
7413.03353,0.19325
7414.96199,0.25185
7416.89046,0.18087
7418.81893,-0.03617
7420.74740,-0.18895
7422.67587,-0.21398
7424.60434,-0.16047
7426.53281,-0.05201
7428.46128,-0.00082
7430.38974,-0.00463
7432.31821,0.06809
7434.24668,0.11572
7436.17515,0.11360
7438.10362,0.16047
7440.03209,0.17126
7441.96056,0.08314
7443.88902,-0.01685
7445.81749,-0.00712
7447.74596,0.02268
7449.67443,-0.09097
7451.60290,-0.26401
7453.53137,-0.35489
7455.45984,-0.29235
7457.38831,-0.09288
7459.31677,0.06202
7461.24524,0.09973
7463.17371,0.13783
7465.10218,0.08505
7467.03065,-0.08970
7468.95912,-0.18857
7470.88759,-0.15224
7472.81605,-0.09991
7474.74452,-0.05585
7476.67299,0.09013
7478.60146,0.26307
7480.52993,0.21677
7482.45840,0.07969
7484.38687,0.15211
7486.31533,0.31971
7488.24380,0.34583
7490.17227,0.24104
7492.10074,0.20285
7494.02921,0.20457
7495.95768,0.08681
7497.88615,-0.06377
