399.19301,0.93907
401.12148,1.00060
403.04995,0.93311
404.97842,0.51357
406.90689,0.13826
408.83536,-0.07419
410.76382,-0.09212
412.69229,0.03417
414.62076,0.15791
416.54923,0.24532
418.47770,0.26667
420.40617,0.20233
422.33464,0.13878
424.26311,0.07227
426.19157,0.04937
428.12004,0.12655
430.04851,0.26450
431.97698,0.28994
433.90545,0.16607
435.83392,0.09750
437.76239,0.10224
439.69085,0.06801
441.61932,-0.00913
443.54779,-0.07428
445.47626,-0.05338
447.40473,0.08605
449.33320,0.18101
451.26167,0.15443
453.19013,0.10183
455.11860,0.07058
457.04707,0.10623
458.97554,0.22001
460.90401,0.28714
462.83248,0.24692
464.76095,0.17566
466.68942,0.15363
468.61788,0.16286
470.54635,0.18728
472.47482,0.23417
474.40329,0.26834
476.33176,0.24491
478.26023,0.20230
480.18870,0.16667
482.11716,0.11669
484.04563,0.04664
485.97410,0.05612
487.90257,0.14100
489.83104,0.16632
491.75951,0.13715
493.68798,0.12179
495.61645,0.12008
497.54491,0.12196
499.47338,0.12440
501.40185,0.12823
503.33032,0.13086
505.25879,0.13567
507.18726,0.12950
509.11573,0.09885
511.04419,0.07485
512.97266,0.07818
514.90113,0.08290
516.82960,0.07780
518.75807,0.10388
520.68654,0.14919
522.61501,0.18274
524.54348,0.19007
526.47194,0.15846
528.40041,0.14399
530.32888,0.16890
532.25735,0.18876
534.18582,0.20175
536.11429,0.21160
538.04276,0.18326
539.97122,0.14326
541.89969,0.13182
543.82816,0.12893
545.75663,0.10565
547.68510,0.09034
549.61357,0.09532
551.54204,-0.03111
553.47051,-0.22684
555.39897,-0.18839
557.32744,-0.00088
559.25591,0.07841
561.18438,0.07367
563.11285,0.06369
565.04132,0.08474
566.96979,0.13396
568.89825,0.15936
570.82672,0.15144
572.75519,0.14572
574.68366,0.15534
576.61213,0.15994
578.54060,0.16030
580.46907,0.16928
582.39754,0.18009
584.32600,0.17404
586.25447,0.14470
588.18294,0.11657
590.11141,0.11607
592.03988,0.12866
593.96835,0.13723
595.89682,0.15396
597.82528,0.16438
599.75375,0.15030
601.68222,0.12846
603.61069,0.12440
605.53916,0.14091
607.46763,0.14176
609.39610,0.11154
611.32456,0.09199
613.25303,0.09882
615.18150,0.10183
617.10997,0.08857
619.03844,0.07241
620.96691,0.08240
622.89538,0.11028
624.82385,0.12158
626.75231,0.12819
628.68078,0.15212
630.60925,0.19835
632.53772,0.23054
634.46619,0.19632
636.39466,0.14898
638.32313,0.14225
640.25159,0.14278
642.18006,0.12540
644.10853,0.10498
646.03700,0.10371
647.96547,0.11309
649.89394,0.11633
651.82241,0.12531
653.75088,0.13136
655.67934,0.12126
657.60781,0.11397
659.53628,0.12438
661.46475,0.14053
663.39322,0.14816
665.32169,0.14885
667.25016,0.14832
669.17862,0.15838
671.10709,0.17292
673.03556,0.17112
674.96403,0.14682
676.89250,0.11136
678.82097,0.09355
680.74944,0.10657
682.67791,0.12205
684.60637,0.12565
686.53484,0.12925
688.46331,0.12988
690.39178,0.13261
692.32025,0.13746
694.24872,0.13473
696.17719,0.12904
698.10565,0.12236
700.03412,0.12053
701.96259,0.12804
703.89106,0.13877
705.81953,0.14405
707.74800,0.15092
709.67647,0.19360
711.60494,0.24374
713.53340,0.23117
715.46187,0.18499
717.39034,0.15403
719.31881,0.13193
721.24728,0.12242
723.17575,0.12857
725.10422,0.13915
727.03268,0.13495
728.96115,0.11703
730.88962,0.11847
732.81809,0.14225
734.74656,0.15519
736.67503,0.14683
738.60350,0.13507
740.53197,0.12686
742.46043,0.12378
744.38890,0.12800
746.31737,0.12699
748.24584,0.12006
750.17431,0.12050
752.10278,0.12540
754.03125,0.12767
755.95971,0.13618
757.88818,0.14332
759.81665,0.12827
761.74512,0.11124
763.67359,0.11951
765.60206,0.13735
767.53053,0.14280
769.45900,0.14143
771.38746,0.14716
773.31593,0.15617
775.24440,0.15723
777.17287,0.15041
779.10134,0.13900
781.02981,0.12460
782.95828,0.11237
784.88674,0.11031
786.81521,0.11660
788.74368,0.11671
790.67215,0.11310
792.60062,0.11945
794.52909,0.12819
796.45756,0.12809
798.38602,0.12838
800.31449,0.13681
802.24296,0.14497
804.17143,0.14614
806.09990,0.14423
808.02837,0.14356
809.95684,0.13760
811.88531,0.12688
813.81377,0.12804
815.74224,0.13812
817.67071,0.14463
819.59918,0.14712
821.52765,0.14437
823.45612,0.13960
825.38459,0.14002
827.31305,0.14291
829.24152,0.14060
831.16999,0.13865
833.09846,0.14619
835.02693,0.15933
836.95540,0.16111
838.88387,0.14257
840.81234,0.12538
842.74080,0.13139
844.66927,0.14797
846.59774,0.15474
848.52621,0.15531
850.45468,0.15185
852.38315,0.13935
854.31162,0.13065
856.24008,0.13539
858.16855,0.13987
860.09702,0.14143
862.02549,0.15095
863.95396,0.15624
865.88243,0.14937
867.81090,0.14538
869.73937,0.14604
871.66783,0.14476
873.59630,0.14310
875.52477,0.13728
877.45324,0.13236
879.38171,0.14263
881.31018,0.15082
883.23865,0.14212
885.16711,0.13865
887.09558,0.14915
889.02405,0.15403
890.95252,0.14545
892.88099,0.14099
894.80946,0.14853
896.73793,0.15615
898.66640,0.15924
900.59486,0.15773
902.52333,0.14959
904.45180,0.14257
906.38027,0.14527
908.30874,0.14861
910.23721,0.14373
912.16568,0.14013
914.09414,0.14372
916.02261,0.14424
917.95108,0.13616
919.87955,0.12845
921.80802,0.12977
923.73649,0.13918
925.66496,0.14868
927.59343,0.15242
929.52189,0.15063
931.45036,0.14417
933.37883,0.13717
935.30730,0.13565
937.23577,0.13725
939.16424,0.14045
941.09271,0.14910
943.02117,0.15700
944.94964,0.15721
946.87811,0.15459
948.80658,0.15227
950.73505,0.14751
952.66352,0.14112
954.59199,0.14368
956.52045,0.15755
958.44892,0.16179
960.37739,0.15184
962.30586,0.14766
964.23433,0.14742
966.16280,0.14121
968.09127,0.13889
970.01974,0.14446
971.94820,0.15088
973.87667,0.15405
975.80514,0.15549
977.73361,0.16285
979.66208,0.17238
981.59055,0.16780
983.51902,0.15572
985.44748,0.15557
987.37595,0.16242
989.30442,0.16390
991.23289,0.15999
993.16136,0.15628
995.08983,0.15614
997.01830,0.15551
998.94677,0.15488
1000.87523,0.16135
1002.80370,0.17063
1004.73217,0.16842
1006.66064,0.15594
1008.58911,0.15335
1010.51758,0.16265
1012.44605,0.16052
1014.37451,0.14361
1016.30298,0.13644
1018.23145,0.14587
1020.15992,0.15253
1022.08839,0.15213
1024.01686,0.15502
1025.94533,0.15378
1027.87380,0.14270
1029.80226,0.13450
1031.73073,0.13570
1033.65920,0.14280
1035.58767,0.14868
1037.51614,0.15216
1039.44461,0.16225
1041.37308,0.17261
1043.30154,0.17033
1045.23001,0.16421
1047.15848,0.16163
1049.08695,0.15749
1051.01542,0.15656
1052.94389,0.15822
1054.87236,0.15529
1056.80083,0.15183
1058.72929,0.15276
1060.65776,0.16185
1062.58623,0.17011
1064.51470,0.16394
1066.44317,0.15567
1068.37164,0.15870
1070.30011,0.16473
1072.22857,0.16701
1074.15704,0.16717
1076.08551,0.16850
1078.01398,0.17149
1079.94245,0.16836
1081.87092,0.16063
1083.79939,0.15962
1085.72786,0.16384
1087.65632,0.16300
1089.58479,0.15663
1091.51326,0.15462
1093.44173,0.16222
1095.37020,0.17321
1097.29867,0.17949
1099.22714,0.18042
1101.15560,0.17388
1103.08407,0.16197
1105.01254,0.15488
1106.94101,0.15385
1108.86948,0.15792
1110.79795,0.16555
1112.72642,0.17383
1114.65489,0.18035
1116.58335,0.18060
1118.51182,0.17533
1120.44029,0.16941
1122.36876,0.16488
1124.29723,0.16182
1126.22570,0.16225
1128.15417,0.16272
1130.08263,0.15997
1132.01110,0.16229
1133.93957,0.16770
1135.86804,0.16336
1137.79651,0.15381
1139.72498,0.14875
1141.65345,0.14591
1143.58191,0.14809
1145.51038,0.15488
1147.43885,0.15689
1149.36732,0.15813
1151.29579,0.16373
1153.22426,0.16648
1155.15273,0.16599
1157.08120,0.16654
1159.00966,0.16763
1160.93813,0.16953
1162.86660,0.16991
1164.79507,0.16796
1166.72354,0.16739
1168.65201,0.16798
1170.58048,0.16716
1172.50894,0.16511
1174.43741,0.16329
1176.36588,0.16130
1178.29435,0.16061
1180.22282,0.16297
1182.15129,0.16687
1184.07976,0.17033
1186.00823,0.17140
1187.93669,0.16886
1189.86516,0.16440
1191.79363,0.16218
1193.72210,0.16325
1195.65057,0.16536
1197.57904,0.16589
1199.50751,0.16514
1201.43597,0.16688
1203.36444,0.16825
1205.29291,0.16351
1207.22138,0.15704
1209.14985,0.15670
1211.07832,0.16146
1213.00679,0.16543
1214.93526,0.16745
1216.86372,0.16955
1218.79219,0.16987
1220.72066,0.16682
1222.64913,0.16462
1224.57760,0.16480
1226.50607,0.16498
1228.43454,0.16584
1230.36300,0.16768
1232.29147,0.16796
1234.21994,0.16444
1236.14841,0.15987
1238.07688,0.15925
1240.00535,0.15926
1241.93382,0.15822
1243.86229,0.16191
1245.79075,0.16636
1247.71922,0.16539
1249.64769,0.16251
1251.57616,0.16123
1253.50463,0.16151
1255.43310,0.16161
1257.36157,0.16076
1259.29003,0.16065
1261.21850,0.16363
1263.14697,0.17028
1265.07544,0.17579
1267.00391,0.17403
1268.93238,0.16805
1270.86085,0.16592
1272.78932,0.16705
1274.71778,0.16747
1276.64625,0.17082
1278.57472,0.17660
1280.50319,0.17647
1282.43166,0.17164
1284.36013,0.16918
1286.28860,0.16914
1288.21706,0.16981
1290.14553,0.17117
1292.07400,0.17181
1294.00247,0.17077
1295.93094,0.16835
1297.85941,0.16416
1299.78788,0.15820
1301.71634,0.15226
1303.64481,0.14928
1305.57328,0.15280
1307.50175,0.16312
1309.43022,0.17327
1311.35869,0.17763
1313.28716,0.17868
1315.21563,0.17933
1317.14409,0.17912
1319.07256,0.17642
1321.00103,0.17190
1322.92950,0.16987
1324.85797,0.16980
1326.78644,0.16850
1328.71491,0.16754
1330.64337,0.16556
1332.57184,0.16239
1334.50031,0.16320
1336.42878,0.16792
1338.35725,0.17271
1340.28572,0.17190
1342.21419,0.16600
1344.14266,0.15966
1346.07112,0.15470
1347.99959,0.15738
1349.92806,0.16524
1351.85653,0.16903
1353.78500,0.17033
1355.71347,0.17330
1357.64194,0.17825
1359.57040,0.18319
1361.49887,0.18489
1363.42734,0.18179
1365.35581,0.17798
1367.28428,0.17772
1369.21275,0.18004
1371.14122,0.18272
1373.06969,0.18421
1374.99815,0.18195
1376.92662,0.17877
1378.85509,0.17702
1380.78356,0.17440
1382.71203,0.17372
1384.64050,0.17820
1386.56897,0.18379
1388.49743,0.18231
1390.42590,0.17736
1392.35437,0.18069
1394.28284,0.19155
1396.21131,0.19575
1398.13978,0.19006
1400.06825,0.18381
1401.99672,0.18375
1403.92518,0.19018
1405.85365,0.19478
1407.78212,0.19170
1409.71059,0.18576
1411.63906,0.18094
1413.56753,0.18053
1415.49600,0.18577
1417.42446,0.19276
1419.35293,0.19502
1421.28140,0.19545
1423.20987,0.19613
1425.13834,0.19051
1427.06681,0.18193
1428.99528,0.17919
1430.92375,0.18413
1432.85221,0.19103
1434.78068,0.19711
1436.70915,0.19870
1438.63762,0.18968
1440.56609,0.17920
1442.49456,0.17457
1444.42303,0.17687
1446.35149,0.18224
1448.27996,0.18593
1450.20843,0.18744
1452.13690,0.19111
1454.06537,0.20334
1455.99384,0.22431
1457.92231,0.22736
1459.85077,0.20712
1461.77924,0.19609
1463.70771,0.19554
1465.63618,0.19335
1467.56465,0.18734
1469.49312,0.19017
1471.42159,0.20296
1473.35006,0.21154
1475.27852,0.20671
1477.20699,0.19821
1479.13546,0.19192
1481.06393,0.18704
1482.99240,0.18283
1484.92087,0.18573
1486.84934,0.19950
1488.77780,0.21584
1490.70627,0.21545
1492.63474,0.20374
1494.56321,0.19843
1496.49168,0.20176
1498.42015,0.20454
1500.34862,0.19935
1502.27709,0.19460
1504.20555,0.20337
1506.13402,0.23379
1508.06249,0.24577
1509.99096,0.22463
1511.91943,0.20794
1513.84790,0.20425
1515.77637,0.21603
1517.70483,0.23120
1519.63330,0.24045
1521.56177,0.24506
1523.49024,0.23763
1525.41871,0.22762
1527.34718,0.21822
1529.27565,0.21013
1531.20412,0.20971
1533.13258,0.21490
1535.06105,0.21566
1536.98952,0.21732
1538.91799,0.23136
1540.84646,0.24082
1542.77493,0.22127
1544.70340,0.20436
1546.63186,0.19860
1548.56033,0.19976
1550.48880,0.20360
1552.41727,0.20745
1554.34574,0.21089
1556.27421,0.21720
1558.20268,0.23078
1560.13115,0.22471
1562.05961,0.20928
1563.98808,0.20338
1565.91655,0.20345
1567.84502,0.20936
1569.77349,0.21118
1571.70196,0.20103
1573.63043,0.19504
1575.55889,0.19670
1577.48736,0.19757
1579.41583,0.19403
1581.34430,0.18939
1583.27277,0.18682
1585.20124,0.18508
1587.12971,0.18287
1589.05818,0.18189
1590.98664,0.18142
1592.91511,0.18163
1594.84358,0.18314
1596.77205,0.18464
1598.70052,0.18466
1600.62899,0.18274
1602.55746,0.18187
1604.48592,0.18318
1606.41439,0.18243
1608.34286,0.17913
1610.27133,0.17779
1612.19980,0.18060
1614.12827,0.18817
1616.05674,0.19932
1617.98521,0.20387
1619.91367,0.20405
1621.84214,0.20798
1623.77061,0.20811
1625.69908,0.20063
1627.62755,0.19543
1629.55602,0.19397
1631.48449,0.19391
1633.41295,0.20001
1635.34142,0.21495
1637.26989,0.21621
1639.19836,0.20269
1641.12683,0.19364
1643.05530,0.19565
1644.98377,0.21054
1646.91223,0.22705
1648.84070,0.22550
1650.76917,0.22777
1652.69764,0.24507
1654.62611,0.23645
1656.55458,0.21427
1658.48305,0.20432
1660.41152,0.20522
1662.33998,0.21143
1664.26845,0.21263
1666.19692,0.21277
1668.12539,0.21850
1670.05386,0.22143
1671.98233,0.21624
1673.91080,0.21485
1675.83926,0.21438
1677.76773,0.21063
1679.69620,0.21108
1681.62467,0.22082
1683.55314,0.23994
1685.48161,0.23966
1687.41008,0.22268
1689.33855,0.21292
1691.26701,0.20955
1693.19548,0.21146
1695.12395,0.21746
1697.05242,0.22301
1698.98089,0.22717
1700.90936,0.22558
1702.83783,0.22213
1704.76629,0.22164
1706.69476,0.21492
1708.62323,0.20416
1710.55170,0.20078
1712.48017,0.20575
1714.40864,0.21410
1716.33711,0.21952
1718.26558,0.21090
1720.19404,0.19764
1722.12251,0.19349
1724.05098,0.19382
1725.97945,0.19204
1727.90792,0.19150
1729.83639,0.19849
1731.76486,0.21281
1733.69332,0.22112
1735.62179,0.21120
1737.55026,0.20309
1739.47873,0.20167
1741.40720,0.20242
1743.33567,0.20171
1745.26414,0.20087
1747.19261,0.20826
1749.12107,0.21830
1751.04954,0.21244
1752.97801,0.20007
1754.90648,0.19565
1756.83495,0.19631
1758.76342,0.19821
1760.69189,0.20099
1762.62035,0.20051
1764.54882,0.19724
1766.47729,0.19894
1768.40576,0.20680
1770.33423,0.21641
1772.26270,0.21969
1774.19117,0.21232
1776.11964,0.20441
1778.04810,0.20192
1779.97657,0.20223
1781.90504,0.19905
1783.83351,0.19521
1785.76198,0.19401
1787.69045,0.19382
1789.61892,0.19789
1791.54738,0.20590
1793.47585,0.20617
1795.40432,0.19891
1797.33279,0.19433
1799.26126,0.19459
1801.18973,0.19631
1803.11820,0.19543
1805.04666,0.19337
1806.97513,0.19367
1808.90360,0.19646
1810.83207,0.19797
1812.76054,0.19553
1814.68901,0.19321
1816.61748,0.20231
1818.54595,0.22437
1820.47441,0.22965
1822.40288,0.20828
1824.33135,0.19211
1826.25982,0.19240
1828.18829,0.19604
1830.11676,0.19903
1832.04523,0.19602
1833.97369,0.19229
1835.90216,0.19128
1837.83063,0.18749
1839.75910,0.18497
1841.68757,0.19147
1843.61604,0.20126
1845.54451,0.20111
1847.47298,0.19413
1849.40144,0.18839
1851.32991,0.18495
1853.25838,0.18362
1855.18685,0.18560
1857.11532,0.18942
1859.04379,0.19079
1860.97226,0.18937
1862.90072,0.18873
1864.82919,0.19193
1866.75766,0.20005
1868.68613,0.20694
1870.61460,0.20221
1872.54307,0.19294
1874.47154,0.18710
1876.40001,0.18385
1878.32847,0.18268
1880.25694,0.18399
1882.18541,0.18708
1884.11388,0.18867
1886.04235,0.18815
1887.97082,0.19033
1889.89929,0.19377
1891.82775,0.19402
1893.75622,0.19241
1895.68469,0.18819
1897.61316,0.18303
1899.54163,0.18257
1901.47010,0.18621
1903.39857,0.18963
1905.32704,0.19212
1907.25550,0.19445
1909.18397,0.19538
1911.11244,0.19354
1913.04091,0.18972
1914.96938,0.18806
1916.89785,0.19182
1918.82632,0.19644
1920.75478,0.19699
1922.68325,0.19344
1924.61172,0.18803
1926.54019,0.18739
1928.46866,0.19280
1930.39713,0.19704
1932.32560,0.19511
1934.25407,0.19125
1936.18253,0.18903
1938.11100,0.18778
1940.03947,0.19038
1941.96794,0.19496
1943.89641,0.19349
1945.82488,0.19036
1947.75335,0.19161
1949.68181,0.19295
1951.61028,0.19266
1953.53875,0.19175
1955.46722,0.18825
1957.39569,0.18509
1959.32416,0.18697
1961.25263,0.18990
1963.18110,0.19025
1965.10956,0.19152
1967.03803,0.19266
1968.96650,0.18996
1970.89497,0.18721
1972.82344,0.18929
1974.75191,0.19820
1976.68038,0.20794
1978.60884,0.20744
1980.53731,0.19865
1982.46578,0.19278
1984.39425,0.19131
1986.32272,0.18915
1988.25119,0.18814
1990.17966,0.19120
1992.10812,0.19319
1994.03659,0.19126
1995.96506,0.18863
1997.89353,0.18693
1999.82200,0.18673
2001.75047,0.18715
2003.67894,0.18744
2005.60741,0.18949
2007.53587,0.19295
2009.46434,0.19591
2011.39281,0.19717
2013.32128,0.19663
2015.24975,0.19655
2017.17822,0.19569
2019.10669,0.19317
2021.03515,0.19180
2022.96362,0.19054
2024.89209,0.18811
2026.82056,0.18637
2028.74903,0.18680
2030.67750,0.18752
2032.60597,0.18650
2034.53444,0.18619
2036.46290,0.18883
2038.39137,0.19193
2040.31984,0.19262
2042.24831,0.19190
2044.17678,0.19078
2046.10525,0.18889
2048.03372,0.18727
2049.96218,0.18703
2051.89065,0.18698
2053.81912,0.18640
2055.74759,0.18832
2057.67606,0.19296
2059.60453,0.19597
2061.53300,0.19580
2063.46147,0.19375
2065.38993,0.19193
2067.31840,0.19224
2069.24687,0.19202
2071.17534,0.18942
2073.10381,0.18767
2075.03228,0.18982
2076.96075,0.19392
2078.88921,0.19463
2080.81768,0.19223
2082.74615,0.18954
2084.67462,0.18815
2086.60309,0.18995
2088.53156,0.19159
2090.46003,0.19132
2092.38850,0.19105
2094.31696,0.18883
2096.24543,0.18589
2098.17390,0.18628
2100.10237,0.18784
2102.03084,0.18824
2103.95931,0.18847
2105.88778,0.18862
2107.81624,0.19004
2109.74471,0.19312
2111.67318,0.19451
2113.60165,0.19267
2115.53012,0.18951
2117.45859,0.18800
2119.38706,0.18951
2121.31553,0.19220
2123.24399,0.19446
2125.17246,0.19465
2127.10093,0.19168
2129.02940,0.18989
2130.95787,0.19073
2132.88634,0.19061
2134.81481,0.18926
2136.74327,0.18822
2138.67174,0.18922
2140.60021,0.19205
2142.52868,0.19268
2144.45715,0.19019
2146.38562,0.18895
2148.31409,0.18991
2150.24255,0.18948
2152.17102,0.18812
2154.09949,0.18910
2156.02796,0.19119
2157.95643,0.19159
2159.88490,0.19141
2161.81337,0.19214
2163.74184,0.19232
2165.67030,0.19156
2167.59877,0.19287
2169.52724,0.19663
2171.45571,0.19809
2173.38418,0.19635
2175.31265,0.19464
2177.24112,0.19397
2179.16958,0.19557
2181.09805,0.19862
2183.02652,0.19875
2184.95499,0.19517
2186.88346,0.19127
2188.81193,0.18982
2190.74040,0.18992
2192.66887,0.19001
2194.59733,0.18990
2196.52580,0.18880
2198.45427,0.18741
2200.38274,0.18627
2202.31121,0.18565
2204.23968,0.18764
2206.16815,0.19025
2208.09661,0.19053
2210.02508,0.19016
2211.95355,0.18890
2213.88202,0.18733
2215.81049,0.18886
2217.73896,0.19150
2219.66743,0.19192
2221.59590,0.19085
2223.52436,0.18995
2225.45283,0.19075
2227.38130,0.19212
2229.30977,0.19171
2231.23824,0.19148
2233.16671,0.19226
2235.09518,0.19085
2237.02364,0.18837
2238.95211,0.18827
2240.88058,0.18937
2242.80905,0.18946
2244.73752,0.18911
2246.66599,0.18838
2248.59446,0.18685
2250.52293,0.18647
2252.45139,0.18845
2254.37986,0.19149
2256.30833,0.19311
2258.23680,0.19251
2260.16527,0.19209
2262.09374,0.19208
2264.02221,0.19216
2265.95067,0.19280
2267.87914,0.19140
2269.80761,0.19025
2271.73608,0.19303
2273.66455,0.19421
2275.59302,0.19193
2277.52149,0.19082
2279.44996,0.19028
2281.37842,0.18912
2283.30689,0.18832
2285.23536,0.18792
2287.16383,0.18850
2289.09230,0.19053
2291.02077,0.19339
2292.94924,0.19606
2294.87770,0.19771
2296.80617,0.19823
2298.73464,0.19899
2300.66311,0.20025
2302.59158,0.19886
2304.52005,0.19514
2306.44852,0.19357
2308.37699,0.19292
2310.30545,0.19015
2312.23392,0.19008
2314.16239,0.19487
2316.09086,0.19796
2318.01933,0.19690
2319.94780,0.19596
2321.87627,0.20037
2323.80473,0.21059
2325.73320,0.21713
2327.66167,0.21365
2329.59014,0.20794
2331.51861,0.20913
2333.44708,0.21065
2335.37555,0.20391
2337.30401,0.20041
2339.23248,0.20856
2341.16095,0.21751
2343.08942,0.22274
2345.01789,0.22532
2346.94636,0.22231
2348.87483,0.21613
2350.80330,0.21059
2352.73176,0.21017
2354.66023,0.22681
2356.58870,0.25404
2358.51717,0.24521
2360.44564,0.20308
2362.37411,0.18765
2364.30258,0.20632
2366.23104,0.22310
2368.15951,0.22465
2370.08798,0.21822
2372.01645,0.20927
2373.94492,0.20202
2375.87339,0.19882
2377.80186,0.19878
2379.73033,0.19835
2381.65879,0.19654
2383.58726,0.19508
2385.51573,0.19386
2387.44420,0.19256
2389.37267,0.19163
2391.30114,0.19105
2393.22961,0.18997
2395.15807,0.18843
2397.08654,0.18855
2399.01501,0.19051
2400.94348,0.19013
2402.87195,0.18640
2404.80042,0.18443
2406.72889,0.18650
2408.65736,0.18920
2410.58582,0.18996
2412.51429,0.19044
2414.44276,0.19243
2416.37123,0.19412
2418.29970,0.19228
2420.22817,0.18865
2422.15664,0.18719
2424.08510,0.18693
2426.01357,0.18698
2427.94204,0.18814
2429.87051,0.18947
2431.79898,0.19151
2433.72745,0.19369
2435.65592,0.19310
2437.58439,0.19155
2439.51285,0.19224
2441.44132,0.19320
2443.36979,0.19245
2445.29826,0.19088
2447.22673,0.19008
2449.15520,0.19083
2451.08367,0.19205
2453.01213,0.19137
2454.94060,0.18876
2456.86907,0.18806
2458.79754,0.19065
2460.72601,0.19367
2462.65448,0.19563
2464.58295,0.19609
2466.51142,0.19563
2468.43988,0.19604
2470.36835,0.19556
2472.29682,0.19270
2474.22529,0.18998
2476.15376,0.19016
2478.08223,0.19277
2480.01070,0.19464
2481.93916,0.19429
2483.86763,0.19081
2485.79610,0.18658
2487.72457,0.18709
2489.65304,0.19093
2491.58151,0.19344
2493.50998,0.19422
2495.43844,0.19367
2497.36691,0.19233
2499.29538,0.19215
2501.22385,0.19323
2503.15232,0.19477
2505.08079,0.19642
2507.00926,0.19700
2508.93773,0.19539
2510.86619,0.19147
2512.79466,0.18832
2514.72313,0.18946
2516.65160,0.19303
2518.58007,0.19437
2520.50854,0.19355
2522.43701,0.19330
2524.36547,0.19386
2526.29394,0.19397
2528.22241,0.19256
2530.15088,0.19140
2532.07935,0.19208
2534.00782,0.19343
2535.93629,0.19347
2537.86476,0.19198
2539.79322,0.19204
2541.72169,0.19448
2543.65016,0.19716
2545.57863,0.19790
2547.50710,0.19556
2549.43557,0.19273
2551.36404,0.19285
2553.29250,0.19449
2555.22097,0.19475
2557.14944,0.19476
2559.07791,0.19584
2561.00638,0.19687
2562.93485,0.19712
2564.86332,0.19715
2566.79179,0.19660
2568.72025,0.19387
2570.64872,0.19049
2572.57719,0.19047
2574.50566,0.19372
2576.43413,0.19552
2578.36260,0.19346
2580.29107,0.19069
2582.21953,0.18973
2584.14800,0.18901
2586.07647,0.18882
2588.00494,0.18970
2589.93341,0.18938
2591.86188,0.18952
2593.79035,0.19252
2595.71882,0.19593
2597.64728,0.19688
2599.57575,0.19501
2601.50422,0.19371
2603.43269,0.19618
2605.36116,0.19881
2607.28963,0.19927
2609.21810,0.20174
2611.14656,0.20452
2613.07503,0.20326
2615.00350,0.20158
2616.93197,0.20179
2618.86044,0.20089
2620.78891,0.19699
2622.71738,0.19137
2624.64585,0.18900
2626.57431,0.19273
2628.50278,0.19790
2630.43125,0.20058
2632.35972,0.20151
2634.28819,0.20105
2636.21666,0.19936
2638.14513,0.19691
2640.07359,0.19426
2642.00206,0.19258
2643.93053,0.19281
2645.85900,0.19460
2647.78747,0.19635
2649.71594,0.19690
2651.64441,0.19619
2653.57288,0.19631
2655.50134,0.19805
2657.42981,0.19900
2659.35828,0.19890
2661.28675,0.19874
2663.21522,0.19804
2665.14369,0.19581
2667.07216,0.19295
2669.00062,0.19222
2670.92909,0.19326
2672.85756,0.19462
2674.78603,0.19583
2676.71450,0.19661
2678.64297,0.19807
2680.57144,0.19966
2682.49990,0.19958
2684.42837,0.19849
2686.35684,0.19779
2688.28531,0.19771
2690.21378,0.19819
2692.14225,0.19796
2694.07072,0.19612
2695.99919,0.19615
2697.92765,0.19923
2699.85612,0.20010
2701.78459,0.19778
2703.71306,0.19652
2705.64153,0.19613
2707.57000,0.19599
2709.49847,0.19852
2711.42693,0.20170
2713.35540,0.20201
2715.28387,0.20163
2717.21234,0.20200
2719.14081,0.20238
2721.06928,0.20508
2722.99775,0.20700
2724.92622,0.20193
2726.85468,0.19605
2728.78315,0.19645
2730.71162,0.20006
2732.64009,0.20307
2734.56856,0.20417
2736.49703,0.20498
2738.42550,0.20581
2740.35396,0.20455
2742.28243,0.20377
2744.21090,0.20447
2746.13937,0.20244
2748.06784,0.19799
2749.99631,0.19551
2751.92478,0.19538
2753.85325,0.19605
2755.78171,0.19892
2757.71018,0.20284
2759.63865,0.20363
2761.56712,0.20187
2763.49559,0.20094
2765.42406,0.20265
2767.35253,0.20715
2769.28099,0.21077
2771.20946,0.21003
2773.13793,0.20786
2775.06640,0.20830
2776.99487,0.20905
2778.92334,0.20646
2780.85181,0.20149
2782.78028,0.19837
2784.70874,0.20057
2786.63721,0.20577
2788.56568,0.20601
2790.49415,0.19864
2792.42262,0.19444
2794.35109,0.20047
2796.27956,0.20861
2798.20802,0.21226
2800.13649,0.21182
2802.06496,0.21077
2803.99343,0.21166
2805.92190,0.21169
2807.85037,0.20887
2809.77884,0.20673
2811.70731,0.20845
2813.63577,0.21167
2815.56424,0.21389
2817.49271,0.21482
2819.42118,0.21153
2821.34965,0.20321
2823.27812,0.19725
2825.20659,0.19917
2827.13505,0.20360
2829.06352,0.20562
2830.99199,0.20856
2832.92046,0.21279
2834.84893,0.21522
2836.77740,0.21645
2838.70587,0.21557
2840.63433,0.21204
2842.56280,0.20877
2844.49127,0.20760
2846.41974,0.20893
2848.34821,0.20942
2850.27668,0.20735
2852.20515,0.20772
2854.13362,0.20998
2856.06208,0.20891
2857.99055,0.20648
2859.91902,0.20570
2861.84749,0.20573
2863.77596,0.20553
2865.70443,0.20494
2867.63290,0.20531
2869.56136,0.20689
2871.48983,0.20956
2873.41830,0.21128
2875.34677,0.20855
2877.27524,0.20393
2879.20371,0.20178
2881.13218,0.20254
2883.06065,0.20572
2884.98911,0.20888
2886.91758,0.20793
2888.84605,0.20474
2890.77452,0.20501
2892.70299,0.20826
2894.63146,0.21015
2896.55993,0.21004
2898.48839,0.20816
2900.41686,0.20414
2902.34533,0.20149
2904.27380,0.20318
2906.20227,0.20664
2908.13074,0.20850
2910.05921,0.20820
2911.98768,0.20493
2913.91614,0.20066
2915.84461,0.20061
2917.77308,0.20383
2919.70155,0.20633
2921.63002,0.20682
2923.55849,0.20628
2925.48696,0.20653
2927.41542,0.20717
2929.34389,0.20501
2931.27236,0.20022
2933.20083,0.19836
2935.12930,0.19844
2937.05777,0.19777
2938.98624,0.20134
2940.91471,0.20845
2942.84317,0.21010
2944.77164,0.20518
2946.70011,0.20036
2948.62858,0.19836
2950.55705,0.19963
2952.48552,0.20093
2954.41399,0.19788
2956.34245,0.19384
2958.27092,0.19390
2960.19939,0.19723
2962.12786,0.20066
2964.05633,0.20321
2965.98480,0.20455
2967.91327,0.20813
2969.84174,0.21493
2971.77020,0.21700
2973.69867,0.21391
2975.62714,0.21010
2977.55561,0.20527
2979.48408,0.20400
2981.41255,0.20944
2983.34102,0.21582
2985.26948,0.21713
2987.19795,0.21429
2989.12642,0.21193
2991.05489,0.21031
2992.98336,0.20784
2994.91183,0.20481
2996.84030,0.20425
2998.76877,0.20923
3000.69723,0.21545
3002.62570,0.21674
3004.55417,0.21351
3006.48264,0.20963
3008.41111,0.20566
3010.33958,0.20168
3012.26805,0.19456
3014.19651,0.17397
3016.12498,0.15012
3018.05345,0.15363
3019.98192,0.18425
3021.91039,0.21061
3023.83886,0.21934
3025.76733,0.21721
3027.69579,0.21100
3029.62426,0.20724
3031.55273,0.21026
3033.48120,0.21695
3035.40967,0.21971
3037.33814,0.21658
3039.26661,0.21229
3041.19508,0.20949
3043.12354,0.20837
3045.05201,0.20871
3046.98048,0.20852
3048.90895,0.20778
3050.83742,0.20607
3052.76589,0.20185
3054.69436,0.19863
3056.62282,0.19870
3058.55129,0.20133
3060.47976,0.20544
3062.40823,0.20716
3064.33670,0.20373
3066.26517,0.20046
3068.19364,0.20510
3070.12211,0.21231
3072.05057,0.21404
3073.97904,0.21097
3075.90751,0.20770
3077.83598,0.20838
3079.76445,0.21141
3081.69292,0.21480
3083.62139,0.21361
3085.54985,0.20533
3087.47832,0.19916
3089.40679,0.20091
3091.33526,0.20784
3093.26373,0.21178
3095.19220,0.21038
3097.12067,0.21171
3099.04914,0.21465
3100.97760,0.21031
3102.90607,0.20077
3104.83454,0.19710
3106.76301,0.20109
3108.69148,0.20547
3110.61995,0.20721
3112.54842,0.20764
3114.47688,0.20733
3116.40535,0.20568
3118.33382,0.20494
3120.26229,0.20587
3122.19076,0.20558
3124.11923,0.20514
3126.04770,0.20646
3127.97617,0.20830
3129.90463,0.20982
3131.83310,0.20989
3133.76157,0.20759
3135.69004,0.20518
3137.61851,0.20469
3139.54698,0.20602
3141.47545,0.20833
3143.40391,0.21027
3145.33238,0.21297
3147.26085,0.21751
3149.18932,0.22168
3151.11779,0.22252
3153.04626,0.21974
3154.97473,0.21619
3156.90320,0.21487
3158.83166,0.21582
3160.76013,0.21612
3162.68860,0.21775
3164.61707,0.22307
3166.54554,0.22550
3168.47401,0.22142
3170.40248,0.21591
3172.33094,0.21392
3174.25941,0.21699
3176.18788,0.22127
3178.11635,0.22200
3180.04482,0.22121
3181.97329,0.21989
3183.90176,0.21911
3185.83022,0.22352
3187.75869,0.22810
3189.68716,0.22707
3191.61563,0.22451
3193.54410,0.22372
3195.47257,0.22393
3197.40104,0.22524
3199.32951,0.22656
3201.25797,0.22314
3203.18644,0.21702
3205.11491,0.21500
3207.04338,0.21495
3208.97185,0.21306
3210.90032,0.21164
3212.82879,0.21322
3214.75725,0.21907
3216.68572,0.22662
3218.61419,0.22850
3220.54266,0.22290
3222.47113,0.21697
3224.39960,0.21504
3226.32807,0.21558
3228.25654,0.21671
3230.18500,0.21732
3232.11347,0.21904
3234.04194,0.22126
3235.97041,0.22179
3237.89888,0.22192
3239.82735,0.21760
3241.75582,0.20625
3243.68428,0.19961
3245.61275,0.20665
3247.54122,0.21804
3249.46969,0.22362
3251.39816,0.22326
3253.32663,0.21786
3255.25510,0.21096
3257.18357,0.20803
3259.11203,0.20814
3261.04050,0.20972
3262.96897,0.21278
3264.89744,0.21277
3266.82591,0.20943
3268.75438,0.20932
3270.68285,0.21312
3272.61131,0.21577
3274.53978,0.21662
3276.46825,0.21926
3278.39672,0.22268
3280.32519,0.22232
3282.25366,0.21749
3284.18213,0.21232
3286.11060,0.21014
3288.03906,0.21042
3289.96753,0.21309
3291.89600,0.21773
3293.82447,0.22055
3295.75294,0.21941
3297.68141,0.21729
3299.60988,0.21621
3301.53834,0.21688
3303.46681,0.21827
3305.39528,0.21664
3307.32375,0.21433
3309.25222,0.21448
3311.18069,0.21522
3313.10916,0.21413
3315.03763,0.21017
3316.96609,0.20698
3318.89456,0.20812
3320.82303,0.21308
3322.75150,0.22016
3324.67997,0.22293
3326.60844,0.21659
3328.53691,0.20931
3330.46537,0.20708
3332.39384,0.20721
3334.32231,0.20890
3336.25078,0.21099
3338.17925,0.21484
3340.10772,0.21946
3342.03619,0.21874
3343.96466,0.21525
3345.89312,0.21416
3347.82159,0.21534
3349.75006,0.21793
3351.67853,0.22017
3353.60700,0.22212
3355.53547,0.22337
3357.46394,0.22093
3359.39240,0.21832
3361.32087,0.22030
3363.24934,0.22277
3365.17781,0.22216
3367.10628,0.22104
3369.03475,0.21933
3370.96322,0.21650
3372.89168,0.21686
3374.82015,0.21998
3376.74862,0.22079
3378.67709,0.22043
3380.60556,0.21948
3382.53403,0.21561
3384.46250,0.21413
3386.39097,0.21661
3388.31943,0.21586
3390.24790,0.21264
3392.17637,0.21240
3394.10484,0.21559
3396.03331,0.21917
3397.96178,0.22167
3399.89025,0.22313
3401.81871,0.22112
3403.74718,0.21637
3405.67565,0.21261
3407.60412,0.20915
3409.53259,0.20452
3411.46106,0.20244
3413.38953,0.20540
3415.31800,0.20877
3417.24646,0.21021
3419.17493,0.21338
3421.10340,0.21517
3423.03187,0.21144
3424.96034,0.20758
3426.88881,0.20522
3428.81728,0.20301
3430.74574,0.20333
3432.67421,0.20366
3434.60268,0.19917
3436.53115,0.19280
3438.45962,0.19107
3440.38809,0.19532
3442.31656,0.20233
3444.24503,0.20923
3446.17349,0.21526
3448.10196,0.21563
3450.03043,0.20747
3451.95890,0.20058
3453.88737,0.19958
3455.81584,0.20003
3457.74431,0.20247
3459.67277,0.20522
3461.60124,0.20159
3463.52971,0.19393
3465.45818,0.19093
3467.38665,0.19372
3469.31512,0.19704
3471.24359,0.19738
3473.17206,0.19701
3475.10052,0.19760
3477.02899,0.19555
3478.95746,0.19629
3480.88593,0.20424
3482.81440,0.20507
3484.74287,0.19662
3486.67134,0.19264
3488.59980,0.19379
3490.52827,0.19396
3492.45674,0.19160
3494.38521,0.18999
3496.31368,0.19192
3498.24215,0.19485
3500.17062,0.19710
3502.09909,0.19650
3504.02755,0.19006
3505.95602,0.18228
3507.88449,0.17875
3509.81296,0.17782
3511.74143,0.17608
3513.66990,0.17493
3515.59837,0.17775
3517.52683,0.18445
3519.45530,0.18872
3521.38377,0.18749
3523.31224,0.18349
3525.24071,0.17766
3527.16918,0.17385
3529.09765,0.17373
3531.02611,0.17451
3532.95458,0.17616
3534.88305,0.17616
3536.81152,0.17307
3538.73999,0.16979
3540.66846,0.16927
3542.59693,0.17178
3544.52540,0.17280
3546.45386,0.17103
3548.38233,0.16848
3550.31080,0.16604
3552.23927,0.16693
3554.16774,0.16809
3556.09621,0.16609
3558.02468,0.16798
3559.95314,0.17497
3561.88161,0.17840
3563.81008,0.17713
3565.73855,0.17592
3567.66702,0.17327
3569.59549,0.16912
3571.52396,0.16662
3573.45243,0.16479
3575.38089,0.16279
3577.30936,0.16013
3579.23783,0.15637
3581.16630,0.15376
3583.09477,0.15612
3585.02324,0.16588
3586.95171,0.17654
3588.88017,0.17442
3590.80864,0.16743
3592.73711,0.16500
3594.66558,0.16448
3596.59405,0.16438
3598.52252,0.16549
3600.45099,0.16519
3602.37946,0.15992
3604.30792,0.15407
3606.23639,0.15491
3608.16486,0.15992
3610.09333,0.15944
3612.02180,0.15715
3613.95027,0.15945
3615.87874,0.16242
3617.80720,0.16718
3619.73567,0.17181
3621.66414,0.16348
3623.59261,0.15087
3625.52108,0.14765
3627.44955,0.15666
3629.37802,0.16477
3631.30649,0.15654
3633.23495,0.14652
3635.16342,0.14147
3637.09189,0.13814
3639.02036,0.13495
3640.94883,0.13658
3642.87730,0.14354
3644.80577,0.15115
3646.73423,0.16075
3648.66270,0.17009
3650.59117,0.16196
3652.51964,0.14778
3654.44811,0.14210
3656.37658,0.14317
3658.30505,0.14294
3660.23352,0.13892
3662.16198,0.13580
3664.09045,0.13612
3666.01892,0.14183
3667.94739,0.15350
3669.87586,0.16076
3671.80433,0.15467
3673.73280,0.14984
3675.66126,0.14950
3677.58973,0.14586
3679.51820,0.14101
3681.44667,0.13745
3683.37514,0.13389
3685.30361,0.13382
3687.23208,0.14336
3689.16055,0.15331
3691.08901,0.14545
3693.01748,0.13546
3694.94595,0.13417
3696.87442,0.13621
3698.80289,0.13895
3700.73136,0.14396
3702.65983,0.14383
3704.58829,0.13696
3706.51676,0.13543
3708.44523,0.14075
3710.37370,0.14778
3712.30217,0.14840
3714.23064,0.14216
3716.15911,0.13848
3718.08757,0.13896
3720.01604,0.14217
3721.94451,0.14450
3723.87298,0.14226
3725.80145,0.13850
3727.72992,0.13785
3729.65839,0.14111
3731.58686,0.14949
3733.51532,0.15960
3735.44379,0.15617
3737.37226,0.14400
3739.30073,0.13876
3741.22920,0.13442
3743.15767,0.12870
3745.08614,0.13575
3747.01460,0.15200
3748.94307,0.16136
3750.87154,0.16036
3752.80001,0.14740
3754.72848,0.13728
3756.65695,0.13529
3758.58542,0.13603
3760.51389,0.13378
3762.44235,0.13216
3764.37082,0.13234
3766.29929,0.12891
3768.22776,0.12491
3770.15623,0.12580
3772.08470,0.12600
3774.01317,0.12482
3775.94163,0.12764
3777.87010,0.13228
3779.79857,0.13000
3781.72704,0.12430
3783.65551,0.12262
3785.58398,0.12042
3787.51245,0.11719
3789.44092,0.11834
3791.36938,0.12278
3793.29785,0.12664
3795.22632,0.13158
3797.15479,0.13841
3799.08326,0.14363
3801.01173,0.14574
3802.94020,0.14062
3804.86866,0.13982
3806.79713,0.14488
3808.72560,0.13883
3810.65407,0.13040
3812.58254,0.13196
3814.51101,0.13758
3816.43948,0.13651
3818.36795,0.13465
3820.29641,0.14427
3822.22488,0.15039
3824.15335,0.14332
3826.08182,0.13695
3828.01029,0.13280
3829.93876,0.13085
3831.86723,0.13508
3833.79569,0.14254
3835.72416,0.14850
3837.65263,0.14968
3839.58110,0.13905
3841.50957,0.12426
3843.43804,0.11521
3845.36651,0.11453
3847.29498,0.12082
3849.22344,0.13235
3851.15191,0.14962
3853.08038,0.16590
3855.00885,0.15707
3856.93732,0.14229
3858.86579,0.13607
3860.79426,0.13407
3862.72272,0.13402
3864.65119,0.13234
3866.57966,0.12857
3868.50813,0.12894
3870.43660,0.12950
3872.36507,0.12779
3874.29354,0.12810
3876.22200,0.12485
3878.15047,0.11958
3880.07894,0.12062
3882.00741,0.12504
3883.93588,0.12419
3885.86435,0.12081
3887.79282,0.12214
3889.72129,0.12995
3891.64975,0.13680
3893.57822,0.13150
3895.50669,0.12428
3897.43516,0.12758
3899.36363,0.13521
3901.29210,0.13388
3903.22057,0.12804
3905.14903,0.12507
3907.07750,0.12570
3909.00597,0.12819
3910.93444,0.12997
3912.86291,0.12747
3914.79138,0.12061
3916.71985,0.11660
3918.64832,0.11858
3920.57678,0.12124
3922.50525,0.12063
3924.43372,0.11571
3926.36219,0.11193
3928.29066,0.11400
3930.21913,0.11878
3932.14760,0.12298
3934.07606,0.12495
3936.00453,0.12395
3937.93300,0.11814
3939.86147,0.10812
3941.78994,0.10423
3943.71841,0.11053
3945.64688,0.11753
3947.57535,0.12160
3949.50381,0.12148
3951.43228,0.11626
3953.36075,0.11169
3955.28922,0.11301
3957.21769,0.11545
3959.14616,0.11449
3961.07463,0.11514
3963.00309,0.11634
3964.93156,0.11496
3966.86003,0.11369
3968.78850,0.11135
3970.71697,0.10879
3972.64544,0.11182
3974.57391,0.11524
3976.50238,0.10842
3978.43084,0.09728
3980.35931,0.09442
3982.28778,0.09990
3984.21625,0.10561
3986.14472,0.10810
3988.07319,0.10908
3990.00166,0.10940
3991.93012,0.10651
3993.85859,0.09981
3995.78706,0.09538
3997.71553,0.09532
3999.64400,0.09573
4001.57247,0.09547
4003.50094,0.09510
4005.42941,0.09628
4007.35787,0.10068
4009.28634,0.10533
4011.21481,0.10542
4013.14328,0.10339
4015.07175,0.10367
4017.00022,0.10538
4018.92869,0.10870
4020.85715,0.10907
4022.78562,0.10108
4024.71409,0.09408
4026.64256,0.09350
4028.57103,0.09327
4030.49950,0.09493
4032.42797,0.10053
4034.35644,0.10682
4036.28490,0.11165
4038.21337,0.11100
4040.14184,0.10468
4042.07031,0.10074
4043.99878,0.10265
4045.92725,0.10404
4047.85572,0.10011
4049.78418,0.09405
4051.71265,0.09027
4053.64112,0.08849
4055.56959,0.08940
4057.49806,0.09366
4059.42653,0.09543
4061.35500,0.09138
4063.28346,0.08574
4065.21193,0.08468
4067.14040,0.08879
4069.06887,0.09354
4070.99734,0.09678
4072.92581,0.09829
4074.85428,0.09631
4076.78275,0.09004
4078.71121,0.08542
4080.63968,0.08490
4082.56815,0.08507
4084.49662,0.08947
4086.42509,0.09709
4088.35356,0.09919
4090.28203,0.09550
4092.21049,0.09100
4094.13896,0.08585
4096.06743,0.08145
4097.99590,0.08170
4099.92437,0.08284
4101.85284,0.08205
4103.78131,0.08668
4105.70978,0.09630
4107.63824,0.09868
4109.56671,0.09232
4111.49518,0.08811
4113.42365,0.09377
4115.35212,0.10329
4117.28059,0.10405
4119.20906,0.09727
4121.13752,0.09317
4123.06599,0.09309
4124.99446,0.09082
4126.92293,0.08501
4128.85140,0.08140
4130.77987,0.08452
4132.70834,0.08995
4134.63681,0.08973
4136.56527,0.08664
4138.49374,0.08667
4140.42221,0.08602
4142.35068,0.08217
4144.27915,0.08351
4146.20762,0.09206
4148.13609,0.09666
4150.06455,0.09593
4151.99302,0.09503
4153.92149,0.09139
4155.84996,0.08678
4157.77843,0.08781
4159.70690,0.09140
4161.63537,0.09026
4163.56384,0.08479
4165.49230,0.07997
4167.42077,0.07728
4169.34924,0.07610
4171.27771,0.07965
4173.20618,0.08667
4175.13465,0.08823
4177.06312,0.08004
4178.99158,0.07036
4180.92005,0.07013
4182.84852,0.07482
4184.77699,0.07452
4186.70546,0.07051
4188.63393,0.06962
4190.56240,0.07307
4192.49087,0.07664
4194.41933,0.08163
4196.34780,0.08914
4198.27627,0.09303
4200.20474,0.09140
4202.13321,0.08613
4204.06168,0.07998
4205.99015,0.07913
4207.91861,0.08194
4209.84708,0.08048
4211.77555,0.07367
4213.70402,0.06788
4215.63249,0.06692
4217.56096,0.06530
4219.48943,0.06316
4221.41789,0.06832
4223.34636,0.07707
4225.27483,0.07944
4227.20330,0.07578
4229.13177,0.07417
4231.06024,0.07418
4232.98871,0.06683
4234.91718,0.05751
4236.84564,0.05730
4238.77411,0.06135
4240.70258,0.06215
4242.63105,0.05891
4244.55952,0.05718
4246.48799,0.06276
4248.41646,0.06959
4250.34492,0.06918
4252.27339,0.06375
4254.20186,0.06218
4256.13033,0.06603
4258.05880,0.06748
4259.98727,0.06661
4261.91574,0.07129
4263.84421,0.08032
4265.77267,0.08616
4267.70114,0.08683
4269.62961,0.08310
4271.55808,0.07613
4273.48655,0.06884
4275.41502,0.06289
4277.34349,0.05749
4279.27195,0.05227
4281.20042,0.04945
4283.12889,0.05126
4285.05736,0.05763
4286.98583,0.06424
4288.91430,0.06552
4290.84277,0.06339
4292.77124,0.06469
4294.69970,0.06811
4296.62817,0.06726
4298.55664,0.06570
4300.48511,0.06624
4302.41358,0.06357
4304.34205,0.06022
4306.27052,0.06023
4308.19898,0.06043
4310.12745,0.06005
4312.05592,0.06186
4313.98439,0.06402
4315.91286,0.06255
4317.84133,0.06085
4319.76980,0.06020
4321.69827,0.05784
4323.62673,0.05593
4325.55520,0.05497
4327.48367,0.05499
4329.41214,0.05415
4331.34061,0.05018
4333.26908,0.05106
4335.19755,0.06095
4337.12601,0.06722
4339.05448,0.05913
4340.98295,0.04761
4342.91142,0.04626
4344.83989,0.04953
4346.76836,0.05118
4348.69683,0.05314
4350.62530,0.05612
4352.55376,0.05826
4354.48223,0.05435
4356.41070,0.04799
4358.33917,0.04865
4360.26764,0.05393
4362.19611,0.05860
4364.12458,0.06132
4366.05304,0.05917
4367.98151,0.05139
4369.90998,0.04584
4371.83845,0.05016
4373.76692,0.05701
4375.69539,0.05774
4377.62386,0.05488
4379.55232,0.04853
4381.48079,0.04011
4383.40926,0.03562
4385.33773,0.03259
4387.26620,0.03143
4389.19467,0.03657
4391.12314,0.04223
4393.05161,0.04177
4394.98007,0.03458
4396.90854,0.02670
4398.83701,0.02747
4400.76548,0.03259
4402.69395,0.03120
4404.62242,0.02845
4406.55089,0.03101
4408.47935,0.03321
4410.40782,0.03318
4412.33629,0.03532
4414.26476,0.04211
4416.19323,0.04883
4418.12170,0.04816
4420.05017,0.04364
4421.97864,0.04083
4423.90710,0.04058
4425.83557,0.04477
4427.76404,0.04700
4429.69251,0.04149
4431.62098,0.03766
4433.54945,0.03699
4435.47792,0.03131
4437.40638,0.02739
4439.33485,0.03103
4441.26332,0.03262
4443.19179,0.03119
4445.12026,0.03532
4447.04873,0.03843
4448.97720,0.02894
4450.90567,0.01539
4452.83413,0.01615
4454.76260,0.02850
4456.69107,0.03283
4458.61954,0.02746
4460.54801,0.02644
4462.47648,0.02975
4464.40495,0.02900
4466.33341,0.02669
4468.26188,0.02683
4470.19035,0.02820
4472.11882,0.03293
4474.04729,0.03880
4475.97576,0.03930
4477.90423,0.03787
4479.83270,0.03841
4481.76116,0.03767
4483.68963,0.03502
4485.61810,0.02957
4487.54657,0.01757
4489.47504,0.00337
4491.40351,-0.00447
4493.33198,-0.00303
4495.26044,0.00579
4497.18891,0.01545
4499.11738,0.01947
4501.04585,0.01886
4502.97432,0.01826
4504.90279,0.01736
4506.83126,0.01620
4508.75973,0.01781
4510.68819,0.01663
4512.61666,0.00807
4514.54513,0.00349
4516.47360,0.01352
4518.40207,0.03068
4520.33054,0.04105
4522.25901,0.03928
4524.18747,0.03084
4526.11594,0.02193
4528.04441,0.01297
4529.97288,0.00918
4531.90135,0.01529
4533.82982,0.02238
4535.75829,0.01984
4537.68676,0.01300
4539.61522,0.01623
4541.54369,0.02530
4543.47216,0.02198
4545.40063,0.00943
4547.32910,0.00441
4549.25757,0.00613
4551.18604,0.00821
4553.11450,0.00962
4555.04297,0.01001
4556.97144,0.01078
4558.89991,0.01001
4560.82838,0.00856
4562.75685,0.01410
4564.68532,0.02453
4566.61378,0.02505
4568.54225,0.01728
4570.47072,0.01698
4572.39919,0.02095
4574.32766,0.01971
4576.25613,0.01885
4578.18460,0.02424
4580.11307,0.02810
4582.04153,0.02185
4583.97000,0.01065
4585.89847,0.00377
4587.82694,0.00671
4589.75541,0.01552
4591.68388,0.01519
4593.61235,0.00477
4595.54081,0.00205
4597.46928,0.01000
4599.39775,0.01174
4601.32622,0.00161
4603.25469,-0.00788
4605.18316,-0.00814
4607.11163,-0.00009
4609.04010,0.01165
4610.96856,0.02155
4612.89703,0.02492
4614.82550,0.02139
4616.75397,0.01948
4618.68244,0.01645
4620.61091,0.00313
4622.53938,-0.01134
4624.46784,-0.01468
4626.39631,-0.00068
4628.32478,0.01907
4630.25325,0.02472
4632.18172,0.02029
4634.11019,0.01588
4636.03866,0.01001
4637.96713,0.00395
4639.89559,0.00309
4641.82406,0.01123
4643.75253,0.02318
4645.68100,0.02603
4647.60947,0.01833
4649.53794,0.01404
4651.46641,0.01851
4653.39487,0.01868
4655.32334,0.00994
4657.25181,0.00401
4659.18028,0.00095
4661.10875,-0.00539
4663.03722,-0.00755
4664.96569,-0.00353
4666.89416,-0.00055
4668.82262,0.00207
4670.75109,0.00690
4672.67956,0.01409
4674.60803,0.02121
4676.53650,0.02310
4678.46497,0.01998
4680.39344,0.01777
4682.32190,0.01809
4684.25037,0.01134
4686.17884,0.00042
4688.10731,0.00017
4690.03578,0.00296
4691.96425,0.00232
4693.89272,0.00680
4695.82119,0.01248
4697.74965,0.01653
4699.67812,0.02609
4701.60659,0.03479
4703.53506,0.02923
4705.46353,0.01351
4707.39200,0.00104
4709.32047,-0.00301
4711.24893,-0.00005
4713.17740,0.00827
4715.10587,0.02039
4717.03434,0.02310
4718.96281,0.00777
4720.89128,-0.00549
4722.81975,-0.00416
4724.74821,0.00133
4726.67668,0.00873
4728.60515,0.01801
4730.53362,0.02313
4732.46209,0.02580
4734.39056,0.02669
4736.31903,0.02349
4738.24750,0.01825
4740.17596,0.01129
4742.10443,0.00703
4744.03290,0.01199
4745.96137,0.01979
4747.88984,0.01676
4749.81831,0.00327
4751.74678,-0.00212
4753.67524,0.00341
4755.60371,0.00332
4757.53218,-0.00268
4759.46065,-0.00459
4761.38912,-0.00578
4763.31759,-0.01012
4765.24606,-0.01252
4767.17453,-0.01255
4769.10299,-0.01263
4771.03146,-0.00843
4772.95993,-0.00072
4774.88840,0.00463
4776.81687,0.00740
4778.74534,0.01024
4780.67381,0.01533
4782.60227,0.02210
4784.53074,0.02623
4786.45921,0.01640
4788.38768,-0.00186
4790.31615,-0.01204
4792.24462,-0.01400
4794.17309,-0.01172
4796.10156,-0.00141
4798.03002,0.01113
4799.95849,0.01218
4801.88696,0.00396
4803.81543,0.00269
4805.74390,0.01174
4807.67237,0.01867
4809.60084,0.01360
4811.52930,0.00374
4813.45777,0.00628
4815.38624,0.01881
4817.31471,0.02450
4819.24318,0.02135
4821.17165,0.01018
4823.10012,-0.00750
4825.02859,-0.01612
4826.95705,-0.01402
4828.88552,-0.01362
4830.81399,-0.00927
4832.74246,0.00449
4834.67093,0.01920
4836.59940,0.02517
4838.52787,0.01887
4840.45633,0.00934
4842.38480,0.00875
4844.31327,0.01896
4846.24174,0.02697
4848.17021,0.02040
4850.09868,0.00759
4852.02715,0.00591
4853.95562,0.01579
4855.88408,0.01751
4857.81255,0.00456
4859.74102,-0.00678
4861.66949,-0.00588
4863.59796,0.00037
4865.52643,0.00175
4867.45490,0.00057
4869.38336,0.00451
4871.31183,0.01126
4873.24030,0.01232
4875.16877,0.01093
4877.09724,0.01392
4879.02571,0.01465
4880.95418,0.01152
4882.88265,0.01249
4884.81111,0.02318
4886.73958,0.03756
4888.66805,0.04000
4890.59652,0.03268
4892.52499,0.03297
4894.45346,0.03818
4896.38193,0.03415
4898.31039,0.02789
4900.23886,0.02730
4902.16733,0.02327
4904.09580,0.01396
4906.02427,0.00470
4907.95274,0.00051
4909.88121,0.00660
4911.80967,0.01493
4913.73814,0.01311
4915.66661,0.00742
4917.59508,0.00366
4919.52355,-0.00497
4921.45202,-0.01822
4923.38049,-0.02640
4925.30896,-0.01935
4927.23742,0.00133
4929.16589,0.02904
4931.09436,0.05606
4933.02283,0.05596
4934.95130,0.02326
4936.87977,-0.00523
4938.80824,-0.01272
4940.73670,-0.01456
4942.66517,-0.01498
4944.59364,-0.00873
4946.52211,0.00286
4948.45058,0.01165
4950.37905,0.01260
4952.30752,0.00665
4954.23599,-0.00056
4956.16445,0.00167
4958.09292,0.00558
4960.02139,-0.00050
4961.94986,-0.00185
4963.87833,0.01052
4965.80680,0.02099
4967.73527,0.01847
4969.66373,0.01244
4971.59220,0.00769
4973.52067,0.00119
4975.44914,0.00536
4977.37761,0.02242
4979.30608,0.03954
4981.23455,0.04785
4983.16302,0.03507
4985.09148,0.00993
4987.01995,0.00040
4988.94842,0.01637
4990.87689,0.03959
4992.80536,0.04319
4994.73383,0.02200
4996.66230,-0.00452
4998.59076,-0.00994
5000.51923,0.00450
5002.44770,0.01541
5004.37617,0.01781
5006.30464,0.01354
5008.23311,0.00083
5010.16158,-0.01113
5012.09005,-0.01549
5014.01851,-0.01155
5015.94698,0.00307
5017.87545,0.01409
5019.80392,0.01093
5021.73239,0.01386
5023.66086,0.02589
5025.58933,0.03238
5027.51779,0.03769
5029.44626,0.03528
5031.37473,0.01407
5033.30320,-0.00717
5035.23167,-0.00682
5037.16014,0.00797
5039.08861,0.01551
5041.01708,0.01019
5042.94554,0.00389
5044.87401,0.00348
5046.80248,0.00758
5048.73095,0.00899
5050.65942,0.00737
5052.58789,0.00911
5054.51636,0.01033
5056.44482,0.00630
5058.37329,-0.00057
5060.30176,-0.00088
5062.23023,0.01098
5064.15870,0.01990
5066.08717,0.01064
5068.01564,-0.00656
5069.94410,-0.01617
5071.87257,-0.02021
5073.80104,-0.01769
5075.72951,-0.00043
5077.65798,0.01756
5079.58645,0.01690
5081.51492,0.00954
5083.44339,0.01442
5085.37185,0.02245
5087.30032,0.02562
5089.22879,0.03541
5091.15726,0.04629
5093.08573,0.04420
5095.01420,0.03538
5096.94267,0.02739
5098.87113,0.02192
5100.79960,0.02154
5102.72807,0.02389
5104.65654,0.02802
5106.58501,0.03599
5108.51348,0.04294
5110.44195,0.04683
5112.37042,0.04514
5114.29888,0.03455
5116.22735,0.02164
5118.15582,0.01678
5120.08429,0.02159
5122.01276,0.02053
5123.94123,0.02084
5125.86970,0.04171
5127.79816,0.06247
5129.72663,0.06328
5131.65510,0.05055
5133.58357,0.03441
5135.51204,0.02410
5137.44051,0.02795
5139.36898,0.04643
5141.29745,0.05830
5143.22591,0.05014
5145.15438,0.04071
5147.08285,0.04355
5149.01132,0.04134
5150.93979,0.02584
5152.86826,0.02237
5154.79673,0.03569
5156.72519,0.03403
5158.65366,0.01684
5160.58213,0.01345
5162.51060,0.02421
5164.43907,0.03806
5166.36754,0.04586
5168.29601,0.03913
5170.22448,0.03225
5172.15294,0.03300
5174.08141,0.03268
5176.00988,0.03658
5177.93835,0.03933
5179.86682,0.02946
5181.79529,0.01823
5183.72376,0.01861
5185.65222,0.02512
5187.58069,0.02439
5189.50916,0.01450
5191.43763,0.00930
5193.36610,0.02268
5195.29457,0.04162
5197.22304,0.04930
5199.15151,0.05054
5201.07997,0.03922
5203.00844,0.01518
5204.93691,0.00641
5206.86538,0.02120
5208.79385,0.03063
5210.72232,0.02998
5212.65079,0.03821
5214.57925,0.05047
5216.50772,0.05495
5218.43619,0.05077
5220.36466,0.03540
5222.29313,0.02432
5224.22160,0.03188
5226.15007,0.03599
5228.07854,0.02301
5230.00700,0.00747
5231.93547,-0.00733
5233.86394,-0.01793
5235.79241,-0.01239
5237.72088,0.00663
5239.64935,0.02111
5241.57782,0.02987
5243.50628,0.04450
5245.43475,0.05183
5247.36322,0.03806
5249.29169,0.02232
5251.22016,0.02932
5253.14863,0.05126
5255.07710,0.05770
5257.00556,0.04302
5258.93403,0.03383
5260.86250,0.03586
5262.79097,0.02949
5264.71944,0.01880
5266.64791,0.02456
5268.57638,0.03598
5270.50485,0.03589
5272.43331,0.02829
5274.36178,0.02410
5276.29025,0.02295
5278.21872,0.01983
5280.14719,0.01935
5282.07566,0.03390
5284.00413,0.05606
5285.93259,0.05852
5287.86106,0.04066
5289.78953,0.02373
5291.71800,0.01998
5293.64647,0.02576
5295.57494,0.03423
5297.50341,0.04528
5299.43188,0.05296
5301.36034,0.05418
5303.28881,0.05926
5305.21728,0.06789
5307.14575,0.07099
5309.07422,0.07537
5311.00269,0.07992
5312.93116,0.07586
5314.85962,0.06974
5316.78809,0.06475
5318.71656,0.06186
5320.64503,0.05996
5322.57350,0.04653
5324.50197,0.02797
5326.43044,0.03016
5328.35891,0.05056
5330.28737,0.06016
5332.21584,0.05916
5334.14431,0.06593
5336.07278,0.06452
5338.00125,0.04685
5339.92972,0.03951
5341.85819,0.03828
5343.78665,0.04571
5345.71512,0.06769
5347.64359,0.08042
5349.57206,0.07632
5351.50053,0.05535
5353.42900,0.04456
5355.35747,0.06141
5357.28594,0.08088
5359.21440,0.09082
5361.14287,0.09009
5363.07134,0.09047
5364.99981,0.09439
5366.92828,0.08971
5368.85675,0.08303
5370.78522,0.07663
5372.71368,0.06082
5374.64215,0.04479
5376.57062,0.04754
5378.49909,0.07137
5380.42756,0.08759
5382.35603,0.07955
5384.28450,0.08013
5386.21297,0.09806
5388.14143,0.09273
5390.06990,0.07374
5391.99837,0.06981
5393.92684,0.07844
5395.85531,0.08286
5397.78378,0.08552
5399.71225,0.08751
5401.64071,0.08729
5403.56918,0.09716
5405.49765,0.10889
5407.42612,0.10298
5409.35459,0.09190
5411.28306,0.08839
5413.21153,0.07665
5415.13999,0.05421
5417.06846,0.04751
5418.99693,0.06032
5420.92540,0.06802
5422.85387,0.06827
5424.78234,0.07292
5426.71081,0.07225
5428.63928,0.06268
5430.56774,0.05670
5432.49621,0.04941
5434.42468,0.03739
5436.35315,0.04772
5438.28162,0.07342
5440.21009,0.08147
5442.13856,0.07345
5444.06702,0.07033
5445.99549,0.07683
5447.92396,0.07486
5449.85243,0.05986
5451.78090,0.05582
5453.70937,0.07299
5455.63784,0.10207
5457.56631,0.11997
5459.49477,0.10338
5461.42324,0.06539
5463.35171,0.04341
5465.28018,0.04542
5467.20865,0.05707
5469.13712,0.06530
5471.06559,0.06527
5472.99405,0.07297
5474.92252,0.09776
5476.85099,0.11018
5478.77946,0.07485
5480.70793,0.03074
5482.63640,0.03614
5484.56487,0.06478
5486.49334,0.07371
5488.42180,0.06646
5490.35027,0.04443
5492.27874,0.01713
5494.20721,0.01783
5496.13568,0.04846
5498.06415,0.07875
5499.99262,0.08731
5501.92108,0.07551
5503.84955,0.05954
5505.77802,0.05764
5507.70649,0.08294
5509.63496,0.10949
5511.56343,0.10355
5513.49190,0.08501
5515.42037,0.07965
5517.34883,0.08160
5519.27730,0.07832
5521.20577,0.06008
5523.13424,0.05244
5525.06271,0.07844
5526.99118,0.08876
5528.91965,0.05987
5530.84811,0.03432
5532.77658,0.02285
5534.70505,0.03114
5536.63352,0.06491
5538.56199,0.08264
5540.49046,0.06795
5542.41893,0.04751
5544.34740,0.05079
5546.27586,0.08253
5548.20433,0.11800
5550.13280,0.12342
5552.06127,0.08507
5553.98974,0.04920
5555.91821,0.05786
5557.84668,0.08021
5559.77514,0.07617
5561.70361,0.05694
5563.63208,0.05333
5565.56055,0.06020
5567.48902,0.06242
5569.41749,0.07072
5571.34596,0.09139
5573.27443,0.11515
5575.20289,0.12603
5577.13136,0.11404
5579.05983,0.09696
5580.98830,0.08818
5582.91677,0.06953
5584.84524,0.04489
5586.77371,0.03692
5588.70217,0.04478
5590.63064,0.04135
5592.55911,0.02102
5594.48758,0.02206
5596.41605,0.06494
5598.34452,0.12387
5600.27299,0.15237
5602.20145,0.13925
5604.12992,0.10603
5606.05839,0.07236
5607.98686,0.05490
5609.91533,0.04269
5611.84380,0.03349
5613.77227,0.04168
5615.70074,0.05472
5617.62920,0.06538
5619.55767,0.08496
5621.48614,0.10471
5623.41461,0.09865
5625.34308,0.07279
5627.27155,0.05606
5629.20002,0.06070
5631.12848,0.06967
5633.05695,0.05747
5634.98542,0.03363
5636.91389,0.02373
5638.84236,0.01920
5640.77083,0.02268
5642.69930,0.05464
5644.62777,0.09456
5646.55623,0.11814
5648.48470,0.11782
5650.41317,0.09274
5652.34164,0.07965
5654.27011,0.09238
5656.19858,0.09421
5658.12705,0.07206
5660.05551,0.05410
5661.98398,0.06423
5663.91245,0.09263
5665.84092,0.11847
5667.76939,0.12577
5669.69786,0.10435
5671.62633,0.06684
5673.55480,0.05388
5675.48326,0.07216
5677.41173,0.07722
5679.34020,0.07082
5681.26867,0.07981
5683.19714,0.09400
5685.12561,0.10561
5687.05408,0.11209
5688.98254,0.11395
5690.91101,0.11110
5692.83948,0.10727
5694.76795,0.10557
5696.69642,0.10378
5698.62489,0.10956
5700.55336,0.09687
5702.48183,0.05802
5704.41029,0.04439
5706.33876,0.07087
5708.26723,0.09488
5710.19570,0.07610
5712.12417,0.04769
5714.05264,0.06668
5715.98111,0.10501
5717.90957,0.11732
5719.83804,0.10942
5721.76651,0.10472
5723.69498,0.13022
5725.62345,0.16215
5727.55192,0.14238
5729.48039,0.09848
5731.40886,0.08676
5733.33732,0.09336
5735.26579,0.09152
5737.19426,0.08718
5739.12273,0.08853
5741.05120,0.06739
5742.97967,0.03054
5744.90814,0.01591
5746.83660,0.01756
5748.76507,0.02927
5750.69354,0.06592
5752.62201,0.09259
5754.55048,0.07878
5756.47895,0.06238
5758.40742,0.07301
5760.33588,0.11297
5762.26435,0.14266
5764.19282,0.12465
5766.12129,0.10110
5768.04976,0.09704
5769.97823,0.09448
5771.90670,0.08417
5773.83517,0.07501
5775.76363,0.07982
5777.69210,0.08601
5779.62057,0.08205
5781.54904,0.05482
5783.47751,0.01580
5785.40598,0.01164
5787.33445,0.02793
5789.26291,0.02022
5791.19138,0.00039
5793.11985,0.01124
5795.04832,0.06356
5796.97679,0.09724
5798.90526,0.08457
5800.83373,0.07572
5802.76220,0.07832
5804.69066,0.07012
5806.61913,0.06919
5808.54760,0.08764
5810.47607,0.09459
5812.40454,0.07135
5814.33301,0.05888
5816.26148,0.08022
5818.18994,0.09604
5820.11841,0.08895
5822.04688,0.10609
5823.97535,0.15064
5825.90382,0.16336
5827.83229,0.13534
5829.76076,0.09294
5831.68923,0.07149
5833.61769,0.08401
5835.54616,0.09844
5837.47463,0.10096
5839.40310,0.08309
5841.33157,0.05695
5843.26004,0.05830
5845.18851,0.06936
5847.11697,0.07239
5849.04544,0.07990
5850.97391,0.08905
5852.90238,0.10150
5854.83085,0.10809
5856.75932,0.08699
5858.68779,0.06231
5860.61626,0.05907
5862.54472,0.05642
5864.47319,0.03482
5866.40166,0.00627
5868.33013,0.00899
5870.25860,0.05806
5872.18707,0.10515
5874.11554,0.10102
5876.04400,0.05554
5877.97247,0.03053
5879.90094,0.06503
5881.82941,0.11890
5883.75788,0.14592
5885.68635,0.12614
5887.61482,0.08829
5889.54329,0.09222
5891.47175,0.09592
5893.40022,0.07977
5895.32869,0.09147
5897.25716,0.11396
5899.18563,0.12317
5901.11410,0.11292
5903.04257,0.07490
5904.97103,0.04203
5906.89950,0.04306
5908.82797,0.05555
5910.75644,0.06689
5912.68491,0.07043
5914.61338,0.05673
5916.54185,0.06897
5918.47032,0.11215
5920.39878,0.13451
5922.32725,0.10953
5924.25572,0.05823
5926.18419,0.03829
5928.11266,0.05793
5930.04113,0.07654
5931.96960,0.07545
5933.89806,0.05526
5935.82653,0.04271
5937.75500,0.04738
5939.68347,0.03091
5941.61194,-0.00379
5943.54041,-0.01554
5945.46888,0.00633
5947.39734,0.04583
5949.32581,0.07366
5951.25428,0.09812
5953.18275,0.13638
5955.11122,0.14973
5957.03969,0.13324
5958.96816,0.13132
5960.89663,0.14182
5962.82509,0.12336
5964.75356,0.08860
5966.68203,0.08220
5968.61050,0.10509
5970.53897,0.11498
5972.46744,0.10193
5974.39591,0.09216
5976.32437,0.07747
5978.25284,0.07190
5980.18131,0.10199
5982.10978,0.11899
5984.03825,0.10021
5985.96672,0.07566
5987.89519,0.04742
5989.82366,0.03071
5991.75212,0.03808
5993.68059,0.04592
5995.60906,0.05926
5997.53753,0.09690
5999.46600,0.12860
6001.39447,0.13529
6003.32294,0.13686
6005.25140,0.15307
6007.17987,0.15854
6009.10834,0.11300
6011.03681,0.06632
6012.96528,0.07188
6014.89375,0.08526
6016.82222,0.08931
6018.75069,0.10696
6020.67915,0.10716
6022.60762,0.09223
6024.53609,0.08814
6026.46456,0.06055
6028.39303,0.00595
6030.32150,-0.01873
6032.24997,0.02828
6034.17843,0.11509
6036.10690,0.14140
6038.03537,0.09304
6039.96384,0.06268
6041.89231,0.07032
6043.82078,0.07929
6045.74925,0.08399
6047.67772,0.07351
6049.60618,0.05973
6051.53465,0.08692
6053.46312,0.12177
6055.39159,0.09726
6057.32006,0.04115
6059.24853,0.02809
6061.17700,0.05484
6063.10546,0.08690
6065.03393,0.10611
6066.96240,0.11154
6068.89087,0.11349
6070.81934,0.11971
6072.74781,0.12409
6074.67628,0.09085
6076.60475,0.04591
6078.53321,0.05092
6080.46168,0.07838
6082.39015,0.09147
6084.31862,0.09806
6086.24709,0.09974
6088.17556,0.08648
6090.10403,0.05949
6092.03249,0.03764
6093.96096,0.04575
6095.88943,0.07460
6097.81790,0.10450
6099.74637,0.13885
6101.67484,0.13918
6103.60331,0.10545
6105.53177,0.09672
6107.46024,0.10642
6109.38871,0.09476
6111.31718,0.06141
6113.24565,0.05766
6115.17412,0.10527
6117.10259,0.16193
6119.03106,0.16967
6120.95952,0.10946
6122.88799,0.05463
6124.81646,0.05383
6126.74493,0.08587
6128.67340,0.13515
6130.60187,0.15968
6132.53034,0.11103
6134.45880,0.05517
6136.38727,0.06530
6138.31574,0.11106
6140.24421,0.15390
6142.17268,0.14228
6144.10115,0.05565
6146.02962,0.00230
6147.95809,0.02756
6149.88655,0.06010
6151.81502,0.04604
6153.74349,0.00982
6155.67196,0.01916
6157.60043,0.08265
6159.52890,0.11952
6161.45737,0.08894
6163.38583,0.06438
6165.31430,0.09116
6167.24277,0.13190
6169.17124,0.14847
6171.09971,0.13614
6173.02818,0.11589
6174.95665,0.10659
6176.88512,0.10915
6178.81358,0.09193
6180.74205,0.04780
6182.67052,0.04782
6184.59899,0.10304
6186.52746,0.15604
6188.45593,0.18924
6190.38440,0.16797
6192.31286,0.11039
6194.24133,0.10430
6196.16980,0.11344
6198.09827,0.08591
6200.02674,0.07502
6201.95521,0.08141
6203.88368,0.08582
6205.81215,0.10860
6207.74061,0.12504
6209.66908,0.10182
6211.59755,0.07472
6213.52602,0.10237
6215.45449,0.14900
6217.38296,0.14915
6219.31143,0.14890
6221.23989,0.19325
6223.16836,0.21605
6225.09683,0.18741
6227.02530,0.15078
6228.95377,0.09824
6230.88224,0.05673
6232.81071,0.05188
6234.73918,0.03694
6236.66764,0.05616
6238.59611,0.10865
6240.52458,0.11158
6242.45305,0.08836
6244.38152,0.06166
6246.30999,0.00952
6248.23846,-0.02372
6250.16692,-0.00465
6252.09539,0.04257
6254.02386,0.08441
6255.95233,0.08377
6257.88080,0.04682
6259.80927,0.04785
6261.73774,0.09184
6263.66621,0.09451
6265.59467,0.03954
6267.52314,0.02049
6269.45161,0.04255
6271.38008,0.04232
6273.30855,0.03107
6275.23702,0.04515
6277.16549,0.08494
6279.09395,0.11684
6281.02242,0.12946
6282.95089,0.13894
6284.87936,0.13625
6286.80783,0.10986
6288.73630,0.08290
6290.66477,0.08331
6292.59323,0.08395
6294.52170,0.05503
6296.45017,0.03752
6298.37864,0.08284
6300.30711,0.16817
6302.23558,0.18880
6304.16405,0.10961
6306.09252,0.03190
6308.02098,0.01539
6309.94945,0.02491
6311.87792,0.02596
6313.80639,0.01802
6315.73486,0.03211
6317.66333,0.06620
6319.59180,0.06236
6321.52026,0.05116
6323.44873,0.08749
6325.37720,0.11030
6327.30567,0.11276
6329.23414,0.14798
6331.16261,0.15803
6333.09108,0.11479
6335.01955,0.10036
6336.94801,0.11316
6338.87648,0.08920
6340.80495,0.03677
6342.73342,0.02597
6344.66189,0.08656
6346.59036,0.15934
6348.51883,0.18254
6350.44729,0.18033
6352.37576,0.14222
6354.30423,0.05962
6356.23270,0.02779
6358.16117,0.05381
6360.08964,0.03961
6362.01811,0.00889
6363.94658,0.01937
6365.87504,0.02411
6367.80351,0.04452
6369.73198,0.14233
6371.66045,0.23343
6373.58892,0.21881
6375.51739,0.13827
6377.44586,0.07283
6379.37432,0.04548
6381.30279,0.03898
6383.23126,0.06336
6385.15973,0.11986
6387.08820,0.13009
6389.01667,0.09113
6390.94514,0.07774
6392.87361,0.09575
6394.80207,0.06501
6396.73054,-0.00102
6398.65901,-0.00091
6400.58748,0.05141
6402.51595,0.06021
6404.44442,0.02205
6406.37289,-0.01657
6408.30135,-0.00581
6410.22982,0.08170
6412.15829,0.14605
6414.08676,0.11037
6416.01523,0.08879
6417.94370,0.14991
6419.87217,0.21411
6421.80064,0.21329
6423.72910,0.15046
6425.65757,0.08088
6427.58604,0.06933
6429.51451,0.10775
6431.44298,0.11369
6433.37145,0.06523
6435.29992,0.01529
6437.22838,-0.02260
6439.15685,-0.02692
6441.08532,-0.00144
6443.01379,0.01062
6444.94226,0.00509
6446.87073,0.01988
6448.79920,0.05589
6450.72766,0.09536
6452.65613,0.11987
6454.58460,0.12231
6456.51307,0.11789
6458.44154,0.08895
6460.37001,0.05785
6462.29848,0.07324
6464.22695,0.10537
6466.15541,0.10208
6468.08388,0.07759
6470.01235,0.07133
6471.94082,0.06535
6473.86929,0.03347
6475.79776,-0.00248
6477.72623,0.00660
6479.65469,0.02025
6481.58316,-0.00773
6483.51163,-0.00795
6485.44010,0.03725
6487.36857,0.05862
6489.29704,0.00425
6491.22551,-0.06808
6493.15398,-0.06346
6495.08244,0.01141
6497.01091,0.09207
6498.93938,0.09712
6500.86785,0.05230
6502.79632,0.06164
6504.72479,0.09060
6506.65326,0.09949
6508.58172,0.12524
6510.51019,0.14561
6512.43866,0.07442
6514.36713,-0.03767
6516.29560,-0.07520
6518.22407,-0.06733
6520.15254,-0.05343
6522.08101,0.00897
6524.00947,0.08640
6525.93794,0.08611
6527.86641,0.03688
6529.79488,0.02448
6531.72335,0.05581
6533.65182,0.08721
6535.58029,0.07365
6537.50875,0.02608
6539.43722,0.02257
6541.36569,0.07219
6543.29416,0.09770
6545.22263,0.06497
6547.15110,0.01152
6549.07957,-0.00035
6551.00804,0.06225
6552.93650,0.13059
6554.86497,0.14776
6556.79344,0.16379
6558.72191,0.17375
6560.65038,0.13438
6562.57885,0.09446
6564.50732,0.06533
6566.43578,0.06223
6568.36425,0.14174
6570.29272,0.26156
6572.22119,0.33596
6574.14966,0.33559
6576.07813,0.31074
6578.00660,0.26476
6579.93507,0.17489
6581.86353,0.12736
6583.79200,0.13063
6585.72047,0.08321
6587.64894,0.04678
6589.57741,0.11531
6591.50588,0.19225
6593.43435,0.18746
6595.36281,0.17208
6597.29128,0.16457
6599.21975,0.08339
6601.14822,-0.03170
6603.07669,-0.05788
6605.00516,-0.00759
6606.93363,0.06540
6608.86210,0.12574
6610.79056,0.13726
6612.71903,0.08122
6614.64750,-0.01369
6616.57597,-0.06251
6618.50444,-0.02640
6620.43291,0.07333
6622.36138,0.18635
6624.28984,0.21664
6626.21831,0.18211
6628.14678,0.17439
6630.07525,0.22496
6632.00372,0.27732
6633.93219,0.23774
6635.86066,0.08867
6637.78912,-0.02137
6639.71759,0.01992
6641.64606,0.09208
6643.57453,0.08448
6645.50300,0.04512
6647.43147,0.01360
6649.35994,-0.01402
6651.28841,0.01203
6653.21687,0.13617
6655.14534,0.28169
6657.07381,0.30615
6659.00228,0.24387
6660.93075,0.19514
6662.85922,0.13210
6664.78769,0.04297
6666.71615,-0.07887
6668.64462,-0.18568
6670.57309,-0.15653
6672.50156,-0.00982
6674.43003,0.11670
6676.35850,0.14278
6678.28697,0.09712
6680.21544,0.07435
6682.14390,0.09246
6684.07237,0.11385
6686.00084,0.13331
6687.92931,0.13067
6689.85778,0.04866
6691.78625,-0.06319
6693.71472,-0.10198
6695.64318,-0.07089
6697.57165,-0.01068
6699.50012,0.06483
6701.42859,0.10583
6703.35706,0.07442
6705.28553,0.04563
6707.21400,0.02983
6709.14247,-0.02746
6711.07093,-0.04312
6712.99940,0.00853
6714.92787,0.03871
6716.85634,0.01312
6718.78481,-0.02046
6720.71328,-0.03287
6722.64175,-0.05231
6724.57021,-0.06819
6726.49868,-0.04859
6728.42715,-0.01070
6730.35562,0.02603
6732.28409,0.04556
6734.21256,0.05293
6736.14103,0.06937
6738.06950,0.08095
6739.99796,0.09340
6741.92643,0.12191
6743.85490,0.11073
6745.78337,0.04636
6747.71184,-0.03245
6749.64031,-0.08240
6751.56878,-0.08151
6753.49724,-0.02660
6755.42571,0.04995
6757.35418,0.06753
6759.28265,0.04984
6761.21112,0.08219
6763.13959,0.11898
6765.06806,0.08998
6766.99653,0.02329
6768.92499,0.01601
6770.85346,0.11046
6772.78193,0.18698
6774.71040,0.10499
6776.63887,-0.00807
6778.56734,0.00845
6780.49581,0.00879
6782.42427,-0.04919
6784.35274,-0.05350
6786.28121,-0.01235
6788.20968,0.02136
6790.13815,0.03734
6792.06662,0.01062
6793.99509,-0.01899
6795.92355,0.03657
6797.85202,0.12779
6799.78049,0.15708
6801.70896,0.13982
6803.63743,0.13265
6805.56590,0.12231
6807.49437,0.09867
6809.42284,0.09352
6811.35130,0.11261
6813.27977,0.10403
6815.20824,0.02787
6817.13671,-0.02665
6819.06518,-0.00107
6820.99365,-0.01245
6822.92212,-0.08452
6824.85058,-0.07748
6826.77905,0.01012
6828.70752,0.08409
6830.63599,0.07192
6832.56446,0.03019
6834.49293,0.06021
6836.42140,0.14125
6838.34987,0.21534
6840.27833,0.24576
6842.20680,0.18104
6844.13527,0.11118
6846.06374,0.18715
6847.99221,0.35376
6849.92068,0.38339
6851.84915,0.21994
6853.77761,0.03123
6855.70608,-0.04032
6857.63455,-0.04952
6859.56302,-0.06071
6861.49149,-0.00438
6863.41996,0.03301
6865.34843,-0.00069
6867.27690,0.02802
6869.20536,0.11257
6871.13383,0.13076
6873.06230,0.06874
6874.99077,0.00993
6876.91924,-0.05334
6878.84771,-0.11994
6880.77618,-0.08305
6882.70464,0.01775
6884.63311,0.12682
6886.56158,0.24532
6888.49005,0.26643
6890.41852,0.20518
6892.34699,0.17558
6894.27546,0.11922
6896.20393,0.00748
6898.13239,0.00269
6900.06086,0.12379
6901.98933,0.23375
6903.91780,0.30696
6905.84627,0.25929
6907.77474,0.06588
6909.70321,-0.07936
6911.63167,-0.07543
6913.56014,-0.00168
6915.48861,0.02778
6917.41708,-0.01034
6919.34555,-0.05767
6921.27402,-0.04203
6923.20249,0.03145
6925.13096,0.12423
6927.05942,0.18845
6928.98789,0.16661
6930.91636,0.09137
6932.84483,0.05789
6934.77330,0.05305
6936.70177,0.03122
6938.63024,0.02943
6940.55870,0.07698
6942.48717,0.06787
6944.41564,-0.01191
6946.34411,-0.05093
6948.27258,-0.05154
6950.20105,-0.03896
6952.12952,0.03451
6954.05799,0.13011
6955.98645,0.17306
6957.91492,0.13006
6959.84339,0.01122
6961.77186,-0.03107
6963.70033,0.07156
6965.62880,0.16929
6967.55727,0.18252
6969.48573,0.12429
6971.41420,0.08101
6973.34267,0.14568
6975.27114,0.14998
6977.19961,0.01719
6979.12808,-0.02876
6981.05655,0.03610
6982.98501,0.06272
6984.91348,0.03810
6986.84195,0.00499
6988.77042,-0.05322
6990.69889,-0.05230
6992.62736,0.04924
6994.55583,0.17605
6996.48430,0.22141
6998.41276,0.12051
7000.34123,0.02491
7002.26970,0.04053
7004.19817,0.04902
7006.12664,0.02342
7008.05511,0.04137
7009.98358,0.09203
7011.91204,0.10313
7013.84051,0.01660
7015.76898,-0.04035
7017.69745,0.05607
7019.62592,0.17913
7021.55439,0.17033
7023.48286,0.03525
7025.41133,-0.11700
7027.33979,-0.19382
7029.26826,-0.09953
7031.19673,0.04160
7033.12520,0.04560
7035.05367,-0.00368
7036.98214,-0.03045
7038.91061,-0.02781
7040.83907,0.02085
7042.76754,0.07425
7044.69601,0.05235
7046.62448,-0.01812
7048.55295,0.04224
7050.48142,0.19375
7052.40989,0.25847
7054.33836,0.25841
7056.26682,0.26597
7058.19529,0.24240
7060.12376,0.17833
7062.05223,0.13542
7063.98070,0.10799
7065.90917,0.07494
7067.83764,0.07215
7069.76610,0.10932
7071.69457,0.17344
7073.62304,0.23784
7075.55151,0.19978
7077.47998,0.07571
7079.40845,0.00543
7081.33692,0.02683
7083.26539,0.11352
7085.19385,0.24569
7087.12232,0.27897
7089.05079,0.16917
7090.97926,0.06976
7092.90773,0.01679
7094.83620,0.00119
7096.76467,0.02266
7098.69313,0.07862
7100.62160,0.09374
7102.55007,-0.00429
7104.47854,-0.09370
7106.40701,-0.05900
7108.33548,-0.02212
7110.26395,-0.01005
7112.19242,0.04239
7114.12088,0.05700
7116.04935,0.04453
7117.97782,0.09759
7119.90629,0.12433
7121.83476,0.10064
7123.76323,0.09663
7125.69170,0.07718
7127.62016,0.01368
7129.54863,-0.05421
7131.47710,-0.09554
7133.40557,-0.08544
7135.33404,-0.07770
7137.26251,-0.12803
7139.19098,-0.14111
7141.11944,-0.07455
7143.04791,-0.02513
7144.97638,-0.08294
7146.90485,-0.18511
7148.83332,-0.13255
7150.76179,0.02144
7152.69026,0.10978
7154.61873,0.09760
7156.54719,0.06137
7158.47566,0.00707
7160.40413,-0.08246
7162.33260,-0.10071
7164.26107,0.05238
7166.18954,0.22690
7168.11801,0.27217
7170.04647,0.35836
7171.97494,0.41828
7173.90341,0.29654
7175.83188,0.19551
7177.76035,0.25973
7179.68882,0.32857
7181.61729,0.17915
7183.54576,-0.13570
7185.47422,-0.24985
7187.40269,-0.13175
7189.33116,-0.01230
7191.25963,-0.03575
7193.18810,-0.11258
7195.11657,-0.13468
7197.04504,-0.11763
7198.97350,-0.03076
7200.90197,0.09501
7202.83044,0.15910
7204.75891,0.11341
7206.68738,0.03459
7208.61585,-0.04183
7210.54432,-0.09176
7212.47279,-0.06676
7214.40125,-0.06447
7216.32972,-0.12572
7218.25819,-0.05111
7220.18666,0.10232
7222.11513,0.15937
7224.04360,0.21816
7225.97207,0.26608
7227.90053,0.18865
7229.82900,0.08736
7231.75747,0.03914
7233.68594,0.04662
7235.61441,0.13006
7237.54288,0.19248
7239.47135,0.15462
7241.39982,0.14562
7243.32828,0.17567
7245.25675,0.12197
7247.18522,0.09270
7249.11369,0.11694
7251.04216,0.14817
7252.97063,0.19548
7254.89910,0.18933
7256.82756,0.12131
7258.75603,0.05489
7260.68450,-0.00969
7262.61297,-0.09541
7264.54144,-0.21597
7266.46991,-0.32703
7268.39838,-0.37128
7270.32685,-0.36048
7272.25531,-0.28206
7274.18378,-0.14891
7276.11225,-0.03951
7278.04072,0.01799
7279.96919,0.06273
7281.89766,0.16828
7283.82613,0.23282
7285.75459,0.27466
7287.68306,0.31906
7289.61153,0.24139
7291.54000,0.12651
7293.46847,0.13897
7295.39694,0.11073
7297.32541,-0.02870
7299.25387,-0.06252
7301.18234,0.07321
7303.11081,0.17885
7305.03928,0.06519
7306.96775,-0.05707
7308.89622,0.05650
7310.82469,0.16586
7312.75316,0.18399
7314.68162,0.17525
7316.61009,0.18504
7318.53856,0.24823
7320.46703,0.26849
7322.39550,0.24236
7324.32397,0.17737
7326.25244,0.03977
7328.18090,-0.09723
7330.10937,-0.06770
7332.03784,0.03731
7333.96631,0.04009
7335.89478,-0.00693
7337.82325,0.02360
7339.75172,0.11318
7341.68019,0.02375
7343.60865,-0.10633
7345.53712,-0.12842
7347.46559,-0.06181
7349.39406,0.05300
7351.32253,0.11475
7353.25100,0.07169
7355.17947,-0.08300
7357.10793,-0.30137
7359.03640,-0.25003
7360.96487,0.06052
7362.89334,0.24389
7364.82181,0.27964
7366.75028,0.26538
7368.67875,0.25498
7370.60722,0.16433
7372.53568,-0.02282
7374.46415,-0.14053
7376.39262,-0.10094
7378.32109,0.00745
7380.24956,0.14488
7382.17803,0.19635
7384.10650,0.16158
7386.03496,0.15619
7387.96343,0.23969
7389.89190,0.35234
7391.82037,0.32977
7393.74884,0.18702
7395.67731,0.09616
7397.60578,0.11172
7399.53425,0.18977
7401.46271,0.26437
7403.39118,0.29103
7405.31965,0.29554
7407.24812,0.31945
7409.17659,0.31585
7411.10506,0.19362
7413.03353,0.02898
7414.96199,-0.02089
7416.89046,0.08180
7418.81893,0.22903
7420.74740,0.24005
7422.67587,0.12923
7424.60434,-0.01723
7426.53281,-0.11264
7428.46128,-0.04791
7430.38974,0.07701
7432.31821,0.03124
7434.24668,-0.06772
7436.17515,-0.14742
7438.10362,-0.15362
7440.03209,0.04303
7441.96056,0.25312
7443.88902,0.22672
7445.81749,0.05882
7447.74596,-0.00849
7449.67443,0.16512
7451.60290,0.39757
7453.53137,0.32883
7455.45984,0.09678
7457.38831,-0.06265
7459.31677,-0.09675
7461.24524,-0.08797
7463.17371,-0.14912
7465.10218,-0.09772
7467.03065,0.15815
7468.95912,0.39509
7470.88759,0.49485
7472.81605,0.46657
7474.74452,0.37839
7476.67299,0.23610
7478.60146,0.06243
7480.52993,-0.00275
7482.45840,-0.10143
7484.38687,-0.32192
7486.31533,-0.46235
7488.24380,-0.48991
7490.17227,-0.39104
7492.10074,-0.23112
7494.02921,-0.15909
7495.95768,-0.07779
7497.88615,0.05527
