399.19301,0.50846
401.12148,0.23289
403.04995,0.05148
404.97842,0.15072
406.90689,0.24156
408.83536,0.18797
410.76382,0.04116
412.69229,-0.01827
414.62076,0.07669
416.54923,0.13268
418.47770,-0.09029
420.40617,-0.28537
422.33464,-0.17002
424.26311,0.02826
426.19157,0.24184
428.12004,0.40555
430.04851,0.41724
431.97698,0.27286
433.90545,0.16304
435.83392,0.12405
437.76239,0.11617
439.69085,0.11504
441.61932,0.06463
443.54779,0.05734
445.47626,0.12958
447.40473,0.13954
449.33320,0.10956
451.26167,0.10537
453.19013,0.09521
455.11860,0.11787
457.04707,0.19153
458.97554,0.16272
460.90401,0.05059
462.83248,0.02562
464.76095,0.05944
466.68942,0.05569
468.61788,0.04586
470.54635,0.04563
472.47482,0.06022
474.40329,0.12550
476.33176,0.12226
478.26023,0.05135
480.18870,0.00071
482.11716,0.01577
484.04563,0.11259
485.97410,0.24144
487.90257,0.27902
489.83104,0.17763
491.75951,0.05603
493.68798,0.03675
495.61645,0.08592
497.54491,0.10507
499.47338,0.08235
501.40185,0.07085
503.33032,0.10012
505.25879,0.13396
507.18726,0.13310
509.11573,0.10354
511.04419,0.09544
512.97266,0.11038
514.90113,0.10774
516.82960,0.10215
518.75807,0.10718
520.68654,0.09451
522.61501,0.06149
524.54348,0.04136
526.47194,0.04468
528.40041,0.06449
530.32888,0.11131
532.25735,0.14596
534.18582,0.13579
536.11429,0.10009
538.04276,0.06268
539.97122,0.06731
541.89969,0.11933
543.82816,0.15157
545.75663,0.14935
547.68510,0.15674
549.61357,0.14522
551.54204,0.05036
553.47051,-0.04485
555.39897,-0.01144
557.32744,0.08327
559.25591,0.12537
561.18438,0.13707
563.11285,0.14704
565.04132,0.15054
566.96979,0.14631
568.89825,0.12832
570.82672,0.11758
572.75519,0.13358
574.68366,0.13661
576.61213,0.10302
578.54060,0.07935
580.46907,0.08564
582.39754,0.09627
584.32600,0.11964
586.25447,0.14850
588.18294,0.14295
590.11141,0.14661
592.03988,0.19155
593.96835,0.20349
595.89682,0.16405
597.82528,0.13964
599.75375,0.14251
601.68222,0.13430
603.61069,0.12455
605.53916,0.12725
607.46763,0.11062
609.39610,0.08390
611.32456,0.08743
613.25303,0.10734
615.18150,0.10902
617.10997,0.10398
619.03844,0.11775
620.96691,0.13913
622.89538,0.14537
624.82385,0.13725
626.75231,0.13124
628.68078,0.13701
630.60925,0.14320
632.53772,0.13918
634.46619,0.13509
636.39466,0.14320
638.32313,0.15612
640.25159,0.16174
642.18006,0.16426
644.10853,0.16733
646.03700,0.16104
647.96547,0.14900
649.89394,0.14988
651.82241,0.16000
653.75088,0.16157
655.67934,0.15968
657.60781,0.16875
659.53628,0.17049
661.46475,0.14984
663.39322,0.13034
665.32169,0.11895
667.25016,0.10733
669.17862,0.12026
671.10709,0.14152
673.03556,0.13998
674.96403,0.13613
676.89250,0.13706
678.82097,0.12708
680.74944,0.11602
682.67791,0.12043
684.60637,0.12955
686.53484,0.12787
688.46331,0.12029
690.39178,0.11648
692.32025,0.12116
694.24872,0.13360
696.17719,0.13946
698.10565,0.13471
700.03412,0.13060
701.96259,0.12958
703.89106,0.13033
705.81953,0.13078
707.74800,0.13003
709.67647,0.14091
711.60494,0.16162
713.53340,0.16743
715.46187,0.15945
717.39034,0.15534
719.31881,0.15062
721.24728,0.14475
723.17575,0.15112
725.10422,0.16371
727.03268,0.16351
728.96115,0.15054
730.88962,0.14238
732.81809,0.15008
734.74656,0.16385
736.67503,0.16677
738.60350,0.15799
740.53197,0.14355
742.46043,0.13034
744.38890,0.12443
746.31737,0.12779
748.24584,0.14095
750.17431,0.14711
752.10278,0.13398
754.03125,0.12542
755.95971,0.14224
757.88818,0.16547
759.81665,0.17036
761.74512,0.15747
763.67359,0.14038
765.60206,0.13617
767.53053,0.14284
769.45900,0.14622
771.38746,0.14884
773.31593,0.15052
775.24440,0.14453
777.17287,0.13776
779.10134,0.13914
781.02981,0.14058
782.95828,0.13738
784.88674,0.14280
786.81521,0.15343
788.74368,0.14999
790.67215,0.14183
792.60062,0.14556
794.52909,0.14674
796.45756,0.13844
798.38602,0.13830
800.31449,0.14367
802.24296,0.14217
804.17143,0.13890
806.09990,0.13982
808.02837,0.14214
809.95684,0.14464
811.88531,0.14542
813.81377,0.14719
815.74224,0.15586
817.67071,0.15616
819.59918,0.14089
821.52765,0.12535
823.45612,0.11670
825.38459,0.11679
827.31305,0.12579
829.24152,0.13653
831.16999,0.13737
833.09846,0.13026
835.02693,0.12889
836.95540,0.13597
838.88387,0.14682
840.81234,0.15731
842.74080,0.15862
844.66927,0.14736
846.59774,0.14372
848.52621,0.15625
850.45468,0.16572
852.38315,0.16760
854.31162,0.17004
856.24008,0.16969
858.16855,0.16517
860.09702,0.16177
862.02549,0.15711
863.95396,0.14858
865.88243,0.14125
867.81090,0.13798
869.73937,0.14065
871.66783,0.14658
873.59630,0.14165
875.52477,0.12295
877.45324,0.10688
879.38171,0.10218
881.31018,0.10731
883.23865,0.12405
885.16711,0.15130
887.09558,0.17381
889.02405,0.17643
890.95252,0.16319
892.88099,0.14840
894.80946,0.13605
896.73793,0.12710
898.66640,0.13143
900.59486,0.14179
902.52333,0.14466
904.45180,0.14890
906.38027,0.15415
908.30874,0.14909
910.23721,0.14396
912.16568,0.15106
914.09414,0.15843
916.02261,0.15286
917.95108,0.14298
919.87955,0.14111
921.80802,0.14666
923.73649,0.15456
925.66496,0.16117
927.59343,0.16443
929.52189,0.16405
931.45036,0.15910
933.37883,0.14958
935.30730,0.14151
937.23577,0.13719
939.16424,0.13244
941.09271,0.13634
943.02117,0.15053
944.94964,0.16027
946.87811,0.16462
948.80658,0.16442
950.73505,0.15887
952.66352,0.15509
954.59199,0.15294
956.52045,0.14991
958.44892,0.15031
960.37739,0.14821
962.30586,0.13513
964.23433,0.12457
966.16280,0.12902
968.09127,0.13707
970.01974,0.13850
971.94820,0.14088
973.87667,0.14948
975.80514,0.15404
977.73361,0.15105
979.66208,0.14718
981.59055,0.14467
983.51902,0.14488
985.44748,0.14200
987.37595,0.13291
989.30442,0.12939
991.23289,0.13604
993.16136,0.14648
995.08983,0.15418
997.01830,0.15412
998.94677,0.14796
1000.87523,0.14191
1002.80370,0.14082
1004.73217,0.14408
1006.66064,0.14574
1008.58911,0.14591
1010.51758,0.15108
1012.44605,0.15984
1014.37451,0.16602
1016.30298,0.16802
1018.23145,0.17125
1020.15992,0.17456
1022.08839,0.17049
1024.01686,0.17227
1025.94533,0.18827
1027.87380,0.20324
1029.80226,0.20272
1031.73073,0.18191
1033.65920,0.15969
1035.58767,0.15539
1037.51614,0.15744
1039.44461,0.15024
1041.37308,0.13991
1043.30154,0.14149
1045.23001,0.15087
1047.15848,0.15449
1049.08695,0.15701
1051.01542,0.16515
1052.94389,0.16920
1054.87236,0.16728
1056.80083,0.16853
1058.72929,0.16663
1060.65776,0.16058
1062.58623,0.16212
1064.51470,0.16827
1066.44317,0.16967
1068.37164,0.16660
1070.30011,0.16672
1072.22857,0.16914
1074.15704,0.16358
1076.08551,0.15857
1078.01398,0.16823
1079.94245,0.17910
1081.87092,0.17651
1083.79939,0.16854
1085.72786,0.16217
1087.65632,0.15382
1089.58479,0.14884
1091.51326,0.15363
1093.44173,0.16234
1095.37020,0.17279
1097.29867,0.18263
1099.22714,0.18818
1101.15560,0.19081
1103.08407,0.18616
1105.01254,0.17368
1106.94101,0.16721
1108.86948,0.17385
1110.79795,0.18033
1112.72642,0.17835
1114.65489,0.17175
1116.58335,0.16404
1118.51182,0.16017
1120.44029,0.16080
1122.36876,0.16268
1124.29723,0.16392
1126.22570,0.15944
1128.15417,0.14941
1130.08263,0.14744
1132.01110,0.15474
1133.93957,0.15767
1135.86804,0.15579
1137.79651,0.15245
1139.72498,0.14529
1141.65345,0.14352
1143.58191,0.15142
1145.51038,0.15831
1147.43885,0.16426
1149.36732,0.16873
1151.29579,0.16622
1153.22426,0.16550
1155.15273,0.16977
1157.08120,0.16984
1159.00966,0.16669
1160.93813,0.16729
1162.86660,0.16752
1164.79507,0.16505
1166.72354,0.16531
1168.65201,0.16606
1170.58048,0.16358
1172.50894,0.16053
1174.43741,0.15599
1176.36588,0.15142
1178.29435,0.15477
1180.22282,0.16260
1182.15129,0.16661
1184.07976,0.16795
1186.00823,0.16819
1187.93669,0.16603
1189.86516,0.16033
1191.79363,0.15365
1193.72210,0.15290
1195.65057,0.15974
1197.57904,0.16715
1199.50751,0.17107
1201.43597,0.17350
1203.36444,0.17385
1205.29291,0.17053
1207.22138,0.16542
1209.14985,0.16205
1211.07832,0.16243
1213.00679,0.16605
1214.93526,0.16860
1216.86372,0.16786
1218.79219,0.16731
1220.72066,0.16587
1222.64913,0.16240
1224.57760,0.16271
1226.50607,0.16683
1228.43454,0.16808
1230.36300,0.16781
1232.29147,0.16980
1234.21994,0.16989
1236.14841,0.16741
1238.07688,0.16653
1240.00535,0.16826
1241.93382,0.17086
1243.86229,0.17204
1245.79075,0.17346
1247.71922,0.17539
1249.64769,0.17373
1251.57616,0.16813
1253.50463,0.16304
1255.43310,0.16340
1257.36157,0.16774
1259.29003,0.16871
1261.21850,0.16697
1263.14697,0.16829
1265.07544,0.16948
1267.00391,0.16654
1268.93238,0.16387
1270.86085,0.16561
1272.78932,0.16871
1274.71778,0.16800
1276.64625,0.16504
1278.57472,0.16660
1280.50319,0.17191
1282.43166,0.17341
1284.36013,0.16989
1286.28860,0.16580
1288.21706,0.16545
1290.14553,0.16838
1292.07400,0.17020
1294.00247,0.16886
1295.93094,0.16522
1297.85941,0.16186
1299.78788,0.15897
1301.71634,0.15412
1303.64481,0.14978
1305.57328,0.15328
1307.50175,0.16383
1309.43022,0.17085
1311.35869,0.17114
1313.28716,0.17114
1315.21563,0.17310
1317.14409,0.17509
1319.07256,0.17589
1321.00103,0.17434
1322.92950,0.17208
1324.85797,0.16918
1326.78644,0.16603
1328.71491,0.16503
1330.64337,0.16338
1332.57184,0.16147
1334.50031,0.16330
1336.42878,0.16769
1338.35725,0.17155
1340.28572,0.16976
1342.21419,0.16375
1344.14266,0.16365
1346.07112,0.16974
1347.99959,0.17435
1349.92806,0.17456
1351.85653,0.17075
1353.78500,0.16610
1355.71347,0.16775
1357.64194,0.17568
1359.57040,0.18272
1361.49887,0.18640
1363.42734,0.18474
1365.35581,0.17925
1367.28428,0.17631
1369.21275,0.17573
1371.14122,0.17733
1373.06969,0.18336
1374.99815,0.18900
1376.92662,0.18820
1378.85509,0.18402
1380.78356,0.17936
1382.71203,0.17795
1384.64050,0.18349
1386.56897,0.19079
1388.49743,0.19078
1390.42590,0.18712
1392.35437,0.18870
1394.28284,0.19464
1396.21131,0.19439
1398.13978,0.18703
1400.06825,0.18224
1401.99672,0.18289
1403.92518,0.18596
1405.85365,0.18575
1407.78212,0.18049
1409.71059,0.17719
1411.63906,0.17838
1413.56753,0.18379
1415.49600,0.19426
1417.42446,0.20405
1419.35293,0.19919
1421.28140,0.18687
1423.20987,0.18555
1425.13834,0.18996
1427.06681,0.19205
1428.99528,0.19300
1430.92375,0.19022
1432.85221,0.18580
1434.78068,0.18922
1436.70915,0.19467
1438.63762,0.18760
1440.56609,0.17830
1442.49456,0.17403
1444.42303,0.17462
1446.35149,0.17836
1448.27996,0.17941
1450.20843,0.17681
1452.13690,0.18052
1454.06537,0.19528
1455.99384,0.21289
1457.92231,0.21027
1459.85077,0.19430
1461.77924,0.19156
1463.70771,0.19974
1465.63618,0.20145
1467.56465,0.19299
1469.49312,0.19155
1471.42159,0.20176
1473.35006,0.21173
1475.27852,0.20694
1477.20699,0.19548
1479.13546,0.18858
1481.06393,0.18826
1482.99240,0.18938
1484.92087,0.19303
1486.84934,0.20287
1488.77780,0.21423
1490.70627,0.21378
1492.63474,0.20894
1494.56321,0.21307
1496.49168,0.21730
1498.42015,0.20606
1500.34862,0.19325
1502.27709,0.19441
1504.20555,0.21048
1506.13402,0.23787
1508.06249,0.23960
1509.99096,0.21799
1511.91943,0.20599
1513.84790,0.20673
1515.77637,0.21546
1517.70483,0.22121
1519.63330,0.22729
1521.56177,0.23669
1523.49024,0.23029
1525.41871,0.21822
1527.34718,0.20789
1529.27565,0.19830
1531.20412,0.19869
1533.13258,0.20815
1535.06105,0.21314
1536.98952,0.22312
1538.91799,0.25621
1540.84646,0.28207
1542.77493,0.26014
1544.70340,0.23663
1546.63186,0.21688
1548.56033,0.20149
1550.48880,0.19356
1552.41727,0.19484
1554.34574,0.20527
1556.27421,0.22463
1558.20268,0.24963
1560.13115,0.23510
1562.05961,0.20873
1563.98808,0.19704
1565.91655,0.19222
1567.84502,0.19546
1569.77349,0.20266
1571.70196,0.20437
1573.63043,0.20669
1575.55889,0.20929
1577.48736,0.20049
1579.41583,0.18834
1581.34430,0.18307
1583.27277,0.18384
1585.20124,0.18644
1587.12971,0.18802
1589.05818,0.18749
1590.98664,0.18554
1592.91511,0.18401
1594.84358,0.18337
1596.77205,0.18259
1598.70052,0.18254
1600.62899,0.18451
1602.55746,0.18654
1604.48592,0.18723
1606.41439,0.18819
1608.34286,0.18839
1610.27133,0.18445
1612.19980,0.18161
1614.12827,0.18868
1616.05674,0.20215
1617.98521,0.20399
1619.91367,0.19917
1621.84214,0.19938
1623.77061,0.20014
1625.69908,0.19942
1627.62755,0.19900
1629.55602,0.19643
1631.48449,0.19616
1633.41295,0.20558
1635.34142,0.22168
1637.26989,0.21900
1639.19836,0.20669
1641.12683,0.20373
1643.05530,0.20850
1644.98377,0.21646
1646.91223,0.22132
1648.84070,0.21901
1650.76917,0.22477
1652.69764,0.24202
1654.62611,0.23065
1656.55458,0.20782
1658.48305,0.19897
1660.41152,0.20207
1662.33998,0.20919
1664.26845,0.20773
1666.19692,0.20578
1668.12539,0.21517
1670.05386,0.22594
1671.98233,0.22237
1673.91080,0.21700
1675.83926,0.21093
1677.76773,0.20382
1679.69620,0.20649
1681.62467,0.22244
1683.55314,0.23986
1685.48161,0.22759
1687.41008,0.21032
1689.33855,0.20569
1691.26701,0.20497
1693.19548,0.20839
1695.12395,0.21827
1697.05242,0.22865
1698.98089,0.23326
1700.90936,0.22565
1702.83783,0.21488
1704.76629,0.20977
1706.69476,0.20184
1708.62323,0.19110
1710.55170,0.18666
1712.48017,0.19219
1714.40864,0.20616
1716.33711,0.22044
1718.26558,0.21529
1720.19404,0.19944
1722.12251,0.19173
1724.05098,0.19121
1725.97945,0.19338
1727.90792,0.19678
1729.83639,0.20159
1731.76486,0.21005
1733.69332,0.21723
1735.62179,0.20659
1737.55026,0.19749
1739.47873,0.20170
1741.40720,0.20880
1743.33567,0.21125
1745.26414,0.21185
1747.19261,0.21310
1749.12107,0.21399
1751.04954,0.20875
1752.97801,0.20009
1754.90648,0.19551
1756.83495,0.19443
1758.76342,0.19502
1760.69189,0.19770
1762.62035,0.19691
1764.54882,0.19342
1766.47729,0.19438
1768.40576,0.19777
1770.33423,0.20295
1772.26270,0.20879
1774.19117,0.20614
1776.11964,0.19976
1778.04810,0.19852
1779.97657,0.20063
1781.90504,0.19847
1783.83351,0.19439
1785.76198,0.19286
1787.69045,0.19393
1789.61892,0.20041
1791.54738,0.20927
1793.47585,0.20815
1795.40432,0.20088
1797.33279,0.19668
1799.26126,0.19556
1801.18973,0.19443
1803.11820,0.18968
1805.04666,0.18611
1806.97513,0.18930
1808.90360,0.19435
1810.83207,0.19407
1812.76054,0.19007
1814.68901,0.18761
1816.61748,0.18815
1818.54595,0.19081
1820.47441,0.19401
1822.40288,0.19782
1824.33135,0.20146
1826.25982,0.20264
1828.18829,0.20223
1830.11676,0.19794
1832.04523,0.19102
1833.97369,0.18993
1835.90216,0.19323
1837.83063,0.19422
1839.75910,0.19410
1841.68757,0.19823
1843.61604,0.20386
1845.54451,0.20142
1847.47298,0.19367
1849.40144,0.18868
1851.32991,0.18770
1853.25838,0.18833
1855.18685,0.18783
1857.11532,0.18637
1859.04379,0.18577
1860.97226,0.18618
1862.90072,0.18714
1864.82919,0.19057
1866.75766,0.19808
1868.68613,0.20306
1870.61460,0.19949
1872.54307,0.19475
1874.47154,0.19286
1876.40001,0.19313
1878.32847,0.19253
1880.25694,0.18948
1882.18541,0.18816
1884.11388,0.18969
1886.04235,0.19194
1887.97082,0.19409
1889.89929,0.19381
1891.82775,0.19294
1893.75622,0.19413
1895.68469,0.19266
1897.61316,0.18852
1899.54163,0.18825
1901.47010,0.19058
1903.39857,0.18975
1905.32704,0.18699
1907.25550,0.18764
1909.18397,0.19105
1911.11244,0.19126
1913.04091,0.18817
1914.96938,0.18756
1916.89785,0.19066
1918.82632,0.19271
1920.75478,0.19315
1922.68325,0.19402
1924.61172,0.19330
1926.54019,0.19181
1928.46866,0.19098
1930.39713,0.18949
1932.32560,0.18864
1934.25407,0.19021
1936.18253,0.19178
1938.11100,0.19177
1940.03947,0.19279
1941.96794,0.19507
1943.89641,0.19470
1945.82488,0.19193
1947.75335,0.19107
1949.68181,0.19209
1951.61028,0.19177
1953.53875,0.19042
1955.46722,0.18897
1957.39569,0.18743
1959.32416,0.18792
1961.25263,0.19034
1963.18110,0.19241
1965.10956,0.19416
1967.03803,0.19485
1968.96650,0.19222
1970.89497,0.18931
1972.82344,0.18831
1974.75191,0.18413
1976.68038,0.17793
1978.60884,0.17860
1980.53731,0.18553
1982.46578,0.18939
1984.39425,0.18815
1986.32272,0.18757
1988.25119,0.18960
1990.17966,0.19241
1992.10812,0.19439
1994.03659,0.19412
1995.96506,0.19206
1997.89353,0.18836
1999.82200,0.18453
2001.75047,0.18526
2003.67894,0.18886
2005.60741,0.19023
2007.53587,0.19032
2009.46434,0.18938
2011.39281,0.18726
2013.32128,0.18658
2015.24975,0.18792
2017.17822,0.19046
2019.10669,0.19169
2021.03515,0.19050
2022.96362,0.18900
2024.89209,0.18775
2026.82056,0.18742
2028.74903,0.18927
2030.67750,0.19093
2032.60597,0.19025
2034.53444,0.18888
2036.46290,0.18807
2038.39137,0.18784
2040.31984,0.18885
2042.24831,0.18998
2044.17678,0.18983
2046.10525,0.19106
2048.03372,0.19412
2049.96218,0.19405
2051.89065,0.18997
2053.81912,0.18723
2055.74759,0.18812
2057.67606,0.18878
2059.60453,0.18750
2061.53300,0.18732
2063.46147,0.18847
2065.38993,0.18821
2067.31840,0.18678
2069.24687,0.18648
2071.17534,0.18882
2073.10381,0.19235
2075.03228,0.19332
2076.96075,0.19236
2078.88921,0.19264
2080.81768,0.19394
2082.74615,0.19375
2084.67462,0.19180
2086.60309,0.19226
2088.53156,0.19544
2090.46003,0.19561
2092.38850,0.19284
2094.31696,0.19189
2096.24543,0.19195
2098.17390,0.19150
2100.10237,0.19177
2102.03084,0.19262
2103.95931,0.19295
2105.88778,0.19130
2107.81624,0.18897
2109.74471,0.18842
2111.67318,0.18828
2113.60165,0.18686
2115.53012,0.18566
2117.45859,0.18702
2119.38706,0.19104
2121.31553,0.19578
2123.24399,0.19757
2125.17246,0.19466
2127.10093,0.19221
2129.02940,0.19441
2130.95787,0.19751
2132.88634,0.19737
2134.81481,0.19475
2136.74327,0.19187
2138.67174,0.19052
2140.60021,0.19145
2142.52868,0.19125
2144.45715,0.18828
2146.38562,0.18803
2148.31409,0.19019
2150.24255,0.18878
2152.17102,0.18644
2154.09949,0.18718
2156.02796,0.18916
2157.95643,0.19055
2159.88490,0.19038
2161.81337,0.18894
2163.74184,0.18891
2165.67030,0.19113
2167.59877,0.19393
2169.52724,0.19579
2171.45571,0.19538
2173.38418,0.19408
2175.31265,0.19400
2177.24112,0.19422
2179.16958,0.19389
2181.09805,0.19292
2183.02652,0.19086
2184.95499,0.18947
2186.88346,0.19098
2188.81193,0.19340
2190.74040,0.19470
2192.66887,0.19464
2194.59733,0.19255
2196.52580,0.18960
2198.45427,0.18689
2200.38274,0.18577
2202.31121,0.18751
2204.23968,0.18950
2206.16815,0.18919
2208.09661,0.18787
2210.02508,0.18775
2211.95355,0.18802
2213.88202,0.18700
2215.81049,0.18624
2217.73896,0.18853
2219.66743,0.19086
2221.59590,0.18863
2223.52436,0.18627
2225.45283,0.18836
2227.38130,0.19087
2229.30977,0.19183
2231.23824,0.19379
2233.16671,0.19524
2235.09518,0.19372
2237.02364,0.19176
2238.95211,0.19147
2240.88058,0.19163
2242.80905,0.19080
2244.73752,0.18932
2246.66599,0.18876
2248.59446,0.18944
2250.52293,0.19117
2252.45139,0.19359
2254.37986,0.19497
2256.30833,0.19516
2258.23680,0.19585
2260.16527,0.19692
2262.09374,0.19683
2264.02221,0.19545
2265.95067,0.19386
2267.87914,0.19231
2269.80761,0.19172
2271.73608,0.19208
2273.66455,0.19167
2275.59302,0.19110
2277.52149,0.19152
2279.44996,0.19252
2281.37842,0.19237
2283.30689,0.19005
2285.23536,0.18827
2287.16383,0.19021
2289.09230,0.19507
2291.02077,0.19764
2292.94924,0.19439
2294.87770,0.18869
2296.80617,0.18490
2298.73464,0.18434
2300.66311,0.18722
2302.59158,0.19171
2304.52005,0.19479
2306.44852,0.19567
2308.37699,0.19502
2310.30545,0.19371
2312.23392,0.19344
2314.16239,0.19584
2316.09086,0.19843
2318.01933,0.19902
2319.94780,0.20352
2321.87627,0.21274
2323.80473,0.21834
2325.73320,0.21830
2327.66167,0.21286
2329.59014,0.20717
2331.51861,0.20842
2333.44708,0.21009
2335.37555,0.20931
2337.30401,0.20975
2339.23248,0.20848
2341.16095,0.20484
2343.08942,0.20127
2345.01789,0.19747
2346.94636,0.19428
2348.87483,0.19463
2350.80330,0.20066
2352.73176,0.21177
2354.66023,0.21758
2356.58870,0.20565
2358.51717,0.18952
2360.44564,0.18797
2362.37411,0.19060
2364.30258,0.19393
2366.23104,0.20527
2368.15951,0.21159
2370.08798,0.20049
2372.01645,0.18744
2373.94492,0.18927
2375.87339,0.19722
2377.80186,0.19750
2379.73033,0.19354
2381.65879,0.19189
2383.58726,0.19054
2385.51573,0.18972
2387.44420,0.19147
2389.37267,0.19265
2391.30114,0.19220
2393.22961,0.19164
2395.15807,0.19095
2397.08654,0.19090
2399.01501,0.19061
2400.94348,0.18907
2402.87195,0.18718
2404.80042,0.18714
2406.72889,0.19064
2408.65736,0.19241
2410.58582,0.18910
2412.51429,0.18727
2414.44276,0.18991
2416.37123,0.19153
2418.29970,0.19076
2420.22817,0.19124
2422.15664,0.19199
2424.08510,0.19051
2426.01357,0.18807
2427.94204,0.18757
2429.87051,0.18928
2431.79898,0.19024
2433.72745,0.18942
2435.65592,0.18785
2437.58439,0.18571
2439.51285,0.18496
2441.44132,0.18811
2443.36979,0.19202
2445.29826,0.19249
2447.22673,0.19100
2449.15520,0.19031
2451.08367,0.19035
2453.01213,0.18929
2454.94060,0.18667
2456.86907,0.18444
2458.79754,0.18397
2460.72601,0.18450
2462.65448,0.18532
2464.58295,0.18748
2466.51142,0.19097
2468.43988,0.19235
2470.36835,0.19077
2472.29682,0.19052
2474.22529,0.19255
2476.15376,0.19325
2478.08223,0.19266
2480.01070,0.19334
2481.93916,0.19403
2483.86763,0.19370
2485.79610,0.19266
2487.72457,0.19014
2489.65304,0.18909
2491.58151,0.19177
2493.50998,0.19422
2495.43844,0.19317
2497.36691,0.19105
2499.29538,0.19133
2501.22385,0.19188
2503.15232,0.19165
2505.08079,0.19401
2507.00926,0.19594
2508.93773,0.19268
2510.86619,0.18837
2512.79466,0.18766
2514.72313,0.18915
2516.65160,0.19012
2518.58007,0.19017
2520.50854,0.19030
2522.43701,0.19029
2524.36547,0.18981
2526.29394,0.19035
2528.22241,0.19242
2530.15088,0.19323
2532.07935,0.19234
2534.00782,0.19236
2535.93629,0.19223
2537.86476,0.19132
2539.79322,0.19191
2541.72169,0.19288
2543.65016,0.19230
2545.57863,0.19157
2547.50710,0.19188
2549.43557,0.19235
2551.36404,0.19150
2553.29250,0.18999
2555.22097,0.19109
2557.14944,0.19375
2559.07791,0.19259
2561.00638,0.18871
2562.93485,0.18831
2564.86332,0.19200
2566.79179,0.19419
2568.72025,0.19289
2570.64872,0.19230
2572.57719,0.19254
2574.50566,0.19127
2576.43413,0.19244
2578.36260,0.19589
2580.29107,0.19515
2582.21953,0.19197
2584.14800,0.19204
2586.07647,0.19250
2588.00494,0.19045
2589.93341,0.19032
2591.86188,0.19485
2593.79035,0.19979
2595.71882,0.19909
2597.64728,0.19363
2599.57575,0.19006
2601.50422,0.19084
2603.43269,0.19414
2605.36116,0.19754
2607.28963,0.19883
2609.21810,0.19841
2611.14656,0.19715
2613.07503,0.19478
2615.00350,0.19362
2616.93197,0.19541
2618.86044,0.19797
2620.78891,0.20040
2622.71738,0.20110
2624.64585,0.19679
2626.57431,0.19206
2628.50278,0.19342
2630.43125,0.19731
2632.35972,0.19767
2634.28819,0.19544
2636.21666,0.19479
2638.14513,0.19533
2640.07359,0.19540
2642.00206,0.19653
2643.93053,0.19891
2645.85900,0.20025
2647.78747,0.19934
2649.71594,0.19753
2651.64441,0.19644
2653.57288,0.19694
2655.50134,0.19853
2657.42981,0.19912
2659.35828,0.19885
2661.28675,0.19914
2663.21522,0.19934
2665.14369,0.19816
2667.07216,0.19719
2669.00062,0.19827
2670.92909,0.19834
2672.85756,0.19583
2674.78603,0.19553
2676.71450,0.19872
2678.64297,0.20157
2680.57144,0.20272
2682.49990,0.20058
2684.42837,0.19511
2686.35684,0.19201
2688.28531,0.19508
2690.21378,0.20072
2692.14225,0.20297
2694.07072,0.20143
2695.99919,0.19878
2697.92765,0.19554
2699.85612,0.19341
2701.78459,0.19483
2703.71306,0.19848
2705.64153,0.20133
2707.57000,0.20185
2709.49847,0.20154
2711.42693,0.20195
2713.35540,0.20157
2715.28387,0.20170
2717.21234,0.20380
2719.14081,0.20378
2721.06928,0.20056
2722.99775,0.19799
2724.92622,0.19736
2726.85468,0.19868
2728.78315,0.20252
2730.71162,0.20605
2732.64009,0.20621
2734.56856,0.20573
2736.49703,0.20680
2738.42550,0.20667
2740.35396,0.20484
2742.28243,0.20423
2744.21090,0.20513
2746.13937,0.20513
2748.06784,0.20539
2749.99631,0.20855
2751.92478,0.20963
2753.85325,0.20433
2755.78171,0.19974
2757.71018,0.20141
2759.63865,0.20540
2761.56712,0.20809
2763.49559,0.20904
2765.42406,0.20821
2767.35253,0.20631
2769.28099,0.20383
2771.20946,0.20186
2773.13793,0.20347
2775.06640,0.20805
2776.99487,0.20895
2778.92334,0.20510
2780.85181,0.20210
2782.78028,0.20103
2784.70874,0.20196
2786.63721,0.20551
2788.56568,0.20903
2790.49415,0.20999
2792.42262,0.20677
2794.35109,0.20238
2796.27956,0.20209
2798.20802,0.20427
2800.13649,0.20671
2802.06496,0.20954
2803.99343,0.21133
2805.92190,0.21291
2807.85037,0.21379
2809.77884,0.21202
2811.70731,0.21062
2813.63577,0.21313
2815.56424,0.21720
2817.49271,0.21609
2819.42118,0.20962
2821.34965,0.20395
2823.27812,0.20097
2825.20659,0.20126
2827.13505,0.20459
2829.06352,0.20677
2830.99199,0.20495
2832.92046,0.20319
2834.84893,0.20691
2836.77740,0.21171
2838.70587,0.21050
2840.63433,0.20564
2842.56280,0.20223
2844.49127,0.20011
2846.41974,0.20009
2848.34821,0.20300
2850.27668,0.20522
2852.20515,0.20648
2854.13362,0.20673
2856.06208,0.20582
2857.99055,0.20818
2859.91902,0.21326
2861.84749,0.21469
2863.77596,0.21006
2865.70443,0.20507
2867.63290,0.20309
2869.56136,0.20043
2871.48983,0.19778
2873.41830,0.19976
2875.34677,0.20497
2877.27524,0.20952
2879.20371,0.21201
2881.13218,0.20836
2883.06065,0.19910
2884.98911,0.19235
2886.91758,0.19131
2888.84605,0.19490
2890.77452,0.19924
2892.70299,0.20002
2894.63146,0.20004
2896.55993,0.20313
2898.48839,0.20614
2900.41686,0.20554
2902.34533,0.20337
2904.27380,0.20181
2906.20227,0.20078
2908.13074,0.20108
2910.05921,0.20195
2911.98768,0.20214
2913.91614,0.20195
2915.84461,0.19985
2917.77308,0.19789
2919.70155,0.19960
2921.63002,0.20303
2923.55849,0.20590
2925.48696,0.20474
2927.41542,0.20151
2929.34389,0.20340
2931.27236,0.20577
2933.20083,0.20189
2935.12930,0.19640
2937.05777,0.19548
2938.98624,0.19946
2940.91471,0.20288
2942.84317,0.20333
2944.77164,0.20335
2946.70011,0.20177
2948.62858,0.20124
2950.55705,0.20624
2952.48552,0.21231
2954.41399,0.21362
2956.34245,0.20828
2958.27092,0.20227
2960.19939,0.20418
2962.12786,0.21139
2964.05633,0.21498
2965.98480,0.21129
2967.91327,0.20561
2969.84174,0.20529
2971.77020,0.20883
2973.69867,0.21003
2975.62714,0.20712
2977.55561,0.20344
2979.48408,0.20467
2981.41255,0.21245
2983.34102,0.22131
2985.26948,0.22376
2987.19795,0.21796
2989.12642,0.20903
2991.05489,0.20390
2992.98336,0.20587
2994.91183,0.21022
2996.84030,0.20995
2998.76877,0.20788
3000.69723,0.21031
3002.62570,0.21392
3004.55417,0.21413
3006.48264,0.21094
3008.41111,0.20397
3010.33958,0.19610
3012.26805,0.18837
3014.19651,0.17474
3016.12498,0.16040
3018.05345,0.16653
3019.98192,0.19325
3021.91039,0.21454
3023.83886,0.22029
3025.76733,0.21791
3027.69579,0.21415
3029.62426,0.21358
3031.55273,0.21500
3033.48120,0.21589
3035.40967,0.21762
3037.33814,0.21812
3039.26661,0.21575
3041.19508,0.21507
3043.12354,0.21664
3045.05201,0.21548
3046.98048,0.21091
3048.90895,0.21015
3050.83742,0.21487
3052.76589,0.21692
3054.69436,0.21449
3056.62282,0.21073
3058.55129,0.20967
3060.47976,0.21389
3062.40823,0.21740
3064.33670,0.21348
3066.26517,0.20462
3068.19364,0.20055
3070.12211,0.20422
3072.05057,0.20759
3073.97904,0.20524
3075.90751,0.20240
3077.83598,0.20593
3079.76445,0.21185
3081.69292,0.21294
3083.62139,0.20657
3085.54985,0.19910
3087.47832,0.20164
3089.40679,0.20914
3091.33526,0.21048
3093.26373,0.20511
3095.19220,0.19927
3097.12067,0.20002
3099.04914,0.20585
3100.97760,0.20968
3102.90607,0.20793
3104.83454,0.20648
3106.76301,0.21074
3108.69148,0.21395
3110.61995,0.21058
3112.54842,0.20748
3114.47688,0.21169
3116.40535,0.21649
3118.33382,0.21452
3120.26229,0.21003
3122.19076,0.20890
3124.11923,0.21124
3126.04770,0.21363
3127.97617,0.21287
3129.90463,0.20893
3131.83310,0.20810
3133.76157,0.20992
3135.69004,0.20722
3137.61851,0.20416
3139.54698,0.20691
3141.47545,0.21164
3143.40391,0.21326
3145.33238,0.21462
3147.26085,0.21736
3149.18932,0.21707
3151.11779,0.21446
3153.04626,0.21321
3154.97473,0.21196
3156.90320,0.20887
3158.83166,0.20641
3160.76013,0.20684
3162.68860,0.20875
3164.61707,0.20882
3166.54554,0.20850
3168.47401,0.21252
3170.40248,0.21501
3172.33094,0.21226
3174.25941,0.21357
3176.18788,0.21942
3178.11635,0.22393
3180.04482,0.22739
3181.97329,0.22768
3183.90176,0.22457
3185.83022,0.22049
3187.75869,0.21319
3189.68716,0.20838
3191.61563,0.21388
3193.54410,0.22210
3195.47257,0.22308
3197.40104,0.21904
3199.32951,0.21662
3201.25797,0.21800
3203.18644,0.22109
3205.11491,0.22266
3207.04338,0.22224
3208.97185,0.22120
3210.90032,0.22190
3212.82879,0.22364
3214.75725,0.21961
3216.68572,0.21183
3218.61419,0.20917
3220.54266,0.21035
3222.47113,0.21146
3224.39960,0.21243
3226.32807,0.21222
3228.25654,0.20974
3230.18500,0.20806
3232.11347,0.21111
3234.04194,0.21579
3235.97041,0.21569
3237.89888,0.21255
3239.82735,0.21462
3241.75582,0.22017
3243.68428,0.21988
3245.61275,0.21519
3247.54122,0.21356
3249.46969,0.21267
3251.39816,0.20841
3253.32663,0.20504
3255.25510,0.20477
3257.18357,0.20659
3259.11203,0.20936
3261.04050,0.20770
3262.96897,0.20198
3264.89744,0.19957
3266.82591,0.20281
3268.75438,0.20563
3270.68285,0.20291
3272.61131,0.20281
3274.53978,0.21093
3276.46825,0.21542
3278.39672,0.21214
3280.32519,0.21124
3282.25366,0.21438
3284.18213,0.21734
3286.11060,0.21750
3288.03906,0.21338
3289.96753,0.20838
3291.89600,0.20390
3293.82447,0.20059
3295.75294,0.20236
3297.68141,0.20520
3299.60988,0.20522
3301.53834,0.20704
3303.46681,0.21156
3305.39528,0.21436
3307.32375,0.21381
3309.25222,0.21354
3311.18069,0.21392
3313.10916,0.21204
3315.03763,0.20964
3316.96609,0.20891
3318.89456,0.20940
3320.82303,0.20813
3322.75150,0.20538
3324.67997,0.20502
3326.60844,0.20626
3328.53691,0.20660
3330.46537,0.20393
3332.39384,0.19936
3334.32231,0.20059
3336.25078,0.20989
3338.17925,0.21681
3340.10772,0.21624
3342.03619,0.21608
3343.96466,0.21742
3345.89312,0.21630
3347.82159,0.21819
3349.75006,0.22177
3351.67853,0.21679
3353.60700,0.21026
3355.53547,0.21305
3357.46394,0.21664
3359.39240,0.21319
3361.32087,0.20925
3363.24934,0.21043
3365.17781,0.21292
3367.10628,0.21512
3369.03475,0.21930
3370.96322,0.22264
3372.89168,0.22352
3374.82015,0.22387
3376.74862,0.22161
3378.67709,0.21627
3380.60556,0.21357
3382.53403,0.21614
3384.46250,0.21832
3386.39097,0.21362
3388.31943,0.20576
3390.24790,0.20187
3392.17637,0.20164
3394.10484,0.20514
3396.03331,0.21245
3397.96178,0.21672
3399.89025,0.21512
3401.81871,0.21429
3403.74718,0.21595
3405.67565,0.21573
3407.60412,0.21545
3409.53259,0.21681
3411.46106,0.21460
3413.38953,0.20965
3415.31800,0.20942
3417.24646,0.21486
3419.17493,0.21890
3421.10340,0.21497
3423.03187,0.20888
3424.96034,0.21082
3426.88881,0.21616
3428.81728,0.21434
3430.74574,0.20584
3432.67421,0.19817
3434.60268,0.19725
3436.53115,0.20427
3438.45962,0.21098
3440.38809,0.20929
3442.31656,0.20261
3444.24503,0.19829
3446.17349,0.19869
3448.10196,0.20109
3450.03043,0.20340
3451.95890,0.20662
3453.88737,0.20979
3455.81584,0.20857
3457.74431,0.20369
3459.67277,0.20059
3461.60124,0.19690
3463.52971,0.19112
3465.45818,0.18808
3467.38665,0.18657
3469.31512,0.18546
3471.24359,0.18851
3473.17206,0.19535
3475.10052,0.19844
3477.02899,0.19307
3478.95746,0.18819
3480.88593,0.19149
3482.81440,0.19737
3484.74287,0.20045
3486.67134,0.19945
3488.59980,0.19330
3490.52827,0.18658
3492.45674,0.18583
3494.38521,0.18894
3496.31368,0.18831
3498.24215,0.18514
3500.17062,0.18520
3502.09909,0.18564
3504.02755,0.18299
3505.95602,0.18084
3507.88449,0.18104
3509.81296,0.18211
3511.74143,0.18324
3513.66990,0.18381
3515.59837,0.18301
3517.52683,0.18229
3519.45530,0.18349
3521.38377,0.18343
3523.31224,0.17906
3525.24071,0.17653
3527.16918,0.17898
3529.09765,0.17663
3531.02611,0.17001
3532.95458,0.16957
3534.88305,0.17221
3536.81152,0.17038
3538.73999,0.16579
3540.66846,0.16359
3542.59693,0.16553
3544.52540,0.16957
3546.45386,0.17212
3548.38233,0.17215
3550.31080,0.17190
3552.23927,0.17316
3554.16774,0.17405
3556.09621,0.16967
3558.02468,0.16211
3559.95314,0.16170
3561.88161,0.16853
3563.81008,0.17264
3565.73855,0.17442
3567.66702,0.17617
3569.59549,0.17526
3571.52396,0.17314
3573.45243,0.16905
3575.38089,0.16294
3577.30936,0.15711
3579.23783,0.15395
3581.16630,0.15637
3583.09477,0.16370
3585.02324,0.17145
3586.95171,0.17377
3588.88017,0.16968
3590.80864,0.16833
3592.73711,0.17082
3594.66558,0.16989
3596.59405,0.16298
3598.52252,0.15587
3600.45099,0.15019
3602.37946,0.14565
3604.30792,0.14642
3606.23639,0.15496
3608.16486,0.16232
3610.09333,0.16039
3612.02180,0.16091
3613.95027,0.16619
3615.87874,0.16749
3617.80720,0.16859
3619.73567,0.16992
3621.66414,0.16176
3623.59261,0.14887
3625.52108,0.14212
3627.44955,0.14782
3629.37802,0.15759
3631.30649,0.15571
3633.23495,0.15124
3635.16342,0.14870
3637.09189,0.14843
3639.02036,0.15062
3640.94883,0.15114
3642.87730,0.14926
3644.80577,0.15286
3646.73423,0.16855
3648.66270,0.18766
3650.59117,0.17821
3652.51964,0.15724
3654.44811,0.15040
3656.37658,0.15115
3658.30505,0.14652
3660.23352,0.13929
3662.16198,0.13562
3664.09045,0.13675
3666.01892,0.14247
3667.94739,0.15078
3669.87586,0.15358
3671.80433,0.15133
3673.73280,0.16023
3675.66126,0.17063
3677.58973,0.16016
3679.51820,0.14926
3681.44667,0.14710
3683.37514,0.14449
3685.30361,0.13816
3687.23208,0.13605
3689.16055,0.14315
3691.08901,0.14757
3693.01748,0.14140
3694.94595,0.13175
3696.87442,0.12703
3698.80289,0.13055
3700.73136,0.13721
3702.65983,0.14028
3704.58829,0.14013
3706.51676,0.14252
3708.44523,0.15090
3710.37370,0.15860
3712.30217,0.14913
3714.23064,0.13465
3716.15911,0.13233
3718.08757,0.14006
3720.01604,0.14901
3721.94451,0.15035
3723.87298,0.14471
3725.80145,0.14040
3727.72992,0.14089
3729.65839,0.14341
3731.58686,0.14881
3733.51532,0.15827
3735.44379,0.16104
3737.37226,0.15535
3739.30073,0.15299
3741.22920,0.15309
3743.15767,0.15494
3745.08614,0.15800
3747.01460,0.15843
3748.94307,0.16075
3750.87154,0.16215
3752.80001,0.15007
3754.72848,0.13808
3756.65695,0.13515
3758.58542,0.13274
3760.51389,0.12745
3762.44235,0.12844
3764.37082,0.13430
3766.29929,0.13774
3768.22776,0.13830
3770.15623,0.13767
3772.08470,0.13368
3774.01317,0.13211
3775.94163,0.13759
3777.87010,0.14318
3779.79857,0.13905
3781.72704,0.13170
3783.65551,0.12995
3785.58398,0.12969
3787.51245,0.12740
3789.44092,0.12428
3791.36938,0.12337
3793.29785,0.12711
3795.22632,0.13381
3797.15479,0.13922
3799.08326,0.14360
3801.01173,0.14803
3802.94020,0.14297
3804.86866,0.13335
3806.79713,0.12850
3808.72560,0.12821
3810.65407,0.12758
3812.58254,0.12599
3814.51101,0.12867
3816.43948,0.13646
3818.36795,0.14258
3820.29641,0.14770
3822.22488,0.14502
3824.15335,0.13319
3826.08182,0.12418
3828.01029,0.12149
3829.93876,0.12336
3831.86723,0.12940
3833.79569,0.13456
3835.72416,0.13943
3837.65263,0.15180
3839.58110,0.15606
3841.50957,0.14452
3843.43804,0.13185
3845.36651,0.12871
3847.29498,0.13760
3849.22344,0.14886
3851.15191,0.15185
3853.08038,0.14222
3855.00885,0.13651
3856.93732,0.13453
3858.86579,0.12626
3860.79426,0.11938
3862.72272,0.11905
3864.65119,0.12278
3866.57966,0.12977
3868.50813,0.14013
3870.43660,0.14665
3872.36507,0.14406
3874.29354,0.13721
3876.22200,0.12766
3878.15047,0.12205
3880.07894,0.12460
3882.00741,0.13189
3883.93588,0.13567
3885.86435,0.13152
3887.79282,0.12570
3889.72129,0.12474
3891.64975,0.12580
3893.57822,0.12519
3895.50669,0.12402
3897.43516,0.12071
3899.36363,0.11659
3901.29210,0.12197
3903.22057,0.13232
3905.14903,0.13217
3907.07750,0.12436
3909.00597,0.11982
3910.93444,0.12028
3912.86291,0.12240
3914.79138,0.12435
3916.71985,0.12514
3918.64832,0.12473
3920.57678,0.12463
3922.50525,0.12439
3924.43372,0.12112
3926.36219,0.11616
3928.29066,0.11512
3930.21913,0.11880
3932.14760,0.12132
3934.07606,0.11871
3936.00453,0.11448
3937.93300,0.10973
3939.86147,0.10715
3941.78994,0.11098
3943.71841,0.11572
3945.64688,0.11616
3947.57535,0.11543
3949.50381,0.11560
3951.43228,0.11697
3953.36075,0.11782
3955.28922,0.11760
3957.21769,0.11693
3959.14616,0.11328
3961.07463,0.10826
3963.00309,0.10656
3964.93156,0.10645
3966.86003,0.10491
3968.78850,0.10355
3970.71697,0.10298
3972.64544,0.10465
3974.57391,0.11332
3976.50238,0.12198
3978.43084,0.11988
3980.35931,0.11227
3982.28778,0.10570
3984.21625,0.10152
3986.14472,0.10375
3988.07319,0.11001
3990.00166,0.11226
3991.93012,0.10990
3993.85859,0.10722
3995.78706,0.10509
3997.71553,0.10317
3999.64400,0.10297
4001.57247,0.10257
4003.50094,0.09957
4005.42941,0.09653
4007.35787,0.09648
4009.28634,0.09982
4011.21481,0.10195
4013.14328,0.09996
4015.07175,0.09634
4017.00022,0.09521
4018.92869,0.09889
4020.85715,0.10170
4022.78562,0.10200
4024.71409,0.10441
4026.64256,0.10520
4028.57103,0.10229
4030.49950,0.10278
4032.42797,0.10643
4034.35644,0.10538
4036.28490,0.10260
4038.21337,0.10319
4040.14184,0.10196
4042.07031,0.09924
4043.99878,0.09994
4045.92725,0.10234
4047.85572,0.10354
4049.78418,0.10290
4051.71265,0.10056
4053.64112,0.09840
4055.56959,0.09884
4057.49806,0.10082
4059.42653,0.10040
4061.35500,0.09798
4063.28346,0.09563
4065.21193,0.09025
4067.14040,0.08424
4069.06887,0.08589
4070.99734,0.09455
4072.92581,0.10251
4074.85428,0.10341
4076.78275,0.09724
4078.71121,0.09103
4080.63968,0.09167
4082.56815,0.09762
4084.49662,0.10109
4086.42509,0.09892
4088.35356,0.09520
4090.28203,0.09383
4092.21049,0.09315
4094.13896,0.09178
4096.06743,0.09157
4097.99590,0.09330
4099.92437,0.09187
4101.85284,0.08474
4103.78131,0.08334
4105.70978,0.09025
4107.63824,0.09266
4109.56671,0.08876
4111.49518,0.08659
4113.42365,0.08954
4115.35212,0.09246
4117.28059,0.08946
4119.20906,0.08402
4121.13752,0.08323
4123.06599,0.08503
4124.99446,0.08423
4126.92293,0.08221
4128.85140,0.08126
4130.77987,0.08399
4132.70834,0.09109
4134.63681,0.09498
4136.56527,0.09095
4138.49374,0.08552
4140.42221,0.08365
4142.35068,0.08613
4144.27915,0.09178
4146.20762,0.09281
4148.13609,0.08610
4150.06455,0.07948
4151.99302,0.07978
4153.92149,0.08433
4155.84996,0.08591
4157.77843,0.08316
4159.70690,0.08142
4161.63537,0.08440
4163.56384,0.08803
4165.49230,0.08852
4167.42077,0.08787
4169.34924,0.08966
4171.27771,0.09610
4173.20618,0.10163
4175.13465,0.09579
4177.06312,0.08248
4178.99158,0.07232
4180.92005,0.06577
4182.84852,0.06553
4184.77699,0.07107
4186.70546,0.07352
4188.63393,0.07435
4190.56240,0.07870
4192.49087,0.08273
4194.41933,0.08247
4196.34780,0.07740
4198.27627,0.07124
4200.20474,0.07185
4202.13321,0.08172
4204.06168,0.09156
4205.99015,0.09099
4207.91861,0.08420
4209.84708,0.07600
4211.77555,0.07011
4213.70402,0.07620
4215.63249,0.08421
4217.56096,0.08166
4219.48943,0.07646
4221.41789,0.07092
4223.34636,0.06264
4225.27483,0.05853
4227.20330,0.06183
4229.13177,0.06808
4231.06024,0.07518
4232.98871,0.07939
4234.91718,0.07768
4236.84564,0.07393
4238.77411,0.07113
4240.70258,0.07017
4242.63105,0.06953
4244.55952,0.06589
4246.48799,0.06129
4248.41646,0.06038
4250.34492,0.06336
4252.27339,0.06884
4254.20186,0.07363
4256.13033,0.07324
4258.05880,0.06967
4259.98727,0.06520
4261.91574,0.06142
4263.84421,0.06435
4265.77267,0.07070
4267.70114,0.06918
4269.62961,0.05920
4271.55808,0.05212
4273.48655,0.05651
4275.41502,0.06584
4277.34349,0.06817
4279.27195,0.06454
4281.20042,0.06366
4283.12889,0.06560
4285.05736,0.06408
4286.98583,0.06021
4288.91430,0.06030
4290.84277,0.06246
4292.77124,0.06024
4294.69970,0.05580
4296.62817,0.05362
4298.55664,0.05594
4300.48511,0.06309
4302.41358,0.06844
4304.34205,0.06718
4306.27052,0.06244
4308.19898,0.05916
4310.12745,0.05538
4312.05592,0.04944
4313.98439,0.04858
4315.91286,0.05290
4317.84133,0.05602
4319.76980,0.05716
4321.69827,0.05720
4323.62673,0.05636
4325.55520,0.05711
4327.48367,0.06051
4329.41214,0.06252
4331.34061,0.06012
4333.26908,0.05568
4335.19755,0.05392
4337.12601,0.05168
4339.05448,0.04131
4340.98295,0.03184
4342.91142,0.03859
4344.83989,0.05314
4346.76836,0.05777
4348.69683,0.05511
4350.62530,0.05559
4352.55376,0.05999
4354.48223,0.06389
4356.41070,0.06270
4358.33917,0.05703
4360.26764,0.05297
4362.19611,0.05301
4364.12458,0.05496
4366.05304,0.05554
4367.98151,0.05283
4369.90998,0.04566
4371.83845,0.03773
4373.76692,0.03874
4375.69539,0.04435
4377.62386,0.04576
4379.55232,0.04778
4381.48079,0.05000
4383.40926,0.05077
4385.33773,0.05320
4387.26620,0.05296
4389.19467,0.04694
4391.12314,0.04322
4393.05161,0.04865
4394.98007,0.05229
4396.90854,0.04576
4398.83701,0.04075
4400.76548,0.03876
4402.69395,0.03399
4404.62242,0.03406
4406.55089,0.03833
4408.47935,0.03948
4410.40782,0.03994
4412.33629,0.04341
4414.26476,0.04785
4416.19323,0.04848
4418.12170,0.04358
4420.05017,0.03670
4421.97864,0.03273
4423.90710,0.03111
4425.83557,0.03187
4427.76404,0.03503
4429.69251,0.03367
4431.62098,0.03289
4433.54945,0.04129
4435.47792,0.04574
4437.40638,0.04159
4439.33485,0.04205
4441.26332,0.04478
4443.19179,0.04518
4445.12026,0.04661
4447.04873,0.04485
4448.97720,0.04137
4450.90567,0.04086
4452.83413,0.04292
4454.76260,0.04650
4456.69107,0.04797
4458.61954,0.04929
4460.54801,0.04933
4462.47648,0.03996
4464.40495,0.02974
4466.33341,0.02971
4468.26188,0.03159
4470.19035,0.03135
4472.11882,0.03453
4474.04729,0.03559
4475.97576,0.03104
4477.90423,0.02933
4479.83270,0.02918
4481.76116,0.02299
4483.68963,0.01424
4485.61810,0.00893
4487.54657,0.00906
4489.47504,0.01279
4491.40351,0.01533
4493.33198,0.01599
4495.26044,0.01518
4497.18891,0.01838
4499.11738,0.02978
4501.04585,0.03732
4502.97432,0.03141
4504.90279,0.02005
4506.83126,0.01931
4508.75973,0.03014
4510.68819,0.03812
4512.61666,0.03821
4514.54513,0.03201
4516.47360,0.02067
4518.40207,0.00769
4520.33054,0.00026
4522.25901,0.00582
4524.18747,0.01638
4526.11594,0.01968
4528.04441,0.02122
4529.97288,0.02665
4531.90135,0.02667
4533.82982,0.01718
4535.75829,0.00967
4537.68676,0.00901
4539.61522,0.00835
4541.54369,0.01083
4543.47216,0.02070
4545.40063,0.02678
4547.32910,0.02201
4549.25757,0.01411
4551.18604,0.00897
4553.11450,0.00823
4555.04297,0.01169
4556.97144,0.01609
4558.89991,0.01921
4560.82838,0.01890
4562.75685,0.01540
4564.68532,0.00874
4566.61378,0.00087
4568.54225,0.00121
4570.47072,0.00619
4572.39919,0.00562
4574.32766,0.00711
4576.25613,0.01309
4578.18460,0.01362
4580.11307,0.01296
4582.04153,0.01850
4583.97000,0.02596
4585.89847,0.02626
4587.82694,0.01575
4589.75541,0.01027
4591.68388,0.01897
4593.61235,0.02406
4595.54081,0.01950
4597.46928,0.01667
4599.39775,0.01412
4601.32622,0.00681
4603.25469,0.00025
4605.18316,-0.00102
4607.11163,0.00040
4609.04010,0.00380
4610.96856,0.00841
4612.89703,0.01212
4614.82550,0.02129
4616.75397,0.02838
4618.68244,0.01434
4620.61091,-0.00468
4622.53938,-0.00773
4624.46784,-0.00486
4626.39631,0.00091
4628.32478,0.01315
4630.25325,0.02172
4632.18172,0.02517
4634.11019,0.02783
4636.03866,0.02466
4637.96713,0.01645
4639.89559,0.01093
4641.82406,0.01006
4643.75253,0.01033
4645.68100,0.01274
4647.60947,0.01988
4649.53794,0.02329
4651.46641,0.01947
4653.39487,0.01850
4655.32334,0.02435
4657.25181,0.03236
4659.18028,0.03395
4661.10875,0.01893
4663.03722,-0.00262
4664.96569,-0.00473
4666.89416,0.00492
4668.82262,0.00301
4670.75109,0.00058
4672.67956,0.00744
4674.60803,0.01596
4676.53650,0.02564
4678.46497,0.03354
4680.39344,0.03372
4682.32190,0.02655
4684.25037,0.01764
4686.17884,0.01577
4688.10731,0.02200
4690.03578,0.02760
4691.96425,0.02510
4693.89272,0.01615
4695.82119,0.01120
4697.74965,0.00864
4699.67812,-0.00014
4701.60659,-0.00517
4703.53506,0.00273
4705.46353,0.01938
4707.39200,0.03669
4709.32047,0.04155
4711.24893,0.02881
4713.17740,0.01531
4715.10587,0.01269
4717.03434,0.01074
4718.96281,0.00787
4720.89128,0.01125
4722.81975,0.01459
4724.74821,0.00836
4726.67668,-0.00494
4728.60515,-0.01259
4730.53362,-0.00746
4732.46209,0.00215
4734.39056,0.00090
4736.31903,-0.00601
4738.24750,-0.00070
4740.17596,0.01001
4742.10443,0.01369
4744.03290,0.01271
4745.96137,0.01210
4747.88984,0.01416
4749.81831,0.01209
4751.74678,0.00587
4753.67524,0.00554
4755.60371,0.00802
4757.53218,0.00496
4759.46065,0.00581
4761.38912,0.01795
4763.31759,0.02157
4765.24606,0.01322
4767.17453,0.01339
4769.10299,0.01773
4771.03146,0.01738
4772.95993,0.02038
4774.88840,0.02334
4776.81687,0.02427
4778.74534,0.03019
4780.67381,0.03038
4782.60227,0.01816
4784.53074,0.00612
4786.45921,0.00016
4788.38768,-0.00492
4790.31615,-0.00724
4792.24462,0.00170
4794.17309,0.01385
4796.10156,0.01680
4798.03002,0.01309
4799.95849,0.00804
4801.88696,0.00582
4803.81543,0.00903
4805.74390,0.01561
4807.67237,0.02160
4809.60084,0.01632
4811.52930,-0.00457
4813.45777,-0.01766
4815.38624,-0.01040
4817.31471,-0.00913
4819.24318,-0.02369
4821.17165,-0.02489
4823.10012,-0.00013
4825.02859,0.02511
4826.95705,0.02904
4828.88552,0.01771
4830.81399,0.00746
4832.74246,0.00338
4834.67093,0.00431
4836.59940,0.01104
4838.52787,0.01763
4840.45633,0.02020
4842.38480,0.02198
4844.31327,0.01602
4846.24174,-0.00059
4848.17021,-0.01145
4850.09868,-0.00625
4852.02715,0.00507
4853.95562,0.00625
4855.88408,0.00270
4857.81255,0.00829
4859.74102,0.00968
4861.66949,-0.00180
4863.59796,-0.00611
4865.52643,0.00544
4867.45490,0.01480
4869.38336,0.00980
4871.31183,0.00407
4873.24030,0.01212
4875.16877,0.01926
4877.09724,0.00647
4879.02571,-0.00550
4880.95418,0.00430
4882.88265,0.01642
4884.81111,0.01380
4886.73958,0.00751
4888.66805,0.01366
4890.59652,0.02911
4892.52499,0.04102
4894.45346,0.04275
4896.38193,0.03008
4898.31039,0.01218
4900.23886,0.00382
4902.16733,0.00119
4904.09580,-0.00594
4906.02427,-0.01340
4907.95274,-0.00758
4909.88121,0.00532
4911.80967,0.00796
4913.73814,0.00318
4915.66661,-0.00227
4917.59508,-0.00634
4919.52355,-0.00435
4921.45202,0.00512
4923.38049,0.01980
4925.30896,0.02611
4927.23742,0.01601
4929.16589,0.00956
4931.09436,0.01844
4933.02283,0.02803
4934.95130,0.03091
4936.87977,0.02739
4938.80824,0.01414
4940.73670,-0.00038
4942.66517,-0.00455
4944.59364,0.00007
4946.52211,0.00231
4948.45058,-0.00182
4950.37905,-0.00662
4952.30752,-0.01214
4954.23599,-0.01637
4956.16445,-0.01624
4958.09292,-0.01069
4960.02139,0.00528
4961.94986,0.01938
4963.87833,0.02139
4965.80680,0.02220
4967.73527,0.02387
4969.66373,0.02422
4971.59220,0.02719
4973.52067,0.03339
4975.44914,0.02951
4977.37761,0.00343
4979.30608,-0.02340
4981.23455,-0.02603
4983.16302,-0.00427
4985.09148,0.02811
4987.01995,0.04061
4988.94842,0.02722
4990.87689,0.01844
4992.80536,0.02097
4994.73383,0.02477
4996.66230,0.02715
4998.59076,0.02719
5000.51923,0.02975
5002.44770,0.03236
5004.37617,0.02862
5006.30464,0.01884
5008.23311,0.00909
5010.16158,0.01153
5012.09005,0.02067
5014.01851,0.02230
5015.94698,0.02092
5017.87545,0.01889
5019.80392,0.01723
5021.73239,0.02213
5023.66086,0.02768
5025.58933,0.02715
5027.51779,0.02034
5029.44626,0.00779
5031.37473,0.00071
5033.30320,0.01374
5035.23167,0.03199
5037.16014,0.03185
5039.08861,0.02354
5041.01708,0.01949
5042.94554,0.01194
5044.87401,0.00683
5046.80248,0.01105
5048.73095,0.00737
5050.65942,-0.00976
5052.58789,-0.01913
5054.51636,-0.01409
5056.44482,-0.01178
5058.37329,-0.00778
5060.30176,0.01209
5062.23023,0.03054
5064.15870,0.03267
5066.08717,0.02510
5068.01564,0.01713
5069.94410,0.01082
5071.87257,0.01115
5073.80104,0.02880
5075.72951,0.04927
5077.65798,0.04771
5079.58645,0.03047
5081.51492,0.02058
5083.44339,0.02525
5085.37185,0.03880
5087.30032,0.04575
5089.22879,0.03975
5091.15726,0.04283
5093.08573,0.05496
5095.01420,0.04826
5096.94267,0.02938
5098.87113,0.02717
5100.79960,0.03484
5102.72807,0.04016
5104.65654,0.05093
5106.58501,0.05435
5108.51348,0.04229
5110.44195,0.03642
5112.37042,0.03563
5114.29888,0.02324
5116.22735,0.02377
5118.15582,0.04354
5120.08429,0.04667
5122.01276,0.03463
5123.94123,0.02954
5125.86970,0.03387
5127.79816,0.03910
5129.72663,0.03993
5131.65510,0.03892
5133.58357,0.03855
5135.51204,0.04384
5137.44051,0.04984
5139.36898,0.04931
5141.29745,0.04410
5143.22591,0.03047
5145.15438,0.01183
5147.08285,0.00055
5149.01132,-0.00006
5150.93979,0.01015
5152.86826,0.02580
5154.79673,0.03533
5156.72519,0.04064
5158.65366,0.04899
5160.58213,0.05708
5162.51060,0.05472
5164.43907,0.03951
5166.36754,0.03376
5168.29601,0.04250
5170.22448,0.04175
5172.15294,0.02799
5174.08141,0.01526
5176.00988,0.00879
5177.93835,0.00627
5179.86682,0.01053
5181.79529,0.02265
5183.72376,0.02999
5185.65222,0.03623
5187.58069,0.04972
5189.50916,0.05277
5191.43763,0.03797
5193.36610,0.02373
5195.29457,0.01997
5197.22304,0.01653
5199.15151,0.01632
5201.07997,0.03779
5203.00844,0.06502
5204.93691,0.06213
5206.86538,0.04782
5208.79385,0.06157
5210.72232,0.06588
5212.65079,0.04278
5214.57925,0.03126
5216.50772,0.03378
5218.43619,0.03032
5220.36466,0.02962
5222.29313,0.03098
5224.22160,0.03042
5226.15007,0.03872
5228.07854,0.04978
5230.00700,0.05157
5231.93547,0.04584
5233.86394,0.03757
5235.79241,0.03213
5237.72088,0.03139
5239.64935,0.03288
5241.57782,0.03948
5243.50628,0.05345
5245.43475,0.06760
5247.36322,0.07916
5249.29169,0.09199
5251.22016,0.09949
5253.14863,0.08918
5255.07710,0.06315
5257.00556,0.04226
5258.93403,0.03723
5260.86250,0.03753
5262.79097,0.02879
5264.71944,0.01658
5266.64791,0.01744
5268.57638,0.02332
5270.50485,0.02022
5272.43331,0.01102
5274.36178,0.01220
5276.29025,0.03448
5278.21872,0.05571
5280.14719,0.05012
5282.07566,0.03208
5284.00413,0.02683
5285.93259,0.03772
5287.86106,0.05014
5289.78953,0.04490
5291.71800,0.03098
5293.64647,0.04460
5295.57494,0.07866
5297.50341,0.09254
5299.43188,0.07224
5301.36034,0.04812
5303.28881,0.05221
5305.21728,0.06888
5307.14575,0.06892
5309.07422,0.06834
5311.00269,0.08060
5312.93116,0.07427
5314.85962,0.05336
5316.78809,0.04581
5318.71656,0.03818
5320.64503,0.03045
5322.57350,0.03399
5324.50197,0.03935
5326.43044,0.04829
5328.35891,0.05044
5330.28737,0.02902
5332.21584,0.01486
5334.14431,0.03749
5336.07278,0.07187
5338.00125,0.09213
5339.92972,0.09755
5341.85819,0.08550
5343.78665,0.06363
5345.71512,0.05775
5347.64359,0.06207
5349.57206,0.06137
5351.50053,0.06138
5353.42900,0.06053
5355.35747,0.06381
5357.28594,0.07602
5359.21440,0.07902
5361.14287,0.07949
5363.07134,0.10268
5364.99981,0.12132
5366.92828,0.10410
5368.85675,0.07537
5370.78522,0.06642
5372.71368,0.07903
5374.64215,0.09474
5376.57062,0.10668
5378.49909,0.10413
5380.42756,0.08795
5382.35603,0.08642
5384.28450,0.09315
5386.21297,0.07401
5388.14143,0.04894
5390.06990,0.05117
5391.99837,0.06489
5393.92684,0.06157
5395.85531,0.04696
5397.78378,0.04342
5399.71225,0.05380
5401.64071,0.07067
5403.56918,0.07690
5405.49765,0.06319
5407.42612,0.04797
5409.35459,0.05645
5411.28306,0.08571
5413.21153,0.09492
5415.13999,0.07150
5417.06846,0.05684
5418.99693,0.06258
5420.92540,0.07087
5422.85387,0.07886
5424.78234,0.08728
5426.71081,0.08062
5428.63928,0.06107
5430.56774,0.06054
5432.49621,0.07949
5434.42468,0.08774
5436.35315,0.07314
5438.28162,0.05551
5440.21009,0.06795
5442.13856,0.10851
5444.06702,0.12482
5445.99549,0.10344
5447.92396,0.07327
5449.85243,0.04592
5451.78090,0.02026
5453.70937,0.01309
5455.63784,0.03606
5457.56631,0.05664
5459.49477,0.05572
5461.42324,0.06219
5463.35171,0.07317
5465.28018,0.06429
5467.20865,0.05862
5469.13712,0.08131
5471.06559,0.10402
5472.99405,0.10741
5474.92252,0.09303
5476.85099,0.06959
5478.77946,0.06697
5480.70793,0.08001
5482.63640,0.07455
5484.56487,0.05395
5486.49334,0.04720
5488.42180,0.05454
5490.35027,0.06579
5492.27874,0.07517
5494.20721,0.07414
5496.13568,0.07463
5498.06415,0.08169
5499.99262,0.07306
5501.92108,0.04902
5503.84955,0.04591
5505.77802,0.07393
5507.70649,0.09225
5509.63496,0.07407
5511.56343,0.05561
5513.49190,0.06683
5515.42037,0.09031
5517.34883,0.10118
5519.27730,0.10219
5521.20577,0.10609
5523.13424,0.10779
5525.06271,0.10573
5526.99118,0.09957
5528.91965,0.07764
5530.84811,0.04349
5532.77658,0.01941
5534.70505,0.02956
5536.63352,0.06012
5538.56199,0.07057
5540.49046,0.06883
5542.41893,0.07635
5544.34740,0.08079
5546.27586,0.08183
5548.20433,0.09178
5550.13280,0.10731
5552.06127,0.11244
5553.98974,0.09132
5555.91821,0.06749
5557.84668,0.06565
5559.77514,0.06220
5561.70361,0.05499
5563.63208,0.05088
5565.56055,0.03726
5567.48902,0.03581
5569.41749,0.06030
5571.34596,0.08355
5573.27443,0.08686
5575.20289,0.07760
5577.13136,0.07162
5579.05983,0.06866
5580.98830,0.06290
5582.91677,0.06074
5584.84524,0.06730
5586.77371,0.07626
5588.70217,0.06886
5590.63064,0.04234
5592.55911,0.04082
5594.48758,0.08036
5596.41605,0.11218
5598.34452,0.10691
5600.27299,0.09083
5602.20145,0.08338
5604.12992,0.07739
5606.05839,0.07960
5607.98686,0.08829
5609.91533,0.08979
5611.84380,0.09126
5613.77227,0.09762
5615.70074,0.10299
5617.62920,0.10020
5619.55767,0.07920
5621.48614,0.04234
5623.41461,0.02567
5625.34308,0.05539
5627.27155,0.08631
5629.20002,0.07799
5631.12848,0.06252
5633.05695,0.06125
5634.98542,0.05955
5636.91389,0.05522
5638.84236,0.05429
5640.77083,0.05203
5642.69930,0.05664
5644.62777,0.07732
5646.55623,0.08663
5648.48470,0.08082
5650.41317,0.10608
5652.34164,0.13185
5654.27011,0.10105
5656.19858,0.05480
5658.12705,0.03965
5660.05551,0.04715
5661.98398,0.06034
5663.91245,0.07406
5665.84092,0.08751
5667.76939,0.09864
5669.69786,0.09545
5671.62633,0.06849
5673.55480,0.04373
5675.48326,0.05056
5677.41173,0.08100
5679.34020,0.11430
5681.26867,0.13507
5683.19714,0.11861
5685.12561,0.08013
5687.05408,0.07707
5688.98254,0.10599
5690.91101,0.11693
5692.83948,0.10450
5694.76795,0.08203
5696.69642,0.05250
5698.62489,0.03034
5700.55336,0.03956
5702.48183,0.07974
5704.41029,0.12033
5706.33876,0.13339
5708.26723,0.11609
5710.19570,0.08197
5712.12417,0.05814
5714.05264,0.06741
5715.98111,0.09152
5717.90957,0.10895
5719.83804,0.10681
5721.76651,0.07944
5723.69498,0.05299
5725.62345,0.04194
5727.55192,0.04648
5729.48039,0.07446
5731.40886,0.11064
5733.33732,0.11159
5735.26579,0.06430
5737.19426,0.02454
5739.12273,0.02960
5741.05120,0.07235
5742.97967,0.10643
5744.90814,0.08620
5746.83660,0.06649
5748.76507,0.09667
5750.69354,0.13044
5752.62201,0.11959
5754.55048,0.06269
5756.47895,0.00812
5758.40742,0.01188
5760.33588,0.05741
5762.26435,0.09597
5764.19282,0.11098
5766.12129,0.09521
5768.04976,0.06363
5769.97823,0.04795
5771.90670,0.04942
5773.83517,0.06761
5775.76363,0.09948
5777.69210,0.11816
5779.62057,0.12563
5781.54904,0.13297
5783.47751,0.12417
5785.40598,0.10644
5787.33445,0.08418
5789.26291,0.05744
5791.19138,0.05833
5793.11985,0.08587
5795.04832,0.11817
5796.97679,0.14388
5798.90526,0.14853
5800.83373,0.13567
5802.76220,0.11383
5804.69066,0.09991
5806.61913,0.11741
5808.54760,0.13848
5810.47607,0.11918
5812.40454,0.08643
5814.33301,0.08556
5816.26148,0.10235
5818.18994,0.10552
5820.11841,0.08285
5822.04688,0.05575
5823.97535,0.04281
5825.90382,0.03190
5827.83229,0.02822
5829.76076,0.03757
5831.68923,0.05349
5833.61769,0.06985
5835.54616,0.07482
5837.47463,0.09023
5839.40310,0.11969
5841.33157,0.11268
5843.26004,0.07787
5845.18851,0.07912
5847.11697,0.11111
5849.04544,0.10532
5850.97391,0.05623
5852.90238,0.02916
5854.83085,0.04351
5856.75932,0.06919
5858.68779,0.05975
5860.61626,0.02926
5862.54472,0.05013
5864.47319,0.11228
5866.40166,0.13518
5868.33013,0.11438
5870.25860,0.11053
5872.18707,0.12546
5874.11554,0.12741
5876.04400,0.12398
5877.97247,0.11316
5879.90094,0.08976
5881.82941,0.07901
5883.75788,0.08349
5885.68635,0.08874
5887.61482,0.08223
5889.54329,0.06673
5891.47175,0.06548
5893.40022,0.08120
5895.32869,0.09112
5897.25716,0.08555
5899.18563,0.08080
5901.11410,0.07387
5903.04257,0.06477
5904.97103,0.07786
5906.89950,0.07828
5908.82797,0.04117
5910.75644,0.01670
5912.68491,0.01878
5914.61338,0.04354
5916.54185,0.07813
5918.47032,0.08802
5920.39878,0.10559
5922.32725,0.14854
5924.25572,0.16478
5926.18419,0.14035
5928.11266,0.10283
5930.04113,0.07322
5931.96960,0.06328
5933.89806,0.06922
5935.82653,0.06505
5937.75500,0.04459
5939.68347,0.03710
5941.61194,0.05058
5943.54041,0.06053
5945.46888,0.06114
5947.39734,0.07489
5949.32581,0.10311
5951.25428,0.10439
5953.18275,0.09705
5955.11122,0.13242
5957.03969,0.15937
5958.96816,0.14090
5960.89663,0.09220
5962.82509,0.02323
5964.75356,-0.01865
5966.68203,-0.01326
5968.61050,0.01671
5970.53897,0.05948
5972.46744,0.11686
5974.39591,0.16194
5976.32437,0.15163
5978.25284,0.11897
5980.18131,0.10568
5982.10978,0.11003
5984.03825,0.12466
5985.96672,0.10344
5987.89519,0.04148
5989.82366,0.02566
5991.75212,0.07156
5993.68059,0.13241
5995.60906,0.15527
5997.53753,0.09124
5999.46600,0.01382
6001.39447,-0.00351
6003.32294,0.01352
6005.25140,0.03035
6007.17987,0.03548
6009.10834,0.04053
6011.03681,0.05232
6012.96528,0.06278
6014.89375,0.08864
6016.82222,0.12145
6018.75069,0.10718
6020.67915,0.07490
6022.60762,0.09367
6024.53609,0.13970
6026.46456,0.15582
6028.39303,0.10526
6030.32150,0.05039
6032.24997,0.08752
6034.17843,0.17193
6036.10690,0.19135
6038.03537,0.12766
6039.96384,0.06402
6041.89231,0.04065
6043.82078,0.04275
6045.74925,0.06913
6047.67772,0.10372
6049.60618,0.10432
6051.53465,0.05399
6053.46312,-0.00308
6055.39159,-0.00061
6057.32006,0.05357
6059.24853,0.10325
6061.17700,0.13934
6063.10546,0.15105
6065.03393,0.13668
6066.96240,0.11757
6068.89087,0.08507
6070.81934,0.05805
6072.74781,0.07575
6074.67628,0.11784
6076.60475,0.14166
6078.53321,0.13835
6080.46168,0.11815
6082.39015,0.08209
6084.31862,0.04620
6086.24709,0.05216
6088.17556,0.07991
6090.10403,0.08905
6092.03249,0.09924
6093.96096,0.11035
6095.88943,0.10377
6097.81790,0.09310
6099.74637,0.10222
6101.67484,0.12878
6103.60331,0.13978
6105.53177,0.12157
6107.46024,0.08328
6109.38871,0.05464
6111.31718,0.08837
6113.24565,0.16219
6115.17412,0.19371
6117.10259,0.17359
6119.03106,0.15928
6120.95952,0.16582
6122.88799,0.15723
6124.81646,0.12445
6126.74493,0.09303
6128.67340,0.09660
6130.60187,0.09736
6132.53034,0.05637
6134.45880,0.03769
6136.38727,0.06808
6138.31574,0.10967
6140.24421,0.12900
6142.17268,0.10388
6144.10115,0.08150
6146.02962,0.09525
6147.95809,0.09357
6149.88655,0.06748
6151.81502,0.06680
6153.74349,0.09325
6155.67196,0.08605
6157.60043,0.03702
6159.52890,0.02130
6161.45737,0.07608
6163.38583,0.11609
6165.31430,0.08327
6167.24277,0.03672
6169.17124,0.02204
6171.09971,0.06055
6173.02818,0.13678
6174.95665,0.17072
6176.88512,0.13445
6178.81358,0.07354
6180.74205,0.03628
6182.67052,0.03229
6184.59899,0.03870
6186.52746,0.04022
6188.45593,0.03757
6190.38440,0.04416
6192.31286,0.08131
6194.24133,0.12766
6196.16980,0.11565
6198.09827,0.06390
6200.02674,0.04544
6201.95521,0.05300
6203.88368,0.05581
6205.81215,0.05289
6207.74061,0.06411
6209.66908,0.07169
6211.59755,0.02761
6213.52602,-0.02127
6215.45449,-0.00571
6217.38296,0.03592
6219.31143,0.05250
6221.23989,0.07816
6223.16836,0.10974
6225.09683,0.09636
6227.02530,0.05699
6228.95377,0.04312
6230.88224,0.06857
6232.81071,0.10146
6234.73918,0.10684
6236.66764,0.09476
6238.59611,0.08354
6240.52458,0.08013
6242.45305,0.10029
6244.38152,0.15687
6246.30999,0.20637
6248.23846,0.17820
6250.16692,0.07865
6252.09539,-0.00795
6254.02386,-0.02662
6255.95233,0.00466
6257.88080,0.05032
6259.80927,0.10153
6261.73774,0.13956
6263.66621,0.13478
6265.59467,0.09431
6267.52314,0.05749
6269.45161,0.05179
6271.38008,0.03158
6273.30855,-0.01764
6275.23702,-0.00508
6277.16549,0.07515
6279.09395,0.09914
6281.02242,0.02663
6282.95089,-0.02478
6284.87936,0.01364
6286.80783,0.03767
6288.73630,0.01352
6290.66477,0.01474
6292.59323,0.04814
6294.52170,0.05199
6296.45017,0.03211
6298.37864,0.06154
6300.30711,0.13507
6302.23558,0.14058
6304.16405,0.05392
6306.09252,-0.00188
6308.02098,0.03416
6309.94945,0.09426
6311.87792,0.09401
6313.80639,0.07323
6315.73486,0.11279
6317.66333,0.15445
6319.59180,0.12147
6321.52026,0.04735
6323.44873,0.00845
6325.37720,0.03075
6327.30567,0.06922
6329.23414,0.09610
6331.16261,0.10246
6333.09108,0.05927
6335.01955,0.00293
6336.94801,-0.00922
6338.87648,0.01328
6340.80495,0.05743
6342.73342,0.10654
6344.66189,0.12277
6346.59036,0.08901
6348.51883,0.02849
6350.44729,-0.02357
6352.37576,-0.04975
6354.30423,-0.04393
6356.23270,-0.00820
6358.16117,0.01402
6360.08964,-0.00722
6362.01811,-0.02998
6363.94658,-0.03204
6365.87504,-0.01416
6367.80351,0.04172
6369.73198,0.09434
6371.66045,0.06908
6373.58892,0.00693
6375.51739,0.02489
6377.44586,0.08501
6379.37432,0.11273
6381.30279,0.12145
6383.23126,0.09558
6385.15973,0.04023
6387.08820,0.01252
6389.01667,-0.00281
6390.94514,0.00451
6392.87361,0.08250
6394.80207,0.15237
6396.73054,0.15775
6398.65901,0.17175
6400.58748,0.16317
6402.51595,0.07743
6404.44442,-0.00409
6406.37289,-0.00341
6408.30135,0.06624
6410.22982,0.13159
6412.15829,0.15239
6414.08676,0.15598
6416.01523,0.14135
6417.94370,0.09014
6419.87217,0.06545
6421.80064,0.10970
6423.72910,0.15386
6425.65757,0.13530
6427.58604,0.08709
6429.51451,0.09048
6431.44298,0.16707
6433.37145,0.18730
6435.29992,0.07914
6437.22838,0.00253
6439.15685,0.05571
6441.08532,0.09361
6443.01379,0.08044
6444.94226,0.11060
6446.87073,0.15642
6448.79920,0.15976
6450.72766,0.14563
6452.65613,0.11527
6454.58460,0.06178
6456.51307,0.03922
6458.44154,0.05408
6460.37001,0.04088
6462.29848,0.00403
6464.22695,-0.00758
6466.15541,0.00547
6468.08388,0.01704
6470.01235,0.02443
6471.94082,0.04295
6473.86929,0.05113
6475.79776,0.02731
6477.72623,0.03304
6479.65469,0.10230
6481.58316,0.13769
6483.51163,0.10225
6485.44010,0.08266
6487.36857,0.07836
6489.29704,0.05679
6491.22551,0.07906
6493.15398,0.15592
6495.08244,0.19770
6497.01091,0.20134
6498.93938,0.18717
6500.86785,0.14303
6502.79632,0.11534
6504.72479,0.08097
6506.65326,-0.00960
6508.58172,-0.03073
6510.51019,0.06861
6512.43866,0.13126
6514.36713,0.10836
6516.29560,0.07116
6518.22407,0.05293
6520.15254,0.05673
6522.08101,0.08709
6524.00947,0.14229
6525.93794,0.14777
6527.86641,0.10204
6529.79488,0.08290
6531.72335,0.04855
6533.65182,-0.01857
6535.58029,-0.04653
6537.50875,-0.04514
6539.43722,-0.07318
6541.36569,-0.09893
6543.29416,-0.08947
6545.22263,-0.09261
6547.15110,-0.08189
6549.07957,-0.02896
6551.00804,-0.02360
6552.93650,-0.06850
6554.86497,-0.06881
6556.79344,-0.03983
6558.72191,-0.00803
6560.65038,0.06724
6562.57885,0.18470
6564.50732,0.27468
6566.43578,0.29000
6568.36425,0.24431
6570.29272,0.15837
6572.22119,0.04595
6574.14966,-0.04630
6576.07813,-0.05109
6578.00660,-0.00082
6579.93507,0.03037
6581.86353,0.06244
6583.79200,0.08944
6585.72047,0.06263
6587.64894,0.01607
6589.57741,0.00648
6591.50588,0.03951
6593.43435,0.08021
6595.36281,0.08477
6597.29128,0.05142
6599.21975,-0.00120
6601.14822,0.00947
6603.07669,0.11531
6605.00516,0.17329
6606.93363,0.13183
6608.86210,0.04551
6610.79056,-0.05243
6612.71903,-0.12096
6614.64750,-0.10246
6616.57597,-0.01527
6618.50444,0.04649
6620.43291,0.04877
6622.36138,0.02142
6624.28984,0.02075
6626.21831,0.09140
6628.14678,0.16900
6630.07525,0.16057
6632.00372,0.11425
6633.93219,0.09099
6635.86066,0.09258
6637.78912,0.12212
6639.71759,0.09667
6641.64606,0.00109
6643.57453,-0.02574
6645.50300,0.08592
6647.43147,0.24011
6649.35994,0.29942
6651.28841,0.22138
6653.21687,0.09832
6655.14534,0.03889
6657.07381,0.03108
6659.00228,0.05640
6660.93075,0.09743
6662.85922,0.04176
6664.78769,-0.05030
6666.71615,-0.05342
6668.64462,-0.04406
6670.57309,-0.05608
6672.50156,-0.01101
6674.43003,0.05960
6676.35850,0.10622
6678.28697,0.10678
6680.21544,0.07125
6682.14390,0.08486
6684.07237,0.14951
6686.00084,0.19523
6687.92931,0.24857
6689.85778,0.26596
6691.78625,0.19311
6693.71472,0.15986
6695.64318,0.22131
6697.57165,0.27158
6699.50012,0.24442
6701.42859,0.20312
6703.35706,0.14576
6705.28553,0.07342
6707.21400,0.04782
6709.14247,-0.00302
6711.07093,-0.07063
6712.99940,-0.03629
6714.92787,0.05336
6716.85634,0.08501
6718.78481,0.11197
6720.71328,0.15233
6722.64175,0.08324
6724.57021,-0.00572
6726.49868,0.00006
6728.42715,0.01734
6730.35562,-0.00466
6732.28409,-0.02923
6734.21256,-0.03197
6736.14103,-0.03134
6738.06950,-0.05102
6739.99796,-0.07348
6741.92643,-0.07454
6743.85490,-0.05839
6745.78337,-0.03621
6747.71184,-0.03557
6749.64031,-0.06468
6751.56878,-0.07238
6753.49724,-0.01539
6755.42571,0.06655
6757.35418,0.09373
6759.28265,0.08322
6761.21112,0.08171
6763.13959,0.08910
6765.06806,0.09898
6766.99653,0.07905
6768.92499,0.04150
6770.85346,0.02586
6772.78193,0.00186
6774.71040,-0.00756
6776.63887,0.05647
6778.56734,0.11211
6780.49581,0.08473
6782.42427,0.00477
6784.35274,-0.03957
6786.28121,-0.00953
6788.20968,0.02704
6790.13815,0.05656
6792.06662,0.12640
6793.99509,0.16850
6795.92355,0.11830
6797.85202,0.04756
6799.78049,0.02720
6801.70896,0.04847
6803.63743,0.08307
6805.56590,0.08927
6807.49437,0.06681
6809.42284,0.08351
6811.35130,0.12878
6813.27977,0.11469
6815.20824,0.03302
6817.13671,-0.05240
6819.06518,-0.05230
6820.99365,0.04091
6822.92212,0.14870
6824.85058,0.15828
6826.77905,0.07937
6828.70752,0.03549
6830.63599,0.04082
6832.56446,0.00961
6834.49293,0.00292
6836.42140,0.08026
6838.34987,0.14999
6840.27833,0.15165
6842.20680,0.13776
6844.13527,0.11797
6846.06374,0.02124
6847.99221,-0.08852
6849.92068,-0.04384
6851.84915,0.10196
6853.77761,0.24107
6855.70608,0.28399
6857.63455,0.16616
6859.56302,0.01895
6861.49149,-0.05227
6863.41996,-0.05642
6865.34843,-0.00765
6867.27690,0.06999
6869.20536,0.08551
6871.13383,0.04588
6873.06230,0.02598
6874.99077,0.09263
6876.91924,0.22503
6878.84771,0.26313
6880.77618,0.11993
6882.70464,-0.01536
6884.63311,0.00751
6886.56158,0.08016
6888.49005,0.04067
6890.41852,-0.04475
6892.34699,-0.03934
6894.27546,0.01077
6896.20393,0.02247
6898.13239,-0.01623
6900.06086,-0.09660
6901.98933,-0.13734
6903.91780,-0.10348
6905.84627,-0.06483
6907.77474,-0.01859
6909.70321,0.03310
6911.63167,0.07835
6913.56014,0.14850
6915.48861,0.18515
6917.41708,0.14380
6919.34555,0.14430
6921.27402,0.27423
6923.20249,0.35098
6925.13096,0.28659
6927.05942,0.18244
6928.98789,0.11282
6930.91636,0.08530
6932.84483,0.03091
6934.77330,-0.06858
6936.70177,-0.13002
6938.63024,-0.14198
6940.55870,-0.15344
6942.48717,-0.17894
6944.41564,-0.15056
6946.34411,-0.00711
6948.27258,0.13131
6950.20105,0.10161
6952.12952,-0.04655
6954.05799,-0.13597
6955.98645,-0.04274
6957.91492,0.07290
6959.84339,0.04650
6961.77186,-0.03740
6963.70033,-0.09340
6965.62880,-0.11616
6967.55727,-0.05473
6969.48573,0.09902
6971.41420,0.24913
6973.34267,0.29531
6975.27114,0.23863
6977.19961,0.17077
6979.12808,0.10283
6981.05655,0.04774
6982.98501,0.08693
6984.91348,0.14419
6986.84195,0.13277
6988.77042,0.13250
6990.69889,0.07986
6992.62736,-0.04141
6994.55583,-0.07669
6996.48430,0.01103
6998.41276,0.11768
7000.34123,0.13886
7002.26970,0.12532
7004.19817,0.15567
7006.12664,0.15995
7008.05511,0.13557
7009.98358,0.16235
7011.91204,0.14738
7013.84051,0.02439
7015.76898,-0.04413
7017.69745,-0.02655
7019.62592,-0.04301
7021.55439,-0.06580
7023.48286,-0.04874
7025.41133,-0.04064
7027.33979,-0.00487
7029.26826,0.13626
7031.19673,0.24289
7033.12520,0.18010
7035.05367,0.03729
7036.98214,-0.07187
7038.91061,-0.10962
7040.83907,-0.00767
7042.76754,0.18751
7044.69601,0.25124
7046.62448,0.13964
7048.55295,0.03096
7050.48142,0.04400
7052.40989,0.12130
7054.33836,0.15333
7056.26682,0.07445
7058.19529,-0.07217
7060.12376,-0.12064
7062.05223,-0.04457
7063.98070,0.02705
7065.90917,0.09077
7067.83764,0.20488
7069.76610,0.29596
7071.69457,0.31099
7073.62304,0.25711
7075.55151,0.20144
7077.47998,0.20066
7079.40845,0.20485
7081.33692,0.14498
7083.26539,0.09562
7085.19385,0.06222
7087.12232,-0.08228
7089.05079,-0.26637
7090.97926,-0.31134
7092.90773,-0.20718
7094.83620,-0.11125
7096.76467,-0.13640
7098.69313,-0.10861
7100.62160,0.04473
7102.55007,0.17271
7104.47854,0.22999
7106.40701,0.21660
7108.33548,0.14612
7110.26395,0.04924
7112.19242,-0.03227
7114.12088,-0.01344
7116.04935,0.08020
7117.97782,0.08754
7119.90629,-0.00531
7121.83476,0.00656
7123.76323,0.08748
7125.69170,-0.00657
7127.62016,-0.21926
7129.54863,-0.25320
7131.47710,-0.12101
7133.40557,-0.04589
7135.33404,-0.04987
7137.26251,-0.02506
7139.19098,0.02024
7141.11944,0.07945
7143.04791,0.12657
7144.97638,0.08008
7146.90485,0.03905
7148.83332,0.08682
7150.76179,0.09782
7152.69026,0.04439
7154.61873,0.08656
7156.54719,0.17989
7158.47566,0.14604
7160.40413,0.06061
7162.33260,0.06593
7164.26107,0.08695
7166.18954,0.08627
7168.11801,0.17037
7170.04647,0.30746
7171.97494,0.38876
7173.90341,0.44141
7175.83188,0.47668
7177.76035,0.36118
7179.68882,0.12238
7181.61729,0.02560
7183.54576,0.22193
7185.47422,0.40056
7187.40269,0.34234
7189.33116,0.20978
7191.25963,0.09396
7193.18810,-0.03776
7195.11657,-0.10749
7197.04504,-0.05121
7198.97350,0.03924
7200.90197,0.07397
7202.83044,0.06642
7204.75891,0.04128
7206.68738,0.01264
7208.61585,-0.01561
7210.54432,0.00718
7212.47279,0.06872
7214.40125,0.09855
7216.32972,0.13284
7218.25819,0.10247
7220.18666,-0.05812
7222.11513,-0.11295
7224.04360,-0.00929
7225.97207,0.10923
7227.90053,0.21335
7229.82900,0.30655
7231.75747,0.15592
7233.68594,-0.09735
7235.61441,-0.10497
7237.54288,0.07773
7239.47135,0.22461
7241.39982,0.25798
7243.32828,0.14996
7245.25675,0.01564
7247.18522,0.02874
7249.11369,0.14917
7251.04216,0.28252
7252.97063,0.27727
7254.89910,0.10822
7256.82756,0.03949
7258.75603,0.11008
7260.68450,0.20704
7262.61297,0.15083
7264.54144,-0.01862
7266.46991,-0.04205
7268.39838,0.13364
7270.32685,0.31100
7272.25531,0.27639
7274.18378,0.13390
7276.11225,0.05150
7278.04072,-0.02810
7279.96919,-0.10142
7281.89766,-0.14432
7283.82613,-0.13226
7285.75459,-0.06021
7287.68306,-0.02024
7289.61153,-0.01765
7291.54000,-0.07105
7293.46847,-0.14098
7295.39694,-0.12294
7297.32541,-0.10990
7299.25387,-0.03544
7301.18234,0.21032
7303.11081,0.43203
7305.03928,0.44330
7306.96775,0.34230
7308.89622,0.21266
7310.82469,0.18189
7312.75316,0.35959
7314.68162,0.52592
7316.61009,0.48418
7318.53856,0.33938
7320.46703,0.21946
7322.39550,0.15051
7324.32397,0.16357
7326.25244,0.18390
7328.18090,0.17487
7330.10937,0.13994
7332.03784,0.14563
7333.96631,0.24138
7335.89478,0.32331
7337.82325,0.35195
7339.75172,0.30099
7341.68019,0.15628
7343.60865,0.14752
7345.53712,0.28579
7347.46559,0.28723
7349.39406,0.11699
7351.32253,0.09282
7353.25100,0.20422
7355.17947,0.23797
7357.10793,0.19522
7359.03640,0.19902
7360.96487,0.21641
7362.89334,0.15538
7364.82181,0.08318
7366.75028,-0.00856
7368.67875,-0.16164
7370.60722,-0.23512
7372.53568,-0.17376
7374.46415,-0.06102
7376.39262,0.00721
7378.32109,0.04054
7380.24956,0.06520
7382.17803,-0.01469
7384.10650,-0.19591
7386.03496,-0.24259
7387.96343,-0.06378
7389.89190,0.15295
7391.82037,0.31829
7393.74884,0.37696
7395.67731,0.27792
7397.60578,0.18975
7399.53425,0.25070
7401.46271,0.32482
7403.39118,0.24672
7405.31965,0.07557
7407.24812,0.03735
7409.17659,0.12061
7411.10506,0.17744
7413.03353,0.22919
7414.96199,0.33658
7416.89046,0.44164
7418.81893,0.47164
7420.74740,0.32543
7422.67587,0.09434
7424.60434,-0.00367
7426.53281,0.05176
7428.46128,0.15993
7430.38974,0.19390
7432.31821,0.14148
7434.24668,0.17710
7436.17515,0.27072
7438.10362,0.28697
7440.03209,0.21433
7441.96056,0.04199
7443.88902,-0.08814
7445.81749,-0.06769
7447.74596,0.03042
7449.67443,0.22315
7451.60290,0.36146
7453.53137,0.25613
7455.45984,0.13478
7457.38831,0.09669
7459.31677,0.02482
7461.24524,-0.11630
7463.17371,-0.17207
7465.10218,-0.11361
7467.03065,-0.06385
7468.95912,-0.07195
7470.88759,-0.04108
7472.81605,0.03822
7474.74452,0.02405
7476.67299,-0.07327
7478.60146,0.01920
7480.52993,0.26907
7482.45840,0.28194
7484.38687,0.09959
7486.31533,0.08666
7488.24380,0.31641
7490.17227,0.43391
7492.10074,0.26914
7494.02921,-0.00075
7495.95768,-0.19717
7497.88615,-0.12287
