399.19301,0.93231
401.12148,0.39910
403.04995,0.04217
404.97842,-0.02228
406.90689,0.08380
408.83536,0.09703
410.76382,-0.01745
412.69229,-0.06179
414.62076,-0.01363
416.54923,0.02376
418.47770,0.05180
420.40617,0.03179
422.33464,0.00128
424.26311,0.07889
426.19157,0.14285
428.12004,0.07725
430.04851,0.03653
431.97698,0.12610
433.90545,0.16794
435.83392,0.12870
437.76239,0.13639
439.69085,0.18480
441.61932,0.18795
443.54779,0.13413
445.47626,0.09293
447.40473,0.08432
449.33320,0.08136
451.26167,0.10291
453.19013,0.14577
455.11860,0.17964
457.04707,0.20621
458.97554,0.22757
460.90401,0.22843
462.83248,0.18977
464.76095,0.14667
466.68942,0.12861
468.61788,0.11748
470.54635,0.14866
472.47482,0.23419
474.40329,0.24736
476.33176,0.16515
478.26023,0.11424
480.18870,0.12964
482.11716,0.18965
484.04563,0.19377
485.97410,0.13413
487.90257,0.09492
489.83104,0.11970
491.75951,0.19509
493.68798,0.21152
495.61645,0.13139
497.54491,0.08352
499.47338,0.11306
501.40185,0.12373
503.33032,0.09202
505.25879,0.07320
507.18726,0.09971
509.11573,0.14707
511.04419,0.15758
512.97266,0.14629
514.90113,0.15062
516.82960,0.14714
518.75807,0.13087
520.68654,0.14402
522.61501,0.15970
524.54348,0.12993
526.47194,0.08575
528.40041,0.07270
530.32888,0.07641
532.25735,0.08740
534.18582,0.11332
536.11429,0.13128
538.04276,0.11491
539.97122,0.07341
541.89969,0.04975
543.82816,0.09529
545.75663,0.16896
547.68510,0.19701
549.61357,0.17905
551.54204,0.14752
553.47051,0.13698
555.39897,0.13962
557.32744,0.12083
559.25591,0.10066
561.18438,0.09526
563.11285,0.08420
565.04132,0.06470
566.96979,0.06448
568.89825,0.10211
570.82672,0.14538
572.75519,0.15532
574.68366,0.12984
576.61213,0.09805
578.54060,0.08645
580.46907,0.10542
582.39754,0.13340
584.32600,0.13659
586.25447,0.12979
588.18294,0.12969
590.11141,0.11963
592.03988,0.10964
593.96835,0.11506
595.89682,0.10274
597.82528,0.08287
599.75375,0.09529
601.68222,0.11627
603.61069,0.11660
605.53916,0.10036
607.46763,0.08858
609.39610,0.10422
611.32456,0.12558
613.25303,0.12785
615.18150,0.13375
617.10997,0.14852
619.03844,0.13943
620.96691,0.10807
622.89538,0.08998
624.82385,0.10120
626.75231,0.13412
628.68078,0.15529
630.60925,0.14203
632.53772,0.13015
634.46619,0.13694
636.39466,0.13106
638.32313,0.12044
640.25159,0.13902
642.18006,0.17470
644.10853,0.19170
646.03700,0.17794
647.96547,0.14613
649.89394,0.12443
651.82241,0.12118
653.75088,0.12647
655.67934,0.12992
657.60781,0.12506
659.53628,0.12260
661.46475,0.13061
663.39322,0.14369
665.32169,0.15666
667.25016,0.15702
669.17862,0.13116
671.10709,0.12680
673.03556,0.13541
674.96403,0.13201
676.89250,0.13478
678.82097,0.14014
680.74944,0.13089
682.67791,0.12941
684.60637,0.14132
686.53484,0.14764
688.46331,0.14422
690.39178,0.14540
692.32025,0.15645
694.24872,0.15158
696.17719,0.13491
698.10565,0.13854
700.03412,0.15286
701.96259,0.15884
703.89106,0.15451
705.81953,0.14281
707.74800,0.14429
709.67647,0.19481
711.60494,0.25386
713.53340,0.23091
715.46187,0.16543
717.39034,0.14218
719.31881,0.14519
721.24728,0.14246
723.17575,0.13904
725.10422,0.13801
727.03268,0.13002
728.96115,0.12078
730.88962,0.12256
732.81809,0.13792
734.74656,0.15598
736.67503,0.15646
738.60350,0.14071
740.53197,0.12642
742.46043,0.12076
744.38890,0.11828
746.31737,0.11911
748.24584,0.12756
750.17431,0.13718
752.10278,0.14350
754.03125,0.14972
755.95971,0.15060
757.88818,0.14213
759.81665,0.13568
761.74512,0.13273
763.67359,0.12659
765.60206,0.11959
767.53053,0.11400
769.45900,0.11838
771.38746,0.13180
773.31593,0.13409
775.24440,0.12802
777.17287,0.13372
779.10134,0.14936
781.02981,0.15537
782.95828,0.14361
784.88674,0.13290
786.81521,0.13054
788.74368,0.12763
790.67215,0.12880
792.60062,0.12946
794.52909,0.13020
796.45756,0.14175
798.38602,0.15233
800.31449,0.15738
802.24296,0.16985
804.17143,0.18153
806.09990,0.17293
808.02837,0.15101
809.95684,0.14107
811.88531,0.14448
813.81377,0.14120
815.74224,0.13535
817.67071,0.13686
819.59918,0.13976
821.52765,0.14773
823.45612,0.15870
825.38459,0.15704
827.31305,0.14087
829.24152,0.13243
831.16999,0.13920
833.09846,0.14671
835.02693,0.14911
836.95540,0.14557
838.88387,0.13722
840.81234,0.12811
842.74080,0.12460
844.66927,0.12682
846.59774,0.12802
848.52621,0.13201
850.45468,0.14102
852.38315,0.15145
854.31162,0.15893
856.24008,0.15776
858.16855,0.15461
860.09702,0.15735
862.02549,0.15969
863.95396,0.15381
865.88243,0.14258
867.81090,0.14382
869.73937,0.15805
871.66783,0.15747
873.59630,0.14117
875.52477,0.13233
877.45324,0.13113
879.38171,0.12725
881.31018,0.12642
883.23865,0.12950
885.16711,0.12595
887.09558,0.12114
889.02405,0.12283
890.95252,0.12527
892.88099,0.12555
894.80946,0.12867
896.73793,0.13578
898.66640,0.14398
900.59486,0.15393
902.52333,0.16172
904.45180,0.16223
906.38027,0.15469
908.30874,0.14363
910.23721,0.14281
912.16568,0.15099
914.09414,0.15173
916.02261,0.14628
917.95108,0.14310
919.87955,0.14029
921.80802,0.14045
923.73649,0.14629
925.66496,0.15053
927.59343,0.15037
929.52189,0.15079
931.45036,0.15381
933.37883,0.15363
935.30730,0.14768
937.23577,0.14421
939.16424,0.14375
941.09271,0.13785
943.02117,0.13015
944.94964,0.13162
946.87811,0.13724
948.80658,0.13610
950.73505,0.13474
952.66352,0.13842
954.59199,0.14391
956.52045,0.15328
958.44892,0.16090
960.37739,0.15636
962.30586,0.14476
964.23433,0.13821
966.16280,0.14078
968.09127,0.14676
970.01974,0.14741
971.94820,0.14132
973.87667,0.13742
975.80514,0.14383
977.73361,0.15282
979.66208,0.15099
981.59055,0.14745
983.51902,0.15592
985.44748,0.16538
987.37595,0.16688
989.30442,0.16572
991.23289,0.16404
993.16136,0.16181
995.08983,0.15891
997.01830,0.15656
998.94677,0.15581
1000.87523,0.15324
1002.80370,0.14886
1004.73217,0.14300
1006.66064,0.13576
1008.58911,0.13577
1010.51758,0.14786
1012.44605,0.16069
1014.37451,0.15999
1016.30298,0.15050
1018.23145,0.14462
1020.15992,0.14444
1022.08839,0.14656
1024.01686,0.16593
1025.94533,0.23803
1027.87380,0.30643
1029.80226,0.26688
1031.73073,0.17742
1033.65920,0.14311
1035.58767,0.14738
1037.51614,0.14964
1039.44461,0.14744
1041.37308,0.14830
1043.30154,0.15397
1045.23001,0.16127
1047.15848,0.16539
1049.08695,0.16629
1051.01542,0.16882
1052.94389,0.17197
1054.87236,0.17528
1056.80083,0.17751
1058.72929,0.17240
1060.65776,0.16633
1062.58623,0.17083
1064.51470,0.17776
1066.44317,0.17323
1068.37164,0.16304
1070.30011,0.15954
1072.22857,0.16191
1074.15704,0.16119
1076.08551,0.15669
1078.01398,0.15797
1079.94245,0.16755
1081.87092,0.17731
1083.79939,0.17937
1085.72786,0.17304
1087.65632,0.16748
1089.58479,0.16720
1091.51326,0.16268
1093.44173,0.15051
1095.37020,0.14336
1097.29867,0.14509
1099.22714,0.14774
1101.15560,0.15407
1103.08407,0.16629
1105.01254,0.17697
1106.94101,0.18301
1108.86948,0.18571
1110.79795,0.18363
1112.72642,0.17654
1114.65489,0.16729
1116.58335,0.15898
1118.51182,0.16017
1120.44029,0.16923
1122.36876,0.16818
1124.29723,0.15912
1126.22570,0.15632
1128.15417,0.15665
1130.08263,0.15521
1132.01110,0.15544
1133.93957,0.16099
1135.86804,0.16743
1137.79651,0.16599
1139.72498,0.15976
1141.65345,0.15900
1143.58191,0.16321
1145.51038,0.16377
1147.43885,0.16006
1149.36732,0.15825
1151.29579,0.16131
1153.22426,0.16665
1155.15273,0.16920
1157.08120,0.16804
1159.00966,0.16745
1160.93813,0.16956
1162.86660,0.17064
1164.79507,0.16996
1166.72354,0.16998
1168.65201,0.17029
1170.58048,0.17118
1172.50894,0.17112
1174.43741,0.16735
1176.36588,0.16218
1178.29435,0.15965
1180.22282,0.16043
1182.15129,0.16180
1184.07976,0.16219
1186.00823,0.16067
1187.93669,0.15831
1189.86516,0.15929
1191.79363,0.16215
1193.72210,0.16410
1195.65057,0.16570
1197.57904,0.16663
1199.50751,0.16650
1201.43597,0.16623
1203.36444,0.16850
1205.29291,0.17250
1207.22138,0.17478
1209.14985,0.17538
1211.07832,0.17575
1213.00679,0.17650
1214.93526,0.17613
1216.86372,0.17255
1218.79219,0.16866
1220.72066,0.16784
1222.64913,0.16766
1224.57760,0.16711
1226.50607,0.16864
1228.43454,0.17117
1230.36300,0.17171
1232.29147,0.17039
1234.21994,0.16883
1236.14841,0.16584
1238.07688,0.16161
1240.00535,0.16155
1241.93382,0.16608
1243.86229,0.16857
1245.79075,0.16667
1247.71922,0.16468
1249.64769,0.16801
1251.57616,0.17279
1253.50463,0.17168
1255.43310,0.16951
1257.36157,0.17054
1259.29003,0.17118
1261.21850,0.17037
1263.14697,0.16989
1265.07544,0.16950
1267.00391,0.16606
1268.93238,0.16309
1270.86085,0.16683
1272.78932,0.17220
1274.71778,0.17070
1276.64625,0.16497
1278.57472,0.16421
1280.50319,0.16676
1282.43166,0.16687
1284.36013,0.16725
1286.28860,0.16657
1288.21706,0.16292
1290.14553,0.16277
1292.07400,0.16829
1294.00247,0.17231
1295.93094,0.17119
1297.85941,0.16841
1299.78788,0.16388
1301.71634,0.15594
1303.64481,0.14918
1305.57328,0.15117
1307.50175,0.16049
1309.43022,0.16651
1311.35869,0.16895
1313.28716,0.17480
1315.21563,0.18130
1317.14409,0.18200
1319.07256,0.17468
1321.00103,0.16542
1322.92950,0.16308
1324.85797,0.16371
1326.78644,0.16259
1328.71491,0.16449
1330.64337,0.16793
1332.57184,0.16812
1334.50031,0.16660
1336.42878,0.16796
1338.35725,0.17369
1340.28572,0.17250
1342.21419,0.15789
1344.14266,0.14369
1346.07112,0.14260
1347.99959,0.15265
1349.92806,0.16235
1351.85653,0.16699
1353.78500,0.16796
1355.71347,0.16624
1357.64194,0.16614
1359.57040,0.17189
1361.49887,0.18079
1363.42734,0.18393
1365.35581,0.18249
1367.28428,0.18306
1369.21275,0.18203
1371.14122,0.17931
1373.06969,0.18032
1374.99815,0.18203
1376.92662,0.18063
1378.85509,0.18054
1380.78356,0.18238
1382.71203,0.18370
1384.64050,0.18549
1386.56897,0.18769
1388.49743,0.18592
1390.42590,0.18081
1392.35437,0.17830
1394.28284,0.18128
1396.21131,0.18804
1398.13978,0.19179
1400.06825,0.18792
1401.99672,0.18214
1403.92518,0.18034
1405.85365,0.18056
1407.78212,0.17942
1409.71059,0.17760
1411.63906,0.17739
1413.56753,0.18071
1415.49600,0.18881
1417.42446,0.20021
1419.35293,0.20355
1421.28140,0.19738
1423.20987,0.19208
1425.13834,0.18646
1427.06681,0.18416
1428.99528,0.18713
1430.92375,0.19034
1432.85221,0.19359
1434.78068,0.19836
1436.70915,0.19655
1438.63762,0.18485
1440.56609,0.17811
1442.49456,0.17875
1444.42303,0.18099
1446.35149,0.18315
1448.27996,0.18535
1450.20843,0.18811
1452.13690,0.19330
1454.06537,0.20045
1455.99384,0.21375
1457.92231,0.22264
1459.85077,0.20898
1461.77924,0.19906
1463.70771,0.19801
1465.63618,0.19348
1467.56465,0.18586
1469.49312,0.18938
1471.42159,0.20629
1473.35006,0.21753
1475.27852,0.21068
1477.20699,0.20086
1479.13546,0.19245
1481.06393,0.18756
1482.99240,0.18809
1484.92087,0.19312
1486.84934,0.20217
1488.77780,0.21014
1490.70627,0.20497
1492.63474,0.19586
1494.56321,0.19735
1496.49168,0.20788
1498.42015,0.20799
1500.34862,0.19594
1502.27709,0.19193
1504.20555,0.20314
1506.13402,0.23245
1508.06249,0.24745
1509.99096,0.23018
1511.91943,0.21640
1513.84790,0.21719
1515.77637,0.23036
1517.70483,0.24179
1519.63330,0.24769
1521.56177,0.24505
1523.49024,0.22780
1525.41871,0.21547
1527.34718,0.20730
1529.27565,0.20026
1531.20412,0.20311
1533.13258,0.21339
1535.06105,0.21604
1536.98952,0.21965
1538.91799,0.24037
1540.84646,0.25967
1542.77493,0.24441
1544.70340,0.22135
1546.63186,0.20482
1548.56033,0.19995
1550.48880,0.20188
1552.41727,0.20503
1554.34574,0.21131
1556.27421,0.22521
1558.20268,0.24724
1560.13115,0.23521
1562.05961,0.21115
1563.98808,0.20195
1565.91655,0.20006
1567.84502,0.20257
1569.77349,0.20282
1571.70196,0.19769
1573.63043,0.19842
1575.55889,0.20351
1577.48736,0.19855
1579.41583,0.18875
1581.34430,0.18341
1583.27277,0.18090
1585.20124,0.17953
1587.12971,0.17941
1589.05818,0.18136
1590.98664,0.18450
1592.91511,0.18536
1594.84358,0.18351
1596.77205,0.18125
1598.70052,0.18052
1600.62899,0.18157
1602.55746,0.18319
1604.48592,0.18496
1606.41439,0.18626
1608.34286,0.18687
1610.27133,0.18621
1612.19980,0.18536
1614.12827,0.19055
1616.05674,0.20326
1617.98521,0.20630
1619.91367,0.20019
1621.84214,0.20237
1623.77061,0.20998
1625.69908,0.21071
1627.62755,0.20684
1629.55602,0.20154
1631.48449,0.20039
1633.41295,0.21175
1635.34142,0.22943
1637.26989,0.21983
1639.19836,0.20080
1641.12683,0.19597
1643.05530,0.20366
1644.98377,0.22169
1646.91223,0.23753
1648.84070,0.23157
1650.76917,0.22934
1652.69764,0.24291
1654.62611,0.23420
1656.55458,0.21357
1658.48305,0.20692
1660.41152,0.21192
1662.33998,0.21721
1664.26845,0.20997
1666.19692,0.20231
1668.12539,0.20709
1670.05386,0.21763
1671.98233,0.21721
1673.91080,0.21191
1675.83926,0.20674
1677.76773,0.20492
1679.69620,0.21061
1681.62467,0.22175
1683.55314,0.23025
1685.48161,0.22067
1687.41008,0.20944
1689.33855,0.20770
1691.26701,0.20873
1693.19548,0.21111
1695.12395,0.21915
1697.05242,0.22885
1698.98089,0.22909
1700.90936,0.21669
1702.83783,0.20880
1704.76629,0.21152
1706.69476,0.21044
1708.62323,0.20102
1710.55170,0.19478
1712.48017,0.19752
1714.40864,0.20841
1716.33711,0.21868
1718.26558,0.21353
1720.19404,0.20287
1722.12251,0.19830
1724.05098,0.19504
1725.97945,0.18952
1727.90792,0.18746
1729.83639,0.19290
1731.76486,0.20489
1733.69332,0.21706
1735.62179,0.21534
1737.55026,0.20832
1739.47873,0.20351
1741.40720,0.20160
1743.33567,0.20315
1745.26414,0.20696
1747.19261,0.21285
1749.12107,0.21890
1751.04954,0.21620
1752.97801,0.20485
1754.90648,0.19725
1756.83495,0.19492
1758.76342,0.19423
1760.69189,0.19824
1762.62035,0.20275
1764.54882,0.20000
1766.47729,0.19691
1768.40576,0.19963
1770.33423,0.20897
1772.26270,0.21611
1774.19117,0.20894
1776.11964,0.20054
1778.04810,0.20008
1779.97657,0.20203
1781.90504,0.20146
1783.83351,0.20244
1785.76198,0.20216
1787.69045,0.19782
1789.61892,0.19969
1791.54738,0.20820
1793.47585,0.20721
1795.40432,0.19895
1797.33279,0.19549
1799.26126,0.19777
1801.18973,0.19797
1803.11820,0.19222
1805.04666,0.18904
1806.97513,0.19189
1808.90360,0.19688
1810.83207,0.19828
1812.76054,0.19410
1814.68901,0.19022
1816.61748,0.18681
1818.54595,0.18015
1820.47441,0.17744
1822.40288,0.18519
1824.33135,0.19429
1826.25982,0.19727
1828.18829,0.19975
1830.11676,0.19807
1832.04523,0.18977
1833.97369,0.18594
1835.90216,0.18724
1837.83063,0.18657
1839.75910,0.18530
1841.68757,0.19013
1843.61604,0.19898
1845.54451,0.20202
1847.47298,0.19754
1849.40144,0.19064
1851.32991,0.18536
1853.25838,0.18349
1855.18685,0.18480
1857.11532,0.18869
1859.04379,0.19200
1860.97226,0.19296
1862.90072,0.19412
1864.82919,0.19784
1866.75766,0.20357
1868.68613,0.20462
1870.61460,0.19750
1872.54307,0.19029
1874.47154,0.18645
1876.40001,0.18536
1878.32847,0.18555
1880.25694,0.18468
1882.18541,0.18475
1884.11388,0.18886
1886.04235,0.19231
1887.97082,0.19281
1889.89929,0.19407
1891.82775,0.19512
1893.75622,0.19498
1895.68469,0.19432
1897.61316,0.19169
1899.54163,0.18783
1901.47010,0.18471
1903.39857,0.18313
1905.32704,0.18390
1907.25550,0.18759
1909.18397,0.19096
1911.11244,0.18961
1913.04091,0.18645
1914.96938,0.18679
1916.89785,0.19053
1918.82632,0.19434
1920.75478,0.19716
1922.68325,0.19795
1924.61172,0.19385
1926.54019,0.18914
1928.46866,0.18834
1930.39713,0.18837
1932.32560,0.18813
1934.25407,0.19007
1936.18253,0.19188
1938.11100,0.19209
1940.03947,0.19594
1941.96794,0.20187
1943.89641,0.19925
1945.82488,0.19058
1947.75335,0.18590
1949.68181,0.18635
1951.61028,0.18922
1953.53875,0.19171
1955.46722,0.19176
1957.39569,0.18956
1959.32416,0.18704
1961.25263,0.18598
1963.18110,0.18643
1965.10956,0.18791
1967.03803,0.18943
1968.96650,0.19028
1970.89497,0.19103
1972.82344,0.19549
1974.75191,0.20860
1976.68038,0.22055
1978.60884,0.21588
1980.53731,0.20036
1982.46578,0.18925
1984.39425,0.18639
1986.32272,0.18962
1988.25119,0.19407
1990.17966,0.19420
1992.10812,0.19192
1994.03659,0.19058
1995.96506,0.18814
1997.89353,0.18512
1999.82200,0.18585
2001.75047,0.18956
2003.67894,0.19111
2005.60741,0.18830
2007.53587,0.18443
2009.46434,0.18480
2011.39281,0.18814
2013.32128,0.19006
2015.24975,0.19102
2017.17822,0.19233
2019.10669,0.19322
2021.03515,0.19294
2022.96362,0.19176
2024.89209,0.19032
2026.82056,0.18877
2028.74903,0.18698
2030.67750,0.18577
2032.60597,0.18612
2034.53444,0.18715
2036.46290,0.18859
2038.39137,0.19120
2040.31984,0.19198
2042.24831,0.18959
2044.17678,0.18957
2046.10525,0.19303
2048.03372,0.19489
2049.96218,0.19451
2051.89065,0.19453
2053.81912,0.19361
2055.74759,0.18973
2057.67606,0.18666
2059.60453,0.18817
2061.53300,0.19132
2063.46147,0.19319
2065.38993,0.19384
2067.31840,0.19248
2069.24687,0.19085
2071.17534,0.19153
2073.10381,0.19245
2075.03228,0.19325
2076.96075,0.19493
2078.88921,0.19450
2080.81768,0.19202
2082.74615,0.19069
2084.67462,0.19008
2086.60309,0.18992
2088.53156,0.19151
2090.46003,0.19322
2092.38850,0.19243
2094.31696,0.19036
2096.24543,0.18948
2098.17390,0.18969
2100.10237,0.19070
2102.03084,0.19186
2103.95931,0.19185
2105.88778,0.19122
2107.81624,0.19051
2109.74471,0.18997
2111.67318,0.18971
2113.60165,0.18896
2115.53012,0.18924
2117.45859,0.19094
2119.38706,0.19059
2121.31553,0.18951
2123.24399,0.19197
2125.17246,0.19490
2127.10093,0.19410
2129.02940,0.19135
2130.95787,0.18874
2132.88634,0.18893
2134.81481,0.19239
2136.74327,0.19298
2138.67174,0.19029
2140.60021,0.18937
2142.52868,0.19014
2144.45715,0.19038
2146.38562,0.18952
2148.31409,0.18957
2150.24255,0.19142
2152.17102,0.19261
2154.09949,0.19234
2156.02796,0.19101
2157.95643,0.18859
2159.88490,0.18750
2161.81337,0.18928
2163.74184,0.19172
2165.67030,0.19343
2167.59877,0.19431
2169.52724,0.19388
2171.45571,0.19268
2173.38418,0.19147
2175.31265,0.18979
2177.24112,0.18882
2179.16958,0.18973
2181.09805,0.19017
2183.02652,0.18846
2184.95499,0.18653
2186.88346,0.18803
2188.81193,0.19205
2190.74040,0.19389
2192.66887,0.19384
2194.59733,0.19343
2196.52580,0.19104
2198.45427,0.18793
2200.38274,0.18670
2202.31121,0.18620
2204.23968,0.18680
2206.16815,0.19028
2208.09661,0.19378
2210.02508,0.19451
2211.95355,0.19247
2213.88202,0.18841
2215.81049,0.18647
2217.73896,0.18877
2219.66743,0.19145
2221.59590,0.19302
2223.52436,0.19428
2225.45283,0.19483
2227.38130,0.19504
2229.30977,0.19430
2231.23824,0.19184
2233.16671,0.19068
2235.09518,0.19190
2237.02364,0.19280
2238.95211,0.19305
2240.88058,0.19360
2242.80905,0.19369
2244.73752,0.19308
2246.66599,0.19336
2248.59446,0.19374
2250.52293,0.19270
2252.45139,0.19156
2254.37986,0.19081
2256.30833,0.19162
2258.23680,0.19387
2260.16527,0.19459
2262.09374,0.19377
2264.02221,0.19312
2265.95067,0.19255
2267.87914,0.19090
2269.80761,0.18859
2271.73608,0.18809
2273.66455,0.19005
2275.59302,0.19199
2277.52149,0.19305
2279.44996,0.19387
2281.37842,0.19329
2283.30689,0.19053
2285.23536,0.18766
2287.16383,0.18755
2289.09230,0.18979
2291.02077,0.19122
2292.94924,0.19087
2294.87770,0.19061
2296.80617,0.19045
2298.73464,0.18972
2300.66311,0.19055
2302.59158,0.19452
2304.52005,0.19899
2306.44852,0.19956
2308.37699,0.19708
2310.30545,0.19513
2312.23392,0.19360
2314.16239,0.19347
2316.09086,0.19655
2318.01933,0.20046
2319.94780,0.20274
2321.87627,0.19998
2323.80473,0.19089
2325.73320,0.18746
2327.66167,0.19183
2329.59014,0.19083
2331.51861,0.18763
2333.44708,0.19122
2335.37555,0.19498
2337.30401,0.19300
2339.23248,0.19041
2341.16095,0.19570
2343.08942,0.20542
2345.01789,0.20406
2346.94636,0.19384
2348.87483,0.19218
2350.80330,0.20212
2352.73176,0.20903
2354.66023,0.19846
2356.58870,0.19022
2358.51717,0.19122
2360.44564,0.18311
2362.37411,0.17506
2364.30258,0.18318
2366.23104,0.20361
2368.15951,0.21262
2370.08798,0.20352
2372.01645,0.19441
2373.94492,0.19478
2375.87339,0.19780
2377.80186,0.19741
2379.73033,0.19693
2381.65879,0.19766
2383.58726,0.19598
2385.51573,0.19228
2387.44420,0.18923
2389.37267,0.18742
2391.30114,0.18708
2393.22961,0.18798
2395.15807,0.18999
2397.08654,0.19417
2399.01501,0.19875
2400.94348,0.19866
2402.87195,0.19333
2404.80042,0.18841
2406.72889,0.18646
2408.65736,0.18563
2410.58582,0.18715
2412.51429,0.19141
2414.44276,0.19513
2416.37123,0.19730
2418.29970,0.19735
2420.22817,0.19486
2422.15664,0.19232
2424.08510,0.19092
2426.01357,0.19023
2427.94204,0.19052
2429.87051,0.19119
2431.79898,0.19049
2433.72745,0.18893
2435.65592,0.18933
2437.58439,0.19073
2439.51285,0.19090
2441.44132,0.19101
2443.36979,0.19252
2445.29826,0.19383
2447.22673,0.19199
2449.15520,0.18957
2451.08367,0.19096
2453.01213,0.19381
2454.94060,0.19506
2456.86907,0.19505
2458.79754,0.19364
2460.72601,0.19144
2462.65448,0.19169
2464.58295,0.19373
2466.51142,0.19347
2468.43988,0.19204
2470.36835,0.19195
2472.29682,0.19214
2474.22529,0.19196
2476.15376,0.19156
2478.08223,0.19107
2480.01070,0.19040
2481.93916,0.18930
2483.86763,0.18945
2485.79610,0.19149
2487.72457,0.19134
2489.65304,0.18840
2491.58151,0.18766
2493.50998,0.19001
2495.43844,0.19329
2497.36691,0.19491
2499.29538,0.19224
2501.22385,0.18785
2503.15232,0.18716
2505.08079,0.19155
2507.00926,0.19666
2508.93773,0.19855
2510.86619,0.19662
2512.79466,0.19199
2514.72313,0.18875
2516.65160,0.19033
2518.58007,0.19449
2520.50854,0.19635
2522.43701,0.19485
2524.36547,0.19322
2526.29394,0.19301
2528.22241,0.19239
2530.15088,0.19144
2532.07935,0.19123
2534.00782,0.19084
2535.93629,0.19117
2537.86476,0.19350
2539.79322,0.19626
2541.72169,0.19782
2543.65016,0.19813
2545.57863,0.19704
2547.50710,0.19488
2549.43557,0.19448
2551.36404,0.19604
2553.29250,0.19609
2555.22097,0.19397
2557.14944,0.19079
2559.07791,0.18773
2561.00638,0.18844
2562.93485,0.19267
2564.86332,0.19530
2566.79179,0.19501
2568.72025,0.19376
2570.64872,0.19280
2572.57719,0.19243
2574.50566,0.19361
2576.43413,0.19586
2578.36260,0.19630
2580.29107,0.19644
2582.21953,0.19811
2584.14800,0.19777
2586.07647,0.19570
2588.00494,0.19582
2589.93341,0.19698
2591.86188,0.19715
2593.79035,0.19754
2595.71882,0.19765
2597.64728,0.19599
2599.57575,0.19406
2601.50422,0.19241
2603.43269,0.19028
2605.36116,0.18996
2607.28963,0.19281
2609.21810,0.19579
2611.14656,0.19567
2613.07503,0.19319
2615.00350,0.19132
2616.93197,0.19140
2618.86044,0.19301
2620.78891,0.19517
2622.71738,0.19591
2624.64585,0.19441
2626.57431,0.19456
2628.50278,0.19812
2630.43125,0.20119
2632.35972,0.20158
2634.28819,0.20028
2636.21666,0.19901
2638.14513,0.19826
2640.07359,0.19885
2642.00206,0.20065
2643.93053,0.20029
2645.85900,0.19737
2647.78747,0.19542
2649.71594,0.19604
2651.64441,0.19725
2653.57288,0.19708
2655.50134,0.19639
2657.42981,0.19684
2659.35828,0.19760
2661.28675,0.19560
2663.21522,0.19174
2665.14369,0.19129
2667.07216,0.19439
2669.00062,0.19693
2670.92909,0.19633
2672.85756,0.19402
2674.78603,0.19432
2676.71450,0.19626
2678.64297,0.19573
2680.57144,0.19251
2682.49990,0.19057
2684.42837,0.19308
2686.35684,0.19640
2688.28531,0.19705
2690.21378,0.19652
2692.14225,0.19671
2694.07072,0.19675
2695.99919,0.19548
2697.92765,0.19470
2699.85612,0.19497
2701.78459,0.19541
2703.71306,0.19677
2705.64153,0.19891
2707.57000,0.19947
2709.49847,0.19801
2711.42693,0.19780
2713.35540,0.19950
2715.28387,0.19913
2717.21234,0.19618
2719.14081,0.19589
2721.06928,0.19953
2722.99775,0.20138
2724.92622,0.19934
2726.85468,0.19765
2728.78315,0.19812
2730.71162,0.19981
2732.64009,0.20214
2734.56856,0.20381
2736.49703,0.20452
2738.42550,0.20449
2740.35396,0.20424
2742.28243,0.20441
2744.21090,0.20338
2746.13937,0.20158
2748.06784,0.20245
2749.99631,0.20589
2751.92478,0.20871
2753.85325,0.20884
2755.78171,0.20775
2757.71018,0.20813
2759.63865,0.20841
2761.56712,0.20471
2763.49559,0.19928
2765.42406,0.19797
2767.35253,0.19940
2769.28099,0.20244
2771.20946,0.20828
2773.13793,0.21029
2775.06640,0.20599
2776.99487,0.20308
2778.92334,0.20499
2780.85181,0.20704
2782.78028,0.20682
2784.70874,0.20779
2786.63721,0.21020
2788.56568,0.21032
2790.49415,0.20824
2792.42262,0.20625
2794.35109,0.20347
2796.27956,0.20059
2798.20802,0.20217
2800.13649,0.20807
2802.06496,0.21100
2803.99343,0.20804
2805.92190,0.20541
2807.85037,0.20724
2809.77884,0.21047
2811.70731,0.21145
2813.63577,0.20878
2815.56424,0.20394
2817.49271,0.20228
2819.42118,0.20586
2821.34965,0.20941
2823.27812,0.20928
2825.20659,0.20736
2827.13505,0.20567
2829.06352,0.20433
2830.99199,0.20400
2832.92046,0.20574
2834.84893,0.20831
2836.77740,0.20938
2838.70587,0.20912
2840.63433,0.20841
2842.56280,0.20720
2844.49127,0.20688
2846.41974,0.20743
2848.34821,0.20790
2850.27668,0.20777
2852.20515,0.20541
2854.13362,0.20350
2856.06208,0.20583
2857.99055,0.20987
2859.91902,0.21027
2861.84749,0.20590
2863.77596,0.20314
2865.70443,0.20588
2867.63290,0.20772
2869.56136,0.20425
2871.48983,0.20016
2873.41830,0.20052
2875.34677,0.20520
2877.27524,0.20819
2879.20371,0.20522
2881.13218,0.20101
2883.06065,0.20030
2884.98911,0.20302
2886.91758,0.20681
2888.84605,0.20895
2890.77452,0.20931
2892.70299,0.20810
2894.63146,0.20579
2896.55993,0.20317
2898.48839,0.20186
2900.41686,0.20457
2902.34533,0.20854
2904.27380,0.20801
2906.20227,0.20502
2908.13074,0.20595
2910.05921,0.21015
2911.98768,0.21316
2913.91614,0.21151
2915.84461,0.20647
2917.77308,0.20590
2919.70155,0.20855
2921.63002,0.20789
2923.55849,0.20531
2925.48696,0.20160
2927.41542,0.19810
2929.34389,0.19934
2931.27236,0.20396
2933.20083,0.20657
2935.12930,0.20574
2937.05777,0.20338
2938.98624,0.20233
2940.91471,0.20387
2942.84317,0.20549
2944.77164,0.20388
2946.70011,0.20045
2948.62858,0.20098
2950.55705,0.20578
2952.48552,0.20834
2954.41399,0.20389
2956.34245,0.19529
2958.27092,0.19191
2960.19939,0.19623
2962.12786,0.20169
2964.05633,0.20425
2965.98480,0.20319
2967.91327,0.20085
2969.84174,0.20281
2971.77020,0.20758
2973.69867,0.21125
2975.62714,0.21303
2977.55561,0.20918
2979.48408,0.20452
2981.41255,0.20743
2983.34102,0.21280
2985.26948,0.21335
2987.19795,0.21038
2989.12642,0.21106
2991.05489,0.21614
2992.98336,0.21727
2994.91183,0.21365
2996.84030,0.21107
2998.76877,0.21173
3000.69723,0.21442
3002.62570,0.21562
3004.55417,0.21353
3006.48264,0.21070
3008.41111,0.20966
3010.33958,0.20698
3012.26805,0.19704
3014.19651,0.18014
3016.12498,0.16604
3018.05345,0.17103
3019.98192,0.19224
3021.91039,0.20791
3023.83886,0.21407
3025.76733,0.21790
3027.69579,0.21900
3029.62426,0.21806
3031.55273,0.21663
3033.48120,0.21434
3035.40967,0.21322
3037.33814,0.21497
3039.26661,0.21633
3041.19508,0.21377
3043.12354,0.20992
3045.05201,0.20817
3046.98048,0.20731
3048.90895,0.20749
3050.83742,0.20982
3052.76589,0.21256
3054.69436,0.21141
3056.62282,0.20452
3058.55129,0.20185
3060.47976,0.20690
3062.40823,0.20790
3064.33670,0.20251
3066.26517,0.19884
3068.19364,0.20156
3070.12211,0.20735
3072.05057,0.21142
3073.97904,0.21065
3075.90751,0.20509
3077.83598,0.20240
3079.76445,0.20328
3081.69292,0.20348
3083.62139,0.20159
3085.54985,0.19787
3087.47832,0.20094
3089.40679,0.20870
3091.33526,0.20863
3093.26373,0.20133
3095.19220,0.19541
3097.12067,0.19758
3099.04914,0.20640
3100.97760,0.21318
3102.90607,0.21264
3104.83454,0.20764
3106.76301,0.20360
3108.69148,0.20312
3110.61995,0.20499
3112.54842,0.20720
3114.47688,0.21008
3116.40535,0.21202
3118.33382,0.21086
3120.26229,0.20749
3122.19076,0.20590
3124.11923,0.21021
3126.04770,0.21386
3127.97617,0.21003
3129.90463,0.20535
3131.83310,0.20563
3133.76157,0.20867
3135.69004,0.21141
3137.61851,0.21223
3139.54698,0.21019
3141.47545,0.20736
3143.40391,0.20885
3145.33238,0.21481
3147.26085,0.21961
3149.18932,0.22195
3151.11779,0.22535
3153.04626,0.22926
3154.97473,0.23033
3156.90320,0.22716
3158.83166,0.22114
3160.76013,0.21607
3162.68860,0.21584
3164.61707,0.22237
3166.54554,0.22837
3168.47401,0.22567
3170.40248,0.21976
3172.33094,0.21626
3174.25941,0.21487
3176.18788,0.21649
3178.11635,0.21936
3180.04482,0.22076
3181.97329,0.22211
3183.90176,0.22537
3185.83022,0.22854
3187.75869,0.22639
3189.68716,0.21715
3191.61563,0.20656
3193.54410,0.20491
3195.47257,0.21525
3197.40104,0.22526
3199.32951,0.22673
3201.25797,0.22420
3203.18644,0.21983
3205.11491,0.21408
3207.04338,0.20986
3208.97185,0.20908
3210.90032,0.21070
3212.82879,0.21436
3214.75725,0.21957
3216.68572,0.22345
3218.61419,0.22464
3220.54266,0.22120
3222.47113,0.21595
3224.39960,0.21486
3226.32807,0.21486
3228.25654,0.21125
3230.18500,0.20678
3232.11347,0.20549
3234.04194,0.20771
3235.97041,0.21423
3237.89888,0.22182
3239.82735,0.22431
3241.75582,0.22506
3243.68428,0.22471
3245.61275,0.21772
3247.54122,0.20922
3249.46969,0.20730
3251.39816,0.21240
3253.32663,0.21865
3255.25510,0.21961
3257.18357,0.21782
3259.11203,0.21972
3261.04050,0.22244
3262.96897,0.22064
3264.89744,0.21814
3266.82591,0.21577
3268.75438,0.21104
3270.68285,0.20958
3272.61131,0.21215
3274.53978,0.21168
3276.46825,0.20917
3278.39672,0.21201
3280.32519,0.21865
3282.25366,0.22253
3284.18213,0.22070
3286.11060,0.21152
3288.03906,0.20324
3289.96753,0.20505
3291.89600,0.21146
3293.82447,0.21627
3295.75294,0.21774
3297.68141,0.21394
3299.60988,0.20951
3301.53834,0.21080
3303.46681,0.21367
3305.39528,0.21235
3307.32375,0.20875
3309.25222,0.20617
3311.18069,0.20669
3313.10916,0.20928
3315.03763,0.21148
3316.96609,0.21439
3318.89456,0.21824
3320.82303,0.21957
3322.75150,0.21845
3324.67997,0.21852
3326.60844,0.21829
3328.53691,0.21689
3330.46537,0.21664
3332.39384,0.21564
3334.32231,0.21605
3336.25078,0.22031
3338.17925,0.22158
3340.10772,0.21790
3342.03619,0.21309
3343.96466,0.21171
3345.89312,0.21577
3347.82159,0.21651
3349.75006,0.21210
3351.67853,0.21199
3353.60700,0.21538
3355.53547,0.21809
3357.46394,0.22160
3359.39240,0.22541
3361.32087,0.23016
3363.24934,0.23648
3365.17781,0.23992
3367.10628,0.23503
3369.03475,0.22266
3370.96322,0.21405
3372.89168,0.21473
3374.82015,0.21630
3376.74862,0.21537
3378.67709,0.21679
3380.60556,0.22095
3382.53403,0.22399
3384.46250,0.22365
3386.39097,0.21980
3388.31943,0.21750
3390.24790,0.22016
3392.17637,0.22195
3394.10484,0.22087
3396.03331,0.22067
3397.96178,0.21855
3399.89025,0.21262
3401.81871,0.20947
3403.74718,0.21266
3405.67565,0.21753
3407.60412,0.21691
3409.53259,0.20825
3411.46106,0.20182
3413.38953,0.20837
3415.31800,0.21887
3417.24646,0.21991
3419.17493,0.21674
3421.10340,0.21627
3423.03187,0.21315
3424.96034,0.20680
3426.88881,0.20362
3428.81728,0.20531
3430.74574,0.20919
3432.67421,0.21337
3434.60268,0.21634
3436.53115,0.21580
3438.45962,0.21073
3440.38809,0.20344
3442.31656,0.19950
3444.24503,0.20161
3446.17349,0.20568
3448.10196,0.20815
3450.03043,0.20909
3451.95890,0.20802
3453.88737,0.20424
3455.81584,0.19918
3457.74431,0.19641
3459.67277,0.19597
3461.60124,0.19611
3463.52971,0.19939
3465.45818,0.20374
3467.38665,0.20392
3469.31512,0.20364
3471.24359,0.20383
3473.17206,0.19837
3475.10052,0.19339
3477.02899,0.19729
3478.95746,0.20379
3480.88593,0.20542
3482.81440,0.20125
3484.74287,0.19581
3486.67134,0.19210
3488.59980,0.18580
3490.52827,0.17736
3492.45674,0.17627
3494.38521,0.18347
3496.31368,0.18806
3498.24215,0.18744
3500.17062,0.18950
3502.09909,0.19371
3504.02755,0.19292
3505.95602,0.18896
3507.88449,0.18467
3509.81296,0.17731
3511.74143,0.17061
3513.66990,0.16989
3515.59837,0.17350
3517.52683,0.17669
3519.45530,0.17742
3521.38377,0.18157
3523.31224,0.18776
3525.24071,0.18718
3527.16918,0.18463
3529.09765,0.18514
3531.02611,0.18464
3532.95458,0.18193
3534.88305,0.17839
3536.81152,0.17431
3538.73999,0.17142
3540.66846,0.17329
3542.59693,0.17946
3544.52540,0.18564
3546.45386,0.18579
3548.38233,0.18095
3550.31080,0.17948
3552.23927,0.17922
3554.16774,0.17595
3556.09621,0.17263
3558.02468,0.16788
3559.95314,0.16440
3561.88161,0.17003
3563.81008,0.18053
3565.73855,0.18617
3567.66702,0.18130
3569.59549,0.17287
3571.52396,0.16882
3573.45243,0.16535
3575.38089,0.16160
3577.30936,0.16088
3579.23783,0.16027
3581.16630,0.15701
3583.09477,0.15628
3585.02324,0.16284
3586.95171,0.17078
3588.88017,0.16713
3590.80864,0.15867
3592.73711,0.15647
3594.66558,0.15911
3596.59405,0.16082
3598.52252,0.15935
3600.45099,0.15753
3602.37946,0.15983
3604.30792,0.16672
3606.23639,0.17839
3608.16486,0.18700
3610.09333,0.17989
3612.02180,0.16772
3613.95027,0.16206
3615.87874,0.16238
3617.80720,0.16384
3619.73567,0.15814
3621.66414,0.14910
3623.59261,0.14865
3625.52108,0.15622
3627.44955,0.16625
3629.37802,0.16939
3631.30649,0.16166
3633.23495,0.15253
3635.16342,0.14641
3637.09189,0.14568
3639.02036,0.14693
3640.94883,0.14487
3642.87730,0.14333
3644.80577,0.15076
3646.73423,0.16797
3648.66270,0.18242
3650.59117,0.17187
3652.51964,0.15475
3654.44811,0.14784
3656.37658,0.14453
3658.30505,0.13865
3660.23352,0.13452
3662.16198,0.13368
3664.09045,0.13648
3666.01892,0.14510
3667.94739,0.15811
3669.87586,0.16394
3671.80433,0.15640
3673.73280,0.15235
3675.66126,0.14940
3677.58973,0.13890
3679.51820,0.13063
3681.44667,0.12821
3683.37514,0.13271
3685.30361,0.14170
3687.23208,0.14940
3689.16055,0.15354
3691.08901,0.14928
3693.01748,0.13541
3694.94595,0.12498
3696.87442,0.12562
3698.80289,0.13233
3700.73136,0.13753
3702.65983,0.13726
3704.58829,0.13441
3706.51676,0.13659
3708.44523,0.14609
3710.37370,0.15506
3712.30217,0.15023
3714.23064,0.13959
3716.15911,0.13402
3718.08757,0.13144
3720.01604,0.13011
3721.94451,0.13305
3723.87298,0.14084
3725.80145,0.14493
3727.72992,0.14366
3729.65839,0.14751
3731.58686,0.15898
3733.51532,0.16971
3735.44379,0.16654
3737.37226,0.15032
3739.30073,0.13956
3741.22920,0.14046
3743.15767,0.14961
3745.08614,0.15290
3747.01460,0.14434
3748.94307,0.14257
3750.87154,0.14794
3752.80001,0.14113
3754.72848,0.13210
3756.65695,0.13050
3758.58542,0.13026
3760.51389,0.12775
3762.44235,0.12767
3764.37082,0.13187
3766.29929,0.13603
3768.22776,0.13604
3770.15623,0.13097
3772.08470,0.12312
3774.01317,0.12058
3775.94163,0.12689
3777.87010,0.13727
3779.79857,0.13983
3781.72704,0.13295
3783.65551,0.12567
3785.58398,0.11997
3787.51245,0.11806
3789.44092,0.12103
3791.36938,0.12454
3793.29785,0.12559
3795.22632,0.12907
3797.15479,0.13683
3799.08326,0.14381
3801.01173,0.14631
3802.94020,0.13968
3804.86866,0.13466
3806.79713,0.13418
3808.72560,0.13224
3810.65407,0.12991
3812.58254,0.12839
3814.51101,0.12675
3816.43948,0.12731
3818.36795,0.13614
3820.29641,0.14901
3822.22488,0.14934
3824.15335,0.13957
3826.08182,0.13194
3828.01029,0.12727
3829.93876,0.12683
3831.86723,0.12968
3833.79569,0.13211
3835.72416,0.13565
3837.65263,0.14385
3839.58110,0.15224
3841.50957,0.15204
3843.43804,0.14283
3845.36651,0.13273
3847.29498,0.12720
3849.22344,0.12566
3851.15191,0.13225
3853.08038,0.14761
3855.00885,0.14355
3856.93732,0.13108
3858.86579,0.12681
3860.79426,0.12724
3862.72272,0.12912
3864.65119,0.12914
3866.57966,0.13008
3868.50813,0.13832
3870.43660,0.14282
3872.36507,0.13524
3874.29354,0.13321
3876.22200,0.13486
3878.15047,0.13275
3880.07894,0.13096
3882.00741,0.12984
3883.93588,0.12902
3885.86435,0.12792
3887.79282,0.12529
3889.72129,0.12446
3891.64975,0.12428
3893.57822,0.12053
3895.50669,0.11888
3897.43516,0.12469
3899.36363,0.13081
3901.29210,0.12903
3903.22057,0.12884
3905.14903,0.13179
3907.07750,0.12901
3909.00597,0.12241
3910.93444,0.11647
3912.86291,0.11426
3914.79138,0.11486
3916.71985,0.11545
3918.64832,0.11736
3920.57678,0.11830
3922.50525,0.11399
3924.43372,0.11051
3926.36219,0.11328
3928.29066,0.11610
3930.21913,0.11674
3932.14760,0.11777
3934.07606,0.11582
3936.00453,0.10929
3937.93300,0.10482
3939.86147,0.10762
3941.78994,0.11481
3943.71841,0.12013
3945.64688,0.11895
3947.57535,0.11467
3949.50381,0.11398
3951.43228,0.11291
3953.36075,0.10906
3955.28922,0.10963
3957.21769,0.11359
3959.14616,0.11365
3961.07463,0.10932
3963.00309,0.10372
3964.93156,0.10121
3966.86003,0.10545
3968.78850,0.11353
3970.71697,0.11756
3972.64544,0.11398
3974.57391,0.10885
3976.50238,0.10755
3978.43084,0.10815
3980.35931,0.10584
3982.28778,0.10189
3984.21625,0.10179
3986.14472,0.10226
3988.07319,0.10150
3990.00166,0.10202
3991.93012,0.10435
3993.85859,0.10819
3995.78706,0.10685
3997.71553,0.10116
3999.64400,0.09846
4001.57247,0.09807
4003.50094,0.10064
4005.42941,0.10275
4007.35787,0.09919
4009.28634,0.09517
4011.21481,0.09386
4013.14328,0.09456
4015.07175,0.09683
4017.00022,0.09948
4018.92869,0.10390
4020.85715,0.10760
4022.78562,0.10687
4024.71409,0.10290
4026.64256,0.09968
4028.57103,0.10085
4030.49950,0.10426
4032.42797,0.10552
4034.35644,0.10220
4036.28490,0.09711
4038.21337,0.09631
4040.14184,0.09851
4042.07031,0.09714
4043.99878,0.09283
4045.92725,0.09188
4047.85572,0.09391
4049.78418,0.09568
4051.71265,0.09722
4053.64112,0.09662
4055.56959,0.09220
4057.49806,0.08764
4059.42653,0.08869
4061.35500,0.09423
4063.28346,0.09789
4065.21193,0.09814
4067.14040,0.09492
4069.06887,0.08815
4070.99734,0.08595
4072.92581,0.09034
4074.85428,0.09200
4076.78275,0.09298
4078.71121,0.09527
4080.63968,0.09244
4082.56815,0.08969
4084.49662,0.09122
4086.42509,0.09170
4088.35356,0.09034
4090.28203,0.08992
4092.21049,0.09013
4094.13896,0.09121
4096.06743,0.09485
4097.99590,0.09824
4099.92437,0.09928
4101.85284,0.09836
4103.78131,0.09390
4105.70978,0.08787
4107.63824,0.08518
4109.56671,0.08589
4111.49518,0.08853
4113.42365,0.09341
4115.35212,0.09651
4117.28059,0.09626
4119.20906,0.09548
4121.13752,0.09351
4123.06599,0.09255
4124.99446,0.09337
4126.92293,0.09378
4128.85140,0.09381
4130.77987,0.08995
4132.70834,0.08376
4134.63681,0.08150
4136.56527,0.08075
4138.49374,0.08032
4140.42221,0.08329
4142.35068,0.08676
4144.27915,0.08724
4146.20762,0.08557
4148.13609,0.08201
4150.06455,0.07750
4151.99302,0.07829
4153.92149,0.08583
4155.84996,0.08907
4157.77843,0.08172
4159.70690,0.07326
4161.63537,0.07261
4163.56384,0.07645
4165.49230,0.08141
4167.42077,0.08661
4169.34924,0.08652
4171.27771,0.08112
4173.20618,0.07806
4175.13465,0.07640
4177.06312,0.06997
4178.99158,0.06600
4180.92005,0.07232
4182.84852,0.08244
4184.77699,0.08795
4186.70546,0.08725
4188.63393,0.08911
4190.56240,0.09625
4192.49087,0.09870
4194.41933,0.09542
4196.34780,0.09049
4198.27627,0.08637
4200.20474,0.08525
4202.13321,0.08498
4204.06168,0.08269
4205.99015,0.07915
4207.91861,0.07875
4209.84708,0.08324
4211.77555,0.08943
4213.70402,0.08924
4215.63249,0.07963
4217.56096,0.07138
4219.48943,0.07000
4221.41789,0.07053
4223.34636,0.07147
4225.27483,0.07415
4227.20330,0.07749
4229.13177,0.07833
4231.06024,0.07564
4232.98871,0.07283
4234.91718,0.07340
4236.84564,0.07467
4238.77411,0.07237
4240.70258,0.07030
4242.63105,0.07180
4244.55952,0.07232
4246.48799,0.07034
4248.41646,0.06884
4250.34492,0.06658
4252.27339,0.06187
4254.20186,0.06035
4256.13033,0.06272
4258.05880,0.06183
4259.98727,0.06008
4261.91574,0.06039
4263.84421,0.05992
4265.77267,0.06274
4267.70114,0.07006
4269.62961,0.07108
4271.55808,0.06490
4273.48655,0.06461
4275.41502,0.06967
4277.34349,0.07019
4279.27195,0.06593
4281.20042,0.06281
4283.12889,0.06391
4285.05736,0.06328
4286.98583,0.05541
4288.91430,0.04863
4290.84277,0.05361
4292.77124,0.06541
4294.69970,0.07382
4296.62817,0.07406
4298.55664,0.06662
4300.48511,0.05922
4302.41358,0.05428
4304.34205,0.05048
4306.27052,0.05309
4308.19898,0.05966
4310.12745,0.06098
4312.05592,0.05852
4313.98439,0.05658
4315.91286,0.05557
4317.84133,0.05604
4319.76980,0.05741
4321.69827,0.05903
4323.62673,0.05965
4325.55520,0.05672
4327.48367,0.04993
4329.41214,0.04629
4331.34061,0.04927
4333.26908,0.05034
4335.19755,0.04681
4337.12601,0.04364
4339.05448,0.04210
4340.98295,0.04098
4342.91142,0.03681
4344.83989,0.02978
4346.76836,0.02860
4348.69683,0.03417
4350.62530,0.03907
4352.55376,0.04317
4354.48223,0.04632
4356.41070,0.04778
4358.33917,0.04725
4360.26764,0.04167
4362.19611,0.03547
4364.12458,0.03318
4366.05304,0.03417
4367.98151,0.04008
4369.90998,0.04657
4371.83845,0.04632
4373.76692,0.04235
4375.69539,0.03986
4377.62386,0.04090
4379.55232,0.04644
4381.48079,0.05164
4383.40926,0.04889
4385.33773,0.04105
4387.26620,0.03848
4389.19467,0.03777
4391.12314,0.03262
4393.05161,0.03023
4394.98007,0.03101
4396.90854,0.02713
4398.83701,0.02173
4400.76548,0.02386
4402.69395,0.03201
4404.62242,0.03557
4406.55089,0.03043
4408.47935,0.02468
4410.40782,0.02760
4412.33629,0.03590
4414.26476,0.03903
4416.19323,0.03769
4418.12170,0.03796
4420.05017,0.03683
4421.97864,0.03591
4423.90710,0.03993
4425.83557,0.04420
4427.76404,0.04742
4429.69251,0.04829
4431.62098,0.03945
4433.54945,0.02634
4435.47792,0.02494
4437.40638,0.03120
4439.33485,0.02563
4441.26332,0.01460
4443.19179,0.02045
4445.12026,0.03481
4447.04873,0.03518
4448.97720,0.02634
4450.90567,0.02429
4452.83413,0.03017
4454.76260,0.03532
4456.69107,0.03371
4458.61954,0.02907
4460.54801,0.02900
4462.47648,0.03251
4464.40495,0.03545
4466.33341,0.03536
4468.26188,0.03065
4470.19035,0.02571
4472.11882,0.02066
4474.04729,0.01634
4475.97576,0.02300
4477.90423,0.03314
4479.83270,0.03490
4481.76116,0.03397
4483.68963,0.03245
4485.61810,0.03000
4487.54657,0.02773
4489.47504,0.02482
4491.40351,0.02347
4493.33198,0.02476
4495.26044,0.02696
4497.18891,0.02720
4499.11738,0.02573
4501.04585,0.02520
4502.97432,0.02551
4504.90279,0.02704
4506.83126,0.02922
4508.75973,0.02916
4510.68819,0.02712
4512.61666,0.02256
4514.54513,0.01389
4516.47360,0.00867
4518.40207,0.01337
4520.33054,0.02174
4522.25901,0.02268
4524.18747,0.01619
4526.11594,0.01475
4528.04441,0.02154
4529.97288,0.03029
4531.90135,0.03793
4533.82982,0.04157
4535.75829,0.03820
4537.68676,0.03088
4539.61522,0.02647
4541.54369,0.02515
4543.47216,0.02382
4545.40063,0.02432
4547.32910,0.02635
4549.25757,0.02097
4551.18604,0.00798
4553.11450,0.00018
4555.04297,0.00240
4556.97144,0.00865
4558.89991,0.00840
4560.82838,0.00235
4562.75685,0.00225
4564.68532,0.00758
4566.61378,0.01209
4568.54225,0.01572
4570.47072,0.02052
4572.39919,0.02582
4574.32766,0.02335
4576.25613,0.01188
4578.18460,0.00717
4580.11307,0.01295
4582.04153,0.01298
4583.97000,0.00495
4585.89847,-0.00121
4587.82694,-0.00298
4589.75541,0.00013
4591.68388,0.00898
4593.61235,0.01828
4595.54081,0.02227
4597.46928,0.02268
4599.39775,0.02305
4601.32622,0.01991
4603.25469,0.00780
4605.18316,-0.00369
4607.11163,-0.00070
4609.04010,0.00911
4610.96856,0.01022
4612.89703,0.00441
4614.82550,0.00091
4616.75397,-0.00140
4618.68244,-0.00322
4620.61091,-0.00372
4622.53938,-0.00486
4624.46784,-0.00670
4626.39631,-0.00683
4628.32478,-0.00069
4630.25325,0.00705
4632.18172,0.01233
4634.11019,0.01824
4636.03866,0.02316
4637.96713,0.02779
4639.89559,0.03072
4641.82406,0.02516
4643.75253,0.01031
4645.68100,-0.00225
4647.60947,0.00319
4649.53794,0.01990
4651.46641,0.02939
4653.39487,0.02943
4655.32334,0.02314
4657.25181,0.01551
4659.18028,0.01340
4661.10875,0.01461
4663.03722,0.01580
4664.96569,0.01483
4666.89416,0.00914
4668.82262,0.00354
4670.75109,0.00099
4672.67956,-0.00064
4674.60803,0.00304
4676.53650,0.01045
4678.46497,0.01019
4680.39344,0.00125
4682.32190,-0.00821
4684.25037,-0.00981
4686.17884,0.00005
4688.10731,0.01454
4690.03578,0.02152
4691.96425,0.01908
4693.89272,0.01728
4695.82119,0.01691
4697.74965,0.01130
4699.67812,0.00222
4701.60659,-0.00521
4703.53506,-0.00621
4705.46353,-0.00190
4707.39200,0.00025
4709.32047,-0.00107
4711.24893,-0.00475
4713.17740,-0.00407
4715.10587,0.00596
4717.03434,0.01250
4718.96281,0.00947
4720.89128,0.00559
4722.81975,0.00380
4724.74821,0.00210
4726.67668,0.00783
4728.60515,0.01778
4730.53362,0.01203
4732.46209,-0.00216
4734.39056,-0.00449
4736.31903,-0.00244
4738.24750,-0.00216
4740.17596,0.00716
4742.10443,0.01894
4744.03290,0.01829
4745.96137,0.01332
4747.88984,0.01409
4749.81831,0.01372
4751.74678,0.00882
4753.67524,0.01129
4755.60371,0.02075
4757.53218,0.02141
4759.46065,0.01200
4761.38912,0.00535
4763.31759,0.00598
4765.24606,0.00458
4767.17453,0.00081
4769.10299,0.00294
4771.03146,0.01013
4772.95993,0.01588
4774.88840,0.01619
4776.81687,0.01301
4778.74534,0.00684
4780.67381,0.00234
4782.60227,0.00591
4784.53074,0.00236
4786.45921,-0.01323
4788.38768,-0.01267
4790.31615,0.00596
4792.24462,0.01385
4794.17309,0.01321
4796.10156,0.01593
4798.03002,0.01450
4799.95849,0.01333
4801.88696,0.01552
4803.81543,0.01106
4805.74390,0.00503
4807.67237,0.00638
4809.60084,0.01217
4811.52930,0.01478
4813.45777,0.00955
4815.38624,0.00123
4817.31471,-0.00574
4819.24318,-0.01017
4821.17165,-0.00736
4823.10012,0.00281
4825.02859,0.01075
4826.95705,0.01180
4828.88552,0.01086
4830.81399,0.01231
4832.74246,0.01102
4834.67093,0.00498
4836.59940,0.00489
4838.52787,0.00607
4840.45633,-0.00203
4842.38480,-0.00887
4844.31327,-0.00278
4846.24174,0.01137
4848.17021,0.02142
4850.09868,0.02564
4852.02715,0.02743
4853.95562,0.02589
4855.88408,0.02225
4857.81255,0.02054
4859.74102,0.01876
4861.66949,0.01143
4863.59796,0.00636
4865.52643,0.01218
4867.45490,0.01833
4869.38336,0.01591
4871.31183,0.01227
4873.24030,0.01186
4875.16877,0.01334
4877.09724,0.01953
4879.02571,0.02047
4880.95418,0.00727
4882.88265,-0.00082
4884.81111,0.00101
4886.73958,-0.00047
4888.66805,-0.00050
4890.59652,0.00302
4892.52499,0.00074
4894.45346,-0.00160
4896.38193,-0.00178
4898.31039,-0.00574
4900.23886,-0.00454
4902.16733,0.00312
4904.09580,0.01308
4906.02427,0.01870
4907.95274,0.00822
4909.88121,-0.00589
4911.80967,-0.00355
4913.73814,0.01823
4915.66661,0.03632
4917.59508,0.03469
4919.52355,0.02620
4921.45202,0.01622
4923.38049,0.00654
4925.30896,0.00837
4927.23742,0.01976
4929.16589,0.02209
4931.09436,0.00473
4933.02283,-0.01222
4934.95130,-0.00393
4936.87977,0.01045
4938.80824,0.00657
4940.73670,-0.00008
4942.66517,0.00115
4944.59364,0.00330
4946.52211,0.00478
4948.45058,0.00992
4950.37905,0.01163
4952.30752,-0.00537
4954.23599,-0.02384
4956.16445,-0.01421
4958.09292,0.00459
4960.02139,0.01267
4961.94986,0.02271
4963.87833,0.02851
4965.80680,0.02108
4967.73527,0.01885
4969.66373,0.02697
4971.59220,0.02512
4973.52067,0.00965
4975.44914,-0.00054
4977.37761,0.00059
4979.30608,0.00563
4981.23455,0.01478
4983.16302,0.02561
4985.09148,0.02000
4987.01995,0.00264
4988.94842,0.00009
4990.87689,0.01158
4992.80536,0.02329
4994.73383,0.03138
4996.66230,0.03111
4998.59076,0.01983
5000.51923,0.00491
5002.44770,-0.00151
5004.37617,0.01060
5006.30464,0.02968
5008.23311,0.03175
5010.16158,0.02242
5012.09005,0.01375
5014.01851,0.00301
5015.94698,-0.00277
5017.87545,-0.00247
5019.80392,0.00252
5021.73239,0.02029
5023.66086,0.03793
5025.58933,0.03388
5027.51779,0.01710
5029.44626,0.01123
5031.37473,0.01804
5033.30320,0.02205
5035.23167,0.01263
5037.16014,-0.00575
5039.08861,-0.01009
5041.01708,0.01004
5042.94554,0.02858
5044.87401,0.02286
5046.80248,0.00393
5048.73095,-0.00164
5050.65942,0.00908
5052.58789,0.02474
5054.51636,0.03559
5056.44482,0.03133
5058.37329,0.01979
5060.30176,0.01225
5062.23023,0.01229
5064.15870,0.02201
5066.08717,0.03039
5068.01564,0.02800
5069.94410,0.02193
5071.87257,0.01946
5073.80104,0.01581
5075.72951,0.00982
5077.65798,0.01034
5079.58645,0.01187
5081.51492,0.00571
5083.44339,0.00216
5085.37185,0.00427
5087.30032,0.00821
5089.22879,0.01511
5091.15726,0.02139
5093.08573,0.03010
5095.01420,0.04052
5096.94267,0.03379
5098.87113,0.00837
5100.79960,-0.00418
5102.72807,0.00288
5104.65654,0.00461
5106.58501,0.00027
5108.51348,-0.00384
5110.44195,-0.00307
5112.37042,0.01037
5114.29888,0.02082
5116.22735,0.02391
5118.15582,0.03034
5120.08429,0.03281
5122.01276,0.03603
5123.94123,0.04392
5125.86970,0.03919
5127.79816,0.02804
5129.72663,0.01961
5131.65510,0.00789
5133.58357,0.00857
5135.51204,0.02640
5137.44051,0.04114
5139.36898,0.04631
5141.29745,0.04990
5143.22591,0.05436
5145.15438,0.05126
5147.08285,0.03865
5149.01132,0.02987
5150.93979,0.03195
5152.86826,0.03738
5154.79673,0.03177
5156.72519,0.00859
5158.65366,-0.00582
5160.58213,0.00696
5162.51060,0.02335
5164.43907,0.03035
5166.36754,0.03752
5168.29601,0.04032
5170.22448,0.03518
5172.15294,0.03071
5174.08141,0.02826
5176.00988,0.02331
5177.93835,0.01603
5179.86682,0.01680
5181.79529,0.03109
5183.72376,0.04067
5185.65222,0.03250
5187.58069,0.02317
5189.50916,0.02414
5191.43763,0.02413
5193.36610,0.01578
5195.29457,0.00761
5197.22304,0.01706
5199.15151,0.04655
5201.07997,0.06021
5203.00844,0.03363
5204.93691,0.00071
5206.86538,0.00782
5208.79385,0.03274
5210.72232,0.03726
5212.65079,0.03512
5214.57925,0.03959
5216.50772,0.04204
5218.43619,0.03640
5220.36466,0.03024
5222.29313,0.02580
5224.22160,0.02191
5226.15007,0.03731
5228.07854,0.07623
5230.00700,0.10594
5231.93547,0.10721
5233.86394,0.08690
5235.79241,0.06535
5237.72088,0.06575
5239.64935,0.08318
5241.57782,0.09323
5243.50628,0.08938
5245.43475,0.07525
5247.36322,0.05284
5249.29169,0.03441
5251.22016,0.04532
5253.14863,0.07412
5255.07710,0.07642
5257.00556,0.04707
5258.93403,0.02341
5260.86250,0.02176
5262.79097,0.03058
5264.71944,0.04172
5266.64791,0.05311
5268.57638,0.05763
5270.50485,0.05566
5272.43331,0.05085
5274.36178,0.04152
5276.29025,0.03743
5278.21872,0.04530
5280.14719,0.04408
5282.07566,0.03209
5284.00413,0.03815
5285.93259,0.05426
5287.86106,0.04257
5289.78953,0.01365
5291.71800,0.01631
5293.64647,0.04315
5295.57494,0.05270
5297.50341,0.04090
5299.43188,0.02651
5301.36034,0.03382
5303.28881,0.06808
5305.21728,0.09424
5307.14575,0.08847
5309.07422,0.07043
5311.00269,0.05762
5312.93116,0.04408
5314.85962,0.03923
5316.78809,0.05995
5318.71656,0.08333
5320.64503,0.07899
5322.57350,0.05184
5324.50197,0.02660
5326.43044,0.03386
5328.35891,0.07045
5330.28737,0.08723
5332.21584,0.06799
5334.14431,0.05278
5336.07278,0.05809
5338.00125,0.05415
5339.92972,0.04438
5341.85819,0.04958
5343.78665,0.06439
5345.71512,0.07992
5347.64359,0.08040
5349.57206,0.06775
5351.50053,0.06548
5353.42900,0.07213
5355.35747,0.06217
5357.28594,0.04987
5359.21440,0.05481
5361.14287,0.05599
5363.07134,0.04342
5364.99981,0.03975
5366.92828,0.04334
5368.85675,0.04733
5370.78522,0.05892
5372.71368,0.06488
5374.64215,0.05899
5376.57062,0.06319
5378.49909,0.07512
5380.42756,0.07147
5382.35603,0.06191
5384.28450,0.06756
5386.21297,0.07693
5388.14143,0.07168
5390.06990,0.06744
5391.99837,0.07064
5393.92684,0.06863
5395.85531,0.05897
5397.78378,0.05821
5399.71225,0.07159
5401.64071,0.07807
5403.56918,0.07150
5405.49765,0.06987
5407.42612,0.08303
5409.35459,0.10429
5411.28306,0.11392
5413.21153,0.10975
5415.13999,0.10005
5417.06846,0.07989
5418.99693,0.05426
5420.92540,0.04328
5422.85387,0.05469
5424.78234,0.06050
5426.71081,0.04938
5428.63928,0.05226
5430.56774,0.07344
5432.49621,0.08809
5434.42468,0.09280
5436.35315,0.09476
5438.28162,0.10334
5440.21009,0.10699
5442.13856,0.09354
5444.06702,0.08533
5445.99549,0.08493
5447.92396,0.07787
5449.85243,0.07304
5451.78090,0.08128
5453.70937,0.09555
5455.63784,0.08912
5457.56631,0.06151
5459.49477,0.05659
5461.42324,0.07388
5463.35171,0.06962
5465.28018,0.04552
5467.20865,0.04140
5469.13712,0.06580
5471.06559,0.08736
5472.99405,0.08840
5474.92252,0.08830
5476.85099,0.09594
5478.77946,0.08789
5480.70793,0.06893
5482.63640,0.06754
5484.56487,0.08390
5486.49334,0.09522
5488.42180,0.09166
5490.35027,0.08361
5492.27874,0.09107
5494.20721,0.11787
5496.13568,0.13594
5498.06415,0.12534
5499.99262,0.10217
5501.92108,0.09001
5503.84955,0.08218
5505.77802,0.06634
5507.70649,0.04411
5509.63496,0.03410
5511.56343,0.05110
5513.49190,0.07919
5515.42037,0.09366
5517.34883,0.08560
5519.27730,0.06716
5521.20577,0.06960
5523.13424,0.09219
5525.06271,0.09528
5526.99118,0.08323
5528.91965,0.09452
5530.84811,0.11196
5532.77658,0.10754
5534.70505,0.09347
5536.63352,0.07260
5538.56199,0.06199
5540.49046,0.07703
5542.41893,0.08816
5544.34740,0.08127
5546.27586,0.07303
5548.20433,0.07215
5550.13280,0.07159
5552.06127,0.07428
5553.98974,0.09983
5555.91821,0.13302
5557.84668,0.14116
5559.77514,0.14237
5561.70361,0.14229
5563.63208,0.10997
5565.56055,0.07764
5567.48902,0.08124
5569.41749,0.08891
5571.34596,0.08783
5573.27443,0.08407
5575.20289,0.06744
5577.13136,0.05633
5579.05983,0.08172
5580.98830,0.11769
5582.91677,0.11117
5584.84524,0.07833
5586.77371,0.07116
5588.70217,0.09583
5590.63064,0.10449
5592.55911,0.08246
5594.48758,0.07572
5596.41605,0.09406
5598.34452,0.10465
5600.27299,0.09699
5602.20145,0.09176
5604.12992,0.10904
5606.05839,0.11229
5607.98686,0.07986
5609.91533,0.06635
5611.84380,0.07931
5613.77227,0.07792
5615.70074,0.05750
5617.62920,0.03413
5619.55767,0.03840
5621.48614,0.07166
5623.41461,0.08804
5625.34308,0.06201
5627.27155,0.02877
5629.20002,0.04162
5631.12848,0.08270
5633.05695,0.09879
5634.98542,0.10327
5636.91389,0.11801
5638.84236,0.10428
5640.77083,0.08068
5642.69930,0.08328
5644.62777,0.08002
5646.55623,0.07327
5648.48470,0.08661
5650.41317,0.09786
5652.34164,0.09962
5654.27011,0.09761
5656.19858,0.08573
5658.12705,0.08866
5660.05551,0.10819
5661.98398,0.09092
5663.91245,0.03888
5665.84092,0.00731
5667.76939,0.01589
5669.69786,0.03406
5671.62633,0.03995
5673.55480,0.05773
5675.48326,0.09453
5677.41173,0.12505
5679.34020,0.12190
5681.26867,0.08281
5683.19714,0.05160
5685.12561,0.05554
5687.05408,0.06580
5688.98254,0.06867
5690.91101,0.08478
5692.83948,0.09861
5694.76795,0.08061
5696.69642,0.05071
5698.62489,0.05423
5700.55336,0.09279
5702.48183,0.11550
5704.41029,0.09344
5706.33876,0.05672
5708.26723,0.04490
5710.19570,0.06595
5712.12417,0.09147
5714.05264,0.08706
5715.98111,0.07629
5717.90957,0.08933
5719.83804,0.09513
5721.76651,0.08277
5723.69498,0.07989
5725.62345,0.08025
5727.55192,0.05891
5729.48039,0.02558
5731.40886,0.01406
5733.33732,0.03296
5735.26579,0.05894
5737.19426,0.07592
5739.12273,0.09153
5741.05120,0.09285
5742.97967,0.07902
5744.90814,0.08126
5746.83660,0.08847
5748.76507,0.07028
5750.69354,0.04809
5752.62201,0.04863
5754.55048,0.06245
5756.47895,0.07610
5758.40742,0.08175
5760.33588,0.06671
5762.26435,0.03431
5764.19282,0.02496
5766.12129,0.04644
5768.04976,0.06542
5769.97823,0.07822
5771.90670,0.09372
5773.83517,0.10362
5775.76363,0.09576
5777.69210,0.08267
5779.62057,0.08967
5781.54904,0.10833
5783.47751,0.11776
5785.40598,0.11554
5787.33445,0.11101
5789.26291,0.11745
5791.19138,0.12081
5793.11985,0.10418
5795.04832,0.09748
5796.97679,0.10951
5798.90526,0.11254
5800.83373,0.11615
5802.76220,0.12240
5804.69066,0.10896
5806.61913,0.08128
5808.54760,0.06312
5810.47607,0.07130
5812.40454,0.09288
5814.33301,0.11493
5816.26148,0.13305
5818.18994,0.12281
5820.11841,0.10206
5822.04688,0.09209
5823.97535,0.07372
5825.90382,0.08192
5827.83229,0.13132
5829.76076,0.15497
5831.68923,0.14032
5833.61769,0.12345
5835.54616,0.10952
5837.47463,0.11158
5839.40310,0.12256
5841.33157,0.11764
5843.26004,0.10108
5845.18851,0.09107
5847.11697,0.10508
5849.04544,0.12121
5850.97391,0.10251
5852.90238,0.06956
5854.83085,0.03841
5856.75932,0.01170
5858.68779,0.02417
5860.61626,0.07668
5862.54472,0.09885
5864.47319,0.06525
5866.40166,0.04874
5868.33013,0.07753
5870.25860,0.09628
5872.18707,0.09404
5874.11554,0.10759
5876.04400,0.14021
5877.97247,0.15028
5879.90094,0.12693
5881.82941,0.10081
5883.75788,0.08221
5885.68635,0.07540
5887.61482,0.09417
5889.54329,0.13463
5891.47175,0.17380
5893.40022,0.19368
5895.32869,0.18632
5897.25716,0.14695
5899.18563,0.10233
5901.11410,0.10120
5903.04257,0.13899
5904.97103,0.16596
5906.89950,0.13637
5908.82797,0.05179
5910.75644,0.01267
5912.68491,0.04798
5914.61338,0.07140
5916.54185,0.07014
5918.47032,0.08448
5920.39878,0.10654
5922.32725,0.11797
5924.25572,0.11543
5926.18419,0.08885
5928.11266,0.06379
5930.04113,0.06683
5931.96960,0.08296
5933.89806,0.11159
5935.82653,0.12583
5937.75500,0.10081
5939.68347,0.07748
5941.61194,0.07206
5943.54041,0.06602
5945.46888,0.07326
5947.39734,0.09299
5949.32581,0.09846
5951.25428,0.09820
5953.18275,0.10663
5955.11122,0.10327
5957.03969,0.07482
5958.96816,0.05978
5960.89663,0.07796
5962.82509,0.10008
5964.75356,0.12584
5966.68203,0.14694
5968.61050,0.14389
5970.53897,0.12546
5972.46744,0.10815
5974.39591,0.10561
5976.32437,0.11172
5978.25284,0.12175
5980.18131,0.14673
5982.10978,0.17633
5984.03825,0.17428
5985.96672,0.12210
5987.89519,0.07722
5989.82366,0.08511
5991.75212,0.10030
5993.68059,0.11293
5995.60906,0.13292
5997.53753,0.12876
5999.46600,0.10888
6001.39447,0.10019
6003.32294,0.11262
6005.25140,0.12870
6007.17987,0.11363
6009.10834,0.07418
6011.03681,0.07194
6012.96528,0.12235
6014.89375,0.15510
6016.82222,0.15219
6018.75069,0.15264
6020.67915,0.13643
6022.60762,0.08160
6024.53609,0.02692
6026.46456,-0.00129
6028.39303,-0.01000
6030.32150,0.00693
6032.24997,0.05181
6034.17843,0.07767
6036.10690,0.05725
6038.03537,0.03764
6039.96384,0.04303
6041.89231,0.06279
6043.82078,0.09025
6045.74925,0.11734
6047.67772,0.14412
6049.60618,0.15563
6051.53465,0.12404
6053.46312,0.07541
6055.39159,0.08511
6057.32006,0.14692
6059.24853,0.17751
6061.17700,0.15211
6063.10546,0.08831
6065.03393,0.04540
6066.96240,0.05311
6068.89087,0.06174
6070.81934,0.05535
6072.74781,0.06006
6074.67628,0.08107
6076.60475,0.09989
6078.53321,0.07529
6080.46168,0.00787
6082.39015,-0.02553
6084.31862,0.00900
6086.24709,0.04807
6088.17556,0.06388
6090.10403,0.10703
6092.03249,0.15726
6093.96096,0.15276
6095.88943,0.10516
6097.81790,0.06345
6099.74637,0.05790
6101.67484,0.07593
6103.60331,0.07300
6105.53177,0.05656
6107.46024,0.07029
6109.38871,0.10233
6111.31718,0.10572
6113.24565,0.06441
6115.17412,0.02456
6117.10259,0.03223
6119.03106,0.06625
6120.95952,0.11072
6122.88799,0.14874
6124.81646,0.13134
6126.74493,0.08041
6128.67340,0.07962
6130.60187,0.13604
6132.53034,0.16811
6134.45880,0.12984
6136.38727,0.07667
6138.31574,0.08515
6140.24421,0.12199
6142.17268,0.13735
6144.10115,0.15513
6146.02962,0.15544
6147.95809,0.10994
6149.88655,0.03808
6151.81502,-0.00072
6153.74349,0.04679
6155.67196,0.11936
6157.60043,0.13163
6159.52890,0.10335
6161.45737,0.09583
6163.38583,0.10439
6165.31430,0.11079
6167.24277,0.10627
6169.17124,0.07121
6171.09971,0.03469
6173.02818,0.02164
6174.95665,0.01252
6176.88512,0.00883
6178.81358,0.01809
6180.74205,0.04354
6182.67052,0.07629
6184.59899,0.08333
6186.52746,0.05984
6188.45593,0.05645
6190.38440,0.09259
6192.31286,0.11145
6194.24133,0.09077
6196.16980,0.05765
6198.09827,0.04621
6200.02674,0.07534
6201.95521,0.11539
6203.88368,0.12942
6205.81215,0.10581
6207.74061,0.05493
6209.66908,0.02562
6211.59755,0.04215
6213.52602,0.05214
6215.45449,0.05202
6217.38296,0.06018
6219.31143,0.03996
6221.23989,0.00738
6223.16836,0.03217
6225.09683,0.10376
6227.02530,0.16921
6228.95377,0.20782
6230.88224,0.17296
6232.81071,0.08386
6234.73918,0.06102
6236.66764,0.10219
6238.59611,0.11467
6240.52458,0.07183
6242.45305,0.02222
6244.38152,0.02444
6246.30999,0.07529
6248.23846,0.12705
6250.16692,0.14362
6252.09539,0.13948
6254.02386,0.13279
6255.95233,0.09608
6257.88080,0.03802
6259.80927,-0.00216
6261.73774,-0.00476
6263.66621,0.03415
6265.59467,0.07881
6267.52314,0.08298
6269.45161,0.05827
6271.38008,0.05054
6273.30855,0.06653
6275.23702,0.07943
6277.16549,0.09802
6279.09395,0.10213
6281.02242,0.04693
6282.95089,-0.00224
6284.87936,0.00571
6286.80783,0.00111
6288.73630,-0.02570
6290.66477,-0.02393
6292.59323,-0.00823
6294.52170,0.01461
6296.45017,0.07464
6298.37864,0.12727
6300.30711,0.12013
6302.23558,0.08536
6304.16405,0.09698
6306.09252,0.17364
6308.02098,0.22142
6309.94945,0.16386
6311.87792,0.07740
6313.80639,0.06170
6315.73486,0.09337
6317.66333,0.09487
6319.59180,0.05579
6321.52026,0.02413
6323.44873,0.02496
6325.37720,0.02930
6327.30567,0.04220
6329.23414,0.10067
6331.16261,0.15953
6333.09108,0.16083
6335.01955,0.14478
6336.94801,0.16033
6338.87648,0.17377
6340.80495,0.11521
6342.73342,0.01406
6344.66189,-0.00432
6346.59036,0.06547
6348.51883,0.12519
6350.44729,0.18528
6352.37576,0.20622
6354.30423,0.13953
6356.23270,0.07529
6358.16117,0.07395
6360.08964,0.09728
6362.01811,0.07802
6363.94658,0.02426
6365.87504,-0.00654
6367.80351,0.00840
6369.73198,0.03905
6371.66045,0.02399
6373.58892,-0.00676
6375.51739,0.01997
6377.44586,0.08098
6379.37432,0.15335
6381.30279,0.22253
6383.23126,0.25366
6385.15973,0.23555
6387.08820,0.18338
6389.01667,0.10580
6390.94514,0.03519
6392.87361,0.04398
6394.80207,0.11016
6396.73054,0.10719
6398.65901,0.06094
6400.58748,0.06183
6402.51595,0.07047
6404.44442,0.01881
6406.37289,-0.06120
6408.30135,-0.07813
6410.22982,0.01057
6412.15829,0.12871
6414.08676,0.19748
6416.01523,0.19857
6417.94370,0.14183
6419.87217,0.08034
6421.80064,0.03844
6423.72910,-0.00676
6425.65757,-0.05892
6427.58604,-0.05825
6429.51451,0.02129
6431.44298,0.09083
6433.37145,0.11185
6435.29992,0.12499
6437.22838,0.11235
6439.15685,0.07892
6441.08532,0.05288
6443.01379,0.04045
6444.94226,0.07099
6446.87073,0.08757
6448.79920,0.05841
6450.72766,0.06994
6452.65613,0.11881
6454.58460,0.12904
6456.51307,0.10573
6458.44154,0.08763
6460.37001,0.07908
6462.29848,0.08807
6464.22695,0.12428
6466.15541,0.15193
6468.08388,0.12881
6470.01235,0.06752
6471.94082,0.04943
6473.86929,0.09040
6475.79776,0.11727
6477.72623,0.07625
6479.65469,-0.01325
6481.58316,-0.05292
6483.51163,-0.01629
6485.44010,0.02602
6487.36857,0.06297
6489.29704,0.08715
6491.22551,0.07180
6493.15398,0.04221
6495.08244,0.03088
6497.01091,0.06323
6498.93938,0.15251
6500.86785,0.21910
6502.79632,0.15448
6504.72479,0.03044
6506.65326,-0.02302
6508.58172,-0.02161
6510.51019,-0.00713
6512.43866,0.05201
6514.36713,0.11040
6516.29560,0.08377
6518.22407,0.00809
6520.15254,-0.00011
6522.08101,0.07070
6524.00947,0.12292
6525.93794,0.12107
6527.86641,0.09486
6529.79488,0.04506
6531.72335,0.01217
6533.65182,0.04085
6535.58029,0.08979
6537.50875,0.09539
6539.43722,0.10211
6541.36569,0.17088
6543.29416,0.23160
6545.22263,0.19828
6547.15110,0.15330
6549.07957,0.20062
6551.00804,0.23814
6552.93650,0.19727
6554.86497,0.17405
6556.79344,0.16027
6558.72191,0.15288
6560.65038,0.17655
6562.57885,0.19228
6564.50732,0.19081
6566.43578,0.22132
6568.36425,0.24961
6570.29272,0.17409
6572.22119,0.05628
6574.14966,0.01496
6576.07813,0.02858
6578.00660,0.05205
6579.93507,0.10015
6581.86353,0.15806
6583.79200,0.15039
6585.72047,0.07108
6587.64894,-0.00565
6589.57741,-0.02842
6591.50588,-0.03169
6593.43435,-0.07082
6595.36281,-0.10192
6597.29128,-0.08717
6599.21975,-0.05699
6601.14822,-0.01069
6603.07669,0.05587
6605.00516,0.10867
6606.93363,0.09224
6608.86210,0.00573
6610.79056,-0.04146
6612.71903,0.02009
6614.64750,0.12125
6616.57597,0.13797
6618.50444,0.06365
6620.43291,0.02629
6622.36138,0.05526
6624.28984,0.07349
6626.21831,0.04186
6628.14678,0.01316
6630.07525,0.03163
6632.00372,0.02236
6633.93219,-0.06423
6635.86066,-0.12973
6637.78912,-0.05446
6639.71759,0.07035
6641.64606,0.11222
6643.57453,0.06031
6645.50300,-0.01772
6647.43147,-0.07219
6649.35994,-0.06089
6651.28841,0.03625
6653.21687,0.11384
6655.14534,0.06470
6657.07381,-0.04113
6659.00228,-0.04184
6660.93075,0.04952
6662.85922,0.10297
6664.78769,0.10295
6666.71615,0.10164
6668.64462,0.13582
6670.57309,0.18988
6672.50156,0.20423
6674.43003,0.16111
6676.35850,0.12404
6678.28697,0.15505
6680.21544,0.20955
6682.14390,0.17732
6684.07237,0.03840
6686.00084,-0.07883
6687.92931,-0.06236
6689.85778,0.04926
6691.78625,0.14530
6693.71472,0.17541
6695.64318,0.14243
6697.57165,0.12557
6699.50012,0.16811
6701.42859,0.14487
6703.35706,0.01066
6705.28553,-0.11412
6707.21400,-0.17405
6709.14247,-0.14892
6711.07093,-0.05235
6712.99940,0.06329
6714.92787,0.19173
6716.85634,0.28527
6718.78481,0.27257
6720.71328,0.20703
6722.64175,0.18053
6724.57021,0.12128
6726.49868,-0.00569
6728.42715,-0.06795
6730.35562,-0.00666
6732.28409,0.08852
6734.21256,0.13095
6736.14103,0.09585
6738.06950,0.04388
6739.99796,0.00602
6741.92643,-0.03656
6743.85490,-0.03137
6745.78337,-0.00888
6747.71184,-0.05087
6749.64031,-0.07309
6751.56878,0.02789
6753.49724,0.15397
6755.42571,0.14241
6757.35418,0.03544
6759.28265,-0.02220
6761.21112,-0.00094
6763.13959,0.05760
6765.06806,0.11393
6766.99653,0.11194
6768.92499,0.09138
6770.85346,0.09542
6772.78193,0.09159
6774.71040,0.08539
6776.63887,0.04015
6778.56734,-0.04985
6780.49581,-0.03211
6782.42427,0.12623
6784.35274,0.24580
6786.28121,0.24921
6788.20968,0.20199
6790.13815,0.09735
6792.06662,-0.04304
6793.99509,-0.11652
6795.92355,-0.12424
6797.85202,-0.08563
6799.78049,0.01299
6801.70896,0.16041
6803.63743,0.25938
6805.56590,0.23678
6807.49437,0.18547
6809.42284,0.14344
6811.35130,0.03233
6813.27977,-0.07632
6815.20824,-0.05754
6817.13671,0.01082
6819.06518,0.02724
6820.99365,-0.03740
6822.92212,-0.15353
6824.85058,-0.15958
6826.77905,-0.03305
6828.70752,0.08791
6830.63599,0.12812
6832.56446,0.12468
6834.49293,0.05519
6836.42140,-0.11438
6838.34987,-0.19338
6840.27833,-0.08518
6842.20680,0.06986
6844.13527,0.14411
6846.06374,0.11684
6847.99221,0.06421
6849.92068,0.05913
6851.84915,0.12037
6853.77761,0.19511
6855.70608,0.19867
6857.63455,0.17491
6859.56302,0.18998
6861.49149,0.19177
6863.41996,0.13810
6865.34843,0.06821
6867.27690,-0.00377
6869.20536,-0.08330
6871.13383,-0.05876
6873.06230,0.12090
6874.99077,0.23487
6876.91924,0.21467
6878.84771,0.15378
6880.77618,0.05784
6882.70464,-0.03799
6884.63311,-0.07674
6886.56158,-0.05968
6888.49005,-0.01387
6890.41852,0.04674
6892.34699,0.10707
6894.27546,0.13230
6896.20393,0.14116
6898.13239,0.16423
6900.06086,0.18043
6901.98933,0.19637
6903.91780,0.19021
6905.84627,0.11876
6907.77474,0.06408
6909.70321,0.02653
6911.63167,-0.03671
6913.56014,-0.01605
6915.48861,0.09758
6917.41708,0.15673
6919.34555,0.07485
6921.27402,-0.03074
6923.20249,0.02839
6925.13096,0.15683
6927.05942,0.14814
6928.98789,-0.00639
6930.91636,-0.12710
6932.84483,-0.10747
6934.77330,-0.11100
6936.70177,-0.19409
6938.63024,-0.16296
6940.55870,0.05800
6942.48717,0.21465
6944.41564,0.23778
6946.34411,0.25944
6948.27258,0.25544
6950.20105,0.15945
6952.12952,0.08928
6954.05799,0.10033
6955.98645,0.07515
6957.91492,0.03619
6959.84339,0.05162
6961.77186,0.06542
6963.70033,0.03881
6965.62880,-0.01641
6967.55727,-0.03984
6969.48573,0.01966
6971.41420,0.09301
6973.34267,0.11800
6975.27114,0.12275
6977.19961,0.10377
6979.12808,0.07180
6981.05655,0.07958
6982.98501,0.07015
6984.91348,-0.02322
6986.84195,-0.10999
6988.77042,-0.11308
6990.69889,-0.07191
6992.62736,-0.05134
6994.55583,-0.04559
6996.48430,-0.04260
6998.41276,-0.08437
7000.34123,-0.14828
7002.26970,-0.08950
7004.19817,0.06890
7006.12664,0.11696
7008.05511,0.06550
7009.98358,0.09933
7011.91204,0.18532
7013.84051,0.19075
7015.76898,0.07323
7017.69745,-0.11845
7019.62592,-0.27067
7021.55439,-0.22578
7023.48286,-0.01681
7025.41133,0.10626
7027.33979,0.03972
7029.26826,-0.06282
7031.19673,-0.09312
7033.12520,-0.09303
7035.05367,0.00165
7036.98214,0.14130
7038.91061,0.14777
7040.83907,0.09459
7042.76754,0.15436
7044.69601,0.24040
7046.62448,0.20442
7048.55295,0.11689
7050.48142,0.08423
7052.40989,0.10658
7054.33836,0.11264
7056.26682,0.06218
7058.19529,0.05143
7060.12376,0.12413
7062.05223,0.13773
7063.98070,0.06994
7065.90917,0.06686
7067.83764,0.16284
7069.76610,0.22236
7071.69457,0.15691
7073.62304,0.12418
7075.55151,0.14624
7077.47998,0.08717
7079.40845,-0.04819
7081.33692,-0.14836
7083.26539,-0.13229
7085.19385,0.03070
7087.12232,0.22399
7089.05079,0.19050
7090.97926,0.04220
7092.90773,0.03703
7094.83620,0.07018
7096.76467,0.00610
7098.69313,0.00711
7100.62160,0.12170
7102.55007,0.24439
7104.47854,0.34195
7106.40701,0.29147
7108.33548,0.12951
7110.26395,0.06455
7112.19242,0.10000
7114.12088,0.14902
7116.04935,0.18142
7117.97782,0.11323
7119.90629,0.00443
7121.83476,0.04702
7123.76323,0.12457
7125.69170,0.04832
7127.62016,-0.11706
7129.54863,-0.18519
7131.47710,-0.13370
7133.40557,-0.07240
7135.33404,-0.07335
7137.26251,-0.07839
7139.19098,-0.00756
7141.11944,0.12682
7143.04791,0.26335
7144.97638,0.35057
7146.90485,0.32672
7148.83332,0.18929
7150.76179,0.06759
7152.69026,0.03937
7154.61873,0.02352
7156.54719,-0.03035
7158.47566,-0.07769
7160.40413,-0.04996
7162.33260,0.06782
7164.26107,0.19520
7166.18954,0.26233
7168.11801,0.23967
7170.04647,0.12153
7171.97494,-0.04878
7173.90341,-0.14711
7175.83188,-0.13947
7177.76035,-0.07197
7179.68882,-0.06604
7181.61729,-0.19506
7183.54576,-0.23284
7185.47422,-0.07946
7187.40269,0.00138
7189.33116,-0.00608
7191.25963,-0.00181
7193.18810,0.03378
7195.11657,0.05977
7197.04504,0.06669
7198.97350,0.04837
7200.90197,-0.03106
7202.83044,-0.07882
7204.75891,0.04187
7206.68738,0.10936
7208.61585,0.01081
7210.54432,-0.06249
7212.47279,-0.00290
7214.40125,0.16813
7216.32972,0.24075
7218.25819,0.05539
7220.18666,-0.10000
7222.11513,-0.15441
7224.04360,-0.14009
7225.97207,-0.00042
7227.90053,0.10008
7229.82900,0.12985
7231.75747,0.18578
7233.68594,0.23688
7235.61441,0.27755
7237.54288,0.28133
7239.47135,0.21099
7241.39982,0.16353
7243.32828,0.11049
7245.25675,-0.04533
7247.18522,-0.08530
7249.11369,0.04846
7251.04216,0.17678
7252.97063,0.12325
7254.89910,-0.02695
7256.82756,-0.00417
7258.75603,0.16620
7260.68450,0.30415
7262.61297,0.33429
7264.54144,0.27146
7266.46991,0.15468
7268.39838,0.19159
7270.32685,0.32212
7272.25531,0.27617
7274.18378,0.07230
7276.11225,-0.08476
7278.04072,-0.05028
7279.96919,0.18259
7281.89766,0.30547
7283.82613,0.31001
7285.75459,0.31007
7287.68306,0.24194
7289.61153,0.11857
7291.54000,0.01957
7293.46847,-0.08276
7295.39694,-0.10053
7297.32541,-0.01809
7299.25387,-0.01124
7301.18234,-0.01424
7303.11081,0.08121
7305.03928,0.18647
7306.96775,0.26271
7308.89622,0.32095
7310.82469,0.29732
7312.75316,0.15665
7314.68162,-0.07684
7316.61009,-0.26501
7318.53856,-0.24581
7320.46703,-0.23170
7322.39550,-0.32207
7324.32397,-0.33966
7326.25244,-0.14506
7328.18090,0.17903
7330.10937,0.29614
7332.03784,0.09942
7333.96631,-0.02143
7335.89478,0.06943
7337.82325,0.30068
7339.75172,0.53380
7341.68019,0.34483
7343.60865,-0.01000
7345.53712,-0.11918
7347.46559,-0.00374
7349.39406,0.13059
7351.32253,0.15324
7353.25100,0.08960
7355.17947,-0.02144
7357.10793,-0.15126
7359.03640,-0.14809
7360.96487,-0.03363
7362.89334,0.03501
7364.82181,0.12870
7366.75028,0.24071
7368.67875,0.32566
7370.60722,0.39726
7372.53568,0.44498
7374.46415,0.34880
7376.39262,0.08994
7378.32109,0.06769
7380.24956,0.22673
7382.17803,0.25498
7384.10650,0.10290
7386.03496,-0.03186
7387.96343,-0.06340
7389.89190,-0.08302
7391.82037,-0.10955
7393.74884,-0.12774
7395.67731,-0.15796
7397.60578,-0.13131
7399.53425,-0.09773
7401.46271,-0.13562
7403.39118,-0.13351
7405.31965,0.03909
7407.24812,0.26343
7409.17659,0.28906
7411.10506,0.12230
7413.03353,0.02328
7414.96199,0.02274
7416.89046,-0.03733
7418.81893,-0.21757
7420.74740,-0.22426
7422.67587,-0.01045
7424.60434,0.13039
7426.53281,0.13726
7428.46128,0.06772
7430.38974,0.02395
7432.31821,0.06289
7434.24668,0.05169
7436.17515,-0.00037
7438.10362,0.04557
7440.03209,0.11668
7441.96056,0.05713
7443.88902,-0.01193
7445.81749,-0.01252
7447.74596,-0.09011
7449.67443,-0.22302
7451.60290,-0.21500
7453.53137,-0.05857
7455.45984,0.10358
7457.38831,0.21535
7459.31677,0.19585
7461.24524,0.04207
7463.17371,-0.04820
7465.10218,0.00077
7467.03065,0.13378
7468.95912,0.25048
7470.88759,0.28717
7472.81605,0.22156
7474.74452,0.12810
7476.67299,0.09362
7478.60146,0.07429
7480.52993,-0.04286
7482.45840,-0.07496
7484.38687,0.09838
7486.31533,0.25898
7488.24380,0.24999
7490.17227,0.03894
7492.10074,-0.16030
7494.02921,-0.15409
7495.95768,-0.11366
7497.88615,-0.15850
