399.19301,-0.43765
401.12148,-0.57639
403.04995,-0.25685
404.97842,0.07917
406.90689,0.27234
408.83536,0.23366
410.76382,0.03455
412.69229,-0.03572
414.62076,0.09505
416.54923,0.21808
418.47770,0.16659
420.40617,-0.01206
422.33464,-0.10393
424.26311,-0.12073
426.19157,-0.10836
428.12004,-0.07123
430.04851,-0.00934
431.97698,0.05354
433.90545,0.08928
435.83392,0.10180
437.76239,0.10908
439.69085,0.14660
441.61932,0.18283
443.54779,0.14793
445.47626,0.15360
447.40473,0.23820
449.33320,0.25016
451.26167,0.15185
453.19013,0.06412
455.11860,0.09076
457.04707,0.23386
458.97554,0.31210
460.90401,0.20064
462.83248,0.06361
464.76095,0.03750
466.68942,0.10278
468.61788,0.17851
470.54635,0.19493
472.47482,0.13330
474.40329,0.10810
476.33176,0.14157
478.26023,0.12171
480.18870,0.12847
482.11716,0.18825
484.04563,0.17924
485.97410,0.08595
487.90257,0.02598
489.83104,0.01992
491.75951,0.03492
493.68798,0.07027
495.61645,0.11990
497.54491,0.14768
499.47338,0.13514
501.40185,0.10029
503.33032,0.07537
505.25879,0.10084
507.18726,0.12281
509.11573,0.09432
511.04419,0.09392
512.97266,0.14195
514.90113,0.17328
516.82960,0.14590
518.75807,0.09877
520.68654,0.06686
522.61501,0.05424
524.54348,0.07494
526.47194,0.10812
528.40041,0.12741
530.32888,0.12570
532.25735,0.11576
534.18582,0.11164
536.11429,0.10469
538.04276,0.10474
539.97122,0.12778
541.89969,0.14835
543.82816,0.14569
545.75663,0.14561
547.68510,0.16128
549.61357,0.16007
551.54204,0.07625
553.47051,-0.03735
555.39897,-0.03466
557.32744,0.04941
559.25591,0.09629
561.18438,0.10630
563.11285,0.11152
565.04132,0.13875
566.96979,0.17743
568.89825,0.19110
570.82672,0.18021
572.75519,0.16109
574.68366,0.15297
576.61213,0.14886
578.54060,0.12648
580.46907,0.09603
582.39754,0.07992
584.32600,0.07510
586.25447,0.08512
588.18294,0.11994
590.11141,0.14909
592.03988,0.14142
593.96835,0.12231
595.89682,0.13253
597.82528,0.14680
599.75375,0.12614
601.68222,0.09429
603.61069,0.08484
605.53916,0.09248
607.46763,0.10449
609.39610,0.11366
611.32456,0.11182
613.25303,0.10059
615.18150,0.09363
617.10997,0.10216
619.03844,0.12218
620.96691,0.13712
622.89538,0.13258
624.82385,0.10807
626.75231,0.07941
628.68078,0.07966
630.60925,0.12386
632.53772,0.16598
634.46619,0.17076
636.39466,0.17154
638.32313,0.18087
640.25159,0.17495
642.18006,0.15069
644.10853,0.12239
646.03700,0.10507
647.96547,0.10644
649.89394,0.12087
651.82241,0.13985
653.75088,0.15066
655.67934,0.14371
657.60781,0.12767
659.53628,0.11414
661.46475,0.11105
663.39322,0.12551
665.32169,0.15317
667.25016,0.17050
669.17862,0.14113
671.10709,0.12011
673.03556,0.12600
674.96403,0.12603
676.89250,0.11840
678.82097,0.10954
680.74944,0.09968
682.67791,0.09530
684.60637,0.10136
686.53484,0.12265
688.46331,0.15123
690.39178,0.16931
692.32025,0.16961
694.24872,0.16643
696.17719,0.16994
698.10565,0.16200
700.03412,0.13712
701.96259,0.11731
703.89106,0.11086
705.81953,0.11320
707.74800,0.12776
709.67647,0.12780
711.60494,0.10960
713.53340,0.12639
715.46187,0.15505
717.39034,0.14831
719.31881,0.13853
721.24728,0.14406
723.17575,0.14851
725.10422,0.14661
727.03268,0.14748
728.96115,0.15418
730.88962,0.15457
732.81809,0.14695
734.74656,0.13566
736.67503,0.13147
738.60350,0.14157
740.53197,0.14857
742.46043,0.13464
744.38890,0.10895
746.31737,0.09919
748.24584,0.11222
750.17431,0.13162
752.10278,0.14390
754.03125,0.14645
755.95971,0.14169
757.88818,0.13498
759.81665,0.13151
761.74512,0.12841
763.67359,0.13117
765.60206,0.14224
767.53053,0.14675
769.45900,0.14357
771.38746,0.14011
773.31593,0.13514
775.24440,0.13737
777.17287,0.15182
779.10134,0.15660
781.02981,0.14225
782.95828,0.12909
784.88674,0.12942
786.81521,0.13696
788.74368,0.14073
790.67215,0.13482
792.60062,0.12450
794.52909,0.11988
796.45756,0.12233
798.38602,0.12188
800.31449,0.11788
802.24296,0.11966
804.17143,0.13036
806.09990,0.14696
808.02837,0.15218
809.95684,0.13880
811.88531,0.12964
813.81377,0.13898
815.74224,0.14995
817.67071,0.14354
819.59918,0.13448
821.52765,0.13524
823.45612,0.13548
825.38459,0.13914
827.31305,0.14709
829.24152,0.14347
831.16999,0.13093
833.09846,0.12666
835.02693,0.13883
836.95540,0.15740
838.88387,0.16296
840.81234,0.15817
842.74080,0.15818
844.66927,0.15901
846.59774,0.15252
848.52621,0.14460
850.45468,0.13918
852.38315,0.13272
854.31162,0.12791
856.24008,0.12591
858.16855,0.12709
860.09702,0.13494
862.02549,0.14180
863.95396,0.14407
865.88243,0.14629
867.81090,0.14262
869.73937,0.13530
871.66783,0.14161
873.59630,0.15676
875.52477,0.15940
877.45324,0.14602
879.38171,0.12635
881.31018,0.11658
883.23865,0.12560
885.16711,0.13906
887.09558,0.14370
889.02405,0.14529
890.95252,0.14553
892.88099,0.13776
894.80946,0.13203
896.73793,0.13934
898.66640,0.14614
900.59486,0.14259
902.52333,0.13960
904.45180,0.14258
906.38027,0.14629
908.30874,0.15088
910.23721,0.15394
912.16568,0.14864
914.09414,0.13925
916.02261,0.13771
917.95108,0.14342
919.87955,0.14566
921.80802,0.14624
923.73649,0.14987
925.66496,0.15122
927.59343,0.14866
929.52189,0.14813
931.45036,0.15387
933.37883,0.16107
935.30730,0.16384
937.23577,0.16434
939.16424,0.16395
941.09271,0.16006
943.02117,0.15432
944.94964,0.14790
946.87811,0.14119
948.80658,0.14065
950.73505,0.14326
952.66352,0.14570
954.59199,0.15500
956.52045,0.16155
958.44892,0.15443
960.37739,0.14685
962.30586,0.14881
964.23433,0.15281
966.16280,0.15254
968.09127,0.14948
970.01974,0.14714
971.94820,0.14941
973.87667,0.15602
975.80514,0.16137
977.73361,0.15839
979.66208,0.15179
981.59055,0.15159
983.51902,0.15047
985.44748,0.14501
987.37595,0.14478
989.30442,0.14799
991.23289,0.14767
993.16136,0.14695
995.08983,0.14959
997.01830,0.15086
998.94677,0.14682
1000.87523,0.14320
1002.80370,0.14592
1004.73217,0.15195
1006.66064,0.15621
1008.58911,0.15332
1010.51758,0.14598
1012.44605,0.14613
1014.37451,0.15229
1016.30298,0.15586
1018.23145,0.15644
1020.15992,0.15473
1022.08839,0.14954
1024.01686,0.14592
1025.94533,0.14973
1027.87380,0.15721
1029.80226,0.16173
1031.73073,0.15995
1033.65920,0.15605
1035.58767,0.15558
1037.51614,0.15448
1039.44461,0.14921
1041.37308,0.14509
1043.30154,0.14483
1045.23001,0.14678
1047.15848,0.15110
1049.08695,0.15798
1051.01542,0.16718
1052.94389,0.17113
1054.87236,0.16457
1056.80083,0.15683
1058.72929,0.15469
1060.65776,0.15485
1062.58623,0.15524
1064.51470,0.15781
1066.44317,0.15936
1068.37164,0.16116
1070.30011,0.16888
1072.22857,0.17446
1074.15704,0.16672
1076.08551,0.15369
1078.01398,0.15136
1079.94245,0.15413
1081.87092,0.15420
1083.79939,0.15826
1085.72786,0.16826
1087.65632,0.18101
1089.58479,0.18778
1091.51326,0.17964
1093.44173,0.16092
1095.37020,0.14831
1097.29867,0.15238
1099.22714,0.15993
1101.15560,0.15671
1103.08407,0.15019
1105.01254,0.14969
1106.94101,0.15418
1108.86948,0.15969
1110.79795,0.16045
1112.72642,0.15981
1114.65489,0.16414
1116.58335,0.16486
1118.51182,0.15656
1120.44029,0.15318
1122.36876,0.15857
1124.29723,0.15716
1126.22570,0.14875
1128.15417,0.14609
1130.08263,0.15133
1132.01110,0.15789
1133.93957,0.16335
1135.86804,0.16839
1137.79651,0.16660
1139.72498,0.15907
1141.65345,0.15674
1143.58191,0.15985
1145.51038,0.15862
1147.43885,0.15500
1149.36732,0.15862
1151.29579,0.16419
1153.22426,0.16474
1155.15273,0.16432
1157.08120,0.16754
1159.00966,0.17121
1160.93813,0.17123
1162.86660,0.16990
1164.79507,0.16921
1166.72354,0.17009
1168.65201,0.16966
1170.58048,0.16288
1172.50894,0.15653
1174.43741,0.16031
1176.36588,0.16944
1178.29435,0.17242
1180.22282,0.16545
1182.15129,0.15611
1184.07976,0.15365
1186.00823,0.15819
1187.93669,0.16353
1189.86516,0.16500
1191.79363,0.16338
1193.72210,0.16156
1195.65057,0.16311
1197.57904,0.16739
1199.50751,0.16882
1201.43597,0.16679
1203.36444,0.16664
1205.29291,0.17078
1207.22138,0.17188
1209.14985,0.16730
1211.07832,0.16353
1213.00679,0.16338
1214.93526,0.16814
1216.86372,0.17310
1218.79219,0.17144
1220.72066,0.16824
1222.64913,0.16791
1224.57760,0.16748
1226.50607,0.16839
1228.43454,0.17130
1230.36300,0.17255
1232.29147,0.17106
1234.21994,0.16798
1236.14841,0.16545
1238.07688,0.16210
1240.00535,0.15802
1241.93382,0.15872
1243.86229,0.16359
1245.79075,0.16606
1247.71922,0.16453
1249.64769,0.16340
1251.57616,0.16551
1253.50463,0.16668
1255.43310,0.16271
1257.36157,0.16052
1259.29003,0.16796
1261.21850,0.17802
1263.14697,0.18013
1265.07544,0.17666
1267.00391,0.17527
1268.93238,0.17569
1270.86085,0.17409
1272.78932,0.17116
1274.71778,0.16812
1276.64625,0.16519
1278.57472,0.16499
1280.50319,0.16696
1282.43166,0.16802
1284.36013,0.17002
1286.28860,0.17394
1288.21706,0.17668
1290.14553,0.17424
1292.07400,0.16746
1294.00247,0.16379
1295.93094,0.16452
1297.85941,0.16442
1299.78788,0.16269
1301.71634,0.15723
1303.64481,0.14762
1305.57328,0.14659
1307.50175,0.15792
1309.43022,0.16802
1311.35869,0.17364
1313.28716,0.17847
1315.21563,0.18076
1317.14409,0.17970
1319.07256,0.17586
1321.00103,0.17192
1322.92950,0.17007
1324.85797,0.16810
1326.78644,0.16502
1328.71491,0.16377
1330.64337,0.16282
1332.57184,0.16063
1334.50031,0.16217
1336.42878,0.16931
1338.35725,0.17664
1340.28572,0.17355
1342.21419,0.16506
1344.14266,0.16497
1346.07112,0.16862
1347.99959,0.16828
1349.92806,0.16584
1351.85653,0.16462
1353.78500,0.16715
1355.71347,0.17401
1357.64194,0.17968
1359.57040,0.18093
1361.49887,0.17969
1363.42734,0.17446
1365.35581,0.17068
1367.28428,0.17499
1369.21275,0.18154
1371.14122,0.18597
1373.06969,0.19055
1374.99815,0.19064
1376.92662,0.18470
1378.85509,0.18074
1380.78356,0.17960
1382.71203,0.17968
1384.64050,0.18245
1386.56897,0.18657
1388.49743,0.18616
1390.42590,0.18096
1392.35437,0.18214
1394.28284,0.19560
1396.21131,0.20757
1398.13978,0.20572
1400.06825,0.19541
1401.99672,0.18549
1403.92518,0.17868
1405.85365,0.17467
1407.78212,0.17579
1409.71059,0.18002
1411.63906,0.18097
1413.56753,0.18083
1415.49600,0.18876
1417.42446,0.20207
1419.35293,0.20139
1421.28140,0.18885
1423.20987,0.18438
1425.13834,0.18596
1427.06681,0.18838
1428.99528,0.19068
1430.92375,0.19044
1432.85221,0.18980
1434.78068,0.19327
1436.70915,0.19680
1438.63762,0.19093
1440.56609,0.18243
1442.49456,0.17961
1444.42303,0.18331
1446.35149,0.18775
1448.27996,0.18527
1450.20843,0.17932
1452.13690,0.18067
1454.06537,0.19359
1455.99384,0.21738
1457.92231,0.22537
1459.85077,0.20523
1461.77924,0.19411
1463.70771,0.19646
1465.63618,0.19938
1467.56465,0.19616
1469.49312,0.19799
1471.42159,0.20908
1473.35006,0.21564
1475.27852,0.20778
1477.20699,0.19715
1479.13546,0.18938
1481.06393,0.18698
1482.99240,0.18994
1484.92087,0.19692
1486.84934,0.20762
1488.77780,0.21532
1490.70627,0.20795
1492.63474,0.19953
1494.56321,0.20128
1496.49168,0.20464
1498.42015,0.20034
1500.34862,0.19483
1502.27709,0.19661
1504.20555,0.21160
1506.13402,0.24305
1508.06249,0.24927
1509.99096,0.22777
1511.91943,0.21445
1513.84790,0.21181
1515.77637,0.21891
1517.70483,0.22430
1519.63330,0.22486
1521.56177,0.22701
1523.49024,0.22371
1525.41871,0.21726
1527.34718,0.20942
1529.27565,0.20215
1531.20412,0.20434
1533.13258,0.21584
1535.06105,0.21982
1536.98952,0.22142
1538.91799,0.24150
1540.84646,0.26664
1542.77493,0.25015
1544.70340,0.22143
1546.63186,0.20311
1548.56033,0.19974
1550.48880,0.20641
1552.41727,0.21412
1554.34574,0.21928
1556.27421,0.22541
1558.20268,0.23383
1560.13115,0.21750
1562.05961,0.20026
1563.98808,0.19713
1565.91655,0.19917
1567.84502,0.20318
1569.77349,0.20442
1571.70196,0.20050
1573.63043,0.20291
1575.55889,0.21065
1577.48736,0.20433
1579.41583,0.18948
1581.34430,0.18047
1583.27277,0.17501
1585.20124,0.17156
1587.12971,0.17331
1589.05818,0.17937
1590.98664,0.18318
1592.91511,0.18208
1594.84358,0.18042
1596.77205,0.18069
1598.70052,0.18197
1600.62899,0.18281
1602.55746,0.18167
1604.48592,0.17889
1606.41439,0.17679
1608.34286,0.17688
1610.27133,0.17759
1612.19980,0.17981
1614.12827,0.18869
1616.05674,0.20185
1617.98521,0.20235
1619.91367,0.19810
1621.84214,0.20397
1623.77061,0.21136
1625.69908,0.20970
1627.62755,0.20567
1629.55602,0.20264
1631.48449,0.20202
1633.41295,0.20893
1635.34142,0.22237
1637.26989,0.21903
1639.19836,0.20592
1641.12683,0.20009
1643.05530,0.20281
1644.98377,0.21706
1646.91223,0.23310
1648.84070,0.22738
1650.76917,0.22251
1652.69764,0.23149
1654.62611,0.22493
1656.55458,0.20929
1658.48305,0.20531
1660.41152,0.21071
1662.33998,0.21333
1664.26845,0.20450
1666.19692,0.19996
1668.12539,0.20757
1670.05386,0.21578
1671.98233,0.21503
1673.91080,0.21238
1675.83926,0.20744
1677.76773,0.20275
1679.69620,0.20447
1681.62467,0.21399
1683.55314,0.22805
1685.48161,0.22870
1687.41008,0.21715
1689.33855,0.20625
1691.26701,0.20010
1693.19548,0.20537
1695.12395,0.22240
1697.05242,0.23584
1698.98089,0.23724
1700.90936,0.22803
1702.83783,0.21616
1704.76629,0.21131
1706.69476,0.20735
1708.62323,0.20219
1710.55170,0.19912
1712.48017,0.20074
1714.40864,0.21277
1716.33711,0.23070
1718.26558,0.22525
1720.19404,0.20648
1722.12251,0.19933
1724.05098,0.19902
1725.97945,0.19718
1727.90792,0.19568
1729.83639,0.19913
1731.76486,0.20628
1733.69332,0.20938
1735.62179,0.20292
1737.55026,0.20112
1739.47873,0.20569
1741.40720,0.20788
1743.33567,0.20704
1745.26414,0.20696
1747.19261,0.20787
1749.12107,0.20807
1751.04954,0.20298
1752.97801,0.19686
1754.90648,0.19624
1756.83495,0.19749
1758.76342,0.19710
1760.69189,0.19834
1762.62035,0.19964
1764.54882,0.19856
1766.47729,0.19959
1768.40576,0.20625
1770.33423,0.21785
1772.26270,0.22216
1774.19117,0.21119
1776.11964,0.20135
1778.04810,0.19773
1779.97657,0.19563
1781.90504,0.19313
1783.83351,0.19261
1785.76198,0.19353
1787.69045,0.19477
1789.61892,0.19802
1791.54738,0.20283
1793.47585,0.20330
1795.40432,0.19778
1797.33279,0.19315
1799.26126,0.19387
1801.18973,0.19486
1803.11820,0.19005
1805.04666,0.18688
1806.97513,0.18925
1808.90360,0.19270
1810.83207,0.19388
1812.76054,0.19162
1814.68901,0.18782
1816.61748,0.18871
1818.54595,0.20186
1820.47441,0.20888
1822.40288,0.19595
1824.33135,0.19045
1826.25982,0.20020
1828.18829,0.20561
1830.11676,0.20319
1832.04523,0.19466
1833.97369,0.18942
1835.90216,0.19044
1837.83063,0.19315
1839.75910,0.19632
1841.68757,0.20103
1843.61604,0.20364
1845.54451,0.19754
1847.47298,0.18949
1849.40144,0.18674
1851.32991,0.18844
1853.25838,0.19108
1855.18685,0.19121
1857.11532,0.19001
1859.04379,0.19110
1860.97226,0.19138
1862.90072,0.18880
1864.82919,0.19021
1866.75766,0.19876
1868.68613,0.20457
1870.61460,0.19880
1872.54307,0.19158
1874.47154,0.18905
1876.40001,0.18911
1878.32847,0.18838
1880.25694,0.18533
1882.18541,0.18418
1884.11388,0.18641
1886.04235,0.18822
1887.97082,0.18994
1889.89929,0.19140
1891.82775,0.19054
1893.75622,0.19031
1895.68469,0.19125
1897.61316,0.18976
1899.54163,0.18562
1901.47010,0.18303
1903.39857,0.18445
1905.32704,0.18765
1907.25550,0.19061
1909.18397,0.19157
1911.11244,0.18869
1913.04091,0.18371
1914.96938,0.18209
1916.89785,0.18675
1918.82632,0.19093
1920.75478,0.19083
1922.68325,0.19101
1924.61172,0.19163
1926.54019,0.19094
1928.46866,0.18875
1930.39713,0.18693
1932.32560,0.18861
1934.25407,0.19142
1936.18253,0.19047
1938.11100,0.18785
1940.03947,0.18942
1941.96794,0.19420
1943.89641,0.19497
1945.82488,0.19024
1947.75335,0.18466
1949.68181,0.18260
1951.61028,0.18521
1953.53875,0.18989
1955.46722,0.19352
1957.39569,0.19408
1959.32416,0.19181
1961.25263,0.18787
1963.18110,0.18517
1965.10956,0.18717
1967.03803,0.18986
1968.96650,0.18824
1970.89497,0.18631
1972.82344,0.18570
1974.75191,0.17880
1976.68038,0.16442
1978.60884,0.15844
1980.53731,0.17005
1982.46578,0.18440
1984.39425,0.18918
1986.32272,0.18985
1988.25119,0.19203
1990.17966,0.19463
1992.10812,0.19574
1994.03659,0.19655
1995.96506,0.19714
1997.89353,0.19418
1999.82200,0.18899
2001.75047,0.18657
2003.67894,0.18716
2005.60741,0.18745
2007.53587,0.18702
2009.46434,0.18686
2011.39281,0.18691
2013.32128,0.18846
2015.24975,0.18998
2017.17822,0.18822
2019.10669,0.18581
2021.03515,0.18610
2022.96362,0.18784
2024.89209,0.18876
2026.82056,0.18814
2028.74903,0.18723
2030.67750,0.18660
2032.60597,0.18693
2034.53444,0.18954
2036.46290,0.19088
2038.39137,0.18969
2040.31984,0.18972
2042.24831,0.18904
2044.17678,0.18668
2046.10525,0.18640
2048.03372,0.18695
2049.96218,0.18610
2051.89065,0.18624
2053.81912,0.18840
2055.74759,0.19024
2057.67606,0.19054
2059.60453,0.18962
2061.53300,0.18840
2063.46147,0.18807
2065.38993,0.18848
2067.31840,0.18876
2069.24687,0.18958
2071.17534,0.19244
2073.10381,0.19506
2075.03228,0.19367
2076.96075,0.19066
2078.88921,0.18996
2080.81768,0.18970
2082.74615,0.18799
2084.67462,0.18651
2086.60309,0.18614
2088.53156,0.18766
2090.46003,0.19002
2092.38850,0.18966
2094.31696,0.18815
2096.24543,0.18987
2098.17390,0.19313
2100.10237,0.19431
2102.03084,0.19463
2103.95931,0.19533
2105.88778,0.19427
2107.81624,0.19171
2109.74471,0.19172
2111.67318,0.19419
2113.60165,0.19479
2115.53012,0.19241
2117.45859,0.18937
2119.38706,0.18929
2121.31553,0.19195
2123.24399,0.19295
2125.17246,0.19238
2127.10093,0.19264
2129.02940,0.19175
2130.95787,0.18982
2132.88634,0.19292
2134.81481,0.19935
2136.74327,0.20112
2138.67174,0.19936
2140.60021,0.19837
2142.52868,0.19698
2144.45715,0.19434
2146.38562,0.19275
2148.31409,0.19321
2150.24255,0.19305
2152.17102,0.19059
2154.09949,0.18880
2156.02796,0.18929
2157.95643,0.19064
2159.88490,0.19346
2161.81337,0.19581
2163.74184,0.19395
2165.67030,0.19109
2167.59877,0.19083
2169.52724,0.19103
2171.45571,0.19237
2173.38418,0.19557
2175.31265,0.19648
2177.24112,0.19375
2179.16958,0.19115
2181.09805,0.19097
2183.02652,0.18986
2184.95499,0.18736
2186.88346,0.18794
2188.81193,0.19033
2190.74040,0.19007
2192.66887,0.18815
2194.59733,0.18765
2196.52580,0.18787
2198.45427,0.18760
2200.38274,0.18784
2202.31121,0.18898
2204.23968,0.19120
2206.16815,0.19354
2208.09661,0.19298
2210.02508,0.19104
2211.95355,0.19173
2213.88202,0.19343
2215.81049,0.19425
2217.73896,0.19462
2219.66743,0.19296
2221.59590,0.18988
2223.52436,0.18796
2225.45283,0.18779
2227.38130,0.19057
2229.30977,0.19427
2231.23824,0.19431
2233.16671,0.19210
2235.09518,0.18984
2237.02364,0.18813
2238.95211,0.18849
2240.88058,0.18954
2242.80905,0.19034
2244.73752,0.19166
2246.66599,0.19251
2248.59446,0.19161
2250.52293,0.18952
2252.45139,0.18905
2254.37986,0.19139
2256.30833,0.19395
2258.23680,0.19316
2260.16527,0.19082
2262.09374,0.19182
2264.02221,0.19356
2265.95067,0.19224
2267.87914,0.19003
2269.80761,0.18972
2271.73608,0.19025
2273.66455,0.18989
2275.59302,0.19028
2277.52149,0.19130
2279.44996,0.19101
2281.37842,0.18949
2283.30689,0.18826
2285.23536,0.18888
2287.16383,0.19037
2289.09230,0.19073
2291.02077,0.18865
2292.94924,0.18424
2294.87770,0.18324
2296.80617,0.18978
2298.73464,0.19646
2300.66311,0.19724
2302.59158,0.19564
2304.52005,0.19459
2306.44852,0.19518
2308.37699,0.19719
2310.30545,0.19783
2312.23392,0.19684
2314.16239,0.19647
2316.09086,0.19924
2318.01933,0.20478
2319.94780,0.20566
2321.87627,0.20270
2323.80473,0.20768
2325.73320,0.21660
2327.66167,0.22172
2329.59014,0.22495
2331.51861,0.21898
2333.44708,0.20324
2335.37555,0.19340
2337.30401,0.19328
2339.23248,0.20115
2341.16095,0.21303
2343.08942,0.21512
2345.01789,0.20776
2346.94636,0.20466
2348.87483,0.20719
2350.80330,0.21060
2352.73176,0.21365
2354.66023,0.21802
2356.58870,0.23473
2358.51717,0.26400
2360.44564,0.26431
2362.37411,0.23702
2364.30258,0.22901
2366.23104,0.23558
2368.15951,0.22670
2370.08798,0.21367
2372.01645,0.21216
2373.94492,0.20963
2375.87339,0.20362
2377.80186,0.19994
2379.73033,0.19629
2381.65879,0.19169
2383.58726,0.18848
2385.51573,0.18846
2387.44420,0.19020
2389.37267,0.19117
2391.30114,0.19133
2393.22961,0.19108
2395.15807,0.19082
2397.08654,0.19119
2399.01501,0.19142
2400.94348,0.19020
2402.87195,0.18884
2404.80042,0.18915
2406.72889,0.18951
2408.65736,0.18906
2410.58582,0.18883
2412.51429,0.18871
2414.44276,0.18791
2416.37123,0.18687
2418.29970,0.18799
2420.22817,0.19101
2422.15664,0.19244
2424.08510,0.19179
2426.01357,0.19150
2427.94204,0.19149
2429.87051,0.19162
2431.79898,0.19257
2433.72745,0.19228
2435.65592,0.19185
2437.58439,0.19441
2439.51285,0.19640
2441.44132,0.19452
2443.36979,0.19282
2445.29826,0.19315
2447.22673,0.19286
2449.15520,0.19409
2451.08367,0.20022
2453.01213,0.20552
2454.94060,0.20161
2456.86907,0.19426
2458.79754,0.19388
2460.72601,0.19585
2462.65448,0.19328
2464.58295,0.18969
2466.51142,0.18963
2468.43988,0.19167
2470.36835,0.19214
2472.29682,0.19094
2474.22529,0.19084
2476.15376,0.19156
2478.08223,0.19097
2480.01070,0.19031
2481.93916,0.19033
2483.86763,0.19020
2485.79610,0.19056
2487.72457,0.19195
2489.65304,0.19345
2491.58151,0.19466
2493.50998,0.19524
2495.43844,0.19422
2497.36691,0.19338
2499.29538,0.19285
2501.22385,0.19160
2503.15232,0.19148
2505.08079,0.19142
2507.00926,0.19153
2508.93773,0.19360
2510.86619,0.19398
2512.79466,0.19129
2514.72313,0.19023
2516.65160,0.19280
2518.58007,0.19561
2520.50854,0.19464
2522.43701,0.19158
2524.36547,0.19084
2526.29394,0.19249
2528.22241,0.19400
2530.15088,0.19410
2532.07935,0.19414
2534.00782,0.19355
2535.93629,0.19045
2537.86476,0.18744
2539.79322,0.18759
2541.72169,0.18969
2543.65016,0.19154
2545.57863,0.19451
2547.50710,0.19839
2549.43557,0.19905
2551.36404,0.19597
2553.29250,0.19242
2555.22097,0.19097
2557.14944,0.19184
2559.07791,0.19334
2561.00638,0.19266
2562.93485,0.18990
2564.86332,0.18952
2566.79179,0.19159
2568.72025,0.19135
2570.64872,0.19043
2572.57719,0.19155
2574.50566,0.19274
2576.43413,0.19518
2578.36260,0.19815
2580.29107,0.19856
2582.21953,0.19767
2584.14800,0.19682
2586.07647,0.19669
2588.00494,0.19753
2589.93341,0.19789
2591.86188,0.19664
2593.79035,0.19525
2595.71882,0.19601
2597.64728,0.19720
2599.57575,0.19653
2601.50422,0.19521
2603.43269,0.19601
2605.36116,0.19908
2607.28963,0.19886
2609.21810,0.19340
2611.14656,0.18996
2613.07503,0.19249
2615.00350,0.19641
2616.93197,0.19694
2618.86044,0.19423
2620.78891,0.19242
2622.71738,0.19398
2624.64585,0.19629
2626.57431,0.19722
2628.50278,0.19733
2630.43125,0.19599
2632.35972,0.19403
2634.28819,0.19486
2636.21666,0.19857
2638.14513,0.20099
2640.07359,0.19963
2642.00206,0.19555
2643.93053,0.19058
2645.85900,0.18710
2647.78747,0.18828
2649.71594,0.19367
2651.64441,0.19810
2653.57288,0.20004
2655.50134,0.20078
2657.42981,0.19891
2659.35828,0.19616
2661.28675,0.19603
2663.21522,0.19722
2665.14369,0.19643
2667.07216,0.19423
2669.00062,0.19365
2670.92909,0.19520
2672.85756,0.19681
2674.78603,0.19671
2676.71450,0.19614
2678.64297,0.19746
2680.57144,0.20082
2682.49990,0.20415
2684.42837,0.20393
2686.35684,0.20071
2688.28531,0.19903
2690.21378,0.19967
2692.14225,0.19890
2694.07072,0.19512
2695.99919,0.19349
2697.92765,0.19641
2699.85612,0.19835
2701.78459,0.19777
2703.71306,0.19899
2705.64153,0.20133
2707.57000,0.20054
2709.49847,0.19817
2711.42693,0.19766
2713.35540,0.19755
2715.28387,0.19712
2717.21234,0.19759
2719.14081,0.19756
2721.06928,0.19626
2722.99775,0.19626
2724.92622,0.19907
2726.85468,0.20157
2728.78315,0.20171
2730.71162,0.20120
2732.64009,0.20087
2734.56856,0.20170
2736.49703,0.20318
2738.42550,0.20325
2740.35396,0.20299
2742.28243,0.20316
2744.21090,0.20432
2746.13937,0.20603
2748.06784,0.20442
2749.99631,0.20137
2751.92478,0.20149
2753.85325,0.20190
2755.78171,0.20041
2757.71018,0.19869
2759.63865,0.19732
2761.56712,0.19720
2763.49559,0.19813
2765.42406,0.19808
2767.35253,0.19636
2769.28099,0.19669
2771.20946,0.20095
2773.13793,0.20287
2775.06640,0.20206
2776.99487,0.20498
2778.92334,0.20948
2780.85181,0.20953
2782.78028,0.20432
2784.70874,0.19869
2786.63721,0.19691
2788.56568,0.19684
2790.49415,0.19749
2792.42262,0.19992
2794.35109,0.20142
2796.27956,0.20039
2798.20802,0.19966
2800.13649,0.20142
2802.06496,0.20294
2803.99343,0.20250
2805.92190,0.20251
2807.85037,0.20396
2809.77884,0.20648
2811.70731,0.20792
2813.63577,0.20528
2815.56424,0.20224
2817.49271,0.20504
2819.42118,0.21075
2821.34965,0.21186
2823.27812,0.20946
2825.20659,0.20947
2827.13505,0.21066
2829.06352,0.20867
2830.99199,0.20665
2832.92046,0.20978
2834.84893,0.21432
2836.77740,0.21412
2838.70587,0.20985
2840.63433,0.20693
2842.56280,0.20768
2844.49127,0.20897
2846.41974,0.20995
2848.34821,0.21129
2850.27668,0.21168
2852.20515,0.21042
2854.13362,0.20898
2856.06208,0.21061
2857.99055,0.21246
2859.91902,0.20855
2861.84749,0.20308
2863.77596,0.20428
2865.70443,0.20923
2867.63290,0.21102
2869.56136,0.20990
2871.48983,0.20730
2873.41830,0.20578
2875.34677,0.20679
2877.27524,0.20560
2879.20371,0.20307
2881.13218,0.20461
2883.06065,0.20641
2884.98911,0.20376
2886.91758,0.20210
2888.84605,0.20540
2890.77452,0.20873
2892.70299,0.20762
2894.63146,0.20329
2896.55993,0.20177
2898.48839,0.20627
2900.41686,0.20951
2902.34533,0.20489
2904.27380,0.19679
2906.20227,0.19316
2908.13074,0.19617
2910.05921,0.19904
2911.98768,0.19724
2913.91614,0.19630
2915.84461,0.20021
2917.77308,0.20476
2919.70155,0.20524
2921.63002,0.20391
2923.55849,0.20222
2925.48696,0.19667
2927.41542,0.19333
2929.34389,0.20096
2931.27236,0.21144
2933.20083,0.21250
2935.12930,0.20475
2937.05777,0.19900
2938.98624,0.20360
2940.91471,0.21065
2942.84317,0.21045
2944.77164,0.20545
2946.70011,0.19979
2948.62858,0.19842
2950.55705,0.20357
2952.48552,0.21069
2954.41399,0.21275
2956.34245,0.20580
2958.27092,0.19909
2960.19939,0.20093
2962.12786,0.20644
2964.05633,0.21173
2965.98480,0.21278
2967.91327,0.20795
2969.84174,0.20534
2971.77020,0.20592
2973.69867,0.20517
2975.62714,0.20268
2977.55561,0.20064
2979.48408,0.20540
2981.41255,0.21354
2983.34102,0.21564
2985.26948,0.21086
2987.19795,0.20359
2989.12642,0.20202
2991.05489,0.20526
2992.98336,0.20498
2994.91183,0.20325
2996.84030,0.20442
2998.76877,0.20648
3000.69723,0.20851
3002.62570,0.21299
3004.55417,0.21893
3006.48264,0.22060
3008.41111,0.21495
3010.33958,0.20508
3012.26805,0.19239
3014.19651,0.17170
3016.12498,0.15201
3018.05345,0.15856
3019.98192,0.18935
3021.91039,0.21412
3023.83886,0.22020
3025.76733,0.21555
3027.69579,0.20873
3029.62426,0.20670
3031.55273,0.21158
3033.48120,0.21593
3035.40967,0.21316
3037.33814,0.20881
3039.26661,0.21100
3041.19508,0.21590
3043.12354,0.21783
3045.05201,0.21895
3046.98048,0.21854
3048.90895,0.21595
3050.83742,0.21438
3052.76589,0.21324
3054.69436,0.20975
3056.62282,0.20429
3058.55129,0.20315
3060.47976,0.20844
3062.40823,0.21302
3064.33670,0.21042
3066.26517,0.20208
3068.19364,0.19949
3070.12211,0.20722
3072.05057,0.21461
3073.97904,0.21288
3075.90751,0.20616
3077.83598,0.20461
3079.76445,0.20677
3081.69292,0.20600
3083.62139,0.20261
3085.54985,0.19926
3087.47832,0.19981
3089.40679,0.20461
3091.33526,0.20850
3093.26373,0.20596
3095.19220,0.20191
3097.12067,0.20426
3099.04914,0.20974
3100.97760,0.21295
3102.90607,0.20971
3104.83454,0.20487
3106.76301,0.20641
3108.69148,0.21017
3110.61995,0.20849
3112.54842,0.20014
3114.47688,0.19563
3116.40535,0.20195
3118.33382,0.21052
3120.26229,0.21249
3122.19076,0.21058
3124.11923,0.21172
3126.04770,0.21548
3127.97617,0.21736
3129.90463,0.21494
3131.83310,0.21245
3133.76157,0.21473
3135.69004,0.21716
3137.61851,0.21508
3139.54698,0.21138
3141.47545,0.20959
3143.40391,0.20941
3145.33238,0.21084
3147.26085,0.21355
3149.18932,0.21527
3151.11779,0.21501
3153.04626,0.21440
3154.97473,0.21462
3156.90320,0.21480
3158.83166,0.21722
3160.76013,0.22011
3162.68860,0.21670
3164.61707,0.21336
3166.54554,0.21834
3168.47401,0.22426
3170.40248,0.22627
3172.33094,0.22678
3174.25941,0.22493
3176.18788,0.22217
3178.11635,0.22133
3180.04482,0.22103
3181.97329,0.21777
3183.90176,0.21257
3185.83022,0.21019
3187.75869,0.20996
3189.68716,0.21113
3191.61563,0.21566
3193.54410,0.22003
3195.47257,0.21912
3197.40104,0.21338
3199.32951,0.20848
3201.25797,0.20778
3203.18644,0.20966
3205.11491,0.21396
3207.04338,0.21832
3208.97185,0.21770
3210.90032,0.21545
3212.82879,0.21697
3214.75725,0.21868
3216.68572,0.21671
3218.61419,0.21327
3220.54266,0.21218
3222.47113,0.21609
3224.39960,0.22227
3226.32807,0.22440
3228.25654,0.22407
3230.18500,0.22532
3232.11347,0.22411
3234.04194,0.22073
3235.97041,0.22153
3237.89888,0.22390
3239.82735,0.22133
3241.75582,0.21561
3243.68428,0.21139
3245.61275,0.20783
3247.54122,0.20454
3249.46969,0.20452
3251.39816,0.20703
3253.32663,0.21035
3255.25510,0.21394
3257.18357,0.21366
3259.11203,0.20976
3261.04050,0.20851
3262.96897,0.21002
3264.89744,0.21237
3266.82591,0.21518
3268.75438,0.21563
3270.68285,0.21457
3272.61131,0.21553
3274.53978,0.21794
3276.46825,0.21794
3278.39672,0.21371
3280.32519,0.21059
3282.25366,0.21086
3284.18213,0.21004
3286.11060,0.20923
3288.03906,0.20984
3289.96753,0.20976
3291.89600,0.20987
3293.82447,0.21130
3295.75294,0.21330
3297.68141,0.21343
3299.60988,0.21381
3301.53834,0.21622
3303.46681,0.21406
3305.39528,0.20767
3307.32375,0.20422
3309.25222,0.20497
3311.18069,0.20808
3313.10916,0.21057
3315.03763,0.21266
3316.96609,0.21662
3318.89456,0.21789
3320.82303,0.21231
3322.75150,0.20213
3324.67997,0.19668
3326.60844,0.20403
3328.53691,0.21304
3330.46537,0.21249
3332.39384,0.21160
3334.32231,0.21840
3336.25078,0.22620
3338.17925,0.22704
3340.10772,0.22301
3342.03619,0.21997
3343.96466,0.21919
3345.89312,0.21809
3347.82159,0.21583
3349.75006,0.21540
3351.67853,0.21791
3353.60700,0.21880
3355.53547,0.21713
3357.46394,0.21669
3359.39240,0.21335
3361.32087,0.20628
3363.24934,0.20405
3365.17781,0.20609
3367.10628,0.20876
3369.03475,0.21533
3370.96322,0.22363
3372.89168,0.22742
3374.82015,0.22497
3376.74862,0.21802
3378.67709,0.21310
3380.60556,0.21484
3382.53403,0.21873
3384.46250,0.21840
3386.39097,0.21346
3388.31943,0.20807
3390.24790,0.20594
3392.17637,0.20739
3394.10484,0.20764
3396.03331,0.20568
3397.96178,0.20773
3399.89025,0.21279
3401.81871,0.21056
3403.74718,0.20043
3405.67565,0.19651
3407.60412,0.20259
3409.53259,0.20874
3411.46106,0.21064
3413.38953,0.20807
3415.31800,0.20475
3417.24646,0.20699
3419.17493,0.21174
3421.10340,0.21152
3423.03187,0.20624
3424.96034,0.20072
3426.88881,0.19778
3428.81728,0.19825
3430.74574,0.20107
3432.67421,0.20254
3434.60268,0.20427
3436.53115,0.21238
3438.45962,0.22048
3440.38809,0.22014
3442.31656,0.21781
3444.24503,0.21631
3446.17349,0.21187
3448.10196,0.20643
3450.03043,0.20070
3451.95890,0.19567
3453.88737,0.19440
3455.81584,0.19576
3457.74431,0.19857
3459.67277,0.20357
3461.60124,0.20555
3463.52971,0.19989
3465.45818,0.19383
3467.38665,0.19113
3469.31512,0.18876
3471.24359,0.19000
3473.17206,0.19549
3475.10052,0.19833
3477.02899,0.19386
3478.95746,0.18634
3480.88593,0.18222
3482.81440,0.18159
3484.74287,0.18404
3486.67134,0.18748
3488.59980,0.18676
3490.52827,0.18268
3492.45674,0.18058
3494.38521,0.18074
3496.31368,0.18041
3498.24215,0.18307
3500.17062,0.18824
3502.09909,0.18942
3504.02755,0.18674
3505.95602,0.18375
3507.88449,0.18271
3509.81296,0.18347
3511.74143,0.18307
3513.66990,0.18184
3515.59837,0.18232
3517.52683,0.18314
3519.45530,0.18222
3521.38377,0.18145
3523.31224,0.18185
3525.24071,0.18365
3527.16918,0.18515
3529.09765,0.18134
3531.02611,0.17541
3532.95458,0.17207
3534.88305,0.17091
3536.81152,0.17244
3538.73999,0.17263
3540.66846,0.17050
3542.59693,0.17427
3544.52540,0.18413
3546.45386,0.18735
3548.38233,0.17907
3550.31080,0.17061
3552.23927,0.16827
3554.16774,0.16827
3556.09621,0.17030
3558.02468,0.17419
3559.95314,0.17404
3561.88161,0.17177
3563.81008,0.17563
3565.73855,0.18452
3567.66702,0.18528
3569.59549,0.17591
3571.52396,0.17010
3573.45243,0.16837
3575.38089,0.16760
3577.30936,0.16867
3579.23783,0.16740
3581.16630,0.16137
3583.09477,0.15707
3585.02324,0.15769
3586.95171,0.15802
3588.88017,0.15650
3590.80864,0.16012
3592.73711,0.16847
3594.66558,0.17441
3596.59405,0.17040
3598.52252,0.16139
3600.45099,0.15588
3602.37946,0.15286
3604.30792,0.15154
3606.23639,0.15500
3608.16486,0.16055
3610.09333,0.16461
3612.02180,0.16759
3613.95027,0.16720
3615.87874,0.16533
3617.80720,0.16303
3619.73567,0.15615
3621.66414,0.14815
3623.59261,0.14517
3625.52108,0.15015
3627.44955,0.16476
3629.37802,0.17529
3631.30649,0.16691
3633.23495,0.15673
3635.16342,0.14979
3637.09189,0.14667
3639.02036,0.14683
3640.94883,0.14660
3642.87730,0.14879
3644.80577,0.15643
3646.73423,0.16708
3648.66270,0.17690
3650.59117,0.17475
3652.51964,0.16020
3654.44811,0.14590
3656.37658,0.13606
3658.30505,0.13062
3660.23352,0.13142
3662.16198,0.13614
3664.09045,0.13743
3666.01892,0.13835
3667.94739,0.14741
3669.87586,0.15900
3671.80433,0.16266
3673.73280,0.17080
3675.66126,0.17679
3677.58973,0.16044
3679.51820,0.14286
3681.44667,0.13609
3683.37514,0.13786
3685.30361,0.14226
3687.23208,0.14793
3689.16055,0.15125
3691.08901,0.13931
3693.01748,0.12526
3694.94595,0.12310
3696.87442,0.12594
3698.80289,0.12699
3700.73136,0.12882
3702.65983,0.13137
3704.58829,0.13132
3706.51676,0.13236
3708.44523,0.14058
3710.37370,0.15335
3712.30217,0.15337
3714.23064,0.14239
3716.15911,0.13794
3718.08757,0.14084
3720.01604,0.14406
3721.94451,0.14239
3723.87298,0.13460
3725.80145,0.12728
3727.72992,0.12745
3729.65839,0.13351
3731.58686,0.14327
3733.51532,0.15346
3735.44379,0.15381
3737.37226,0.14378
3739.30073,0.13902
3741.22920,0.14210
3743.15767,0.15072
3745.08614,0.15978
3747.01460,0.16188
3748.94307,0.16614
3750.87154,0.16837
3752.80001,0.15432
3754.72848,0.14223
3756.65695,0.14087
3758.58542,0.14335
3760.51389,0.14373
3762.44235,0.14311
3764.37082,0.14109
3766.29929,0.13742
3768.22776,0.13385
3770.15623,0.12763
3772.08470,0.12014
3774.01317,0.11928
3775.94163,0.12443
3777.87010,0.13149
3779.79857,0.13706
3781.72704,0.13635
3783.65551,0.13301
3785.58398,0.13096
3787.51245,0.12769
3789.44092,0.12348
3791.36938,0.12224
3793.29785,0.12574
3795.22632,0.13196
3797.15479,0.13708
3799.08326,0.14278
3801.01173,0.14966
3802.94020,0.14777
3804.86866,0.14527
3806.79713,0.14610
3808.72560,0.13928
3810.65407,0.13100
3812.58254,0.13115
3814.51101,0.13941
3816.43948,0.14532
3818.36795,0.14320
3820.29641,0.13843
3822.22488,0.12883
3824.15335,0.12302
3826.08182,0.12285
3828.01029,0.12149
3829.93876,0.12104
3831.86723,0.12693
3833.79569,0.13509
3835.72416,0.14454
3837.65263,0.15461
3839.58110,0.15003
3841.50957,0.13549
3843.43804,0.12615
3845.36651,0.12238
3847.29498,0.12140
3849.22344,0.12664
3851.15191,0.14375
3853.08038,0.16548
3855.00885,0.15669
3856.93732,0.13658
3858.86579,0.12860
3860.79426,0.13411
3862.72272,0.14614
3864.65119,0.14713
3866.57966,0.13896
3868.50813,0.13806
3870.43660,0.13992
3872.36507,0.13419
3874.29354,0.12584
3876.22200,0.12406
3878.15047,0.13077
3880.07894,0.13546
3882.00741,0.12760
3883.93588,0.11910
3885.86435,0.11848
3887.79282,0.11915
3889.72129,0.12087
3891.64975,0.12772
3893.57822,0.12836
3895.50669,0.12050
3897.43516,0.11646
3899.36363,0.12055
3901.29210,0.12914
3903.22057,0.13575
3905.14903,0.13113
3907.07750,0.12111
3909.00597,0.11735
3910.93444,0.11627
3912.86291,0.11203
3914.79138,0.10950
3916.71985,0.11324
3918.64832,0.11936
3920.57678,0.12572
3922.50525,0.13276
3924.43372,0.13423
3926.36219,0.12900
3928.29066,0.12952
3930.21913,0.13672
3932.14760,0.13680
3934.07606,0.12923
3936.00453,0.12447
3937.93300,0.12228
3939.86147,0.12270
3941.78994,0.12619
3943.71841,0.12470
3945.64688,0.11747
3947.57535,0.11257
3949.50381,0.11116
3951.43228,0.11142
3953.36075,0.11320
3955.28922,0.11371
3957.21769,0.11258
3959.14616,0.11329
3961.07463,0.11470
3963.00309,0.11460
3964.93156,0.11378
3966.86003,0.11149
3968.78850,0.10848
3970.71697,0.10881
3972.64544,0.11043
3974.57391,0.10831
3976.50238,0.10515
3978.43084,0.10613
3980.35931,0.11063
3982.28778,0.11417
3984.21625,0.11399
3986.14472,0.11057
3988.07319,0.10986
3990.00166,0.11700
3991.93012,0.12315
3993.85859,0.11757
3995.78706,0.10744
3997.71553,0.10410
3999.64400,0.10401
4001.57247,0.10113
4003.50094,0.09721
4005.42941,0.09528
4007.35787,0.09720
4009.28634,0.10147
4011.21481,0.10353
4013.14328,0.10226
4015.07175,0.10051
4017.00022,0.10078
4018.92869,0.10275
4020.85715,0.10383
4022.78562,0.10486
4024.71409,0.10782
4026.64256,0.11084
4028.57103,0.11268
4030.49950,0.11101
4032.42797,0.10620
4034.35644,0.10358
4036.28490,0.10051
4038.21337,0.09527
4040.14184,0.09437
4042.07031,0.09682
4043.99878,0.09722
4045.92725,0.09448
4047.85572,0.09101
4049.78418,0.09157
4051.71265,0.09550
4053.64112,0.09775
4055.56959,0.09837
4057.49806,0.09844
4059.42653,0.09618
4061.35500,0.09424
4063.28346,0.09508
4065.21193,0.09860
4067.14040,0.10518
4069.06887,0.10805
4070.99734,0.10208
4072.92581,0.09120
4074.85428,0.08385
4076.78275,0.08855
4078.71121,0.09777
4080.63968,0.09727
4082.56815,0.09086
4084.49662,0.08878
4086.42509,0.09085
4088.35356,0.09284
4090.28203,0.09395
4092.21049,0.09321
4094.13896,0.09003
4096.06743,0.08817
4097.99590,0.08867
4099.92437,0.08759
4101.85284,0.08664
4103.78131,0.08935
4105.70978,0.09016
4107.63824,0.08689
4109.56671,0.08690
4111.49518,0.09013
4113.42365,0.09159
4115.35212,0.09340
4117.28059,0.09639
4119.20906,0.09484
4121.13752,0.08823
4123.06599,0.08162
4124.99446,0.07536
4126.92293,0.07266
4128.85140,0.07831
4130.77987,0.08333
4132.70834,0.08257
4134.63681,0.08473
4136.56527,0.08783
4138.49374,0.08543
4140.42221,0.08412
4142.35068,0.08894
4144.27915,0.09405
4146.20762,0.09218
4148.13609,0.08659
4150.06455,0.08424
4151.99302,0.08455
4153.92149,0.08674
4155.84996,0.08862
4157.77843,0.08540
4159.70690,0.08202
4161.63537,0.08544
4163.56384,0.08955
4165.49230,0.08883
4167.42077,0.08688
4169.34924,0.08655
4171.27771,0.08723
4173.20618,0.08715
4175.13465,0.08753
4177.06312,0.08758
4178.99158,0.08149
4180.92005,0.06948
4182.84852,0.06157
4184.77699,0.06682
4186.70546,0.07851
4188.63393,0.08195
4190.56240,0.07804
4192.49087,0.07729
4194.41933,0.08044
4196.34780,0.08441
4198.27627,0.08397
4200.20474,0.07716
4202.13321,0.07588
4204.06168,0.08123
4205.99015,0.08396
4207.91861,0.08578
4209.84708,0.08455
4211.77555,0.07728
4213.70402,0.07027
4215.63249,0.06548
4217.56096,0.06338
4219.48943,0.06540
4221.41789,0.06877
4223.34636,0.07459
4225.27483,0.08051
4227.20330,0.07756
4229.13177,0.06993
4231.06024,0.06708
4232.98871,0.06786
4234.91718,0.06872
4236.84564,0.06764
4238.77411,0.06454
4240.70258,0.06367
4242.63105,0.06820
4244.55952,0.07236
4246.48799,0.07128
4248.41646,0.06916
4250.34492,0.06761
4252.27339,0.06756
4254.20186,0.07175
4256.13033,0.07671
4258.05880,0.07658
4259.98727,0.07275
4261.91574,0.06922
4263.84421,0.06640
4265.77267,0.06906
4267.70114,0.07300
4269.62961,0.06881
4271.55808,0.06524
4273.48655,0.06791
4275.41502,0.06878
4277.34349,0.06254
4279.27195,0.05273
4281.20042,0.04899
4283.12889,0.05485
4285.05736,0.06209
4286.98583,0.06344
4288.91430,0.06053
4290.84277,0.05846
4292.77124,0.06011
4294.69970,0.06188
4296.62817,0.06115
4298.55664,0.06325
4300.48511,0.06904
4302.41358,0.06964
4304.34205,0.06103
4306.27052,0.05507
4308.19898,0.05951
4310.12745,0.06007
4312.05592,0.05116
4313.98439,0.04689
4315.91286,0.04861
4317.84133,0.04735
4319.76980,0.04464
4321.69827,0.04778
4323.62673,0.05547
4325.55520,0.06037
4327.48367,0.06342
4329.41214,0.06928
4331.34061,0.07422
4333.26908,0.07067
4335.19755,0.06308
4337.12601,0.06295
4339.05448,0.06722
4340.98295,0.06390
4342.91142,0.05412
4344.83989,0.04923
4346.76836,0.04742
4348.69683,0.04003
4350.62530,0.03215
4352.55376,0.03147
4354.48223,0.03528
4356.41070,0.03895
4358.33917,0.04093
4360.26764,0.04079
4362.19611,0.04166
4364.12458,0.04544
4366.05304,0.04648
4367.98151,0.04065
4369.90998,0.03479
4371.83845,0.03696
4373.76692,0.04463
4375.69539,0.05010
4377.62386,0.04861
4379.55232,0.04121
4381.48079,0.03663
4383.40926,0.04018
4385.33773,0.04357
4387.26620,0.04282
4389.19467,0.04369
4391.12314,0.04576
4393.05161,0.04519
4394.98007,0.04433
4396.90854,0.04886
4398.83701,0.05111
4400.76548,0.04175
4402.69395,0.03537
4404.62242,0.04287
4406.55089,0.05289
4408.47935,0.05427
4410.40782,0.04596
4412.33629,0.03531
4414.26476,0.03072
4416.19323,0.03140
4418.12170,0.03134
4420.05017,0.03426
4421.97864,0.04111
4423.90710,0.04017
4425.83557,0.03217
4427.76404,0.02891
4429.69251,0.03115
4431.62098,0.03532
4433.54945,0.04236
4435.47792,0.04696
4437.40638,0.04562
4439.33485,0.04470
4441.26332,0.04340
4443.19179,0.03609
4445.12026,0.02589
4447.04873,0.02316
4448.97720,0.02978
4450.90567,0.03442
4452.83413,0.02845
4454.76260,0.01903
4456.69107,0.01685
4458.61954,0.01779
4460.54801,0.01724
4462.47648,0.01726
4464.40495,0.01745
4466.33341,0.01846
4468.26188,0.01915
4470.19035,0.01892
4472.11882,0.02236
4474.04729,0.02806
4475.97576,0.02934
4477.90423,0.02821
4479.83270,0.02605
4481.76116,0.02326
4483.68963,0.02372
4485.61810,0.02149
4487.54657,0.01428
4489.47504,0.01129
4491.40351,0.01728
4493.33198,0.02251
4495.26044,0.02122
4497.18891,0.02354
4499.11738,0.02515
4501.04585,0.01529
4502.97432,0.00387
4504.90279,0.00590
4506.83126,0.02063
4508.75973,0.03172
4510.68819,0.03224
4512.61666,0.03089
4514.54513,0.02999
4516.47360,0.02645
4518.40207,0.02270
4520.33054,0.02316
4522.25901,0.02910
4524.18747,0.03295
4526.11594,0.03009
4528.04441,0.02680
4529.97288,0.02676
4531.90135,0.03159
4533.82982,0.03673
4535.75829,0.03247
4537.68676,0.02273
4539.61522,0.01711
4541.54369,0.01624
4543.47216,0.01928
4545.40063,0.02604
4547.32910,0.02545
4549.25757,0.00746
4551.18604,-0.00989
4553.11450,-0.01062
4555.04297,-0.00788
4556.97144,-0.00278
4558.89991,0.01164
4560.82838,0.01981
4562.75685,0.01528
4564.68532,0.01051
4566.61378,0.01249
4568.54225,0.01914
4570.47072,0.02019
4572.39919,0.01016
4574.32766,0.00052
4576.25613,-0.00075
4578.18460,0.00238
4580.11307,0.00443
4582.04153,0.00628
4583.97000,0.01615
4585.89847,0.02855
4587.82694,0.02851
4589.75541,0.02130
4591.68388,0.01909
4593.61235,0.02116
4595.54081,0.02684
4597.46928,0.03300
4599.39775,0.03155
4601.32622,0.02476
4603.25469,0.01646
4605.18316,0.00426
4607.11163,-0.00955
4609.04010,-0.01697
4610.96856,-0.01227
4612.89703,0.00137
4614.82550,0.01383
4616.75397,0.01823
4618.68244,0.01723
4620.61091,0.01646
4622.53938,0.01922
4624.46784,0.02409
4626.39631,0.02543
4628.32478,0.02354
4630.25325,0.02192
4632.18172,0.02196
4634.11019,0.02146
4636.03866,0.01308
4637.96713,-0.00096
4639.89559,-0.00730
4641.82406,-0.00143
4643.75253,0.01000
4645.68100,0.01764
4647.60947,0.01707
4649.53794,0.01388
4651.46641,0.01223
4653.39487,0.01364
4655.32334,0.01812
4657.25181,0.01479
4659.18028,0.00357
4661.10875,0.00097
4663.03722,0.00867
4664.96569,0.01902
4666.89416,0.02439
4668.82262,0.02118
4670.75109,0.01767
4672.67956,0.01475
4674.60803,0.01080
4676.53650,0.00708
4678.46497,0.00478
4680.39344,0.01209
4682.32190,0.01895
4684.25037,0.01256
4686.17884,0.00626
4688.10731,0.00621
4690.03578,0.00129
4691.96425,-0.00547
4693.89272,-0.00095
4695.82119,0.00916
4697.74965,0.01191
4699.67812,0.00856
4701.60659,0.00828
4703.53506,0.01148
4705.46353,0.01046
4707.39200,0.00494
4709.32047,0.00076
4711.24893,0.00108
4713.17740,0.00262
4715.10587,0.00043
4717.03434,-0.00476
4718.96281,-0.00633
4720.89128,-0.00268
4722.81975,-0.00068
4724.74821,-0.00388
4726.67668,-0.00722
4728.60515,-0.00040
4730.53362,0.01284
4732.46209,0.01779
4734.39056,0.01655
4736.31903,0.02042
4738.24750,0.02290
4740.17596,0.01084
4742.10443,-0.00277
4744.03290,0.00050
4745.96137,0.01007
4747.88984,0.00983
4749.81831,0.00207
4751.74678,-0.00237
4753.67524,0.00389
4755.60371,0.01281
4757.53218,0.00819
4759.46065,0.00045
4761.38912,0.00840
4763.31759,0.01741
4765.24606,0.01170
4767.17453,0.00593
4769.10299,0.01119
4771.03146,0.02152
4772.95993,0.03069
4774.88840,0.03026
4776.81687,0.01866
4778.74534,0.00682
4780.67381,0.00226
4782.60227,0.00693
4784.53074,0.02055
4786.45921,0.03453
4788.38768,0.03916
4790.31615,0.03053
4792.24462,0.01472
4794.17309,0.00745
4796.10156,0.01037
4798.03002,0.01372
4799.95849,0.02066
4801.88696,0.03304
4803.81543,0.03680
4805.74390,0.02242
4807.67237,0.00192
4809.60084,-0.00516
4811.52930,0.00370
4813.45777,0.01088
4815.38624,0.00897
4817.31471,0.00545
4819.24318,0.00408
4821.17165,0.00794
4823.10012,0.01232
4825.02859,0.00764
4826.95705,0.00516
4828.88552,0.01762
4830.81399,0.02702
4832.74246,0.02277
4834.67093,0.01955
4836.59940,0.02320
4838.52787,0.02756
4840.45633,0.02605
4842.38480,0.02004
4844.31327,0.01679
4846.24174,0.01892
4848.17021,0.02177
4850.09868,0.02066
4852.02715,0.01631
4853.95562,0.00784
4855.88408,0.00019
4857.81255,0.00276
4859.74102,0.01296
4861.66949,0.01715
4863.59796,0.01113
4865.52643,0.00585
4867.45490,0.00199
4869.38336,-0.00445
4871.31183,-0.00121
4873.24030,0.01381
4875.16877,0.02565
4877.09724,0.02723
4879.02571,0.01662
4880.95418,0.00553
4882.88265,0.00544
4884.81111,0.00470
4886.73958,0.00161
4888.66805,0.00889
4890.59652,0.02503
4892.52499,0.02865
4894.45346,0.01437
4896.38193,0.00283
4898.31039,0.00242
4900.23886,0.00295
4902.16733,0.00259
4904.09580,0.01488
4906.02427,0.03510
4907.95274,0.04235
4909.88121,0.02897
4911.80967,0.00022
4913.73814,-0.01899
4915.66661,-0.01139
4917.59508,0.00339
4919.52355,0.00414
4921.45202,-0.00268
4923.38049,-0.00825
4925.30896,-0.01159
4927.23742,-0.01060
4929.16589,-0.00531
4931.09436,0.00464
4933.02283,0.01074
4934.95130,0.00451
4936.87977,-0.00292
4938.80824,0.00042
4940.73670,0.00800
4942.66517,0.00981
4944.59364,0.00224
4946.52211,-0.00417
4948.45058,0.01273
4950.37905,0.03302
4952.30752,0.02269
4954.23599,0.00048
4956.16445,-0.00921
4958.09292,-0.00771
4960.02139,0.00599
4961.94986,0.02264
4963.87833,0.02929
4965.80680,0.03194
4967.73527,0.03020
4969.66373,0.02236
4971.59220,0.01552
4973.52067,0.01255
4975.44914,0.01761
4977.37761,0.01932
4979.30608,0.00826
4981.23455,-0.00429
4983.16302,-0.01415
4985.09148,-0.00833
4987.01995,0.02096
4988.94842,0.04643
4990.87689,0.05061
4992.80536,0.04843
4994.73383,0.04523
4996.66230,0.02830
4998.59076,0.00793
5000.51923,0.00337
5002.44770,0.00677
5004.37617,0.00635
5006.30464,0.01216
5008.23311,0.03098
5010.16158,0.03655
5012.09005,0.02019
5014.01851,0.01136
5015.94698,0.01055
5017.87545,0.00565
5019.80392,0.00551
5021.73239,0.01020
5023.66086,0.01216
5025.58933,0.01259
5027.51779,0.01393
5029.44626,0.01411
5031.37473,0.01904
5033.30320,0.03081
5035.23167,0.03382
5037.16014,0.02410
5039.08861,0.01832
5041.01708,0.02403
5042.94554,0.02205
5044.87401,0.00364
5046.80248,-0.00421
5048.73095,0.01036
5050.65942,0.02644
5052.58789,0.03719
5054.51636,0.04473
5056.44482,0.04265
5058.37329,0.03590
5060.30176,0.03353
5062.23023,0.03882
5064.15870,0.04693
5066.08717,0.04230
5068.01564,0.02676
5069.94410,0.01692
5071.87257,0.02051
5073.80104,0.03169
5075.72951,0.03500
5077.65798,0.03123
5079.58645,0.03461
5081.51492,0.03870
5083.44339,0.03236
5085.37185,0.02653
5087.30032,0.03005
5089.22879,0.03492
5091.15726,0.03216
5093.08573,0.02559
5095.01420,0.02629
5096.94267,0.02909
5098.87113,0.02140
5100.79960,0.01108
5102.72807,0.01598
5104.65654,0.02989
5106.58501,0.02761
5108.51348,0.01130
5110.44195,0.00757
5112.37042,0.02379
5114.29888,0.04289
5116.22735,0.04274
5118.15582,0.02475
5120.08429,0.01399
5122.01276,0.01234
5123.94123,0.00999
5125.86970,0.01465
5127.79816,0.02262
5129.72663,0.02942
5131.65510,0.03927
5133.58357,0.04047
5135.51204,0.03080
5137.44051,0.02146
5139.36898,0.01232
5141.29745,0.00540
5143.22591,0.00429
5145.15438,0.01231
5147.08285,0.03258
5149.01132,0.04884
5150.93979,0.05052
5152.86826,0.04556
5154.79673,0.03812
5156.72519,0.03731
5158.65366,0.04371
5160.58213,0.04386
5162.51060,0.04289
5164.43907,0.04844
5166.36754,0.05623
5168.29601,0.06031
5170.22448,0.05480
5172.15294,0.04953
5174.08141,0.05199
5176.00988,0.05462
5177.93835,0.05349
5179.86682,0.04343
5181.79529,0.02531
5183.72376,0.00858
5185.65222,0.00822
5187.58069,0.02472
5189.50916,0.02936
5191.43763,0.02347
5193.36610,0.02558
5195.29457,0.02859
5197.22304,0.03681
5199.15151,0.04948
5201.07997,0.05080
5203.00844,0.04644
5204.93691,0.04634
5206.86538,0.05895
5208.79385,0.07771
5210.72232,0.07876
5212.65079,0.06015
5214.57925,0.04540
5216.50772,0.05377
5218.43619,0.06386
5220.36466,0.04755
5222.29313,0.02645
5224.22160,0.02525
5226.15007,0.03860
5228.07854,0.04865
5230.00700,0.04428
5231.93547,0.04209
5233.86394,0.05785
5235.79241,0.06276
5237.72088,0.03797
5239.64935,0.02212
5241.57782,0.03649
5243.50628,0.04517
5245.43475,0.04579
5247.36322,0.06300
5249.29169,0.06096
5251.22016,0.03025
5253.14863,0.02013
5255.07710,0.03684
5257.00556,0.04885
5258.93403,0.04918
5260.86250,0.05157
5262.79097,0.06023
5264.71944,0.06091
5266.64791,0.03984
5268.57638,0.01904
5270.50485,0.01917
5272.43331,0.01892
5274.36178,0.01039
5276.29025,0.01603
5278.21872,0.03744
5280.14719,0.05619
5282.07566,0.06365
5284.00413,0.06533
5285.93259,0.06647
5287.86106,0.06692
5289.78953,0.06741
5291.71800,0.06637
5293.64647,0.06150
5295.57494,0.05686
5297.50341,0.04543
5299.43188,0.01779
5301.36034,-0.00349
5303.28881,0.00821
5305.21728,0.03771
5307.14575,0.05425
5309.07422,0.05917
5311.00269,0.06023
5312.93116,0.04613
5314.85962,0.03984
5316.78809,0.05776
5318.71656,0.05723
5320.64503,0.03203
5322.57350,0.01933
5324.50197,0.01900
5326.43044,0.01887
5328.35891,0.02537
5330.28737,0.03558
5332.21584,0.04351
5334.14431,0.04383
5336.07278,0.03452
5338.00125,0.02536
5339.92972,0.02899
5341.85819,0.04634
5343.78665,0.07426
5345.71512,0.10423
5347.64359,0.11711
5349.57206,0.10680
5351.50053,0.07868
5353.42900,0.06008
5355.35747,0.06582
5357.28594,0.06446
5359.21440,0.05462
5361.14287,0.05025
5363.07134,0.04578
5364.99981,0.04183
5366.92828,0.03770
5368.85675,0.03361
5370.78522,0.04039
5372.71368,0.04597
5374.64215,0.02193
5376.57062,0.00009
5378.49909,0.02789
5380.42756,0.05915
5382.35603,0.06906
5384.28450,0.08076
5386.21297,0.08263
5388.14143,0.05306
5390.06990,0.01205
5391.99837,-0.00703
5393.92684,0.01481
5395.85531,0.04150
5397.78378,0.04371
5399.71225,0.03957
5401.64071,0.03551
5403.56918,0.03085
5405.49765,0.03496
5407.42612,0.04580
5409.35459,0.05338
5411.28306,0.04985
5413.21153,0.03250
5415.13999,0.02644
5417.06846,0.04231
5418.99693,0.06203
5420.92540,0.07424
5422.85387,0.06824
5424.78234,0.04681
5426.71081,0.03204
5428.63928,0.03099
5430.56774,0.03276
5432.49621,0.03480
5434.42468,0.05280
5436.35315,0.07347
5438.28162,0.05824
5440.21009,0.03104
5442.13856,0.03084
5444.06702,0.04372
5445.99549,0.05540
5447.92396,0.06529
5449.85243,0.05696
5451.78090,0.03234
5453.70937,0.03016
5455.63784,0.06077
5457.56631,0.09715
5459.49477,0.12152
5461.42324,0.11775
5463.35171,0.09433
5465.28018,0.08398
5467.20865,0.07963
5469.13712,0.06593
5471.06559,0.05717
5472.99405,0.05010
5474.92252,0.03173
5476.85099,0.01788
5478.77946,0.02096
5480.70793,0.03916
5482.63640,0.06787
5484.56487,0.09394
5486.49334,0.09687
5488.42180,0.07404
5490.35027,0.06140
5492.27874,0.07614
5494.20721,0.09222
5496.13568,0.09180
5498.06415,0.07258
5499.99262,0.04704
5501.92108,0.04405
5503.84955,0.06328
5505.77802,0.07831
5507.70649,0.07615
5509.63496,0.07354
5511.56343,0.08691
5513.49190,0.10375
5515.42037,0.10383
5517.34883,0.07838
5519.27730,0.04054
5521.20577,0.02026
5523.13424,0.02629
5525.06271,0.04465
5526.99118,0.06301
5528.91965,0.06892
5530.84811,0.06105
5532.77658,0.05738
5534.70505,0.06403
5536.63352,0.06766
5538.56199,0.05393
5540.49046,0.03689
5542.41893,0.03209
5544.34740,0.02495
5546.27586,0.02022
5548.20433,0.03102
5550.13280,0.04716
5552.06127,0.05937
5553.98974,0.06361
5555.91821,0.06932
5557.84668,0.08019
5559.77514,0.09209
5561.70361,0.10502
5563.63208,0.10453
5565.56055,0.09603
5567.48902,0.09276
5569.41749,0.08828
5571.34596,0.08210
5573.27443,0.06503
5575.20289,0.04646
5577.13136,0.05601
5579.05983,0.07412
5580.98830,0.06770
5582.91677,0.05909
5584.84524,0.07488
5586.77371,0.08276
5588.70217,0.05372
5590.63064,0.02427
5592.55911,0.03994
5594.48758,0.07799
5596.41605,0.08669
5598.34452,0.07161
5600.27299,0.07144
5602.20145,0.07775
5604.12992,0.06877
5606.05839,0.06382
5607.98686,0.08403
5609.91533,0.10339
5611.84380,0.08839
5613.77227,0.06732
5615.70074,0.07974
5617.62920,0.10643
5619.55767,0.10753
5621.48614,0.08735
5623.41461,0.07448
5625.34308,0.07173
5627.27155,0.08481
5629.20002,0.10520
5631.12848,0.09776
5633.05695,0.07039
5634.98542,0.06482
5636.91389,0.07791
5638.84236,0.07850
5640.77083,0.07554
5642.69930,0.07540
5644.62777,0.06913
5646.55623,0.05825
5648.48470,0.05643
5650.41317,0.07766
5652.34164,0.09940
5654.27011,0.10178
5656.19858,0.08724
5658.12705,0.05990
5660.05551,0.05704
5661.98398,0.08497
5663.91245,0.08310
5665.84092,0.05610
5667.76939,0.05578
5669.69786,0.07111
5671.62633,0.07720
5673.55480,0.07958
5675.48326,0.08627
5677.41173,0.09439
5679.34020,0.08699
5681.26867,0.06016
5683.19714,0.04380
5685.12561,0.05809
5687.05408,0.08295
5688.98254,0.09094
5690.91101,0.07663
5692.83948,0.05452
5694.76795,0.04590
5696.69642,0.04846
5698.62489,0.04374
5700.55336,0.04199
5702.48183,0.05413
5704.41029,0.06817
5706.33876,0.08384
5708.26723,0.10763
5710.19570,0.12442
5712.12417,0.12332
5714.05264,0.10616
5715.98111,0.07584
5717.90957,0.06029
5719.83804,0.06386
5721.76651,0.06656
5723.69498,0.08003
5725.62345,0.10404
5727.55192,0.11120
5729.48039,0.09334
5731.40886,0.08309
5733.33732,0.08882
5735.26579,0.08718
5737.19426,0.08033
5739.12273,0.07647
5741.05120,0.07506
5742.97967,0.08528
5744.90814,0.10581
5746.83660,0.12204
5748.76507,0.12355
5750.69354,0.10923
5752.62201,0.08887
5754.55048,0.06803
5756.47895,0.05722
5758.40742,0.07088
5760.33588,0.08482
5762.26435,0.08165
5764.19282,0.08686
5766.12129,0.09911
5768.04976,0.09617
5769.97823,0.07878
5771.90670,0.05231
5773.83517,0.04370
5775.76363,0.07474
5777.69210,0.09953
5779.62057,0.07772
5781.54904,0.04506
5783.47751,0.05092
5785.40598,0.11140
5787.33445,0.17556
5789.26291,0.16895
5791.19138,0.13412
5793.11985,0.14340
5795.04832,0.16688
5796.97679,0.17790
5798.90526,0.17912
5800.83373,0.15404
5802.76220,0.11900
5804.69066,0.10763
5806.61913,0.10301
5808.54760,0.08690
5810.47607,0.07954
5812.40454,0.08626
5814.33301,0.09204
5816.26148,0.09780
5818.18994,0.10517
5820.11841,0.09561
5822.04688,0.07963
5823.97535,0.08929
5825.90382,0.12015
5827.83229,0.14586
5829.76076,0.13712
5831.68923,0.10970
5833.61769,0.10495
5835.54616,0.12071
5837.47463,0.12402
5839.40310,0.10965
5841.33157,0.10213
5843.26004,0.08775
5845.18851,0.05834
5847.11697,0.05539
5849.04544,0.08446
5850.97391,0.10156
5852.90238,0.08353
5854.83085,0.05232
5856.75932,0.05396
5858.68779,0.08860
5860.61626,0.09729
5862.54472,0.07225
5864.47319,0.06667
5866.40166,0.08516
5868.33013,0.09058
5870.25860,0.08148
5872.18707,0.06210
5874.11554,0.03443
5876.04400,0.05985
5877.97247,0.14194
5879.90094,0.15944
5881.82941,0.10367
5883.75788,0.08529
5885.68635,0.11727
5887.61482,0.14815
5889.54329,0.15335
5891.47175,0.14063
5893.40022,0.14097
5895.32869,0.14800
5897.25716,0.13952
5899.18563,0.13405
5901.11410,0.13449
5903.04257,0.11456
5904.97103,0.07409
5906.89950,0.04667
5908.82797,0.05827
5910.75644,0.07525
5912.68491,0.07062
5914.61338,0.07553
5916.54185,0.07169
5918.47032,0.03721
5920.39878,0.02428
5922.32725,0.04044
5924.25572,0.05609
5926.18419,0.06277
5928.11266,0.06595
5930.04113,0.08763
5931.96960,0.10707
5933.89806,0.08722
5935.82653,0.05911
5937.75500,0.07025
5939.68347,0.09578
5941.61194,0.11306
5943.54041,0.15148
5945.46888,0.18824
5947.39734,0.18174
5949.32581,0.15592
5951.25428,0.13933
5953.18275,0.11386
5955.11122,0.05582
5957.03969,-0.00162
5958.96816,0.00544
5960.89663,0.05755
5962.82509,0.07882
5964.75356,0.07847
5966.68203,0.08539
5968.61050,0.08329
5970.53897,0.08135
5972.46744,0.07895
5974.39591,0.04124
5976.32437,0.00642
5978.25284,0.01125
5980.18131,0.01556
5982.10978,0.02224
5984.03825,0.06689
5985.96672,0.10669
5987.89519,0.08900
5989.82366,0.05672
5991.75212,0.05591
5993.68059,0.06319
5995.60906,0.06329
5997.53753,0.06724
5999.46600,0.07405
6001.39447,0.08355
6003.32294,0.08964
6005.25140,0.06883
6007.17987,0.03185
6009.10834,0.01593
6011.03681,0.01481
6012.96528,0.01216
6014.89375,0.02486
6016.82222,0.06384
6018.75069,0.11737
6020.67915,0.16509
6022.60762,0.15152
6024.53609,0.08011
6026.46456,0.04840
6028.39303,0.07389
6030.32150,0.08608
6032.24997,0.05410
6034.17843,0.02347
6036.10690,0.03251
6038.03537,0.06350
6039.96384,0.10445
6041.89231,0.11356
6043.82078,0.07619
6045.74925,0.04477
6047.67772,0.03342
6049.60618,0.04265
6051.53465,0.04304
6053.46312,-0.00478
6055.39159,-0.05336
6057.32006,-0.04450
6059.24853,0.00715
6061.17700,0.04946
6063.10546,0.03654
6065.03393,0.01642
6066.96240,0.04997
6068.89087,0.10841
6070.81934,0.14956
6072.74781,0.15174
6074.67628,0.11360
6076.60475,0.07622
6078.53321,0.07680
6080.46168,0.08574
6082.39015,0.06426
6084.31862,0.04179
6086.24709,0.06612
6088.17556,0.13130
6090.10403,0.19829
6092.03249,0.23886
6093.96096,0.21956
6095.88943,0.14477
6097.81790,0.08297
6099.74637,0.07687
6101.67484,0.10185
6103.60331,0.10996
6105.53177,0.08509
6107.46024,0.04562
6109.38871,0.04579
6111.31718,0.10257
6113.24565,0.12334
6115.17412,0.07723
6117.10259,0.02147
6119.03106,-0.01223
6120.95952,0.00622
6122.88799,0.06436
6124.81646,0.08874
6126.74493,0.04091
6128.67340,-0.02685
6130.60187,-0.02978
6132.53034,0.03650
6134.45880,0.08696
6136.38727,0.06936
6138.31574,0.04163
6140.24421,0.04884
6142.17268,0.04498
6144.10115,0.02491
6146.02962,0.04268
6147.95809,0.08343
6149.88655,0.08746
6151.81502,0.05263
6153.74349,0.03864
6155.67196,0.06914
6157.60043,0.10510
6159.52890,0.11977
6161.45737,0.12689
6163.38583,0.12245
6165.31430,0.07626
6167.24277,0.00643
6169.17124,-0.02462
6171.09971,0.01157
6173.02818,0.05621
6174.95665,0.03997
6176.88512,-0.00911
6178.81358,-0.01249
6180.74205,0.03481
6182.67052,0.07092
6184.59899,0.09144
6186.52746,0.14428
6188.45593,0.19520
6190.38440,0.15908
6192.31286,0.06924
6194.24133,0.02232
6196.16980,0.06013
6198.09827,0.11806
6200.02674,0.10889
6201.95521,0.07265
6203.88368,0.06936
6205.81215,0.06528
6207.74061,0.06753
6209.66908,0.12059
6211.59755,0.19211
6213.52602,0.22458
6215.45449,0.19863
6217.38296,0.13905
6219.31143,0.08449
6221.23989,0.03381
6223.16836,0.01412
6225.09683,0.06302
6227.02530,0.13783
6228.95377,0.17473
6230.88224,0.14642
6232.81071,0.09443
6234.73918,0.08349
6236.66764,0.09448
6238.59611,0.09706
6240.52458,0.10270
6242.45305,0.13897
6244.38152,0.17338
6246.30999,0.11682
6248.23846,0.01417
6250.16692,-0.00881
6252.09539,0.01716
6254.02386,0.03076
6255.95233,0.07296
6257.88080,0.11262
6259.80927,0.09010
6261.73774,0.03783
6263.66621,0.00308
6265.59467,0.02133
6267.52314,0.08079
6269.45161,0.10149
6271.38008,0.10014
6273.30855,0.14526
6275.23702,0.17028
6277.16549,0.11026
6279.09395,0.07047
6281.02242,0.10885
6282.95089,0.15433
6284.87936,0.16051
6286.80783,0.15598
6288.73630,0.16505
6290.66477,0.16321
6292.59323,0.12115
6294.52170,0.08591
6296.45017,0.06884
6298.37864,0.04473
6300.30711,0.05828
6302.23558,0.10376
6304.16405,0.12627
6306.09252,0.13891
6308.02098,0.16242
6309.94945,0.20234
6311.87792,0.21809
6313.80639,0.18180
6315.73486,0.16786
6317.66333,0.20710
6319.59180,0.24170
6321.52026,0.22024
6323.44873,0.13996
6325.37720,0.07629
6327.30567,0.06516
6329.23414,0.07136
6331.16261,0.06686
6333.09108,0.03406
6335.01955,0.00645
6336.94801,0.04437
6338.87648,0.12350
6340.80495,0.13727
6342.73342,0.05538
6344.66189,-0.01017
6346.59036,0.01347
6348.51883,0.04997
6350.44729,0.04976
6352.37576,0.07807
6354.30423,0.12040
6356.23270,0.11349
6358.16117,0.11463
6360.08964,0.14032
6362.01811,0.11660
6363.94658,0.10415
6365.87504,0.15828
6367.80351,0.19960
6369.73198,0.20756
6371.66045,0.19898
6373.58892,0.17687
6375.51739,0.14967
6377.44586,0.09880
6379.37432,0.04405
6381.30279,0.02025
6383.23126,0.00450
6385.15973,-0.00450
6387.08820,0.03478
6389.01667,0.10736
6390.94514,0.17837
6392.87361,0.18214
6394.80207,0.08301
6396.73054,-0.00590
6398.65901,-0.02615
6400.58748,0.00186
6402.51595,0.07991
6404.44442,0.17499
6406.37289,0.19385
6408.30135,0.14669
6410.22982,0.12413
6412.15829,0.10363
6414.08676,0.07820
6416.01523,0.10078
6417.94370,0.16407
6419.87217,0.19115
6421.80064,0.15955
6423.72910,0.12088
6425.65757,0.09175
6427.58604,0.07783
6429.51451,0.10771
6431.44298,0.16571
6433.37145,0.17879
6435.29992,0.12588
6437.22838,0.05950
6439.15685,0.03439
6441.08532,0.05413
6443.01379,0.09941
6444.94226,0.13223
6446.87073,0.12492
6448.79920,0.09099
6450.72766,0.05387
6452.65613,0.01546
6454.58460,-0.03579
6456.51307,-0.04544
6458.44154,0.02681
6460.37001,0.09187
6462.29848,0.09554
6464.22695,0.06140
6466.15541,0.02658
6468.08388,0.04800
6470.01235,0.11713
6471.94082,0.11630
6473.86929,0.01105
6475.79776,-0.08334
6477.72623,-0.09040
6479.65469,-0.04303
6481.58316,0.02469
6483.51163,0.08632
6485.44010,0.12111
6487.36857,0.11609
6489.29704,0.09490
6491.22551,0.13131
6493.15398,0.20750
6495.08244,0.22900
6497.01091,0.18979
6498.93938,0.12238
6500.86785,0.05174
6502.79632,0.00343
6504.72479,-0.00297
6506.65326,0.03686
6508.58172,0.08594
6510.51019,0.07574
6512.43866,0.03302
6514.36713,0.06911
6516.29560,0.13710
6518.22407,0.13284
6520.15254,0.07862
6522.08101,0.01858
6524.00947,-0.00266
6525.93794,0.05757
6527.86641,0.12658
6529.79488,0.11285
6531.72335,0.05301
6533.65182,0.03253
6535.58029,0.06697
6537.50875,0.08906
6539.43722,0.04260
6541.36569,-0.02260
6543.29416,-0.03090
6545.22263,0.02946
6547.15110,0.09855
6549.07957,0.12519
6551.00804,0.10224
6552.93650,0.06957
6554.86497,0.09512
6556.79344,0.16317
6558.72191,0.16438
6560.65038,0.11054
6562.57885,0.11006
6564.50732,0.16918
6566.43578,0.25093
6568.36425,0.29075
6570.29272,0.22647
6572.22119,0.14576
6574.14966,0.15741
6576.07813,0.21656
6578.00660,0.23259
6579.93507,0.18573
6581.86353,0.11030
6583.79200,0.06483
6585.72047,0.08526
6587.64894,0.10851
6589.57741,0.07549
6591.50588,0.03730
6593.43435,0.03018
6595.36281,0.01023
6597.29128,-0.01659
6599.21975,0.01973
6601.14822,0.12655
6603.07669,0.16415
6605.00516,0.10434
6606.93363,0.05518
6608.86210,0.02327
6610.79056,-0.03367
6612.71903,-0.12066
6614.64750,-0.19802
6616.57597,-0.17414
6618.50444,-0.07600
6620.43291,-0.00559
6622.36138,0.02045
6624.28984,0.03043
6626.21831,0.10364
6628.14678,0.22135
6630.07525,0.24567
6632.00372,0.16696
6633.93219,0.07743
6635.86066,0.03140
6637.78912,0.03457
6639.71759,0.04307
6641.64606,0.05519
6643.57453,0.11204
6645.50300,0.18023
6647.43147,0.20552
6649.35994,0.19072
6651.28841,0.11706
6653.21687,0.02062
6655.14534,-0.03622
6657.07381,-0.05163
6659.00228,-0.00338
6660.93075,0.11193
6662.85922,0.22159
6664.78769,0.26640
6666.71615,0.24185
6668.64462,0.17422
6670.57309,0.09701
6672.50156,0.04701
6674.43003,0.04793
6676.35850,0.06950
6678.28697,0.08384
6680.21544,0.08573
6682.14390,0.12226
6684.07237,0.21825
6686.00084,0.24519
6687.92931,0.11861
6689.85778,-0.05298
6691.78625,-0.13345
6693.71472,-0.09433
6695.64318,0.01826
6697.57165,0.10425
6699.50012,0.14347
6701.42859,0.19336
6703.35706,0.24311
6705.28553,0.24955
6707.21400,0.19903
6709.14247,0.12940
6711.07093,0.08394
6712.99940,0.07254
6714.92787,0.10677
6716.85634,0.20241
6718.78481,0.29454
6720.71328,0.24879
6722.64175,0.11690
6724.57021,0.06114
6726.49868,0.07216
6728.42715,0.06643
6730.35562,0.01956
6732.28409,-0.01183
6734.21256,0.03713
6736.14103,0.13555
6738.06950,0.14409
6739.99796,0.01059
6741.92643,-0.08938
6743.85490,-0.01417
6745.78337,0.10120
6747.71184,0.12825
6749.64031,0.09089
6751.56878,0.07354
6753.49724,0.07027
6755.42571,0.07582
6757.35418,0.11407
6759.28265,0.12532
6761.21112,0.09442
6763.13959,0.07344
6765.06806,0.04595
6766.99653,0.00501
6768.92499,0.00228
6770.85346,0.10606
6772.78193,0.24541
6774.71040,0.26398
6776.63887,0.14096
6778.56734,0.05035
6780.49581,0.06293
6782.42427,0.05912
6784.35274,0.01263
6786.28121,0.00230
6788.20968,0.01944
6790.13815,0.05190
6792.06662,0.13679
6793.99509,0.20728
6795.92355,0.17403
6797.85202,0.12891
6799.78049,0.15734
6801.70896,0.23736
6803.63743,0.33655
6805.56590,0.35547
6807.49437,0.27848
6809.42284,0.21410
6811.35130,0.15588
6813.27977,0.05074
6815.20824,-0.03927
6817.13671,-0.07102
6819.06518,-0.03587
6820.99365,0.09374
6822.92212,0.24119
6824.85058,0.24745
6826.77905,0.11345
6828.70752,-0.05770
6830.63599,-0.07437
6832.56446,0.06172
6834.49293,0.14261
6836.42140,0.09682
6838.34987,0.02492
6840.27833,0.02985
6842.20680,0.11134
6844.13527,0.19102
6846.06374,0.22063
6847.99221,0.22138
6849.92068,0.25435
6851.84915,0.30340
6853.77761,0.29191
6855.70608,0.23767
6857.63455,0.15915
6859.56302,0.03744
6861.49149,-0.04438
6863.41996,-0.03606
6865.34843,0.03822
6867.27690,0.17131
6869.20536,0.24205
6871.13383,0.16763
6873.06230,0.06824
6874.99077,0.10753
6876.91924,0.17523
6878.84771,0.14675
6880.77618,0.09914
6882.70464,0.05501
6884.63311,-0.03423
6886.56158,-0.09426
6888.49005,-0.08616
6890.41852,-0.09968
6892.34699,-0.08060
6894.27546,0.07742
6896.20393,0.17995
6898.13239,0.02497
6900.06086,-0.15185
6901.98933,-0.13581
6903.91780,-0.01084
6905.84627,0.14196
6907.77474,0.21310
6909.70321,0.14659
6911.63167,0.04931
6913.56014,-0.03195
6915.48861,-0.09043
6917.41708,-0.12641
6919.34555,-0.10753
6921.27402,0.01135
6923.20249,0.08848
6925.13096,0.07790
6927.05942,0.06829
6928.98789,0.10633
6930.91636,0.17032
6932.84483,0.16608
6934.77330,0.10342
6936.70177,0.07673
6938.63024,0.10266
6940.55870,0.11703
6942.48717,0.08317
6944.41564,0.04382
6946.34411,-0.00341
6948.27258,-0.02002
6950.20105,0.03060
6952.12952,0.09320
6954.05799,0.13559
6955.98645,0.13608
6957.91492,0.10529
6959.84339,0.09003
6961.77186,0.05787
6963.70033,0.03245
6965.62880,0.05807
6967.55727,0.06430
6969.48573,0.05049
6971.41420,0.09979
6973.34267,0.20499
6975.27114,0.29983
6977.19961,0.28477
6979.12808,0.16645
6981.05655,0.03495
6982.98501,-0.01696
6984.91348,0.03537
6986.84195,0.08721
6988.77042,0.06628
6990.69889,-0.00818
6992.62736,-0.04979
6994.55583,0.02723
6996.48430,0.14508
6998.41276,0.11785
7000.34123,-0.00361
7002.26970,-0.01216
7004.19817,0.07638
7006.12664,0.08241
7008.05511,0.00159
7009.98358,0.00275
7011.91204,0.05573
7013.84051,0.04385
7015.76898,-0.00666
7017.69745,-0.02619
7019.62592,-0.00174
7021.55439,0.05791
7023.48286,0.10729
7025.41133,0.11980
7027.33979,0.09697
7029.26826,0.05057
7031.19673,0.03807
7033.12520,0.06633
7035.05367,0.12823
7036.98214,0.18735
7038.91061,0.20964
7040.83907,0.22281
7042.76754,0.28689
7044.69601,0.34622
7046.62448,0.24051
7048.55295,0.09526
7050.48142,0.06408
7052.40989,0.06699
7054.33836,0.14461
7056.26682,0.31663
7058.19529,0.34147
7060.12376,0.24052
7062.05223,0.19045
7063.98070,0.09320
7065.90917,-0.01182
7067.83764,-0.04824
7069.76610,-0.05352
7071.69457,0.00452
7073.62304,0.08355
7075.55151,0.10229
7077.47998,0.07921
7079.40845,0.03939
7081.33692,-0.01157
7083.26539,-0.03755
7085.19385,-0.02630
7087.12232,-0.00865
7089.05079,-0.00084
7090.97926,0.03045
7092.90773,0.09998
7094.83620,0.17382
7096.76467,0.23566
7098.69313,0.25961
7100.62160,0.24180
7102.55007,0.18227
7104.47854,0.10303
7106.40701,0.12581
7108.33548,0.18300
7110.26395,0.10834
7112.19242,0.02677
7114.12088,0.07258
7116.04935,0.10174
7117.97782,0.01411
7119.90629,-0.04364
7121.83476,0.00657
7123.76323,0.06064
7125.69170,0.01389
7127.62016,-0.07103
7129.54863,-0.07178
7131.47710,0.01799
7133.40557,0.09096
7135.33404,0.12025
7137.26251,0.16671
7139.19098,0.18324
7141.11944,0.19077
7143.04791,0.28271
7144.97638,0.35816
7146.90485,0.29463
7148.83332,0.18912
7150.76179,0.12736
7152.69026,0.03095
7154.61873,-0.16468
7156.54719,-0.22908
7158.47566,-0.01107
7160.40413,0.27185
7162.33260,0.32165
7164.26107,0.12215
7166.18954,-0.11714
7168.11801,-0.24339
7170.04647,-0.19785
7171.97494,-0.02723
7173.90341,0.14526
7175.83188,0.33622
7177.76035,0.42011
7179.68882,0.34126
7181.61729,0.27875
7183.54576,0.22755
7185.47422,0.13748
7187.40269,0.08482
7189.33116,0.03717
7191.25963,-0.02024
7193.18810,0.03674
7195.11657,0.15574
7197.04504,0.20313
7198.97350,0.15774
7200.90197,0.00326
7202.83044,-0.12498
7204.75891,0.00008
7206.68738,0.10481
7208.61585,-0.01877
7210.54432,-0.14718
7212.47279,-0.18864
7214.40125,-0.18354
7216.32972,-0.17415
7218.25819,-0.16760
7220.18666,-0.20322
7222.11513,-0.27108
7224.04360,-0.26117
7225.97207,-0.11393
7227.90053,0.06751
7229.82900,0.12373
7231.75747,0.04052
7233.68594,-0.00575
7235.61441,0.06532
7237.54288,0.17252
7239.47135,0.16922
7241.39982,0.08220
7243.32828,0.12752
7245.25675,0.29472
7247.18522,0.37981
7249.11369,0.37421
7251.04216,0.23608
7252.97063,-0.00885
7254.89910,-0.05596
7256.82756,-0.03904
7258.75603,-0.06085
7260.68450,0.07914
7262.61297,0.32590
7264.54144,0.40026
7266.46991,0.37307
7268.39838,0.37093
7270.32685,0.38578
7272.25531,0.40072
7274.18378,0.35305
7276.11225,0.32749
7278.04072,0.42378
7279.96919,0.53364
7281.89766,0.49763
7283.82613,0.33581
7285.75459,0.13252
7287.68306,0.06715
7289.61153,0.20288
7291.54000,0.31424
7293.46847,0.24746
7295.39694,0.12632
7297.32541,0.05467
7299.25387,0.00541
7301.18234,-0.09479
7303.11081,-0.13628
7305.03928,0.00163
7306.96775,0.14603
7308.89622,0.12115
7310.82469,-0.00535
7312.75316,-0.07532
7314.68162,-0.03490
7316.61009,0.01230
7318.53856,-0.08299
7320.46703,-0.16939
7322.39550,-0.11923
7324.32397,-0.02185
7326.25244,-0.03284
7328.18090,-0.16401
7330.10937,-0.14787
7332.03784,0.07290
7333.96631,0.13485
7335.89478,-0.00656
7337.82325,-0.13353
7339.75172,-0.08968
7341.68019,0.07126
7343.60865,0.22382
7345.53712,0.31551
7347.46559,0.26900
7349.39406,0.27200
7351.32253,0.39444
7353.25100,0.44547
7355.17947,0.39072
7357.10793,0.28156
7359.03640,0.26082
7360.96487,0.35153
7362.89334,0.31833
7364.82181,0.16797
7366.75028,0.03744
7368.67875,-0.01129
7370.60722,-0.03145
7372.53568,-0.05054
7374.46415,0.04740
7376.39262,0.15501
7378.32109,0.08849
7380.24956,0.00295
7382.17803,-0.05002
7384.10650,-0.06311
7386.03496,-0.08401
7387.96343,-0.16790
7389.89190,-0.12818
7391.82037,0.00816
7393.74884,0.06470
7395.67731,0.17343
7397.60578,0.31192
7399.53425,0.29473
7401.46271,0.25731
7403.39118,0.26055
7405.31965,0.20923
7407.24812,0.09792
7409.17659,-0.05057
7411.10506,-0.07941
7413.03353,0.07090
7414.96199,0.19535
7416.89046,0.20150
7418.81893,0.08940
7420.74740,-0.08323
7422.67587,-0.13257
7424.60434,-0.07062
7426.53281,-0.00557
7428.46128,-0.04116
7430.38974,-0.24029
7432.31821,-0.38571
7434.24668,-0.25559
7436.17515,0.01708
7438.10362,0.12549
7440.03209,0.10242
7441.96056,0.15167
7443.88902,0.20187
7445.81749,0.18132
7447.74596,0.15477
7449.67443,0.10209
7451.60290,0.04168
7453.53137,0.05588
7455.45984,0.05857
7457.38831,0.01404
7459.31677,0.09097
7461.24524,0.27781
7463.17371,0.24235
7465.10218,0.10701
7467.03065,0.13094
7468.95912,0.19943
7470.88759,0.13361
7472.81605,-0.02163
7474.74452,-0.06987
7476.67299,-0.07828
7478.60146,-0.21217
7480.52993,-0.28475
7482.45840,-0.09126
7484.38687,0.14491
7486.31533,0.23198
7488.24380,0.18208
7490.17227,0.12392
7492.10074,0.12259
7494.02921,0.12437
7495.95768,0.12416
7497.88615,0.15423
