399.19301,0.10636
401.12148,-0.44929
403.04995,-0.41139
404.97842,-0.24290
406.90689,-0.03974
408.83536,0.07732
410.76382,0.13496
412.69229,0.21389
414.62076,0.25731
416.54923,0.25086
418.47770,0.25085
420.40617,0.16841
422.33464,0.01196
424.26311,-0.07123
426.19157,-0.02879
428.12004,0.13402
430.04851,0.33889
431.97698,0.32112
433.90545,0.14858
435.83392,0.06715
437.76239,0.02329
439.69085,0.01162
441.61932,0.07303
443.54779,0.12398
445.47626,0.13162
447.40473,0.14985
449.33320,0.16541
451.26167,0.14980
453.19013,0.10850
455.11860,0.06465
457.04707,0.05790
458.97554,0.06857
460.90401,0.06302
462.83248,0.03518
464.76095,-0.02573
466.68942,-0.03001
468.61788,0.05055
470.54635,0.11257
472.47482,0.02908
474.40329,-0.12998
476.33176,-0.06031
478.26023,0.02831
480.18870,0.00587
482.11716,-0.03645
484.04563,-0.01367
485.97410,0.02456
487.90257,0.03191
489.83104,0.02914
491.75951,0.05109
493.68798,0.09758
495.61645,0.10895
497.54491,0.09085
499.47338,0.09499
501.40185,0.08858
503.33032,0.05691
505.25879,0.06952
507.18726,0.12480
509.11573,0.13763
511.04419,0.10931
512.97266,0.09100
514.90113,0.07312
516.82960,0.04043
518.75807,0.05789
520.68654,0.12670
522.61501,0.16358
524.54348,0.16900
526.47194,0.17757
528.40041,0.16558
530.32888,0.12286
532.25735,0.08862
534.18582,0.09411
536.11429,0.10992
538.04276,0.10311
539.97122,0.09538
541.89969,0.10999
543.82816,0.12814
545.75663,0.11707
547.68510,0.08381
549.61357,0.06279
551.54204,0.07091
553.47051,0.09868
555.39897,0.11174
557.32744,0.08897
559.25591,0.08525
561.18438,0.13083
563.11285,0.15925
565.04132,0.13197
566.96979,0.10303
568.89825,0.11377
570.82672,0.11762
572.75519,0.08928
574.68366,0.06283
576.61213,0.04996
578.54060,0.05847
580.46907,0.09099
582.39754,0.11553
584.32600,0.12116
586.25447,0.12281
588.18294,0.13492
590.11141,0.15839
592.03988,0.15958
593.96835,0.12648
595.89682,0.09475
597.82528,0.08928
599.75375,0.11463
601.68222,0.15402
603.61069,0.16814
605.53916,0.13006
607.46763,0.07823
609.39610,0.06557
611.32456,0.08367
613.25303,0.10677
615.18150,0.12769
617.10997,0.14168
619.03844,0.14591
620.96691,0.14231
622.89538,0.12522
624.82385,0.11011
626.75231,0.11561
628.68078,0.12241
630.60925,0.13013
632.53772,0.14271
634.46619,0.14105
636.39466,0.12920
638.32313,0.11829
640.25159,0.11673
642.18006,0.11548
644.10853,0.10401
646.03700,0.10226
647.96547,0.11092
649.89394,0.10807
651.82241,0.09875
653.75088,0.09847
655.67934,0.10138
657.60781,0.09902
659.53628,0.10885
661.46475,0.13738
663.39322,0.15493
665.32169,0.14594
667.25016,0.13070
669.17862,0.15114
671.10709,0.16803
673.03556,0.15029
674.96403,0.13086
676.89250,0.13497
678.82097,0.14215
680.74944,0.12963
682.67791,0.11089
684.60637,0.10370
686.53484,0.11247
688.46331,0.13064
690.39178,0.14570
692.32025,0.15250
694.24872,0.15365
696.17719,0.14781
698.10565,0.13584
700.03412,0.13370
701.96259,0.14462
703.89106,0.15122
705.81953,0.14512
707.74800,0.14162
709.67647,0.15609
711.60494,0.17309
713.53340,0.16790
715.46187,0.14498
717.39034,0.13023
719.31881,0.13233
721.24728,0.13757
723.17575,0.13621
725.10422,0.12801
727.03268,0.11984
728.96115,0.12478
730.88962,0.13975
732.81809,0.14517
734.74656,0.13735
736.67503,0.12836
738.60350,0.12267
740.53197,0.12169
742.46043,0.12776
744.38890,0.13686
746.31737,0.13786
748.24584,0.12662
750.17431,0.11732
752.10278,0.12252
754.03125,0.13405
755.95971,0.13724
757.88818,0.12995
759.81665,0.12365
761.74512,0.12771
763.67359,0.13682
765.60206,0.13739
767.53053,0.13281
769.45900,0.13467
771.38746,0.12974
773.31593,0.11650
775.24440,0.12144
777.17287,0.14164
779.10134,0.15064
781.02981,0.14505
782.95828,0.14001
784.88674,0.14421
786.81521,0.15430
788.74368,0.15610
790.67215,0.14519
792.60062,0.14314
794.52909,0.15478
796.45756,0.16188
798.38602,0.15980
800.31449,0.14786
802.24296,0.13049
804.17143,0.12252
806.09990,0.12546
808.02837,0.13111
809.95684,0.13642
811.88531,0.13786
813.81377,0.13989
815.74224,0.14914
817.67071,0.14920
819.59918,0.12971
821.52765,0.11484
823.45612,0.12496
825.38459,0.14249
827.31305,0.14065
829.24152,0.12693
831.16999,0.12289
833.09846,0.12458
835.02693,0.12478
836.95540,0.13108
838.88387,0.13986
840.81234,0.14397
842.74080,0.14535
844.66927,0.14648
846.59774,0.15408
848.52621,0.16827
850.45468,0.17349
852.38315,0.16357
854.31162,0.15059
856.24008,0.14615
858.16855,0.14795
860.09702,0.14778
862.02549,0.14642
863.95396,0.14339
865.88243,0.14162
867.81090,0.14719
869.73937,0.15181
871.66783,0.14970
873.59630,0.14333
875.52477,0.13467
877.45324,0.13275
879.38171,0.13890
881.31018,0.13738
883.23865,0.13163
885.16711,0.13599
887.09558,0.14178
889.02405,0.14549
890.95252,0.15247
892.88099,0.15326
894.80946,0.14278
896.73793,0.13010
898.66640,0.12208
900.59486,0.12360
902.52333,0.13221
904.45180,0.13780
906.38027,0.14283
908.30874,0.15044
910.23721,0.15586
912.16568,0.15708
914.09414,0.15683
916.02261,0.15702
917.95108,0.14981
919.87955,0.13611
921.80802,0.13006
923.73649,0.13394
925.66496,0.14069
927.59343,0.14556
929.52189,0.14873
931.45036,0.15292
933.37883,0.15327
935.30730,0.14740
937.23577,0.14445
939.16424,0.14571
941.09271,0.14406
943.02117,0.14362
944.94964,0.14761
946.87811,0.14919
948.80658,0.14974
950.73505,0.15387
952.66352,0.16197
954.59199,0.17118
956.52045,0.17029
958.44892,0.15640
960.37739,0.14277
962.30586,0.13976
964.23433,0.14528
966.16280,0.15089
968.09127,0.15573
970.01974,0.16297
971.94820,0.16438
973.87667,0.15380
975.80514,0.13993
977.73361,0.13593
979.66208,0.14239
981.59055,0.14757
983.51902,0.15017
985.44748,0.15371
987.37595,0.15537
989.30442,0.15219
991.23289,0.14566
993.16136,0.14264
995.08983,0.14255
997.01830,0.13886
998.94677,0.13303
1000.87523,0.13198
1002.80370,0.13756
1004.73217,0.14867
1006.66064,0.16210
1008.58911,0.16729
1010.51758,0.16147
1012.44605,0.15477
1014.37451,0.15312
1016.30298,0.15557
1018.23145,0.16304
1020.15992,0.17180
1022.08839,0.17285
1024.01686,0.16828
1025.94533,0.16985
1027.87380,0.17711
1029.80226,0.17574
1031.73073,0.16582
1033.65920,0.15770
1035.58767,0.15477
1037.51614,0.15743
1039.44461,0.16025
1041.37308,0.15847
1043.30154,0.15266
1045.23001,0.14864
1047.15848,0.15434
1049.08695,0.16599
1051.01542,0.17053
1052.94389,0.16395
1054.87236,0.15466
1056.80083,0.15318
1058.72929,0.15526
1060.65776,0.14771
1062.58623,0.14177
1064.51470,0.14847
1066.44317,0.15470
1068.37164,0.15508
1070.30011,0.15666
1072.22857,0.16282
1074.15704,0.16841
1076.08551,0.16847
1078.01398,0.16199
1079.94245,0.15635
1081.87092,0.16133
1083.79939,0.16768
1085.72786,0.16123
1087.65632,0.14937
1089.58479,0.14513
1091.51326,0.14558
1093.44173,0.14646
1095.37020,0.14582
1097.29867,0.14407
1099.22714,0.15018
1101.15560,0.16626
1103.08407,0.18411
1105.01254,0.19289
1106.94101,0.19015
1108.86948,0.18381
1110.79795,0.17713
1112.72642,0.16983
1114.65489,0.16480
1116.58335,0.16151
1118.51182,0.15657
1120.44029,0.15015
1122.36876,0.14522
1124.29723,0.14523
1126.22570,0.14784
1128.15417,0.14800
1130.08263,0.14793
1132.01110,0.15089
1133.93957,0.15538
1135.86804,0.15953
1137.79651,0.16220
1139.72498,0.16289
1141.65345,0.16514
1143.58191,0.17150
1145.51038,0.17449
1147.43885,0.16818
1149.36732,0.16228
1151.29579,0.16538
1153.22426,0.17095
1155.15273,0.17321
1157.08120,0.17241
1159.00966,0.16768
1160.93813,0.16205
1162.86660,0.16183
1164.79507,0.16599
1166.72354,0.16783
1168.65201,0.16409
1170.58048,0.15848
1172.50894,0.15843
1174.43741,0.16418
1176.36588,0.16798
1178.29435,0.16699
1180.22282,0.16296
1182.15129,0.16012
1184.07976,0.16394
1186.00823,0.16993
1187.93669,0.16977
1189.86516,0.16576
1191.79363,0.16397
1193.72210,0.16430
1195.65057,0.16427
1197.57904,0.16401
1199.50751,0.16325
1201.43597,0.16012
1203.36444,0.15871
1205.29291,0.16226
1207.22138,0.16432
1209.14985,0.16427
1211.07832,0.16700
1213.00679,0.17042
1214.93526,0.16998
1216.86372,0.16494
1218.79219,0.16069
1220.72066,0.16141
1222.64913,0.16331
1224.57760,0.16303
1226.50607,0.16353
1228.43454,0.16515
1230.36300,0.16546
1232.29147,0.16636
1234.21994,0.16601
1236.14841,0.16181
1238.07688,0.16091
1240.00535,0.16692
1241.93382,0.17169
1243.86229,0.16942
1245.79075,0.16325
1247.71922,0.15901
1249.64769,0.15909
1251.57616,0.16020
1253.50463,0.16143
1255.43310,0.16554
1257.36157,0.16915
1259.29003,0.16830
1261.21850,0.16774
1263.14697,0.17149
1265.07544,0.17430
1267.00391,0.17115
1268.93238,0.16688
1270.86085,0.16783
1272.78932,0.16971
1274.71778,0.16777
1276.64625,0.16735
1278.57472,0.17108
1280.50319,0.17365
1282.43166,0.17213
1284.36013,0.16844
1286.28860,0.16510
1288.21706,0.16442
1290.14553,0.16628
1292.07400,0.16813
1294.00247,0.17086
1295.93094,0.17334
1297.85941,0.17118
1299.78788,0.16483
1301.71634,0.15577
1303.64481,0.14690
1305.57328,0.14834
1307.50175,0.16245
1309.43022,0.17592
1311.35869,0.18110
1313.28716,0.18059
1315.21563,0.17719
1317.14409,0.17579
1319.07256,0.17807
1321.00103,0.17881
1322.92950,0.17605
1324.85797,0.17264
1326.78644,0.17051
1328.71491,0.16997
1330.64337,0.16903
1332.57184,0.16765
1334.50031,0.16621
1336.42878,0.16565
1338.35725,0.17090
1340.28572,0.17379
1342.21419,0.16358
1344.14266,0.14852
1346.07112,0.14345
1347.99959,0.15477
1349.92806,0.16803
1351.85653,0.17156
1353.78500,0.16986
1355.71347,0.16831
1357.64194,0.17126
1359.57040,0.17933
1361.49887,0.18820
1363.42734,0.19168
1365.35581,0.18772
1367.28428,0.18208
1369.21275,0.17933
1371.14122,0.18009
1373.06969,0.18397
1374.99815,0.18625
1376.92662,0.18339
1378.85509,0.17844
1380.78356,0.17273
1382.71203,0.17163
1384.64050,0.17859
1386.56897,0.18628
1388.49743,0.18660
1390.42590,0.18618
1392.35437,0.19168
1394.28284,0.19903
1396.21131,0.20325
1398.13978,0.20300
1400.06825,0.19549
1401.99672,0.18457
1403.92518,0.17754
1405.85365,0.17657
1407.78212,0.18002
1409.71059,0.18413
1411.63906,0.18482
1413.56753,0.18345
1415.49600,0.18585
1417.42446,0.19237
1419.35293,0.19359
1421.28140,0.19054
1423.20987,0.18868
1425.13834,0.18345
1427.06681,0.18197
1428.99528,0.18749
1430.92375,0.18873
1432.85221,0.18727
1434.78068,0.19328
1436.70915,0.19874
1438.63762,0.19182
1440.56609,0.18443
1442.49456,0.18229
1444.42303,0.18549
1446.35149,0.19278
1448.27996,0.19581
1450.20843,0.19116
1452.13690,0.18914
1454.06537,0.19812
1455.99384,0.21754
1457.92231,0.22021
1459.85077,0.19990
1461.77924,0.19061
1463.70771,0.19265
1465.63618,0.19527
1467.56465,0.19623
1469.49312,0.20327
1471.42159,0.21496
1473.35006,0.21566
1475.27852,0.20314
1477.20699,0.19432
1479.13546,0.19323
1481.06393,0.19369
1482.99240,0.19042
1484.92087,0.19042
1486.84934,0.19962
1488.77780,0.21089
1490.70627,0.21004
1492.63474,0.20250
1494.56321,0.20077
1496.49168,0.20505
1498.42015,0.20649
1500.34862,0.20985
1502.27709,0.22736
1504.20555,0.26031
1506.13402,0.29690
1508.06249,0.27450
1509.99096,0.22789
1511.91943,0.20533
1513.84790,0.20360
1515.77637,0.21240
1517.70483,0.21718
1519.63330,0.22463
1521.56177,0.23575
1523.49024,0.23268
1525.41871,0.22806
1527.34718,0.22135
1529.27565,0.21110
1531.20412,0.20979
1533.13258,0.21214
1535.06105,0.21001
1536.98952,0.21702
1538.91799,0.23822
1540.84646,0.24606
1542.77493,0.22408
1544.70340,0.20555
1546.63186,0.19835
1548.56033,0.20148
1550.48880,0.20633
1552.41727,0.20800
1554.34574,0.21226
1556.27421,0.22594
1558.20268,0.25275
1560.13115,0.24422
1562.05961,0.21723
1563.98808,0.20621
1565.91655,0.20342
1567.84502,0.20626
1569.77349,0.20716
1571.70196,0.19926
1573.63043,0.19665
1575.55889,0.19917
1577.48736,0.19142
1579.41583,0.18140
1581.34430,0.17884
1583.27277,0.17962
1585.20124,0.17872
1587.12971,0.17727
1589.05818,0.17905
1590.98664,0.18414
1592.91511,0.18853
1594.84358,0.18601
1596.77205,0.17831
1598.70052,0.17665
1600.62899,0.18211
1602.55746,0.18641
1604.48592,0.18791
1606.41439,0.18985
1608.34286,0.19182
1610.27133,0.19024
1612.19980,0.18609
1614.12827,0.18846
1616.05674,0.20181
1617.98521,0.20743
1619.91367,0.20217
1621.84214,0.20077
1623.77061,0.20015
1625.69908,0.20003
1627.62755,0.20200
1629.55602,0.19867
1631.48449,0.19424
1633.41295,0.19865
1635.34142,0.21076
1637.26989,0.21096
1639.19836,0.20332
1641.12683,0.20039
1643.05530,0.20368
1644.98377,0.21644
1646.91223,0.23533
1648.84070,0.23809
1650.76917,0.23514
1652.69764,0.24044
1654.62611,0.23118
1656.55458,0.21333
1658.48305,0.20602
1660.41152,0.20989
1662.33998,0.21482
1664.26845,0.20891
1666.19692,0.20609
1668.12539,0.21484
1670.05386,0.22007
1671.98233,0.21535
1673.91080,0.21561
1675.83926,0.21501
1677.76773,0.21078
1679.69620,0.21442
1681.62467,0.22576
1683.55314,0.22885
1685.48161,0.21111
1687.41008,0.20248
1689.33855,0.20375
1691.26701,0.20483
1693.19548,0.20949
1695.12395,0.22292
1697.05242,0.23518
1698.98089,0.23359
1700.90936,0.22125
1702.83783,0.21187
1704.76629,0.20819
1706.69476,0.20278
1708.62323,0.19663
1710.55170,0.19752
1712.48017,0.20760
1714.40864,0.22426
1716.33711,0.23863
1718.26558,0.22896
1720.19404,0.20823
1722.12251,0.19670
1724.05098,0.19159
1725.97945,0.19171
1727.90792,0.19649
1729.83639,0.20108
1731.76486,0.20529
1733.69332,0.20876
1735.62179,0.20332
1737.55026,0.19840
1739.47873,0.19908
1741.40720,0.19907
1743.33567,0.19678
1745.26414,0.20118
1747.19261,0.21528
1749.12107,0.22636
1751.04954,0.21836
1752.97801,0.20283
1754.90648,0.19664
1756.83495,0.19711
1758.76342,0.19750
1760.69189,0.19725
1762.62035,0.19572
1764.54882,0.19466
1766.47729,0.19784
1768.40576,0.20423
1770.33423,0.21200
1772.26270,0.21419
1774.19117,0.20466
1776.11964,0.19702
1778.04810,0.19617
1779.97657,0.19670
1781.90504,0.19490
1783.83351,0.19293
1785.76198,0.19185
1787.69045,0.19234
1789.61892,0.19778
1791.54738,0.20569
1793.47585,0.20690
1795.40432,0.20274
1797.33279,0.20010
1799.26126,0.19872
1801.18973,0.19381
1803.11820,0.18779
1805.04666,0.18713
1806.97513,0.19100
1808.90360,0.19449
1810.83207,0.19365
1812.76054,0.19004
1814.68901,0.18778
1816.61748,0.18821
1818.54595,0.19165
1820.47441,0.19567
1822.40288,0.19753
1824.33135,0.19715
1826.25982,0.19592
1828.18829,0.19662
1830.11676,0.19465
1832.04523,0.18770
1833.97369,0.18511
1835.90216,0.18749
1837.83063,0.18893
1839.75910,0.18918
1841.68757,0.19320
1843.61604,0.19975
1845.54451,0.20038
1847.47298,0.19690
1849.40144,0.19318
1851.32991,0.18871
1853.25838,0.18531
1855.18685,0.18422
1857.11532,0.18428
1859.04379,0.18525
1860.97226,0.18687
1862.90072,0.18785
1864.82919,0.19124
1866.75766,0.19910
1868.68613,0.20385
1870.61460,0.19858
1872.54307,0.19065
1874.47154,0.18618
1876.40001,0.18516
1878.32847,0.18639
1880.25694,0.18835
1882.18541,0.18919
1884.11388,0.18851
1886.04235,0.18715
1887.97082,0.18756
1889.89929,0.19017
1891.82775,0.19171
1893.75622,0.19304
1895.68469,0.19431
1897.61316,0.19271
1899.54163,0.19120
1901.47010,0.19192
1903.39857,0.19148
1905.32704,0.18947
1907.25550,0.18958
1909.18397,0.19188
1911.11244,0.19251
1913.04091,0.19071
1914.96938,0.18931
1916.89785,0.19057
1918.82632,0.19402
1920.75478,0.19715
1922.68325,0.19649
1924.61172,0.19066
1926.54019,0.18571
1928.46866,0.18616
1930.39713,0.18862
1932.32560,0.18847
1934.25407,0.18669
1936.18253,0.18573
1938.11100,0.18583
1940.03947,0.18756
1941.96794,0.19099
1943.89641,0.19429
1945.82488,0.19579
1947.75335,0.19474
1949.68181,0.19189
1951.61028,0.18966
1953.53875,0.18922
1955.46722,0.19017
1957.39569,0.19212
1959.32416,0.19394
1961.25263,0.19279
1963.18110,0.18911
1965.10956,0.18795
1967.03803,0.18846
1968.96650,0.18684
1970.89497,0.18498
1972.82344,0.18445
1974.75191,0.18556
1976.68038,0.18948
1978.60884,0.19296
1980.53731,0.19059
1982.46578,0.18580
1984.39425,0.18431
1986.32272,0.18492
1988.25119,0.18688
1990.17966,0.19080
1992.10812,0.19233
1994.03659,0.18888
1995.96506,0.18583
1997.89353,0.18589
1999.82200,0.18656
2001.75047,0.18694
2003.67894,0.18790
2005.60741,0.18888
2007.53587,0.18958
2009.46434,0.19094
2011.39281,0.19123
2013.32128,0.18956
2015.24975,0.18936
2017.17822,0.19070
2019.10669,0.19021
2021.03515,0.18956
2022.96362,0.19053
2024.89209,0.18991
2026.82056,0.18866
2028.74903,0.19062
2030.67750,0.19283
2032.60597,0.19223
2034.53444,0.19124
2036.46290,0.19143
2038.39137,0.19144
2040.31984,0.19016
2042.24831,0.18880
2044.17678,0.18860
2046.10525,0.19002
2048.03372,0.19270
2049.96218,0.19408
2051.89065,0.19289
2053.81912,0.19026
2055.74759,0.18823
2057.67606,0.18794
2059.60453,0.18843
2061.53300,0.19046
2063.46147,0.19455
2065.38993,0.19644
2067.31840,0.19503
2069.24687,0.19470
2071.17534,0.19461
2073.10381,0.19236
2075.03228,0.19043
2076.96075,0.19034
2078.88921,0.19006
2080.81768,0.18844
2082.74615,0.18800
2084.67462,0.19044
2086.60309,0.19298
2088.53156,0.19235
2090.46003,0.18895
2092.38850,0.18638
2094.31696,0.18601
2096.24543,0.18675
2098.17390,0.18942
2100.10237,0.19242
2102.03084,0.19272
2103.95931,0.19274
2105.88778,0.19331
2107.81624,0.19136
2109.74471,0.18920
2111.67318,0.18973
2113.60165,0.18953
2115.53012,0.18732
2117.45859,0.18576
2119.38706,0.18640
2121.31553,0.18908
2123.24399,0.19037
2125.17246,0.18934
2127.10093,0.18859
2129.02940,0.18894
2130.95787,0.19188
2132.88634,0.19526
2134.81481,0.19387
2136.74327,0.18906
2138.67174,0.18630
2140.60021,0.18716
2142.52868,0.18931
2144.45715,0.18985
2146.38562,0.18854
2148.31409,0.18853
2150.24255,0.19041
2152.17102,0.19161
2154.09949,0.19142
2156.02796,0.19120
2157.95643,0.19135
2159.88490,0.19054
2161.81337,0.18953
2163.74184,0.18980
2165.67030,0.19039
2167.59877,0.19036
2169.52724,0.19031
2171.45571,0.19049
2173.38418,0.19109
2175.31265,0.19194
2177.24112,0.19177
2179.16958,0.19144
2181.09805,0.19247
2183.02652,0.19379
2184.95499,0.19431
2186.88346,0.19415
2188.81193,0.19381
2190.74040,0.19396
2192.66887,0.19379
2194.59733,0.19140
2196.52580,0.18857
2198.45427,0.18850
2200.38274,0.18941
2202.31121,0.18869
2204.23968,0.18758
2206.16815,0.18746
2208.09661,0.18784
2210.02508,0.18759
2211.95355,0.18679
2213.88202,0.18738
2215.81049,0.18875
2217.73896,0.18871
2219.66743,0.18827
2221.59590,0.18836
2223.52436,0.18803
2225.45283,0.18749
2227.38130,0.18915
2229.30977,0.19234
2231.23824,0.19304
2233.16671,0.19258
2235.09518,0.19214
2237.02364,0.18939
2238.95211,0.18823
2240.88058,0.19131
2242.80905,0.19244
2244.73752,0.18938
2246.66599,0.18720
2248.59446,0.18752
2250.52293,0.18781
2252.45139,0.18857
2254.37986,0.19095
2256.30833,0.19268
2258.23680,0.19234
2260.16527,0.19000
2262.09374,0.18735
2264.02221,0.18852
2265.95067,0.19214
2267.87914,0.19351
2269.80761,0.19366
2271.73608,0.19345
2273.66455,0.19184
2275.59302,0.19144
2277.52149,0.19130
2279.44996,0.18789
2281.37842,0.18476
2283.30689,0.18609
2285.23536,0.18938
2287.16383,0.18964
2289.09230,0.18769
2291.02077,0.18714
2292.94924,0.18705
2294.87770,0.18751
2296.80617,0.18910
2298.73464,0.19065
2300.66311,0.19238
2302.59158,0.19358
2304.52005,0.19383
2306.44852,0.19447
2308.37699,0.19625
2310.30545,0.19872
2312.23392,0.20003
2314.16239,0.19950
2316.09086,0.20059
2318.01933,0.20461
2319.94780,0.20658
2321.87627,0.20415
2323.80473,0.19858
2325.73320,0.19190
2327.66167,0.19194
2329.59014,0.19870
2331.51861,0.20320
2333.44708,0.20914
2335.37555,0.21555
2337.30401,0.20889
2339.23248,0.19603
2341.16095,0.19661
2343.08942,0.20521
2345.01789,0.20169
2346.94636,0.19055
2348.87483,0.18728
2350.80330,0.19747
2352.73176,0.21880
2354.66023,0.22977
2356.58870,0.22239
2358.51717,0.22622
2360.44564,0.23918
2362.37411,0.23428
2364.30258,0.21451
2366.23104,0.20261
2368.15951,0.20211
2370.08798,0.20170
2372.01645,0.20389
2373.94492,0.20797
2375.87339,0.20761
2377.80186,0.20239
2379.73033,0.19450
2381.65879,0.18955
2383.58726,0.18992
2385.51573,0.19135
2387.44420,0.19213
2389.37267,0.19279
2391.30114,0.19267
2393.22961,0.19322
2395.15807,0.19383
2397.08654,0.19152
2399.01501,0.18907
2400.94348,0.19060
2402.87195,0.19359
2404.80042,0.19295
2406.72889,0.19034
2408.65736,0.19083
2410.58582,0.19343
2412.51429,0.19546
2414.44276,0.19669
2416.37123,0.19686
2418.29970,0.19573
2420.22817,0.19350
2422.15664,0.19084
2424.08510,0.18905
2426.01357,0.18904
2427.94204,0.19051
2429.87051,0.19290
2431.79898,0.19582
2433.72745,0.19739
2435.65592,0.19565
2437.58439,0.19244
2439.51285,0.19074
2441.44132,0.19157
2443.36979,0.19413
2445.29826,0.19547
2447.22673,0.19530
2449.15520,0.19531
2451.08367,0.19358
2453.01213,0.18990
2454.94060,0.18826
2456.86907,0.18966
2458.79754,0.19110
2460.72601,0.19131
2462.65448,0.19096
2464.58295,0.18951
2466.51142,0.18709
2468.43988,0.18613
2470.36835,0.18953
2472.29682,0.19399
2474.22529,0.19321
2476.15376,0.19144
2478.08223,0.19337
2480.01070,0.19443
2481.93916,0.19391
2483.86763,0.19287
2485.79610,0.19043
2487.72457,0.18920
2489.65304,0.18973
2491.58151,0.19075
2493.50998,0.19360
2495.43844,0.19642
2497.36691,0.19550
2499.29538,0.19222
2501.22385,0.18928
2503.15232,0.18800
2505.08079,0.18942
2507.00926,0.19112
2508.93773,0.18998
2510.86619,0.18920
2512.79466,0.19216
2514.72313,0.19448
2516.65160,0.19338
2518.58007,0.19241
2520.50854,0.19158
2522.43701,0.18999
2524.36547,0.19125
2526.29394,0.19398
2528.22241,0.19337
2530.15088,0.19049
2532.07935,0.18940
2534.00782,0.19037
2535.93629,0.18966
2537.86476,0.18758
2539.79322,0.18776
2541.72169,0.18927
2543.65016,0.19014
2545.57863,0.19166
2547.50710,0.19435
2549.43557,0.19510
2551.36404,0.19367
2553.29250,0.19394
2555.22097,0.19544
2557.14944,0.19577
2559.07791,0.19477
2561.00638,0.19113
2562.93485,0.18720
2564.86332,0.18820
2566.79179,0.19086
2568.72025,0.19067
2570.64872,0.19055
2572.57719,0.19134
2574.50566,0.19196
2576.43413,0.19293
2578.36260,0.19329
2580.29107,0.19276
2582.21953,0.19304
2584.14800,0.19445
2586.07647,0.19531
2588.00494,0.19546
2589.93341,0.19571
2591.86188,0.19568
2593.79035,0.19502
2595.71882,0.19386
2597.64728,0.19345
2599.57575,0.19519
2601.50422,0.19882
2603.43269,0.20203
2605.36116,0.20219
2607.28963,0.20050
2609.21810,0.20059
2611.14656,0.20193
2613.07503,0.20087
2615.00350,0.19746
2616.93197,0.19452
2618.86044,0.19412
2620.78891,0.19714
2622.71738,0.20036
2624.64585,0.19902
2626.57431,0.19488
2628.50278,0.19354
2630.43125,0.19524
2632.35972,0.19630
2634.28819,0.19501
2636.21666,0.19256
2638.14513,0.19074
2640.07359,0.19082
2642.00206,0.19308
2643.93053,0.19577
2645.85900,0.19739
2647.78747,0.19737
2649.71594,0.19797
2651.64441,0.20162
2653.57288,0.20426
2655.50134,0.20372
2657.42981,0.20168
2659.35828,0.19749
2661.28675,0.19350
2663.21522,0.19281
2665.14369,0.19389
2667.07216,0.19526
2669.00062,0.19615
2670.92909,0.19589
2672.85756,0.19542
2674.78603,0.19539
2676.71450,0.19593
2678.64297,0.19653
2680.57144,0.19632
2682.49990,0.19590
2684.42837,0.19558
2686.35684,0.19574
2688.28531,0.19683
2690.21378,0.19737
2692.14225,0.19654
2694.07072,0.19654
2695.99919,0.19843
2697.92765,0.19864
2699.85612,0.19527
2701.78459,0.19344
2703.71306,0.19583
2705.64153,0.19769
2707.57000,0.19729
2709.49847,0.19772
2711.42693,0.19749
2713.35540,0.19458
2715.28387,0.19417
2717.21234,0.19779
2719.14081,0.19935
2721.06928,0.19844
2722.99775,0.19983
2724.92622,0.20283
2726.85468,0.20206
2728.78315,0.19708
2730.71162,0.19401
2732.64009,0.19581
2734.56856,0.19846
2736.49703,0.19815
2738.42550,0.19632
2740.35396,0.19456
2742.28243,0.19400
2744.21090,0.19749
2746.13937,0.20307
2748.06784,0.20524
2749.99631,0.20426
2751.92478,0.20398
2753.85325,0.20343
2755.78171,0.20102
2757.71018,0.19967
2759.63865,0.20015
2761.56712,0.20177
2763.49559,0.20535
2765.42406,0.20776
2767.35253,0.20612
2769.28099,0.20372
2771.20946,0.20446
2773.13793,0.20773
2775.06640,0.20949
2776.99487,0.20798
2778.92334,0.20589
2780.85181,0.20516
2782.78028,0.20634
2784.70874,0.20892
2786.63721,0.20952
2788.56568,0.20771
2790.49415,0.20602
2792.42262,0.20506
2794.35109,0.20583
2796.27956,0.20746
2798.20802,0.20659
2800.13649,0.20552
2802.06496,0.20817
2803.99343,0.21041
2805.92190,0.20864
2807.85037,0.20732
2809.77884,0.20881
2811.70731,0.21037
2813.63577,0.21037
2815.56424,0.20957
2817.49271,0.20947
2819.42118,0.20879
2821.34965,0.20605
2823.27812,0.20497
2825.20659,0.20717
2827.13505,0.20935
2829.06352,0.21011
2830.99199,0.20839
2832.92046,0.20517
2834.84893,0.20417
2836.77740,0.20499
2838.70587,0.20595
2840.63433,0.20689
2842.56280,0.20752
2844.49127,0.20726
2846.41974,0.20673
2848.34821,0.20912
2850.27668,0.21291
2852.20515,0.21260
2854.13362,0.20835
2856.06208,0.20393
2857.99055,0.20293
2859.91902,0.20456
2861.84749,0.20327
2863.77596,0.20002
2865.70443,0.20064
2867.63290,0.20359
2869.56136,0.20305
2871.48983,0.20051
2873.41830,0.20117
2875.34677,0.20347
2877.27524,0.20431
2879.20371,0.20458
2881.13218,0.20442
2883.06065,0.20248
2884.98911,0.19864
2886.91758,0.19627
2888.84605,0.19943
2890.77452,0.20482
2892.70299,0.20533
2894.63146,0.20167
2896.55993,0.20023
2898.48839,0.20212
2900.41686,0.20430
2902.34533,0.20686
2904.27380,0.20910
2906.20227,0.20892
2908.13074,0.20775
2910.05921,0.20662
2911.98768,0.20587
2913.91614,0.20453
2915.84461,0.20006
2917.77308,0.19513
2919.70155,0.19475
2921.63002,0.19924
2923.55849,0.20201
2925.48696,0.20004
2927.41542,0.20130
2929.34389,0.20263
2931.27236,0.19566
2933.20083,0.19045
2935.12930,0.19216
2937.05777,0.19513
2938.98624,0.20100
2940.91471,0.20720
2942.84317,0.20825
2944.77164,0.20422
2946.70011,0.19725
2948.62858,0.19408
2950.55705,0.19682
2952.48552,0.19980
2954.41399,0.19865
2956.34245,0.19282
2958.27092,0.19036
2960.19939,0.19789
2962.12786,0.20898
2964.05633,0.21451
2965.98480,0.21185
2967.91327,0.20750
2969.84174,0.20958
2971.77020,0.21395
2973.69867,0.21215
2975.62714,0.20404
2977.55561,0.19754
2979.48408,0.19967
2981.41255,0.20570
2983.34102,0.21000
2985.26948,0.21178
2987.19795,0.20837
2989.12642,0.20480
2991.05489,0.20709
2992.98336,0.21199
2994.91183,0.21551
2996.84030,0.21596
2998.76877,0.21644
3000.69723,0.21833
3002.62570,0.21714
3004.55417,0.21347
3006.48264,0.21088
3008.41111,0.20873
3010.33958,0.20399
3012.26805,0.19394
3014.19651,0.17518
3016.12498,0.15569
3018.05345,0.16008
3019.98192,0.18687
3021.91039,0.20459
3023.83886,0.20590
3025.76733,0.20383
3027.69579,0.20218
3029.62426,0.20356
3031.55273,0.21040
3033.48120,0.21454
3035.40967,0.20969
3037.33814,0.20239
3039.26661,0.19989
3041.19508,0.20036
3043.12354,0.20103
3045.05201,0.20291
3046.98048,0.20547
3048.90895,0.20770
3050.83742,0.20883
3052.76589,0.21034
3054.69436,0.21169
3056.62282,0.20877
3058.55129,0.20689
3060.47976,0.20977
3062.40823,0.21111
3064.33670,0.20887
3066.26517,0.20634
3068.19364,0.20842
3070.12211,0.21315
3072.05057,0.21333
3073.97904,0.20906
3075.90751,0.20548
3077.83598,0.20637
3079.76445,0.20996
3081.69292,0.21093
3083.62139,0.20520
3085.54985,0.19728
3087.47832,0.19766
3089.40679,0.20544
3091.33526,0.21049
3093.26373,0.20671
3095.19220,0.20098
3097.12067,0.20263
3099.04914,0.20906
3100.97760,0.21468
3102.90607,0.21458
3104.83454,0.21151
3106.76301,0.21086
3108.69148,0.20813
3110.61995,0.20247
3112.54842,0.20120
3114.47688,0.20628
3116.40535,0.20970
3118.33382,0.20858
3120.26229,0.20785
3122.19076,0.20755
3124.11923,0.20799
3126.04770,0.21210
3127.97617,0.21698
3129.90463,0.21877
3131.83310,0.22031
3133.76157,0.22010
3135.69004,0.21391
3137.61851,0.20875
3139.54698,0.21132
3141.47545,0.21664
3143.40391,0.21683
3145.33238,0.21238
3147.26085,0.21011
3149.18932,0.21382
3151.11779,0.22070
3153.04626,0.22222
3154.97473,0.21409
3156.90320,0.20564
3158.83166,0.20689
3160.76013,0.21183
3162.68860,0.21056
3164.61707,0.20722
3166.54554,0.20751
3168.47401,0.20995
3170.40248,0.21507
3172.33094,0.21937
3174.25941,0.21913
3176.18788,0.21971
3178.11635,0.22413
3180.04482,0.22777
3181.97329,0.22524
3183.90176,0.22092
3185.83022,0.21951
3187.75869,0.21490
3189.68716,0.20829
3191.61563,0.20712
3193.54410,0.21011
3195.47257,0.21412
3197.40104,0.21723
3199.32951,0.21657
3201.25797,0.21426
3203.18644,0.21279
3205.11491,0.20974
3207.04338,0.20808
3208.97185,0.21146
3210.90032,0.21477
3212.82879,0.21583
3214.75725,0.21672
3216.68572,0.21706
3218.61419,0.21661
3220.54266,0.21451
3222.47113,0.21215
3224.39960,0.21160
3226.32807,0.21134
3228.25654,0.21199
3230.18500,0.21404
3232.11347,0.21413
3234.04194,0.21267
3235.97041,0.21291
3237.89888,0.21300
3239.82735,0.21275
3241.75582,0.21402
3243.68428,0.21278
3245.61275,0.20976
3247.54122,0.20891
3249.46969,0.20733
3251.39816,0.20710
3253.32663,0.21155
3255.25510,0.21423
3257.18357,0.21395
3259.11203,0.21609
3261.04050,0.21771
3262.96897,0.21480
3264.89744,0.21132
3266.82591,0.21261
3268.75438,0.21686
3270.68285,0.21735
3272.61131,0.21234
3274.53978,0.20615
3276.46825,0.20532
3278.39672,0.20973
3280.32519,0.20915
3282.25366,0.20311
3284.18213,0.20324
3286.11060,0.21019
3288.03906,0.21442
3289.96753,0.21254
3291.89600,0.20892
3293.82447,0.20804
3295.75294,0.20915
3297.68141,0.21137
3299.60988,0.21328
3301.53834,0.21237
3303.46681,0.21237
3305.39528,0.21450
3307.32375,0.21324
3309.25222,0.20824
3311.18069,0.20447
3313.10916,0.20528
3315.03763,0.21027
3316.96609,0.21443
3318.89456,0.21532
3320.82303,0.21911
3322.75150,0.22615
3324.67997,0.22722
3326.60844,0.21900
3328.53691,0.20883
3330.46537,0.20635
3332.39384,0.20993
3334.32231,0.21441
3336.25078,0.22076
3338.17925,0.22401
3340.10772,0.21968
3342.03619,0.21316
3343.96466,0.20981
3345.89312,0.21096
3347.82159,0.21312
3349.75006,0.21245
3351.67853,0.21047
3353.60700,0.21057
3355.53547,0.21589
3357.46394,0.22339
3359.39240,0.22460
3361.32087,0.21914
3363.24934,0.21724
3365.17781,0.22442
3367.10628,0.23117
3369.03475,0.23048
3370.96322,0.22597
3372.89168,0.21865
3374.82015,0.21025
3376.74862,0.20865
3378.67709,0.21363
3380.60556,0.21674
3382.53403,0.21808
3384.46250,0.21918
3386.39097,0.21605
3388.31943,0.21076
3390.24790,0.20968
3392.17637,0.21357
3394.10484,0.21701
3396.03331,0.21689
3397.96178,0.21546
3399.89025,0.21406
3401.81871,0.21198
3403.74718,0.21248
3405.67565,0.21583
3407.60412,0.21346
3409.53259,0.20589
3411.46106,0.20535
3413.38953,0.21370
3415.31800,0.21894
3417.24646,0.21533
3419.17493,0.20998
3421.10340,0.20882
3423.03187,0.20834
3424.96034,0.20226
3426.88881,0.19561
3428.81728,0.19660
3430.74574,0.20129
3432.67421,0.20362
3434.60268,0.20455
3436.53115,0.20562
3438.45962,0.20645
3440.38809,0.20746
3442.31656,0.20686
3444.24503,0.20461
3446.17349,0.20518
3448.10196,0.20731
3450.03043,0.20781
3451.95890,0.20796
3453.88737,0.20783
3455.81584,0.20677
3457.74431,0.20465
3459.67277,0.20149
3461.60124,0.20077
3463.52971,0.20133
3465.45818,0.19628
3467.38665,0.19012
3469.31512,0.19082
3471.24359,0.19428
3473.17206,0.19404
3475.10052,0.19133
3477.02899,0.19166
3478.95746,0.19550
3480.88593,0.19643
3482.81440,0.19297
3484.74287,0.19125
3486.67134,0.19071
3488.59980,0.18637
3490.52827,0.18094
3492.45674,0.18206
3494.38521,0.18828
3496.31368,0.19119
3498.24215,0.19074
3500.17062,0.18877
3502.09909,0.18515
3504.02755,0.18361
3505.95602,0.18456
3507.88449,0.18641
3509.81296,0.18752
3511.74143,0.18590
3513.66990,0.18363
3515.59837,0.18163
3517.52683,0.17767
3519.45530,0.17359
3521.38377,0.17615
3523.31224,0.18530
3525.24071,0.19142
3527.16918,0.19121
3529.09765,0.18663
3531.02611,0.17881
3532.95458,0.17380
3534.88305,0.17384
3536.81152,0.17361
3538.73999,0.17075
3540.66846,0.16893
3542.59693,0.17159
3544.52540,0.17553
3546.45386,0.17650
3548.38233,0.17834
3550.31080,0.18180
3552.23927,0.18110
3554.16774,0.17299
3556.09621,0.16440
3558.02468,0.16477
3559.95314,0.16956
3561.88161,0.17050
3563.81008,0.17442
3565.73855,0.18408
3567.66702,0.18189
3569.59549,0.16929
3571.52396,0.16543
3573.45243,0.16487
3575.38089,0.15855
3577.30936,0.15335
3579.23783,0.15540
3581.16630,0.15821
3583.09477,0.15936
3585.02324,0.16280
3586.95171,0.16513
3588.88017,0.16293
3590.80864,0.16408
3592.73711,0.16765
3594.66558,0.16593
3596.59405,0.16109
3598.52252,0.15948
3600.45099,0.15775
3602.37946,0.15341
3604.30792,0.15146
3606.23639,0.15661
3608.16486,0.16271
3610.09333,0.16428
3612.02180,0.17042
3613.95027,0.17606
3615.87874,0.17361
3617.80720,0.17216
3619.73567,0.16996
3621.66414,0.15930
3623.59261,0.15009
3625.52108,0.14879
3627.44955,0.15421
3629.37802,0.16132
3631.30649,0.16139
3633.23495,0.15550
3635.16342,0.14615
3637.09189,0.14077
3639.02036,0.14360
3640.94883,0.14710
3642.87730,0.14689
3644.80577,0.14913
3646.73423,0.15955
3648.66270,0.17073
3650.59117,0.16062
3652.51964,0.14564
3654.44811,0.13879
3656.37658,0.13429
3658.30505,0.13206
3660.23352,0.13403
3662.16198,0.13676
3664.09045,0.13821
3666.01892,0.14128
3667.94739,0.14883
3669.87586,0.15397
3671.80433,0.15358
3673.73280,0.16246
3675.66126,0.17082
3677.58973,0.15814
3679.51820,0.14455
3681.44667,0.13754
3683.37514,0.13406
3685.30361,0.13392
3687.23208,0.13858
3689.16055,0.14719
3691.08901,0.14932
3693.01748,0.14431
3694.94595,0.14087
3696.87442,0.13919
3698.80289,0.13731
3700.73136,0.13784
3702.65983,0.13971
3704.58829,0.13809
3706.51676,0.13918
3708.44523,0.14994
3710.37370,0.16094
3712.30217,0.15215
3714.23064,0.13494
3716.15911,0.12686
3718.08757,0.12748
3720.01604,0.13333
3721.94451,0.14332
3723.87298,0.15282
3725.80145,0.15173
3727.72992,0.14223
3729.65839,0.14027
3731.58686,0.15342
3733.51532,0.17173
3735.44379,0.17205
3737.37226,0.15416
3739.30073,0.14223
3741.22920,0.14175
3743.15767,0.14789
3745.08614,0.15459
3747.01460,0.15688
3748.94307,0.15948
3750.87154,0.16017
3752.80001,0.14964
3754.72848,0.13892
3756.65695,0.13732
3758.58542,0.13955
3760.51389,0.13500
3762.44235,0.13304
3764.37082,0.14204
3766.29929,0.15073
3768.22776,0.14809
3770.15623,0.13612
3772.08470,0.12420
3774.01317,0.12043
3775.94163,0.12295
3777.87010,0.12828
3779.79857,0.13262
3781.72704,0.13407
3783.65551,0.13331
3785.58398,0.12999
3787.51245,0.13003
3789.44092,0.13357
3791.36938,0.13336
3793.29785,0.13277
3795.22632,0.13661
3797.15479,0.13962
3799.08326,0.14296
3801.01173,0.14889
3802.94020,0.14536
3804.86866,0.14108
3806.79713,0.14025
3808.72560,0.13141
3810.65407,0.12237
3812.58254,0.12318
3814.51101,0.13499
3816.43948,0.14983
3818.36795,0.15678
3820.29641,0.15800
3822.22488,0.14724
3824.15335,0.13235
3826.08182,0.12293
3828.01029,0.11823
3829.93876,0.11851
3831.86723,0.12443
3833.79569,0.13418
3835.72416,0.14093
3837.65263,0.13948
3839.58110,0.13362
3841.50957,0.13258
3843.43804,0.13515
3845.36651,0.13456
3847.29498,0.12970
3849.22344,0.12564
3851.15191,0.12965
3853.08038,0.14519
3855.00885,0.14831
3856.93732,0.13666
3858.86579,0.12647
3860.79426,0.12079
3862.72272,0.11945
3864.65119,0.11928
3866.57966,0.11717
3868.50813,0.11625
3870.43660,0.12133
3872.36507,0.12693
3874.29354,0.12602
3876.22200,0.12398
3878.15047,0.12839
3880.07894,0.13367
3882.00741,0.12986
3883.93588,0.12415
3885.86435,0.12083
3887.79282,0.11921
3889.72129,0.11973
3891.64975,0.11972
3893.57822,0.11684
3895.50669,0.11286
3897.43516,0.11120
3899.36363,0.11613
3901.29210,0.12968
3903.22057,0.14416
3905.14903,0.14315
3907.07750,0.12867
3909.00597,0.11926
3910.93444,0.11840
3912.86291,0.11852
3914.79138,0.11753
3916.71985,0.11592
3918.64832,0.11348
3920.57678,0.11367
3922.50525,0.11627
3924.43372,0.11818
3926.36219,0.11853
3928.29066,0.11930
3930.21913,0.12438
3932.14760,0.13026
3934.07606,0.12762
3936.00453,0.12062
3937.93300,0.11492
3939.86147,0.11180
3941.78994,0.11141
3943.71841,0.10591
3945.64688,0.09670
3947.57535,0.09530
3949.50381,0.10238
3951.43228,0.11020
3953.36075,0.11210
3955.28922,0.10828
3957.21769,0.10522
3959.14616,0.10637
3961.07463,0.11026
3963.00309,0.11566
3964.93156,0.11995
3966.86003,0.11895
3968.78850,0.11264
3970.71697,0.10539
3972.64544,0.10221
3974.57391,0.10309
3976.50238,0.10409
3978.43084,0.10775
3980.35931,0.11297
3982.28778,0.11123
3984.21625,0.10688
3986.14472,0.10998
3988.07319,0.11735
3990.00166,0.11893
3991.93012,0.11245
3993.85859,0.10893
3995.78706,0.11430
3997.71553,0.11644
3999.64400,0.10884
4001.57247,0.10181
4003.50094,0.10220
4005.42941,0.10530
4007.35787,0.10609
4009.28634,0.10752
4011.21481,0.11278
4013.14328,0.11448
4015.07175,0.10688
4017.00022,0.10024
4018.92869,0.09993
4020.85715,0.09869
4022.78562,0.09894
4024.71409,0.10128
4026.64256,0.09966
4028.57103,0.10182
4030.49950,0.11051
4032.42797,0.11134
4034.35644,0.10191
4036.28490,0.09404
4038.21337,0.09139
4040.14184,0.09260
4042.07031,0.09621
4043.99878,0.09830
4045.92725,0.09861
4047.85572,0.10004
4049.78418,0.10109
4051.71265,0.10242
4053.64112,0.10627
4055.56959,0.10451
4057.49806,0.09631
4059.42653,0.09208
4061.35500,0.09105
4063.28346,0.08941
4065.21193,0.09097
4067.14040,0.09526
4069.06887,0.09686
4070.99734,0.09807
4072.92581,0.10273
4074.85428,0.10629
4076.78275,0.10508
4078.71121,0.10153
4080.63968,0.10039
4082.56815,0.10108
4084.49662,0.09852
4086.42509,0.09466
4088.35356,0.09222
4090.28203,0.08939
4092.21049,0.08715
4094.13896,0.08655
4096.06743,0.08975
4097.99590,0.09637
4099.92437,0.09947
4101.85284,0.09758
4103.78131,0.09549
4105.70978,0.09567
4107.63824,0.09515
4109.56671,0.09464
4111.49518,0.09773
4113.42365,0.09925
4115.35212,0.09747
4117.28059,0.09678
4119.20906,0.09510
4121.13752,0.09031
4123.06599,0.08691
4124.99446,0.08645
4126.92293,0.08496
4128.85140,0.08347
4130.77987,0.08538
4132.70834,0.09026
4134.63681,0.09694
4136.56527,0.10139
4138.49374,0.09849
4140.42221,0.08906
4142.35068,0.08157
4144.27915,0.08324
4146.20762,0.08595
4148.13609,0.08213
4150.06455,0.08271
4151.99302,0.09120
4153.92149,0.09519
4155.84996,0.09048
4157.77843,0.08478
4159.70690,0.08332
4161.63537,0.08416
4163.56384,0.08420
4165.49230,0.08322
4167.42077,0.08159
4169.34924,0.07854
4171.27771,0.07600
4173.20618,0.07689
4175.13465,0.08165
4177.06312,0.08822
4178.99158,0.09110
4180.92005,0.08819
4182.84852,0.08469
4184.77699,0.08343
4186.70546,0.08168
4188.63393,0.07916
4190.56240,0.07723
4192.49087,0.07368
4194.41933,0.06734
4196.34780,0.06309
4198.27627,0.06784
4200.20474,0.07850
4202.13321,0.08502
4204.06168,0.08413
4205.99015,0.07665
4207.91861,0.06919
4209.84708,0.07168
4211.77555,0.07914
4213.70402,0.08251
4215.63249,0.08185
4217.56096,0.07860
4219.48943,0.07819
4221.41789,0.07962
4223.34636,0.07535
4225.27483,0.07165
4227.20330,0.07607
4229.13177,0.08194
4231.06024,0.08004
4232.98871,0.07267
4234.91718,0.06835
4236.84564,0.06553
4238.77411,0.06299
4240.70258,0.06684
4242.63105,0.07502
4244.55952,0.08118
4246.48799,0.08297
4248.41646,0.08154
4250.34492,0.07847
4252.27339,0.07165
4254.20186,0.06316
4256.13033,0.05847
4258.05880,0.05660
4259.98727,0.05404
4261.91574,0.05237
4263.84421,0.05424
4265.77267,0.05564
4267.70114,0.05479
4269.62961,0.05765
4271.55808,0.06514
4273.48655,0.07302
4275.41502,0.07589
4277.34349,0.07110
4279.27195,0.06640
4281.20042,0.06485
4283.12889,0.06217
4285.05736,0.06268
4286.98583,0.06792
4288.91430,0.07002
4290.84277,0.06495
4292.77124,0.05554
4294.69970,0.04907
4296.62817,0.05154
4298.55664,0.05706
4300.48511,0.05678
4302.41358,0.05475
4304.34205,0.05917
4306.27052,0.06632
4308.19898,0.06895
4310.12745,0.06988
4312.05592,0.06837
4313.98439,0.06196
4315.91286,0.05799
4317.84133,0.05614
4319.76980,0.05063
4321.69827,0.04572
4323.62673,0.04567
4325.55520,0.04808
4327.48367,0.05039
4329.41214,0.04898
4331.34061,0.04341
4333.26908,0.04136
4335.19755,0.04583
4337.12601,0.05016
4339.05448,0.04783
4340.98295,0.04351
4342.91142,0.04630
4344.83989,0.05397
4346.76836,0.06059
4348.69683,0.06267
4350.62530,0.05859
4352.55376,0.05262
4354.48223,0.04712
4356.41070,0.04114
4358.33917,0.03864
4360.26764,0.04053
4362.19611,0.03863
4364.12458,0.03503
4366.05304,0.04126
4367.98151,0.04912
4369.90998,0.04088
4371.83845,0.02585
4373.76692,0.02541
4375.69539,0.03533
4377.62386,0.04449
4379.55232,0.05433
4381.48079,0.05955
4383.40926,0.05592
4385.33773,0.04919
4387.26620,0.04352
4389.19467,0.03907
4391.12314,0.03282
4393.05161,0.03188
4394.98007,0.04128
4396.90854,0.04462
4398.83701,0.03865
4400.76548,0.03547
4402.69395,0.03470
4404.62242,0.03315
4406.55089,0.03062
4408.47935,0.03070
4410.40782,0.03787
4412.33629,0.04561
4414.26476,0.04611
4416.19323,0.04041
4418.12170,0.03162
4420.05017,0.02383
4421.97864,0.02176
4423.90710,0.02419
4425.83557,0.02863
4427.76404,0.03421
4429.69251,0.03497
4431.62098,0.02940
4433.54945,0.02663
4435.47792,0.03391
4437.40638,0.04851
4439.33485,0.05589
4441.26332,0.04796
4443.19179,0.03886
4445.12026,0.03922
4447.04873,0.04102
4448.97720,0.03744
4450.90567,0.03296
4452.83413,0.03161
4454.76260,0.03110
4456.69107,0.02936
4458.61954,0.02343
4460.54801,0.01627
4462.47648,0.01635
4464.40495,0.01797
4466.33341,0.01666
4468.26188,0.02040
4470.19035,0.02571
4472.11882,0.02540
4474.04729,0.02565
4475.97576,0.03142
4477.90423,0.03632
4479.83270,0.03212
4481.76116,0.02186
4483.68963,0.01610
4485.61810,0.01712
4487.54657,0.02163
4489.47504,0.02622
4491.40351,0.02077
4493.33198,0.00944
4495.26044,0.01024
4497.18891,0.01923
4499.11738,0.02506
4501.04585,0.02947
4502.97432,0.03233
4504.90279,0.02903
4506.83126,0.02540
4508.75973,0.02664
4510.68819,0.02629
4512.61666,0.02567
4514.54513,0.02701
4516.47360,0.02314
4518.40207,0.01058
4520.33054,-0.00243
4522.25901,-0.00585
4524.18747,0.00011
4526.11594,0.01611
4528.04441,0.03101
4529.97288,0.02456
4531.90135,0.00981
4533.82982,0.00991
4535.75829,0.01415
4537.68676,0.01063
4539.61522,0.01262
4541.54369,0.01954
4543.47216,0.01979
4545.40063,0.02181
4547.32910,0.02712
4549.25757,0.02525
4551.18604,0.01837
4553.11450,0.01169
4555.04297,0.00539
4556.97144,0.00364
4558.89991,0.00934
4560.82838,0.01136
4562.75685,0.00522
4564.68532,0.00388
4566.61378,0.00737
4568.54225,0.01243
4570.47072,0.02719
4572.39919,0.03994
4574.32766,0.03322
4576.25613,0.01659
4578.18460,0.00436
4580.11307,-0.00134
4582.04153,0.00116
4583.97000,0.00589
4585.89847,0.00577
4587.82694,0.00701
4589.75541,0.01157
4591.68388,0.01401
4593.61235,0.01476
4595.54081,0.01997
4597.46928,0.02798
4599.39775,0.02858
4601.32622,0.02267
4603.25469,0.01544
4605.18316,0.00995
4607.11163,0.01238
4609.04010,0.01911
4610.96856,0.01972
4612.89703,0.01247
4614.82550,0.00383
4616.75397,0.00286
4618.68244,0.00907
4620.61091,0.00679
4622.53938,-0.00183
4624.46784,0.00479
4626.39631,0.02022
4628.32478,0.02168
4630.25325,0.01271
4632.18172,0.00757
4634.11019,0.00616
4636.03866,0.00840
4637.96713,0.01594
4639.89559,0.01385
4641.82406,0.00147
4643.75253,0.00030
4645.68100,0.00778
4647.60947,0.00902
4649.53794,0.00762
4651.46641,0.00799
4653.39487,0.00996
4655.32334,0.01673
4657.25181,0.02331
4659.18028,0.02072
4661.10875,0.00858
4663.03722,-0.00407
4664.96569,-0.00447
4666.89416,0.00643
4668.82262,0.01452
4670.75109,0.01392
4672.67956,0.00738
4674.60803,0.00020
4676.53650,-0.00042
4678.46497,0.00060
4680.39344,-0.00415
4682.32190,-0.00920
4684.25037,-0.00829
4686.17884,0.00058
4688.10731,0.01234
4690.03578,0.02088
4691.96425,0.02217
4693.89272,0.01556
4695.82119,0.01311
4697.74965,0.01661
4699.67812,0.01777
4701.60659,0.01873
4703.53506,0.01945
4705.46353,0.02009
4707.39200,0.02018
4709.32047,0.01512
4711.24893,0.00692
4713.17740,0.00197
4715.10587,0.00669
4717.03434,0.01547
4718.96281,0.01921
4720.89128,0.01755
4722.81975,0.01019
4724.74821,0.00475
4726.67668,0.00430
4728.60515,0.00428
4730.53362,0.00780
4732.46209,0.01062
4734.39056,0.00603
4736.31903,0.00358
4738.24750,0.01305
4740.17596,0.02130
4742.10443,0.01993
4744.03290,0.02135
4745.96137,0.02300
4747.88984,0.01559
4749.81831,0.00140
4751.74678,-0.01121
4753.67524,-0.01016
4755.60371,0.00056
4757.53218,0.00873
4759.46065,0.01437
4761.38912,0.01664
4763.31759,0.00977
4765.24606,-0.00187
4767.17453,-0.00655
4769.10299,-0.00391
4771.03146,0.00109
4772.95993,0.00373
4774.88840,-0.00212
4776.81687,-0.01017
4778.74534,-0.01319
4780.67381,-0.01103
4782.60227,-0.00089
4784.53074,0.01072
4786.45921,0.01201
4788.38768,0.00717
4790.31615,0.00368
4792.24462,0.00522
4794.17309,0.00965
4796.10156,0.00912
4798.03002,0.00668
4799.95849,0.01123
4801.88696,0.01933
4803.81543,0.02121
4805.74390,0.01464
4807.67237,0.00906
4809.60084,0.01540
4811.52930,0.02738
4813.45777,0.02895
4815.38624,0.02117
4817.31471,0.01553
4819.24318,0.01004
4821.17165,0.00411
4823.10012,0.00227
4825.02859,-0.00126
4826.95705,-0.00388
4828.88552,0.00081
4830.81399,0.00510
4832.74246,0.00572
4834.67093,0.00663
4836.59940,0.00580
4838.52787,0.00270
4840.45633,0.00507
4842.38480,0.00609
4844.31327,-0.00520
4846.24174,-0.01438
4848.17021,-0.00856
4850.09868,0.00477
4852.02715,0.01291
4853.95562,0.01242
4855.88408,0.01311
4857.81255,0.02178
4859.74102,0.02756
4861.66949,0.01830
4863.59796,0.00561
4865.52643,0.00158
4867.45490,-0.00089
4869.38336,0.00137
4871.31183,0.01973
4873.24030,0.04005
4875.16877,0.03849
4877.09724,0.01838
4879.02571,0.00179
4880.95418,-0.00227
4882.88265,-0.00296
4884.81111,-0.00640
4886.73958,-0.01013
4888.66805,-0.00923
4890.59652,-0.00441
4892.52499,0.00049
4894.45346,0.00825
4896.38193,0.01942
4898.31039,0.02729
4900.23886,0.02944
4902.16733,0.02898
4904.09580,0.02438
4906.02427,0.02007
4907.95274,0.02486
4909.88121,0.02922
4911.80967,0.02322
4913.73814,0.01726
4915.66661,0.01994
4917.59508,0.02486
4919.52355,0.02342
4921.45202,0.01750
4923.38049,0.00736
4925.30896,-0.00882
4927.23742,-0.01372
4929.16589,-0.00231
4931.09436,0.00765
4933.02283,0.00903
4934.95130,0.00326
4936.87977,0.00166
4938.80824,0.01707
4940.73670,0.03741
4942.66517,0.04526
4944.59364,0.03884
4946.52211,0.02286
4948.45058,0.00593
4950.37905,-0.00154
4952.30752,0.00131
4954.23599,0.00630
4956.16445,0.00857
4958.09292,0.00818
4960.02139,0.00585
4961.94986,0.00699
4963.87833,0.00829
4965.80680,-0.00199
4967.73527,-0.01246
4969.66373,-0.00843
4971.59220,-0.00185
4973.52067,-0.00259
4975.44914,-0.00453
4977.37761,-0.00069
4979.30608,0.01443
4981.23455,0.03128
4983.16302,0.03374
4985.09148,0.02714
4987.01995,0.02036
4988.94842,0.01402
4990.87689,0.00526
4992.80536,-0.00628
4994.73383,-0.00811
4996.66230,0.00274
4998.59076,0.00952
5000.51923,0.00401
5002.44770,-0.00251
5004.37617,0.00060
5006.30464,0.00640
5008.23311,0.01270
5010.16158,0.01980
5012.09005,0.01937
5014.01851,0.01802
5015.94698,0.02002
5017.87545,0.02030
5019.80392,0.02120
5021.73239,0.01971
5023.66086,0.02198
5025.58933,0.03171
5027.51779,0.03395
5029.44626,0.02978
5031.37473,0.02643
5033.30320,0.01906
5035.23167,0.00003
5037.16014,-0.02414
5039.08861,-0.03186
5041.01708,-0.01973
5042.94554,-0.00145
5044.87401,0.00853
5046.80248,0.00252
5048.73095,0.00167
5050.65942,0.02007
5052.58789,0.03851
5054.51636,0.04025
5056.44482,0.02461
5058.37329,0.00846
5060.30176,0.00677
5062.23023,0.01288
5064.15870,0.02230
5066.08717,0.02531
5068.01564,0.01303
5069.94410,0.00835
5071.87257,0.02164
5073.80104,0.02730
5075.72951,0.01594
5077.65798,0.00587
5079.58645,0.00912
5081.51492,0.02224
5083.44339,0.03330
5085.37185,0.03104
5087.30032,0.02050
5089.22879,0.01804
5091.15726,0.02154
5093.08573,0.02024
5095.01420,0.01961
5096.94267,0.02231
5098.87113,0.02486
5100.79960,0.02864
5102.72807,0.03340
5104.65654,0.03626
5106.58501,0.03475
5108.51348,0.03006
5110.44195,0.02743
5112.37042,0.02576
5114.29888,0.02196
5116.22735,0.02174
5118.15582,0.02731
5120.08429,0.03505
5122.01276,0.03796
5123.94123,0.03154
5125.86970,0.02320
5127.79816,0.01300
5129.72663,-0.00210
5131.65510,-0.00704
5133.58357,0.00974
5135.51204,0.03514
5137.44051,0.04717
5139.36898,0.04037
5141.29745,0.03012
5143.22591,0.03145
5145.15438,0.03844
5147.08285,0.04508
5149.01132,0.05994
5150.93979,0.07181
5152.86826,0.05754
5154.79673,0.03545
5156.72519,0.04366
5158.65366,0.06936
5160.58213,0.07163
5162.51060,0.04758
5164.43907,0.02421
5166.36754,0.01317
5168.29601,0.01096
5170.22448,0.02120
5172.15294,0.03194
5174.08141,0.03006
5176.00988,0.02576
5177.93835,0.02586
5179.86682,0.03409
5181.79529,0.04804
5183.72376,0.05177
5185.65222,0.04421
5187.58069,0.03780
5189.50916,0.03039
5191.43763,0.01658
5193.36610,0.00953
5195.29457,0.01506
5197.22304,0.01742
5199.15151,0.01831
5201.07997,0.03083
5203.00844,0.04295
5204.93691,0.03082
5206.86538,0.00554
5208.79385,0.00913
5210.72232,0.02340
5212.65079,0.02182
5214.57925,0.02637
5216.50772,0.04561
5218.43619,0.06107
5220.36466,0.06511
5222.29313,0.06503
5224.22160,0.06433
5226.15007,0.05949
5228.07854,0.06002
5230.00700,0.07524
5231.93547,0.08531
5233.86394,0.08028
5235.79241,0.07760
5237.72088,0.07105
5239.64935,0.04977
5241.57782,0.03254
5243.50628,0.03229
5245.43475,0.03487
5247.36322,0.02747
5249.29169,0.02548
5251.22016,0.03694
5253.14863,0.04469
5255.07710,0.04299
5257.00556,0.04405
5258.93403,0.05771
5260.86250,0.07336
5262.79097,0.06976
5264.71944,0.04630
5266.64791,0.02865
5268.57638,0.02606
5270.50485,0.02387
5272.43331,0.02125
5274.36178,0.02631
5276.29025,0.03657
5278.21872,0.04730
5280.14719,0.05285
5282.07566,0.05222
5284.00413,0.04605
5285.93259,0.03336
5287.86106,0.02325
5289.78953,0.02446
5291.71800,0.03445
5293.64647,0.04050
5295.57494,0.03203
5297.50341,0.01437
5299.43188,0.00565
5301.36034,0.02033
5303.28881,0.05329
5305.21728,0.07474
5307.14575,0.06024
5309.07422,0.03129
5311.00269,0.03019
5312.93116,0.04855
5314.85962,0.05188
5316.78809,0.04028
5318.71656,0.04202
5320.64503,0.06168
5322.57350,0.07556
5324.50197,0.07079
5326.43044,0.06058
5328.35891,0.06077
5330.28737,0.05527
5332.21584,0.03260
5334.14431,0.02587
5336.07278,0.04497
5338.00125,0.05033
5339.92972,0.03080
5341.85819,0.03056
5343.78665,0.06277
5345.71512,0.08438
5347.64359,0.07385
5349.57206,0.06390
5351.50053,0.07655
5353.42900,0.09111
5355.35747,0.08296
5357.28594,0.07173
5359.21440,0.07144
5361.14287,0.07083
5363.07134,0.06329
5364.99981,0.06178
5366.92828,0.06532
5368.85675,0.06387
5370.78522,0.07104
5372.71368,0.08996
5374.64215,0.09081
5376.57062,0.06730
5378.49909,0.05470
5380.42756,0.05151
5382.35603,0.05601
5384.28450,0.08245
5386.21297,0.10065
5388.14143,0.08654
5390.06990,0.06727
5391.99837,0.06213
5393.92684,0.07524
5395.85531,0.08418
5397.78378,0.06369
5399.71225,0.03303
5401.64071,0.02195
5403.56918,0.02635
5405.49765,0.02894
5407.42612,0.03561
5409.35459,0.05327
5411.28306,0.07335
5413.21153,0.08584
5415.13999,0.07421
5417.06846,0.04991
5418.99693,0.04062
5420.92540,0.03434
5422.85387,0.01946
5424.78234,0.02185
5426.71081,0.04432
5428.63928,0.05603
5430.56774,0.05111
5432.49621,0.05362
5434.42468,0.06746
5436.35315,0.07540
5438.28162,0.05907
5440.21009,0.02410
5442.13856,0.01323
5444.06702,0.04658
5445.99549,0.08825
5447.92396,0.09648
5449.85243,0.07679
5451.78090,0.06619
5453.70937,0.07541
5455.63784,0.09354
5457.56631,0.10573
5459.49477,0.10638
5461.42324,0.09979
5463.35171,0.07518
5465.28018,0.03429
5467.20865,0.01998
5469.13712,0.04547
5471.06559,0.06925
5472.99405,0.08163
5474.92252,0.09195
5476.85099,0.08870
5478.77946,0.07663
5480.70793,0.06981
5482.63640,0.07428
5484.56487,0.08527
5486.49334,0.09113
5488.42180,0.09526
5490.35027,0.10135
5492.27874,0.09162
5494.20721,0.05926
5496.13568,0.02730
5498.06415,0.02286
5499.99262,0.04285
5501.92108,0.05320
5503.84955,0.04885
5505.77802,0.04434
5507.70649,0.03924
5509.63496,0.03526
5511.56343,0.05067
5513.49190,0.08574
5515.42037,0.11795
5517.34883,0.13440
5519.27730,0.12479
5521.20577,0.10066
5523.13424,0.07837
5525.06271,0.05878
5526.99118,0.05143
5528.91965,0.05067
5530.84811,0.04443
5532.77658,0.05093
5534.70505,0.07718
5536.63352,0.08834
5538.56199,0.07693
5540.49046,0.08559
5542.41893,0.10903
5544.34740,0.09345
5546.27586,0.04246
5548.20433,0.01640
5550.13280,0.03588
5552.06127,0.06616
5553.98974,0.07957
5555.91821,0.07259
5557.84668,0.06351
5559.77514,0.07135
5561.70361,0.07638
5563.63208,0.06996
5565.56055,0.07392
5567.48902,0.08226
5569.41749,0.08308
5571.34596,0.07741
5573.27443,0.05688
5575.20289,0.03360
5577.13136,0.04020
5579.05983,0.06957
5580.98830,0.07391
5582.91677,0.04282
5584.84524,0.03293
5586.77371,0.06963
5588.70217,0.10839
5590.63064,0.11789
5592.55911,0.11157
5594.48758,0.09957
5596.41605,0.09305
5598.34452,0.08820
5600.27299,0.06872
5602.20145,0.04833
5604.12992,0.04984
5606.05839,0.07102
5607.98686,0.08770
5609.91533,0.09016
5611.84380,0.06867
5613.77227,0.01819
5615.70074,-0.00906
5617.62920,0.01977
5619.55767,0.07647
5621.48614,0.12502
5623.41461,0.13300
5625.34308,0.08874
5627.27155,0.04038
5629.20002,0.04304
5631.12848,0.07086
5633.05695,0.08366
5634.98542,0.08479
5636.91389,0.08820
5638.84236,0.09626
5640.77083,0.09568
5642.69930,0.08707
5644.62777,0.08866
5646.55623,0.09944
5648.48470,0.10348
5650.41317,0.10737
5652.34164,0.12993
5654.27011,0.14377
5656.19858,0.12546
5658.12705,0.11607
5660.05551,0.11956
5661.98398,0.09650
5663.91245,0.07276
5665.84092,0.08434
5667.76939,0.10544
5669.69786,0.10464
5671.62633,0.08766
5673.55480,0.08853
5675.48326,0.11088
5677.41173,0.11884
5679.34020,0.11176
5681.26867,0.09560
5683.19714,0.06298
5685.12561,0.04753
5687.05408,0.05836
5688.98254,0.07338
5690.91101,0.09704
5692.83948,0.12679
5694.76795,0.15524
5696.69642,0.16826
5698.62489,0.15428
5700.55336,0.14773
5702.48183,0.14947
5704.41029,0.11366
5706.33876,0.05970
5708.26723,0.04826
5710.19570,0.07093
5712.12417,0.07729
5714.05264,0.07704
5715.98111,0.10981
5717.90957,0.15056
5719.83804,0.15555
5721.76651,0.13530
5723.69498,0.10570
5725.62345,0.07584
5727.55192,0.05699
5729.48039,0.03984
5731.40886,0.02638
5733.33732,0.02795
5735.26579,0.03824
5737.19426,0.05925
5739.12273,0.09368
5741.05120,0.10207
5742.97967,0.06948
5744.90814,0.04747
5746.83660,0.05387
5748.76507,0.06934
5750.69354,0.09002
5752.62201,0.09631
5754.55048,0.08168
5756.47895,0.06722
5758.40742,0.06596
5760.33588,0.08614
5762.26435,0.11059
5764.19282,0.11264
5766.12129,0.09792
5768.04976,0.09168
5769.97823,0.09773
5771.90670,0.09741
5773.83517,0.08730
5775.76363,0.07930
5777.69210,0.09394
5779.62057,0.12059
5781.54904,0.11615
5783.47751,0.08720
5785.40598,0.06327
5787.33445,0.05278
5789.26291,0.06458
5791.19138,0.09399
5793.11985,0.11310
5795.04832,0.11485
5796.97679,0.11140
5798.90526,0.09623
5800.83373,0.07629
5802.76220,0.09211
5804.69066,0.13887
5806.61913,0.13353
5808.54760,0.06136
5810.47607,0.00350
5812.40454,0.00786
5814.33301,0.05342
5816.26148,0.07835
5818.18994,0.06434
5820.11841,0.06291
5822.04688,0.08014
5823.97535,0.09002
5825.90382,0.08963
5827.83229,0.06756
5829.76076,0.05381
5831.68923,0.07853
5833.61769,0.09198
5835.54616,0.06259
5837.47463,0.03282
5839.40310,0.04171
5841.33157,0.07810
5843.26004,0.09943
5845.18851,0.08109
5847.11697,0.03234
5849.04544,-0.00423
5850.97391,0.01092
5852.90238,0.04943
5854.83085,0.06538
5856.75932,0.06121
5858.68779,0.07184
5860.61626,0.09364
5862.54472,0.10150
5864.47319,0.09068
5866.40166,0.05132
5868.33013,-0.00446
5870.25860,-0.02466
5872.18707,0.00536
5874.11554,0.03708
5876.04400,0.03416
5877.97247,0.01730
5879.90094,0.03939
5881.82941,0.11444
5883.75788,0.17039
5885.68635,0.15645
5887.61482,0.11243
5889.54329,0.09835
5891.47175,0.11264
5893.40022,0.10431
5895.32869,0.07566
5897.25716,0.07514
5899.18563,0.09875
5901.11410,0.10566
5903.04257,0.08003
5904.97103,0.03860
5906.89950,0.00462
5908.82797,-0.00312
5910.75644,0.02982
5912.68491,0.06617
5914.61338,0.06985
5916.54185,0.07143
5918.47032,0.07930
5920.39878,0.07177
5922.32725,0.05721
5924.25572,0.05875
5926.18419,0.06911
5928.11266,0.06744
5930.04113,0.06425
5931.96960,0.06448
5933.89806,0.06806
5935.82653,0.08032
5937.75500,0.08324
5939.68347,0.05669
5941.61194,0.02489
5943.54041,0.03549
5945.46888,0.06508
5947.39734,0.07534
5949.32581,0.08977
5951.25428,0.11582
5953.18275,0.12697
5955.11122,0.11653
5957.03969,0.09117
5958.96816,0.06055
5960.89663,0.02662
5962.82509,0.00044
5964.75356,0.00218
5966.68203,0.01477
5968.61050,0.04035
5970.53897,0.10369
5972.46744,0.14301
5974.39591,0.09516
5976.32437,0.01733
5978.25284,-0.00642
5980.18131,0.02238
5982.10978,0.05899
5984.03825,0.10785
5985.96672,0.15578
5987.89519,0.14566
5989.82366,0.09993
5991.75212,0.08523
5993.68059,0.11658
5995.60906,0.14310
5997.53753,0.11979
5999.46600,0.08885
6001.39447,0.09542
6003.32294,0.11723
6005.25140,0.09352
6007.17987,0.04134
6009.10834,0.03041
6011.03681,0.04525
6012.96528,0.05869
6014.89375,0.08318
6016.82222,0.10621
6018.75069,0.10279
6020.67915,0.08258
6022.60762,0.08068
6024.53609,0.09595
6026.46456,0.10720
6028.39303,0.11727
6030.32150,0.10516
6032.24997,0.05029
6034.17843,0.00780
6036.10690,0.02367
6038.03537,0.05523
6039.96384,0.06061
6041.89231,0.04553
6043.82078,0.03341
6045.74925,0.04103
6047.67772,0.05587
6049.60618,0.06394
6051.53465,0.06615
6053.46312,0.06798
6055.39159,0.07756
6057.32006,0.06818
6059.24853,0.03124
6061.17700,0.02348
6063.10546,0.04775
6065.03393,0.05247
6066.96240,0.05080
6068.89087,0.08219
6070.81934,0.12639
6072.74781,0.14681
6074.67628,0.16005
6076.60475,0.16355
6078.53321,0.12158
6080.46168,0.08184
6082.39015,0.09763
6084.31862,0.12184
6086.24709,0.11229
6088.17556,0.09776
6090.10403,0.13268
6092.03249,0.20050
6093.96096,0.22641
6095.88943,0.20500
6097.81790,0.18780
6099.74637,0.19253
6101.67484,0.17412
6103.60331,0.11694
6105.53177,0.08652
6107.46024,0.10925
6109.38871,0.12823
6111.31718,0.11916
6113.24565,0.12712
6115.17412,0.14762
6117.10259,0.15505
6119.03106,0.15975
6120.95952,0.15172
6122.88799,0.12559
6124.81646,0.10846
6126.74493,0.12418
6128.67340,0.14416
6130.60187,0.11729
6132.53034,0.08626
6134.45880,0.11271
6136.38727,0.15871
6138.31574,0.15781
6140.24421,0.10879
6142.17268,0.04841
6144.10115,0.00685
6146.02962,-0.00737
6147.95809,-0.00571
6149.88655,0.00163
6151.81502,0.00147
6153.74349,0.00203
6155.67196,0.03452
6157.60043,0.08697
6159.52890,0.11314
6161.45737,0.11812
6163.38583,0.14952
6165.31430,0.16522
6167.24277,0.11161
6169.17124,0.04846
6171.09971,0.04289
6173.02818,0.07889
6174.95665,0.08180
6176.88512,0.03534
6178.81358,0.00371
6180.74205,0.02052
6182.67052,0.07848
6184.59899,0.13122
6186.52746,0.11817
6188.45593,0.08408
6190.38440,0.09375
6192.31286,0.11820
6194.24133,0.14778
6196.16980,0.15837
6198.09827,0.11667
6200.02674,0.05933
6201.95521,0.02352
6203.88368,0.01773
6205.81215,0.03873
6207.74061,0.05713
6209.66908,0.05982
6211.59755,0.07549
6213.52602,0.10264
6215.45449,0.09847
6217.38296,0.07591
6219.31143,0.09516
6221.23989,0.14317
6223.16836,0.14956
6225.09683,0.12476
6227.02530,0.13725
6228.95377,0.15373
6230.88224,0.11444
6232.81071,0.06818
6234.73918,0.07902
6236.66764,0.11406
6238.59611,0.11998
6240.52458,0.09431
6242.45305,0.08538
6244.38152,0.10751
6246.30999,0.11894
6248.23846,0.11698
6250.16692,0.12625
6252.09539,0.12640
6254.02386,0.10499
6255.95233,0.09555
6257.88080,0.10143
6259.80927,0.09220
6261.73774,0.05701
6263.66621,0.02323
6265.59467,0.03381
6267.52314,0.04142
6269.45161,0.00649
6271.38008,0.01988
6273.30855,0.10926
6275.23702,0.15725
6277.16549,0.11512
6279.09395,0.07254
6281.02242,0.05146
6282.95089,0.03541
6284.87936,0.06341
6286.80783,0.12814
6288.73630,0.18092
6290.66477,0.18684
6292.59323,0.13513
6294.52170,0.08990
6296.45017,0.09726
6298.37864,0.09436
6300.30711,0.04475
6302.23558,0.00582
6304.16405,0.00704
6306.09252,0.01144
6308.02098,0.00420
6309.94945,0.01162
6311.87792,0.02360
6313.80639,0.01800
6315.73486,0.02359
6317.66333,0.04080
6319.59180,0.07389
6321.52026,0.13247
6323.44873,0.15784
6325.37720,0.11689
6327.30567,0.06751
6329.23414,0.09681
6331.16261,0.16260
6333.09108,0.15199
6335.01955,0.08901
6336.94801,0.03948
6338.87648,0.03516
6340.80495,0.07087
6342.73342,0.09746
6344.66189,0.11602
6346.59036,0.15757
6348.51883,0.17850
6350.44729,0.10496
6352.37576,0.02072
6354.30423,0.03899
6356.23270,0.08089
6358.16117,0.08207
6360.08964,0.07140
6362.01811,0.07606
6363.94658,0.09338
6365.87504,0.10460
6367.80351,0.13052
6369.73198,0.15850
6371.66045,0.13348
6373.58892,0.08396
6375.51739,0.05158
6377.44586,0.03708
6379.37432,0.04486
6381.30279,0.05315
6383.23126,0.04088
6385.15973,0.05164
6387.08820,0.10834
6389.01667,0.15297
6390.94514,0.13288
6392.87361,0.08131
6394.80207,0.09588
6396.73054,0.16329
6398.65901,0.20015
6400.58748,0.18346
6402.51595,0.13067
6404.44442,0.06188
6406.37289,0.00846
6408.30135,-0.01733
6410.22982,-0.06000
6412.15829,-0.09066
6414.08676,-0.01320
6416.01523,0.11684
6417.94370,0.16946
6419.87217,0.15387
6421.80064,0.13829
6423.72910,0.08437
6425.65757,-0.01266
6427.58604,-0.04085
6429.51451,0.03205
6431.44298,0.09413
6433.37145,0.11412
6435.29992,0.12286
6437.22838,0.09061
6439.15685,0.06566
6441.08532,0.11308
6443.01379,0.17672
6444.94226,0.17814
6446.87073,0.12645
6448.79920,0.06549
6450.72766,0.04863
6452.65613,0.07562
6454.58460,0.08959
6456.51307,0.07956
6458.44154,0.07393
6460.37001,0.09459
6462.29848,0.10825
6464.22695,0.09520
6466.15541,0.09172
6468.08388,0.09896
6470.01235,0.06542
6471.94082,-0.00933
6473.86929,-0.02718
6475.79776,0.02782
6477.72623,0.09581
6479.65469,0.14290
6481.58316,0.13604
6483.51163,0.09991
6485.44010,0.06497
6487.36857,0.00760
6489.29704,-0.04696
6491.22551,-0.02961
6493.15398,0.03913
6495.08244,0.08807
6497.01091,0.14857
6498.93938,0.20702
6500.86785,0.13425
6502.79632,-0.03218
6504.72479,-0.09249
6506.65326,-0.06015
6508.58172,-0.00253
6510.51019,0.11340
6512.43866,0.16900
6514.36713,0.10689
6516.29560,0.09466
6518.22407,0.12199
6520.15254,0.11320
6522.08101,0.11702
6524.00947,0.13492
6525.93794,0.14578
6527.86641,0.17160
6529.79488,0.17779
6531.72335,0.12451
6533.65182,0.08330
6535.58029,0.12155
6537.50875,0.18324
6539.43722,0.18018
6541.36569,0.15117
6543.29416,0.14103
6545.22263,0.06652
6547.15110,-0.03835
6549.07957,-0.08380
6551.00804,-0.04552
6552.93650,0.04843
6554.86497,0.08682
6556.79344,0.05894
6558.72191,0.06921
6560.65038,0.08212
6562.57885,0.04503
6564.50732,0.07013
6566.43578,0.16497
6568.36425,0.17136
6570.29272,0.11842
6572.22119,0.12233
6574.14966,0.13373
6576.07813,0.07567
6578.00660,0.00842
6579.93507,-0.00514
6581.86353,-0.01089
6583.79200,-0.00663
6585.72047,0.03654
6587.64894,0.05269
6589.57741,0.03513
6591.50588,0.07856
6593.43435,0.17953
6595.36281,0.20840
6597.29128,0.14827
6599.21975,0.08336
6601.14822,0.04226
6603.07669,0.02353
6605.00516,0.02109
6606.93363,0.01125
6608.86210,0.04732
6610.79056,0.15767
6612.71903,0.18898
6614.64750,0.12522
6616.57597,0.13836
6618.50444,0.20352
6620.43291,0.19301
6622.36138,0.13168
6624.28984,0.10196
6626.21831,0.06912
6628.14678,-0.02916
6630.07525,-0.12342
6632.00372,-0.12415
6633.93219,-0.03812
6635.86066,0.04852
6637.78912,0.07773
6639.71759,0.12842
6641.64606,0.19232
6643.57453,0.19735
6645.50300,0.16240
6647.43147,0.13490
6649.35994,0.13094
6651.28841,0.12551
6653.21687,0.10446
6655.14534,0.09025
6657.07381,0.09075
6659.00228,0.11918
6660.93075,0.15398
6662.85922,0.16739
6664.78769,0.17843
6666.71615,0.16800
6668.64462,0.17128
6670.57309,0.24197
6672.50156,0.28644
6674.43003,0.24745
6676.35850,0.17464
6678.28697,0.08158
6680.21544,0.02022
6682.14390,0.00266
6684.07237,-0.03770
6686.00084,-0.06645
6687.92931,-0.02494
6689.85778,0.01261
6691.78625,0.02390
6693.71472,0.03611
6695.64318,0.01788
6697.57165,0.00989
6699.50012,0.06060
6701.42859,0.09819
6703.35706,0.11536
6705.28553,0.13004
6707.21400,0.06053
6709.14247,-0.04316
6711.07093,-0.05279
6712.99940,0.00432
6714.92787,0.06359
6716.85634,0.07723
6718.78481,0.06669
6720.71328,0.10517
6722.64175,0.14212
6724.57021,0.09384
6726.49868,0.03834
6728.42715,0.04779
6730.35562,0.04482
6732.28409,-0.00277
6734.21256,-0.00316
6736.14103,0.05280
6738.06950,0.09825
6739.99796,0.11975
6741.92643,0.13929
6743.85490,0.13701
6745.78337,0.11885
6747.71184,0.14615
6749.64031,0.16626
6751.56878,0.10548
6753.49724,0.04196
6755.42571,0.02284
6757.35418,0.06275
6759.28265,0.17732
6761.21112,0.20932
6763.13959,0.10228
6765.06806,0.04701
6766.99653,0.09507
6768.92499,0.12673
6770.85346,0.07575
6772.78193,-0.00415
6774.71040,-0.06294
6776.63887,-0.05192
6778.56734,0.07293
6780.49581,0.21896
6782.42427,0.25598
6784.35274,0.22278
6786.28121,0.20910
6788.20968,0.22029
6790.13815,0.25164
6792.06662,0.24135
6793.99509,0.13643
6795.92355,0.04688
6797.85202,0.11813
6799.78049,0.26621
6801.70896,0.27658
6803.63743,0.19380
6805.56590,0.19331
6807.49437,0.23062
6809.42284,0.23351
6811.35130,0.17744
6813.27977,0.08612
6815.20824,0.03444
6817.13671,0.03019
6819.06518,0.02927
6820.99365,0.02131
6822.92212,0.00736
6824.85058,-0.01189
6826.77905,-0.06585
6828.70752,-0.17164
6830.63599,-0.17871
6832.56446,-0.02716
6834.49293,0.11405
6836.42140,0.16938
6838.34987,0.17291
6840.27833,0.13146
6842.20680,0.09849
6844.13527,0.09748
6846.06374,0.08031
6847.99221,0.10345
6849.92068,0.19162
6851.84915,0.20038
6853.77761,0.09319
6855.70608,-0.03809
6857.63455,-0.03283
6859.56302,0.10560
6861.49149,0.20517
6863.41996,0.16616
6865.34843,0.08904
6867.27690,0.07431
6869.20536,0.09681
6871.13383,0.11495
6873.06230,0.11069
6874.99077,0.05442
6876.91924,-0.02053
6878.84771,-0.02193
6880.77618,0.05518
6882.70464,0.05231
6884.63311,-0.02902
6886.56158,-0.03216
6888.49005,0.03747
6890.41852,0.03851
6892.34699,-0.00822
6894.27546,-0.00591
6896.20393,-0.00320
6898.13239,-0.02179
6900.06086,-0.03488
6901.98933,-0.08662
6903.91780,-0.12525
6905.84627,-0.05814
6907.77474,0.04931
6909.70321,0.13522
6911.63167,0.16028
6913.56014,0.06831
6915.48861,-0.04165
6917.41708,-0.00895
6919.34555,0.14679
6921.27402,0.20556
6923.20249,0.11410
6925.13096,-0.01055
6927.05942,-0.08508
6928.98789,-0.07823
6930.91636,-0.04456
6932.84483,-0.04429
6934.77330,-0.07292
6936.70177,-0.07080
6938.63024,-0.01151
6940.55870,-0.00265
6942.48717,-0.05191
6944.41564,-0.03003
6946.34411,-0.00176
6948.27258,-0.04386
6950.20105,-0.00943
6952.12952,0.14930
6954.05799,0.23115
6955.98645,0.08519
6957.91492,-0.07212
6959.84339,-0.01674
6961.77186,0.13347
6963.70033,0.15098
6965.62880,0.05500
6967.55727,0.02310
6969.48573,0.06668
6971.41420,0.04517
6973.34267,-0.00238
6975.27114,-0.00791
6977.19961,0.00583
6979.12808,0.05452
6981.05655,0.09683
6982.98501,0.07975
6984.91348,-0.00026
6986.84195,-0.04618
6988.77042,-0.02491
6990.69889,0.01490
6992.62736,0.13348
6994.55583,0.27319
6996.48430,0.25627
6998.41276,0.10023
7000.34123,-0.00727
7002.26970,-0.00556
7004.19817,-0.00529
7006.12664,-0.11764
7008.05511,-0.22408
7009.98358,-0.14838
7011.91204,0.03564
7013.84051,0.12476
7015.76898,0.10932
7017.69745,0.16430
7019.62592,0.22767
7021.55439,0.18147
7023.48286,0.12800
7025.41133,0.15607
7027.33979,0.19571
7029.26826,0.16008
7031.19673,0.07820
7033.12520,0.02867
7035.05367,0.00897
7036.98214,0.00845
7038.91061,0.03582
7040.83907,0.05965
7042.76754,0.06397
7044.69601,0.11475
7046.62448,0.24878
7048.55295,0.34011
7050.48142,0.22844
7052.40989,0.02725
7054.33836,-0.00347
7056.26682,0.04689
7058.19529,-0.02408
7060.12376,-0.07047
7062.05223,-0.06596
7063.98070,-0.06839
7065.90917,-0.04110
7067.83764,0.01910
7069.76610,0.08796
7071.69457,0.09639
7073.62304,0.02364
7075.55151,-0.03346
7077.47998,-0.05615
7079.40845,-0.02876
7081.33692,0.08873
7083.26539,0.13826
7085.19385,0.04571
7087.12232,-0.02025
7089.05079,0.00674
7090.97926,0.04683
7092.90773,0.06558
7094.83620,0.05395
7096.76467,0.05549
7098.69313,0.08138
7100.62160,0.08574
7102.55007,0.03417
7104.47854,-0.04956
7106.40701,-0.05800
7108.33548,0.00012
7110.26395,0.02743
7112.19242,0.01653
7114.12088,-0.09460
7116.04935,-0.32507
7117.97782,-0.44155
7119.90629,-0.29549
7121.83476,-0.12995
7123.76323,-0.05812
7125.69170,0.01486
7127.62016,0.13960
7129.54863,0.20747
7131.47710,0.12714
7133.40557,0.02292
7135.33404,-0.00666
7137.26251,0.04255
7139.19098,0.18811
7141.11944,0.29575
7143.04791,0.26115
7144.97638,0.14647
7146.90485,0.04749
7148.83332,0.04204
7150.76179,0.08792
7152.69026,0.18128
7154.61873,0.24640
7156.54719,0.13084
7158.47566,-0.03328
7160.40413,-0.04336
7162.33260,0.05652
7164.26107,0.05000
7166.18954,-0.03614
7168.11801,0.00863
7170.04647,0.12975
7171.97494,0.19386
7173.90341,0.27225
7175.83188,0.27982
7177.76035,0.09794
7179.68882,-0.12657
7181.61729,-0.30854
7183.54576,-0.34074
7185.47422,-0.15905
7187.40269,0.05737
7189.33116,0.17138
7191.25963,0.19476
7193.18810,0.15575
7195.11657,0.06626
7197.04504,-0.01226
7198.97350,-0.00546
7200.90197,0.00671
7202.83044,0.02399
7204.75891,0.10733
7206.68738,0.14703
7208.61585,0.11534
7210.54432,0.08593
7212.47279,0.09509
7214.40125,0.13392
7216.32972,0.11119
7218.25819,0.00695
7220.18666,0.00506
7222.11513,0.05749
7224.04360,0.05238
7225.97207,0.05563
7227.90053,0.16482
7229.82900,0.24353
7231.75747,0.12603
7233.68594,0.04565
7235.61441,0.16486
7237.54288,0.35674
7239.47135,0.42766
7241.39982,0.36235
7243.32828,0.25446
7245.25675,0.10659
7247.18522,-0.04525
7249.11369,-0.20573
7251.04216,-0.37657
7252.97063,-0.36836
7254.89910,-0.17156
7256.82756,-0.05220
7258.75603,-0.01885
7260.68450,-0.01751
7262.61297,0.00974
7264.54144,0.07354
7266.46991,0.16177
7268.39838,0.26356
7270.32685,0.36348
7272.25531,0.39697
7274.18378,0.21986
7276.11225,0.00533
7278.04072,0.00155
7279.96919,0.18256
7281.89766,0.23538
7283.82613,0.14468
7285.75459,0.11261
7287.68306,0.16515
7289.61153,0.16165
7291.54000,0.08321
7293.46847,0.15348
7295.39694,0.28148
7297.32541,0.21833
7299.25387,0.10157
7301.18234,0.10692
7303.11081,0.10942
7305.03928,-0.02727
7306.96775,-0.14085
7308.89622,-0.01227
7310.82469,0.13599
7312.75316,0.04643
7314.68162,-0.07666
7316.61009,-0.10406
7318.53856,-0.10540
7320.46703,-0.03401
7322.39550,0.03502
7324.32397,0.00646
7326.25244,-0.00608
7328.18090,-0.01020
7330.10937,-0.05080
7332.03784,-0.01869
7333.96631,-0.00485
7335.89478,-0.00029
7337.82325,0.06295
7339.75172,0.08453
7341.68019,0.05332
7343.60865,0.02204
7345.53712,-0.04788
7347.46559,-0.13819
7349.39406,-0.15254
7351.32253,-0.03106
7353.25100,0.11413
7355.17947,0.23574
7357.10793,0.33489
7359.03640,0.26459
7360.96487,0.14249
7362.89334,0.17449
7364.82181,0.23512
7366.75028,0.29279
7368.67875,0.37710
7370.60722,0.31784
7372.53568,0.09965
7374.46415,-0.04772
7376.39262,0.03420
7378.32109,0.10276
7380.24956,0.11943
7382.17803,0.14472
7384.10650,0.14119
7386.03496,0.13092
7387.96343,0.15392
7389.89190,0.17435
7391.82037,0.13196
7393.74884,0.06370
7395.67731,0.12112
7397.60578,0.22602
7399.53425,0.18211
7401.46271,0.04506
7403.39118,-0.10801
7405.31965,-0.20723
7407.24812,-0.10764
7409.17659,0.06004
7411.10506,0.08032
7413.03353,0.03055
7414.96199,0.02483
7416.89046,0.08897
7418.81893,0.15190
7420.74740,0.09762
7422.67587,0.01807
7424.60434,-0.10077
7426.53281,-0.22283
7428.46128,-0.26324
7430.38974,-0.25998
7432.31821,-0.32361
7434.24668,-0.39787
7436.17515,-0.32055
7438.10362,-0.09822
7440.03209,0.12100
7441.96056,0.17586
7443.88902,0.17338
7445.81749,0.25215
7447.74596,0.26295
7449.67443,0.15868
7451.60290,0.05414
7453.53137,0.00289
7455.45984,0.03726
7457.38831,0.11688
7459.31677,0.17811
7461.24524,0.24563
7463.17371,0.34051
7465.10218,0.29886
7467.03065,0.09624
7468.95912,0.03841
7470.88759,0.19576
7472.81605,0.34143
7474.74452,0.30143
7476.67299,0.09965
7478.60146,-0.15266
7480.52993,-0.31300
7482.45840,-0.30053
7484.38687,-0.12832
7486.31533,-0.00355
7488.24380,-0.11605
7490.17227,-0.24432
7492.10074,-0.08384
7494.02921,0.11767
7495.95768,0.11330
7497.88615,-0.01083
