399.19301,0.31966
401.12148,0.27450
403.04995,0.36685
404.97842,0.16683
406.90689,0.06837
408.83536,-0.02639
410.76382,-0.12300
412.69229,-0.08204
414.62076,-0.05469
416.54923,-0.15897
418.47770,-0.24876
420.40617,-0.19614
422.33464,-0.06025
424.26311,0.08875
426.19157,0.15270
428.12004,0.16535
430.04851,0.18035
431.97698,0.20243
433.90545,0.21326
435.83392,0.18364
437.76239,0.15725
439.69085,0.16438
441.61932,0.18154
443.54779,0.16959
445.47626,0.13765
447.40473,0.11064
449.33320,0.08153
451.26167,0.06586
453.19013,0.05403
455.11860,0.03968
457.04707,0.04935
458.97554,0.10924
460.90401,0.19720
462.83248,0.24413
464.76095,0.19287
466.68942,0.07988
468.61788,0.01703
470.54635,0.02763
472.47482,0.06083
474.40329,0.10487
476.33176,0.13703
478.26023,0.12736
480.18870,0.06960
482.11716,0.01390
484.04563,0.04589
485.97410,0.10837
487.90257,0.10967
489.83104,0.12441
491.75951,0.17805
493.68798,0.15716
495.61645,0.10260
497.54491,0.11215
499.47338,0.11830
501.40185,0.10873
503.33032,0.14915
505.25879,0.19693
507.18726,0.19005
509.11573,0.13863
511.04419,0.08107
512.97266,0.03493
514.90113,0.02494
516.82960,0.06890
518.75807,0.11835
520.68654,0.13111
522.61501,0.12192
524.54348,0.09157
526.47194,0.05351
528.40041,0.05381
530.32888,0.08670
532.25735,0.11216
534.18582,0.14062
536.11429,0.16952
538.04276,0.16055
539.97122,0.13889
541.89969,0.12332
543.82816,0.09903
545.75663,0.06963
547.68510,0.01913
549.61357,-0.01116
551.54204,0.08300
553.47051,0.21124
555.39897,0.21727
557.32744,0.16546
559.25591,0.14063
561.18438,0.12039
563.11285,0.13932
565.04132,0.19719
566.96979,0.20794
568.89825,0.15243
570.82672,0.09141
572.75519,0.05647
574.68366,0.05491
576.61213,0.09499
578.54060,0.13869
580.46907,0.15490
582.39754,0.15974
584.32600,0.16948
586.25447,0.17463
588.18294,0.15638
590.11141,0.13879
592.03988,0.15399
593.96835,0.15463
595.89682,0.10558
597.82528,0.07007
599.75375,0.09099
601.68222,0.12810
603.61069,0.14098
605.53916,0.13461
607.46763,0.12990
609.39610,0.13501
611.32456,0.13729
613.25303,0.12632
615.18150,0.11757
617.10997,0.12922
619.03844,0.14513
620.96691,0.13635
622.89538,0.11622
624.82385,0.11102
626.75231,0.12038
628.68078,0.13890
630.60925,0.15343
632.53772,0.15178
634.46619,0.13939
636.39466,0.12469
638.32313,0.11726
640.25159,0.11994
642.18006,0.11626
644.10853,0.10241
646.03700,0.09635
647.96547,0.10093
649.89394,0.11096
651.82241,0.13292
653.75088,0.15701
655.67934,0.15277
657.60781,0.12790
659.53628,0.12193
661.46475,0.12723
663.39322,0.11834
665.32169,0.10893
667.25016,0.11771
669.17862,0.12490
671.10709,0.11293
673.03556,0.10773
674.96403,0.10482
676.89250,0.09926
678.82097,0.10342
680.74944,0.11646
682.67791,0.12954
684.60637,0.13882
686.53484,0.13894
688.46331,0.13778
690.39178,0.14658
692.32025,0.14680
694.24872,0.12692
696.17719,0.11607
698.10565,0.12663
700.03412,0.13629
701.96259,0.13727
703.89106,0.13796
705.81953,0.14207
707.74800,0.15714
709.67647,0.19807
711.60494,0.23394
713.53340,0.20976
715.46187,0.15052
717.39034,0.11857
719.31881,0.12144
721.24728,0.13385
723.17575,0.14053
725.10422,0.14317
727.03268,0.14648
728.96115,0.14812
730.88962,0.14326
732.81809,0.14031
734.74656,0.14603
736.67503,0.15138
738.60350,0.14576
740.53197,0.13515
742.46043,0.14291
744.38890,0.15948
746.31737,0.15364
748.24584,0.13381
750.17431,0.12704
752.10278,0.13608
754.03125,0.14140
755.95971,0.13658
757.88818,0.12978
759.81665,0.11969
761.74512,0.10948
763.67359,0.11346
765.60206,0.13132
767.53053,0.13822
769.45900,0.12499
771.38746,0.11424
773.31593,0.11688
775.24440,0.12431
777.17287,0.12960
779.10134,0.12899
781.02981,0.12700
782.95828,0.12696
784.88674,0.12141
786.81521,0.11301
788.74368,0.11652
790.67215,0.13393
792.60062,0.14667
794.52909,0.14008
796.45756,0.13061
798.38602,0.13404
800.31449,0.13869
802.24296,0.13511
804.17143,0.13212
806.09990,0.13903
808.02837,0.15176
809.95684,0.16476
811.88531,0.17343
813.81377,0.16456
815.74224,0.14331
817.67071,0.13224
819.59918,0.13251
821.52765,0.13632
823.45612,0.14156
825.38459,0.14106
827.31305,0.13371
829.24152,0.12436
831.16999,0.11374
833.09846,0.10971
835.02693,0.11781
836.95540,0.12575
838.88387,0.12521
840.81234,0.12625
842.74080,0.13561
844.66927,0.14449
846.59774,0.14927
848.52621,0.15283
850.45468,0.15340
852.38315,0.15373
854.31162,0.15190
856.24008,0.14322
858.16855,0.13820
860.09702,0.14659
862.02549,0.15857
863.95396,0.16408
865.88243,0.17015
867.81090,0.17331
869.73937,0.16497
871.66783,0.15552
873.59630,0.14852
875.52477,0.14260
877.45324,0.13814
879.38171,0.13205
881.31018,0.13172
883.23865,0.13947
885.16711,0.14590
887.09558,0.14522
889.02405,0.13879
890.95252,0.12929
892.88099,0.12263
894.80946,0.12555
896.73793,0.12941
898.66640,0.13058
900.59486,0.13591
902.52333,0.13897
904.45180,0.13664
906.38027,0.13644
908.30874,0.14311
910.23721,0.15539
912.16568,0.16493
914.09414,0.16638
916.02261,0.16217
917.95108,0.15688
919.87955,0.15200
921.80802,0.14879
923.73649,0.14947
925.66496,0.15094
927.59343,0.15222
929.52189,0.15286
931.45036,0.15055
933.37883,0.15310
935.30730,0.16207
937.23577,0.16239
939.16424,0.15168
941.09271,0.14489
943.02117,0.14760
944.94964,0.15014
946.87811,0.14426
948.80658,0.13817
950.73505,0.14198
952.66352,0.14888
954.59199,0.15212
956.52045,0.15684
958.44892,0.16197
960.37739,0.15846
962.30586,0.15023
964.23433,0.14915
966.16280,0.15231
968.09127,0.14855
970.01974,0.14114
971.94820,0.14110
973.87667,0.14661
975.80514,0.14864
977.73361,0.14680
979.66208,0.14788
981.59055,0.15390
983.51902,0.15825
985.44748,0.15573
987.37595,0.15214
989.30442,0.15503
991.23289,0.15808
993.16136,0.15436
995.08983,0.15107
997.01830,0.15210
998.94677,0.15588
1000.87523,0.16177
1002.80370,0.16493
1004.73217,0.16502
1006.66064,0.16272
1008.58911,0.16138
1010.51758,0.16394
1012.44605,0.16217
1014.37451,0.16154
1016.30298,0.16992
1018.23145,0.17370
1020.15992,0.16457
1022.08839,0.14852
1024.01686,0.13421
1025.94533,0.13704
1027.87380,0.15174
1029.80226,0.15399
1031.73073,0.15375
1033.65920,0.15870
1035.58767,0.15671
1037.51614,0.15734
1039.44461,0.16835
1041.37308,0.17846
1043.30154,0.17420
1045.23001,0.16108
1047.15848,0.15330
1049.08695,0.15184
1051.01542,0.15510
1052.94389,0.15951
1054.87236,0.16216
1056.80083,0.16660
1058.72929,0.17195
1060.65776,0.17454
1062.58623,0.17471
1064.51470,0.17090
1066.44317,0.16276
1068.37164,0.15638
1070.30011,0.15483
1072.22857,0.15472
1074.15704,0.15870
1076.08551,0.16991
1078.01398,0.17634
1079.94245,0.17064
1081.87092,0.16104
1083.79939,0.15272
1085.72786,0.14508
1087.65632,0.14172
1089.58479,0.14382
1091.51326,0.14400
1093.44173,0.14737
1095.37020,0.16176
1097.29867,0.17187
1099.22714,0.16710
1101.15560,0.15893
1103.08407,0.15767
1105.01254,0.16305
1106.94101,0.16581
1108.86948,0.16266
1110.79795,0.16270
1112.72642,0.16542
1114.65489,0.16891
1116.58335,0.17735
1118.51182,0.18283
1120.44029,0.17746
1122.36876,0.16876
1124.29723,0.16629
1126.22570,0.16484
1128.15417,0.15831
1130.08263,0.15217
1132.01110,0.14952
1133.93957,0.15041
1135.86804,0.15146
1137.79651,0.14983
1139.72498,0.15110
1141.65345,0.15637
1143.58191,0.16083
1145.51038,0.16282
1147.43885,0.16502
1149.36732,0.16992
1151.29579,0.17335
1153.22426,0.17136
1155.15273,0.16733
1157.08120,0.16662
1159.00966,0.16901
1160.93813,0.17000
1162.86660,0.16987
1164.79507,0.17104
1166.72354,0.17190
1168.65201,0.17172
1170.58048,0.17006
1172.50894,0.16545
1174.43741,0.16267
1176.36588,0.16661
1178.29435,0.17155
1180.22282,0.17257
1182.15129,0.17120
1184.07976,0.16872
1186.00823,0.16412
1187.93669,0.15783
1189.86516,0.15598
1191.79363,0.15956
1193.72210,0.16222
1195.65057,0.16326
1197.57904,0.16453
1199.50751,0.16404
1201.43597,0.16322
1203.36444,0.16592
1205.29291,0.16792
1207.22138,0.16480
1209.14985,0.16175
1211.07832,0.16451
1213.00679,0.16804
1214.93526,0.16557
1216.86372,0.16153
1218.79219,0.16208
1220.72066,0.16708
1222.64913,0.17253
1224.57760,0.17659
1226.50607,0.17695
1228.43454,0.17049
1230.36300,0.16582
1232.29147,0.16750
1234.21994,0.16733
1236.14841,0.16443
1238.07688,0.16256
1240.00535,0.16012
1241.93382,0.15603
1243.86229,0.15341
1245.79075,0.15547
1247.71922,0.16226
1249.64769,0.16946
1251.57616,0.17058
1253.50463,0.16709
1255.43310,0.16436
1257.36157,0.16087
1259.29003,0.15650
1261.21850,0.15566
1263.14697,0.15937
1265.07544,0.16471
1267.00391,0.16685
1268.93238,0.16529
1270.86085,0.16446
1272.78932,0.16521
1274.71778,0.16623
1276.64625,0.16704
1278.57472,0.16655
1280.50319,0.16511
1282.43166,0.16494
1284.36013,0.16720
1286.28860,0.16939
1288.21706,0.16995
1290.14553,0.17056
1292.07400,0.16959
1294.00247,0.16626
1295.93094,0.16612
1297.85941,0.16969
1299.78788,0.16854
1301.71634,0.15787
1303.64481,0.14249
1305.57328,0.13587
1307.50175,0.14440
1309.43022,0.15540
1311.35869,0.16057
1313.28716,0.16347
1315.21563,0.16681
1317.14409,0.17278
1319.07256,0.17655
1321.00103,0.17333
1322.92950,0.17162
1324.85797,0.17192
1326.78644,0.16678
1328.71491,0.16328
1330.64337,0.16526
1332.57184,0.16752
1334.50031,0.17057
1336.42878,0.17396
1338.35725,0.17526
1340.28572,0.17757
1342.21419,0.19439
1344.14266,0.21305
1346.07112,0.20205
1347.99959,0.17592
1349.92806,0.16584
1351.85653,0.16556
1353.78500,0.16541
1355.71347,0.16641
1357.64194,0.16889
1359.57040,0.17395
1361.49887,0.17942
1363.42734,0.17699
1365.35581,0.17031
1367.28428,0.16971
1369.21275,0.17362
1371.14122,0.17957
1373.06969,0.18794
1374.99815,0.19409
1376.92662,0.19258
1378.85509,0.18652
1380.78356,0.18035
1382.71203,0.17611
1384.64050,0.17735
1386.56897,0.18331
1388.49743,0.18448
1390.42590,0.18071
1392.35437,0.18123
1394.28284,0.18770
1396.21131,0.19498
1398.13978,0.19965
1400.06825,0.19554
1401.99672,0.18670
1403.92518,0.18367
1405.85365,0.18359
1407.78212,0.18483
1409.71059,0.18846
1411.63906,0.18917
1413.56753,0.18784
1415.49600,0.19065
1417.42446,0.20025
1419.35293,0.20726
1421.28140,0.20157
1423.20987,0.19266
1425.13834,0.18534
1427.06681,0.18264
1428.99528,0.18617
1430.92375,0.18957
1432.85221,0.18830
1434.78068,0.18967
1436.70915,0.19433
1438.63762,0.19113
1440.56609,0.18511
1442.49456,0.18319
1444.42303,0.18536
1446.35149,0.18927
1448.27996,0.18987
1450.20843,0.18728
1452.13690,0.18888
1454.06537,0.19770
1455.99384,0.20847
1457.92231,0.20462
1459.85077,0.19291
1461.77924,0.19064
1463.70771,0.19479
1465.63618,0.19536
1467.56465,0.19172
1469.49312,0.19530
1471.42159,0.20963
1473.35006,0.22338
1475.27852,0.21952
1477.20699,0.20765
1479.13546,0.19887
1481.06393,0.19407
1482.99240,0.19060
1484.92087,0.19108
1486.84934,0.20120
1488.77780,0.21605
1490.70627,0.21500
1492.63474,0.20595
1494.56321,0.20773
1496.49168,0.21507
1498.42015,0.21128
1500.34862,0.20020
1502.27709,0.19642
1504.20555,0.20820
1506.13402,0.23478
1508.06249,0.23460
1509.99096,0.21278
1511.91943,0.20157
1513.84790,0.20311
1515.77637,0.21578
1517.70483,0.22904
1519.63330,0.23816
1521.56177,0.24020
1523.49024,0.22385
1525.41871,0.20703
1527.34718,0.19890
1529.27565,0.19529
1531.20412,0.19790
1533.13258,0.20613
1535.06105,0.20985
1536.98952,0.21740
1538.91799,0.24327
1540.84646,0.26425
1542.77493,0.24602
1544.70340,0.22096
1546.63186,0.20472
1548.56033,0.20114
1550.48880,0.20171
1552.41727,0.20197
1554.34574,0.20868
1556.27421,0.22279
1558.20268,0.24087
1560.13115,0.23466
1562.05961,0.21573
1563.98808,0.20615
1565.91655,0.20319
1567.84502,0.20635
1569.77349,0.20866
1571.70196,0.20172
1573.63043,0.19921
1575.55889,0.20504
1577.48736,0.20120
1579.41583,0.18959
1581.34430,0.18385
1583.27277,0.18201
1585.20124,0.17954
1587.12971,0.17833
1589.05818,0.18155
1590.98664,0.18668
1592.91511,0.18843
1594.84358,0.18611
1596.77205,0.18315
1598.70052,0.18209
1600.62899,0.18318
1602.55746,0.18474
1604.48592,0.18473
1606.41439,0.18373
1608.34286,0.18417
1610.27133,0.18575
1612.19980,0.18771
1614.12827,0.19297
1616.05674,0.20120
1617.98521,0.20087
1619.91367,0.19469
1621.84214,0.19491
1623.77061,0.20006
1625.69908,0.20280
1627.62755,0.20322
1629.55602,0.19967
1631.48449,0.19784
1633.41295,0.20794
1635.34142,0.22351
1637.26989,0.21704
1639.19836,0.20518
1641.12683,0.20549
1643.05530,0.21488
1644.98377,0.22968
1646.91223,0.23944
1648.84070,0.23112
1650.76917,0.22568
1652.69764,0.23114
1654.62611,0.22305
1656.55458,0.20885
1658.48305,0.20268
1660.41152,0.20127
1662.33998,0.20116
1664.26845,0.20260
1666.19692,0.20891
1668.12539,0.21931
1670.05386,0.22293
1671.98233,0.21873
1673.91080,0.21868
1675.83926,0.21400
1677.76773,0.20427
1679.69620,0.20311
1681.62467,0.21286
1683.55314,0.22981
1685.48161,0.23282
1687.41008,0.21953
1689.33855,0.20761
1691.26701,0.20223
1693.19548,0.20618
1695.12395,0.21938
1697.05242,0.23399
1698.98089,0.24045
1700.90936,0.23102
1702.83783,0.21669
1704.76629,0.21262
1706.69476,0.21015
1708.62323,0.20324
1710.55170,0.19867
1712.48017,0.19980
1714.40864,0.20529
1716.33711,0.21253
1718.26558,0.21260
1720.19404,0.20313
1722.12251,0.19490
1724.05098,0.19022
1725.97945,0.18889
1727.90792,0.19313
1729.83639,0.20132
1731.76486,0.21186
1733.69332,0.22170
1735.62179,0.21628
1737.55026,0.20740
1739.47873,0.20638
1741.40720,0.21033
1743.33567,0.21238
1745.26414,0.21283
1747.19261,0.21666
1749.12107,0.21858
1751.04954,0.20874
1752.97801,0.19704
1754.90648,0.19358
1756.83495,0.19536
1758.76342,0.19772
1760.69189,0.19910
1762.62035,0.19603
1764.54882,0.19228
1766.47729,0.19522
1768.40576,0.20477
1770.33423,0.21650
1772.26270,0.21886
1774.19117,0.20876
1776.11964,0.20101
1778.04810,0.19784
1779.97657,0.19661
1781.90504,0.19533
1783.83351,0.19275
1785.76198,0.18877
1787.69045,0.18645
1789.61892,0.19122
1791.54738,0.20211
1793.47585,0.20593
1795.40432,0.19936
1797.33279,0.19390
1799.26126,0.19504
1801.18973,0.19736
1803.11820,0.19545
1805.04666,0.19372
1806.97513,0.19416
1808.90360,0.19556
1810.83207,0.19632
1812.76054,0.19387
1814.68901,0.18783
1816.61748,0.17558
1818.54595,0.16274
1820.47441,0.16660
1822.40288,0.18283
1824.33135,0.19093
1826.25982,0.19140
1828.18829,0.19626
1830.11676,0.20032
1832.04523,0.19727
1833.97369,0.19251
1835.90216,0.18822
1837.83063,0.18518
1839.75910,0.18577
1841.68757,0.19087
1843.61604,0.19811
1845.54451,0.19994
1847.47298,0.19627
1849.40144,0.19144
1851.32991,0.18559
1853.25838,0.18030
1855.18685,0.18020
1857.11532,0.18701
1859.04379,0.19373
1860.97226,0.19425
1862.90072,0.19128
1864.82919,0.19137
1866.75766,0.19889
1868.68613,0.20692
1870.61460,0.20201
1872.54307,0.19200
1874.47154,0.18826
1876.40001,0.18958
1878.32847,0.19005
1880.25694,0.18903
1882.18541,0.19019
1884.11388,0.19165
1886.04235,0.19099
1887.97082,0.19078
1889.89929,0.18875
1891.82775,0.18658
1893.75622,0.18959
1895.68469,0.19168
1897.61316,0.18919
1899.54163,0.18827
1901.47010,0.18957
1903.39857,0.18885
1905.32704,0.18641
1907.25550,0.18690
1909.18397,0.19097
1911.11244,0.19206
1913.04091,0.18880
1914.96938,0.18829
1916.89785,0.19286
1918.82632,0.19538
1920.75478,0.19341
1922.68325,0.19261
1924.61172,0.19316
1926.54019,0.19186
1928.46866,0.18929
1930.39713,0.18875
1932.32560,0.19092
1934.25407,0.19156
1936.18253,0.18865
1938.11100,0.18659
1940.03947,0.19119
1941.96794,0.19961
1943.89641,0.20096
1945.82488,0.19475
1947.75335,0.18875
1949.68181,0.18530
1951.61028,0.18521
1953.53875,0.18769
1955.46722,0.18820
1957.39569,0.18683
1959.32416,0.18709
1961.25263,0.18817
1963.18110,0.18898
1965.10956,0.19078
1967.03803,0.19185
1968.96650,0.19044
1970.89497,0.19022
1972.82344,0.19105
1974.75191,0.18876
1976.68038,0.18544
1978.60884,0.18629
1980.53731,0.18901
1982.46578,0.18782
1984.39425,0.18535
1986.32272,0.18634
1988.25119,0.18946
1990.17966,0.19136
1992.10812,0.19040
1994.03659,0.18818
1995.96506,0.18688
1997.89353,0.18693
1999.82200,0.18764
2001.75047,0.18839
2003.67894,0.18997
2005.60741,0.19216
2007.53587,0.19167
2009.46434,0.18857
2011.39281,0.18803
2013.32128,0.19076
2015.24975,0.19401
2017.17822,0.19586
2019.10669,0.19519
2021.03515,0.19403
2022.96362,0.19165
2024.89209,0.18691
2026.82056,0.18446
2028.74903,0.18703
2030.67750,0.19225
2032.60597,0.19595
2034.53444,0.19520
2036.46290,0.19159
2038.39137,0.18766
2040.31984,0.18543
2042.24831,0.18679
2044.17678,0.19029
2046.10525,0.19276
2048.03372,0.19272
2049.96218,0.19142
2051.89065,0.19120
2053.81912,0.19207
2055.74759,0.19196
2057.67606,0.19071
2059.60453,0.19026
2061.53300,0.19168
2063.46147,0.19409
2065.38993,0.19443
2067.31840,0.19291
2069.24687,0.19286
2071.17534,0.19308
2073.10381,0.19312
2075.03228,0.19373
2076.96075,0.19274
2078.88921,0.19069
2080.81768,0.18841
2082.74615,0.18650
2084.67462,0.18769
2086.60309,0.19116
2088.53156,0.19327
2090.46003,0.19199
2092.38850,0.18865
2094.31696,0.18678
2096.24543,0.18762
2098.17390,0.18969
2100.10237,0.19149
2102.03084,0.19281
2103.95931,0.19367
2105.88778,0.19395
2107.81624,0.19401
2109.74471,0.19273
2111.67318,0.18879
2113.60165,0.18536
2115.53012,0.18598
2117.45859,0.18856
2119.38706,0.18918
2121.31553,0.18784
2123.24399,0.18744
2125.17246,0.18832
2127.10093,0.18970
2129.02940,0.19133
2130.95787,0.19025
2132.88634,0.18467
2134.81481,0.17976
2136.74327,0.18112
2138.67174,0.18604
2140.60021,0.18986
2142.52868,0.19164
2144.45715,0.19190
2146.38562,0.19261
2148.31409,0.19457
2150.24255,0.19640
2152.17102,0.19649
2154.09949,0.19414
2156.02796,0.19148
2157.95643,0.19052
2159.88490,0.19022
2161.81337,0.19113
2163.74184,0.19397
2165.67030,0.19566
2167.59877,0.19478
2169.52724,0.19238
2171.45571,0.18936
2173.38418,0.18797
2175.31265,0.18895
2177.24112,0.19065
2179.16958,0.19226
2181.09805,0.19135
2183.02652,0.18821
2184.95499,0.18843
2186.88346,0.19134
2188.81193,0.19249
2190.74040,0.19317
2192.66887,0.19488
2194.59733,0.19584
2196.52580,0.19476
2198.45427,0.19232
2200.38274,0.18951
2202.31121,0.18621
2204.23968,0.18481
2206.16815,0.18763
2208.09661,0.19138
2210.02508,0.19356
2211.95355,0.19487
2213.88202,0.19514
2215.81049,0.19523
2217.73896,0.19456
2219.66743,0.19168
2221.59590,0.18990
2223.52436,0.18962
2225.45283,0.18823
2227.38130,0.18711
2229.30977,0.18602
2231.23824,0.18460
2233.16671,0.18593
2235.09518,0.19069
2237.02364,0.19449
2238.95211,0.19415
2240.88058,0.19231
2242.80905,0.19163
2244.73752,0.19185
2246.66599,0.19180
2248.59446,0.19188
2250.52293,0.19263
2252.45139,0.19186
2254.37986,0.19074
2256.30833,0.19128
2258.23680,0.18986
2260.16527,0.18774
2262.09374,0.18987
2264.02221,0.19265
2265.95067,0.19235
2267.87914,0.19036
2269.80761,0.18782
2271.73608,0.18611
2273.66455,0.18614
2275.59302,0.18763
2277.52149,0.18984
2279.44996,0.18985
2281.37842,0.18666
2283.30689,0.18590
2285.23536,0.18863
2287.16383,0.18895
2289.09230,0.18880
2291.02077,0.19600
2292.94924,0.20571
2294.87770,0.20275
2296.80617,0.19045
2298.73464,0.18450
2300.66311,0.18589
2302.59158,0.18991
2304.52005,0.19413
2306.44852,0.19610
2308.37699,0.19438
2310.30545,0.19118
2312.23392,0.19411
2314.16239,0.20125
2316.09086,0.20319
2318.01933,0.20031
2319.94780,0.19579
2321.87627,0.19115
2323.80473,0.19281
2325.73320,0.20146
2327.66167,0.20817
2329.59014,0.20890
2331.51861,0.20509
2333.44708,0.20638
2335.37555,0.21608
2337.30401,0.21335
2339.23248,0.19874
2341.16095,0.19644
2343.08942,0.20476
2345.01789,0.21300
2346.94636,0.21572
2348.87483,0.21350
2350.80330,0.21042
2352.73176,0.20870
2354.66023,0.21073
2356.58870,0.21002
2358.51717,0.20049
2360.44564,0.20258
2362.37411,0.21929
2364.30258,0.22714
2366.23104,0.21959
2368.15951,0.20402
2370.08798,0.19376
2372.01645,0.19433
2373.94492,0.19939
2375.87339,0.20003
2377.80186,0.19446
2379.73033,0.19079
2381.65879,0.19096
2383.58726,0.19011
2385.51573,0.18843
2387.44420,0.18764
2389.37267,0.18798
2391.30114,0.19011
2393.22961,0.19322
2395.15807,0.19606
2397.08654,0.19693
2399.01501,0.19401
2400.94348,0.19063
2402.87195,0.19031
2404.80042,0.19110
2406.72889,0.19164
2408.65736,0.19181
2410.58582,0.19066
2412.51429,0.19014
2414.44276,0.19219
2416.37123,0.19401
2418.29970,0.19364
2420.22817,0.19307
2422.15664,0.19347
2424.08510,0.19364
2426.01357,0.19307
2427.94204,0.19255
2429.87051,0.19270
2431.79898,0.19336
2433.72745,0.19339
2435.65592,0.19176
2437.58439,0.18947
2439.51285,0.18952
2441.44132,0.19184
2443.36979,0.19318
2445.29826,0.19307
2447.22673,0.19415
2449.15520,0.19666
2451.08367,0.19602
2453.01213,0.19209
2454.94060,0.18952
2456.86907,0.18865
2458.79754,0.19016
2460.72601,0.19361
2462.65448,0.19480
2464.58295,0.19377
2466.51142,0.19315
2468.43988,0.19359
2470.36835,0.19330
2472.29682,0.19131
2474.22529,0.18974
2476.15376,0.18926
2478.08223,0.19041
2480.01070,0.19273
2481.93916,0.19363
2483.86763,0.19507
2485.79610,0.19663
2487.72457,0.19410
2489.65304,0.19000
2491.58151,0.18733
2493.50998,0.18671
2495.43844,0.18867
2497.36691,0.19103
2499.29538,0.19349
2501.22385,0.19586
2503.15232,0.19553
2505.08079,0.19368
2507.00926,0.19221
2508.93773,0.18878
2510.86619,0.18471
2512.79466,0.18542
2514.72313,0.18928
2516.65160,0.19167
2518.58007,0.19233
2520.50854,0.19234
2522.43701,0.19315
2524.36547,0.19494
2526.29394,0.19550
2528.22241,0.19452
2530.15088,0.19360
2532.07935,0.19234
2534.00782,0.19162
2535.93629,0.19314
2537.86476,0.19467
2539.79322,0.19479
2541.72169,0.19470
2543.65016,0.19543
2545.57863,0.19693
2547.50710,0.19707
2549.43557,0.19509
2551.36404,0.19367
2553.29250,0.19287
2555.22097,0.19142
2557.14944,0.19194
2559.07791,0.19411
2561.00638,0.19299
2562.93485,0.18877
2564.86332,0.18647
2566.79179,0.18675
2568.72025,0.18756
2570.64872,0.18926
2572.57719,0.19050
2574.50566,0.19027
2576.43413,0.18987
2578.36260,0.18953
2580.29107,0.18907
2582.21953,0.18915
2584.14800,0.19088
2586.07647,0.19248
2588.00494,0.19228
2589.93341,0.19134
2591.86188,0.18942
2593.79035,0.18829
2595.71882,0.19058
2597.64728,0.19374
2599.57575,0.19497
2601.50422,0.19506
2603.43269,0.19549
2605.36116,0.19613
2607.28963,0.19556
2609.21810,0.19594
2611.14656,0.19917
2613.07503,0.20020
2615.00350,0.19784
2616.93197,0.19753
2618.86044,0.19919
2620.78891,0.19812
2622.71738,0.19476
2624.64585,0.19331
2626.57431,0.19342
2628.50278,0.19312
2630.43125,0.19344
2632.35972,0.19495
2634.28819,0.19617
2636.21666,0.19713
2638.14513,0.20065
2640.07359,0.20335
2642.00206,0.19901
2643.93053,0.19212
2645.85900,0.18907
2647.78747,0.18937
2649.71594,0.19231
2651.64441,0.19610
2653.57288,0.19684
2655.50134,0.19477
2657.42981,0.19402
2659.35828,0.19545
2661.28675,0.19554
2663.21522,0.19337
2665.14369,0.19310
2667.07216,0.19697
2669.00062,0.20114
2670.92909,0.20097
2672.85756,0.19726
2674.78603,0.19506
2676.71450,0.19574
2678.64297,0.19621
2680.57144,0.19743
2682.49990,0.20065
2684.42837,0.20129
2686.35684,0.19880
2688.28531,0.19861
2690.21378,0.19938
2692.14225,0.19687
2694.07072,0.19585
2695.99919,0.19960
2697.92765,0.20334
2699.85612,0.20357
2701.78459,0.20027
2703.71306,0.19601
2705.64153,0.19240
2707.57000,0.19088
2709.49847,0.19435
2711.42693,0.19883
2713.35540,0.19912
2715.28387,0.19699
2717.21234,0.19494
2719.14081,0.19426
2721.06928,0.19569
2722.99775,0.19894
2724.92622,0.20202
2726.85468,0.20323
2728.78315,0.20357
2730.71162,0.20260
2732.64009,0.19992
2734.56856,0.19929
2736.49703,0.20172
2738.42550,0.20248
2740.35396,0.20171
2742.28243,0.20174
2744.21090,0.20117
2746.13937,0.20187
2748.06784,0.20371
2749.99631,0.20344
2751.92478,0.20196
2753.85325,0.20103
2755.78171,0.20241
2757.71018,0.20604
2759.63865,0.20687
2761.56712,0.20354
2763.49559,0.20052
2765.42406,0.19858
2767.35253,0.19696
2769.28099,0.19730
2771.20946,0.19951
2773.13793,0.20130
2775.06640,0.20181
2776.99487,0.20342
2778.92334,0.20661
2780.85181,0.20807
2782.78028,0.20523
2784.70874,0.20038
2786.63721,0.19822
2788.56568,0.19927
2790.49415,0.19975
2792.42262,0.19873
2794.35109,0.20019
2796.27956,0.20175
2798.20802,0.19853
2800.13649,0.19624
2802.06496,0.19915
2803.99343,0.20309
2805.92190,0.20533
2807.85037,0.20626
2809.77884,0.20842
2811.70731,0.21173
2813.63577,0.21252
2815.56424,0.21228
2817.49271,0.21244
2819.42118,0.21111
2821.34965,0.20946
2823.27812,0.20771
2825.20659,0.20570
2827.13505,0.20676
2829.06352,0.21044
2830.99199,0.21171
2832.92046,0.21039
2834.84893,0.20937
2836.77740,0.20818
2838.70587,0.20601
2840.63433,0.20438
2842.56280,0.20364
2844.49127,0.20294
2846.41974,0.20252
2848.34821,0.20291
2850.27668,0.20651
2852.20515,0.21225
2854.13362,0.21505
2856.06208,0.21574
2857.99055,0.21534
2859.91902,0.21209
2861.84749,0.20756
2863.77596,0.20575
2865.70443,0.20817
2867.63290,0.20993
2869.56136,0.20821
2871.48983,0.20485
2873.41830,0.19934
2875.34677,0.19470
2877.27524,0.19567
2879.20371,0.20063
2881.13218,0.20538
2883.06065,0.20706
2884.98911,0.20677
2886.91758,0.20748
2888.84605,0.20756
2890.77452,0.20555
2892.70299,0.20526
2894.63146,0.20638
2896.55993,0.20372
2898.48839,0.19951
2900.41686,0.19924
2902.34533,0.20198
2904.27380,0.20466
2906.20227,0.20467
2908.13074,0.20040
2910.05921,0.19626
2911.98768,0.19736
2913.91614,0.20008
2915.84461,0.19954
2917.77308,0.19766
2919.70155,0.19651
2921.63002,0.19782
2923.55849,0.20065
2925.48696,0.19713
2927.41542,0.19095
2929.34389,0.19388
2931.27236,0.20254
2933.20083,0.20518
2935.12930,0.19899
2937.05777,0.19424
2938.98624,0.19817
2940.91471,0.20400
2942.84317,0.20437
2944.77164,0.19775
2946.70011,0.18919
2948.62858,0.19124
2950.55705,0.20402
2952.48552,0.21239
2954.41399,0.21013
2956.34245,0.20266
2958.27092,0.20026
2960.19939,0.20735
2962.12786,0.21563
2964.05633,0.21711
2965.98480,0.21077
2967.91327,0.20281
2969.84174,0.20152
2971.77020,0.20579
2973.69867,0.20954
2975.62714,0.20915
2977.55561,0.20413
2979.48408,0.20161
2981.41255,0.20681
2983.34102,0.21327
2985.26948,0.21319
2987.19795,0.20693
2989.12642,0.20288
2991.05489,0.20542
2992.98336,0.21003
2994.91183,0.21394
2996.84030,0.21548
2998.76877,0.21282
3000.69723,0.21046
3002.62570,0.21392
3004.55417,0.21812
3006.48264,0.21612
3008.41111,0.21156
3010.33958,0.20482
3012.26805,0.18823
3014.19651,0.16231
3016.12498,0.14364
3018.05345,0.15344
3019.98192,0.18324
3021.91039,0.20310
3023.83886,0.20907
3025.76733,0.21122
3027.69579,0.21163
3029.62426,0.21374
3031.55273,0.21632
3033.48120,0.21417
3035.40967,0.21052
3037.33814,0.20857
3039.26661,0.20662
3041.19508,0.20751
3043.12354,0.21225
3045.05201,0.21393
3046.98048,0.21026
3048.90895,0.20666
3050.83742,0.20708
3052.76589,0.21132
3054.69436,0.21284
3056.62282,0.20779
3058.55129,0.20564
3060.47976,0.20820
3062.40823,0.20818
3064.33670,0.20369
3066.26517,0.19700
3068.19364,0.19908
3070.12211,0.20837
3072.05057,0.21081
3073.97904,0.20701
3075.90751,0.20350
3077.83598,0.20459
3079.76445,0.20962
3081.69292,0.21175
3083.62139,0.20362
3085.54985,0.18998
3087.47832,0.18983
3089.40679,0.20380
3091.33526,0.21113
3093.26373,0.20270
3095.19220,0.19336
3097.12067,0.19566
3099.04914,0.20269
3100.97760,0.20844
3102.90607,0.20877
3104.83454,0.20435
3106.76301,0.20438
3108.69148,0.20760
3110.61995,0.20579
3112.54842,0.20354
3114.47688,0.20886
3116.40535,0.21356
3118.33382,0.21044
3120.26229,0.20380
3122.19076,0.20093
3124.11923,0.20697
3126.04770,0.21464
3127.97617,0.21580
3129.90463,0.21331
3131.83310,0.21231
3133.76157,0.21119
3135.69004,0.20620
3137.61851,0.20271
3139.54698,0.20820
3141.47545,0.21729
3143.40391,0.22052
3145.33238,0.22040
3147.26085,0.21841
3149.18932,0.21234
3151.11779,0.20935
3153.04626,0.21138
3154.97473,0.21191
3156.90320,0.21177
3158.83166,0.21305
3160.76013,0.21370
3162.68860,0.21478
3164.61707,0.21707
3166.54554,0.21773
3168.47401,0.21692
3170.40248,0.21726
3172.33094,0.21634
3174.25941,0.21331
3176.18788,0.21257
3178.11635,0.21309
3180.04482,0.21190
3181.97329,0.21204
3183.90176,0.21433
3185.83022,0.21276
3187.75869,0.20778
3189.68716,0.20945
3191.61563,0.21773
3193.54410,0.22200
3195.47257,0.21908
3197.40104,0.21441
3199.32951,0.21125
3201.25797,0.20757
3203.18644,0.20373
3205.11491,0.20544
3207.04338,0.21400
3208.97185,0.22362
3210.90032,0.22616
3212.82879,0.21845
3214.75725,0.20927
3216.68572,0.20861
3218.61419,0.21337
3220.54266,0.21528
3222.47113,0.21391
3224.39960,0.21388
3226.32807,0.21541
3228.25654,0.21337
3230.18500,0.20869
3232.11347,0.20865
3234.04194,0.21022
3235.97041,0.20630
3237.89888,0.20201
3239.82735,0.20684
3241.75582,0.21755
3243.68428,0.22036
3245.61275,0.21389
3247.54122,0.21015
3249.46969,0.21452
3251.39816,0.22094
3253.32663,0.22026
3255.25510,0.21296
3257.18357,0.20861
3259.11203,0.21004
3261.04050,0.21109
3262.96897,0.21110
3264.89744,0.21317
3266.82591,0.21433
3268.75438,0.21367
3270.68285,0.21230
3272.61131,0.20964
3274.53978,0.21001
3276.46825,0.21527
3278.39672,0.21998
3280.32519,0.22177
3282.25366,0.22207
3284.18213,0.21968
3286.11060,0.21482
3288.03906,0.21075
3289.96753,0.20807
3291.89600,0.20506
3293.82447,0.20195
3295.75294,0.20374
3297.68141,0.21023
3299.60988,0.21384
3301.53834,0.21395
3303.46681,0.21272
3305.39528,0.20999
3307.32375,0.20906
3309.25222,0.21217
3311.18069,0.21635
3313.10916,0.21880
3315.03763,0.21804
3316.96609,0.21354
3318.89456,0.21002
3320.82303,0.21064
3322.75150,0.21407
3324.67997,0.21738
3326.60844,0.21838
3328.53691,0.22009
3330.46537,0.22174
3332.39384,0.21857
3334.32231,0.21326
3336.25078,0.21412
3338.17925,0.22026
3340.10772,0.22220
3342.03619,0.22134
3343.96466,0.22143
3345.89312,0.21924
3347.82159,0.21678
3349.75006,0.21585
3351.67853,0.21088
3353.60700,0.20426
3355.53547,0.20596
3357.46394,0.21109
3359.39240,0.21139
3361.32087,0.21131
3363.24934,0.21287
3365.17781,0.21452
3367.10628,0.21697
3369.03475,0.21765
3370.96322,0.21598
3372.89168,0.21615
3374.82015,0.21732
3376.74862,0.21678
3378.67709,0.21410
3380.60556,0.21308
3382.53403,0.21815
3384.46250,0.22302
3386.39097,0.22287
3388.31943,0.21942
3390.24790,0.21606
3392.17637,0.21621
3394.10484,0.21697
3396.03331,0.21678
3397.96178,0.21469
3399.89025,0.21071
3401.81871,0.20812
3403.74718,0.20695
3405.67565,0.20724
3407.60412,0.20859
3409.53259,0.20839
3411.46106,0.20319
3413.38953,0.19539
3415.31800,0.19345
3417.24646,0.20030
3419.17493,0.21177
3421.10340,0.21804
3423.03187,0.21345
3424.96034,0.20597
3426.88881,0.20307
3428.81728,0.20216
3430.74574,0.20007
3432.67421,0.19720
3434.60268,0.19396
3436.53115,0.19496
3438.45962,0.20168
3440.38809,0.20619
3442.31656,0.20421
3444.24503,0.19988
3446.17349,0.19830
3448.10196,0.19988
3450.03043,0.20199
3451.95890,0.20399
3453.88737,0.20482
3455.81584,0.20390
3457.74431,0.20475
3459.67277,0.20891
3461.60124,0.21116
3463.52971,0.20836
3465.45818,0.20480
3467.38665,0.20282
3469.31512,0.19974
3471.24359,0.19672
3473.17206,0.19521
3475.10052,0.19100
3477.02899,0.18691
3478.95746,0.19005
3480.88593,0.19808
3482.81440,0.20336
3484.74287,0.20187
3486.67134,0.19553
3488.59980,0.18751
3490.52827,0.18459
3492.45674,0.18962
3494.38521,0.19197
3496.31368,0.18831
3498.24215,0.18719
3500.17062,0.18892
3502.09909,0.19120
3504.02755,0.19545
3505.95602,0.19923
3507.88449,0.19919
3509.81296,0.19349
3511.74143,0.18294
3513.66990,0.17601
3515.59837,0.17683
3517.52683,0.17793
3519.45530,0.17786
3521.38377,0.18285
3523.31224,0.18964
3525.24071,0.19054
3527.16918,0.18581
3529.09765,0.17969
3531.02611,0.17660
3532.95458,0.17687
3534.88305,0.17584
3536.81152,0.17462
3538.73999,0.17661
3540.66846,0.17732
3542.59693,0.17717
3544.52540,0.18129
3546.45386,0.18364
3548.38233,0.17642
3550.31080,0.16872
3552.23927,0.16719
3554.16774,0.16650
3556.09621,0.16667
3558.02468,0.16751
3559.95314,0.16571
3561.88161,0.16926
3563.81008,0.18460
3565.73855,0.19974
3567.66702,0.19329
3569.59549,0.17211
3571.52396,0.15791
3573.45243,0.15416
3575.38089,0.15604
3577.30936,0.15805
3579.23783,0.15847
3581.16630,0.15727
3583.09477,0.15892
3585.02324,0.16519
3586.95171,0.16841
3588.88017,0.16187
3590.80864,0.15564
3592.73711,0.15583
3594.66558,0.15704
3596.59405,0.15791
3598.52252,0.16207
3600.45099,0.16552
3602.37946,0.16369
3604.30792,0.15892
3606.23639,0.15665
3608.16486,0.15889
3610.09333,0.16070
3612.02180,0.16040
3613.95027,0.16080
3615.87874,0.16482
3617.80720,0.17220
3619.73567,0.17138
3621.66414,0.15861
3623.59261,0.14861
3625.52108,0.14859
3627.44955,0.15953
3629.37802,0.16976
3631.30649,0.16515
3633.23495,0.15650
3635.16342,0.14839
3637.09189,0.14232
3639.02036,0.13823
3640.94883,0.13687
3642.87730,0.13945
3644.80577,0.14466
3646.73423,0.15261
3648.66270,0.16013
3650.59117,0.15567
3652.51964,0.14697
3654.44811,0.14316
3656.37658,0.14310
3658.30505,0.14317
3660.23352,0.14033
3662.16198,0.13460
3664.09045,0.12886
3666.01892,0.12766
3667.94739,0.13662
3669.87586,0.15244
3671.80433,0.15695
3673.73280,0.15735
3675.66126,0.15891
3677.58973,0.14875
3679.51820,0.13754
3681.44667,0.13238
3683.37514,0.13006
3685.30361,0.13216
3687.23208,0.14255
3689.16055,0.15269
3691.08901,0.14819
3693.01748,0.14010
3694.94595,0.13552
3696.87442,0.13367
3698.80289,0.13776
3700.73136,0.14578
3702.65983,0.14705
3704.58829,0.14141
3706.51676,0.13922
3708.44523,0.14278
3710.37370,0.14479
3712.30217,0.13995
3714.23064,0.13720
3716.15911,0.13730
3718.08757,0.13661
3720.01604,0.13759
3721.94451,0.14034
3723.87298,0.13886
3725.80145,0.13663
3727.72992,0.14010
3729.65839,0.14683
3731.58686,0.15339
3733.51532,0.15651
3735.44379,0.15721
3737.37226,0.15575
3739.30073,0.14914
3741.22920,0.14373
3743.15767,0.14605
3745.08614,0.15331
3747.01460,0.15744
3748.94307,0.16446
3750.87154,0.16790
3752.80001,0.15138
3754.72848,0.13751
3756.65695,0.13843
3758.58542,0.14382
3760.51389,0.14070
3762.44235,0.13822
3764.37082,0.14255
3766.29929,0.14429
3768.22776,0.14056
3770.15623,0.13421
3772.08470,0.12821
3774.01317,0.12805
3775.94163,0.13205
3777.87010,0.13632
3779.79857,0.13676
3781.72704,0.13286
3783.65551,0.12808
3785.58398,0.12467
3787.51245,0.12536
3789.44092,0.12634
3791.36938,0.12535
3793.29785,0.12636
3795.22632,0.13008
3797.15479,0.13593
3799.08326,0.14353
3801.01173,0.14540
3802.94020,0.13704
3804.86866,0.13566
3806.79713,0.14026
3808.72560,0.13724
3810.65407,0.13228
3812.58254,0.13103
3814.51101,0.13333
3816.43948,0.14331
3818.36795,0.15540
3820.29641,0.15806
3822.22488,0.14709
3824.15335,0.13897
3826.08182,0.13763
3828.01029,0.13513
3829.93876,0.13149
3831.86723,0.12842
3833.79569,0.12710
3835.72416,0.13291
3837.65263,0.14351
3839.58110,0.14470
3841.50957,0.13907
3843.43804,0.13540
3845.36651,0.13333
3847.29498,0.13306
3849.22344,0.13567
3851.15191,0.14465
3853.08038,0.15607
3855.00885,0.14845
3856.93732,0.13786
3858.86579,0.13286
3860.79426,0.13156
3862.72272,0.13797
3864.65119,0.14688
3866.57966,0.14715
3868.50813,0.14784
3870.43660,0.15329
3872.36507,0.15116
3874.29354,0.14285
3876.22200,0.13684
3878.15047,0.13408
3880.07894,0.13191
3882.00741,0.13075
3883.93588,0.13177
3885.86435,0.13163
3887.79282,0.13065
3889.72129,0.13265
3891.64975,0.13202
3893.57822,0.12378
3895.50669,0.11928
3897.43516,0.12508
3899.36363,0.13612
3901.29210,0.14006
3903.22057,0.13513
3905.14903,0.12933
3907.07750,0.12603
3909.00597,0.12138
3910.93444,0.11349
3912.86291,0.10939
3914.79138,0.11285
3916.71985,0.11811
3918.64832,0.12107
3920.57678,0.12246
3922.50525,0.12063
3924.43372,0.11465
3926.36219,0.11106
3928.29066,0.11524
3930.21913,0.12302
3932.14760,0.12568
3934.07606,0.12145
3936.00453,0.11649
3937.93300,0.11305
3939.86147,0.11315
3941.78994,0.11811
3943.71841,0.11983
3945.64688,0.11744
3947.57535,0.11961
3949.50381,0.12045
3951.43228,0.11436
3953.36075,0.10985
3955.28922,0.10998
3957.21769,0.11134
3959.14616,0.11321
3961.07463,0.11436
3963.00309,0.11149
3964.93156,0.10748
3966.86003,0.10645
3968.78850,0.10694
3970.71697,0.10835
3972.64544,0.11109
3974.57391,0.11225
3976.50238,0.10977
3978.43084,0.10688
3980.35931,0.10654
3982.28778,0.10823
3984.21625,0.10979
3986.14472,0.10934
3988.07319,0.10755
3990.00166,0.10739
3991.93012,0.11046
3993.85859,0.11180
3995.78706,0.10716
3997.71553,0.10171
3999.64400,0.10079
4001.57247,0.10198
4003.50094,0.10069
4005.42941,0.09711
4007.35787,0.09599
4009.28634,0.09837
4011.21481,0.10053
4013.14328,0.09972
4015.07175,0.09622
4017.00022,0.09461
4018.92869,0.09559
4020.85715,0.09607
4022.78562,0.09843
4024.71409,0.10191
4026.64256,0.10228
4028.57103,0.10007
4030.49950,0.09422
4032.42797,0.08568
4034.35644,0.08496
4036.28490,0.09438
4038.21337,0.09961
4040.14184,0.09486
4042.07031,0.09103
4043.99878,0.09397
4045.92725,0.09927
4047.85572,0.10274
4049.78418,0.10285
4051.71265,0.09935
4053.64112,0.09457
4055.56959,0.09287
4057.49806,0.09539
4059.42653,0.09914
4061.35500,0.10126
4063.28346,0.10090
4065.21193,0.10019
4067.14040,0.10043
4069.06887,0.10153
4070.99734,0.10366
4072.92581,0.10297
4074.85428,0.09908
4076.78275,0.09722
4078.71121,0.09685
4080.63968,0.09514
4082.56815,0.09247
4084.49662,0.09097
4086.42509,0.09221
4088.35356,0.09426
4090.28203,0.09416
4092.21049,0.09312
4094.13896,0.09511
4096.06743,0.09560
4097.99590,0.09082
4099.92437,0.09139
4101.85284,0.09905
4103.78131,0.10141
4105.70978,0.09523
4107.63824,0.08695
4109.56671,0.08151
4111.49518,0.08022
4113.42365,0.08327
4115.35212,0.08891
4117.28059,0.09314
4119.20906,0.09530
4121.13752,0.09512
4123.06599,0.09156
4124.99446,0.08975
4126.92293,0.09059
4128.85140,0.08980
4130.77987,0.09083
4132.70834,0.09271
4134.63681,0.08984
4136.56527,0.08750
4138.49374,0.08978
4140.42221,0.09186
4142.35068,0.09007
4144.27915,0.08548
4146.20762,0.08228
4148.13609,0.08068
4150.06455,0.07958
4151.99302,0.08105
4153.92149,0.08253
4155.84996,0.08314
4157.77843,0.08592
4159.70690,0.08770
4161.63537,0.08585
4163.56384,0.08274
4165.49230,0.07866
4167.42077,0.07528
4169.34924,0.07533
4171.27771,0.07523
4173.20618,0.07413
4175.13465,0.07599
4177.06312,0.07816
4178.99158,0.07622
4180.92005,0.07414
4182.84852,0.07819
4184.77699,0.08542
4186.70546,0.08683
4188.63393,0.07937
4190.56240,0.07079
4192.49087,0.06955
4194.41933,0.07333
4196.34780,0.07427
4198.27627,0.07073
4200.20474,0.06956
4202.13321,0.07566
4204.06168,0.08338
4205.99015,0.08431
4207.91861,0.07798
4209.84708,0.07152
4211.77555,0.06930
4213.70402,0.06561
4215.63249,0.06043
4217.56096,0.06285
4219.48943,0.07134
4221.41789,0.08155
4223.34636,0.09294
4225.27483,0.09849
4227.20330,0.09302
4229.13177,0.08319
4231.06024,0.07598
4232.98871,0.07151
4234.91718,0.07059
4236.84564,0.07244
4238.77411,0.07316
4240.70258,0.07329
4242.63105,0.07723
4244.55952,0.08310
4246.48799,0.08383
4248.41646,0.07926
4250.34492,0.07363
4252.27339,0.06932
4254.20186,0.06766
4256.13033,0.06766
4258.05880,0.06948
4259.98727,0.07400
4261.91574,0.07201
4263.84421,0.06054
4265.77267,0.05607
4267.70114,0.06164
4269.62961,0.06393
4271.55808,0.06354
4273.48655,0.06533
4275.41502,0.06340
4277.34349,0.05647
4279.27195,0.05218
4281.20042,0.05325
4283.12889,0.05668
4285.05736,0.06261
4286.98583,0.06913
4288.91430,0.06671
4290.84277,0.05537
4292.77124,0.04570
4294.69970,0.04300
4296.62817,0.04662
4298.55664,0.05369
4300.48511,0.05940
4302.41358,0.05757
4304.34205,0.05324
4306.27052,0.05710
4308.19898,0.06500
4310.12745,0.06488
4312.05592,0.05481
4313.98439,0.04487
4315.91286,0.04140
4317.84133,0.04303
4319.76980,0.04701
4321.69827,0.05038
4323.62673,0.05279
4325.55520,0.05513
4327.48367,0.05806
4329.41214,0.06168
4331.34061,0.06526
4333.26908,0.06614
4335.19755,0.05978
4337.12601,0.05035
4339.05448,0.04636
4340.98295,0.04475
4342.91142,0.04439
4344.83989,0.05158
4346.76836,0.06036
4348.69683,0.05987
4350.62530,0.05246
4352.55376,0.04728
4354.48223,0.04707
4356.41070,0.04774
4358.33917,0.04792
4360.26764,0.04839
4362.19611,0.04509
4364.12458,0.03658
4366.05304,0.03009
4367.98151,0.03404
4369.90998,0.04579
4371.83845,0.05324
4373.76692,0.05451
4375.69539,0.05143
4377.62386,0.04251
4379.55232,0.03489
4381.48079,0.03384
4383.40926,0.03999
4385.33773,0.04954
4387.26620,0.04949
4389.19467,0.03450
4391.12314,0.01841
4393.05161,0.01993
4394.98007,0.03551
4396.90854,0.04455
4398.83701,0.04061
4400.76548,0.03508
4402.69395,0.04017
4404.62242,0.05308
4406.55089,0.06010
4408.47935,0.05277
4410.40782,0.03589
4412.33629,0.02584
4414.26476,0.03081
4416.19323,0.04107
4418.12170,0.04675
4420.05017,0.04619
4421.97864,0.03805
4423.90710,0.03176
4425.83557,0.03832
4427.76404,0.04454
4429.69251,0.03811
4431.62098,0.02700
4433.54945,0.01961
4435.47792,0.01615
4437.40638,0.01497
4439.33485,0.01802
4441.26332,0.02698
4443.19179,0.03379
4445.12026,0.02815
4447.04873,0.01886
4448.97720,0.01716
4450.90567,0.01886
4452.83413,0.02081
4454.76260,0.02448
4456.69107,0.03288
4458.61954,0.04110
4460.54801,0.04058
4462.47648,0.03631
4464.40495,0.03163
4466.33341,0.02623
4468.26188,0.02778
4470.19035,0.03481
4472.11882,0.03465
4474.04729,0.02727
4475.97576,0.02460
4477.90423,0.03026
4479.83270,0.03539
4481.76116,0.03350
4483.68963,0.02889
4485.61810,0.02635
4487.54657,0.02274
4489.47504,0.01687
4491.40351,0.01361
4493.33198,0.01453
4495.26044,0.01889
4497.18891,0.02193
4499.11738,0.01944
4501.04585,0.01800
4502.97432,0.01697
4504.90279,0.01479
4506.83126,0.02219
4508.75973,0.03327
4510.68819,0.03437
4512.61666,0.02987
4514.54513,0.02368
4516.47360,0.01839
4518.40207,0.02084
4520.33054,0.02964
4522.25901,0.03309
4524.18747,0.02286
4526.11594,0.00847
4528.04441,-0.00048
4529.97288,0.00107
4531.90135,0.01611
4533.82982,0.02855
4535.75829,0.02771
4537.68676,0.02481
4539.61522,0.02347
4541.54369,0.01701
4543.47216,0.01207
4545.40063,0.01602
4547.32910,0.02234
4549.25757,0.02489
4551.18604,0.01948
4553.11450,0.01099
4555.04297,0.01048
4556.97144,0.01330
4558.89991,0.01298
4560.82838,0.01265
4562.75685,0.01411
4564.68532,0.01807
4566.61378,0.01918
4568.54225,0.01217
4570.47072,0.00559
4572.39919,0.00469
4574.32766,0.00757
4576.25613,0.01316
4578.18460,0.01151
4580.11307,0.00264
4582.04153,0.00364
4583.97000,0.01039
4585.89847,0.00995
4587.82694,0.01155
4589.75541,0.01628
4591.68388,0.00938
4593.61235,-0.00364
4595.54081,-0.00292
4597.46928,0.00752
4599.39775,0.00850
4601.32622,0.00505
4603.25469,0.01104
4605.18316,0.01827
4607.11163,0.01441
4609.04010,0.00577
4610.96856,0.00509
4612.89703,0.01206
4614.82550,0.01717
4616.75397,0.01527
4618.68244,0.01060
4620.61091,0.00902
4622.53938,0.01035
4624.46784,0.01618
4626.39631,0.02316
4628.32478,0.01897
4630.25325,0.00686
4632.18172,0.00240
4634.11019,0.00702
4636.03866,0.01433
4637.96713,0.02609
4639.89559,0.03893
4641.82406,0.03794
4643.75253,0.02258
4645.68100,0.01117
4647.60947,0.00988
4649.53794,0.01129
4651.46641,0.01391
4653.39487,0.01775
4655.32334,0.01608
4657.25181,0.00949
4659.18028,0.01052
4661.10875,0.02051
4663.03722,0.02845
4664.96569,0.02613
4666.89416,0.01510
4668.82262,0.00719
4670.75109,0.01217
4672.67956,0.02373
4674.60803,0.02848
4676.53650,0.03040
4678.46497,0.03497
4680.39344,0.03292
4682.32190,0.01987
4684.25037,0.00472
4686.17884,-0.00060
4688.10731,0.00118
4690.03578,0.00227
4691.96425,0.00329
4693.89272,0.00500
4695.82119,0.00616
4697.74965,0.00728
4699.67812,0.01147
4701.60659,0.01336
4703.53506,0.00621
4705.46353,0.00386
4707.39200,0.01510
4709.32047,0.01590
4711.24893,-0.00258
4713.17740,-0.01418
4715.10587,-0.01152
4717.03434,-0.00443
4718.96281,0.00681
4720.89128,0.01836
4722.81975,0.02340
4724.74821,0.02396
4726.67668,0.02218
4728.60515,0.01574
4730.53362,0.00646
4732.46209,0.00044
4734.39056,-0.00197
4736.31903,-0.00263
4738.24750,0.00270
4740.17596,0.00776
4742.10443,0.00592
4744.03290,0.00803
4745.96137,0.01493
4747.88984,0.01792
4749.81831,0.01859
4751.74678,0.01883
4753.67524,0.02135
4755.60371,0.02495
4757.53218,0.01996
4759.46065,0.01101
4761.38912,0.00378
4763.31759,-0.00506
4765.24606,-0.00611
4767.17453,0.00542
4769.10299,0.01498
4771.03146,0.01342
4772.95993,0.00584
4774.88840,-0.00404
4776.81687,-0.01032
4778.74534,-0.00701
4780.67381,0.00158
4782.60227,0.01307
4784.53074,0.02321
4786.45921,0.02611
4788.38768,0.02426
4790.31615,0.02107
4792.24462,0.01557
4794.17309,0.00637
4796.10156,0.00165
4798.03002,0.01036
4799.95849,0.02120
4801.88696,0.02037
4803.81543,0.01387
4805.74390,0.00972
4807.67237,0.00912
4809.60084,0.00752
4811.52930,-0.00303
4813.45777,-0.01655
4815.38624,-0.02640
4817.31471,-0.03241
4819.24318,-0.02727
4821.17165,-0.00835
4823.10012,0.00821
4825.02859,0.01121
4826.95705,0.01209
4828.88552,0.01523
4830.81399,0.01454
4832.74246,0.01441
4834.67093,0.01508
4836.59940,0.01077
4838.52787,0.00375
4840.45633,-0.00345
4842.38480,-0.01378
4844.31327,-0.02241
4846.24174,-0.02007
4848.17021,-0.01123
4850.09868,-0.00130
4852.02715,0.00746
4853.95562,0.00661
4855.88408,0.00218
4857.81255,0.00510
4859.74102,0.01107
4861.66949,0.01817
4863.59796,0.02259
4865.52643,0.01492
4867.45490,0.00003
4869.38336,-0.00824
4871.31183,0.00041
4873.24030,0.01863
4875.16877,0.02382
4877.09724,0.01788
4879.02571,0.01709
4880.95418,0.01985
4882.88265,0.02110
4884.81111,0.01855
4886.73958,0.01661
4888.66805,0.02263
4890.59652,0.02964
4892.52499,0.02583
4894.45346,0.00830
4896.38193,-0.00935
4898.31039,-0.01206
4900.23886,-0.00336
4902.16733,0.00553
4904.09580,0.00261
4906.02427,-0.00737
4907.95274,-0.00620
4909.88121,0.00001
4911.80967,0.00423
4913.73814,0.01294
4915.66661,0.01767
4917.59508,0.01283
4919.52355,0.00488
4921.45202,0.00115
4923.38049,0.00392
4925.30896,0.00279
4927.23742,-0.00026
4929.16589,0.00065
4931.09436,-0.00411
4933.02283,-0.01200
4934.95130,-0.01115
4936.87977,0.00044
4938.80824,0.01440
4940.73670,0.01919
4942.66517,0.01932
4944.59364,0.02549
4946.52211,0.03127
4948.45058,0.03134
4950.37905,0.02708
4952.30752,0.01582
4954.23599,0.00681
4956.16445,0.01266
4958.09292,0.02496
4960.02139,0.02578
4961.94986,0.01711
4963.87833,0.01282
4965.80680,0.01517
4967.73527,0.02168
4969.66373,0.02403
4971.59220,0.01839
4973.52067,0.01366
4975.44914,0.01009
4977.37761,0.00287
4979.30608,-0.00010
4981.23455,0.00640
4983.16302,0.01796
4985.09148,0.03278
4987.01995,0.03538
4988.94842,0.02312
4990.87689,0.02467
4992.80536,0.03675
4994.73383,0.04138
4996.66230,0.04302
4998.59076,0.03878
5000.51923,0.02825
5002.44770,0.01634
5004.37617,0.01325
5006.30464,0.02739
5008.23311,0.03733
5010.16158,0.02693
5012.09005,0.01201
5014.01851,0.00637
5015.94698,0.00464
5017.87545,0.00008
5019.80392,-0.00222
5021.73239,-0.00075
5023.66086,-0.00615
5025.58933,-0.01186
5027.51779,-0.00376
5029.44626,0.00634
5031.37473,0.00986
5033.30320,0.01145
5035.23167,0.00962
5037.16014,0.00875
5039.08861,0.02016
5041.01708,0.03475
5042.94554,0.03325
5044.87401,0.02325
5046.80248,0.01809
5048.73095,0.01061
5050.65942,-0.00712
5052.58789,-0.01943
5054.51636,-0.00934
5056.44482,0.01077
5058.37329,0.02107
5060.30176,0.01412
5062.23023,-0.00187
5064.15870,-0.01074
5066.08717,-0.00525
5068.01564,0.00509
5069.94410,0.00508
5071.87257,0.00510
5073.80104,0.01671
5075.72951,0.02489
5077.65798,0.01737
5079.58645,0.00797
5081.51492,0.00990
5083.44339,0.01266
5085.37185,0.01517
5087.30032,0.01845
5089.22879,0.00773
5091.15726,-0.00968
5093.08573,-0.01007
5095.01420,0.00478
5096.94267,0.01433
5098.87113,0.01170
5100.79960,0.00774
5102.72807,0.01349
5104.65654,0.02944
5106.58501,0.04371
5108.51348,0.05438
5110.44195,0.07070
5112.37042,0.08033
5114.29888,0.07033
5116.22735,0.05740
5118.15582,0.05268
5120.08429,0.04598
5122.01276,0.03884
5123.94123,0.03728
5125.86970,0.02760
5127.79816,0.01299
5129.72663,0.01055
5131.65510,0.00826
5133.58357,0.00137
5135.51204,0.01218
5137.44051,0.03758
5139.36898,0.05226
5141.29745,0.05168
5143.22591,0.03850
5145.15438,0.02133
5147.08285,0.01883
5149.01132,0.02798
5150.93979,0.03591
5152.86826,0.03815
5154.79673,0.03687
5156.72519,0.04005
5158.65366,0.04800
5160.58213,0.05414
5162.51060,0.04590
5164.43907,0.02132
5166.36754,0.00472
5168.29601,0.00737
5170.22448,0.01986
5172.15294,0.02949
5174.08141,0.02991
5176.00988,0.03139
5177.93835,0.03988
5179.86682,0.04681
5181.79529,0.03930
5183.72376,0.01825
5185.65222,0.01050
5187.58069,0.02212
5189.50916,0.02810
5191.43763,0.03223
5193.36610,0.04456
5195.29457,0.05080
5197.22304,0.05063
5199.15151,0.04707
5201.07997,0.03553
5203.00844,0.02603
5204.93691,0.02407
5206.86538,0.03587
5208.79385,0.05736
5210.72232,0.06572
5212.65079,0.05213
5214.57925,0.02403
5216.50772,0.01076
5218.43619,0.02285
5220.36466,0.03186
5222.29313,0.03395
5224.22160,0.04433
5226.15007,0.05269
5228.07854,0.05072
5230.00700,0.04808
5231.93547,0.03919
5233.86394,0.02217
5235.79241,0.02082
5237.72088,0.03737
5239.64935,0.04133
5241.57782,0.03879
5243.50628,0.05447
5245.43475,0.06842
5247.36322,0.06425
5249.29169,0.05638
5251.22016,0.05680
5253.14863,0.06170
5255.07710,0.05469
5257.00556,0.03945
5258.93403,0.03254
5260.86250,0.02800
5262.79097,0.02854
5264.71944,0.03989
5266.64791,0.03632
5268.57638,0.02553
5270.50485,0.02867
5272.43331,0.03012
5274.36178,0.02195
5276.29025,0.01848
5278.21872,0.03094
5280.14719,0.04674
5282.07566,0.04598
5284.00413,0.03155
5285.93259,0.01728
5287.86106,0.00608
5289.78953,0.00479
5291.71800,0.02303
5293.64647,0.03757
5295.57494,0.03813
5297.50341,0.03650
5299.43188,0.03557
5301.36034,0.04324
5303.28881,0.06162
5305.21728,0.07160
5307.14575,0.06150
5309.07422,0.04185
5311.00269,0.02415
5312.93116,0.01609
5314.85962,0.02072
5316.78809,0.02881
5318.71656,0.03505
5320.64503,0.03602
5322.57350,0.03280
5324.50197,0.04099
5326.43044,0.05239
5328.35891,0.04385
5330.28737,0.02855
5332.21584,0.02042
5334.14431,0.02719
5336.07278,0.04260
5338.00125,0.03797
5339.92972,0.02598
5341.85819,0.03405
5343.78665,0.05709
5345.71512,0.07777
5347.64359,0.07963
5349.57206,0.07740
5351.50053,0.07974
5353.42900,0.07081
5355.35747,0.04946
5357.28594,0.02819
5359.21440,0.01950
5361.14287,0.03535
5363.07134,0.05956
5364.99981,0.06765
5366.92828,0.06137
5368.85675,0.05865
5370.78522,0.07026
5372.71368,0.08659
5374.64215,0.08839
5376.57062,0.08023
5378.49909,0.09234
5380.42756,0.12038
5382.35603,0.13347
5384.28450,0.10981
5386.21297,0.07159
5388.14143,0.06235
5390.06990,0.07070
5391.99837,0.06909
5393.92684,0.05579
5395.85531,0.05186
5397.78378,0.06221
5399.71225,0.07899
5401.64071,0.10680
5403.56918,0.13290
5405.49765,0.13336
5407.42612,0.11377
5409.35459,0.09055
5411.28306,0.06526
5413.21153,0.04401
5415.13999,0.04082
5417.06846,0.05133
5418.99693,0.05833
5420.92540,0.06060
5422.85387,0.07178
5424.78234,0.07456
5426.71081,0.05390
5428.63928,0.04649
5430.56774,0.06545
5432.49621,0.08601
5434.42468,0.10459
5436.35315,0.10117
5438.28162,0.07719
5440.21009,0.06340
5442.13856,0.05980
5444.06702,0.06189
5445.99549,0.07582
5447.92396,0.07798
5449.85243,0.05863
5451.78090,0.04938
5453.70937,0.05632
5455.63784,0.05933
5457.56631,0.05644
5459.49477,0.06645
5461.42324,0.07888
5463.35171,0.07388
5465.28018,0.08118
5467.20865,0.10765
5469.13712,0.10558
5471.06559,0.07052
5472.99405,0.04461
5474.92252,0.04548
5476.85099,0.05932
5478.77946,0.05800
5480.70793,0.04776
5482.63640,0.05311
5484.56487,0.06302
5486.49334,0.06857
5488.42180,0.07762
5490.35027,0.06503
5492.27874,0.03016
5494.20721,0.02939
5496.13568,0.07443
5498.06415,0.11848
5499.99262,0.11797
5501.92108,0.08806
5503.84955,0.07625
5505.77802,0.08150
5507.70649,0.08494
5509.63496,0.08785
5511.56343,0.08208
5513.49190,0.06708
5515.42037,0.06086
5517.34883,0.05884
5519.27730,0.05500
5521.20577,0.04051
5523.13424,0.01231
5525.06271,0.01142
5526.99118,0.03560
5528.91965,0.04649
5530.84811,0.04420
5532.77658,0.04273
5534.70505,0.06047
5536.63352,0.09056
5538.56199,0.10439
5540.49046,0.09826
5542.41893,0.08045
5544.34740,0.05712
5546.27586,0.05693
5548.20433,0.10792
5550.13280,0.16392
5552.06127,0.17454
5553.98974,0.14751
5555.91821,0.10516
5557.84668,0.07958
5559.77514,0.08106
5561.70361,0.09456
5563.63208,0.12012
5565.56055,0.12872
5567.48902,0.10730
5569.41749,0.10948
5571.34596,0.14575
5573.27443,0.16500
5575.20289,0.14959
5577.13136,0.12475
5579.05983,0.09558
5580.98830,0.06677
5582.91677,0.05196
5584.84524,0.04655
5586.77371,0.05366
5588.70217,0.06523
5590.63064,0.07338
5592.55911,0.09575
5594.48758,0.10671
5596.41605,0.07965
5598.34452,0.05730
5600.27299,0.07032
5602.20145,0.09491
5604.12992,0.10749
5606.05839,0.11660
5607.98686,0.12346
5609.91533,0.09962
5611.84380,0.05359
5613.77227,0.02805
5615.70074,0.03168
5617.62920,0.04302
5619.55767,0.05973
5621.48614,0.09145
5623.41461,0.11466
5625.34308,0.11538
5627.27155,0.10460
5629.20002,0.09036
5631.12848,0.08145
5633.05695,0.08847
5634.98542,0.11724
5636.91389,0.13764
5638.84236,0.12478
5640.77083,0.10353
5642.69930,0.09861
5644.62777,0.10683
5646.55623,0.11043
5648.48470,0.10525
5650.41317,0.09946
5652.34164,0.08015
5654.27011,0.04318
5656.19858,0.01546
5658.12705,0.01456
5660.05551,0.03887
5661.98398,0.06359
5663.91245,0.06605
5665.84092,0.06077
5667.76939,0.06530
5669.69786,0.07372
5671.62633,0.06338
5673.55480,0.03423
5675.48326,0.01364
5677.41173,0.02651
5679.34020,0.06401
5681.26867,0.07715
5683.19714,0.06910
5685.12561,0.08435
5687.05408,0.10201
5688.98254,0.08791
5690.91101,0.06752
5692.83948,0.06685
5694.76795,0.06682
5696.69642,0.04616
5698.62489,0.02861
5700.55336,0.04438
5702.48183,0.07261
5704.41029,0.08632
5706.33876,0.08732
5708.26723,0.07784
5710.19570,0.07216
5712.12417,0.09273
5714.05264,0.11005
5715.98111,0.08538
5717.90957,0.05231
5719.83804,0.05022
5721.76651,0.06304
5723.69498,0.06728
5725.62345,0.06543
5727.55192,0.06659
5729.48039,0.07569
5731.40886,0.08865
5733.33732,0.09576
5735.26579,0.09846
5737.19426,0.09648
5739.12273,0.10965
5741.05120,0.15126
5742.97967,0.16756
5744.90814,0.14610
5746.83660,0.11778
5748.76507,0.08079
5750.69354,0.05404
5752.62201,0.06934
5754.55048,0.11643
5756.47895,0.15355
5758.40742,0.14209
5760.33588,0.09909
5762.26435,0.06182
5764.19282,0.03702
5766.12129,0.03980
5768.04976,0.07897
5769.97823,0.12183
5771.90670,0.12822
5773.83517,0.09752
5775.76363,0.07163
5777.69210,0.08042
5779.62057,0.09212
5781.54904,0.05389
5783.47751,-0.00328
5785.40598,-0.01995
5787.33445,0.00075
5789.26291,0.03472
5791.19138,0.05045
5793.11985,0.03867
5795.04832,0.03208
5796.97679,0.05035
5798.90526,0.08579
5800.83373,0.10348
5802.76220,0.08237
5804.69066,0.05046
5806.61913,0.04068
5808.54760,0.06146
5810.47607,0.08443
5812.40454,0.07647
5814.33301,0.05666
5816.26148,0.05220
5818.18994,0.06677
5820.11841,0.09616
5822.04688,0.12253
5823.97535,0.13307
5825.90382,0.12256
5827.83229,0.09762
5829.76076,0.09800
5831.68923,0.13398
5833.61769,0.15136
5835.54616,0.13013
5837.47463,0.10277
5839.40310,0.07831
5841.33157,0.06894
5843.26004,0.08706
5845.18851,0.10597
5847.11697,0.12137
5849.04544,0.14530
5850.97391,0.14966
5852.90238,0.12726
5854.83085,0.10670
5856.75932,0.10373
5858.68779,0.11345
5860.61626,0.12056
5862.54472,0.10979
5864.47319,0.08731
5866.40166,0.06703
5868.33013,0.04764
5870.25860,0.05955
5872.18707,0.11190
5874.11554,0.13853
5876.04400,0.11522
5877.97247,0.10625
5879.90094,0.10985
5881.82941,0.06140
5883.75788,0.01145
5885.68635,0.04066
5887.61482,0.10120
5889.54329,0.11417
5891.47175,0.08666
5893.40022,0.05322
5895.32869,0.02263
5897.25716,0.01842
5899.18563,0.06992
5901.11410,0.12619
5903.04257,0.10222
5904.97103,0.04886
5906.89950,0.05225
5908.82797,0.07535
5910.75644,0.07081
5912.68491,0.04659
5914.61338,0.02987
5916.54185,0.05020
5918.47032,0.08092
5920.39878,0.07479
5922.32725,0.05598
5924.25572,0.06854
5926.18419,0.10314
5928.11266,0.12192
5930.04113,0.11629
5931.96960,0.11062
5933.89806,0.09851
5935.82653,0.07920
5937.75500,0.09505
5939.68347,0.11778
5941.61194,0.08817
5943.54041,0.04532
5945.46888,0.03900
5947.39734,0.05304
5949.32581,0.06932
5951.25428,0.06705
5953.18275,0.06885
5955.11122,0.10176
5957.03969,0.11004
5958.96816,0.09671
5960.89663,0.10868
5962.82509,0.10531
5964.75356,0.08281
5966.68203,0.08964
5968.61050,0.10978
5970.53897,0.08928
5972.46744,0.05714
5974.39591,0.07649
5976.32437,0.11995
5978.25284,0.14737
5980.18131,0.15502
5982.10978,0.13930
5984.03825,0.11483
5985.96672,0.10124
5987.89519,0.09727
5989.82366,0.09496
5991.75212,0.09688
5993.68059,0.10045
5995.60906,0.09100
5997.53753,0.06957
5999.46600,0.06979
6001.39447,0.11048
6003.32294,0.13745
6005.25140,0.12001
6007.17987,0.11471
6009.10834,0.12303
6011.03681,0.10985
6012.96528,0.08799
6014.89375,0.07184
6016.82222,0.06310
6018.75069,0.06287
6020.67915,0.07632
6022.60762,0.10090
6024.53609,0.10505
6026.46456,0.08849
6028.39303,0.08266
6030.32150,0.07323
6032.24997,0.03264
6034.17843,-0.02353
6036.10690,-0.04329
6038.03537,-0.00394
6039.96384,0.04818
6041.89231,0.06638
6043.82078,0.04386
6045.74925,0.02796
6047.67772,0.04822
6049.60618,0.06062
6051.53465,0.04849
6053.46312,0.06136
6055.39159,0.10154
6057.32006,0.12212
6059.24853,0.13931
6061.17700,0.16627
6063.10546,0.14603
6065.03393,0.11723
6066.96240,0.16262
6068.89087,0.21310
6070.81934,0.18714
6072.74781,0.11992
6074.67628,0.06095
6076.60475,0.04093
6078.53321,0.06385
6080.46168,0.07902
6082.39015,0.05813
6084.31862,0.03932
6086.24709,0.03546
6088.17556,0.02832
6090.10403,0.03282
6092.03249,0.04262
6093.96096,0.04464
6095.88943,0.06641
6097.81790,0.10919
6099.74637,0.13340
6101.67484,0.11903
6103.60331,0.07765
6105.53177,0.03164
6107.46024,0.00860
6109.38871,0.02002
6111.31718,0.06356
6113.24565,0.11609
6115.17412,0.11566
6117.10259,0.06060
6119.03106,0.04815
6120.95952,0.08601
6122.88799,0.07675
6124.81646,0.03872
6126.74493,0.05458
6128.67340,0.09525
6130.60187,0.05683
6132.53034,-0.02830
6134.45880,-0.04861
6136.38727,0.00185
6138.31574,0.05197
6140.24421,0.05928
6142.17268,0.05577
6144.10115,0.06842
6146.02962,0.06501
6147.95809,0.06689
6149.88655,0.11068
6151.81502,0.14067
6153.74349,0.11994
6155.67196,0.11508
6157.60043,0.14673
6159.52890,0.15493
6161.45737,0.11574
6163.38583,0.06436
6165.31430,0.03352
6167.24277,0.02830
6169.17124,0.04118
6171.09971,0.06910
6173.02818,0.08223
6174.95665,0.07252
6176.88512,0.07200
6178.81358,0.07395
6180.74205,0.06870
6182.67052,0.06719
6184.59899,0.07807
6186.52746,0.09809
6188.45593,0.10555
6190.38440,0.12094
6192.31286,0.14826
6194.24133,0.13646
6196.16980,0.09800
6198.09827,0.09144
6200.02674,0.10483
6201.95521,0.09154
6203.88368,0.04723
6205.81215,-0.00179
6207.74061,-0.01368
6209.66908,0.02328
6211.59755,0.04296
6213.52602,0.03417
6215.45449,0.04927
6217.38296,0.06437
6219.31143,0.05829
6221.23989,0.06972
6223.16836,0.11649
6225.09683,0.16239
6227.02530,0.17283
6228.95377,0.15698
6230.88224,0.10437
6232.81071,0.02281
6234.73918,-0.00671
6236.66764,0.02311
6238.59611,0.06058
6240.52458,0.10599
6242.45305,0.13171
6244.38152,0.08115
6246.30999,0.00388
6248.23846,-0.04320
6250.16692,-0.05497
6252.09539,-0.01915
6254.02386,0.00767
6255.95233,-0.00907
6257.88080,-0.01645
6259.80927,-0.00719
6261.73774,-0.00352
6263.66621,0.01522
6265.59467,0.06751
6267.52314,0.12924
6269.45161,0.16413
6271.38008,0.17488
6273.30855,0.17052
6275.23702,0.13836
6277.16549,0.07728
6279.09395,0.02292
6281.02242,0.02529
6282.95089,0.07985
6284.87936,0.12384
6286.80783,0.13945
6288.73630,0.13381
6290.66477,0.12138
6292.59323,0.16606
6294.52170,0.21154
6296.45017,0.15064
6298.37864,0.05059
6300.30711,-0.02108
6302.23558,-0.06585
6304.16405,-0.05588
6306.09252,-0.01587
6308.02098,-0.00859
6309.94945,-0.03437
6311.87792,-0.04550
6313.80639,-0.02920
6315.73486,0.00675
6317.66333,0.07155
6319.59180,0.14243
6321.52026,0.13514
6323.44873,0.05475
6325.37720,0.03937
6327.30567,0.08841
6329.23414,0.12324
6331.16261,0.18012
6333.09108,0.22598
6335.01955,0.16165
6336.94801,0.08086
6338.87648,0.09437
6340.80495,0.12514
6342.73342,0.09176
6344.66189,0.03015
6346.59036,0.01220
6348.51883,0.05367
6350.44729,0.11323
6352.37576,0.15324
6354.30423,0.13912
6356.23270,0.08986
6358.16117,0.08560
6360.08964,0.14217
6362.01811,0.17658
6363.94658,0.13939
6365.87504,0.07503
6367.80351,0.07088
6369.73198,0.11986
6371.66045,0.13274
6373.58892,0.08593
6375.51739,0.06387
6377.44586,0.08879
6379.37432,0.08555
6381.30279,0.04766
6383.23126,0.02058
6385.15973,0.01573
6387.08820,0.01651
6389.01667,0.00426
6390.94514,-0.00966
6392.87361,0.01341
6394.80207,0.07015
6396.73054,0.09092
6398.65901,0.05569
6400.58748,0.00857
6402.51595,0.01440
6404.44442,0.07945
6406.37289,0.11313
6408.30135,0.07890
6410.22982,0.03326
6412.15829,-0.00145
6414.08676,-0.00911
6416.01523,0.02206
6417.94370,0.08143
6419.87217,0.10499
6421.80064,0.06547
6423.72910,0.03037
6425.65757,0.02529
6427.58604,0.04172
6429.51451,0.07327
6431.44298,0.06197
6433.37145,0.00533
6435.29992,-0.03625
6437.22838,-0.05817
6439.15685,-0.06108
6441.08532,-0.04491
6443.01379,-0.02463
6444.94226,0.00052
6446.87073,0.03074
6448.79920,0.06672
6450.72766,0.10392
6452.65613,0.10594
6454.58460,0.08154
6456.51307,0.08822
6458.44154,0.13228
6460.37001,0.16691
6462.29848,0.16253
6464.22695,0.13631
6466.15541,0.12059
6468.08388,0.14667
6470.01235,0.22374
6471.94082,0.23330
6473.86929,0.10609
6475.79776,0.00894
6477.72623,0.06233
6479.65469,0.13947
6481.58316,0.15115
6483.51163,0.14603
6485.44010,0.12180
6487.36857,0.06337
6489.29704,0.02397
6491.22551,0.02581
6493.15398,0.05976
6495.08244,0.11142
6497.01091,0.12908
6498.93938,0.10917
6500.86785,0.09367
6502.79632,0.08388
6504.72479,0.08281
6506.65326,0.10641
6508.58172,0.10076
6510.51019,0.04994
6512.43866,0.02724
6514.36713,0.03320
6516.29560,0.05234
6518.22407,0.07710
6520.15254,0.07459
6522.08101,0.06501
6524.00947,0.04451
6525.93794,-0.00665
6527.86641,-0.02972
6529.79488,0.00079
6531.72335,0.04894
6533.65182,0.08525
6535.58029,0.06293
6537.50875,-0.02376
6539.43722,-0.04671
6541.36569,0.05046
6543.29416,0.14147
6545.22263,0.17683
6547.15110,0.20187
6549.07957,0.17732
6551.00804,0.06614
6552.93650,-0.02705
6554.86497,-0.02926
6556.79344,-0.02523
6558.72191,-0.04577
6560.65038,-0.01267
6562.57885,0.04621
6564.50732,0.06478
6566.43578,0.08551
6568.36425,0.14806
6570.29272,0.19443
6572.22119,0.16815
6574.14966,0.14234
6576.07813,0.17798
6578.00660,0.16208
6579.93507,0.02924
6581.86353,-0.09093
6583.79200,-0.10074
6585.72047,-0.04633
6587.64894,0.00517
6589.57741,0.04245
6591.50588,0.08684
6593.43435,0.10804
6595.36281,0.05917
6597.29128,0.00488
6599.21975,0.02848
6601.14822,0.10877
6603.07669,0.13800
6605.00516,0.12074
6606.93363,0.11743
6608.86210,0.14557
6610.79056,0.18987
6612.71903,0.18706
6614.64750,0.12400
6616.57597,0.04314
6618.50444,-0.01037
6620.43291,-0.02879
6622.36138,-0.04907
6624.28984,-0.03030
6626.21831,0.02970
6628.14678,0.04723
6630.07525,0.02722
6632.00372,0.00261
6633.93219,-0.02331
6635.86066,0.00731
6637.78912,0.10201
6639.71759,0.16500
6641.64606,0.13850
6643.57453,0.02768
6645.50300,-0.09083
6647.43147,-0.10114
6649.35994,-0.00951
6651.28841,0.07674
6653.21687,0.13670
6655.14534,0.15333
6657.07381,0.07832
6659.00228,0.06695
6660.93075,0.17530
6662.85922,0.19248
6664.78769,0.10218
6666.71615,0.03392
6668.64462,0.04412
6670.57309,0.09345
6672.50156,0.08769
6674.43003,-0.01030
6676.35850,-0.11079
6678.28697,-0.09270
6680.21544,0.01202
6682.14390,0.05491
6684.07237,0.04443
6686.00084,0.11306
6687.92931,0.21837
6689.85778,0.19581
6691.78625,0.09630
6693.71472,0.04708
6695.64318,0.03480
6697.57165,0.04888
6699.50012,0.12528
6701.42859,0.19423
6703.35706,0.17403
6705.28553,0.11120
6707.21400,0.03459
6709.14247,-0.02462
6711.07093,-0.01228
6712.99940,0.00286
6714.92787,-0.01495
6716.85634,-0.01274
6718.78481,0.00629
6720.71328,0.02311
6722.64175,0.01034
6724.57021,-0.04458
6726.49868,-0.04012
6728.42715,0.06020
6730.35562,0.10138
6732.28409,0.00597
6734.21256,-0.07819
6736.14103,-0.03791
6738.06950,0.09254
6739.99796,0.17756
6741.92643,0.13822
6743.85490,0.06687
6745.78337,0.01113
6747.71184,-0.04736
6749.64031,-0.05785
6751.56878,0.01176
6753.49724,0.09513
6755.42571,0.15049
6757.35418,0.23114
6759.28265,0.32466
6761.21112,0.31713
6763.13959,0.22867
6765.06806,0.14913
6766.99653,0.06482
6768.92499,-0.03117
6770.85346,-0.08486
6772.78193,-0.03862
6774.71040,0.10494
6776.63887,0.23697
6778.56734,0.25510
6780.49581,0.19791
6782.42427,0.12064
6784.35274,0.08996
6786.28121,0.11008
6788.20968,0.07709
6790.13815,-0.01245
6792.06662,-0.07640
6793.99509,-0.13452
6795.92355,-0.14862
6797.85202,-0.04066
6799.78049,0.06205
6801.70896,0.02318
6803.63743,-0.01122
6805.56590,0.05498
6807.49437,0.04875
6809.42284,-0.04408
6811.35130,-0.09213
6813.27977,-0.09463
6815.20824,-0.09113
6817.13671,-0.03142
6819.06518,0.01878
6820.99365,-0.02326
6822.92212,-0.10353
6824.85058,-0.09854
6826.77905,-0.03463
6828.70752,0.02607
6830.63599,0.09558
6832.56446,0.11055
6834.49293,0.05101
6836.42140,0.05766
6838.34987,0.13875
6840.27833,0.16219
6842.20680,0.15410
6844.13527,0.17561
6846.06374,0.18972
6847.99221,0.13876
6849.92068,0.06337
6851.84915,0.01710
6853.77761,-0.05060
6855.70608,-0.09853
6857.63455,-0.04024
6859.56302,0.03564
6861.49149,0.05216
6863.41996,0.07943
6865.34843,0.16781
6867.27690,0.22329
6869.20536,0.17426
6871.13383,0.12158
6873.06230,0.16106
6874.99077,0.21241
6876.91924,0.19969
6878.84771,0.13144
6880.77618,0.02954
6882.70464,-0.02422
6884.63311,0.02320
6886.56158,0.10862
6888.49005,0.13917
6890.41852,0.15790
6892.34699,0.21636
6894.27546,0.24737
6896.20393,0.21014
6898.13239,0.10041
6900.06086,-0.00790
6901.98933,-0.02522
6903.91780,0.00051
6905.84627,-0.01993
6907.77474,-0.06366
6909.70321,-0.04143
6911.63167,0.05128
6913.56014,0.08635
6915.48861,0.01842
6917.41708,-0.03480
6919.34555,-0.02401
6921.27402,-0.01003
6923.20249,0.00599
6925.13096,0.05657
6927.05942,0.10669
6928.98789,0.10692
6930.91636,0.06496
6932.84483,0.05872
6934.77330,0.08159
6936.70177,0.08038
6938.63024,0.06251
6940.55870,0.00813
6942.48717,-0.07789
6944.41564,-0.15197
6946.34411,-0.18842
6948.27258,-0.13358
6950.20105,-0.02335
6952.12952,0.04353
6954.05799,0.03105
6955.98645,-0.01320
6957.91492,0.02663
6959.84339,0.14375
6961.77186,0.12436
6963.70033,-0.06378
6965.62880,-0.18612
6967.55727,-0.12221
6969.48573,0.02061
6971.41420,0.11513
6973.34267,0.12471
6975.27114,0.01038
6977.19961,-0.07256
6979.12808,-0.02842
6981.05655,0.06435
6982.98501,0.14751
6984.91348,0.17379
6986.84195,0.16934
6988.77042,0.13693
6990.69889,0.08226
6992.62736,0.06490
6994.55583,0.03367
6996.48430,-0.06830
6998.41276,-0.13729
7000.34123,-0.07042
7002.26970,0.04391
7004.19817,0.11971
7006.12664,0.13178
7008.05511,0.08691
7009.98358,0.03007
7011.91204,-0.02676
7013.84051,-0.02694
7015.76898,0.03901
7017.69745,0.05682
7019.62592,-0.00775
7021.55439,-0.11189
7023.48286,-0.17443
7025.41133,-0.13620
7027.33979,-0.05909
7029.26826,0.04820
7031.19673,0.16198
7033.12520,0.15418
7035.05367,0.03964
7036.98214,-0.01799
7038.91061,-0.00217
7040.83907,0.04966
7042.76754,0.16857
7044.69601,0.25347
7046.62448,0.15842
7048.55295,0.03511
7050.48142,0.04498
7052.40989,0.07064
7054.33836,0.00341
7056.26682,-0.07083
7058.19529,-0.02810
7060.12376,0.12658
7062.05223,0.32074
7063.98070,0.35586
7065.90917,0.17159
7067.83764,0.06442
7069.76610,0.10535
7071.69457,0.08795
7073.62304,0.08241
7075.55151,0.15493
7077.47998,0.18539
7079.40845,0.19580
7081.33692,0.23765
7083.26539,0.20167
7085.19385,0.08194
7087.12232,0.03423
7089.05079,0.14473
7090.97926,0.21986
7092.90773,0.14004
7094.83620,0.05157
7096.76467,0.02554
7098.69313,-0.02417
7100.62160,-0.06557
7102.55007,-0.03880
7104.47854,-0.03775
7106.40701,-0.07482
7108.33548,-0.02377
7110.26395,0.02725
7112.19242,0.00572
7114.12088,0.03980
7116.04935,0.14806
7117.97782,0.17987
7119.90629,0.14833
7121.83476,0.15091
7123.76323,0.13013
7125.69170,0.10380
7127.62016,0.06925
7129.54863,0.02627
7131.47710,0.08084
7133.40557,0.15839
7135.33404,0.12719
7137.26251,0.06951
7139.19098,0.03211
7141.11944,-0.03298
7143.04791,-0.05269
7144.97638,0.05436
7146.90485,0.15431
7148.83332,0.07485
7150.76179,-0.10177
7152.69026,-0.19225
7154.61873,-0.13658
7156.54719,-0.02972
7158.47566,0.02047
7160.40413,0.00958
7162.33260,0.06024
7164.26107,0.17018
7166.18954,0.13096
7168.11801,-0.03573
7170.04647,-0.03619
7171.97494,0.16745
7173.90341,0.40594
7175.83188,0.50843
7177.76035,0.32855
7179.68882,0.13138
7181.61729,0.08489
7183.54576,-0.00261
7185.47422,-0.11746
7187.40269,-0.12851
7189.33116,-0.03252
7191.25963,0.04786
7193.18810,-0.02722
7195.11657,-0.06147
7197.04504,0.06854
7198.97350,0.20083
7200.90197,0.26153
7202.83044,0.30422
7204.75891,0.30897
7206.68738,0.16222
7208.61585,-0.03939
7210.54432,-0.14809
7212.47279,-0.12417
7214.40125,0.04128
7216.32972,0.32069
7218.25819,0.35169
7220.18666,0.06680
7222.11513,-0.03156
7224.04360,0.03988
7225.97207,0.03080
7227.90053,-0.07432
7229.82900,-0.13029
7231.75747,-0.05673
7233.68594,0.04559
7235.61441,0.03948
7237.54288,-0.03786
7239.47135,-0.02672
7241.39982,0.08061
7243.32828,0.11813
7245.25675,0.05112
7247.18522,0.04661
7249.11369,0.15767
7251.04216,0.22607
7252.97063,0.13078
7254.89910,0.10803
7256.82756,0.18539
7258.75603,0.25857
7260.68450,0.27725
7262.61297,0.13793
7264.54144,0.03668
7266.46991,0.10577
7268.39838,0.13846
7270.32685,0.03773
7272.25531,-0.13215
7274.18378,-0.17196
7276.11225,-0.13346
7278.04072,-0.20165
7279.96919,-0.34155
7281.89766,-0.32707
7283.82613,-0.18219
7285.75459,-0.07099
7287.68306,-0.01091
7289.61153,0.11705
7291.54000,0.26932
7293.46847,0.27565
7295.39694,0.20076
7297.32541,0.21404
7299.25387,0.29589
7301.18234,0.28103
7303.11081,0.15677
7305.03928,0.06513
7306.96775,0.03700
7308.89622,0.02483
7310.82469,0.08858
7312.75316,0.21774
7314.68162,0.26338
7316.61009,0.16435
7318.53856,0.04743
7320.46703,0.03019
7322.39550,0.12393
7324.32397,0.28363
7326.25244,0.43270
7328.18090,0.46392
7330.10937,0.27207
7332.03784,0.00567
7333.96631,-0.17746
7335.89478,-0.18096
7337.82325,0.05340
7339.75172,0.44278
7341.68019,0.50849
7343.60865,0.31297
7345.53712,0.16000
7347.46559,0.16240
7349.39406,0.27579
7351.32253,0.28603
7353.25100,0.15900
7355.17947,0.05960
7357.10793,0.05326
7359.03640,0.17230
7360.96487,0.34061
7362.89334,0.35660
7364.82181,0.28133
7366.75028,0.21472
7368.67875,0.15113
7370.60722,0.10070
7372.53568,0.06931
7374.46415,0.12069
7376.39262,0.15985
7378.32109,0.12108
7380.24956,0.11709
7382.17803,0.03386
7384.10650,-0.06974
7386.03496,0.00795
7387.96343,0.18797
7389.89190,0.25245
7391.82037,0.12531
7393.74884,-0.09154
7395.67731,-0.21689
7397.60578,-0.09579
7399.53425,0.12439
7401.46271,0.16302
7403.39118,0.08169
7405.31965,0.05953
7407.24812,0.07912
7409.17659,0.15331
7411.10506,0.22916
7413.03353,0.13923
7414.96199,-0.05059
7416.89046,-0.11728
7418.81893,-0.03377
7420.74740,0.03174
7422.67587,0.05494
7424.60434,0.01096
7426.53281,-0.09554
7428.46128,-0.16500
7430.38974,-0.03810
7432.31821,0.21461
7434.24668,0.36393
7436.17515,0.36287
7438.10362,0.28801
7440.03209,0.18979
7441.96056,0.05332
7443.88902,-0.05556
7445.81749,-0.12885
7447.74596,-0.25077
7449.67443,-0.29733
7451.60290,-0.09745
7453.53137,0.15376
7455.45984,0.30651
7457.38831,0.40616
7459.31677,0.38821
7461.24524,0.33157
7463.17371,0.36232
7465.10218,0.33884
7467.03065,0.27812
7468.95912,0.26819
7470.88759,0.25452
7472.81605,0.19779
7474.74452,0.12739
7476.67299,0.09272
7478.60146,0.15757
7480.52993,0.17381
7482.45840,-0.07367
7484.38687,-0.24733
7486.31533,0.01187
7488.24380,0.50353
7490.17227,0.63693
7492.10074,0.36363
7494.02921,0.23039
7495.95768,0.32535
7497.88615,0.48459
