399.19301,0.37603
401.12148,-0.49941
403.04995,-0.10810
404.97842,0.08157
406.90689,0.12200
408.83536,0.15513
410.76382,0.17847
412.69229,0.17585
414.62076,0.13855
416.54923,0.00983
418.47770,-0.13574
420.40617,-0.08746
422.33464,-0.03235
424.26311,-0.06594
426.19157,-0.06479
428.12004,-0.04113
430.04851,-0.02208
431.97698,0.01765
433.90545,0.00181
435.83392,0.00012
437.76239,0.06003
439.69085,0.05379
441.61932,-0.02341
443.54779,-0.02293
445.47626,0.05278
447.40473,0.13026
449.33320,0.18710
451.26167,0.20074
453.19013,0.17073
455.11860,0.11861
457.04707,0.10395
458.97554,0.13567
460.90401,0.16057
462.83248,0.17061
464.76095,0.16192
466.68942,0.15501
468.61788,0.12604
470.54635,0.06941
472.47482,0.09026
474.40329,0.19634
476.33176,0.22090
478.26023,0.19207
480.18870,0.14351
482.11716,0.10519
484.04563,0.09242
485.97410,0.06854
487.90257,0.05436
489.83104,0.09384
491.75951,0.17168
493.68798,0.21852
495.61645,0.18054
497.54491,0.11662
499.47338,0.12363
501.40185,0.18642
503.33032,0.22847
505.25879,0.21313
507.18726,0.13395
509.11573,0.06799
511.04419,0.07583
512.97266,0.08677
514.90113,0.08176
516.82960,0.11198
518.75807,0.15478
520.68654,0.16511
522.61501,0.13990
524.54348,0.09640
526.47194,0.08546
528.40041,0.09771
530.32888,0.10396
532.25735,0.12258
534.18582,0.12809
536.11429,0.09420
538.04276,0.06682
539.97122,0.07811
541.89969,0.10731
543.82816,0.14360
545.75663,0.16605
547.68510,0.14828
549.61357,0.08029
551.54204,-0.09205
553.47051,-0.26660
555.39897,-0.22252
557.32744,-0.04247
559.25591,0.06539
561.18438,0.11707
563.11285,0.14726
565.04132,0.13639
566.96979,0.10729
568.89825,0.10672
570.82672,0.14293
572.75519,0.17256
574.68366,0.16462
576.61213,0.13611
578.54060,0.11320
580.46907,0.09236
582.39754,0.08023
584.32600,0.09085
586.25447,0.10503
588.18294,0.09524
590.11141,0.07241
592.03988,0.06589
593.96835,0.08870
595.89682,0.12484
597.82528,0.12760
599.75375,0.10159
601.68222,0.10076
603.61069,0.13315
605.53916,0.15619
607.46763,0.14758
609.39610,0.13371
611.32456,0.12152
613.25303,0.10405
615.18150,0.09482
617.10997,0.09332
619.03844,0.08460
620.96691,0.07606
622.89538,0.09226
624.82385,0.12614
626.75231,0.14838
628.68078,0.15318
630.60925,0.17011
632.53772,0.19601
634.46619,0.18768
636.39466,0.16294
638.32313,0.14277
640.25159,0.11872
642.18006,0.11041
644.10853,0.11719
646.03700,0.12545
647.96547,0.14409
649.89394,0.16710
651.82241,0.16799
653.75088,0.14033
655.67934,0.11749
657.60781,0.12211
659.53628,0.13450
661.46475,0.13923
663.39322,0.13732
665.32169,0.12735
667.25016,0.10948
669.17862,0.09942
671.10709,0.10717
673.03556,0.11806
674.96403,0.12563
676.89250,0.12914
678.82097,0.13016
680.74944,0.12663
682.67791,0.12084
684.60637,0.11533
686.53484,0.11221
688.46331,0.11743
690.39178,0.12834
692.32025,0.14082
694.24872,0.15414
696.17719,0.15786
698.10565,0.14389
700.03412,0.12232
701.96259,0.10869
703.89106,0.10696
705.81953,0.11289
707.74800,0.13254
709.67647,0.18092
711.60494,0.22432
713.53340,0.19803
715.46187,0.14109
717.39034,0.12968
719.31881,0.13516
721.24728,0.12449
723.17575,0.12058
725.10422,0.12763
727.03268,0.13573
728.96115,0.13981
730.88962,0.13905
732.81809,0.14118
734.74656,0.14543
736.67503,0.14903
738.60350,0.14951
740.53197,0.14260
742.46043,0.13062
744.38890,0.11819
746.31737,0.11430
748.24584,0.12291
750.17431,0.13954
752.10278,0.15317
754.03125,0.15662
755.95971,0.15665
757.88818,0.15523
759.81665,0.14760
761.74512,0.14139
763.67359,0.14376
765.60206,0.14340
767.53053,0.14052
769.45900,0.14572
771.38746,0.14966
773.31593,0.14564
775.24440,0.14330
777.17287,0.14398
779.10134,0.14000
781.02981,0.12993
782.95828,0.12213
784.88674,0.12456
786.81521,0.12952
788.74368,0.13297
790.67215,0.13767
792.60062,0.14343
794.52909,0.15205
796.45756,0.15256
798.38602,0.14097
800.31449,0.13536
802.24296,0.14003
804.17143,0.13980
806.09990,0.13820
808.02837,0.14744
809.95684,0.15703
811.88531,0.15432
813.81377,0.13723
815.74224,0.11783
817.67071,0.11609
819.59918,0.12442
821.52765,0.12749
823.45612,0.13372
825.38459,0.14464
827.31305,0.14841
829.24152,0.14653
831.16999,0.14684
833.09846,0.14976
835.02693,0.15579
836.95540,0.15895
838.88387,0.14897
840.81234,0.13698
842.74080,0.13658
844.66927,0.14443
846.59774,0.15230
848.52621,0.15529
850.45468,0.15655
852.38315,0.15378
854.31162,0.14018
856.24008,0.12754
858.16855,0.12910
860.09702,0.14084
862.02549,0.15108
863.95396,0.15284
865.88243,0.15233
867.81090,0.15014
869.73937,0.14659
871.66783,0.14945
873.59630,0.14934
875.52477,0.14566
877.45324,0.14800
879.38171,0.15016
881.31018,0.14889
883.23865,0.14356
885.16711,0.13349
887.09558,0.13078
889.02405,0.13966
890.95252,0.14551
892.88099,0.14235
894.80946,0.13583
896.73793,0.13402
898.66640,0.14348
900.59486,0.15774
902.52333,0.16637
904.45180,0.16745
906.38027,0.16503
908.30874,0.16742
910.23721,0.17600
912.16568,0.17992
914.09414,0.17426
916.02261,0.16401
917.95108,0.15554
919.87955,0.15178
921.80802,0.15023
923.73649,0.14865
925.66496,0.14567
927.59343,0.14513
929.52189,0.15265
931.45036,0.15921
933.37883,0.15426
935.30730,0.14487
937.23577,0.13869
939.16424,0.13448
941.09271,0.13118
943.02117,0.12808
944.94964,0.12987
946.87811,0.13700
948.80658,0.14107
950.73505,0.14152
952.66352,0.14549
954.59199,0.15474
956.52045,0.15753
958.44892,0.15196
960.37739,0.15027
962.30586,0.15237
964.23433,0.15234
966.16280,0.14832
968.09127,0.14480
970.01974,0.14588
971.94820,0.14300
973.87667,0.13661
975.80514,0.13846
977.73361,0.14300
979.66208,0.14320
981.59055,0.14497
983.51902,0.14507
985.44748,0.14021
987.37595,0.13771
989.30442,0.13979
991.23289,0.14809
993.16136,0.16152
995.08983,0.16610
997.01830,0.15948
998.94677,0.15371
1000.87523,0.15000
1002.80370,0.14743
1004.73217,0.14808
1006.66064,0.14933
1008.58911,0.14907
1010.51758,0.14682
1012.44605,0.14456
1014.37451,0.14749
1016.30298,0.15449
1018.23145,0.15588
1020.15992,0.15197
1022.08839,0.15243
1024.01686,0.15561
1025.94533,0.15509
1027.87380,0.15104
1029.80226,0.14490
1031.73073,0.13928
1033.65920,0.13821
1035.58767,0.14378
1037.51614,0.15181
1039.44461,0.15667
1041.37308,0.16140
1043.30154,0.16576
1045.23001,0.16316
1047.15848,0.15749
1049.08695,0.15595
1051.01542,0.15471
1052.94389,0.15144
1054.87236,0.15201
1056.80083,0.15695
1058.72929,0.15998
1060.65776,0.15746
1062.58623,0.15308
1064.51470,0.14986
1066.44317,0.15176
1068.37164,0.15892
1070.30011,0.16214
1072.22857,0.16560
1074.15704,0.17010
1076.08551,0.16656
1078.01398,0.16470
1079.94245,0.17233
1081.87092,0.17651
1083.79939,0.17211
1085.72786,0.16799
1087.65632,0.16264
1089.58479,0.15700
1091.51326,0.15568
1093.44173,0.15621
1095.37020,0.16245
1097.29867,0.16935
1099.22714,0.16844
1101.15560,0.16815
1103.08407,0.17131
1105.01254,0.17169
1106.94101,0.17086
1108.86948,0.16996
1110.79795,0.16644
1112.72642,0.16307
1114.65489,0.16196
1116.58335,0.16057
1118.51182,0.15938
1120.44029,0.15805
1122.36876,0.15628
1124.29723,0.16057
1126.22570,0.16817
1128.15417,0.16996
1130.08263,0.16735
1132.01110,0.16465
1133.93957,0.16407
1135.86804,0.16166
1137.79651,0.15514
1139.72498,0.15332
1141.65345,0.15572
1143.58191,0.15335
1145.51038,0.15172
1147.43885,0.15936
1149.36732,0.16846
1151.29579,0.17015
1153.22426,0.16642
1155.15273,0.16279
1157.08120,0.16405
1159.00966,0.16671
1160.93813,0.16514
1162.86660,0.16049
1164.79507,0.15417
1166.72354,0.14989
1168.65201,0.15186
1170.58048,0.15882
1172.50894,0.16513
1174.43741,0.16505
1176.36588,0.16035
1178.29435,0.15752
1180.22282,0.15934
1182.15129,0.16284
1184.07976,0.16344
1186.00823,0.16006
1187.93669,0.15582
1189.86516,0.15529
1191.79363,0.16042
1193.72210,0.16743
1195.65057,0.17123
1197.57904,0.16970
1199.50751,0.16462
1201.43597,0.16156
1203.36444,0.15977
1205.29291,0.15847
1207.22138,0.16117
1209.14985,0.16436
1211.07832,0.16597
1213.00679,0.16677
1214.93526,0.16732
1216.86372,0.17129
1218.79219,0.17473
1220.72066,0.16883
1222.64913,0.15986
1224.57760,0.16103
1226.50607,0.16864
1228.43454,0.17090
1230.36300,0.16677
1232.29147,0.16311
1234.21994,0.16112
1236.14841,0.15807
1238.07688,0.15685
1240.00535,0.15917
1241.93382,0.16323
1243.86229,0.16593
1245.79075,0.16728
1247.71922,0.17038
1249.64769,0.17017
1251.57616,0.16468
1253.50463,0.16298
1255.43310,0.16753
1257.36157,0.17166
1259.29003,0.17264
1261.21850,0.17331
1263.14697,0.17436
1265.07544,0.17343
1267.00391,0.16956
1268.93238,0.16546
1270.86085,0.16505
1272.78932,0.16799
1274.71778,0.17058
1276.64625,0.17152
1278.57472,0.17082
1280.50319,0.16766
1282.43166,0.16517
1284.36013,0.16649
1286.28860,0.16872
1288.21706,0.16876
1290.14553,0.16634
1292.07400,0.16396
1294.00247,0.16442
1295.93094,0.16518
1297.85941,0.16462
1299.78788,0.16269
1301.71634,0.15321
1303.64481,0.13944
1305.57328,0.13872
1307.50175,0.15108
1309.43022,0.15961
1311.35869,0.16208
1313.28716,0.16531
1315.21563,0.17146
1317.14409,0.17703
1319.07256,0.17366
1321.00103,0.16577
1322.92950,0.16487
1324.85797,0.16817
1326.78644,0.16904
1328.71491,0.16866
1330.64337,0.16751
1332.57184,0.16533
1334.50031,0.16563
1336.42878,0.16806
1338.35725,0.16932
1340.28572,0.16660
1342.21419,0.16225
1344.14266,0.16064
1346.07112,0.16070
1347.99959,0.16178
1349.92806,0.16212
1351.85653,0.16211
1353.78500,0.16539
1355.71347,0.16904
1357.64194,0.17109
1359.57040,0.17404
1361.49887,0.17832
1363.42734,0.17875
1365.35581,0.17362
1367.28428,0.17106
1369.21275,0.17335
1371.14122,0.17823
1373.06969,0.18438
1374.99815,0.18512
1376.92662,0.18016
1378.85509,0.17654
1380.78356,0.17450
1382.71203,0.17564
1384.64050,0.18380
1386.56897,0.19354
1388.49743,0.19193
1390.42590,0.18367
1392.35437,0.18245
1394.28284,0.18878
1396.21131,0.19107
1398.13978,0.18432
1400.06825,0.17763
1401.99672,0.17749
1403.92518,0.18159
1405.85365,0.18445
1407.78212,0.18416
1409.71059,0.18259
1411.63906,0.17941
1413.56753,0.17781
1415.49600,0.18409
1417.42446,0.19697
1419.35293,0.20125
1421.28140,0.19277
1423.20987,0.18670
1425.13834,0.18471
1427.06681,0.18578
1428.99528,0.19009
1430.92375,0.18965
1432.85221,0.18489
1434.78068,0.18734
1436.70915,0.19264
1438.63762,0.18738
1440.56609,0.17968
1442.49456,0.17611
1444.42303,0.17860
1446.35149,0.18765
1448.27996,0.19408
1450.20843,0.19088
1452.13690,0.18860
1454.06537,0.19704
1455.99384,0.21639
1457.92231,0.22048
1459.85077,0.20006
1461.77924,0.18994
1463.70771,0.19186
1465.63618,0.19055
1467.56465,0.18428
1469.49312,0.18871
1471.42159,0.20686
1473.35006,0.22263
1475.27852,0.21830
1477.20699,0.20549
1479.13546,0.19525
1481.06393,0.18879
1482.99240,0.18637
1484.92087,0.19244
1486.84934,0.20605
1488.77780,0.21431
1490.70627,0.20452
1492.63474,0.19401
1494.56321,0.19793
1496.49168,0.21011
1498.42015,0.21024
1500.34862,0.20017
1502.27709,0.19672
1504.20555,0.20700
1506.13402,0.23514
1508.06249,0.24322
1509.99096,0.22123
1511.91943,0.20708
1513.84790,0.20663
1515.77637,0.21706
1517.70483,0.22596
1519.63330,0.23260
1521.56177,0.24156
1523.49024,0.23418
1525.41871,0.21906
1527.34718,0.20943
1529.27565,0.20613
1531.20412,0.20960
1533.13258,0.21280
1535.06105,0.21083
1536.98952,0.22112
1538.91799,0.25561
1540.84646,0.28029
1542.77493,0.25533
1544.70340,0.22772
1546.63186,0.21165
1548.56033,0.20890
1550.48880,0.21143
1552.41727,0.21172
1554.34574,0.21411
1556.27421,0.22443
1558.20268,0.24200
1560.13115,0.22764
1562.05961,0.20467
1563.98808,0.19689
1565.91655,0.19787
1567.84502,0.20438
1569.77349,0.20606
1571.70196,0.19899
1573.63043,0.19806
1575.55889,0.20224
1577.48736,0.19680
1579.41583,0.18626
1581.34430,0.17880
1583.27277,0.17516
1585.20124,0.17557
1587.12971,0.17618
1589.05818,0.17431
1590.98664,0.17280
1592.91511,0.17446
1594.84358,0.17783
1596.77205,0.17996
1598.70052,0.18097
1600.62899,0.18297
1602.55746,0.18527
1604.48592,0.18608
1606.41439,0.18679
1608.34286,0.18634
1610.27133,0.18307
1612.19980,0.18214
1614.12827,0.18736
1616.05674,0.19678
1617.98521,0.20168
1619.91367,0.20226
1621.84214,0.20560
1623.77061,0.20727
1625.69908,0.20265
1627.62755,0.19673
1629.55602,0.19313
1631.48449,0.19506
1633.41295,0.20616
1635.34142,0.22553
1637.26989,0.22835
1639.19836,0.21655
1641.12683,0.20970
1643.05530,0.21203
1644.98377,0.22567
1646.91223,0.23983
1648.84070,0.23332
1650.76917,0.23069
1652.69764,0.24688
1654.62611,0.23784
1656.55458,0.20996
1658.48305,0.19742
1660.41152,0.20052
1662.33998,0.20918
1664.26845,0.20986
1666.19692,0.20790
1668.12539,0.21437
1670.05386,0.22214
1671.98233,0.21592
1673.91080,0.20852
1675.83926,0.20699
1677.76773,0.20722
1679.69620,0.21071
1681.62467,0.22222
1683.55314,0.23860
1685.48161,0.23453
1687.41008,0.21871
1689.33855,0.20748
1691.26701,0.20117
1693.19548,0.20385
1695.12395,0.21535
1697.05242,0.22329
1698.98089,0.22049
1700.90936,0.21364
1702.83783,0.21127
1704.76629,0.21448
1706.69476,0.21260
1708.62323,0.20305
1710.55170,0.19601
1712.48017,0.19796
1714.40864,0.21229
1716.33711,0.22980
1718.26558,0.22293
1720.19404,0.20507
1722.12251,0.19705
1724.05098,0.19363
1725.97945,0.19130
1727.90792,0.19212
1729.83639,0.19499
1731.76486,0.19999
1733.69332,0.20705
1735.62179,0.20551
1737.55026,0.20189
1739.47873,0.20384
1741.40720,0.20670
1743.33567,0.20800
1745.26414,0.21117
1747.19261,0.21512
1749.12107,0.21475
1751.04954,0.20857
1752.97801,0.20269
1754.90648,0.19999
1756.83495,0.19922
1758.76342,0.19956
1760.69189,0.19938
1762.62035,0.19466
1764.54882,0.19066
1766.47729,0.19488
1768.40576,0.20283
1770.33423,0.20781
1772.26270,0.20568
1774.19117,0.19851
1776.11964,0.19595
1778.04810,0.19835
1779.97657,0.20307
1781.90504,0.20355
1783.83351,0.19744
1785.76198,0.19199
1787.69045,0.19400
1789.61892,0.20152
1791.54738,0.20396
1793.47585,0.19623
1795.40432,0.19006
1797.33279,0.19104
1799.26126,0.19625
1801.18973,0.19815
1803.11820,0.19452
1805.04666,0.19134
1806.97513,0.19041
1808.90360,0.19224
1810.83207,0.19385
1812.76054,0.19104
1814.68901,0.18216
1816.61748,0.15721
1818.54595,0.12723
1820.47441,0.12253
1822.40288,0.14804
1824.33135,0.18432
1826.25982,0.20171
1828.18829,0.20167
1830.11676,0.19804
1832.04523,0.18956
1833.97369,0.18495
1835.90216,0.18637
1837.83063,0.18696
1839.75910,0.18681
1841.68757,0.19129
1843.61604,0.19774
1845.54451,0.19737
1847.47298,0.19224
1849.40144,0.18861
1851.32991,0.18745
1853.25838,0.18705
1855.18685,0.18698
1857.11532,0.18667
1859.04379,0.18659
1860.97226,0.18748
1862.90072,0.18883
1864.82919,0.19243
1866.75766,0.19975
1868.68613,0.20568
1870.61460,0.20168
1872.54307,0.19405
1874.47154,0.19176
1876.40001,0.19316
1878.32847,0.19202
1880.25694,0.18931
1882.18541,0.18969
1884.11388,0.19045
1886.04235,0.18903
1887.97082,0.18933
1889.89929,0.19009
1891.82775,0.18717
1893.75622,0.18633
1895.68469,0.19030
1897.61316,0.19251
1899.54163,0.19104
1901.47010,0.18969
1903.39857,0.18929
1905.32704,0.18777
1907.25550,0.18663
1909.18397,0.18774
1911.11244,0.18811
1913.04091,0.18602
1914.96938,0.18417
1916.89785,0.18558
1918.82632,0.18911
1920.75478,0.19202
1922.68325,0.19359
1924.61172,0.19259
1926.54019,0.19083
1928.46866,0.18936
1930.39713,0.18769
1932.32560,0.18758
1934.25407,0.18762
1936.18253,0.18554
1938.11100,0.18492
1940.03947,0.18925
1941.96794,0.19407
1943.89641,0.19286
1945.82488,0.18853
1947.75335,0.18650
1949.68181,0.18741
1951.61028,0.18972
1953.53875,0.19057
1955.46722,0.18873
1957.39569,0.18660
1959.32416,0.18622
1961.25263,0.18740
1963.18110,0.18965
1965.10956,0.19263
1967.03803,0.19313
1968.96650,0.19113
1970.89497,0.19048
1972.82344,0.19332
1974.75191,0.20061
1976.68038,0.20517
1978.60884,0.20472
1980.53731,0.20153
1982.46578,0.19317
1984.39425,0.18760
1986.32272,0.18858
1988.25119,0.19066
1990.17966,0.19230
1992.10812,0.19173
1994.03659,0.19047
1995.96506,0.19011
1997.89353,0.19001
1999.82200,0.19124
2001.75047,0.19252
2003.67894,0.19101
2005.60741,0.18860
2007.53587,0.18757
2009.46434,0.18558
2011.39281,0.18402
2013.32128,0.18627
2015.24975,0.18965
2017.17822,0.19118
2019.10669,0.19141
2021.03515,0.19068
2022.96362,0.18922
2024.89209,0.18765
2026.82056,0.18725
2028.74903,0.18917
2030.67750,0.19069
2032.60597,0.18923
2034.53444,0.18722
2036.46290,0.18781
2038.39137,0.18958
2040.31984,0.18941
2042.24831,0.18793
2044.17678,0.18800
2046.10525,0.18977
2048.03372,0.18957
2049.96218,0.18628
2051.89065,0.18405
2053.81912,0.18519
2055.74759,0.18854
2057.67606,0.19260
2059.60453,0.19544
2061.53300,0.19617
2063.46147,0.19401
2065.38993,0.18974
2067.31840,0.18710
2069.24687,0.18639
2071.17534,0.18695
2073.10381,0.18845
2075.03228,0.18782
2076.96075,0.18558
2078.88921,0.18529
2080.81768,0.18720
2082.74615,0.18898
2084.67462,0.18901
2086.60309,0.18760
2088.53156,0.18728
2090.46003,0.18881
2092.38850,0.18984
2094.31696,0.19065
2096.24543,0.19254
2098.17390,0.19345
2100.10237,0.19197
2102.03084,0.19039
2103.95931,0.18985
2105.88778,0.19019
2107.81624,0.19191
2109.74471,0.19233
2111.67318,0.19029
2113.60165,0.18852
2115.53012,0.18793
2117.45859,0.18868
2119.38706,0.18946
2121.31553,0.18882
2123.24399,0.18799
2125.17246,0.18675
2127.10093,0.18463
2129.02940,0.18342
2130.95787,0.18420
2132.88634,0.18740
2134.81481,0.19292
2136.74327,0.19664
2138.67174,0.19437
2140.60021,0.18926
2142.52868,0.18585
2144.45715,0.18535
2146.38562,0.18808
2148.31409,0.19107
2150.24255,0.19113
2152.17102,0.18994
2154.09949,0.18940
2156.02796,0.19026
2157.95643,0.19202
2159.88490,0.19273
2161.81337,0.19442
2163.74184,0.19680
2165.67030,0.19495
2167.59877,0.19096
2169.52724,0.18972
2171.45571,0.18927
2173.38418,0.18641
2175.31265,0.18404
2177.24112,0.18493
2179.16958,0.18803
2181.09805,0.19120
2183.02652,0.19239
2184.95499,0.19161
2186.88346,0.18956
2188.81193,0.18846
2190.74040,0.19022
2192.66887,0.19201
2194.59733,0.19105
2196.52580,0.18884
2198.45427,0.18810
2200.38274,0.18911
2202.31121,0.19061
2204.23968,0.19173
2206.16815,0.19225
2208.09661,0.19135
2210.02508,0.18814
2211.95355,0.18583
2213.88202,0.18834
2215.81049,0.19215
2217.73896,0.19140
2219.66743,0.18796
2221.59590,0.18747
2223.52436,0.18891
2225.45283,0.18730
2227.38130,0.18461
2229.30977,0.18549
2231.23824,0.18853
2233.16671,0.19057
2235.09518,0.19122
2237.02364,0.19140
2238.95211,0.19107
2240.88058,0.19064
2242.80905,0.19088
2244.73752,0.19091
2246.66599,0.19030
2248.59446,0.19011
2250.52293,0.19138
2252.45139,0.19317
2254.37986,0.19366
2256.30833,0.19304
2258.23680,0.19214
2260.16527,0.19144
2262.09374,0.19080
2264.02221,0.18944
2265.95067,0.18863
2267.87914,0.18951
2269.80761,0.18973
2271.73608,0.18960
2273.66455,0.19279
2275.59302,0.19674
2277.52149,0.19636
2279.44996,0.19277
2281.37842,0.19071
2283.30689,0.19260
2285.23536,0.19434
2287.16383,0.19295
2289.09230,0.19315
2291.02077,0.19366
2292.94924,0.18577
2294.87770,0.17840
2296.80617,0.18426
2298.73464,0.18979
2300.66311,0.18771
2302.59158,0.18883
2304.52005,0.19204
2306.44852,0.19321
2308.37699,0.19431
2310.30545,0.19573
2312.23392,0.19772
2314.16239,0.20124
2316.09086,0.20489
2318.01933,0.20486
2319.94780,0.20278
2321.87627,0.20187
2323.80473,0.20071
2325.73320,0.20381
2327.66167,0.21405
2329.59014,0.22012
2331.51861,0.20856
2333.44708,0.18808
2335.37555,0.18448
2337.30401,0.19930
2339.23248,0.21071
2341.16095,0.21040
2343.08942,0.20291
2345.01789,0.19646
2346.94636,0.19563
2348.87483,0.19644
2350.80330,0.19682
2352.73176,0.19704
2354.66023,0.19889
2356.58870,0.20184
2358.51717,0.20438
2360.44564,0.20547
2362.37411,0.20349
2364.30258,0.20766
2366.23104,0.21576
2368.15951,0.21777
2370.08798,0.21518
2372.01645,0.21115
2373.94492,0.20790
2375.87339,0.20564
2377.80186,0.20119
2379.73033,0.19346
2381.65879,0.18923
2383.58726,0.19292
2385.51573,0.19853
2387.44420,0.19850
2389.37267,0.19234
2391.30114,0.18700
2393.22961,0.18657
2395.15807,0.18758
2397.08654,0.18897
2399.01501,0.19085
2400.94348,0.19069
2402.87195,0.18932
2404.80042,0.18837
2406.72889,0.18829
2408.65736,0.19014
2410.58582,0.19138
2412.51429,0.19077
2414.44276,0.19096
2416.37123,0.19073
2418.29970,0.18842
2420.22817,0.18748
2422.15664,0.18912
2424.08510,0.18896
2426.01357,0.18644
2427.94204,0.18557
2429.87051,0.18742
2431.79898,0.19110
2433.72745,0.19435
2435.65592,0.19409
2437.58439,0.19287
2439.51285,0.19416
2441.44132,0.19518
2443.36979,0.19393
2445.29826,0.19161
2447.22673,0.18956
2449.15520,0.18893
2451.08367,0.18788
2453.01213,0.18535
2454.94060,0.18618
2456.86907,0.19208
2458.79754,0.19599
2460.72601,0.19441
2462.65448,0.19145
2464.58295,0.18999
2466.51142,0.19097
2468.43988,0.19366
2470.36835,0.19571
2472.29682,0.19721
2474.22529,0.19876
2476.15376,0.19851
2478.08223,0.19532
2480.01070,0.19052
2481.93916,0.18709
2483.86763,0.18788
2485.79610,0.19201
2487.72457,0.19570
2489.65304,0.19629
2491.58151,0.19354
2493.50998,0.19127
2495.43844,0.19262
2497.36691,0.19362
2499.29538,0.19177
2501.22385,0.19150
2503.15232,0.19439
2505.08079,0.19647
2507.00926,0.19606
2508.93773,0.19570
2510.86619,0.19668
2512.79466,0.19661
2514.72313,0.19301
2516.65160,0.18966
2518.58007,0.19008
2520.50854,0.18958
2522.43701,0.18771
2524.36547,0.18954
2526.29394,0.19302
2528.22241,0.19459
2530.15088,0.19499
2532.07935,0.19361
2534.00782,0.19090
2535.93629,0.19048
2537.86476,0.19225
2539.79322,0.19335
2541.72169,0.19379
2543.65016,0.19421
2545.57863,0.19462
2547.50710,0.19621
2549.43557,0.19711
2551.36404,0.19420
2553.29250,0.19140
2555.22097,0.19109
2557.14944,0.18983
2559.07791,0.18929
2561.00638,0.19127
2562.93485,0.19291
2564.86332,0.19410
2566.79179,0.19522
2568.72025,0.19577
2570.64872,0.19637
2572.57719,0.19620
2574.50566,0.19528
2576.43413,0.19530
2578.36260,0.19551
2580.29107,0.19540
2582.21953,0.19501
2584.14800,0.19283
2586.07647,0.19077
2588.00494,0.19106
2589.93341,0.19321
2591.86188,0.19592
2593.79035,0.19690
2595.71882,0.19674
2597.64728,0.19622
2599.57575,0.19446
2601.50422,0.19317
2603.43269,0.19377
2605.36116,0.19517
2607.28963,0.19816
2609.21810,0.20411
2611.14656,0.20714
2613.07503,0.20042
2615.00350,0.19013
2616.93197,0.18777
2618.86044,0.19218
2620.78891,0.19539
2622.71738,0.19624
2624.64585,0.19630
2626.57431,0.19565
2628.50278,0.19459
2630.43125,0.19305
2632.35972,0.19041
2634.28819,0.18854
2636.21666,0.18923
2638.14513,0.19201
2640.07359,0.19658
2642.00206,0.20084
2643.93053,0.20322
2645.85900,0.20296
2647.78747,0.19901
2649.71594,0.19542
2651.64441,0.19600
2653.57288,0.19735
2655.50134,0.19666
2657.42981,0.19610
2659.35828,0.19849
2661.28675,0.20272
2663.21522,0.20475
2665.14369,0.20537
2667.07216,0.20560
2669.00062,0.20283
2670.92909,0.19774
2672.85756,0.19311
2674.78603,0.19157
2676.71450,0.19327
2678.64297,0.19523
2680.57144,0.19615
2682.49990,0.19697
2684.42837,0.19859
2686.35684,0.20079
2688.28531,0.20222
2690.21378,0.20069
2692.14225,0.19657
2694.07072,0.19529
2695.99919,0.19975
2697.92765,0.20330
2699.85612,0.20193
2701.78459,0.20022
2703.71306,0.19832
2705.64153,0.19545
2707.57000,0.19516
2709.49847,0.19709
2711.42693,0.19935
2713.35540,0.20188
2715.28387,0.20276
2717.21234,0.20086
2719.14081,0.19744
2721.06928,0.19417
2722.99775,0.19366
2724.92622,0.19617
2726.85468,0.19788
2728.78315,0.19800
2730.71162,0.19955
2732.64009,0.20201
2734.56856,0.20288
2736.49703,0.20117
2738.42550,0.19696
2740.35396,0.19457
2742.28243,0.19710
2744.21090,0.20149
2746.13937,0.20519
2748.06784,0.20626
2749.99631,0.20284
2751.92478,0.19797
2753.85325,0.19527
2755.78171,0.19417
2757.71018,0.19450
2759.63865,0.19789
2761.56712,0.20319
2763.49559,0.20635
2765.42406,0.20561
2767.35253,0.20435
2769.28099,0.20499
2771.20946,0.20521
2773.13793,0.20430
2775.06640,0.20388
2776.99487,0.20407
2778.92334,0.20493
2780.85181,0.20580
2782.78028,0.20561
2784.70874,0.20528
2786.63721,0.20548
2788.56568,0.20672
2790.49415,0.20816
2792.42262,0.20761
2794.35109,0.20696
2796.27956,0.20794
2798.20802,0.20903
2800.13649,0.20919
2802.06496,0.20796
2803.99343,0.20584
2805.92190,0.20366
2807.85037,0.20334
2809.77884,0.20603
2811.70731,0.20851
2813.63577,0.20918
2815.56424,0.20974
2817.49271,0.21019
2819.42118,0.20958
2821.34965,0.20681
2823.27812,0.20291
2825.20659,0.20217
2827.13505,0.20541
2829.06352,0.20955
2830.99199,0.21165
2832.92046,0.21001
2834.84893,0.20828
2836.77740,0.20956
2838.70587,0.21059
2840.63433,0.20987
2842.56280,0.20785
2844.49127,0.20498
2846.41974,0.20501
2848.34821,0.20825
2850.27668,0.21041
2852.20515,0.21079
2854.13362,0.20944
2856.06208,0.20632
2857.99055,0.20610
2859.91902,0.20951
2861.84749,0.20997
2863.77596,0.20685
2865.70443,0.20596
2867.63290,0.20799
2869.56136,0.20886
2871.48983,0.20737
2873.41830,0.20549
2875.34677,0.20334
2877.27524,0.20099
2879.20371,0.20095
2881.13218,0.20406
2883.06065,0.20732
2884.98911,0.20677
2886.91758,0.20435
2888.84605,0.20576
2890.77452,0.20875
2892.70299,0.20795
2894.63146,0.20667
2896.55993,0.20849
2898.48839,0.20809
2900.41686,0.20244
2902.34533,0.19695
2904.27380,0.19532
2906.20227,0.19787
2908.13074,0.20371
2910.05921,0.20785
2911.98768,0.20855
2913.91614,0.20659
2915.84461,0.20119
2917.77308,0.19864
2919.70155,0.20249
2921.63002,0.20603
2923.55849,0.20632
2925.48696,0.20342
2927.41542,0.19904
2929.34389,0.19908
2931.27236,0.20217
2933.20083,0.20406
2935.12930,0.20521
2937.05777,0.20541
2938.98624,0.20663
2940.91471,0.20686
2942.84317,0.20325
2944.77164,0.19967
2946.70011,0.19695
2948.62858,0.19763
2950.55705,0.20255
2952.48552,0.20689
2954.41399,0.20833
2956.34245,0.20391
2958.27092,0.19828
2960.19939,0.19868
2962.12786,0.20063
2964.05633,0.20129
2965.98480,0.20195
2967.91327,0.20194
2969.84174,0.20280
2971.77020,0.20474
2973.69867,0.20675
2975.62714,0.20576
2977.55561,0.20057
2979.48408,0.19985
2981.41255,0.20774
2983.34102,0.21619
2985.26948,0.21669
2987.19795,0.20969
2989.12642,0.20424
2991.05489,0.20712
2992.98336,0.21390
2994.91183,0.21487
2996.84030,0.20949
2998.76877,0.20720
3000.69723,0.21036
3002.62570,0.21071
3004.55417,0.20798
3006.48264,0.20730
3008.41111,0.20780
3010.33958,0.20648
3012.26805,0.19595
3014.19651,0.17245
3016.12498,0.15156
3018.05345,0.15795
3019.98192,0.18836
3021.91039,0.21236
3023.83886,0.21796
3025.76733,0.21472
3027.69579,0.21094
3029.62426,0.21061
3031.55273,0.21365
3033.48120,0.21401
3035.40967,0.20771
3037.33814,0.20298
3039.26661,0.20750
3041.19508,0.21375
3043.12354,0.21464
3045.05201,0.21348
3046.98048,0.21120
3048.90895,0.20858
3050.83742,0.20943
3052.76589,0.21103
3054.69436,0.20643
3056.62282,0.19596
3058.55129,0.19118
3060.47976,0.19701
3062.40823,0.20437
3064.33670,0.20484
3066.26517,0.19959
3068.19364,0.19994
3070.12211,0.20904
3072.05057,0.21621
3073.97904,0.21394
3075.90751,0.20530
3077.83598,0.20220
3079.76445,0.20760
3081.69292,0.20891
3083.62139,0.19988
3085.54985,0.19490
3087.47832,0.20452
3089.40679,0.21281
3091.33526,0.20751
3093.26373,0.19680
3095.19220,0.19325
3097.12067,0.20108
3099.04914,0.21053
3100.97760,0.21027
3102.90607,0.20026
3104.83454,0.19380
3106.76301,0.19701
3108.69148,0.20208
3110.61995,0.20506
3112.54842,0.20616
3114.47688,0.20902
3116.40535,0.21338
3118.33382,0.21213
3120.26229,0.20688
3122.19076,0.20474
3124.11923,0.20735
3126.04770,0.21100
3127.97617,0.21038
3129.90463,0.20689
3131.83310,0.20662
3133.76157,0.20661
3135.69004,0.20481
3137.61851,0.20585
3139.54698,0.20807
3141.47545,0.21030
3143.40391,0.21390
3145.33238,0.21486
3147.26085,0.21129
3149.18932,0.20922
3151.11779,0.21159
3153.04626,0.21352
3154.97473,0.21475
3156.90320,0.21891
3158.83166,0.22204
3160.76013,0.22063
3162.68860,0.21890
3164.61707,0.21699
3166.54554,0.21239
3168.47401,0.20946
3170.40248,0.21284
3172.33094,0.21721
3174.25941,0.21611
3176.18788,0.21573
3178.11635,0.21914
3180.04482,0.21978
3181.97329,0.21783
3183.90176,0.21491
3185.83022,0.21037
3187.75869,0.20950
3189.68716,0.21220
3191.61563,0.21150
3193.54410,0.21231
3195.47257,0.21744
3197.40104,0.21596
3199.32951,0.20952
3201.25797,0.20860
3203.18644,0.21075
3205.11491,0.20967
3207.04338,0.20741
3208.97185,0.20988
3210.90032,0.21393
3212.82879,0.21458
3214.75725,0.21685
3216.68572,0.22084
3218.61419,0.22081
3220.54266,0.21799
3222.47113,0.21592
3224.39960,0.21513
3226.32807,0.21355
3228.25654,0.21101
3230.18500,0.20893
3232.11347,0.20774
3234.04194,0.20856
3235.97041,0.20976
3237.89888,0.20952
3239.82735,0.21254
3241.75582,0.22047
3243.68428,0.22524
3245.61275,0.22259
3247.54122,0.21749
3249.46969,0.21557
3251.39816,0.21678
3253.32663,0.21660
3255.25510,0.21376
3257.18357,0.20982
3259.11203,0.20732
3261.04050,0.20914
3262.96897,0.21147
3264.89744,0.21004
3266.82591,0.20956
3268.75438,0.21242
3270.68285,0.21327
3272.61131,0.21061
3274.53978,0.20933
3276.46825,0.21202
3278.39672,0.21508
3280.32519,0.21452
3282.25366,0.21106
3284.18213,0.20790
3286.11060,0.20697
3288.03906,0.20755
3289.96753,0.20765
3291.89600,0.20698
3293.82447,0.20562
3295.75294,0.20462
3297.68141,0.20608
3299.60988,0.20710
3301.53834,0.20537
3303.46681,0.20426
3305.39528,0.20517
3307.32375,0.20528
3309.25222,0.20434
3311.18069,0.20644
3313.10916,0.20867
3315.03763,0.20570
3316.96609,0.19997
3318.89456,0.19573
3320.82303,0.19934
3322.75150,0.20959
3324.67997,0.21570
3326.60844,0.21780
3328.53691,0.21867
3330.46537,0.21588
3332.39384,0.21424
3334.32231,0.21578
3336.25078,0.21609
3338.17925,0.21508
3340.10772,0.21369
3342.03619,0.21274
3343.96466,0.21311
3345.89312,0.21481
3347.82159,0.21740
3349.75006,0.21894
3351.67853,0.22034
3353.60700,0.22318
3355.53547,0.22172
3357.46394,0.21478
3359.39240,0.21473
3361.32087,0.22398
3363.24934,0.23067
3365.17781,0.22940
3367.10628,0.22335
3369.03475,0.21951
3370.96322,0.21818
3372.89168,0.21521
3374.82015,0.21360
3376.74862,0.21267
3378.67709,0.20963
3380.60556,0.20884
3382.53403,0.21272
3384.46250,0.21650
3386.39097,0.21770
3388.31943,0.21849
3390.24790,0.21743
3392.17637,0.21461
3394.10484,0.21449
3396.03331,0.21743
3397.96178,0.21920
3399.89025,0.21489
3401.81871,0.20669
3403.74718,0.20409
3405.67565,0.20834
3407.60412,0.21322
3409.53259,0.21607
3411.46106,0.21432
3413.38953,0.20866
3415.31800,0.20432
3417.24646,0.20506
3419.17493,0.21148
3421.10340,0.21487
3423.03187,0.21017
3424.96034,0.20549
3426.88881,0.20329
3428.81728,0.20453
3430.74574,0.21197
3432.67421,0.21564
3434.60268,0.20895
3436.53115,0.20286
3438.45962,0.20238
3440.38809,0.20388
3442.31656,0.20782
3444.24503,0.21126
3446.17349,0.20839
3448.10196,0.19823
3450.03043,0.18964
3451.95890,0.19037
3453.88737,0.19513
3455.81584,0.19725
3457.74431,0.19593
3459.67277,0.19344
3461.60124,0.19386
3463.52971,0.19618
3465.45818,0.19634
3467.38665,0.19699
3469.31512,0.19852
3471.24359,0.19767
3473.17206,0.19696
3475.10052,0.19721
3477.02899,0.19923
3478.95746,0.20410
3480.88593,0.20566
3482.81440,0.19936
3484.74287,0.19210
3486.67134,0.19262
3488.59980,0.19584
3490.52827,0.19310
3492.45674,0.18692
3494.38521,0.18391
3496.31368,0.18643
3498.24215,0.18890
3500.17062,0.18761
3502.09909,0.18428
3504.02755,0.17994
3505.95602,0.17862
3507.88449,0.18277
3509.81296,0.18673
3511.74143,0.18379
3513.66990,0.17531
3515.59837,0.16878
3517.52683,0.16892
3519.45530,0.17385
3521.38377,0.18031
3523.31224,0.18463
3525.24071,0.18631
3527.16918,0.18664
3529.09765,0.17965
3531.02611,0.16749
3532.95458,0.16264
3534.88305,0.16711
3536.81152,0.17361
3538.73999,0.17662
3540.66846,0.17445
3542.59693,0.17144
3544.52540,0.17661
3546.45386,0.18480
3548.38233,0.18368
3550.31080,0.18025
3552.23927,0.18160
3554.16774,0.18201
3556.09621,0.17751
3558.02468,0.17174
3559.95314,0.16941
3561.88161,0.17394
3563.81008,0.18426
3565.73855,0.19130
3567.66702,0.18546
3569.59549,0.17487
3571.52396,0.17009
3573.45243,0.16776
3575.38089,0.16384
3577.30936,0.16153
3579.23783,0.16073
3581.16630,0.15947
3583.09477,0.16138
3585.02324,0.16683
3586.95171,0.17060
3588.88017,0.16575
3590.80864,0.15843
3592.73711,0.15873
3594.66558,0.16668
3596.59405,0.17358
3598.52252,0.17371
3600.45099,0.16601
3602.37946,0.15712
3604.30792,0.15468
3606.23639,0.15432
3608.16486,0.15255
3610.09333,0.15227
3612.02180,0.15441
3613.95027,0.15606
3615.87874,0.15519
3617.80720,0.15702
3619.73567,0.16047
3621.66414,0.15520
3623.59261,0.14929
3625.52108,0.15338
3627.44955,0.15952
3629.37802,0.15218
3631.30649,0.14768
3633.23495,0.15205
3635.16342,0.15129
3637.09189,0.14561
3639.02036,0.14498
3640.94883,0.14788
3642.87730,0.14632
3644.80577,0.14543
3646.73423,0.15544
3648.66270,0.17286
3650.59117,0.16968
3652.51964,0.15237
3654.44811,0.14291
3656.37658,0.14110
3658.30505,0.14018
3660.23352,0.13746
3662.16198,0.13390
3664.09045,0.13348
3666.01892,0.13838
3667.94739,0.14726
3669.87586,0.15680
3671.80433,0.15841
3673.73280,0.15711
3675.66126,0.15399
3677.58973,0.14478
3679.51820,0.14002
3681.44667,0.14001
3683.37514,0.13950
3685.30361,0.13904
3687.23208,0.14107
3689.16055,0.14498
3691.08901,0.14286
3693.01748,0.13325
3694.94595,0.12613
3696.87442,0.12558
3698.80289,0.12936
3700.73136,0.13494
3702.65983,0.14168
3704.58829,0.14562
3706.51676,0.14493
3708.44523,0.14790
3710.37370,0.15634
3712.30217,0.15342
3714.23064,0.14514
3716.15911,0.14333
3718.08757,0.14459
3720.01604,0.14833
3721.94451,0.15219
3723.87298,0.14962
3725.80145,0.14170
3727.72992,0.13280
3729.65839,0.12766
3731.58686,0.13050
3733.51532,0.13909
3735.44379,0.14296
3737.37226,0.13943
3739.30073,0.13868
3741.22920,0.14284
3743.15767,0.14677
3745.08614,0.14502
3747.01460,0.14357
3748.94307,0.15004
3750.87154,0.15484
3752.80001,0.14258
3754.72848,0.13254
3756.65695,0.13264
3758.58542,0.13502
3760.51389,0.13512
3762.44235,0.13436
3764.37082,0.13288
3766.29929,0.13223
3768.22776,0.13531
3770.15623,0.13654
3772.08470,0.13177
3774.01317,0.13024
3775.94163,0.13337
3777.87010,0.13560
3779.79857,0.13399
3781.72704,0.13094
3783.65551,0.13233
3785.58398,0.13528
3787.51245,0.13322
3789.44092,0.12910
3791.36938,0.12633
3793.29785,0.12717
3795.22632,0.13494
3797.15479,0.14654
3799.08326,0.15737
3801.01173,0.16397
3802.94020,0.15255
3804.86866,0.13670
3806.79713,0.12960
3808.72560,0.12609
3810.65407,0.12201
3812.58254,0.12110
3814.51101,0.12783
3816.43948,0.13673
3818.36795,0.14077
3820.29641,0.14645
3822.22488,0.14437
3824.15335,0.13526
3826.08182,0.13286
3828.01029,0.13424
3829.93876,0.13664
3831.86723,0.14122
3833.79569,0.14358
3835.72416,0.14255
3837.65263,0.13958
3839.58110,0.13567
3841.50957,0.13482
3843.43804,0.13246
3845.36651,0.12516
3847.29498,0.12067
3849.22344,0.12435
3851.15191,0.13153
3853.08038,0.13795
3855.00885,0.14148
3856.93732,0.13532
3858.86579,0.12825
3860.79426,0.13057
3862.72272,0.13782
3864.65119,0.13310
3866.57966,0.12077
3868.50813,0.11951
3870.43660,0.13048
3872.36507,0.13554
3874.29354,0.12951
3876.22200,0.12303
3878.15047,0.12171
3880.07894,0.12306
3882.00741,0.12530
3883.93588,0.12983
3885.86435,0.13060
3887.79282,0.12461
3889.72129,0.12318
3891.64975,0.12648
3893.57822,0.12485
3895.50669,0.12227
3897.43516,0.12596
3899.36363,0.13824
3901.29210,0.14960
3903.22057,0.14323
3905.14903,0.12606
3907.07750,0.11614
3909.00597,0.11443
3910.93444,0.11643
3912.86291,0.11897
3914.79138,0.12166
3916.71985,0.12540
3918.64832,0.12721
3920.57678,0.12362
3922.50525,0.11811
3924.43372,0.11434
3926.36219,0.11234
3928.29066,0.11453
3930.21913,0.12309
3932.14760,0.13213
3934.07606,0.13101
3936.00453,0.12204
3937.93300,0.11451
3939.86147,0.11348
3941.78994,0.11638
3943.71841,0.11426
3945.64688,0.10972
3947.57535,0.11061
3949.50381,0.11327
3951.43228,0.11237
3953.36075,0.10978
3955.28922,0.11035
3957.21769,0.11322
3959.14616,0.11309
3961.07463,0.10898
3963.00309,0.10525
3964.93156,0.10596
3966.86003,0.10759
3968.78850,0.10749
3970.71697,0.10702
3972.64544,0.10659
3974.57391,0.10953
3976.50238,0.11503
3978.43084,0.11628
3980.35931,0.11053
3982.28778,0.10308
3984.21625,0.10151
3986.14472,0.10236
3988.07319,0.10065
3990.00166,0.10007
3991.93012,0.10069
3993.85859,0.09969
3995.78706,0.09910
3997.71553,0.10149
3999.64400,0.10454
4001.57247,0.10343
4003.50094,0.10069
4005.42941,0.09920
4007.35787,0.09698
4009.28634,0.09781
4011.21481,0.10112
4013.14328,0.10043
4015.07175,0.09917
4017.00022,0.10152
4018.92869,0.10316
4020.85715,0.10121
4022.78562,0.09721
4024.71409,0.09682
4026.64256,0.10253
4028.57103,0.10454
4030.49950,0.10091
4032.42797,0.10021
4034.35644,0.10173
4036.28490,0.10125
4038.21337,0.10108
4040.14184,0.10312
4042.07031,0.10402
4043.99878,0.10230
4045.92725,0.09946
4047.85572,0.09576
4049.78418,0.09189
4051.71265,0.09286
4053.64112,0.09864
4055.56959,0.10003
4057.49806,0.09798
4059.42653,0.09993
4061.35500,0.10316
4063.28346,0.10051
4065.21193,0.09253
4067.14040,0.08729
4069.06887,0.08862
4070.99734,0.09392
4072.92581,0.10001
4074.85428,0.10340
4076.78275,0.10005
4078.71121,0.09307
4080.63968,0.08763
4082.56815,0.08367
4084.49662,0.08454
4086.42509,0.09182
4088.35356,0.09920
4090.28203,0.10098
4092.21049,0.09825
4094.13896,0.09581
4096.06743,0.09743
4097.99590,0.10158
4099.92437,0.10258
4101.85284,0.10208
4103.78131,0.10348
4105.70978,0.10396
4107.63824,0.10199
4109.56671,0.09893
4111.49518,0.09676
4113.42365,0.09501
4115.35212,0.09341
4117.28059,0.09481
4119.20906,0.09700
4121.13752,0.09560
4123.06599,0.09148
4124.99446,0.08624
4126.92293,0.08144
4128.85140,0.07964
4130.77987,0.08100
4132.70834,0.08175
4134.63681,0.07903
4136.56527,0.07688
4138.49374,0.07975
4140.42221,0.08328
4142.35068,0.08220
4144.27915,0.08043
4146.20762,0.08051
4148.13609,0.07948
4150.06455,0.07860
4151.99302,0.08189
4153.92149,0.08886
4155.84996,0.09489
4157.77843,0.09662
4159.70690,0.09299
4161.63537,0.08873
4163.56384,0.08803
4165.49230,0.08691
4167.42077,0.08182
4169.34924,0.07477
4171.27771,0.07198
4173.20618,0.07413
4175.13465,0.07537
4177.06312,0.07648
4178.99158,0.07959
4180.92005,0.08123
4182.84852,0.08129
4184.77699,0.07871
4186.70546,0.07357
4188.63393,0.07405
4190.56240,0.07630
4192.49087,0.06944
4194.41933,0.05897
4196.34780,0.05664
4198.27627,0.06266
4200.20474,0.06687
4202.13321,0.06579
4204.06168,0.06338
4205.99015,0.06379
4207.91861,0.06859
4209.84708,0.07341
4211.77555,0.07728
4213.70402,0.08408
4215.63249,0.09102
4217.56096,0.09150
4219.48943,0.08462
4221.41789,0.07438
4223.34636,0.06627
4225.27483,0.06259
4227.20330,0.06184
4229.13177,0.06462
4231.06024,0.07069
4232.98871,0.07497
4234.91718,0.07523
4236.84564,0.07406
4238.77411,0.07233
4240.70258,0.06967
4242.63105,0.06599
4244.55952,0.06263
4246.48799,0.06150
4248.41646,0.06218
4250.34492,0.06482
4252.27339,0.06739
4254.20186,0.06815
4256.13033,0.07154
4258.05880,0.07728
4259.98727,0.08040
4261.91574,0.08027
4263.84421,0.07880
4265.77267,0.07719
4267.70114,0.07181
4269.62961,0.06559
4271.55808,0.06551
4273.48655,0.06130
4275.41502,0.04972
4277.34349,0.04710
4279.27195,0.05586
4281.20042,0.06522
4283.12889,0.06885
4285.05736,0.06165
4286.98583,0.05064
4288.91430,0.05121
4290.84277,0.05723
4292.77124,0.05787
4294.69970,0.06163
4296.62817,0.07234
4298.55664,0.07660
4300.48511,0.06917
4302.41358,0.06495
4304.34205,0.06737
4306.27052,0.06394
4308.19898,0.05730
4310.12745,0.05695
4312.05592,0.06235
4313.98439,0.06535
4315.91286,0.06081
4317.84133,0.05589
4319.76980,0.05782
4321.69827,0.06430
4323.62673,0.06559
4325.55520,0.05664
4327.48367,0.04721
4329.41214,0.04773
4331.34061,0.05451
4333.26908,0.05483
4335.19755,0.04703
4337.12601,0.04054
4339.05448,0.03775
4340.98295,0.03568
4342.91142,0.03665
4344.83989,0.04501
4346.76836,0.05183
4348.69683,0.04657
4350.62530,0.04063
4352.55376,0.04740
4354.48223,0.05745
4356.41070,0.05676
4358.33917,0.04981
4360.26764,0.04981
4362.19611,0.05543
4364.12458,0.05355
4366.05304,0.04531
4367.98151,0.03932
4369.90998,0.03500
4371.83845,0.03506
4373.76692,0.04162
4375.69539,0.04806
4377.62386,0.04802
4379.55232,0.04414
4381.48079,0.04341
4383.40926,0.04321
4385.33773,0.03807
4387.26620,0.03170
4389.19467,0.02945
4391.12314,0.03029
4393.05161,0.03110
4394.98007,0.03318
4396.90854,0.03957
4398.83701,0.04929
4400.76548,0.05227
4402.69395,0.04483
4404.62242,0.04130
4406.55089,0.04337
4408.47935,0.04062
4410.40782,0.03674
4412.33629,0.03347
4414.26476,0.02636
4416.19323,0.02001
4418.12170,0.02033
4420.05017,0.02618
4421.97864,0.02989
4423.90710,0.02664
4425.83557,0.02195
4427.76404,0.02320
4429.69251,0.02840
4431.62098,0.02958
4433.54945,0.02837
4435.47792,0.02962
4437.40638,0.03241
4439.33485,0.03566
4441.26332,0.03356
4443.19179,0.02447
4445.12026,0.01913
4447.04873,0.02458
4448.97720,0.03427
4450.90567,0.03773
4452.83413,0.03406
4454.76260,0.02707
4456.69107,0.01712
4458.61954,0.01133
4460.54801,0.01900
4462.47648,0.03444
4464.40495,0.04349
4466.33341,0.04122
4468.26188,0.03321
4470.19035,0.02477
4472.11882,0.02277
4474.04729,0.02842
4475.97576,0.02966
4477.90423,0.02636
4479.83270,0.02487
4481.76116,0.02080
4483.68963,0.01708
4485.61810,0.01724
4487.54657,0.01365
4489.47504,0.00934
4491.40351,0.01651
4493.33198,0.02603
4495.26044,0.02311
4497.18891,0.01961
4499.11738,0.02309
4501.04585,0.02220
4502.97432,0.02108
4504.90279,0.02962
4506.83126,0.04010
4508.75973,0.03888
4510.68819,0.02585
4512.61666,0.01648
4514.54513,0.02166
4516.47360,0.03525
4518.40207,0.04156
4520.33054,0.03436
4522.25901,0.02292
4524.18747,0.01757
4526.11594,0.02085
4528.04441,0.02628
4529.97288,0.02728
4531.90135,0.02630
4533.82982,0.02765
4535.75829,0.02933
4537.68676,0.02797
4539.61522,0.02279
4541.54369,0.01850
4543.47216,0.02191
4545.40063,0.02694
4547.32910,0.02543
4549.25757,0.02273
4551.18604,0.02438
4553.11450,0.02601
4555.04297,0.02532
4556.97144,0.02741
4558.89991,0.02986
4560.82838,0.02323
4562.75685,0.01390
4564.68532,0.01683
4566.61378,0.02325
4568.54225,0.02011
4570.47072,0.01536
4572.39919,0.01455
4574.32766,0.01489
4576.25613,0.01720
4578.18460,0.02228
4580.11307,0.02652
4582.04153,0.02425
4583.97000,0.01421
4585.89847,0.00693
4587.82694,0.00909
4589.75541,0.01125
4591.68388,0.00640
4593.61235,0.00043
4595.54081,0.00235
4597.46928,0.00779
4599.39775,0.00796
4601.32622,0.00748
4603.25469,0.00853
4605.18316,0.00468
4607.11163,0.00090
4609.04010,0.00421
4610.96856,0.00623
4612.89703,0.00728
4614.82550,0.01539
4616.75397,0.02114
4618.68244,0.01787
4620.61091,0.01286
4622.53938,0.01354
4624.46784,0.02276
4626.39631,0.02986
4628.32478,0.02772
4630.25325,0.02840
4632.18172,0.02847
4634.11019,0.01172
4636.03866,-0.00584
4637.96713,-0.00172
4639.89559,0.01069
4641.82406,0.01236
4643.75253,0.01050
4645.68100,0.01394
4647.60947,0.01527
4649.53794,0.00934
4651.46641,0.00379
4653.39487,0.00553
4655.32334,0.00771
4657.25181,0.00316
4659.18028,-0.00166
4661.10875,-0.00183
4663.03722,0.00179
4664.96569,0.01055
4666.89416,0.02036
4668.82262,0.02445
4670.75109,0.02234
4672.67956,0.02157
4674.60803,0.02706
4676.53650,0.02900
4678.46497,0.02107
4680.39344,0.00966
4682.32190,0.00071
4684.25037,-0.00012
4686.17884,0.00558
4688.10731,0.00846
4690.03578,0.00950
4691.96425,0.01413
4693.89272,0.02274
4695.82119,0.03105
4697.74965,0.03235
4699.67812,0.03029
4701.60659,0.02316
4703.53506,0.00607
4705.46353,-0.00234
4707.39200,0.00680
4709.32047,0.01512
4711.24893,0.01007
4713.17740,-0.00137
4715.10587,-0.00633
4717.03434,-0.00282
4718.96281,0.00194
4720.89128,0.00164
4722.81975,-0.00253
4724.74821,-0.00660
4726.67668,-0.01064
4728.60515,-0.00721
4730.53362,0.00539
4732.46209,0.01430
4734.39056,0.01748
4736.31903,0.01740
4738.24750,0.01032
4740.17596,-0.00069
4742.10443,-0.00447
4744.03290,0.00239
4745.96137,0.00785
4747.88984,0.00684
4749.81831,0.00294
4751.74678,-0.00261
4753.67524,-0.00657
4755.60371,-0.00492
4757.53218,0.00560
4759.46065,0.01917
4761.38912,0.02516
4763.31759,0.02170
4765.24606,0.01109
4767.17453,-0.00298
4769.10299,-0.01265
4771.03146,-0.01224
4772.95993,-0.00190
4774.88840,0.01547
4776.81687,0.02897
4778.74534,0.02787
4780.67381,0.01714
4782.60227,0.00845
4784.53074,0.00511
4786.45921,0.00504
4788.38768,0.00975
4790.31615,0.01590
4792.24462,0.01874
4794.17309,0.02058
4796.10156,0.02107
4798.03002,0.02094
4799.95849,0.02111
4801.88696,0.01452
4803.81543,-0.00052
4805.74390,-0.01153
4807.67237,-0.00810
4809.60084,0.00280
4811.52930,0.00444
4813.45777,-0.00621
4815.38624,-0.01293
4817.31471,-0.00989
4819.24318,-0.00695
4821.17165,-0.00738
4823.10012,-0.00645
4825.02859,-0.00132
4826.95705,0.00050
4828.88552,-0.00165
4830.81399,0.00426
4832.74246,0.01769
4834.67093,0.02862
4836.59940,0.02792
4838.52787,0.01801
4840.45633,0.01075
4842.38480,0.01072
4844.31327,0.01355
4846.24174,0.00820
4848.17021,-0.00539
4850.09868,-0.01399
4852.02715,-0.00993
4853.95562,0.00110
4855.88408,0.01083
4857.81255,0.02157
4859.74102,0.03148
4861.66949,0.03428
4863.59796,0.03210
4865.52643,0.02470
4867.45490,0.01057
4869.38336,-0.00059
4871.31183,-0.00232
4873.24030,-0.00228
4875.16877,-0.00697
4877.09724,-0.01317
4879.02571,-0.01693
4880.95418,-0.01870
4882.88265,-0.01153
4884.81111,0.00304
4886.73958,0.00830
4888.66805,0.00625
4890.59652,0.00867
4892.52499,0.00967
4894.45346,0.00429
4896.38193,0.00661
4898.31039,0.02056
4900.23886,0.02636
4902.16733,0.01763
4904.09580,0.00897
4906.02427,0.01222
4907.95274,0.02009
4909.88121,0.01654
4911.80967,0.00675
4913.73814,0.00321
4915.66661,0.00244
4917.59508,0.00402
4919.52355,0.01107
4921.45202,0.02017
4923.38049,0.02525
4925.30896,0.01513
4927.23742,-0.01352
4929.16589,-0.03598
4931.09436,-0.03202
4933.02283,-0.01933
4934.95130,-0.01251
4936.87977,-0.00244
4938.80824,0.01549
4940.73670,0.03223
4942.66517,0.03397
4944.59364,0.01817
4946.52211,-0.00358
4948.45058,-0.01749
4950.37905,-0.01737
4952.30752,-0.00731
4954.23599,0.00332
4956.16445,0.01287
4958.09292,0.02173
4960.02139,0.02544
4961.94986,0.02823
4963.87833,0.02679
4965.80680,0.01465
4967.73527,0.00147
4969.66373,-0.00644
4971.59220,-0.01361
4973.52067,-0.02405
4975.44914,-0.02689
4977.37761,-0.01449
4979.30608,-0.00135
4981.23455,-0.00063
4983.16302,-0.00388
4985.09148,-0.00062
4987.01995,0.00636
4988.94842,0.01416
4990.87689,0.01673
4992.80536,0.01040
4994.73383,0.00286
4996.66230,0.00057
4998.59076,0.00362
5000.51923,0.00725
5002.44770,0.00740
5004.37617,0.00213
5006.30464,-0.00116
5008.23311,0.01017
5010.16158,0.02879
5012.09005,0.03715
5014.01851,0.02917
5015.94698,0.00937
5017.87545,-0.00554
5019.80392,-0.00243
5021.73239,0.00972
5023.66086,0.01954
5025.58933,0.02911
5027.51779,0.03942
5029.44626,0.04424
5031.37473,0.04102
5033.30320,0.03675
5035.23167,0.03095
5037.16014,0.01790
5039.08861,0.00745
5041.01708,0.00824
5042.94554,0.01140
5044.87401,0.00367
5046.80248,-0.00234
5048.73095,0.01304
5050.65942,0.03354
5052.58789,0.04030
5054.51636,0.03423
5056.44482,0.02420
5058.37329,0.02134
5060.30176,0.03262
5062.23023,0.05210
5064.15870,0.05908
5066.08717,0.04587
5068.01564,0.02719
5069.94410,0.01744
5071.87257,0.01654
5073.80104,0.02064
5075.72951,0.02479
5077.65798,0.02348
5079.58645,0.01943
5081.51492,0.01144
5083.44339,0.00200
5085.37185,0.00233
5087.30032,0.01389
5089.22879,0.03265
5091.15726,0.05591
5093.08573,0.06672
5095.01420,0.05858
5096.94267,0.05374
5098.87113,0.05498
5100.79960,0.04772
5102.72807,0.03054
5104.65654,0.01188
5106.58501,0.00593
5108.51348,0.01449
5110.44195,0.02576
5112.37042,0.02598
5114.29888,0.01401
5116.22735,0.00528
5118.15582,0.01026
5120.08429,0.02161
5122.01276,0.01829
5123.94123,0.00199
5125.86970,-0.00000
5127.79816,0.01590
5129.72663,0.03340
5131.65510,0.04519
5133.58357,0.04696
5135.51204,0.03863
5137.44051,0.02815
5139.36898,0.02939
5141.29745,0.04305
5143.22591,0.04640
5145.15438,0.03171
5147.08285,0.02591
5149.01132,0.04342
5150.93979,0.05701
5152.86826,0.05211
5154.79673,0.04461
5156.72519,0.04014
5158.65366,0.03645
5160.58213,0.02293
5162.51060,0.00111
5164.43907,0.00357
5166.36754,0.02782
5168.29601,0.04470
5170.22448,0.05812
5172.15294,0.07224
5174.08141,0.07596
5176.00988,0.06361
5177.93835,0.03706
5179.86682,0.00927
5181.79529,-0.00489
5183.72376,0.00022
5185.65222,0.00527
5187.58069,-0.00970
5189.50916,-0.01586
5191.43763,0.00413
5193.36610,0.02606
5195.29457,0.02695
5197.22304,0.00420
5199.15151,0.00187
5201.07997,0.04604
5203.00844,0.09040
5204.93691,0.09855
5206.86538,0.07068
5208.79385,0.03573
5210.72232,0.02234
5212.65079,0.02084
5214.57925,0.02507
5216.50772,0.04441
5218.43619,0.06087
5220.36466,0.05092
5222.29313,0.04182
5224.22160,0.05494
5226.15007,0.05708
5228.07854,0.04136
5230.00700,0.04168
5231.93547,0.04834
5233.86394,0.03728
5235.79241,0.02089
5237.72088,0.02237
5239.64935,0.03830
5241.57782,0.04096
5243.50628,0.02972
5245.43475,0.03317
5247.36322,0.03996
5249.29169,0.03493
5251.22016,0.04028
5253.14863,0.04909
5255.07710,0.05096
5257.00556,0.05400
5258.93403,0.05192
5260.86250,0.04869
5262.79097,0.05116
5264.71944,0.03962
5266.64791,0.02338
5268.57638,0.03980
5270.50485,0.06774
5272.43331,0.06396
5274.36178,0.04222
5276.29025,0.02690
5278.21872,0.01891
5280.14719,0.02338
5282.07566,0.04275
5284.00413,0.05983
5285.93259,0.05905
5287.86106,0.04901
5289.78953,0.04340
5291.71800,0.03507
5293.64647,0.02427
5295.57494,0.02984
5297.50341,0.04443
5299.43188,0.04494
5301.36034,0.03843
5303.28881,0.03964
5305.21728,0.03982
5307.14575,0.03735
5309.07422,0.03885
5311.00269,0.03777
5312.93116,0.03201
5314.85962,0.03093
5316.78809,0.03921
5318.71656,0.04741
5320.64503,0.05125
5322.57350,0.05188
5324.50197,0.03869
5326.43044,0.01934
5328.35891,0.02558
5330.28737,0.05389
5332.21584,0.06942
5334.14431,0.05961
5336.07278,0.04459
5338.00125,0.04670
5339.92972,0.05744
5341.85819,0.04609
5343.78665,0.01239
5345.71512,-0.00772
5347.64359,0.00492
5349.57206,0.03054
5351.50053,0.05241
5353.42900,0.06922
5355.35747,0.07020
5357.28594,0.05933
5359.21440,0.06828
5361.14287,0.08265
5363.07134,0.06269
5364.99981,0.02753
5366.92828,0.02030
5368.85675,0.04213
5370.78522,0.06639
5372.71368,0.07622
5374.64215,0.07739
5376.57062,0.06447
5378.49909,0.02825
5380.42756,0.00661
5382.35603,0.02326
5384.28450,0.03807
5386.21297,0.02000
5388.14143,0.01502
5390.06990,0.03410
5391.99837,0.04833
5393.92684,0.05546
5395.85531,0.05825
5397.78378,0.06188
5399.71225,0.06547
5401.64071,0.05306
5403.56918,0.03076
5405.49765,0.02671
5407.42612,0.05574
5409.35459,0.08531
5411.28306,0.07486
5413.21153,0.04763
5415.13999,0.04086
5417.06846,0.05694
5418.99693,0.09852
5420.92540,0.13389
5422.85387,0.12171
5424.78234,0.08560
5426.71081,0.05784
5428.63928,0.04318
5430.56774,0.04602
5432.49621,0.05837
5434.42468,0.06333
5436.35315,0.05865
5438.28162,0.05159
5440.21009,0.03737
5442.13856,0.02999
5444.06702,0.04671
5445.99549,0.07036
5447.92396,0.08510
5449.85243,0.09697
5451.78090,0.10783
5453.70937,0.10116
5455.63784,0.07273
5457.56631,0.04283
5459.49477,0.02311
5461.42324,0.02188
5463.35171,0.04490
5465.28018,0.06880
5467.20865,0.07912
5469.13712,0.08424
5471.06559,0.08485
5472.99405,0.07895
5474.92252,0.07389
5476.85099,0.07523
5478.77946,0.07728
5480.70793,0.08049
5482.63640,0.09294
5484.56487,0.10510
5486.49334,0.10175
5488.42180,0.08875
5490.35027,0.07502
5492.27874,0.06328
5494.20721,0.06121
5496.13568,0.06210
5498.06415,0.04577
5499.99262,0.02071
5501.92108,0.02685
5503.84955,0.05974
5505.77802,0.07538
5507.70649,0.07148
5509.63496,0.07495
5511.56343,0.08154
5513.49190,0.08586
5515.42037,0.10118
5517.34883,0.11902
5519.27730,0.11869
5521.20577,0.09924
5523.13424,0.07190
5525.06271,0.05793
5526.99118,0.06398
5528.91965,0.07565
5530.84811,0.09052
5532.77658,0.08961
5534.70505,0.05490
5536.63352,0.02881
5538.56199,0.03724
5540.49046,0.05105
5542.41893,0.05649
5544.34740,0.05015
5546.27586,0.03785
5548.20433,0.04265
5550.13280,0.05400
5552.06127,0.05805
5553.98974,0.07288
5555.91821,0.08334
5557.84668,0.07293
5559.77514,0.06804
5561.70361,0.06848
5563.63208,0.06399
5565.56055,0.05677
5567.48902,0.04785
5569.41749,0.04528
5571.34596,0.05231
5573.27443,0.07148
5575.20289,0.08964
5577.13136,0.08439
5579.05983,0.07241
5580.98830,0.09532
5582.91677,0.13830
5584.84524,0.13795
5586.77371,0.09985
5588.70217,0.06792
5590.63064,0.04144
5592.55911,0.01744
5594.48758,0.01963
5596.41605,0.04657
5598.34452,0.06562
5600.27299,0.07069
5602.20145,0.08662
5604.12992,0.11495
5606.05839,0.13380
5607.98686,0.13034
5609.91533,0.10395
5611.84380,0.06778
5613.77227,0.04574
5615.70074,0.03718
5617.62920,0.03922
5619.55767,0.07726
5621.48614,0.13728
5623.41461,0.15880
5625.34308,0.12167
5627.27155,0.07453
5629.20002,0.07879
5631.12848,0.12105
5633.05695,0.14302
5634.98542,0.13061
5636.91389,0.11589
5638.84236,0.12188
5640.77083,0.13199
5642.69930,0.12409
5644.62777,0.10251
5646.55623,0.07113
5648.48470,0.04108
5650.41317,0.03947
5652.34164,0.06462
5654.27011,0.08763
5656.19858,0.08850
5658.12705,0.07293
5660.05551,0.06024
5661.98398,0.05466
5663.91245,0.06165
5665.84092,0.08797
5667.76939,0.09805
5669.69786,0.06978
5671.62633,0.03968
5673.55480,0.03038
5675.48326,0.03966
5677.41173,0.06375
5679.34020,0.07803
5681.26867,0.07605
5683.19714,0.08732
5685.12561,0.11416
5687.05408,0.11421
5688.98254,0.08202
5690.91101,0.07112
5692.83948,0.09104
5694.76795,0.10177
5696.69642,0.09812
5698.62489,0.08981
5700.55336,0.07079
5702.48183,0.06290
5704.41029,0.08105
5706.33876,0.10608
5708.26723,0.12698
5710.19570,0.12786
5712.12417,0.09473
5714.05264,0.05863
5715.98111,0.06112
5717.90957,0.09411
5719.83804,0.11586
5721.76651,0.10683
5723.69498,0.08650
5725.62345,0.07041
5727.55192,0.04861
5729.48039,0.03554
5731.40886,0.06074
5733.33732,0.09425
5735.26579,0.08503
5737.19426,0.04160
5739.12273,0.01201
5741.05120,0.01160
5742.97967,0.01608
5744.90814,0.02136
5746.83660,0.04590
5748.76507,0.06858
5750.69354,0.06427
5752.62201,0.06559
5754.55048,0.09397
5756.47895,0.11976
5758.40742,0.12883
5760.33588,0.12515
5762.26435,0.12566
5764.19282,0.13988
5766.12129,0.13069
5768.04976,0.10519
5769.97823,0.10972
5771.90670,0.12845
5773.83517,0.11840
5775.76363,0.09177
5777.69210,0.07821
5779.62057,0.07800
5781.54904,0.08332
5783.47751,0.08107
5785.40598,0.06409
5787.33445,0.02976
5789.26291,-0.00015
5791.19138,0.00248
5793.11985,0.02420
5795.04832,0.05804
5796.97679,0.09813
5798.90526,0.13195
5800.83373,0.14076
5802.76220,0.11867
5804.69066,0.11047
5806.61913,0.12570
5808.54760,0.12425
5810.47607,0.11136
5812.40454,0.12158
5814.33301,0.13484
5816.26148,0.12138
5818.18994,0.10803
5820.11841,0.10533
5822.04688,0.08271
5823.97535,0.04801
5825.90382,0.04651
5827.83229,0.08981
5829.76076,0.11685
5831.68923,0.07642
5833.61769,0.03895
5835.54616,0.05488
5837.47463,0.08531
5839.40310,0.10958
5841.33157,0.10273
5843.26004,0.08031
5845.18851,0.06878
5847.11697,0.05207
5849.04544,0.04573
5850.97391,0.05671
5852.90238,0.06070
5854.83085,0.04854
5856.75932,0.03049
5858.68779,0.02318
5860.61626,0.02759
5862.54472,0.03609
5864.47319,0.05441
5866.40166,0.08711
5868.33013,0.10764
5870.25860,0.08818
5872.18707,0.03779
5874.11554,0.00561
5876.04400,0.02265
5877.97247,0.04360
5879.90094,0.04331
5881.82941,0.06152
5883.75788,0.09176
5885.68635,0.10138
5887.61482,0.10848
5889.54329,0.11247
5891.47175,0.09714
5893.40022,0.07933
5895.32869,0.07311
5897.25716,0.09316
5899.18563,0.10887
5901.11410,0.08540
5903.04257,0.09100
5904.97103,0.13504
5906.89950,0.12633
5908.82797,0.07347
5910.75644,0.05283
5912.68491,0.07550
5914.61338,0.09601
5916.54185,0.09311
5918.47032,0.09762
5920.39878,0.10887
5922.32725,0.10325
5924.25572,0.08234
5926.18419,0.05185
5928.11266,0.03388
5930.04113,0.04548
5931.96960,0.06262
5933.89806,0.05107
5935.82653,0.03249
5937.75500,0.03903
5939.68347,0.03155
5941.61194,0.02088
5943.54041,0.07076
5945.46888,0.12799
5947.39734,0.11396
5949.32581,0.05706
5951.25428,0.02657
5953.18275,0.04472
5955.11122,0.07388
5957.03969,0.07619
5958.96816,0.06849
5960.89663,0.07974
5962.82509,0.09331
5964.75356,0.08026
5966.68203,0.05017
5968.61050,0.03888
5970.53897,0.04600
5972.46744,0.05132
5974.39591,0.05930
5976.32437,0.06514
5978.25284,0.05417
5980.18131,0.04043
5982.10978,0.04767
5984.03825,0.07243
5985.96672,0.09004
5987.89519,0.09510
5989.82366,0.10528
5991.75212,0.11003
5993.68059,0.09144
5995.60906,0.06839
5997.53753,0.05498
5999.46600,0.04057
6001.39447,0.04219
6003.32294,0.07590
6005.25140,0.08939
6007.17987,0.05107
6009.10834,0.01685
6011.03681,0.01879
6012.96528,0.03927
6014.89375,0.06221
6016.82222,0.06514
6018.75069,0.04303
6020.67915,0.04327
6022.60762,0.08894
6024.53609,0.14403
6026.46456,0.16467
6028.39303,0.12936
6030.32150,0.06022
6032.24997,-0.00539
6034.17843,-0.05659
6036.10690,-0.06513
6038.03537,0.00714
6039.96384,0.11086
6041.89231,0.14084
6043.82078,0.08082
6045.74925,0.02734
6047.67772,0.02583
6049.60618,0.05035
6051.53465,0.07996
6053.46312,0.10363
6055.39159,0.12443
6057.32006,0.14316
6059.24853,0.14587
6061.17700,0.13799
6063.10546,0.13338
6065.03393,0.12742
6066.96240,0.12113
6068.89087,0.13133
6070.81934,0.14360
6072.74781,0.12788
6074.67628,0.09256
6076.60475,0.07239
6078.53321,0.10239
6080.46168,0.15767
6082.39015,0.16689
6084.31862,0.15525
6086.24709,0.17777
6088.17556,0.19517
6090.10403,0.18660
6092.03249,0.17911
6093.96096,0.16702
6095.88943,0.13897
6097.81790,0.11021
6099.74637,0.07784
6101.67484,0.03965
6103.60331,0.03069
6105.53177,0.06343
6107.46024,0.11065
6109.38871,0.13197
6111.31718,0.12663
6113.24565,0.12131
6115.17412,0.11197
6117.10259,0.10918
6119.03106,0.12665
6120.95952,0.14056
6122.88799,0.13022
6124.81646,0.09831
6126.74493,0.08883
6128.67340,0.10747
6130.60187,0.08133
6132.53034,0.04807
6134.45880,0.08279
6136.38727,0.12975
6138.31574,0.12304
6140.24421,0.10312
6142.17268,0.13559
6144.10115,0.17606
6146.02962,0.14782
6147.95809,0.07826
6149.88655,0.03931
6151.81502,0.05070
6153.74349,0.07121
6155.67196,0.06341
6157.60043,0.02161
6159.52890,-0.01658
6161.45737,-0.02990
6163.38583,-0.02652
6165.31430,0.01165
6167.24277,0.05213
6169.17124,0.06857
6171.09971,0.08868
6173.02818,0.08860
6174.95665,0.04331
6176.88512,0.01930
6178.81358,0.05874
6180.74205,0.11470
6182.67052,0.15531
6184.59899,0.17284
6186.52746,0.16159
6188.45593,0.15094
6190.38440,0.14898
6192.31286,0.13613
6194.24133,0.12886
6196.16980,0.12037
6198.09827,0.08527
6200.02674,0.03524
6201.95521,0.00863
6203.88368,0.02831
6205.81215,0.04963
6207.74061,0.04977
6209.66908,0.06401
6211.59755,0.08245
6213.52602,0.08434
6215.45449,0.08175
6217.38296,0.06188
6219.31143,0.02694
6221.23989,0.02020
6223.16836,0.02897
6225.09683,0.03213
6227.02530,0.07895
6228.95377,0.13623
6230.88224,0.11929
6232.81071,0.04346
6234.73918,-0.01042
6236.66764,-0.00033
6238.59611,0.06098
6240.52458,0.12640
6242.45305,0.14069
6244.38152,0.12012
6246.30999,0.11057
6248.23846,0.08320
6250.16692,0.04232
6252.09539,0.04259
6254.02386,0.06198
6255.95233,0.07992
6257.88080,0.09213
6259.80927,0.07293
6261.73774,0.04266
6263.66621,0.03239
6265.59467,0.04375
6267.52314,0.05865
6269.45161,0.04366
6271.38008,0.00969
6273.30855,-0.00711
6275.23702,-0.00513
6277.16549,0.00880
6279.09395,0.03167
6281.02242,0.04546
6282.95089,0.05637
6284.87936,0.07042
6286.80783,0.07996
6288.73630,0.09361
6290.66477,0.10500
6292.59323,0.10062
6294.52170,0.10054
6296.45017,0.13350
6298.37864,0.17894
6300.30711,0.16152
6302.23558,0.07762
6304.16405,0.04678
6306.09252,0.08981
6308.02098,0.13060
6309.94945,0.13039
6311.87792,0.07872
6313.80639,0.01494
6315.73486,0.01499
6317.66333,0.07424
6319.59180,0.09529
6321.52026,0.06141
6323.44873,0.04477
6325.37720,0.02782
6327.30567,-0.00438
6329.23414,0.00782
6331.16261,0.05831
6333.09108,0.08224
6335.01955,0.07567
6336.94801,0.07739
6338.87648,0.09110
6340.80495,0.10643
6342.73342,0.10937
6344.66189,0.07152
6346.59036,0.01951
6348.51883,-0.00095
6350.44729,0.00517
6352.37576,0.02671
6354.30423,0.02097
6356.23270,0.00064
6358.16117,0.05862
6360.08964,0.15592
6362.01811,0.15964
6363.94658,0.07512
6365.87504,-0.02210
6367.80351,-0.05517
6369.73198,-0.01474
6371.66045,0.01150
6373.58892,-0.00003
6375.51739,-0.00259
6377.44586,0.03276
6379.37432,0.08755
6381.30279,0.12655
6383.23126,0.12286
6385.15973,0.10617
6387.08820,0.14266
6389.01667,0.15818
6390.94514,0.08905
6392.87361,0.02131
6394.80207,0.00340
6396.73054,-0.00358
6398.65901,0.00898
6400.58748,0.02321
6402.51595,-0.00279
6404.44442,-0.00060
6406.37289,0.06420
6408.30135,0.11806
6410.22982,0.14580
6412.15829,0.14657
6414.08676,0.12012
6416.01523,0.12220
6417.94370,0.12216
6419.87217,0.05337
6421.80064,-0.01600
6423.72910,-0.05871
6425.65757,-0.06221
6427.58604,0.01829
6429.51451,0.10755
6431.44298,0.13220
6433.37145,0.12862
6435.29992,0.11477
6437.22838,0.07513
6439.15685,0.05808
6441.08532,0.09967
6443.01379,0.14882
6444.94226,0.14961
6446.87073,0.11602
6448.79920,0.10331
6450.72766,0.14184
6452.65613,0.18940
6454.58460,0.17688
6456.51307,0.11584
6458.44154,0.06589
6460.37001,0.02446
6462.29848,-0.00663
6464.22695,0.00866
6466.15541,0.05148
6468.08388,0.07543
6470.01235,0.09258
6471.94082,0.07962
6473.86929,-0.03230
6475.79776,-0.12827
6477.72623,-0.06268
6479.65469,0.03948
6481.58316,0.05996
6483.51163,0.07702
6485.44010,0.10656
6487.36857,0.08019
6489.29704,0.01972
6491.22551,-0.00389
6493.15398,0.01981
6495.08244,0.04611
6497.01091,0.05238
6498.93938,0.05368
6500.86785,0.06275
6502.79632,0.09284
6504.72479,0.13264
6506.65326,0.13825
6508.58172,0.08489
6510.51019,0.01375
6512.43866,0.02693
6514.36713,0.11925
6516.29560,0.16564
6518.22407,0.11689
6520.15254,0.05869
6522.08101,0.06253
6524.00947,0.09671
6525.93794,0.11459
6527.86641,0.12043
6529.79488,0.13834
6531.72335,0.17621
6533.65182,0.18727
6535.58029,0.13672
6537.50875,0.06854
6539.43722,0.03383
6541.36569,0.00707
6543.29416,-0.03811
6545.22263,-0.06903
6547.15110,-0.08369
6549.07957,-0.08675
6551.00804,-0.01674
6552.93650,0.12323
6554.86497,0.19932
6556.79344,0.14982
6558.72191,0.07487
6560.65038,0.08176
6562.57885,0.11813
6564.50732,0.09685
6566.43578,0.07875
6568.36425,0.09338
6570.29272,0.06057
6572.22119,-0.03270
6574.14966,-0.10526
6576.07813,-0.09279
6578.00660,-0.03848
6579.93507,-0.02751
6581.86353,-0.02351
6583.79200,0.03493
6585.72047,0.06648
6587.64894,0.04008
6589.57741,0.04899
6591.50588,0.10645
6593.43435,0.16567
6595.36281,0.23288
6597.29128,0.26164
6599.21975,0.18640
6601.14822,0.07266
6603.07669,0.01997
6605.00516,0.03029
6606.93363,0.10081
6608.86210,0.18992
6610.79056,0.23678
6612.71903,0.24207
6614.64750,0.21379
6616.57597,0.15471
6618.50444,0.07787
6620.43291,0.00542
6622.36138,-0.01873
6624.28984,0.00025
6626.21831,0.00775
6628.14678,0.01331
6630.07525,0.02380
6632.00372,0.02006
6633.93219,0.02603
6635.86066,0.00044
6637.78912,-0.08595
6639.71759,-0.12267
6641.64606,-0.07248
6643.57453,-0.00547
6645.50300,0.03319
6647.43147,0.06013
6649.35994,0.07397
6651.28841,0.05458
6653.21687,0.03734
6655.14534,0.06813
6657.07381,0.11602
6659.00228,0.13788
6660.93075,0.11487
6662.85922,0.04880
6664.78769,0.00014
6666.71615,-0.01386
6668.64462,-0.02843
6670.57309,-0.04906
6672.50156,-0.00586
6674.43003,0.11957
6676.35850,0.19548
6678.28697,0.17928
6680.21544,0.16867
6682.14390,0.18330
6684.07237,0.12360
6686.00084,0.01948
6687.92931,0.00029
6689.85778,0.04614
6691.78625,0.09184
6693.71472,0.12475
6695.64318,0.09337
6697.57165,0.03099
6699.50012,0.06712
6701.42859,0.15009
6703.35706,0.18270
6705.28553,0.17998
6707.21400,0.13686
6709.14247,0.07571
6711.07093,0.04591
6712.99940,0.02589
6714.92787,-0.01337
6716.85634,-0.02128
6718.78481,0.07184
6720.71328,0.22137
6722.64175,0.30711
6724.57021,0.28360
6726.49868,0.21868
6728.42715,0.16678
6730.35562,0.13122
6732.28409,0.12532
6734.21256,0.12157
6736.14103,0.08702
6738.06950,0.03655
6739.99796,-0.01005
6741.92643,-0.02594
6743.85490,-0.01732
6745.78337,-0.00092
6747.71184,0.04477
6749.64031,0.10552
6751.56878,0.10311
6753.49724,0.00431
6755.42571,-0.09682
6757.35418,-0.10920
6759.28265,-0.00063
6761.21112,0.15773
6763.13959,0.19711
6765.06806,0.13249
6766.99653,0.05553
6768.92499,0.00965
6770.85346,0.00042
6772.78193,0.02433
6774.71040,0.07173
6776.63887,0.09838
6778.56734,0.09906
6780.49581,0.08605
6782.42427,0.06599
6784.35274,0.05669
6786.28121,0.00523
6788.20968,-0.09066
6790.13815,-0.08441
6792.06662,0.06807
6793.99509,0.14505
6795.92355,0.08076
6797.85202,0.05452
6799.78049,0.12899
6801.70896,0.18274
6803.63743,0.13697
6805.56590,0.05200
6807.49437,-0.01111
6809.42284,-0.03629
6811.35130,-0.05107
6813.27977,-0.07441
6815.20824,-0.04007
6817.13671,0.02457
6819.06518,0.03643
6820.99365,0.04617
6822.92212,0.07996
6824.85058,0.11788
6826.77905,0.19253
6828.70752,0.28581
6830.63599,0.30984
6832.56446,0.25234
6834.49293,0.15638
6836.42140,0.07556
6838.34987,0.07931
6840.27833,0.11523
6842.20680,0.13437
6844.13527,0.17523
6846.06374,0.26168
6847.99221,0.32490
6849.92068,0.22772
6851.84915,0.03346
6853.77761,-0.08100
6855.70608,-0.01634
6857.63455,0.09635
6859.56302,0.06599
6861.49149,-0.03796
6863.41996,-0.05885
6865.34843,0.02411
6867.27690,0.08166
6869.20536,0.02850
6871.13383,-0.01065
6873.06230,0.05010
6874.99077,0.06962
6876.91924,0.02759
6878.84771,0.04253
6880.77618,0.08553
6882.70464,0.10281
6884.63311,0.12454
6886.56158,0.12668
6888.49005,0.05947
6890.41852,-0.02838
6892.34699,-0.06844
6894.27546,-0.07790
6896.20393,-0.03754
6898.13239,0.02079
6900.06086,0.02406
6901.98933,0.05948
6903.91780,0.15281
6905.84627,0.17609
6907.77474,0.14520
6909.70321,0.13198
6911.63167,0.07893
6913.56014,0.05536
6915.48861,0.12779
6917.41708,0.16058
6919.34555,0.10606
6921.27402,0.05140
6923.20249,0.02648
6925.13096,-0.04330
6927.05942,-0.18773
6928.98789,-0.26188
6930.91636,-0.11353
6932.84483,0.10834
6934.77330,0.14891
6936.70177,0.07014
6938.63024,0.04922
6940.55870,0.13178
6942.48717,0.17184
6944.41564,0.09456
6946.34411,-0.02574
6948.27258,-0.09145
6950.20105,-0.10343
6952.12952,-0.07062
6954.05799,-0.02375
6955.98645,-0.04493
6957.91492,-0.05557
6959.84339,0.01861
6961.77186,0.08308
6963.70033,0.06647
6965.62880,0.04299
6967.55727,0.10593
6969.48573,0.24575
6971.41420,0.34928
6973.34267,0.32914
6975.27114,0.23318
6977.19961,0.14709
6979.12808,0.07179
6981.05655,0.02578
6982.98501,0.07513
6984.91348,0.17344
6986.84195,0.15661
6988.77042,0.01891
6990.69889,-0.04663
6992.62736,-0.00956
6994.55583,-0.00058
6996.48430,-0.00880
6998.41276,0.06637
7000.34123,0.14937
7002.26970,0.13453
7004.19817,0.06260
7006.12664,-0.02427
7008.05511,-0.07112
7009.98358,-0.01253
7011.91204,0.10712
7013.84051,0.12793
7015.76898,0.04394
7017.69745,0.03002
7019.62592,0.00799
7021.55439,-0.09249
7023.48286,-0.08837
7025.41133,-0.01471
7027.33979,-0.11113
7029.26826,-0.27222
7031.19673,-0.26334
7033.12520,-0.17932
7035.05367,-0.07863
7036.98214,0.03571
7038.91061,0.09905
7040.83907,0.13112
7042.76754,0.19975
7044.69601,0.23360
7046.62448,0.15008
7048.55295,0.12568
7050.48142,0.24126
7052.40989,0.26996
7054.33836,0.10450
7056.26682,-0.04913
7058.19529,-0.01173
7060.12376,0.08479
7062.05223,0.07752
7063.98070,0.00059
7065.90917,-0.03372
7067.83764,0.00964
7069.76610,0.05408
7071.69457,0.05286
7073.62304,0.06313
7075.55151,0.01744
7077.47998,-0.14420
7079.40845,-0.22689
7081.33692,-0.07438
7083.26539,0.10999
7085.19385,0.20057
7087.12232,0.22214
7089.05079,0.19252
7090.97926,0.11453
7092.90773,-0.05001
7094.83620,-0.23236
7096.76467,-0.24189
7098.69313,-0.04336
7100.62160,0.13076
7102.55007,0.22307
7104.47854,0.22867
7106.40701,0.07148
7108.33548,-0.09941
7110.26395,-0.13677
7112.19242,-0.13734
7114.12088,-0.17436
7116.04935,-0.12433
7117.97782,0.08278
7119.90629,0.24635
7121.83476,0.29808
7123.76323,0.30207
7125.69170,0.25935
7127.62016,0.13121
7129.54863,-0.00751
7131.47710,-0.05561
7133.40557,-0.07336
7135.33404,-0.05693
7137.26251,0.04560
7139.19098,0.17157
7141.11944,0.23916
7143.04791,0.23868
7144.97638,0.13554
7146.90485,-0.07069
7148.83332,-0.17358
7150.76179,-0.13088
7152.69026,0.00373
7154.61873,0.18252
7156.54719,0.29078
7158.47566,0.35982
7160.40413,0.34175
7162.33260,0.18983
7164.26107,0.10342
7166.18954,0.11879
7168.11801,0.05641
7170.04647,-0.12165
7171.97494,-0.21097
7173.90341,-0.11620
7175.83188,-0.04492
7177.76035,-0.04930
7179.68882,0.07168
7181.61729,0.28167
7183.54576,0.32850
7185.47422,0.15508
7187.40269,-0.05420
7189.33116,-0.18019
7191.25963,-0.13865
7193.18810,-0.00750
7195.11657,0.01439
7197.04504,-0.05834
7198.97350,-0.04986
7200.90197,0.05893
7202.83044,0.13586
7204.75891,0.05276
7206.68738,-0.08186
7208.61585,-0.05762
7210.54432,0.04362
7212.47279,0.08461
7214.40125,0.06218
7216.32972,0.03050
7218.25819,0.02228
7220.18666,-0.00964
7222.11513,-0.11931
7224.04360,-0.23400
7225.97207,-0.23474
7227.90053,-0.14822
7229.82900,-0.09365
7231.75747,-0.04387
7233.68594,0.07769
7235.61441,0.21144
7237.54288,0.25397
7239.47135,0.15395
7241.39982,0.00661
7243.32828,-0.03742
7245.25675,-0.00725
7247.18522,0.01451
7249.11369,0.09535
7251.04216,0.24966
7252.97063,0.30259
7254.89910,0.14735
7256.82756,0.00869
7258.75603,-0.08086
7260.68450,-0.14524
7262.61297,-0.08369
7264.54144,0.04371
7266.46991,0.11342
7268.39838,0.15693
7270.32685,0.17495
7272.25531,0.13196
7274.18378,0.07251
7276.11225,0.04869
7278.04072,0.04854
7279.96919,0.02064
7281.89766,-0.00298
7283.82613,0.09167
7285.75459,0.19171
7287.68306,0.16297
7289.61153,0.09188
7291.54000,-0.00028
7293.46847,-0.14535
7295.39694,-0.19487
7297.32541,-0.06305
7299.25387,0.11096
7301.18234,0.19914
7303.11081,0.16264
7305.03928,0.06185
7306.96775,0.07382
7308.89622,0.15768
7310.82469,0.09723
7312.75316,0.04299
7314.68162,0.11199
7316.61009,0.20466
7318.53856,0.27678
7320.46703,0.29825
7322.39550,0.17763
7324.32397,0.00718
7326.25244,0.00298
7328.18090,0.14107
7330.10937,0.20974
7332.03784,0.19534
7333.96631,0.20608
7335.89478,0.20414
7337.82325,0.19063
7339.75172,0.11970
7341.68019,-0.04725
7343.60865,-0.12526
7345.53712,-0.05331
7347.46559,0.03934
7349.39406,0.01459
7351.32253,0.04610
7353.25100,0.20471
7355.17947,0.25584
7357.10793,0.17253
7359.03640,0.13206
7360.96487,-0.01470
7362.89334,-0.30575
7364.82181,-0.29687
7366.75028,0.03812
7368.67875,0.26467
7370.60722,0.26395
7372.53568,0.23358
7374.46415,0.16539
7376.39262,0.07521
7378.32109,0.20276
7380.24956,0.37111
7382.17803,0.30455
7384.10650,0.16718
7386.03496,0.16408
7387.96343,0.14708
7389.89190,0.04625
7391.82037,0.00414
7393.74884,0.07764
7395.67731,0.14741
7397.60578,0.12927
7399.53425,0.08690
7401.46271,0.10171
7403.39118,0.19226
7405.31965,0.27835
7407.24812,0.29852
7409.17659,0.23094
7411.10506,0.13871
7413.03353,0.16596
7414.96199,0.20535
7416.89046,0.11257
7418.81893,-0.01994
7420.74740,-0.01854
7422.67587,0.08881
7424.60434,0.18120
7426.53281,0.22536
7428.46128,0.23410
7430.38974,0.18716
7432.31821,0.16648
7434.24668,0.19076
7436.17515,0.20343
7438.10362,0.26189
7440.03209,0.28909
7441.96056,0.16581
7443.88902,0.00012
7445.81749,-0.06735
7447.74596,-0.02006
7449.67443,0.02092
7451.60290,-0.08550
7453.53137,-0.18129
7455.45984,-0.14808
7457.38831,-0.00520
7459.31677,0.23606
7461.24524,0.33048
7463.17371,0.22958
7465.10218,0.10474
7467.03065,0.07969
7468.95912,0.20958
7470.88759,0.24293
7472.81605,0.09630
7474.74452,-0.04412
7476.67299,-0.18413
7478.60146,-0.19440
7480.52993,-0.00499
7482.45840,0.14879
7484.38687,0.15843
7486.31533,0.13756
7488.24380,0.15708
7490.17227,0.04382
7492.10074,-0.08537
7494.02921,0.03812
7495.95768,0.24233
7497.88615,0.38008
