399.19301,1.34288
401.12148,-0.01347
403.04995,-0.22518
404.97842,-0.26210
406.90689,-0.36162
408.83536,-0.37327
410.76382,-0.18820
412.69229,-0.00879
414.62076,0.06037
416.54923,0.14303
418.47770,0.29427
420.40617,0.35292
422.33464,0.30177
424.26311,0.17466
426.19157,0.05792
428.12004,0.09318
430.04851,0.16759
431.97698,0.14468
433.90545,0.10365
435.83392,0.10282
437.76239,0.15657
439.69085,0.22239
441.61932,0.23757
443.54779,0.24311
445.47626,0.23786
447.40473,0.15521
449.33320,0.00592
451.26167,-0.08236
453.19013,-0.00491
455.11860,0.11839
457.04707,0.13460
458.97554,0.11532
460.90401,0.16941
462.83248,0.24198
464.76095,0.24188
466.68942,0.18880
468.61788,0.18330
470.54635,0.25729
472.47482,0.35617
474.40329,0.34419
476.33176,0.22981
478.26023,0.15320
480.18870,0.13500
482.11716,0.15301
484.04563,0.18006
485.97410,0.18665
487.90257,0.11836
489.83104,0.03337
491.75951,0.03864
493.68798,0.08935
495.61645,0.11615
497.54491,0.12561
499.47338,0.12148
501.40185,0.09583
503.33032,0.07373
505.25879,0.10145
507.18726,0.16725
509.11573,0.20035
511.04419,0.17939
512.97266,0.13371
514.90113,0.10033
516.82960,0.09300
518.75807,0.08869
520.68654,0.09906
522.61501,0.13812
524.54348,0.17001
526.47194,0.16200
528.40041,0.11372
530.32888,0.06921
532.25735,0.09226
534.18582,0.15520
536.11429,0.17996
538.04276,0.17326
539.97122,0.16426
541.89969,0.13013
543.82816,0.08560
545.75663,0.09191
547.68510,0.13735
549.61357,0.21236
551.54204,0.38611
553.47051,0.52257
555.39897,0.40566
557.32744,0.18415
559.25591,0.09959
561.18438,0.10803
563.11285,0.11046
565.04132,0.10729
566.96979,0.11360
568.89825,0.11765
570.82672,0.13201
572.75519,0.15295
574.68366,0.14921
576.61213,0.14270
578.54060,0.15864
580.46907,0.17431
582.39754,0.16683
584.32600,0.15159
586.25447,0.14854
588.18294,0.14244
590.11141,0.13123
592.03988,0.13134
593.96835,0.13609
595.89682,0.13969
597.82528,0.13400
599.75375,0.11376
601.68222,0.10564
603.61069,0.11793
605.53916,0.12614
607.46763,0.13284
609.39610,0.13567
611.32456,0.10988
613.25303,0.08046
615.18150,0.07890
617.10997,0.07961
619.03844,0.07657
620.96691,0.08590
622.89538,0.09663
624.82385,0.10209
626.75231,0.10509
628.68078,0.10141
630.60925,0.09796
632.53772,0.10623
634.46619,0.11834
636.39466,0.13470
638.32313,0.15251
640.25159,0.14375
642.18006,0.11136
644.10853,0.08585
646.03700,0.08075
647.96547,0.10182
649.89394,0.13110
651.82241,0.14186
653.75088,0.14311
655.67934,0.14271
657.60781,0.13254
659.53628,0.12078
661.46475,0.12652
663.39322,0.14165
665.32169,0.14508
667.25016,0.14071
669.17862,0.15116
671.10709,0.16217
673.03556,0.15485
674.96403,0.13699
676.89250,0.12797
678.82097,0.13583
680.74944,0.13803
682.67791,0.12824
684.60637,0.13052
686.53484,0.14485
688.46331,0.15476
690.39178,0.14501
692.32025,0.12682
694.24872,0.12810
696.17719,0.13870
698.10565,0.13564
700.03412,0.12246
701.96259,0.11955
703.89106,0.13263
705.81953,0.14464
707.74800,0.17249
709.67647,0.28929
711.60494,0.41031
713.53340,0.33948
715.46187,0.18387
717.39034,0.13911
719.31881,0.15507
721.24728,0.16156
723.17575,0.16009
725.10422,0.15504
727.03268,0.14793
728.96115,0.14006
730.88962,0.13356
732.81809,0.12706
734.74656,0.12017
736.67503,0.11585
738.60350,0.12209
740.53197,0.13234
742.46043,0.13424
744.38890,0.13666
746.31737,0.14641
748.24584,0.15092
750.17431,0.14613
752.10278,0.13987
754.03125,0.13472
755.95971,0.13552
757.88818,0.14649
759.81665,0.16321
761.74512,0.17097
763.67359,0.16334
765.60206,0.15625
767.53053,0.15507
769.45900,0.15107
771.38746,0.14687
773.31593,0.14589
775.24440,0.14392
777.17287,0.13892
779.10134,0.13248
781.02981,0.12934
782.95828,0.13223
784.88674,0.14173
786.81521,0.15270
788.74368,0.15331
790.67215,0.14520
792.60062,0.13559
794.52909,0.12798
796.45756,0.12850
798.38602,0.13442
800.31449,0.13485
802.24296,0.12671
804.17143,0.12377
806.09990,0.13200
808.02837,0.13677
809.95684,0.13750
811.88531,0.14146
813.81377,0.14183
815.74224,0.14170
817.67071,0.14784
819.59918,0.15317
821.52765,0.15369
823.45612,0.14841
825.38459,0.13415
827.31305,0.12388
829.24152,0.13493
831.16999,0.15382
833.09846,0.15750
835.02693,0.14741
836.95540,0.13508
838.88387,0.12752
840.81234,0.12789
842.74080,0.13002
844.66927,0.13132
846.59774,0.13526
848.52621,0.14079
850.45468,0.14985
852.38315,0.15701
854.31162,0.15353
856.24008,0.14785
858.16855,0.14555
860.09702,0.14388
862.02549,0.14456
863.95396,0.14787
865.88243,0.15103
867.81090,0.14910
869.73937,0.14601
871.66783,0.14565
873.59630,0.13906
875.52477,0.13071
877.45324,0.13329
879.38171,0.14491
881.31018,0.15423
883.23865,0.15822
885.16711,0.16825
887.09558,0.17893
889.02405,0.17294
890.95252,0.15819
892.88099,0.15012
894.80946,0.14878
896.73793,0.15261
898.66640,0.15953
900.59486,0.16068
902.52333,0.15616
904.45180,0.15105
906.38027,0.14667
908.30874,0.14994
910.23721,0.15719
912.16568,0.15795
914.09414,0.15537
916.02261,0.14943
917.95108,0.13682
919.87955,0.12474
921.80802,0.12284
923.73649,0.13607
925.66496,0.15201
927.59343,0.15232
929.52189,0.14526
931.45036,0.14546
933.37883,0.14895
935.30730,0.15131
937.23577,0.15366
939.16424,0.15155
941.09271,0.14103
943.02117,0.13054
944.94964,0.12795
946.87811,0.13425
948.80658,0.14549
950.73505,0.15056
952.66352,0.14829
954.59199,0.14945
956.52045,0.15625
958.44892,0.15777
960.37739,0.15042
962.30586,0.14403
964.23433,0.14243
966.16280,0.14355
968.09127,0.14829
970.01974,0.15092
971.94820,0.14399
973.87667,0.13501
975.80514,0.13543
977.73361,0.14221
979.66208,0.14568
981.59055,0.14575
983.51902,0.14903
985.44748,0.15683
987.37595,0.16121
989.30442,0.15468
991.23289,0.14441
993.16136,0.14201
995.08983,0.14617
997.01830,0.14666
998.94677,0.14428
1000.87523,0.14987
1002.80370,0.15892
1004.73217,0.16038
1006.66064,0.15586
1008.58911,0.15398
1010.51758,0.15800
1012.44605,0.15920
1014.37451,0.15376
1016.30298,0.14702
1018.23145,0.14448
1020.15992,0.15106
1022.08839,0.15999
1024.01686,0.16466
1025.94533,0.17200
1027.87380,0.17813
1029.80226,0.17116
1031.73073,0.15719
1033.65920,0.15194
1035.58767,0.15934
1037.51614,0.16749
1039.44461,0.16516
1041.37308,0.15964
1043.30154,0.15913
1045.23001,0.15678
1047.15848,0.15059
1049.08695,0.14980
1051.01542,0.15671
1052.94389,0.16161
1054.87236,0.15783
1056.80083,0.14689
1058.72929,0.13703
1060.65776,0.14060
1062.58623,0.15522
1064.51470,0.16822
1066.44317,0.17159
1068.37164,0.16652
1070.30011,0.16385
1072.22857,0.16383
1074.15704,0.16185
1076.08551,0.16439
1078.01398,0.16886
1079.94245,0.16988
1081.87092,0.17104
1083.79939,0.17018
1085.72786,0.16548
1087.65632,0.15989
1089.58479,0.15484
1091.51326,0.15330
1093.44173,0.15712
1095.37020,0.16209
1097.29867,0.16113
1099.22714,0.15539
1101.15560,0.15403
1103.08407,0.15975
1105.01254,0.16411
1106.94101,0.16369
1108.86948,0.16867
1110.79795,0.17985
1112.72642,0.18299
1114.65489,0.17472
1116.58335,0.16453
1118.51182,0.16062
1120.44029,0.16388
1122.36876,0.16819
1124.29723,0.16984
1126.22570,0.16871
1128.15417,0.16239
1130.08263,0.15278
1132.01110,0.14877
1133.93957,0.15355
1135.86804,0.16098
1137.79651,0.16285
1139.72498,0.15728
1141.65345,0.15136
1143.58191,0.15037
1145.51038,0.15571
1147.43885,0.16583
1149.36732,0.17327
1151.29579,0.17197
1153.22426,0.16321
1155.15273,0.15599
1157.08120,0.15718
1159.00966,0.16350
1160.93813,0.16922
1162.86660,0.17141
1164.79507,0.16952
1166.72354,0.16570
1168.65201,0.16576
1170.58048,0.17291
1172.50894,0.18066
1174.43741,0.17882
1176.36588,0.16948
1178.29435,0.16345
1180.22282,0.16120
1182.15129,0.15910
1184.07976,0.16048
1186.00823,0.16423
1187.93669,0.16470
1189.86516,0.16587
1191.79363,0.16998
1193.72210,0.17138
1195.65057,0.17194
1197.57904,0.17247
1199.50751,0.16815
1201.43597,0.16204
1203.36444,0.16033
1205.29291,0.16284
1207.22138,0.16603
1209.14985,0.16596
1211.07832,0.16141
1213.00679,0.15949
1214.93526,0.16377
1216.86372,0.16750
1218.79219,0.16747
1220.72066,0.16554
1222.64913,0.16397
1224.57760,0.16665
1226.50607,0.17245
1228.43454,0.17369
1230.36300,0.17078
1232.29147,0.16980
1234.21994,0.16996
1236.14841,0.16885
1238.07688,0.16791
1240.00535,0.16840
1241.93382,0.16840
1243.86229,0.16745
1245.79075,0.16611
1247.71922,0.16262
1249.64769,0.15830
1251.57616,0.15669
1253.50463,0.15928
1255.43310,0.16279
1257.36157,0.16198
1259.29003,0.15941
1261.21850,0.16105
1263.14697,0.16533
1265.07544,0.16673
1267.00391,0.16463
1268.93238,0.16377
1270.86085,0.16662
1272.78932,0.16908
1274.71778,0.16775
1276.64625,0.16768
1278.57472,0.17072
1280.50319,0.16989
1282.43166,0.16822
1284.36013,0.17403
1286.28860,0.18106
1288.21706,0.18211
1290.14553,0.18144
1292.07400,0.18172
1294.00247,0.17967
1295.93094,0.17492
1297.85941,0.17097
1299.78788,0.16823
1301.71634,0.16047
1303.64481,0.14629
1305.57328,0.14080
1307.50175,0.15240
1309.43022,0.16690
1311.35869,0.17204
1313.28716,0.17075
1315.21563,0.16992
1317.14409,0.17034
1319.07256,0.16896
1321.00103,0.16579
1322.92950,0.16413
1324.85797,0.16527
1326.78644,0.16770
1328.71491,0.17084
1330.64337,0.17244
1332.57184,0.17088
1334.50031,0.16829
1336.42878,0.16699
1338.35725,0.16709
1340.28572,0.16480
1342.21419,0.16648
1344.14266,0.17502
1346.07112,0.17638
1347.99959,0.17111
1349.92806,0.17064
1351.85653,0.17133
1353.78500,0.16812
1355.71347,0.16466
1357.64194,0.16690
1359.57040,0.17556
1361.49887,0.18468
1363.42734,0.18599
1365.35581,0.18085
1367.28428,0.17602
1369.21275,0.17316
1371.14122,0.17416
1373.06969,0.17972
1374.99815,0.18565
1376.92662,0.18711
1378.85509,0.18566
1380.78356,0.18263
1382.71203,0.18091
1384.64050,0.18466
1386.56897,0.18759
1388.49743,0.18324
1390.42590,0.18031
1392.35437,0.18511
1394.28284,0.19389
1396.21131,0.19781
1398.13978,0.19615
1400.06825,0.19111
1401.99672,0.18699
1403.92518,0.18844
1405.85365,0.18779
1407.78212,0.18238
1409.71059,0.18151
1411.63906,0.18421
1413.56753,0.18618
1415.49600,0.19107
1417.42446,0.20008
1419.35293,0.20212
1421.28140,0.19556
1423.20987,0.19181
1425.13834,0.18768
1427.06681,0.18250
1428.99528,0.18099
1430.92375,0.18056
1432.85221,0.18104
1434.78068,0.18868
1436.70915,0.19666
1438.63762,0.19323
1440.56609,0.19033
1442.49456,0.18992
1444.42303,0.18776
1446.35149,0.18756
1448.27996,0.19054
1450.20843,0.19390
1452.13690,0.19806
1454.06537,0.20751
1455.99384,0.22592
1457.92231,0.22998
1459.85077,0.20985
1461.77924,0.19854
1463.70771,0.19765
1465.63618,0.19552
1467.56465,0.18956
1469.49312,0.19075
1471.42159,0.20186
1473.35006,0.20808
1475.27852,0.19989
1477.20699,0.19264
1479.13546,0.19217
1481.06393,0.19496
1482.99240,0.19480
1484.92087,0.19329
1486.84934,0.19844
1488.77780,0.20945
1490.70627,0.20809
1492.63474,0.19799
1494.56321,0.19690
1496.49168,0.20390
1498.42015,0.20496
1500.34862,0.20022
1502.27709,0.19963
1504.20555,0.20724
1506.13402,0.22618
1508.06249,0.23080
1509.99096,0.21576
1511.91943,0.20777
1513.84790,0.21073
1515.77637,0.22174
1517.70483,0.23071
1519.63330,0.23710
1521.56177,0.24043
1523.49024,0.23165
1525.41871,0.22427
1527.34718,0.21687
1529.27565,0.20630
1531.20412,0.20366
1533.13258,0.20883
1535.06105,0.21056
1536.98952,0.21386
1538.91799,0.22510
1540.84646,0.23234
1542.77493,0.22653
1544.70340,0.21339
1546.63186,0.20023
1548.56033,0.19543
1550.48880,0.19585
1552.41727,0.19954
1554.34574,0.20967
1556.27421,0.22435
1558.20268,0.23571
1560.13115,0.21897
1562.05961,0.20117
1563.98808,0.19450
1565.91655,0.19524
1567.84502,0.20365
1569.77349,0.20756
1571.70196,0.19942
1573.63043,0.19690
1575.55889,0.20216
1577.48736,0.19860
1579.41583,0.18837
1581.34430,0.18295
1583.27277,0.18066
1585.20124,0.17851
1587.12971,0.17847
1589.05818,0.18024
1590.98664,0.18090
1592.91511,0.18092
1594.84358,0.17980
1596.77205,0.17748
1598.70052,0.17888
1600.62899,0.18366
1602.55746,0.18577
1604.48592,0.18470
1606.41439,0.18396
1608.34286,0.18385
1610.27133,0.18379
1612.19980,0.18701
1614.12827,0.19729
1616.05674,0.21056
1617.98521,0.21224
1619.91367,0.20874
1621.84214,0.20802
1623.77061,0.20229
1625.69908,0.19460
1627.62755,0.19186
1629.55602,0.19210
1631.48449,0.19656
1633.41295,0.20659
1635.34142,0.21543
1637.26989,0.21006
1639.19836,0.20249
1641.12683,0.20076
1643.05530,0.20636
1644.98377,0.22113
1646.91223,0.23378
1648.84070,0.22918
1650.76917,0.23206
1652.69764,0.25561
1654.62611,0.24822
1656.55458,0.21681
1658.48305,0.20078
1660.41152,0.20026
1662.33998,0.20591
1664.26845,0.20421
1666.19692,0.20197
1668.12539,0.21068
1670.05386,0.22056
1671.98233,0.21538
1673.91080,0.20800
1675.83926,0.20588
1677.76773,0.20766
1679.69620,0.21402
1681.62467,0.22891
1683.55314,0.24731
1685.48161,0.23646
1687.41008,0.21633
1689.33855,0.20888
1691.26701,0.20662
1693.19548,0.20850
1695.12395,0.21606
1697.05242,0.22452
1698.98089,0.22971
1700.90936,0.22460
1702.83783,0.21570
1704.76629,0.21162
1706.69476,0.20516
1708.62323,0.19823
1710.55170,0.19729
1712.48017,0.20109
1714.40864,0.20837
1716.33711,0.21745
1718.26558,0.21333
1720.19404,0.19871
1722.12251,0.19063
1724.05098,0.18914
1725.97945,0.19090
1727.90792,0.19745
1729.83639,0.20665
1731.76486,0.21250
1733.69332,0.21219
1735.62179,0.20453
1737.55026,0.20015
1739.47873,0.20126
1741.40720,0.20330
1743.33567,0.20529
1745.26414,0.20909
1747.19261,0.21469
1749.12107,0.21600
1751.04954,0.20696
1752.97801,0.19895
1754.90648,0.19838
1756.83495,0.19914
1758.76342,0.19934
1760.69189,0.20182
1762.62035,0.20050
1764.54882,0.19399
1766.47729,0.19274
1768.40576,0.19914
1770.33423,0.20798
1772.26270,0.21106
1774.19117,0.20330
1776.11964,0.19683
1778.04810,0.19818
1779.97657,0.20245
1781.90504,0.20081
1783.83351,0.19478
1785.76198,0.19108
1787.69045,0.19068
1789.61892,0.19543
1791.54738,0.20511
1793.47585,0.20894
1795.40432,0.20373
1797.33279,0.19806
1799.26126,0.19638
1801.18973,0.19398
1803.11820,0.18742
1805.04666,0.18375
1806.97513,0.18587
1808.90360,0.19081
1810.83207,0.19469
1812.76054,0.19579
1814.68901,0.19456
1816.61748,0.18636
1818.54595,0.17189
1820.47441,0.16707
1822.40288,0.17887
1824.33135,0.19299
1826.25982,0.19839
1828.18829,0.20209
1830.11676,0.20352
1832.04523,0.19875
1833.97369,0.19532
1835.90216,0.19514
1837.83063,0.19570
1839.75910,0.19614
1841.68757,0.19817
1843.61604,0.20155
1845.54451,0.20065
1847.47298,0.19541
1849.40144,0.19008
1851.32991,0.18624
1853.25838,0.18513
1855.18685,0.18618
1857.11532,0.18704
1859.04379,0.18714
1860.97226,0.18708
1862.90072,0.18754
1864.82919,0.19132
1866.75766,0.19967
1868.68613,0.20391
1870.61460,0.19589
1872.54307,0.18597
1874.47154,0.18277
1876.40001,0.18560
1878.32847,0.18896
1880.25694,0.18898
1882.18541,0.18769
1884.11388,0.18838
1886.04235,0.19043
1887.97082,0.19288
1889.89929,0.19378
1891.82775,0.19139
1893.75622,0.19059
1895.68469,0.19214
1897.61316,0.19054
1899.54163,0.18567
1901.47010,0.18278
1903.39857,0.18404
1905.32704,0.18597
1907.25550,0.18571
1909.18397,0.18480
1911.11244,0.18652
1913.04091,0.18915
1914.96938,0.18928
1916.89785,0.18790
1918.82632,0.18710
1920.75478,0.18938
1922.68325,0.19269
1924.61172,0.19141
1926.54019,0.18869
1928.46866,0.18882
1930.39713,0.18909
1932.32560,0.18767
1934.25407,0.18570
1936.18253,0.18484
1938.11100,0.18695
1940.03947,0.19081
1941.96794,0.19249
1943.89641,0.19106
1945.82488,0.18885
1947.75335,0.18685
1949.68181,0.18572
1951.61028,0.18503
1953.53875,0.18438
1955.46722,0.18514
1957.39569,0.18706
1959.32416,0.18887
1961.25263,0.18922
1963.18110,0.18880
1965.10956,0.19152
1967.03803,0.19391
1968.96650,0.19056
1970.89497,0.18840
1972.82344,0.19121
1974.75191,0.19528
1976.68038,0.19822
1978.60884,0.19575
1980.53731,0.18888
1982.46578,0.18592
1984.39425,0.18851
1986.32272,0.19214
1988.25119,0.19495
1990.17966,0.19777
1992.10812,0.19844
1994.03659,0.19500
1995.96506,0.19126
1997.89353,0.19020
1999.82200,0.19159
2001.75047,0.19423
2003.67894,0.19517
2005.60741,0.19312
2007.53587,0.19052
2009.46434,0.18791
2011.39281,0.18646
2013.32128,0.18978
2015.24975,0.19515
2017.17822,0.19551
2019.10669,0.19094
2021.03515,0.18725
2022.96362,0.18655
2024.89209,0.18673
2026.82056,0.18638
2028.74903,0.18662
2030.67750,0.18753
2032.60597,0.18777
2034.53444,0.18850
2036.46290,0.19115
2038.39137,0.19371
2040.31984,0.19399
2042.24831,0.19332
2044.17678,0.19400
2046.10525,0.19541
2048.03372,0.19433
2049.96218,0.19061
2051.89065,0.18761
2053.81912,0.18646
2055.74759,0.18751
2057.67606,0.18952
2059.60453,0.18893
2061.53300,0.18727
2063.46147,0.18761
2065.38993,0.18831
2067.31840,0.18835
2069.24687,0.18874
2071.17534,0.18871
2073.10381,0.18744
2075.03228,0.18674
2076.96075,0.18755
2078.88921,0.18757
2080.81768,0.18723
2082.74615,0.18750
2084.67462,0.18696
2086.60309,0.18769
2088.53156,0.19104
2090.46003,0.19412
2092.38850,0.19411
2094.31696,0.19141
2096.24543,0.18977
2098.17390,0.18958
2100.10237,0.18855
2102.03084,0.18919
2103.95931,0.19319
2105.88778,0.19553
2107.81624,0.19395
2109.74471,0.19218
2111.67318,0.19092
2113.60165,0.18958
2115.53012,0.18914
2117.45859,0.18870
2119.38706,0.18834
2121.31553,0.18865
2123.24399,0.18796
2125.17246,0.18646
2127.10093,0.18596
2129.02940,0.18729
2130.95787,0.18928
2132.88634,0.18835
2134.81481,0.18514
2136.74327,0.18601
2138.67174,0.19090
2140.60021,0.19213
2142.52868,0.18866
2144.45715,0.18598
2146.38562,0.18649
2148.31409,0.18864
2150.24255,0.18937
2152.17102,0.18839
2154.09949,0.18802
2156.02796,0.18933
2157.95643,0.19112
2159.88490,0.19081
2161.81337,0.19030
2163.74184,0.19232
2165.67030,0.19321
2167.59877,0.19111
2169.52724,0.18861
2171.45571,0.18781
2173.38418,0.18955
2175.31265,0.19274
2177.24112,0.19532
2179.16958,0.19668
2181.09805,0.19668
2183.02652,0.19395
2184.95499,0.18972
2186.88346,0.18794
2188.81193,0.18920
2190.74040,0.19121
2192.66887,0.19215
2194.59733,0.19030
2196.52580,0.18593
2198.45427,0.18316
2200.38274,0.18436
2202.31121,0.18758
2204.23968,0.19122
2206.16815,0.19412
2208.09661,0.19366
2210.02508,0.18979
2211.95355,0.18592
2213.88202,0.18492
2215.81049,0.18702
2217.73896,0.18905
2219.66743,0.18982
2221.59590,0.19060
2223.52436,0.18923
2225.45283,0.18758
2227.38130,0.19037
2229.30977,0.19359
2231.23824,0.19207
2233.16671,0.18877
2235.09518,0.18842
2237.02364,0.19139
2238.95211,0.19408
2240.88058,0.19299
2242.80905,0.18971
2244.73752,0.18812
2246.66599,0.18840
2248.59446,0.18882
2250.52293,0.18967
2252.45139,0.19123
2254.37986,0.19168
2256.30833,0.19010
2258.23680,0.18965
2260.16527,0.19229
2262.09374,0.19297
2264.02221,0.18990
2265.95067,0.18935
2267.87914,0.19227
2269.80761,0.19421
2271.73608,0.19454
2273.66455,0.19349
2275.59302,0.19026
2277.52149,0.18669
2279.44996,0.18586
2281.37842,0.18725
2283.30689,0.18793
2285.23536,0.18905
2287.16383,0.19229
2289.09230,0.19303
2291.02077,0.18835
2292.94924,0.18352
2294.87770,0.18333
2296.80617,0.18554
2298.73464,0.18728
2300.66311,0.18973
2302.59158,0.19186
2304.52005,0.19185
2306.44852,0.19280
2308.37699,0.19602
2310.30545,0.19799
2312.23392,0.19750
2314.16239,0.19605
2316.09086,0.19399
2318.01933,0.19143
2319.94780,0.19104
2321.87627,0.19718
2323.80473,0.20531
2325.73320,0.20252
2327.66167,0.19239
2329.59014,0.19142
2331.51861,0.19747
2333.44708,0.20228
2335.37555,0.21419
2337.30401,0.22786
2339.23248,0.22603
2341.16095,0.21422
2343.08942,0.20535
2345.01789,0.19899
2346.94636,0.19459
2348.87483,0.19527
2350.80330,0.20224
2352.73176,0.20984
2354.66023,0.20452
2356.58870,0.18602
2358.51717,0.17137
2360.44564,0.17147
2362.37411,0.18253
2364.30258,0.20116
2366.23104,0.21715
2368.15951,0.21483
2370.08798,0.20731
2372.01645,0.21234
2373.94492,0.21790
2375.87339,0.21091
2377.80186,0.19794
2379.73033,0.18858
2381.65879,0.18613
2383.58726,0.18910
2385.51573,0.19267
2387.44420,0.19320
2389.37267,0.19277
2391.30114,0.19375
2393.22961,0.19319
2395.15807,0.19049
2397.08654,0.18835
2399.01501,0.18689
2400.94348,0.18639
2402.87195,0.18712
2404.80042,0.18726
2406.72889,0.18739
2408.65736,0.18869
2410.58582,0.18988
2412.51429,0.19100
2414.44276,0.19187
2416.37123,0.19098
2418.29970,0.18852
2420.22817,0.18766
2422.15664,0.19014
2424.08510,0.19189
2426.01357,0.19106
2427.94204,0.19070
2429.87051,0.19226
2431.79898,0.19436
2433.72745,0.19394
2435.65592,0.19061
2437.58439,0.18826
2439.51285,0.18965
2441.44132,0.19246
2443.36979,0.19294
2445.29826,0.19158
2447.22673,0.19048
2449.15520,0.19001
2451.08367,0.18975
2453.01213,0.18845
2454.94060,0.18697
2456.86907,0.18780
2458.79754,0.19020
2460.72601,0.19316
2462.65448,0.19566
2464.58295,0.19460
2466.51142,0.19029
2468.43988,0.18704
2470.36835,0.18699
2472.29682,0.18804
2474.22529,0.18802
2476.15376,0.18858
2478.08223,0.19069
2480.01070,0.19179
2481.93916,0.19235
2483.86763,0.19484
2485.79610,0.19727
2487.72457,0.19607
2489.65304,0.19128
2491.58151,0.18717
2493.50998,0.18858
2495.43844,0.19486
2497.36691,0.19925
2499.29538,0.19752
2501.22385,0.19338
2503.15232,0.19208
2505.08079,0.19256
2507.00926,0.19112
2508.93773,0.18848
2510.86619,0.18716
2512.79466,0.18759
2514.72313,0.18895
2516.65160,0.18995
2518.58007,0.18918
2520.50854,0.18754
2522.43701,0.18866
2524.36547,0.19183
2526.29394,0.19274
2528.22241,0.19187
2530.15088,0.19220
2532.07935,0.19365
2534.00782,0.19444
2535.93629,0.19425
2537.86476,0.19403
2539.79322,0.19423
2541.72169,0.19463
2543.65016,0.19454
2545.57863,0.19356
2547.50710,0.19301
2549.43557,0.19349
2551.36404,0.19394
2553.29250,0.19333
2555.22097,0.19094
2557.14944,0.18931
2559.07791,0.19042
2561.00638,0.19229
2562.93485,0.19374
2564.86332,0.19389
2566.79179,0.19267
2568.72025,0.19273
2570.64872,0.19393
2572.57719,0.19335
2574.50566,0.19231
2576.43413,0.19371
2578.36260,0.19493
2580.29107,0.19336
2582.21953,0.19159
2584.14800,0.19077
2586.07647,0.19042
2588.00494,0.19154
2589.93341,0.19338
2591.86188,0.19370
2593.79035,0.19312
2595.71882,0.19356
2597.64728,0.19371
2599.57575,0.19286
2601.50422,0.19237
2603.43269,0.19226
2605.36116,0.19326
2607.28963,0.19499
2609.21810,0.19528
2611.14656,0.19509
2613.07503,0.19587
2615.00350,0.19612
2616.93197,0.19519
2618.86044,0.19481
2620.78891,0.19661
2622.71738,0.19932
2624.64585,0.20054
2626.57431,0.20014
2628.50278,0.19717
2630.43125,0.19287
2632.35972,0.19171
2634.28819,0.19352
2636.21666,0.19551
2638.14513,0.19624
2640.07359,0.19435
2642.00206,0.19179
2643.93053,0.19319
2645.85900,0.19718
2647.78747,0.19872
2649.71594,0.19731
2651.64441,0.19502
2653.57288,0.19382
2655.50134,0.19473
2657.42981,0.19665
2659.35828,0.19754
2661.28675,0.19685
2663.21522,0.19531
2665.14369,0.19409
2667.07216,0.19459
2669.00062,0.19573
2670.92909,0.19639
2672.85756,0.19785
2674.78603,0.19890
2676.71450,0.19771
2678.64297,0.19734
2680.57144,0.19970
2682.49990,0.20114
2684.42837,0.20038
2686.35684,0.19982
2688.28531,0.19928
2690.21378,0.19606
2692.14225,0.19112
2694.07072,0.19059
2695.99919,0.19655
2697.92765,0.20347
2699.85612,0.20610
2701.78459,0.20394
2703.71306,0.19921
2705.64153,0.19517
2707.57000,0.19483
2709.49847,0.19830
2711.42693,0.20172
2713.35540,0.20059
2715.28387,0.19753
2717.21234,0.19720
2719.14081,0.19743
2721.06928,0.19632
2722.99775,0.19571
2724.92622,0.19787
2726.85468,0.20072
2728.78315,0.20047
2730.71162,0.20063
2732.64009,0.20323
2734.56856,0.20310
2736.49703,0.19915
2738.42550,0.19656
2740.35396,0.19938
2742.28243,0.20613
2744.21090,0.21016
2746.13937,0.20804
2748.06784,0.20269
2749.99631,0.19836
2751.92478,0.19782
2753.85325,0.19968
2755.78171,0.20254
2757.71018,0.20505
2759.63865,0.20318
2761.56712,0.20056
2763.49559,0.20149
2765.42406,0.20091
2767.35253,0.19867
2769.28099,0.19906
2771.20946,0.20081
2773.13793,0.20234
2775.06640,0.20348
2776.99487,0.20546
2778.92334,0.20753
2780.85181,0.20559
2782.78028,0.20227
2784.70874,0.20348
2786.63721,0.20764
2788.56568,0.21037
2790.49415,0.21208
2792.42262,0.21322
2794.35109,0.21154
2796.27956,0.20768
2798.20802,0.20310
2800.13649,0.19824
2802.06496,0.19723
2803.99343,0.20170
2805.92190,0.20364
2807.85037,0.20183
2809.77884,0.20472
2811.70731,0.21031
2813.63577,0.21036
2815.56424,0.20558
2817.49271,0.20342
2819.42118,0.20508
2821.34965,0.20438
2823.27812,0.20029
2825.20659,0.19811
2827.13505,0.20082
2829.06352,0.20528
2830.99199,0.20710
2832.92046,0.20604
2834.84893,0.20485
2836.77740,0.20416
2838.70587,0.20403
2840.63433,0.20540
2842.56280,0.20567
2844.49127,0.20409
2846.41974,0.20345
2848.34821,0.20347
2850.27668,0.20300
2852.20515,0.20411
2854.13362,0.20720
2856.06208,0.20873
2857.99055,0.20926
2859.91902,0.21102
2861.84749,0.21172
2863.77596,0.20924
2865.70443,0.20528
2867.63290,0.20351
2869.56136,0.20536
2871.48983,0.20935
2873.41830,0.21201
2875.34677,0.21096
2877.27524,0.20903
2879.20371,0.20827
2881.13218,0.20575
2883.06065,0.20095
2884.98911,0.19760
2886.91758,0.19870
2888.84605,0.20337
2890.77452,0.20767
2892.70299,0.20917
2894.63146,0.20746
2896.55993,0.20526
2898.48839,0.20556
2900.41686,0.20604
2902.34533,0.20505
2904.27380,0.20388
2906.20227,0.20321
2908.13074,0.20238
2910.05921,0.20032
2911.98768,0.20010
2913.91614,0.20140
2915.84461,0.19861
2917.77308,0.19556
2919.70155,0.19940
2921.63002,0.20558
2923.55849,0.20324
2925.48696,0.19260
2927.41542,0.18792
2929.34389,0.19418
2931.27236,0.20102
2933.20083,0.20340
2935.12930,0.20258
2937.05777,0.19760
2938.98624,0.19584
2940.91471,0.20217
2942.84317,0.20546
2944.77164,0.20169
2946.70011,0.19854
2948.62858,0.19990
2950.55705,0.20351
2952.48552,0.20551
2954.41399,0.20358
2956.34245,0.19753
2958.27092,0.19362
2960.19939,0.19743
2962.12786,0.20383
2964.05633,0.20552
2965.98480,0.20336
2967.91327,0.20383
2969.84174,0.21005
2971.77020,0.21570
2973.69867,0.21468
2975.62714,0.20839
2977.55561,0.20128
2979.48408,0.20174
2981.41255,0.20935
2983.34102,0.21419
2985.26948,0.21408
2987.19795,0.21064
2989.12642,0.20631
2991.05489,0.20499
2992.98336,0.20825
2994.91183,0.21312
2996.84030,0.21407
2998.76877,0.21142
3000.69723,0.20943
3002.62570,0.21110
3004.55417,0.21522
3006.48264,0.21632
3008.41111,0.21303
3010.33958,0.20684
3012.26805,0.19470
3014.19651,0.17356
3016.12498,0.15323
3018.05345,0.15607
3019.98192,0.18423
3021.91039,0.20928
3023.83886,0.21527
3025.76733,0.21250
3027.69579,0.21250
3029.62426,0.21570
3031.55273,0.21601
3033.48120,0.21305
3035.40967,0.21139
3037.33814,0.21184
3039.26661,0.21515
3041.19508,0.21978
3043.12354,0.21957
3045.05201,0.21367
3046.98048,0.20890
3048.90895,0.21199
3050.83742,0.22037
3052.76589,0.22366
3054.69436,0.21770
3056.62282,0.20886
3058.55129,0.20678
3060.47976,0.21080
3062.40823,0.21142
3064.33670,0.20631
3066.26517,0.20052
3068.19364,0.20047
3070.12211,0.20617
3072.05057,0.20897
3073.97904,0.20420
3075.90751,0.19778
3077.83598,0.20010
3079.76445,0.20907
3081.69292,0.21093
3083.62139,0.20147
3085.54985,0.19412
3087.47832,0.20206
3089.40679,0.21440
3091.33526,0.21502
3093.26373,0.20549
3095.19220,0.19822
3097.12067,0.20261
3099.04914,0.21250
3100.97760,0.21444
3102.90607,0.20424
3104.83454,0.19723
3106.76301,0.20343
3108.69148,0.21039
3110.61995,0.20985
3112.54842,0.20319
3114.47688,0.19796
3116.40535,0.20100
3118.33382,0.20681
3120.26229,0.20764
3122.19076,0.20482
3124.11923,0.20821
3126.04770,0.21775
3127.97617,0.22235
3129.90463,0.22016
3131.83310,0.21605
3133.76157,0.21310
3135.69004,0.21689
3137.61851,0.22573
3139.54698,0.22696
3141.47545,0.22019
3143.40391,0.21480
3145.33238,0.21251
3147.26085,0.21179
3149.18932,0.21193
3151.11779,0.21536
3153.04626,0.22129
3154.97473,0.22099
3156.90320,0.21377
3158.83166,0.20926
3160.76013,0.21017
3162.68860,0.21107
3164.61707,0.21130
3166.54554,0.21307
3168.47401,0.21452
3170.40248,0.21589
3172.33094,0.21816
3174.25941,0.21800
3176.18788,0.21579
3178.11635,0.21762
3180.04482,0.22498
3181.97329,0.22939
3183.90176,0.22624
3185.83022,0.22321
3187.75869,0.22276
3189.68716,0.22070
3191.61563,0.21842
3193.54410,0.21672
3195.47257,0.21665
3197.40104,0.21911
3199.32951,0.21874
3201.25797,0.21596
3203.18644,0.21593
3205.11491,0.21655
3207.04338,0.21686
3208.97185,0.21881
3210.90032,0.22172
3212.82879,0.22424
3214.75725,0.22188
3216.68572,0.21552
3218.61419,0.21370
3220.54266,0.21793
3222.47113,0.22190
3224.39960,0.21842
3226.32807,0.21098
3228.25654,0.21036
3230.18500,0.21626
3232.11347,0.22015
3234.04194,0.21797
3235.97041,0.21411
3237.89888,0.21317
3239.82735,0.21324
3241.75582,0.21275
3243.68428,0.21347
3245.61275,0.21463
3247.54122,0.21268
3249.46969,0.20725
3251.39816,0.20446
3253.32663,0.20704
3255.25510,0.20812
3257.18357,0.20709
3259.11203,0.20776
3261.04050,0.20890
3262.96897,0.21175
3264.89744,0.21442
3266.82591,0.21274
3268.75438,0.21186
3270.68285,0.21519
3272.61131,0.21654
3274.53978,0.21497
3276.46825,0.21395
3278.39672,0.21062
3280.32519,0.20263
3282.25366,0.19580
3284.18213,0.19767
3286.11060,0.20330
3288.03906,0.20636
3289.96753,0.20941
3291.89600,0.21026
3293.82447,0.20880
3295.75294,0.21123
3297.68141,0.21868
3299.60988,0.22378
3301.53834,0.21988
3303.46681,0.21329
3305.39528,0.21031
3307.32375,0.20863
3309.25222,0.20705
3311.18069,0.20275
3313.10916,0.19663
3315.03763,0.19837
3316.96609,0.20737
3318.89456,0.21379
3320.82303,0.21553
3322.75150,0.21406
3324.67997,0.21085
3326.60844,0.20782
3328.53691,0.20679
3330.46537,0.21027
3332.39384,0.21545
3334.32231,0.21590
3336.25078,0.21350
3338.17925,0.21627
3340.10772,0.22149
3342.03619,0.22078
3343.96466,0.21767
3345.89312,0.21780
3347.82159,0.21795
3349.75006,0.21651
3351.67853,0.21540
3353.60700,0.21420
3355.53547,0.21231
3357.46394,0.21015
3359.39240,0.20868
3361.32087,0.20766
3363.24934,0.20839
3365.17781,0.21134
3367.10628,0.21430
3369.03475,0.21797
3370.96322,0.21794
3372.89168,0.21319
3374.82015,0.21260
3376.74862,0.21412
3378.67709,0.21177
3380.60556,0.21189
3382.53403,0.21865
3384.46250,0.22249
3386.39097,0.21762
3388.31943,0.21435
3390.24790,0.21928
3392.17637,0.22342
3394.10484,0.22149
3396.03331,0.21858
3397.96178,0.21544
3399.89025,0.21086
3401.81871,0.20794
3403.74718,0.20793
3405.67565,0.20990
3407.60412,0.21612
3409.53259,0.22183
3411.46106,0.21746
3413.38953,0.21007
3415.31800,0.21092
3417.24646,0.21584
3419.17493,0.21696
3421.10340,0.21475
3423.03187,0.21026
3424.96034,0.20395
3426.88881,0.19908
3428.81728,0.19709
3430.74574,0.20134
3432.67421,0.21024
3434.60268,0.21324
3436.53115,0.21141
3438.45962,0.21216
3440.38809,0.21344
3442.31656,0.21395
3444.24503,0.21221
3446.17349,0.20597
3448.10196,0.20125
3450.03043,0.20011
3451.95890,0.19913
3453.88737,0.19852
3455.81584,0.19615
3457.74431,0.19166
3459.67277,0.19135
3461.60124,0.19538
3463.52971,0.19641
3465.45818,0.19248
3467.38665,0.18948
3469.31512,0.19209
3471.24359,0.19568
3473.17206,0.19683
3475.10052,0.19827
3477.02899,0.19856
3478.95746,0.19863
3480.88593,0.20180
3482.81440,0.20101
3484.74287,0.19506
3486.67134,0.19315
3488.59980,0.19474
3490.52827,0.19404
3492.45674,0.19095
3494.38521,0.18950
3496.31368,0.18973
3498.24215,0.18834
3500.17062,0.18581
3502.09909,0.18368
3504.02755,0.18307
3505.95602,0.18272
3507.88449,0.18227
3509.81296,0.18139
3511.74143,0.17916
3513.66990,0.17980
3515.59837,0.18319
3517.52683,0.18227
3519.45530,0.17804
3521.38377,0.17959
3523.31224,0.18476
3525.24071,0.18547
3527.16918,0.18264
3529.09765,0.17740
3531.02611,0.17086
3532.95458,0.16771
3534.88305,0.17156
3536.81152,0.17799
3538.73999,0.17628
3540.66846,0.16995
3542.59693,0.17326
3544.52540,0.18528
3546.45386,0.19182
3548.38233,0.18996
3550.31080,0.18613
3552.23927,0.18028
3554.16774,0.17241
3556.09621,0.16840
3558.02468,0.16996
3559.95314,0.17284
3561.88161,0.17133
3563.81008,0.16891
3565.73855,0.17621
3567.66702,0.18635
3569.59549,0.18339
3571.52396,0.17315
3573.45243,0.16267
3575.38089,0.15570
3577.30936,0.15410
3579.23783,0.15522
3581.16630,0.15547
3583.09477,0.15674
3585.02324,0.16323
3586.95171,0.17301
3588.88017,0.17475
3590.80864,0.17130
3592.73711,0.17147
3594.66558,0.17053
3596.59405,0.16753
3598.52252,0.16733
3600.45099,0.16503
3602.37946,0.15913
3604.30792,0.15666
3606.23639,0.15818
3608.16486,0.15810
3610.09333,0.15793
3612.02180,0.16134
3613.95027,0.16149
3615.87874,0.15805
3617.80720,0.15972
3619.73567,0.16234
3621.66414,0.15607
3623.59261,0.14934
3625.52108,0.15051
3627.44955,0.15735
3629.37802,0.15837
3631.30649,0.14979
3633.23495,0.14140
3635.16342,0.13861
3637.09189,0.14364
3639.02036,0.15020
3640.94883,0.15216
3642.87730,0.15137
3644.80577,0.15204
3646.73423,0.15607
3648.66270,0.16373
3650.59117,0.16386
3652.51964,0.15469
3654.44811,0.14856
3656.37658,0.14476
3658.30505,0.14006
3660.23352,0.13759
3662.16198,0.13527
3664.09045,0.13209
3666.01892,0.13403
3667.94739,0.14624
3669.87586,0.16326
3671.80433,0.16950
3673.73280,0.17229
3675.66126,0.16909
3677.58973,0.15322
3679.51820,0.14143
3681.44667,0.13428
3683.37514,0.13177
3685.30361,0.13498
3687.23208,0.13954
3689.16055,0.14267
3691.08901,0.14362
3693.01748,0.13943
3694.94595,0.13492
3696.87442,0.13448
3698.80289,0.13682
3700.73136,0.14210
3702.65983,0.14645
3704.58829,0.14215
3706.51676,0.13588
3708.44523,0.13846
3710.37370,0.14954
3712.30217,0.14843
3714.23064,0.13123
3716.15911,0.11914
3718.08757,0.12008
3720.01604,0.12990
3721.94451,0.13856
3723.87298,0.14275
3725.80145,0.14396
3727.72992,0.14159
3729.65839,0.14113
3731.58686,0.14736
3733.51532,0.15545
3735.44379,0.15769
3737.37226,0.15172
3739.30073,0.14424
3741.22920,0.14526
3743.15767,0.15636
3745.08614,0.16240
3747.01460,0.15544
3748.94307,0.15012
3750.87154,0.14564
3752.80001,0.13610
3754.72848,0.13017
3756.65695,0.13231
3758.58542,0.13668
3760.51389,0.13570
3762.44235,0.13193
3764.37082,0.12956
3766.29929,0.12919
3768.22776,0.13255
3770.15623,0.13849
3772.08470,0.13759
3774.01317,0.13151
3775.94163,0.12930
3777.87010,0.13222
3779.79857,0.13416
3781.72704,0.13087
3783.65551,0.12808
3785.58398,0.12920
3787.51245,0.13007
3789.44092,0.12764
3791.36938,0.12277
3793.29785,0.11993
3795.22632,0.12306
3797.15479,0.12915
3799.08326,0.13590
3801.01173,0.14585
3802.94020,0.14691
3804.86866,0.13775
3806.79713,0.12870
3808.72560,0.12089
3810.65407,0.11752
3812.58254,0.12104
3814.51101,0.12912
3816.43948,0.13608
3818.36795,0.14147
3820.29641,0.14964
3822.22488,0.15204
3824.15335,0.14660
3826.08182,0.13922
3828.01029,0.13190
3829.93876,0.13023
3831.86723,0.13216
3833.79569,0.13308
3835.72416,0.13690
3837.65263,0.14641
3839.58110,0.14990
3841.50957,0.14326
3843.43804,0.13544
3845.36651,0.12826
3847.29498,0.12363
3849.22344,0.12577
3851.15191,0.13781
3853.08038,0.15415
3855.00885,0.15011
3856.93732,0.13978
3858.86579,0.13778
3860.79426,0.14254
3862.72272,0.14771
3864.65119,0.14311
3866.57966,0.13447
3868.50813,0.13277
3870.43660,0.13207
3872.36507,0.12767
3874.29354,0.12235
3876.22200,0.11606
3878.15047,0.11389
3880.07894,0.11748
3882.00741,0.12331
3883.93588,0.12920
3885.86435,0.13147
3887.79282,0.12899
3889.72129,0.12947
3891.64975,0.13228
3893.57822,0.12755
3895.50669,0.11974
3897.43516,0.11686
3899.36363,0.11933
3901.29210,0.12355
3903.22057,0.12756
3905.14903,0.13031
3907.07750,0.13057
3909.00597,0.13054
3910.93444,0.12660
3912.86291,0.12040
3914.79138,0.12001
3916.71985,0.11987
3918.64832,0.11562
3920.57678,0.11361
3922.50525,0.11260
3924.43372,0.11163
3926.36219,0.11129
3928.29066,0.11025
3930.21913,0.11418
3932.14760,0.12252
3934.07606,0.12267
3936.00453,0.11907
3937.93300,0.11965
3939.86147,0.12097
3941.78994,0.12095
3943.71841,0.11851
3945.64688,0.11465
3947.57535,0.11257
3949.50381,0.10795
3951.43228,0.09892
3953.36075,0.09642
3955.28922,0.10442
3957.21769,0.11284
3959.14616,0.11387
3961.07463,0.11153
3963.00309,0.11090
3964.93156,0.11024
3966.86003,0.10959
3968.78850,0.11085
3970.71697,0.11091
3972.64544,0.10754
3974.57391,0.10371
3976.50238,0.10079
3978.43084,0.09987
3980.35931,0.10227
3982.28778,0.10277
3984.21625,0.10075
3986.14472,0.10185
3988.07319,0.10308
3990.00166,0.10134
3991.93012,0.09936
3993.85859,0.09652
3995.78706,0.09400
3997.71553,0.09465
3999.64400,0.09632
4001.57247,0.09905
4003.50094,0.10356
4005.42941,0.10542
4007.35787,0.10257
4009.28634,0.09978
4011.21481,0.10067
4013.14328,0.10406
4015.07175,0.10646
4017.00022,0.10224
4018.92869,0.09561
4020.85715,0.09622
4022.78562,0.10012
4024.71409,0.10114
4026.64256,0.09989
4028.57103,0.09872
4030.49950,0.10128
4032.42797,0.10664
4034.35644,0.10813
4036.28490,0.10356
4038.21337,0.09974
4040.14184,0.09951
4042.07031,0.09503
4043.99878,0.08816
4045.92725,0.09001
4047.85572,0.09429
4049.78418,0.09278
4051.71265,0.09404
4053.64112,0.09990
4055.56959,0.10083
4057.49806,0.09593
4059.42653,0.09287
4061.35500,0.09404
4063.28346,0.09708
4065.21193,0.09975
4067.14040,0.10089
4069.06887,0.10002
4070.99734,0.09699
4072.92581,0.09667
4074.85428,0.09982
4076.78275,0.09995
4078.71121,0.09716
4080.63968,0.09522
4082.56815,0.09379
4084.49662,0.09353
4086.42509,0.09627
4088.35356,0.09604
4090.28203,0.08770
4092.21049,0.08067
4094.13896,0.08275
4096.06743,0.08519
4097.99590,0.08316
4099.92437,0.08463
4101.85284,0.08829
4103.78131,0.08853
4105.70978,0.08901
4107.63824,0.09282
4109.56671,0.09699
4111.49518,0.09801
4113.42365,0.09672
4115.35212,0.09595
4117.28059,0.09800
4119.20906,0.09955
4121.13752,0.09470
4123.06599,0.08906
4124.99446,0.08951
4126.92293,0.09126
4128.85140,0.09052
4130.77987,0.08841
4132.70834,0.08401
4134.63681,0.07699
4136.56527,0.07364
4138.49374,0.08092
4140.42221,0.08971
4142.35068,0.08648
4144.27915,0.08076
4146.20762,0.08538
4148.13609,0.09230
4150.06455,0.09384
4151.99302,0.09296
4153.92149,0.09167
4155.84996,0.08991
4157.77843,0.08796
4159.70690,0.08700
4161.63537,0.08417
4163.56384,0.07950
4165.49230,0.08123
4167.42077,0.08786
4169.34924,0.08958
4171.27771,0.08476
4173.20618,0.08158
4175.13465,0.08601
4177.06312,0.08997
4178.99158,0.08649
4180.92005,0.08227
4182.84852,0.07979
4184.77699,0.07860
4186.70546,0.08216
4188.63393,0.08457
4190.56240,0.08174
4192.49087,0.08080
4194.41933,0.08428
4196.34780,0.08498
4198.27627,0.07844
4200.20474,0.07376
4202.13321,0.07461
4204.06168,0.07582
4205.99015,0.07832
4207.91861,0.07940
4209.84708,0.07659
4211.77555,0.07393
4213.70402,0.07402
4215.63249,0.07646
4217.56096,0.07785
4219.48943,0.07895
4221.41789,0.08186
4223.34636,0.08138
4225.27483,0.07758
4227.20330,0.07541
4229.13177,0.07297
4231.06024,0.07022
4232.98871,0.07117
4234.91718,0.07821
4236.84564,0.08703
4238.77411,0.09026
4240.70258,0.08929
4242.63105,0.08516
4244.55952,0.07879
4246.48799,0.07408
4248.41646,0.06973
4250.34492,0.06832
4252.27339,0.06902
4254.20186,0.06399
4256.13033,0.05704
4258.05880,0.05722
4259.98727,0.06212
4261.91574,0.06216
4263.84421,0.05679
4265.77267,0.05229
4267.70114,0.05161
4269.62961,0.05594
4271.55808,0.06190
4273.48655,0.06266
4275.41502,0.05797
4277.34349,0.05798
4279.27195,0.06848
4281.20042,0.07794
4283.12889,0.07757
4285.05736,0.07140
4286.98583,0.06158
4288.91430,0.05456
4290.84277,0.05763
4292.77124,0.06280
4294.69970,0.06017
4296.62817,0.05221
4298.55664,0.04573
4300.48511,0.04292
4302.41358,0.04607
4304.34205,0.05540
4306.27052,0.06254
4308.19898,0.06096
4310.12745,0.05265
4312.05592,0.04657
4313.98439,0.04862
4315.91286,0.05430
4317.84133,0.05870
4319.76980,0.06293
4321.69827,0.06693
4323.62673,0.06451
4325.55520,0.05700
4327.48367,0.05325
4329.41214,0.05189
4331.34061,0.05389
4333.26908,0.06388
4335.19755,0.06828
4337.12601,0.05951
4339.05448,0.05068
4340.98295,0.04569
4342.91142,0.04331
4344.83989,0.04694
4346.76836,0.05266
4348.69683,0.05561
4350.62530,0.05843
4352.55376,0.06098
4354.48223,0.05917
4356.41070,0.05506
4358.33917,0.04780
4360.26764,0.03645
4362.19611,0.02984
4364.12458,0.03317
4366.05304,0.04136
4367.98151,0.04564
4369.90998,0.04420
4371.83845,0.04147
4373.76692,0.03864
4375.69539,0.03601
4377.62386,0.03475
4379.55232,0.03410
4381.48079,0.03386
4383.40926,0.03725
4385.33773,0.04319
4387.26620,0.04737
4389.19467,0.05150
4391.12314,0.05297
4393.05161,0.04801
4394.98007,0.04394
4396.90854,0.04556
4398.83701,0.04813
4400.76548,0.04763
4402.69395,0.04684
4404.62242,0.04587
4406.55089,0.04324
4408.47935,0.04303
4410.40782,0.04271
4412.33629,0.04034
4414.26476,0.03877
4416.19323,0.03679
4418.12170,0.03459
4420.05017,0.03193
4421.97864,0.02915
4423.90710,0.02717
4425.83557,0.02586
4427.76404,0.02678
4429.69251,0.02746
4431.62098,0.02514
4433.54945,0.02600
4435.47792,0.03305
4437.40638,0.03499
4439.33485,0.02827
4441.26332,0.02619
4443.19179,0.03416
4445.12026,0.04269
4447.04873,0.04071
4448.97720,0.03041
4450.90567,0.02506
4452.83413,0.02572
4454.76260,0.02501
4456.69107,0.02827
4458.61954,0.03562
4460.54801,0.03322
4462.47648,0.02424
4464.40495,0.02527
4466.33341,0.03519
4468.26188,0.03833
4470.19035,0.02778
4472.11882,0.01569
4474.04729,0.01235
4475.97576,0.01059
4477.90423,0.00619
4479.83270,0.00773
4481.76116,0.01763
4483.68963,0.02752
4485.61810,0.02924
4487.54657,0.02176
4489.47504,0.01559
4491.40351,0.01773
4493.33198,0.01996
4495.26044,0.01963
4497.18891,0.02306
4499.11738,0.02445
4501.04585,0.01684
4502.97432,0.01065
4504.90279,0.01134
4506.83126,0.01088
4508.75973,0.01046
4510.68819,0.01764
4512.61666,0.02752
4514.54513,0.03030
4516.47360,0.02675
4518.40207,0.02043
4520.33054,0.01311
4522.25901,0.00724
4524.18747,0.00716
4526.11594,0.01502
4528.04441,0.02213
4529.97288,0.02400
4531.90135,0.02464
4533.82982,0.02483
4535.75829,0.02314
4537.68676,0.01509
4539.61522,0.00446
4541.54369,0.00284
4543.47216,0.00802
4545.40063,0.01435
4547.32910,0.02052
4549.25757,0.01749
4551.18604,0.00404
4553.11450,-0.00769
4555.04297,-0.01104
4556.97144,-0.00500
4558.89991,0.00874
4560.82838,0.01870
4562.75685,0.01530
4564.68532,0.00793
4566.61378,0.00395
4568.54225,-0.00356
4570.47072,-0.00944
4572.39919,-0.00269
4574.32766,0.00873
4576.25613,0.01412
4578.18460,0.01934
4580.11307,0.02327
4582.04153,0.01571
4583.97000,0.00616
4585.89847,0.00474
4587.82694,0.01088
4589.75541,0.02265
4591.68388,0.02369
4593.61235,0.01089
4595.54081,0.00401
4597.46928,0.00306
4599.39775,0.00370
4601.32622,0.00725
4603.25469,0.00579
4605.18316,0.00458
4607.11163,0.00923
4609.04010,0.01089
4610.96856,0.01033
4612.89703,0.00941
4614.82550,0.00616
4616.75397,0.00343
4618.68244,0.00304
4620.61091,0.00351
4622.53938,0.00194
4624.46784,0.00177
4626.39631,0.00722
4628.32478,0.01278
4630.25325,0.01311
4632.18172,0.00992
4634.11019,0.01054
4636.03866,0.01653
4637.96713,0.02270
4639.89559,0.02671
4641.82406,0.02692
4643.75253,0.02364
4645.68100,0.02166
4647.60947,0.02107
4649.53794,0.01427
4651.46641,0.00590
4653.39487,0.00815
4655.32334,0.01644
4657.25181,0.01903
4659.18028,0.01534
4661.10875,0.01677
4663.03722,0.02271
4664.96569,0.02148
4666.89416,0.01553
4668.82262,0.00711
4670.75109,0.00165
4672.67956,0.00739
4674.60803,0.00973
4676.53650,0.00201
4678.46497,-0.00333
4680.39344,-0.00544
4682.32190,-0.00245
4684.25037,0.00767
4686.17884,0.01449
4688.10731,0.01424
4690.03578,0.01333
4691.96425,0.01631
4693.89272,0.01977
4695.82119,0.02029
4697.74965,0.01775
4699.67812,0.00862
4701.60659,-0.00376
4703.53506,-0.00948
4705.46353,-0.00088
4707.39200,0.01658
4709.32047,0.02244
4711.24893,0.00861
4713.17740,-0.00784
4715.10587,-0.00719
4717.03434,0.00615
4718.96281,0.01387
4720.89128,0.01228
4722.81975,0.00951
4724.74821,0.01319
4726.67668,0.02217
4728.60515,0.03334
4730.53362,0.03988
4732.46209,0.02774
4734.39056,0.00859
4736.31903,0.00359
4738.24750,0.00296
4740.17596,-0.00471
4742.10443,-0.01238
4744.03290,-0.01002
4745.96137,0.00372
4747.88984,0.01560
4749.81831,0.01733
4751.74678,0.01811
4753.67524,0.01837
4755.60371,0.01089
4757.53218,0.00576
4759.46065,0.00907
4761.38912,0.01139
4763.31759,0.00991
4765.24606,0.01234
4767.17453,0.01668
4769.10299,0.01345
4771.03146,0.00724
4772.95993,0.00089
4774.88840,-0.01112
4776.81687,-0.02219
4778.74534,-0.02836
4780.67381,-0.02845
4782.60227,-0.01337
4784.53074,0.00659
4786.45921,0.01090
4788.38768,0.00221
4790.31615,-0.00377
4792.24462,-0.00335
4794.17309,-0.00064
4796.10156,0.00737
4798.03002,0.01850
4799.95849,0.02232
4801.88696,0.01797
4803.81543,0.01499
4805.74390,0.01526
4807.67237,0.01461
4809.60084,0.01977
4811.52930,0.02535
4813.45777,0.01691
4815.38624,0.00440
4817.31471,0.00090
4819.24318,0.00344
4821.17165,0.00538
4823.10012,0.00527
4825.02859,0.00804
4826.95705,0.01156
4828.88552,0.00735
4830.81399,-0.00272
4832.74246,-0.01127
4834.67093,-0.01175
4836.59940,-0.00311
4838.52787,0.00418
4840.45633,0.00150
4842.38480,-0.00672
4844.31327,-0.01030
4846.24174,-0.00673
4848.17021,-0.00418
4850.09868,-0.00198
4852.02715,0.01026
4853.95562,0.02325
4855.88408,0.02119
4857.81255,0.00981
4859.74102,0.00537
4861.66949,0.00834
4863.59796,0.00819
4865.52643,0.00971
4867.45490,0.02165
4869.38336,0.03595
4871.31183,0.03356
4873.24030,0.01326
4875.16877,-0.00110
4877.09724,-0.00092
4879.02571,0.00497
4880.95418,0.01074
4882.88265,0.01094
4884.81111,0.00689
4886.73958,0.00751
4888.66805,0.01670
4890.59652,0.02593
4892.52499,0.02328
4894.45346,0.01557
4896.38193,0.02157
4898.31039,0.03915
4900.23886,0.04226
4902.16733,0.02269
4904.09580,0.00269
4906.02427,-0.00058
4907.95274,0.00380
4909.88121,-0.00081
4911.80967,-0.01209
4913.73814,-0.01718
4915.66661,-0.01634
4917.59508,-0.01092
4919.52355,-0.00068
4921.45202,0.00606
4923.38049,0.01012
4925.30896,0.01569
4927.23742,0.01590
4929.16589,0.01335
4931.09436,0.01312
4933.02283,0.00940
4934.95130,0.00282
4936.87977,-0.00487
4938.80824,-0.01529
4940.73670,-0.01180
4942.66517,0.01584
4944.59364,0.04054
4946.52211,0.04625
4948.45058,0.04541
4950.37905,0.04041
4952.30752,0.02957
4954.23599,0.01513
4956.16445,0.00023
4958.09292,-0.00764
4960.02139,-0.00688
4961.94986,-0.00221
4963.87833,0.00906
4965.80680,0.02629
4967.73527,0.03713
4969.66373,0.03240
4971.59220,0.01239
4973.52067,-0.00569
4975.44914,-0.00795
4977.37761,-0.00282
4979.30608,0.00319
4981.23455,0.00773
4983.16302,0.00772
4985.09148,0.00706
4987.01995,0.00887
4988.94842,0.00982
4990.87689,0.00643
4992.80536,0.00420
4994.73383,0.01046
4996.66230,0.02071
4998.59076,0.02721
5000.51923,0.03035
5002.44770,0.03187
5004.37617,0.02531
5006.30464,0.01083
5008.23311,-0.00036
5010.16158,-0.00792
5012.09005,-0.01134
5014.01851,-0.00385
5015.94698,0.00694
5017.87545,0.01083
5019.80392,0.01151
5021.73239,0.01749
5023.66086,0.02963
5025.58933,0.03569
5027.51779,0.02922
5029.44626,0.02200
5031.37473,0.02068
5033.30320,0.02049
5035.23167,0.01787
5037.16014,0.02164
5039.08861,0.03413
5041.01708,0.03948
5042.94554,0.03227
5044.87401,0.01782
5046.80248,0.00770
5048.73095,0.01102
5050.65942,0.01511
5052.58789,0.00243
5054.51636,-0.02239
5056.44482,-0.03412
5058.37329,-0.01918
5060.30176,0.01190
5062.23023,0.03982
5064.15870,0.04861
5066.08717,0.03580
5068.01564,0.01873
5069.94410,0.01065
5071.87257,0.00786
5073.80104,0.00972
5075.72951,0.01481
5077.65798,0.01965
5079.58645,0.02189
5081.51492,0.01969
5083.44339,0.02188
5085.37185,0.04047
5087.30032,0.06117
5089.22879,0.05381
5091.15726,0.02704
5093.08573,0.00914
5095.01420,0.00878
5096.94267,0.02158
5098.87113,0.03027
5100.79960,0.03234
5102.72807,0.04163
5104.65654,0.05212
5106.58501,0.05416
5108.51348,0.05059
5110.44195,0.04144
5112.37042,0.03071
5114.29888,0.02304
5116.22735,0.01342
5118.15582,0.00770
5120.08429,0.01731
5122.01276,0.03458
5123.94123,0.03835
5125.86970,0.02199
5127.79816,0.00872
5129.72663,0.01524
5131.65510,0.01951
5133.58357,0.00928
5135.51204,0.00945
5137.44051,0.02628
5139.36898,0.03159
5141.29745,0.01803
5143.22591,0.01741
5145.15438,0.03794
5147.08285,0.04017
5149.01132,0.02282
5150.93979,0.02744
5152.86826,0.05008
5154.79673,0.06062
5156.72519,0.05709
5158.65366,0.04884
5160.58213,0.04237
5162.51060,0.03341
5164.43907,0.01098
5166.36754,-0.00428
5168.29601,0.01020
5170.22448,0.02808
5172.15294,0.01705
5174.08141,-0.00200
5176.00988,0.00492
5177.93835,0.02485
5179.86682,0.02177
5181.79529,0.00178
5183.72376,0.00607
5185.65222,0.03577
5187.58069,0.05437
5189.50916,0.05940
5191.43763,0.06151
5193.36610,0.05213
5195.29457,0.03867
5197.22304,0.03784
5199.15151,0.04185
5201.07997,0.04609
5203.00844,0.05356
5204.93691,0.05603
5206.86538,0.05870
5208.79385,0.06144
5210.72232,0.04417
5212.65079,0.01788
5214.57925,0.01501
5216.50772,0.03220
5218.43619,0.03284
5220.36466,0.01915
5222.29313,0.02197
5224.22160,0.02867
5226.15007,0.02411
5228.07854,0.02927
5230.00700,0.04827
5231.93547,0.06439
5233.86394,0.06703
5235.79241,0.05793
5237.72088,0.04511
5239.64935,0.04241
5241.57782,0.05079
5243.50628,0.04237
5245.43475,0.02382
5247.36322,0.02708
5249.29169,0.03028
5251.22016,0.02385
5253.14863,0.04101
5255.07710,0.07709
5257.00556,0.09103
5258.93403,0.08059
5260.86250,0.07798
5262.79097,0.08205
5264.71944,0.06009
5266.64791,0.02148
5268.57638,-0.00151
5270.50485,-0.00401
5272.43331,0.00245
5274.36178,0.01210
5276.29025,0.02248
5278.21872,0.02195
5280.14719,0.01812
5282.07566,0.02851
5284.00413,0.04407
5285.93259,0.04939
5287.86106,0.04387
5289.78953,0.03874
5291.71800,0.04118
5293.64647,0.04647
5295.57494,0.05274
5297.50341,0.06393
5299.43188,0.07107
5301.36034,0.05422
5303.28881,0.01639
5305.21728,-0.00846
5307.14575,0.00622
5309.07422,0.02694
5311.00269,0.01339
5312.93116,-0.00159
5314.85962,0.01321
5316.78809,0.03643
5318.71656,0.04197
5320.64503,0.03996
5322.57350,0.04700
5324.50197,0.05417
5326.43044,0.04819
5328.35891,0.04203
5330.28737,0.04783
5332.21584,0.04972
5334.14431,0.04915
5336.07278,0.05398
5338.00125,0.05750
5339.92972,0.07056
5341.85819,0.08274
5343.78665,0.06819
5345.71512,0.04164
5347.64359,0.03282
5349.57206,0.04199
5351.50053,0.07200
5353.42900,0.10909
5355.35747,0.10698
5357.28594,0.07310
5359.21440,0.04917
5361.14287,0.04921
5363.07134,0.05823
5364.99981,0.05642
5366.92828,0.05633
5368.85675,0.06233
5370.78522,0.05661
5372.71368,0.04687
5374.64215,0.04908
5376.57062,0.05935
5378.49909,0.07009
5380.42756,0.07867
5382.35603,0.07773
5384.28450,0.07183
5386.21297,0.07252
5388.14143,0.07532
5390.06990,0.08521
5391.99837,0.09416
5393.92684,0.08296
5395.85531,0.07392
5397.78378,0.07427
5399.71225,0.06627
5401.64071,0.06206
5403.56918,0.06438
5405.49765,0.06650
5407.42612,0.07844
5409.35459,0.09415
5411.28306,0.09194
5413.21153,0.07314
5415.13999,0.07149
5417.06846,0.08871
5418.99693,0.08931
5420.92540,0.07488
5422.85387,0.07792
5424.78234,0.09137
5426.71081,0.08791
5428.63928,0.07811
5430.56774,0.08522
5432.49621,0.09879
5434.42468,0.11041
5436.35315,0.11751
5438.28162,0.11423
5440.21009,0.11278
5442.13856,0.11498
5444.06702,0.08890
5445.99549,0.04412
5447.92396,0.04270
5449.85243,0.07344
5451.78090,0.07917
5453.70937,0.06900
5455.63784,0.06446
5457.56631,0.07028
5459.49477,0.08747
5461.42324,0.09394
5463.35171,0.07960
5465.28018,0.05962
5467.20865,0.04291
5469.13712,0.04218
5471.06559,0.05912
5472.99405,0.06063
5474.92252,0.03422
5476.85099,0.02066
5478.77946,0.02893
5480.70793,0.03391
5482.63640,0.04655
5484.56487,0.07538
5486.49334,0.09458
5488.42180,0.09612
5490.35027,0.09762
5492.27874,0.08411
5494.20721,0.05139
5496.13568,0.03097
5498.06415,0.02914
5499.99262,0.04618
5501.92108,0.06492
5503.84955,0.05606
5505.77802,0.03840
5507.70649,0.04974
5509.63496,0.07000
5511.56343,0.07230
5513.49190,0.07606
5515.42037,0.08754
5517.34883,0.08738
5519.27730,0.06707
5521.20577,0.05372
5523.13424,0.07356
5525.06271,0.09480
5526.99118,0.08947
5528.91965,0.07441
5530.84811,0.05938
5532.77658,0.05027
5534.70505,0.05831
5536.63352,0.06962
5538.56199,0.06650
5540.49046,0.06497
5542.41893,0.08041
5544.34740,0.10302
5546.27586,0.11953
5548.20433,0.11575
5550.13280,0.09511
5552.06127,0.08219
5553.98974,0.08030
5555.91821,0.07602
5557.84668,0.06734
5559.77514,0.06132
5561.70361,0.05656
5563.63208,0.04082
5565.56055,0.03211
5567.48902,0.04608
5569.41749,0.05419
5571.34596,0.05323
5573.27443,0.05178
5575.20289,0.03034
5577.13136,0.00536
5579.05983,0.00848
5580.98830,0.03044
5582.91677,0.05381
5584.84524,0.07326
5586.77371,0.08271
5588.70217,0.08496
5590.63064,0.08276
5592.55911,0.06875
5594.48758,0.04910
5596.41605,0.03498
5598.34452,0.02754
5600.27299,0.03242
5602.20145,0.04806
5604.12992,0.06826
5606.05839,0.08467
5607.98686,0.08610
5609.91533,0.08626
5611.84380,0.10100
5613.77227,0.11114
5615.70074,0.08643
5617.62920,0.04284
5619.55767,0.02949
5621.48614,0.04721
5623.41461,0.05477
5625.34308,0.04610
5627.27155,0.04853
5629.20002,0.06260
5631.12848,0.07291
5633.05695,0.07350
5634.98542,0.06346
5636.91389,0.05164
5638.84236,0.03736
5640.77083,0.03195
5642.69930,0.04448
5644.62777,0.04573
5646.55623,0.03438
5648.48470,0.04364
5650.41317,0.07188
5652.34164,0.09246
5654.27011,0.08510
5656.19858,0.06540
5658.12705,0.06717
5660.05551,0.08541
5661.98398,0.10040
5663.91245,0.10280
5665.84092,0.09588
5667.76939,0.09481
5669.69786,0.09365
5671.62633,0.08164
5673.55480,0.05880
5675.48326,0.03937
5677.41173,0.04446
5679.34020,0.05959
5681.26867,0.06546
5683.19714,0.06771
5685.12561,0.07273
5687.05408,0.07157
5688.98254,0.05068
5690.91101,0.03539
5692.83948,0.06174
5694.76795,0.08769
5696.69642,0.06104
5698.62489,0.04049
5700.55336,0.09008
5702.48183,0.15272
5704.41029,0.15025
5706.33876,0.11162
5708.26723,0.09603
5710.19570,0.08814
5712.12417,0.07427
5714.05264,0.06202
5715.98111,0.04362
5717.90957,0.03911
5719.83804,0.06437
5721.76651,0.09215
5723.69498,0.09184
5725.62345,0.07682
5727.55192,0.08756
5729.48039,0.10683
5731.40886,0.10471
5733.33732,0.11649
5735.26579,0.14694
5737.19426,0.15054
5739.12273,0.12503
5741.05120,0.10308
5742.97967,0.09809
5744.90814,0.09407
5746.83660,0.08428
5748.76507,0.08255
5750.69354,0.09662
5752.62201,0.11316
5754.55048,0.11102
5756.47895,0.10268
5758.40742,0.10994
5760.33588,0.12391
5762.26435,0.12201
5764.19282,0.10846
5766.12129,0.11084
5768.04976,0.10854
5769.97823,0.07086
5771.90670,0.03776
5773.83517,0.05297
5775.76363,0.08376
5777.69210,0.08365
5779.62057,0.06230
5781.54904,0.04616
5783.47751,0.05001
5785.40598,0.07370
5787.33445,0.07805
5789.26291,0.05170
5791.19138,0.02657
5793.11985,0.01876
5795.04832,0.02546
5796.97679,0.03701
5798.90526,0.06329
5800.83373,0.10063
5802.76220,0.11271
5804.69066,0.09039
5806.61913,0.07013
5808.54760,0.07734
5810.47607,0.08251
5812.40454,0.07139
5814.33301,0.07353
5816.26148,0.07920
5818.18994,0.07245
5820.11841,0.08619
5822.04688,0.12468
5823.97535,0.14727
5825.90382,0.15146
5827.83229,0.13400
5829.76076,0.08377
5831.68923,0.05110
5833.61769,0.05845
5835.54616,0.07497
5837.47463,0.09927
5839.40310,0.13210
5841.33157,0.15129
5843.26004,0.14616
5845.18851,0.14128
5847.11697,0.14948
5849.04544,0.13782
5850.97391,0.10523
5852.90238,0.09688
5854.83085,0.11218
5856.75932,0.12404
5858.68779,0.14155
5860.61626,0.15402
5862.54472,0.12409
5864.47319,0.07721
5866.40166,0.05071
5868.33013,0.05068
5870.25860,0.06566
5872.18707,0.04893
5874.11554,0.00481
5876.04400,0.00540
5877.97247,0.05836
5879.90094,0.10482
5881.82941,0.12673
5883.75788,0.13464
5885.68635,0.11365
5887.61482,0.06898
5889.54329,0.04849
5891.47175,0.06027
5893.40022,0.07524
5895.32869,0.08408
5897.25716,0.08280
5899.18563,0.06850
5901.11410,0.04388
5903.04257,0.02962
5904.97103,0.06204
5906.89950,0.11354
5908.82797,0.12781
5910.75644,0.11890
5912.68491,0.12249
5914.61338,0.13058
5916.54185,0.11898
5918.47032,0.09621
5920.39878,0.09322
5922.32725,0.09527
5924.25572,0.07787
5926.18419,0.07310
5928.11266,0.09678
5930.04113,0.09693
5931.96960,0.06145
5933.89806,0.05715
5935.82653,0.09618
5937.75500,0.12028
5939.68347,0.12539
5941.61194,0.11566
5943.54041,0.09332
5945.46888,0.09233
5947.39734,0.09992
5949.32581,0.08660
5951.25428,0.06601
5953.18275,0.04222
5955.11122,0.02177
5957.03969,0.04636
5958.96816,0.09789
5960.89663,0.11578
5962.82509,0.11306
5964.75356,0.10428
5966.68203,0.08256
5968.61050,0.07139
5970.53897,0.07814
5972.46744,0.08270
5974.39591,0.09324
5976.32437,0.11452
5978.25284,0.12100
5980.18131,0.10697
5982.10978,0.09144
5984.03825,0.09317
5985.96672,0.10329
5987.89519,0.10896
5989.82366,0.09752
5991.75212,0.05873
5993.68059,0.03005
5995.60906,0.04098
5997.53753,0.07856
5999.46600,0.09113
6001.39447,0.05650
6003.32294,0.05344
6005.25140,0.10617
6007.17987,0.13401
6009.10834,0.13767
6011.03681,0.15255
6012.96528,0.16539
6014.89375,0.17654
6016.82222,0.17471
6018.75069,0.13384
6020.67915,0.09932
6022.60762,0.09949
6024.53609,0.08779
6026.46456,0.06207
6028.39303,0.05994
6030.32150,0.09529
6032.24997,0.13823
6034.17843,0.14835
6036.10690,0.12957
6038.03537,0.10974
6039.96384,0.10097
6041.89231,0.08528
6043.82078,0.06420
6045.74925,0.06214
6047.67772,0.05539
6049.60618,0.04299
6051.53465,0.06779
6053.46312,0.11396
6055.39159,0.13159
6057.32006,0.12222
6059.24853,0.11469
6061.17700,0.10765
6063.10546,0.09886
6065.03393,0.08912
6066.96240,0.08377
6068.89087,0.09457
6070.81934,0.12436
6072.74781,0.12835
6074.67628,0.07812
6076.60475,0.04660
6078.53321,0.05397
6080.46168,0.04057
6082.39015,0.01203
6084.31862,0.01872
6086.24709,0.08814
6088.17556,0.16555
6090.10403,0.16193
6092.03249,0.09221
6093.96096,0.03274
6095.88943,0.02409
6097.81790,0.06807
6099.74637,0.10388
6101.67484,0.10408
6103.60331,0.13781
6105.53177,0.17885
6107.46024,0.15713
6109.38871,0.12981
6111.31718,0.12605
6113.24565,0.09551
6115.17412,0.06666
6117.10259,0.06757
6119.03106,0.06692
6120.95952,0.05512
6122.88799,0.02843
6124.81646,-0.00554
6126.74493,0.01983
6128.67340,0.09924
6130.60187,0.12844
6132.53034,0.10406
6134.45880,0.08154
6136.38727,0.05314
6138.31574,0.00745
6140.24421,-0.01849
6142.17268,-0.00690
6144.10115,0.00662
6146.02962,-0.00596
6147.95809,-0.04037
6149.88655,-0.05075
6151.81502,0.01089
6153.74349,0.09594
6155.67196,0.10629
6157.60043,0.05076
6159.52890,0.01817
6161.45737,0.03379
6163.38583,0.05600
6165.31430,0.07207
6167.24277,0.08585
6169.17124,0.06777
6171.09971,0.01519
6173.02818,-0.01314
6174.95665,-0.00924
6176.88512,-0.00758
6178.81358,-0.00261
6180.74205,0.02827
6182.67052,0.08430
6184.59899,0.14310
6186.52746,0.17618
6188.45593,0.16996
6190.38440,0.16690
6192.31286,0.16761
6194.24133,0.13623
6196.16980,0.10930
6198.09827,0.09770
6200.02674,0.08973
6201.95521,0.10795
6203.88368,0.11520
6205.81215,0.08408
6207.74061,0.08459
6209.66908,0.13016
6211.59755,0.12011
6213.52602,0.05634
6215.45449,0.05751
6217.38296,0.11982
6219.31143,0.15282
6221.23989,0.14128
6223.16836,0.09376
6225.09683,0.04925
6227.02530,0.05790
6228.95377,0.06262
6230.88224,0.02847
6232.81071,0.01264
6234.73918,0.01834
6236.66764,0.01894
6238.59611,0.03916
6240.52458,0.08906
6242.45305,0.09765
6244.38152,0.04449
6246.30999,0.02846
6248.23846,0.05559
6250.16692,0.07226
6252.09539,0.11055
6254.02386,0.17281
6255.95233,0.20762
6257.88080,0.19112
6259.80927,0.13637
6261.73774,0.09093
6263.66621,0.09460
6265.59467,0.13352
6267.52314,0.17295
6269.45161,0.18600
6271.38008,0.18144
6273.30855,0.19598
6275.23702,0.18813
6277.16549,0.09883
6279.09395,0.01788
6281.02242,0.04333
6282.95089,0.13330
6284.87936,0.17449
6286.80783,0.15921
6288.73630,0.15408
6290.66477,0.16591
6292.59323,0.16543
6294.52170,0.11761
6296.45017,0.05197
6298.37864,0.04029
6300.30711,0.06676
6302.23558,0.10781
6304.16405,0.16398
6306.09252,0.20663
6308.02098,0.22510
6309.94945,0.20839
6311.87792,0.14620
6313.80639,0.09318
6315.73486,0.11772
6317.66333,0.19187
6319.59180,0.22753
6321.52026,0.18883
6323.44873,0.12617
6325.37720,0.11351
6327.30567,0.13151
6329.23414,0.10264
6331.16261,0.04581
6333.09108,0.02699
6335.01955,-0.00868
6336.94801,-0.05740
6338.87648,0.00580
6340.80495,0.11947
6342.73342,0.14314
6344.66189,0.09843
6346.59036,0.04547
6348.51883,0.03631
6350.44729,0.04800
6352.37576,0.03881
6354.30423,0.05126
6356.23270,0.06444
6358.16117,0.04405
6360.08964,0.01479
6362.01811,-0.00857
6363.94658,-0.01717
6365.87504,-0.00123
6367.80351,0.02879
6369.73198,0.06470
6371.66045,0.10226
6373.58892,0.13151
6375.51739,0.14447
6377.44586,0.11581
6379.37432,0.07441
6381.30279,0.08617
6383.23126,0.11541
6385.15973,0.09968
6387.08820,0.07756
6389.01667,0.07197
6390.94514,0.05818
6392.87361,0.02078
6394.80207,-0.00646
6396.73054,0.00739
6398.65901,0.03400
6400.58748,0.05729
6402.51595,0.10764
6404.44442,0.17396
6406.37289,0.18311
6408.30135,0.11418
6410.22982,0.03359
6412.15829,0.00816
6414.08676,0.05071
6416.01523,0.09788
6417.94370,0.07827
6419.87217,0.03534
6421.80064,0.03930
6423.72910,0.08188
6425.65757,0.16082
6427.58604,0.23512
6429.51451,0.21065
6431.44298,0.11055
6433.37145,0.07919
6435.29992,0.11452
6437.22838,0.15048
6439.15685,0.17493
6441.08532,0.14043
6443.01379,0.03798
6444.94226,-0.01731
6446.87073,0.02612
6448.79920,0.07556
6450.72766,0.07487
6452.65613,0.05844
6454.58460,0.04094
6456.51307,0.02876
6458.44154,0.03497
6460.37001,0.01888
6462.29848,-0.01557
6464.22695,0.00264
6466.15541,0.07385
6468.08388,0.13472
6470.01235,0.13679
6471.94082,0.09977
6473.86929,0.08403
6475.79776,0.08493
6477.72623,0.08353
6479.65469,0.09520
6481.58316,0.11915
6483.51163,0.12113
6485.44010,0.09040
6487.36857,0.05684
6489.29704,0.02238
6491.22551,-0.01433
6493.15398,-0.03093
6495.08244,-0.04080
6497.01091,-0.04783
6498.93938,-0.03698
6500.86785,-0.00058
6502.79632,0.03757
6504.72479,0.02287
6506.65326,-0.02911
6508.58172,-0.05169
6510.51019,-0.02074
6512.43866,0.04531
6514.36713,0.10082
6516.29560,0.08109
6518.22407,0.02887
6520.15254,0.04978
6522.08101,0.10579
6524.00947,0.10343
6525.93794,0.03301
6527.86641,-0.02325
6529.79488,-0.01888
6531.72335,-0.02198
6533.65182,-0.07345
6535.58029,-0.09947
6537.50875,-0.05718
6539.43722,-0.01938
6541.36569,-0.01165
6543.29416,0.05535
6545.22263,0.17372
6547.15110,0.25465
6549.07957,0.24237
6551.00804,0.13320
6552.93650,0.04893
6554.86497,0.03206
6556.79344,0.05211
6558.72191,0.10394
6560.65038,0.13167
6562.57885,0.13845
6564.50732,0.18095
6566.43578,0.21151
6568.36425,0.14874
6570.29272,0.04329
6572.22119,0.00450
6574.14966,0.02440
6576.07813,0.07225
6578.00660,0.18325
6579.93507,0.30815
6581.86353,0.27630
6583.79200,0.08686
6585.72047,-0.01347
6587.64894,-0.01251
6589.57741,-0.01754
6591.50588,0.01689
6593.43435,0.08969
6595.36281,0.12784
6597.29128,0.10313
6599.21975,0.04928
6601.14822,0.06064
6603.07669,0.12091
6605.00516,0.12747
6606.93363,0.10155
6608.86210,0.10746
6610.79056,0.13884
6612.71903,0.12700
6614.64750,0.04933
6616.57597,-0.00900
6618.50444,0.00284
6620.43291,0.03095
6622.36138,0.03072
6624.28984,-0.00850
6626.21831,-0.02704
6628.14678,0.02827
6630.07525,0.06710
6632.00372,0.03817
6633.93219,0.04846
6635.86066,0.11714
6637.78912,0.12713
6639.71759,0.05960
6641.64606,0.01955
6643.57453,0.05485
6645.50300,0.08395
6647.43147,0.05351
6649.35994,0.05979
6651.28841,0.10926
6653.21687,0.09157
6655.14534,0.06702
6657.07381,0.15113
6659.00228,0.20371
6660.93075,0.09669
6662.85922,-0.04086
6664.78769,-0.05104
6666.71615,0.01434
6668.64462,0.04436
6670.57309,0.06990
6672.50156,0.12909
6674.43003,0.17182
6676.35850,0.15545
6678.28697,0.13770
6680.21544,0.15571
6682.14390,0.16359
6684.07237,0.16312
6686.00084,0.14720
6687.92931,0.09126
6689.85778,0.06052
6691.78625,0.09624
6693.71472,0.13114
6695.64318,0.12784
6697.57165,0.14912
6699.50012,0.23168
6701.42859,0.28291
6703.35706,0.24362
6705.28553,0.20734
6707.21400,0.25082
6709.14247,0.27382
6711.07093,0.22363
6712.99940,0.16930
6714.92787,0.13375
6716.85634,0.13356
6718.78481,0.15321
6720.71328,0.14713
6722.64175,0.12939
6724.57021,0.11600
6726.49868,0.10944
6728.42715,0.08317
6730.35562,0.04413
6732.28409,0.05183
6734.21256,0.08662
6736.14103,0.10473
6738.06950,0.08998
6739.99796,0.06194
6741.92643,0.07247
6743.85490,0.08664
6745.78337,0.03643
6747.71184,-0.03846
6749.64031,-0.05290
6751.56878,0.00517
6753.49724,0.06483
6755.42571,0.08156
6757.35418,0.11403
6759.28265,0.16431
6761.21112,0.15054
6763.13959,0.06387
6765.06806,-0.02847
6766.99653,-0.00329
6768.92499,0.15244
6770.85346,0.28951
6772.78193,0.33161
6774.71040,0.28524
6776.63887,0.18972
6778.56734,0.12965
6780.49581,0.07939
6782.42427,0.03281
6784.35274,0.05575
6786.28121,0.09497
6788.20968,0.04104
6790.13815,-0.11047
6792.06662,-0.20959
6793.99509,-0.14622
6795.92355,-0.00582
6797.85202,0.10698
6799.78049,0.12628
6801.70896,0.06802
6803.63743,0.05928
6805.56590,0.09873
6807.49437,0.09507
6809.42284,0.08475
6811.35130,0.11008
6813.27977,0.14316
6815.20824,0.17193
6817.13671,0.17741
6819.06518,0.13152
6820.99365,0.05931
6822.92212,0.01336
6824.85058,-0.00099
6826.77905,-0.04221
6828.70752,-0.06246
6830.63599,0.00967
6832.56446,0.10132
6834.49293,0.13765
6836.42140,0.11600
6838.34987,0.08146
6840.27833,0.05635
6842.20680,0.02286
6844.13527,0.01917
6846.06374,0.12244
6847.99221,0.23089
6849.92068,0.16545
6851.84915,0.04197
6853.77761,-0.03948
6855.70608,-0.01766
6857.63455,0.13561
6859.56302,0.21700
6861.49149,0.11804
6863.41996,-0.03379
6865.34843,-0.08001
6867.27690,-0.01533
6869.20536,0.08602
6871.13383,0.17773
6873.06230,0.19674
6874.99077,0.09368
6876.91924,-0.02787
6878.84771,-0.06877
6880.77618,-0.05072
6882.70464,0.00569
6884.63311,0.07887
6886.56158,0.10102
6888.49005,0.07484
6890.41852,0.05896
6892.34699,0.07948
6894.27546,0.13227
6896.20393,0.17314
6898.13239,0.13246
6900.06086,0.05450
6901.98933,0.01281
6903.91780,-0.01230
6905.84627,-0.04221
6907.77474,-0.01285
6909.70321,0.10199
6911.63167,0.16206
6913.56014,0.06526
6915.48861,-0.04275
6917.41708,-0.05589
6919.34555,-0.08887
6921.27402,-0.13162
6923.20249,-0.04718
6925.13096,0.05616
6927.05942,0.04579
6928.98789,-0.02361
6930.91636,-0.02836
6932.84483,0.01531
6934.77330,0.01954
6936.70177,0.01899
6938.63024,0.08313
6940.55870,0.21259
6942.48717,0.27035
6944.41564,0.20300
6946.34411,0.11640
6948.27258,0.08341
6950.20105,0.10563
6952.12952,0.17242
6954.05799,0.18709
6955.98645,0.12723
6957.91492,0.09872
6959.84339,0.09720
6961.77186,0.09830
6963.70033,0.06848
6965.62880,-0.00116
6967.55727,-0.00987
6969.48573,0.11165
6971.41420,0.22913
6973.34267,0.23777
6975.27114,0.21675
6977.19961,0.20087
6979.12808,0.20810
6981.05655,0.26766
6982.98501,0.29741
6984.91348,0.21412
6986.84195,0.11597
6988.77042,0.10275
6990.69889,0.13195
6992.62736,0.16344
6994.55583,0.17631
6996.48430,0.10958
6998.41276,0.01015
7000.34123,-0.01191
7002.26970,-0.03025
7004.19817,-0.05623
7006.12664,-0.04896
7008.05511,-0.04269
7009.98358,-0.00345
7011.91204,0.04551
7013.84051,-0.00029
7015.76898,-0.11397
7017.69745,-0.19790
7019.62592,-0.21034
7021.55439,-0.15989
7023.48286,-0.07932
7025.41133,0.01947
7027.33979,0.17859
7029.26826,0.34078
7031.19673,0.30904
7033.12520,0.13780
7035.05367,-0.01608
7036.98214,-0.05769
7038.91061,0.02946
7040.83907,0.13902
7042.76754,0.18709
7044.69601,0.19416
7046.62448,0.13179
7048.55295,0.04893
7050.48142,0.02347
7052.40989,0.01301
7054.33836,-0.01613
7056.26682,-0.03160
7058.19529,-0.01135
7060.12376,-0.00636
7062.05223,0.01493
7063.98070,0.09778
7065.90917,0.10939
7067.83764,-0.00813
7069.76610,-0.10970
7071.69457,-0.10141
7073.62304,-0.08620
7075.55151,-0.07575
7077.47998,-0.01595
7079.40845,0.02079
7081.33692,-0.05453
7083.26539,-0.09336
7085.19385,-0.01769
7087.12232,0.03535
7089.05079,0.00311
7090.97926,0.00281
7092.90773,0.09521
7094.83620,0.20343
7096.76467,0.18761
7098.69313,0.03791
7100.62160,-0.04100
7102.55007,-0.01092
7104.47854,0.04547
7106.40701,0.08514
7108.33548,0.09664
7110.26395,0.08846
7112.19242,0.05839
7114.12088,0.05644
7116.04935,0.10269
7117.97782,0.15239
7119.90629,0.12170
7121.83476,-0.01156
7123.76323,-0.07754
7125.69170,-0.01498
7127.62016,0.03100
7129.54863,0.10266
7131.47710,0.23681
7133.40557,0.24936
7135.33404,0.18923
7137.26251,0.21319
7139.19098,0.22317
7141.11944,0.13348
7143.04791,-0.00293
7144.97638,-0.11379
7146.90485,-0.08309
7148.83332,0.08709
7150.76179,0.28743
7152.69026,0.43420
7154.61873,0.42025
7156.54719,0.23774
7158.47566,0.04859
7160.40413,-0.10859
7162.33260,-0.27655
7164.26107,-0.38292
7166.18954,-0.29759
7168.11801,-0.10265
7170.04647,-0.06379
7171.97494,-0.12493
7173.90341,0.01378
7175.83188,0.23395
7177.76035,0.19766
7179.68882,0.00948
7181.61729,-0.07520
7183.54576,-0.06809
7185.47422,-0.01515
7187.40269,0.04195
7189.33116,0.06227
7191.25963,0.10136
7193.18810,0.17342
7195.11657,0.21394
7197.04504,0.22648
7198.97350,0.24860
7200.90197,0.23442
7202.83044,0.16915
7204.75891,0.13050
7206.68738,0.12433
7208.61585,0.11995
7210.54432,0.13664
7212.47279,0.18114
7214.40125,0.19979
7216.32972,0.10501
7218.25819,0.00790
7220.18666,0.06902
7222.11513,0.13665
7224.04360,0.10169
7225.97207,-0.00821
7227.90053,-0.00853
7229.82900,0.13308
7231.75747,0.18946
7233.68594,0.14818
7235.61441,0.14440
7237.54288,0.10289
7239.47135,0.01596
7241.39982,0.00991
7243.32828,0.07405
7245.25675,0.07913
7247.18522,0.09782
7249.11369,0.22002
7251.04216,0.36742
7252.97063,0.30762
7254.89910,0.04523
7256.82756,-0.11207
7258.75603,-0.14184
7260.68450,-0.07920
7262.61297,-0.00762
7264.54144,0.01337
7266.46991,0.01426
7268.39838,-0.02634
7270.32685,-0.06838
7272.25531,-0.02314
7274.18378,0.05068
7276.11225,0.09528
7278.04072,0.15217
7279.96919,0.11151
7281.89766,-0.08769
7283.82613,-0.18396
7285.75459,-0.14236
7287.68306,-0.04553
7289.61153,0.09129
7291.54000,0.16051
7293.46847,0.10918
7295.39694,0.00962
7297.32541,-0.01467
7299.25387,0.05828
7301.18234,0.08624
7303.11081,0.06379
7305.03928,0.04061
7306.96775,0.04966
7308.89622,0.16190
7310.82469,0.18070
7312.75316,0.11371
7314.68162,0.18809
7316.61009,0.34177
7318.53856,0.26198
7320.46703,0.00570
7322.39550,-0.12485
7324.32397,0.04496
7326.25244,0.24621
7328.18090,0.10438
7330.10937,-0.17683
7332.03784,-0.19647
7333.96631,-0.10057
7335.89478,-0.00499
7337.82325,0.07025
7339.75172,0.17926
7341.68019,0.25213
7343.60865,0.17822
7345.53712,0.09184
7347.46559,0.02278
7349.39406,-0.04811
7351.32253,-0.11115
7353.25100,-0.15161
7355.17947,-0.08865
7357.10793,0.04222
7359.03640,-0.00990
7360.96487,-0.16800
7362.89334,-0.10336
7364.82181,0.08952
7366.75028,0.19020
7368.67875,0.17588
7370.60722,0.10216
7372.53568,0.00594
7374.46415,-0.03556
7376.39262,0.17343
7378.32109,0.45431
7380.24956,0.49105
7382.17803,0.22411
7384.10650,-0.00841
7386.03496,-0.02708
7387.96343,-0.02751
7389.89190,-0.05898
7391.82037,-0.12453
7393.74884,-0.17996
7395.67731,-0.06995
7397.60578,0.16692
7399.53425,0.33879
7401.46271,0.30630
7403.39118,0.11287
7405.31965,0.03794
7407.24812,0.16359
7409.17659,0.24452
7411.10506,0.14291
7413.03353,0.05488
7414.96199,0.17749
7416.89046,0.38598
7418.81893,0.41901
7420.74740,0.27830
7422.67587,0.13359
7424.60434,0.03156
7426.53281,0.01062
7428.46128,0.04361
7430.38974,0.04510
7432.31821,0.04670
7434.24668,0.09136
7436.17515,0.10912
7438.10362,0.08415
7440.03209,0.08116
7441.96056,0.09910
7443.88902,0.11971
7445.81749,0.17992
7447.74596,0.18470
7449.67443,0.09877
7451.60290,0.09972
7453.53137,0.14084
7455.45984,0.09246
7457.38831,0.05842
7459.31677,0.06397
7461.24524,0.01777
7463.17371,0.02958
7465.10218,0.22404
7467.03065,0.39655
7468.95912,0.35477
7470.88759,0.25416
7472.81605,0.25943
7474.74452,0.24568
7476.67299,0.12810
7478.60146,0.02732
7480.52993,-0.01346
7482.45840,-0.12707
7484.38687,-0.19599
7486.31533,-0.12215
7488.24380,0.05978
7490.17227,0.26279
7492.10074,0.22652
7494.02921,-0.00085
7495.95768,-0.12307
7497.88615,0.02739
