399.19301,-1.21135
401.12148,-0.18286
403.04995,-0.36784
404.97842,-0.18290
406.90689,0.10513
408.83536,0.06519
410.76382,-0.04913
412.69229,0.10234
414.62076,0.19313
416.54923,0.05865
418.47770,0.02632
420.40617,0.23991
422.33464,0.27350
424.26311,0.11742
426.19157,0.06617
428.12004,0.14470
430.04851,0.12688
431.97698,0.02231
433.90545,0.04692
435.83392,0.13628
437.76239,0.13377
439.69085,0.09040
441.61932,0.15552
443.54779,0.24084
445.47626,0.12796
447.40473,0.03286
449.33320,0.16797
451.26167,0.24951
453.19013,0.12968
455.11860,0.08600
457.04707,0.18796
458.97554,0.16699
460.90401,0.08736
462.83248,0.10421
464.76095,0.08725
466.68942,0.01512
468.61788,0.02788
470.54635,0.08058
472.47482,0.03491
474.40329,-0.05121
476.33176,-0.02511
478.26023,0.00496
480.18870,0.00861
482.11716,0.01919
484.04563,0.07738
485.97410,0.14972
487.90257,0.15283
489.83104,0.15215
491.75951,0.20079
493.68798,0.18030
495.61645,0.08227
497.54491,0.06735
499.47338,0.12668
501.40185,0.09873
503.33032,0.02651
505.25879,0.05413
507.18726,0.11005
509.11573,0.10464
511.04419,0.13689
512.97266,0.21340
514.90113,0.20237
516.82960,0.12656
518.75807,0.10061
520.68654,0.08031
522.61501,0.05226
524.54348,0.11282
526.47194,0.21786
528.40041,0.21045
530.32888,0.11151
532.25735,0.06630
534.18582,0.10786
536.11429,0.12453
538.04276,0.09550
539.97122,0.09378
541.89969,0.13144
543.82816,0.16690
545.75663,0.17732
547.68510,0.17802
549.61357,0.18016
551.54204,0.24298
553.47051,0.34931
555.39897,0.33765
557.32744,0.18990
559.25591,0.06729
561.18438,0.05176
563.11285,0.08570
565.04132,0.08679
566.96979,0.09508
568.89825,0.14154
570.82672,0.15349
572.75519,0.13452
574.68366,0.12850
576.61213,0.12298
578.54060,0.10846
580.46907,0.11085
582.39754,0.12139
584.32600,0.10844
586.25447,0.08726
588.18294,0.08247
590.11141,0.10570
592.03988,0.14696
593.96835,0.16928
595.89682,0.16734
597.82528,0.15003
599.75375,0.11715
601.68222,0.09645
603.61069,0.10043
605.53916,0.09441
607.46763,0.07198
609.39610,0.07669
611.32456,0.11852
613.25303,0.12965
615.18150,0.08931
617.10997,0.06526
619.03844,0.07143
620.96691,0.08020
622.89538,0.10358
624.82385,0.13655
626.75231,0.13732
628.68078,0.10552
630.60925,0.08891
632.53772,0.10146
634.46619,0.12219
636.39466,0.13462
638.32313,0.13182
640.25159,0.11911
642.18006,0.10901
644.10853,0.11877
646.03700,0.14877
647.96547,0.16341
649.89394,0.15763
651.82241,0.16272
653.75088,0.16138
655.67934,0.13300
657.60781,0.11173
659.53628,0.12543
661.46475,0.14286
663.39322,0.13220
665.32169,0.12061
667.25016,0.14050
669.17862,0.15242
671.10709,0.12858
673.03556,0.12887
674.96403,0.14756
676.89250,0.14701
678.82097,0.14022
680.74944,0.14641
682.67791,0.14062
684.60637,0.12093
686.53484,0.12112
688.46331,0.13989
690.39178,0.13652
692.32025,0.11547
694.24872,0.11855
696.17719,0.13612
698.10565,0.12410
700.03412,0.10610
701.96259,0.12024
703.89106,0.13855
705.81953,0.14999
707.74800,0.18858
709.67647,0.26684
711.60494,0.31484
713.53340,0.26139
715.46187,0.18342
717.39034,0.15284
719.31881,0.13676
721.24728,0.13159
723.17575,0.13976
725.10422,0.13318
727.03268,0.11560
728.96115,0.11885
730.88962,0.13778
732.81809,0.13834
734.74656,0.13061
736.67503,0.13735
738.60350,0.13776
740.53197,0.12656
742.46043,0.13389
744.38890,0.15098
746.31737,0.15443
748.24584,0.15248
750.17431,0.14727
752.10278,0.13848
754.03125,0.13659
755.95971,0.14642
757.88818,0.15734
759.81665,0.15116
761.74512,0.12727
763.67359,0.11126
765.60206,0.11681
767.53053,0.12754
769.45900,0.13606
771.38746,0.14432
773.31593,0.14345
775.24440,0.12772
777.17287,0.10948
779.10134,0.10187
781.02981,0.10248
782.95828,0.10616
784.88674,0.10971
786.81521,0.11006
788.74368,0.10932
790.67215,0.11828
792.60062,0.13704
794.52909,0.14454
796.45756,0.13459
798.38602,0.13407
800.31449,0.14529
802.24296,0.14241
804.17143,0.13551
806.09990,0.13755
808.02837,0.12985
809.95684,0.10992
811.88531,0.10471
813.81377,0.12106
815.74224,0.13115
817.67071,0.12404
819.59918,0.12082
821.52765,0.13180
823.45612,0.13493
825.38459,0.12827
827.31305,0.13984
829.24152,0.15800
831.16999,0.15522
833.09846,0.14436
835.02693,0.13990
836.95540,0.13144
838.88387,0.12635
840.81234,0.13678
842.74080,0.14439
844.66927,0.13981
846.59774,0.14179
848.52621,0.15033
850.45468,0.14765
852.38315,0.13840
854.31162,0.13873
856.24008,0.14575
858.16855,0.14859
860.09702,0.15304
862.02549,0.16523
863.95396,0.17053
865.88243,0.17105
867.81090,0.20217
869.73937,0.24143
871.66783,0.22131
873.59630,0.16614
875.52477,0.14058
877.45324,0.14386
879.38171,0.14879
881.31018,0.14793
883.23865,0.14917
885.16711,0.15089
887.09558,0.14164
889.02405,0.12687
890.95252,0.11987
892.88099,0.11836
894.80946,0.12053
896.73793,0.13235
898.66640,0.14505
900.59486,0.14773
902.52333,0.14804
904.45180,0.14720
906.38027,0.13584
908.30874,0.12698
910.23721,0.13745
912.16568,0.15376
914.09414,0.15403
916.02261,0.14050
917.95108,0.13043
919.87955,0.12784
921.80802,0.12460
923.73649,0.12340
925.66496,0.13253
927.59343,0.14493
929.52189,0.15183
931.45036,0.15514
933.37883,0.15772
935.30730,0.15922
937.23577,0.15670
939.16424,0.15121
941.09271,0.14498
943.02117,0.14071
944.94964,0.14312
946.87811,0.14896
948.80658,0.14669
950.73505,0.13624
952.66352,0.13638
954.59199,0.14811
956.52045,0.15032
958.44892,0.14518
960.37739,0.14631
962.30586,0.15065
964.23433,0.15198
966.16280,0.14888
968.09127,0.14266
970.01974,0.13956
971.94820,0.14116
973.87667,0.14438
975.80514,0.14683
977.73361,0.14456
979.66208,0.14527
981.59055,0.15741
983.51902,0.16375
985.44748,0.15384
987.37595,0.15102
989.30442,0.16208
991.23289,0.16495
993.16136,0.16097
995.08983,0.16518
997.01830,0.16687
998.94677,0.15288
1000.87523,0.13998
1002.80370,0.14335
1004.73217,0.15101
1006.66064,0.15593
1008.58911,0.16347
1010.51758,0.16646
1012.44605,0.15911
1014.37451,0.15771
1016.30298,0.16646
1018.23145,0.16553
1020.15992,0.15233
1022.08839,0.14446
1024.01686,0.15181
1025.94533,0.16777
1027.87380,0.17699
1029.80226,0.17467
1031.73073,0.16980
1033.65920,0.16326
1035.58767,0.15733
1037.51614,0.16086
1039.44461,0.16018
1041.37308,0.14725
1043.30154,0.14770
1045.23001,0.16381
1047.15848,0.16415
1049.08695,0.14848
1051.01542,0.14478
1052.94389,0.15326
1054.87236,0.15609
1056.80083,0.15762
1058.72929,0.16397
1060.65776,0.16438
1062.58623,0.16177
1064.51470,0.16447
1066.44317,0.16083
1068.37164,0.15067
1070.30011,0.14847
1072.22857,0.15372
1074.15704,0.15941
1076.08551,0.16155
1078.01398,0.15730
1079.94245,0.15014
1081.87092,0.14988
1083.79939,0.15825
1085.72786,0.16988
1087.65632,0.17658
1089.58479,0.16617
1091.51326,0.14950
1093.44173,0.14851
1095.37020,0.15645
1097.29867,0.16053
1099.22714,0.16619
1101.15560,0.17239
1103.08407,0.16936
1105.01254,0.16164
1106.94101,0.15849
1108.86948,0.15834
1110.79795,0.15726
1112.72642,0.16107
1114.65489,0.17217
1116.58335,0.17953
1118.51182,0.17846
1120.44029,0.17598
1122.36876,0.17330
1124.29723,0.16950
1126.22570,0.16995
1128.15417,0.16975
1130.08263,0.16035
1132.01110,0.15039
1133.93957,0.15399
1135.86804,0.16820
1137.79651,0.17108
1139.72498,0.15585
1141.65345,0.14404
1143.58191,0.14878
1145.51038,0.15881
1147.43885,0.16195
1149.36732,0.16082
1151.29579,0.16325
1153.22426,0.16671
1155.15273,0.16517
1157.08120,0.16256
1159.00966,0.16211
1160.93813,0.16212
1162.86660,0.16315
1164.79507,0.16139
1166.72354,0.15566
1168.65201,0.15643
1170.58048,0.16568
1172.50894,0.17199
1174.43741,0.17229
1176.36588,0.17457
1178.29435,0.17793
1180.22282,0.17352
1182.15129,0.16615
1184.07976,0.16535
1186.00823,0.16818
1187.93669,0.16891
1189.86516,0.16814
1191.79363,0.16714
1193.72210,0.16393
1195.65057,0.15977
1197.57904,0.15934
1199.50751,0.16230
1201.43597,0.16297
1203.36444,0.16165
1205.29291,0.16411
1207.22138,0.16569
1209.14985,0.16019
1211.07832,0.15738
1213.00679,0.16370
1214.93526,0.16714
1216.86372,0.16207
1218.79219,0.15990
1220.72066,0.16504
1222.64913,0.16844
1224.57760,0.16845
1226.50607,0.17076
1228.43454,0.17128
1230.36300,0.16686
1232.29147,0.16410
1234.21994,0.16581
1236.14841,0.16964
1238.07688,0.17199
1240.00535,0.16955
1241.93382,0.16465
1243.86229,0.16043
1245.79075,0.15758
1247.71922,0.15750
1249.64769,0.15990
1251.57616,0.16263
1253.50463,0.16440
1255.43310,0.16603
1257.36157,0.16631
1259.29003,0.16357
1261.21850,0.16257
1263.14697,0.16317
1265.07544,0.16110
1267.00391,0.16209
1268.93238,0.16781
1270.86085,0.16972
1272.78932,0.16605
1274.71778,0.16349
1276.64625,0.16551
1278.57472,0.16835
1280.50319,0.16589
1282.43166,0.16163
1284.36013,0.16265
1286.28860,0.16411
1288.21706,0.16406
1290.14553,0.16845
1292.07400,0.17294
1294.00247,0.17142
1295.93094,0.16908
1297.85941,0.16833
1299.78788,0.16346
1301.71634,0.15328
1303.64481,0.14428
1305.57328,0.14579
1307.50175,0.15678
1309.43022,0.16629
1311.35869,0.17115
1313.28716,0.17283
1315.21563,0.17204
1317.14409,0.17345
1319.07256,0.17653
1321.00103,0.17428
1322.92950,0.16999
1324.85797,0.16724
1326.78644,0.16465
1328.71491,0.16637
1330.64337,0.16988
1332.57184,0.17055
1334.50031,0.17045
1336.42878,0.17180
1338.35725,0.17632
1340.28572,0.17634
1342.21419,0.16482
1344.14266,0.15227
1346.07112,0.15224
1347.99959,0.16012
1349.92806,0.15972
1351.85653,0.15687
1353.78500,0.16080
1355.71347,0.16168
1357.64194,0.15929
1359.57040,0.16578
1361.49887,0.17902
1363.42734,0.18193
1365.35581,0.17584
1367.28428,0.17275
1369.21275,0.17036
1371.14122,0.17192
1373.06969,0.18301
1374.99815,0.18977
1376.92662,0.18357
1378.85509,0.17817
1380.78356,0.17848
1382.71203,0.18072
1384.64050,0.18371
1386.56897,0.18720
1388.49743,0.18700
1390.42590,0.18335
1392.35437,0.18325
1394.28284,0.18883
1396.21131,0.19625
1398.13978,0.19741
1400.06825,0.19015
1401.99672,0.18587
1403.92518,0.18704
1405.85365,0.18504
1407.78212,0.18170
1409.71059,0.18168
1411.63906,0.18091
1413.56753,0.18189
1415.49600,0.19266
1417.42446,0.20771
1419.35293,0.20714
1421.28140,0.19820
1423.20987,0.19693
1425.13834,0.19286
1427.06681,0.18446
1428.99528,0.18153
1430.92375,0.18468
1432.85221,0.18833
1434.78068,0.19363
1436.70915,0.19771
1438.63762,0.19105
1440.56609,0.18309
1442.49456,0.18193
1444.42303,0.18599
1446.35149,0.19133
1448.27996,0.19455
1450.20843,0.19557
1452.13690,0.19818
1454.06537,0.20482
1455.99384,0.21755
1457.92231,0.22139
1459.85077,0.20481
1461.77924,0.19461
1463.70771,0.19676
1465.63618,0.19872
1467.56465,0.19173
1469.49312,0.18991
1471.42159,0.20500
1473.35006,0.22423
1475.27852,0.21901
1477.20699,0.20417
1479.13546,0.19534
1481.06393,0.19123
1482.99240,0.18858
1484.92087,0.19144
1486.84934,0.20337
1488.77780,0.21461
1490.70627,0.21087
1492.63474,0.20204
1494.56321,0.19623
1496.49168,0.19146
1498.42015,0.18953
1500.34862,0.19294
1502.27709,0.20053
1504.20555,0.21373
1506.13402,0.23577
1508.06249,0.24250
1509.99096,0.22640
1511.91943,0.21394
1513.84790,0.21252
1515.77637,0.21779
1517.70483,0.21725
1519.63330,0.21883
1521.56177,0.22963
1523.49024,0.22493
1525.41871,0.21074
1527.34718,0.20205
1529.27565,0.19727
1531.20412,0.19808
1533.13258,0.20819
1535.06105,0.21776
1536.98952,0.22321
1538.91799,0.23782
1540.84646,0.25942
1542.77493,0.25422
1544.70340,0.22900
1546.63186,0.20717
1548.56033,0.19996
1550.48880,0.20103
1552.41727,0.20639
1554.34574,0.21948
1556.27421,0.24057
1558.20268,0.25926
1560.13115,0.23097
1562.05961,0.20534
1563.98808,0.20034
1565.91655,0.19749
1567.84502,0.19411
1569.77349,0.19630
1571.70196,0.19893
1573.63043,0.20168
1575.55889,0.20782
1577.48736,0.20515
1579.41583,0.19327
1581.34430,0.18450
1583.27277,0.18148
1585.20124,0.18174
1587.12971,0.18150
1589.05818,0.17989
1590.98664,0.17918
1592.91511,0.17989
1594.84358,0.18103
1596.77205,0.18126
1598.70052,0.17928
1600.62899,0.17682
1602.55746,0.17638
1604.48592,0.17908
1606.41439,0.18277
1608.34286,0.18366
1610.27133,0.18441
1612.19980,0.19035
1614.12827,0.19907
1616.05674,0.20414
1617.98521,0.20112
1619.91367,0.19893
1621.84214,0.20046
1623.77061,0.19885
1625.69908,0.19851
1627.62755,0.20297
1629.55602,0.20259
1631.48449,0.20188
1633.41295,0.20996
1635.34142,0.21998
1637.26989,0.21294
1639.19836,0.20356
1641.12683,0.20133
1643.05530,0.20303
1644.98377,0.21371
1646.91223,0.23001
1648.84070,0.22596
1650.76917,0.22216
1652.69764,0.23544
1654.62611,0.22717
1656.55458,0.20554
1658.48305,0.19697
1660.41152,0.20177
1662.33998,0.20889
1664.26845,0.20099
1666.19692,0.19351
1668.12539,0.20335
1670.05386,0.21971
1671.98233,0.21867
1673.91080,0.21122
1675.83926,0.20778
1677.76773,0.20593
1679.69620,0.20735
1681.62467,0.21915
1683.55314,0.23693
1685.48161,0.22658
1687.41008,0.20985
1689.33855,0.20660
1691.26701,0.20645
1693.19548,0.21196
1695.12395,0.22614
1697.05242,0.23201
1698.98089,0.22431
1700.90936,0.22075
1702.83783,0.22565
1704.76629,0.22853
1706.69476,0.22036
1708.62323,0.20803
1710.55170,0.20175
1712.48017,0.20362
1714.40864,0.21465
1716.33711,0.22924
1718.26558,0.22629
1720.19404,0.20796
1722.12251,0.19499
1724.05098,0.18980
1725.97945,0.18783
1727.90792,0.18790
1729.83639,0.19253
1731.76486,0.20583
1733.69332,0.22023
1735.62179,0.21313
1737.55026,0.20484
1739.47873,0.20593
1741.40720,0.20563
1743.33567,0.20634
1745.26414,0.21318
1747.19261,0.21836
1749.12107,0.21590
1751.04954,0.20645
1752.97801,0.19700
1754.90648,0.19317
1756.83495,0.19292
1758.76342,0.19495
1760.69189,0.20006
1762.62035,0.20014
1764.54882,0.19497
1766.47729,0.19534
1768.40576,0.19945
1770.33423,0.20426
1772.26270,0.21005
1774.19117,0.20623
1776.11964,0.19611
1778.04810,0.19354
1779.97657,0.20039
1781.90504,0.20286
1783.83351,0.19624
1785.76198,0.19058
1787.69045,0.19189
1789.61892,0.19810
1791.54738,0.20326
1793.47585,0.20274
1795.40432,0.19935
1797.33279,0.19710
1799.26126,0.19892
1801.18973,0.20068
1803.11820,0.19480
1805.04666,0.18934
1806.97513,0.19192
1808.90360,0.19580
1810.83207,0.19309
1812.76054,0.18600
1814.68901,0.18247
1816.61748,0.19738
1818.54595,0.23112
1820.47441,0.24012
1822.40288,0.21391
1824.33135,0.19597
1826.25982,0.19606
1828.18829,0.19883
1830.11676,0.20146
1832.04523,0.19543
1833.97369,0.18883
1835.90216,0.18998
1837.83063,0.19276
1839.75910,0.19238
1841.68757,0.19397
1843.61604,0.20075
1845.54451,0.20292
1847.47298,0.19599
1849.40144,0.18963
1851.32991,0.18754
1853.25838,0.18625
1855.18685,0.18562
1857.11532,0.18742
1859.04379,0.18943
1860.97226,0.18941
1862.90072,0.18965
1864.82919,0.19285
1866.75766,0.19803
1868.68613,0.20080
1870.61460,0.19726
1872.54307,0.19154
1874.47154,0.18692
1876.40001,0.18414
1878.32847,0.18441
1880.25694,0.18614
1882.18541,0.18666
1884.11388,0.18663
1886.04235,0.18856
1887.97082,0.19201
1889.89929,0.19240
1891.82775,0.19071
1893.75622,0.19140
1895.68469,0.19105
1897.61316,0.18875
1899.54163,0.18884
1901.47010,0.18980
1903.39857,0.18860
1905.32704,0.18748
1907.25550,0.18844
1909.18397,0.18891
1911.11244,0.18840
1913.04091,0.19022
1914.96938,0.19388
1916.89785,0.19500
1918.82632,0.19304
1920.75478,0.19247
1922.68325,0.19284
1924.61172,0.19200
1926.54019,0.19150
1928.46866,0.19050
1930.39713,0.18804
1932.32560,0.18665
1934.25407,0.18733
1936.18253,0.18867
1938.11100,0.18977
1940.03947,0.19205
1941.96794,0.19627
1943.89641,0.19671
1945.82488,0.18973
1947.75335,0.18262
1949.68181,0.18189
1951.61028,0.18437
1953.53875,0.18580
1955.46722,0.18760
1957.39569,0.18969
1959.32416,0.19003
1961.25263,0.19080
1963.18110,0.19253
1965.10956,0.19192
1967.03803,0.19066
1968.96650,0.19225
1970.89497,0.19371
1972.82344,0.18972
1974.75191,0.17779
1976.68038,0.16426
1978.60884,0.16476
1980.53731,0.17982
1982.46578,0.18944
1984.39425,0.18800
1986.32272,0.18649
1988.25119,0.18895
1990.17966,0.19178
1992.10812,0.19117
1994.03659,0.18919
1995.96506,0.19010
1997.89353,0.19224
1999.82200,0.19203
2001.75047,0.19087
2003.67894,0.19154
2005.60741,0.19028
2007.53587,0.18491
2009.46434,0.18264
2011.39281,0.18744
2013.32128,0.19241
2015.24975,0.19208
2017.17822,0.19036
2019.10669,0.19013
2021.03515,0.18858
2022.96362,0.18617
2024.89209,0.18629
2026.82056,0.18739
2028.74903,0.18630
2030.67750,0.18558
2032.60597,0.18744
2034.53444,0.18860
2036.46290,0.18735
2038.39137,0.18837
2040.31984,0.19263
2042.24831,0.19272
2044.17678,0.18870
2046.10525,0.18757
2048.03372,0.18887
2049.96218,0.18844
2051.89065,0.18704
2053.81912,0.18820
2055.74759,0.19038
2057.67606,0.18960
2059.60453,0.18852
2061.53300,0.19032
2063.46147,0.19158
2065.38993,0.19115
2067.31840,0.19232
2069.24687,0.19417
2071.17534,0.19376
2073.10381,0.19257
2075.03228,0.19210
2076.96075,0.19070
2078.88921,0.18882
2080.81768,0.18927
2082.74615,0.19168
2084.67462,0.19264
2086.60309,0.19262
2088.53156,0.19380
2090.46003,0.19281
2092.38850,0.18827
2094.31696,0.18564
2096.24543,0.18650
2098.17390,0.18638
2100.10237,0.18538
2102.03084,0.18703
2103.95931,0.19000
2105.88778,0.19046
2107.81624,0.18861
2109.74471,0.18887
2111.67318,0.18998
2113.60165,0.18966
2115.53012,0.19166
2117.45859,0.19303
2119.38706,0.18924
2121.31553,0.18661
2123.24399,0.18942
2125.17246,0.19170
2127.10093,0.19035
2129.02940,0.19037
2130.95787,0.19384
2132.88634,0.19829
2134.81481,0.20093
2136.74327,0.19819
2138.67174,0.19109
2140.60021,0.18658
2142.52868,0.18727
2144.45715,0.18956
2146.38562,0.19030
2148.31409,0.18950
2150.24255,0.19060
2152.17102,0.19328
2154.09949,0.19234
2156.02796,0.18897
2157.95643,0.18917
2159.88490,0.19265
2161.81337,0.19395
2163.74184,0.19321
2165.67030,0.19490
2167.59877,0.19704
2169.52724,0.19602
2171.45571,0.19447
2173.38418,0.19446
2175.31265,0.19301
2177.24112,0.19028
2179.16958,0.18997
2181.09805,0.18922
2183.02652,0.18601
2184.95499,0.18650
2186.88346,0.18998
2188.81193,0.18967
2190.74040,0.18720
2192.66887,0.18668
2194.59733,0.18677
2196.52580,0.18695
2198.45427,0.18859
2200.38274,0.19061
2202.31121,0.19241
2204.23968,0.19441
2206.16815,0.19586
2208.09661,0.19552
2210.02508,0.19345
2211.95355,0.19214
2213.88202,0.19214
2215.81049,0.19111
2217.73896,0.18794
2219.66743,0.18642
2221.59590,0.18975
2223.52436,0.19249
2225.45283,0.19133
2227.38130,0.19149
2229.30977,0.19474
2231.23824,0.19701
2233.16671,0.19772
2235.09518,0.19859
2237.02364,0.19841
2238.95211,0.19735
2240.88058,0.19604
2242.80905,0.19241
2244.73752,0.18723
2246.66599,0.18467
2248.59446,0.18650
2250.52293,0.19054
2252.45139,0.19246
2254.37986,0.19031
2256.30833,0.18833
2258.23680,0.18959
2260.16527,0.19135
2262.09374,0.19166
2264.02221,0.19184
2265.95067,0.19229
2267.87914,0.19163
2269.80761,0.19127
2271.73608,0.19276
2273.66455,0.19248
2275.59302,0.19035
2277.52149,0.19156
2279.44996,0.19389
2281.37842,0.19231
2283.30689,0.19029
2285.23536,0.19153
2287.16383,0.19280
2289.09230,0.19229
2291.02077,0.18993
2292.94924,0.18472
2294.87770,0.18163
2296.80617,0.18538
2298.73464,0.19195
2300.66311,0.19387
2302.59158,0.19003
2304.52005,0.18756
2306.44852,0.18859
2308.37699,0.18926
2310.30545,0.19010
2312.23392,0.19283
2314.16239,0.19676
2316.09086,0.19754
2318.01933,0.19036
2319.94780,0.18197
2321.87627,0.18318
2323.80473,0.19179
2325.73320,0.20048
2327.66167,0.20564
2329.59014,0.20449
2331.51861,0.20063
2333.44708,0.20204
2335.37555,0.19979
2337.30401,0.18865
2339.23248,0.18839
2341.16095,0.19783
2343.08942,0.19702
2345.01789,0.19493
2346.94636,0.20067
2348.87483,0.20335
2350.80330,0.19791
2352.73176,0.19135
2354.66023,0.19802
2356.58870,0.20811
2358.51717,0.20125
2360.44564,0.19373
2362.37411,0.20727
2364.30258,0.23180
2366.23104,0.23510
2368.15951,0.21588
2370.08798,0.20163
2372.01645,0.19925
2373.94492,0.20159
2375.87339,0.20327
2377.80186,0.20073
2379.73033,0.19558
2381.65879,0.19332
2383.58726,0.19313
2385.51573,0.19108
2387.44420,0.18964
2389.37267,0.19154
2391.30114,0.19305
2393.22961,0.19103
2395.15807,0.18968
2397.08654,0.19194
2399.01501,0.19269
2400.94348,0.18993
2402.87195,0.18943
2404.80042,0.19303
2406.72889,0.19475
2408.65736,0.19373
2410.58582,0.19590
2412.51429,0.19887
2414.44276,0.19704
2416.37123,0.19334
2418.29970,0.19170
2420.22817,0.19150
2422.15664,0.19117
2424.08510,0.19180
2426.01357,0.19336
2427.94204,0.19285
2429.87051,0.19145
2431.79898,0.19138
2433.72745,0.19043
2435.65592,0.18764
2437.58439,0.18728
2439.51285,0.19003
2441.44132,0.19028
2443.36979,0.18924
2445.29826,0.19134
2447.22673,0.19263
2449.15520,0.18885
2451.08367,0.18515
2453.01213,0.18577
2454.94060,0.18665
2456.86907,0.18831
2458.79754,0.19329
2460.72601,0.19666
2462.65448,0.19493
2464.58295,0.19122
2466.51142,0.19071
2468.43988,0.19272
2470.36835,0.19280
2472.29682,0.19267
2474.22529,0.19506
2476.15376,0.19686
2478.08223,0.19487
2480.01070,0.19257
2481.93916,0.19351
2483.86763,0.19414
2485.79610,0.19377
2487.72457,0.19602
2489.65304,0.19805
2491.58151,0.19474
2493.50998,0.19061
2495.43844,0.19227
2497.36691,0.19444
2499.29538,0.19169
2501.22385,0.18815
2503.15232,0.18773
2505.08079,0.18991
2507.00926,0.19320
2508.93773,0.19736
2510.86619,0.19939
2512.79466,0.19670
2514.72313,0.19278
2516.65160,0.18996
2518.58007,0.18811
2520.50854,0.18834
2522.43701,0.19089
2524.36547,0.19339
2526.29394,0.19271
2528.22241,0.19057
2530.15088,0.19151
2532.07935,0.19243
2534.00782,0.18934
2535.93629,0.18786
2537.86476,0.19067
2539.79322,0.19170
2541.72169,0.18886
2543.65016,0.18757
2545.57863,0.19066
2547.50710,0.19304
2549.43557,0.19275
2551.36404,0.19423
2553.29250,0.19624
2555.22097,0.19623
2557.14944,0.19644
2559.07791,0.19506
2561.00638,0.19112
2562.93485,0.19012
2564.86332,0.19288
2566.79179,0.19570
2568.72025,0.19720
2570.64872,0.19624
2572.57719,0.19356
2574.50566,0.19165
2576.43413,0.19059
2578.36260,0.19197
2580.29107,0.19722
2582.21953,0.20066
2584.14800,0.19803
2586.07647,0.19505
2588.00494,0.19402
2589.93341,0.19095
2591.86188,0.18933
2593.79035,0.19330
2595.71882,0.19816
2597.64728,0.19918
2599.57575,0.19903
2601.50422,0.20025
2603.43269,0.19982
2605.36116,0.19877
2607.28963,0.20082
2609.21810,0.20183
2611.14656,0.19870
2613.07503,0.19563
2615.00350,0.19426
2616.93197,0.19320
2618.86044,0.19288
2620.78891,0.19434
2622.71738,0.19591
2624.64585,0.19465
2626.57431,0.19324
2628.50278,0.19450
2630.43125,0.19518
2632.35972,0.19216
2634.28819,0.18723
2636.21666,0.18604
2638.14513,0.18886
2640.07359,0.19093
2642.00206,0.19280
2643.93053,0.19590
2645.85900,0.19710
2647.78747,0.19589
2649.71594,0.19590
2651.64441,0.19695
2653.57288,0.19563
2655.50134,0.19377
2657.42981,0.19499
2659.35828,0.19542
2661.28675,0.19206
2663.21522,0.19014
2665.14369,0.19196
2667.07216,0.19425
2669.00062,0.19644
2670.92909,0.19895
2672.85756,0.20013
2674.78603,0.19958
2676.71450,0.19907
2678.64297,0.19850
2680.57144,0.19713
2682.49990,0.19721
2684.42837,0.19910
2686.35684,0.20025
2688.28531,0.19927
2690.21378,0.19748
2692.14225,0.19684
2694.07072,0.19650
2695.99919,0.19594
2697.92765,0.19728
2699.85612,0.20073
2701.78459,0.20257
2703.71306,0.20212
2705.64153,0.20293
2707.57000,0.20357
2709.49847,0.20132
2711.42693,0.20015
2713.35540,0.20249
2715.28387,0.20280
2717.21234,0.19988
2719.14081,0.19919
2721.06928,0.19882
2722.99775,0.19444
2724.92622,0.18947
2726.85468,0.18971
2728.78315,0.19593
2730.71162,0.20258
2732.64009,0.20588
2734.56856,0.20640
2736.49703,0.20514
2738.42550,0.20479
2740.35396,0.20615
2742.28243,0.20511
2744.21090,0.20104
2746.13937,0.19985
2748.06784,0.20232
2749.99631,0.20310
2751.92478,0.20217
2753.85325,0.20290
2755.78171,0.20436
2757.71018,0.20346
2759.63865,0.20322
2761.56712,0.20588
2763.49559,0.20553
2765.42406,0.20326
2767.35253,0.20611
2769.28099,0.21057
2771.20946,0.20901
2773.13793,0.20525
2775.06640,0.20528
2776.99487,0.20493
2778.92334,0.20145
2780.85181,0.19988
2782.78028,0.20267
2784.70874,0.20453
2786.63721,0.20361
2788.56568,0.20491
2790.49415,0.20646
2792.42262,0.20364
2794.35109,0.20188
2796.27956,0.20607
2798.20802,0.21045
2800.13649,0.21032
2802.06496,0.20850
2803.99343,0.20706
2805.92190,0.20421
2807.85037,0.20036
2809.77884,0.20045
2811.70731,0.20420
2813.63577,0.20412
2815.56424,0.20006
2817.49271,0.19901
2819.42118,0.20098
2821.34965,0.20232
2823.27812,0.20374
2825.20659,0.20577
2827.13505,0.20499
2829.06352,0.20118
2830.99199,0.20078
2832.92046,0.20439
2834.84893,0.20725
2836.77740,0.21020
2838.70587,0.21450
2840.63433,0.21575
2842.56280,0.21106
2844.49127,0.20643
2846.41974,0.20740
2848.34821,0.20729
2850.27668,0.20017
2852.20515,0.19580
2854.13362,0.20082
2856.06208,0.20603
2857.99055,0.20634
2859.91902,0.20740
2861.84749,0.20938
2863.77596,0.20758
2865.70443,0.20699
2867.63290,0.20928
2869.56136,0.20595
2871.48983,0.20089
2873.41830,0.20381
2875.34677,0.20952
2877.27524,0.21208
2879.20371,0.21565
2881.13218,0.21892
2883.06065,0.21531
2884.98911,0.20725
2886.91758,0.20300
2888.84605,0.20400
2890.77452,0.20404
2892.70299,0.20204
2894.63146,0.20287
2896.55993,0.20394
2898.48839,0.20020
2900.41686,0.19714
2902.34533,0.19861
2904.27380,0.19891
2906.20227,0.19791
2908.13074,0.20145
2910.05921,0.20760
2911.98768,0.20802
2913.91614,0.20155
2915.84461,0.19655
2917.77308,0.19774
2919.70155,0.19952
2921.63002,0.20106
2923.55849,0.20652
2925.48696,0.20835
2927.41542,0.20577
2929.34389,0.20901
2931.27236,0.21140
2933.20083,0.20399
2935.12930,0.19481
2937.05777,0.19263
2938.98624,0.19580
2940.91471,0.19821
2942.84317,0.19966
2944.77164,0.20176
2946.70011,0.20076
2948.62858,0.19912
2950.55705,0.20221
2952.48552,0.20445
2954.41399,0.19984
2956.34245,0.19160
2958.27092,0.18936
2960.19939,0.19565
2962.12786,0.20223
2964.05633,0.20953
2965.98480,0.21647
2967.91327,0.21203
2969.84174,0.20343
2971.77020,0.20442
2973.69867,0.20847
2975.62714,0.20590
2977.55561,0.20075
2979.48408,0.20151
2981.41255,0.20571
2983.34102,0.20599
2985.26948,0.20388
2987.19795,0.20219
2989.12642,0.20212
2991.05489,0.20513
2992.98336,0.20764
2994.91183,0.20629
2996.84030,0.20286
2998.76877,0.20257
3000.69723,0.20707
3002.62570,0.21041
3004.55417,0.21000
3006.48264,0.20878
3008.41111,0.20747
3010.33958,0.20362
3012.26805,0.19350
3014.19651,0.17347
3016.12498,0.15168
3018.05345,0.15225
3019.98192,0.17994
3021.91039,0.20776
3023.83886,0.21696
3025.76733,0.21424
3027.69579,0.21382
3029.62426,0.21844
3031.55273,0.22332
3033.48120,0.22586
3035.40967,0.22239
3037.33814,0.21319
3039.26661,0.20712
3041.19508,0.20963
3043.12354,0.21512
3045.05201,0.21612
3046.98048,0.21317
3048.90895,0.21186
3050.83742,0.21380
3052.76589,0.21381
3054.69436,0.20661
3056.62282,0.19870
3058.55129,0.20275
3060.47976,0.21184
3062.40823,0.21108
3064.33670,0.20264
3066.26517,0.19633
3068.19364,0.19993
3070.12211,0.21140
3072.05057,0.21896
3073.97904,0.21611
3075.90751,0.21055
3077.83598,0.21343
3079.76445,0.21784
3081.69292,0.21240
3083.62139,0.20141
3085.54985,0.19547
3087.47832,0.20152
3089.40679,0.21333
3091.33526,0.21514
3093.26373,0.20201
3095.19220,0.19069
3097.12067,0.19654
3099.04914,0.20858
3100.97760,0.20979
3102.90607,0.20158
3104.83454,0.19856
3106.76301,0.20419
3108.69148,0.20860
3110.61995,0.20760
3112.54842,0.20648
3114.47688,0.21002
3116.40535,0.21373
3118.33382,0.21425
3120.26229,0.21346
3122.19076,0.21234
3124.11923,0.21319
3126.04770,0.21686
3127.97617,0.22114
3129.90463,0.22109
3131.83310,0.21860
3133.76157,0.21887
3135.69004,0.21521
3137.61851,0.20708
3139.54698,0.20526
3141.47545,0.20847
3143.40391,0.20900
3145.33238,0.20911
3147.26085,0.21154
3149.18932,0.21220
3151.11779,0.21064
3153.04626,0.21251
3154.97473,0.21561
3156.90320,0.21275
3158.83166,0.20888
3160.76013,0.21132
3162.68860,0.21696
3164.61707,0.22168
3166.54554,0.22404
3168.47401,0.22239
3170.40248,0.21745
3172.33094,0.21244
3174.25941,0.21258
3176.18788,0.21803
3178.11635,0.22204
3180.04482,0.22299
3181.97329,0.22265
3183.90176,0.22148
3185.83022,0.21953
3187.75869,0.21712
3189.68716,0.21672
3191.61563,0.21785
3193.54410,0.21965
3195.47257,0.22334
3197.40104,0.22626
3199.32951,0.22469
3201.25797,0.22191
3203.18644,0.22061
3205.11491,0.21701
3207.04338,0.21269
3208.97185,0.21278
3210.90032,0.21568
3212.82879,0.21706
3214.75725,0.21834
3216.68572,0.22234
3218.61419,0.22419
3220.54266,0.22178
3222.47113,0.22148
3224.39960,0.22299
3226.32807,0.21970
3228.25654,0.21549
3230.18500,0.21554
3232.11347,0.21671
3234.04194,0.21677
3235.97041,0.21492
3237.89888,0.21346
3239.82735,0.21427
3241.75582,0.21475
3243.68428,0.21635
3245.61275,0.22032
3247.54122,0.21938
3249.46969,0.21341
3251.39816,0.21348
3253.32663,0.21765
3255.25510,0.21504
3257.18357,0.20885
3259.11203,0.20894
3261.04050,0.21439
3262.96897,0.21578
3264.89744,0.21235
3266.82591,0.21195
3268.75438,0.21541
3270.68285,0.21947
3272.61131,0.22213
3274.53978,0.22198
3276.46825,0.22016
3278.39672,0.21590
3280.32519,0.21257
3282.25366,0.21332
3284.18213,0.21109
3286.11060,0.20837
3288.03906,0.21285
3289.96753,0.21457
3291.89600,0.20516
3293.82447,0.19704
3295.75294,0.19852
3297.68141,0.20276
3299.60988,0.20710
3301.53834,0.21337
3303.46681,0.21750
3305.39528,0.21494
3307.32375,0.21211
3309.25222,0.21313
3311.18069,0.21379
3313.10916,0.21762
3315.03763,0.22315
3316.96609,0.21940
3318.89456,0.20977
3320.82303,0.20997
3322.75150,0.22081
3324.67997,0.22608
3326.60844,0.22024
3328.53691,0.21378
3330.46537,0.21220
3332.39384,0.21095
3334.32231,0.20895
3336.25078,0.21145
3338.17925,0.21792
3340.10772,0.22053
3342.03619,0.21770
3343.96466,0.21265
3345.89312,0.20818
3347.82159,0.20961
3349.75006,0.21728
3351.67853,0.22344
3353.60700,0.22108
3355.53547,0.21369
3357.46394,0.21162
3359.39240,0.21629
3361.32087,0.22185
3363.24934,0.22686
3365.17781,0.22997
3367.10628,0.22664
3369.03475,0.22129
3370.96322,0.22262
3372.89168,0.22499
3374.82015,0.21913
3376.74862,0.21219
3378.67709,0.21294
3380.60556,0.21550
3382.53403,0.21470
3384.46250,0.21492
3386.39097,0.21659
3388.31943,0.21431
3390.24790,0.20996
3392.17637,0.21033
3394.10484,0.21561
3396.03331,0.21927
3397.96178,0.22012
3399.89025,0.22345
3401.81871,0.22499
3403.74718,0.22020
3405.67565,0.21594
3407.60412,0.21264
3409.53259,0.20794
3411.46106,0.20721
3413.38953,0.20891
3415.31800,0.20786
3417.24646,0.20620
3419.17493,0.20521
3421.10340,0.20515
3423.03187,0.20741
3424.96034,0.20797
3426.88881,0.20700
3428.81728,0.20719
3430.74574,0.20294
3432.67421,0.19780
3434.60268,0.19983
3436.53115,0.20155
3438.45962,0.20019
3440.38809,0.20478
3442.31656,0.21326
3444.24503,0.21489
3446.17349,0.21164
3448.10196,0.21035
3450.03043,0.20793
3451.95890,0.20071
3453.88737,0.19366
3455.81584,0.19438
3457.74431,0.19944
3459.67277,0.20294
3461.60124,0.20599
3463.52971,0.20375
3465.45818,0.19478
3467.38665,0.19106
3469.31512,0.19603
3471.24359,0.19875
3473.17206,0.19497
3475.10052,0.19313
3477.02899,0.19667
3478.95746,0.19587
3480.88593,0.18959
3482.81440,0.18811
3484.74287,0.18960
3486.67134,0.18900
3488.59980,0.19175
3490.52827,0.19791
3492.45674,0.19859
3494.38521,0.19410
3496.31368,0.19006
3498.24215,0.18725
3500.17062,0.18621
3502.09909,0.18561
3504.02755,0.18560
3505.95602,0.18690
3507.88449,0.18661
3509.81296,0.18712
3511.74143,0.18923
3513.66990,0.18569
3515.59837,0.17902
3517.52683,0.17858
3519.45530,0.18282
3521.38377,0.18368
3523.31224,0.17848
3525.24071,0.17654
3527.16918,0.18322
3529.09765,0.18711
3531.02611,0.18294
3532.95458,0.17769
3534.88305,0.17460
3536.81152,0.17161
3538.73999,0.17075
3540.66846,0.17442
3542.59693,0.17691
3544.52540,0.17663
3546.45386,0.17879
3548.38233,0.18101
3550.31080,0.17915
3552.23927,0.17583
3554.16774,0.17408
3556.09621,0.17171
3558.02468,0.16838
3559.95314,0.17115
3561.88161,0.17944
3563.81008,0.18399
3565.73855,0.18466
3567.66702,0.18193
3569.59549,0.17445
3571.52396,0.16805
3573.45243,0.16529
3575.38089,0.16311
3577.30936,0.15915
3579.23783,0.15756
3581.16630,0.15983
3583.09477,0.16235
3585.02324,0.16559
3586.95171,0.16968
3588.88017,0.16605
3590.80864,0.15789
3592.73711,0.15666
3594.66558,0.16329
3596.59405,0.16801
3598.52252,0.16375
3600.45099,0.15687
3602.37946,0.15744
3604.30792,0.16460
3606.23639,0.17297
3608.16486,0.17787
3610.09333,0.17689
3612.02180,0.17375
3613.95027,0.16891
3615.87874,0.16501
3617.80720,0.16645
3619.73567,0.16582
3621.66414,0.15660
3623.59261,0.14926
3625.52108,0.14954
3627.44955,0.15465
3629.37802,0.16081
3631.30649,0.16514
3633.23495,0.16257
3635.16342,0.15256
3637.09189,0.14371
3639.02036,0.14027
3640.94883,0.14154
3642.87730,0.14674
3644.80577,0.15544
3646.73423,0.16964
3648.66270,0.18043
3650.59117,0.16928
3652.51964,0.15325
3654.44811,0.14331
3656.37658,0.13954
3658.30505,0.14047
3660.23352,0.13822
3662.16198,0.13078
3664.09045,0.12585
3666.01892,0.13015
3667.94739,0.14193
3669.87586,0.15021
3671.80433,0.14637
3673.73280,0.14522
3675.66126,0.14931
3677.58973,0.14741
3679.51820,0.14339
3681.44667,0.13840
3683.37514,0.13261
3685.30361,0.13448
3687.23208,0.14942
3689.16055,0.16322
3691.08901,0.15501
3693.01748,0.14315
3694.94595,0.13819
3696.87442,0.13447
3698.80289,0.13250
3700.73136,0.13352
3702.65983,0.13036
3704.58829,0.12530
3706.51676,0.12814
3708.44523,0.13725
3710.37370,0.14679
3712.30217,0.14876
3714.23064,0.13860
3716.15911,0.12959
3718.08757,0.12956
3720.01604,0.13429
3721.94451,0.13853
3723.87298,0.13638
3725.80145,0.12530
3727.72992,0.11902
3729.65839,0.12484
3731.58686,0.13832
3733.51532,0.15455
3735.44379,0.16196
3737.37226,0.15179
3739.30073,0.13907
3741.22920,0.13975
3743.15767,0.15729
3745.08614,0.16898
3747.01460,0.15566
3748.94307,0.14665
3750.87154,0.14994
3752.80001,0.14634
3754.72848,0.13986
3756.65695,0.14079
3758.58542,0.14400
3760.51389,0.14192
3762.44235,0.14136
3764.37082,0.14619
3766.29929,0.14876
3768.22776,0.14779
3770.15623,0.14667
3772.08470,0.14031
3774.01317,0.13216
3775.94163,0.13027
3777.87010,0.13483
3779.79857,0.13679
3781.72704,0.13177
3783.65551,0.12800
3785.58398,0.12797
3787.51245,0.12797
3789.44092,0.12614
3791.36938,0.12493
3793.29785,0.12768
3795.22632,0.13303
3797.15479,0.13995
3799.08326,0.14981
3801.01173,0.15770
3802.94020,0.15251
3804.86866,0.14337
3806.79713,0.13610
3808.72560,0.12589
3810.65407,0.11920
3812.58254,0.12395
3814.51101,0.13786
3816.43948,0.14567
3818.36795,0.14288
3820.29641,0.14322
3822.22488,0.14056
3824.15335,0.13417
3826.08182,0.13433
3828.01029,0.13609
3829.93876,0.13095
3831.86723,0.12564
3833.79569,0.13249
3835.72416,0.14445
3837.65263,0.14601
3839.58110,0.14234
3841.50957,0.14132
3843.43804,0.13357
3845.36651,0.12122
3847.29498,0.11685
3849.22344,0.12383
3851.15191,0.13845
3853.08038,0.15676
3855.00885,0.15647
3856.93732,0.13989
3858.86579,0.12674
3860.79426,0.12200
3862.72272,0.12429
3864.65119,0.12541
3866.57966,0.12597
3868.50813,0.13774
3870.43660,0.14710
3872.36507,0.13391
3874.29354,0.12158
3876.22200,0.12234
3878.15047,0.12610
3880.07894,0.12820
3882.00741,0.13199
3883.93588,0.13899
3885.86435,0.13771
3887.79282,0.12646
3889.72129,0.11981
3891.64975,0.11593
3893.57822,0.10970
3895.50669,0.10892
3897.43516,0.11573
3899.36363,0.12383
3901.29210,0.13154
3903.22057,0.14365
3905.14903,0.14841
3907.07750,0.13787
3909.00597,0.12432
3910.93444,0.11572
3912.86291,0.11370
3914.79138,0.11493
3916.71985,0.11427
3918.64832,0.11277
3920.57678,0.11339
3922.50525,0.11550
3924.43372,0.11638
3926.36219,0.11469
3928.29066,0.11340
3930.21913,0.11297
3932.14760,0.11318
3934.07606,0.11442
3936.00453,0.11348
3937.93300,0.11155
3939.86147,0.11614
3941.78994,0.12582
3943.71841,0.12975
3945.64688,0.12826
3947.57535,0.12558
3949.50381,0.12105
3951.43228,0.11721
3953.36075,0.11509
3955.28922,0.11204
3957.21769,0.10681
3959.14616,0.10439
3961.07463,0.10535
3963.00309,0.10244
3964.93156,0.09839
3966.86003,0.09854
3968.78850,0.09896
3970.71697,0.09831
3972.64544,0.10027
3974.57391,0.10410
3976.50238,0.10547
3978.43084,0.10439
3980.35931,0.10439
3982.28778,0.10635
3984.21625,0.10764
3986.14472,0.10706
3988.07319,0.10925
3990.00166,0.11506
3991.93012,0.11525
3993.85859,0.10974
3995.78706,0.10703
3997.71553,0.10511
3999.64400,0.10217
4001.57247,0.10235
4003.50094,0.10480
4005.42941,0.10477
4007.35787,0.10186
4009.28634,0.10138
4011.21481,0.10191
4013.14328,0.09928
4015.07175,0.09948
4017.00022,0.10439
4018.92869,0.10690
4020.85715,0.10756
4022.78562,0.11095
4024.71409,0.11092
4026.64256,0.10305
4028.57103,0.09624
4030.49950,0.09468
4032.42797,0.09560
4034.35644,0.09850
4036.28490,0.10189
4038.21337,0.10532
4040.14184,0.10483
4042.07031,0.09837
4043.99878,0.09474
4045.92725,0.09471
4047.85572,0.09199
4049.78418,0.09111
4051.71265,0.09614
4053.64112,0.09860
4055.56959,0.09527
4057.49806,0.09863
4059.42653,0.10694
4061.35500,0.10481
4063.28346,0.09878
4065.21193,0.09891
4067.14040,0.09670
4069.06887,0.09175
4070.99734,0.09316
4072.92581,0.09683
4074.85428,0.09497
4076.78275,0.09159
4078.71121,0.09318
4080.63968,0.09676
4082.56815,0.09623
4084.49662,0.09153
4086.42509,0.08745
4088.35356,0.08852
4090.28203,0.09347
4092.21049,0.09787
4094.13896,0.09900
4096.06743,0.09559
4097.99590,0.09135
4099.92437,0.09184
4101.85284,0.09415
4103.78131,0.09225
4105.70978,0.08841
4107.63824,0.08707
4109.56671,0.08777
4111.49518,0.08965
4113.42365,0.09496
4115.35212,0.10006
4117.28059,0.09730
4119.20906,0.09297
4121.13752,0.09132
4123.06599,0.08347
4124.99446,0.07502
4126.92293,0.07744
4128.85140,0.08644
4130.77987,0.09459
4132.70834,0.09680
4134.63681,0.09409
4136.56527,0.09290
4138.49374,0.08973
4140.42221,0.08351
4142.35068,0.08101
4144.27915,0.08122
4146.20762,0.08099
4148.13609,0.08237
4150.06455,0.08685
4151.99302,0.09108
4153.92149,0.09079
4155.84996,0.08696
4157.77843,0.08243
4159.70690,0.07658
4161.63537,0.07358
4163.56384,0.07866
4165.49230,0.08324
4167.42077,0.08323
4169.34924,0.08510
4171.27771,0.08686
4173.20618,0.08416
4175.13465,0.08031
4177.06312,0.08042
4178.99158,0.08363
4180.92005,0.08368
4182.84852,0.07880
4184.77699,0.07610
4186.70546,0.07820
4188.63393,0.07385
4190.56240,0.06143
4192.49087,0.05725
4194.41933,0.06648
4196.34780,0.08065
4198.27627,0.09242
4200.20474,0.09607
4202.13321,0.09186
4204.06168,0.08603
4205.99015,0.07880
4207.91861,0.06557
4209.84708,0.05411
4211.77555,0.05834
4213.70402,0.07247
4215.63249,0.07852
4217.56096,0.07531
4219.48943,0.07231
4221.41789,0.06903
4223.34636,0.06503
4225.27483,0.06566
4227.20330,0.06851
4229.13177,0.06705
4231.06024,0.06586
4232.98871,0.07046
4234.91718,0.07571
4236.84564,0.07808
4238.77411,0.07574
4240.70258,0.06633
4242.63105,0.05500
4244.55952,0.04861
4246.48799,0.04707
4248.41646,0.04977
4250.34492,0.05829
4252.27339,0.06837
4254.20186,0.07410
4256.13033,0.07348
4258.05880,0.06974
4259.98727,0.06973
4261.91574,0.07219
4263.84421,0.07216
4265.77267,0.07069
4267.70114,0.06605
4269.62961,0.05688
4271.55808,0.04873
4273.48655,0.04930
4275.41502,0.06098
4277.34349,0.06958
4279.27195,0.06776
4281.20042,0.06596
4283.12889,0.06511
4285.05736,0.06492
4286.98583,0.06906
4288.91430,0.07046
4290.84277,0.06148
4292.77124,0.05159
4294.69970,0.05690
4296.62817,0.07085
4298.55664,0.07382
4300.48511,0.06767
4302.41358,0.06627
4304.34205,0.06811
4306.27052,0.06190
4308.19898,0.05034
4310.12745,0.05235
4312.05592,0.06441
4313.98439,0.06760
4315.91286,0.06853
4317.84133,0.07375
4319.76980,0.07273
4321.69827,0.06472
4323.62673,0.06178
4325.55520,0.06413
4327.48367,0.05989
4329.41214,0.05235
4331.34061,0.05205
4333.26908,0.05345
4335.19755,0.04977
4337.12601,0.04996
4339.05448,0.05566
4340.98295,0.05724
4342.91142,0.05709
4344.83989,0.05945
4346.76836,0.05801
4348.69683,0.04843
4350.62530,0.03944
4352.55376,0.04257
4354.48223,0.05205
4356.41070,0.05367
4358.33917,0.05190
4360.26764,0.05638
4362.19611,0.05852
4364.12458,0.05419
4366.05304,0.05130
4367.98151,0.04923
4369.90998,0.04551
4371.83845,0.04422
4373.76692,0.04417
4375.69539,0.03660
4377.62386,0.02306
4379.55232,0.02066
4381.48079,0.03355
4383.40926,0.04462
4385.33773,0.04810
4387.26620,0.05177
4389.19467,0.05267
4391.12314,0.04627
4393.05161,0.04010
4394.98007,0.04114
4396.90854,0.04537
4398.83701,0.04540
4400.76548,0.04144
4402.69395,0.03752
4404.62242,0.03366
4406.55089,0.03000
4408.47935,0.03138
4410.40782,0.03762
4412.33629,0.03879
4414.26476,0.03440
4416.19323,0.03545
4418.12170,0.04014
4420.05017,0.04163
4421.97864,0.04583
4423.90710,0.04884
4425.83557,0.04268
4427.76404,0.03789
4429.69251,0.03543
4431.62098,0.02733
4433.54945,0.02277
4435.47792,0.02902
4437.40638,0.03646
4439.33485,0.03654
4441.26332,0.03236
4443.19179,0.03007
4445.12026,0.03377
4447.04873,0.03859
4448.97720,0.03672
4450.90567,0.03301
4452.83413,0.03033
4454.76260,0.02555
4456.69107,0.02215
4458.61954,0.01993
4460.54801,0.01705
4462.47648,0.01758
4464.40495,0.02183
4466.33341,0.02588
4468.26188,0.02762
4470.19035,0.03104
4472.11882,0.03558
4474.04729,0.02874
4475.97576,0.01227
4477.90423,0.00593
4479.83270,0.00990
4481.76116,0.01064
4483.68963,0.01271
4485.61810,0.01844
4487.54657,0.01855
4489.47504,0.01637
4491.40351,0.01956
4493.33198,0.02279
4495.26044,0.01749
4497.18891,0.01200
4499.11738,0.01721
4501.04585,0.02574
4502.97432,0.02874
4504.90279,0.02749
4506.83126,0.02752
4508.75973,0.02919
4510.68819,0.02692
4512.61666,0.02371
4514.54513,0.02732
4516.47360,0.03357
4518.40207,0.03167
4520.33054,0.02276
4522.25901,0.01961
4524.18747,0.02181
4526.11594,0.02310
4528.04441,0.02858
4529.97288,0.03194
4531.90135,0.02388
4533.82982,0.01679
4535.75829,0.01813
4537.68676,0.01451
4539.61522,0.00517
4541.54369,0.00623
4543.47216,0.01467
4545.40063,0.01596
4547.32910,0.01154
4549.25757,0.01203
4551.18604,0.01310
4553.11450,0.00522
4555.04297,0.00043
4556.97144,0.00642
4558.89991,0.01037
4560.82838,0.01114
4562.75685,0.01847
4564.68532,0.02655
4566.61378,0.02078
4568.54225,0.00991
4570.47072,0.01191
4572.39919,0.01330
4574.32766,0.00219
4576.25613,-0.00061
4578.18460,0.01205
4580.11307,0.02318
4582.04153,0.02732
4583.97000,0.02706
4585.89847,0.01793
4587.82694,0.00212
4589.75541,-0.00637
4591.68388,-0.00111
4593.61235,0.00581
4595.54081,0.00335
4597.46928,0.00146
4599.39775,0.00657
4601.32622,0.00562
4603.25469,0.00116
4605.18316,0.00818
4607.11163,0.01586
4609.04010,0.01460
4610.96856,0.01452
4612.89703,0.01848
4614.82550,0.02092
4616.75397,0.01589
4618.68244,0.00687
4620.61091,0.00323
4622.53938,0.00430
4624.46784,0.00987
4626.39631,0.02007
4628.32478,0.02190
4630.25325,0.00975
4632.18172,0.00301
4634.11019,0.01116
4636.03866,0.01706
4637.96713,0.01377
4639.89559,0.01187
4641.82406,0.01404
4643.75253,0.01387
4645.68100,0.01583
4647.60947,0.02374
4649.53794,0.02464
4651.46641,0.01546
4653.39487,0.01161
4655.32334,0.01553
4657.25181,0.01491
4659.18028,0.01044
4661.10875,0.01301
4663.03722,0.02131
4664.96569,0.02318
4666.89416,0.01391
4668.82262,0.00117
4670.75109,-0.00539
4672.67956,-0.00149
4674.60803,0.01082
4676.53650,0.02225
4678.46497,0.02395
4680.39344,0.01972
4682.32190,0.01635
4684.25037,0.01000
4686.17884,0.00136
4688.10731,0.00587
4690.03578,0.02270
4691.96425,0.03057
4693.89272,0.02437
4695.82119,0.01207
4697.74965,0.00306
4699.67812,0.00189
4701.60659,0.00213
4703.53506,0.00428
4705.46353,0.00903
4707.39200,0.01068
4709.32047,0.00918
4711.24893,0.00359
4713.17740,-0.00104
4715.10587,0.00598
4717.03434,0.01676
4718.96281,0.01621
4720.89128,0.00754
4722.81975,-0.00349
4724.74821,-0.01364
4726.67668,-0.01221
4728.60515,-0.00213
4730.53362,0.00454
4732.46209,0.00805
4734.39056,0.00910
4736.31903,0.00853
4738.24750,0.01308
4740.17596,0.02057
4742.10443,0.02309
4744.03290,0.02014
4745.96137,0.01077
4747.88984,-0.00539
4749.81831,-0.01824
4751.74678,-0.01902
4753.67524,-0.01338
4755.60371,-0.00966
4757.53218,0.00035
4759.46065,0.02106
4761.38912,0.02749
4763.31759,0.01311
4765.24606,0.01258
4767.17453,0.03385
4769.10299,0.04426
4771.03146,0.03724
4772.95993,0.03151
4774.88840,0.02174
4776.81687,0.00627
4778.74534,0.00131
4780.67381,0.00497
4782.60227,0.00774
4784.53074,0.00649
4786.45921,0.00626
4788.38768,0.00822
4790.31615,0.00037
4792.24462,-0.00802
4794.17309,-0.00131
4796.10156,0.00748
4798.03002,0.00526
4799.95849,-0.00063
4801.88696,0.00349
4803.81543,0.01909
4805.74390,0.03133
4807.67237,0.03196
4809.60084,0.02605
4811.52930,0.01753
4813.45777,0.00799
4815.38624,0.00502
4817.31471,0.00969
4819.24318,0.00855
4821.17165,0.00528
4823.10012,0.01163
4825.02859,0.01391
4826.95705,0.00342
4828.88552,-0.00346
4830.81399,0.00000
4832.74246,0.00614
4834.67093,0.00919
4836.59940,0.00958
4838.52787,0.01304
4840.45633,0.01340
4842.38480,0.00898
4844.31327,0.01290
4846.24174,0.01489
4848.17021,0.00589
4850.09868,0.00523
4852.02715,0.01408
4853.95562,0.01608
4855.88408,0.01362
4857.81255,0.01278
4859.74102,0.00675
4861.66949,-0.00136
4863.59796,0.00409
4865.52643,0.01516
4867.45490,0.01297
4869.38336,-0.00067
4871.31183,-0.01541
4873.24030,-0.02258
4875.16877,-0.02164
4877.09724,-0.01793
4879.02571,-0.01243
4880.95418,-0.00765
4882.88265,-0.00600
4884.81111,-0.00443
4886.73958,0.00374
4888.66805,0.01196
4890.59652,0.00613
4892.52499,-0.00209
4894.45346,-0.00014
4896.38193,0.00085
4898.31039,0.00179
4900.23886,0.01245
4902.16733,0.01735
4904.09580,0.00809
4906.02427,0.00854
4907.95274,0.01732
4909.88121,0.00876
4911.80967,-0.00693
4913.73814,-0.01177
4915.66661,-0.01200
4917.59508,-0.01144
4919.52355,-0.00720
4921.45202,0.00176
4923.38049,0.01026
4925.30896,0.01669
4927.23742,0.03048
4929.16589,0.04135
4931.09436,0.03024
4933.02283,0.01738
4934.95130,0.02414
4936.87977,0.03134
4938.80824,0.02540
4940.73670,0.01247
4942.66517,-0.00061
4944.59364,-0.00790
4946.52211,-0.01097
4948.45058,-0.00839
4950.37905,0.00624
4952.30752,0.01413
4954.23599,-0.00237
4956.16445,-0.01838
4958.09292,-0.01408
4960.02139,0.00116
4961.94986,0.01632
4963.87833,0.01887
4965.80680,0.00610
4967.73527,-0.00091
4969.66373,0.00952
4971.59220,0.01743
4973.52067,0.00978
4975.44914,0.00502
4977.37761,0.01564
4979.30608,0.02493
4981.23455,0.01373
4983.16302,-0.00244
4985.09148,0.00124
4987.01995,0.00913
4988.94842,0.00277
4990.87689,-0.00562
4992.80536,-0.01584
4994.73383,-0.02559
4996.66230,-0.00686
4998.59076,0.02352
5000.51923,0.02559
5002.44770,0.01120
5004.37617,0.00781
5006.30464,0.01325
5008.23311,0.01249
5010.16158,0.00663
5012.09005,0.00695
5014.01851,0.00885
5015.94698,-0.00108
5017.87545,-0.01332
5019.80392,-0.00964
5021.73239,-0.00385
5023.66086,-0.00800
5025.58933,-0.00249
5027.51779,0.01551
5029.44626,0.02674
5031.37473,0.02719
5033.30320,0.02525
5035.23167,0.02105
5037.16014,0.01336
5039.08861,0.01501
5041.01708,0.02646
5042.94554,0.02889
5044.87401,0.02716
5046.80248,0.03886
5048.73095,0.05121
5050.65942,0.04232
5052.58789,0.02544
5054.51636,0.02689
5056.44482,0.03670
5058.37329,0.03020
5060.30176,0.01826
5062.23023,0.01846
5064.15870,0.02181
5066.08717,0.02237
5068.01564,0.02168
5069.94410,0.01529
5071.87257,0.00145
5073.80104,-0.00500
5075.72951,0.00371
5077.65798,0.00661
5079.58645,0.00377
5081.51492,0.01527
5083.44339,0.02788
5085.37185,0.02662
5087.30032,0.02760
5089.22879,0.03853
5091.15726,0.03789
5093.08573,0.02306
5095.01420,0.01267
5096.94267,0.00159
5098.87113,-0.01137
5100.79960,-0.00727
5102.72807,0.00937
5104.65654,0.01389
5106.58501,0.00940
5108.51348,0.03077
5110.44195,0.06728
5112.37042,0.06615
5114.29888,0.03582
5116.22735,0.02466
5118.15582,0.03457
5120.08429,0.04068
5122.01276,0.03931
5123.94123,0.03955
5125.86970,0.04457
5127.79816,0.04366
5129.72663,0.02619
5131.65510,0.01305
5133.58357,0.01912
5135.51204,0.02563
5137.44051,0.02722
5139.36898,0.02752
5141.29745,0.01603
5143.22591,0.00325
5145.15438,0.00974
5147.08285,0.02068
5149.01132,0.01651
5150.93979,0.01353
5152.86826,0.02674
5154.79673,0.03677
5156.72519,0.03151
5158.65366,0.02790
5160.58213,0.03162
5162.51060,0.03275
5164.43907,0.02724
5166.36754,0.02397
5168.29601,0.03239
5170.22448,0.03461
5172.15294,0.02238
5174.08141,0.01908
5176.00988,0.02230
5177.93835,0.02598
5179.86682,0.03335
5181.79529,0.02797
5183.72376,0.01407
5185.65222,0.01818
5187.58069,0.03614
5189.50916,0.04396
5191.43763,0.04242
5193.36610,0.04240
5195.29457,0.04819
5197.22304,0.05784
5199.15151,0.05378
5201.07997,0.03756
5203.00844,0.02970
5204.93691,0.03137
5206.86538,0.03530
5208.79385,0.03884
5210.72232,0.03778
5212.65079,0.03274
5214.57925,0.03084
5216.50772,0.02651
5218.43619,0.01502
5220.36466,0.02057
5222.29313,0.05148
5224.22160,0.06500
5226.15007,0.03710
5228.07854,0.02416
5230.00700,0.05345
5231.93547,0.06403
5233.86394,0.02485
5235.79241,-0.00864
5237.72088,0.00067
5239.64935,0.03057
5241.57782,0.05546
5243.50628,0.05198
5245.43475,0.01693
5247.36322,0.00041
5249.29169,0.02766
5251.22016,0.05176
5253.14863,0.03739
5255.07710,0.00206
5257.00556,-0.01510
5258.93403,0.00574
5260.86250,0.04395
5262.79097,0.06349
5264.71944,0.05819
5266.64791,0.04041
5268.57638,0.03184
5270.50485,0.05756
5272.43331,0.08646
5274.36178,0.07828
5276.29025,0.06083
5278.21872,0.05967
5280.14719,0.05048
5282.07566,0.02341
5284.00413,0.00844
5285.93259,0.02186
5287.86106,0.03760
5289.78953,0.04211
5291.71800,0.04411
5293.64647,0.03663
5295.57494,0.02206
5297.50341,0.01892
5299.43188,0.03107
5301.36034,0.03296
5303.28881,0.01529
5305.21728,0.01111
5307.14575,0.02723
5309.07422,0.03898
5311.00269,0.04408
5312.93116,0.04826
5314.85962,0.03963
5316.78809,0.01801
5318.71656,0.00976
5320.64503,0.02520
5322.57350,0.04428
5324.50197,0.04464
5326.43044,0.03917
5328.35891,0.05118
5330.28737,0.06041
5332.21584,0.05708
5334.14431,0.05298
5336.07278,0.04170
5338.00125,0.02918
5339.92972,0.03366
5341.85819,0.04398
5343.78665,0.04040
5345.71512,0.02749
5347.64359,0.02667
5349.57206,0.02989
5351.50053,0.02931
5353.42900,0.04879
5355.35747,0.07536
5357.28594,0.07003
5359.21440,0.06170
5361.14287,0.07588
5363.07134,0.09085
5364.99981,0.08843
5366.92828,0.07174
5368.85675,0.06346
5370.78522,0.06333
5372.71368,0.04578
5374.64215,0.02955
5376.57062,0.04531
5378.49909,0.05548
5380.42756,0.04298
5382.35603,0.04450
5384.28450,0.06668
5386.21297,0.07171
5388.14143,0.05622
5390.06990,0.05967
5391.99837,0.07854
5393.92684,0.08133
5395.85531,0.07576
5397.78378,0.08318
5399.71225,0.08045
5401.64071,0.05165
5403.56918,0.03409
5405.49765,0.03829
5407.42612,0.04321
5409.35459,0.06729
5411.28306,0.09811
5413.21153,0.09187
5415.13999,0.07271
5417.06846,0.06871
5418.99693,0.06592
5420.92540,0.05969
5422.85387,0.05340
5424.78234,0.05190
5426.71081,0.05420
5428.63928,0.05415
5430.56774,0.07001
5432.49621,0.10805
5434.42468,0.12772
5436.35315,0.10458
5438.28162,0.08023
5440.21009,0.07688
5442.13856,0.07762
5444.06702,0.07837
5445.99549,0.09266
5447.92396,0.10504
5449.85243,0.08715
5451.78090,0.07682
5453.70937,0.10191
5455.63784,0.11682
5457.56631,0.10127
5459.49477,0.10137
5461.42324,0.11610
5463.35171,0.11007
5465.28018,0.08994
5467.20865,0.07425
5469.13712,0.07426
5471.06559,0.08402
5472.99405,0.09745
5474.92252,0.11801
5476.85099,0.11926
5478.77946,0.09295
5480.70793,0.07261
5482.63640,0.06888
5484.56487,0.05866
5486.49334,0.04954
5488.42180,0.06793
5490.35027,0.08774
5492.27874,0.07500
5494.20721,0.05732
5496.13568,0.06321
5498.06415,0.07164
5499.99262,0.08309
5501.92108,0.10349
5503.84955,0.08921
5505.77802,0.04042
5507.70649,0.01971
5509.63496,0.04936
5511.56343,0.09241
5513.49190,0.09861
5515.42037,0.07501
5517.34883,0.06966
5519.27730,0.06990
5521.20577,0.05631
5523.13424,0.06067
5525.06271,0.10003
5526.99118,0.13469
5528.91965,0.12724
5530.84811,0.09383
5532.77658,0.06544
5534.70505,0.04741
5536.63352,0.04385
5538.56199,0.05507
5540.49046,0.06250
5542.41893,0.05996
5544.34740,0.05424
5546.27586,0.04202
5548.20433,0.02916
5550.13280,0.03123
5552.06127,0.04280
5553.98974,0.05429
5555.91821,0.06736
5557.84668,0.07940
5559.77514,0.09078
5561.70361,0.08839
5563.63208,0.07936
5565.56055,0.09591
5567.48902,0.10403
5569.41749,0.07773
5571.34596,0.05748
5573.27443,0.05873
5575.20289,0.06787
5577.13136,0.08478
5579.05983,0.10779
5580.98830,0.11145
5582.91677,0.08780
5584.84524,0.08025
5586.77371,0.10103
5588.70217,0.10935
5590.63064,0.09263
5592.55911,0.07799
5594.48758,0.08438
5596.41605,0.09459
5598.34452,0.09090
5600.27299,0.10142
5602.20145,0.11087
5604.12992,0.07560
5606.05839,0.04775
5607.98686,0.06918
5609.91533,0.08252
5611.84380,0.06672
5613.77227,0.06612
5615.70074,0.07729
5617.62920,0.07636
5619.55767,0.07691
5621.48614,0.08761
5623.41461,0.10202
5625.34308,0.11577
5627.27155,0.12011
5629.20002,0.10487
5631.12848,0.07660
5633.05695,0.06272
5634.98542,0.06969
5636.91389,0.07852
5638.84236,0.07746
5640.77083,0.06509
5642.69930,0.05663
5644.62777,0.05647
5646.55623,0.06142
5648.48470,0.08715
5650.41317,0.12551
5652.34164,0.14507
5654.27011,0.13895
5656.19858,0.12065
5658.12705,0.10408
5660.05551,0.09209
5661.98398,0.09110
5663.91245,0.12122
5665.84092,0.15188
5667.76939,0.13162
5669.69786,0.08733
5671.62633,0.07055
5673.55480,0.07431
5675.48326,0.08136
5677.41173,0.09746
5679.34020,0.10128
5681.26867,0.08450
5683.19714,0.08180
5685.12561,0.09699
5687.05408,0.10110
5688.98254,0.08067
5690.91101,0.06995
5692.83948,0.09509
5694.76795,0.09956
5696.69642,0.06138
5698.62489,0.05774
5700.55336,0.09070
5702.48183,0.09082
5704.41029,0.06298
5706.33876,0.03900
5708.26723,0.02605
5710.19570,0.01756
5712.12417,0.01054
5714.05264,0.01014
5715.98111,-0.00448
5717.90957,-0.01685
5719.83804,0.02023
5721.76651,0.07059
5723.69498,0.08618
5725.62345,0.08028
5727.55192,0.07611
5729.48039,0.06980
5731.40886,0.04683
5733.33732,0.03109
5735.26579,0.04202
5737.19426,0.04117
5739.12273,0.02866
5741.05120,0.04967
5742.97967,0.08471
5744.90814,0.09679
5746.83660,0.09119
5748.76507,0.08767
5750.69354,0.07821
5752.62201,0.04239
5754.55048,0.01358
5756.47895,0.01675
5758.40742,0.01640
5760.33588,0.00955
5762.26435,0.03625
5764.19282,0.08090
5766.12129,0.09637
5768.04976,0.09167
5769.97823,0.08841
5771.90670,0.07956
5773.83517,0.06439
5775.76363,0.06278
5777.69210,0.07191
5779.62057,0.06980
5781.54904,0.06853
5783.47751,0.09061
5785.40598,0.11089
5787.33445,0.09074
5789.26291,0.05671
5791.19138,0.04519
5793.11985,0.05860
5795.04832,0.08548
5796.97679,0.09994
5798.90526,0.10489
5800.83373,0.09655
5802.76220,0.07014
5804.69066,0.06968
5806.61913,0.08976
5808.54760,0.08044
5810.47607,0.05075
5812.40454,0.03540
5814.33301,0.05081
5816.26148,0.09578
5818.18994,0.13745
5820.11841,0.12093
5822.04688,0.04769
5823.97535,0.00751
5825.90382,0.03862
5827.83229,0.06728
5829.76076,0.06023
5831.68923,0.05625
5833.61769,0.05551
5835.54616,0.06843
5837.47463,0.10525
5839.40310,0.11128
5841.33157,0.08166
5843.26004,0.06082
5845.18851,0.03399
5847.11697,0.00375
5849.04544,0.01653
5850.97391,0.06654
5852.90238,0.10733
5854.83085,0.10583
5856.75932,0.06382
5858.68779,0.04905
5860.61626,0.07700
5862.54472,0.06696
5864.47319,0.02573
5866.40166,0.03853
5868.33013,0.09530
5870.25860,0.12135
5872.18707,0.10242
5874.11554,0.08417
5876.04400,0.07350
5877.97247,0.05663
5879.90094,0.06928
5881.82941,0.10476
5883.75788,0.11538
5885.68635,0.10290
5887.61482,0.09012
5889.54329,0.08075
5891.47175,0.05986
5893.40022,0.03714
5895.32869,0.05664
5897.25716,0.10179
5899.18563,0.10055
5901.11410,0.06952
5903.04257,0.07246
5904.97103,0.09671
5906.89950,0.11037
5908.82797,0.11142
5910.75644,0.09881
5912.68491,0.06685
5914.61338,0.02887
5916.54185,0.04085
5918.47032,0.10489
5920.39878,0.11973
5922.32725,0.07517
5924.25572,0.04487
5926.18419,0.02077
5928.11266,0.01185
5930.04113,0.05612
5931.96960,0.11277
5933.89806,0.13242
5935.82653,0.12682
5937.75500,0.12859
5939.68347,0.13883
5941.61194,0.12637
5943.54041,0.06990
5945.46888,0.00194
5947.39734,-0.03613
5949.32581,-0.01637
5951.25428,0.05070
5953.18275,0.09349
5955.11122,0.09255
5957.03969,0.09237
5958.96816,0.10279
5960.89663,0.08976
5962.82509,0.06238
5964.75356,0.07495
5966.68203,0.12016
5968.61050,0.14571
5970.53897,0.14021
5972.46744,0.10037
5974.39591,0.02524
5976.32437,-0.03219
5978.25284,-0.01765
5980.18131,0.05159
5982.10978,0.10103
5984.03825,0.09590
5985.96672,0.07975
5987.89519,0.07966
5989.82366,0.07397
5991.75212,0.08673
5993.68059,0.14051
5995.60906,0.14371
5997.53753,0.07195
5999.46600,0.04869
6001.39447,0.08640
6003.32294,0.08713
6005.25140,0.05181
6007.17987,0.04322
6009.10834,0.02985
6011.03681,0.00584
6012.96528,0.01658
6014.89375,0.05444
6016.82222,0.06947
6018.75069,0.05100
6020.67915,0.06946
6022.60762,0.10798
6024.53609,0.09047
6026.46456,0.06445
6028.39303,0.11972
6030.32150,0.20210
6032.24997,0.18164
6034.17843,0.10704
6036.10690,0.09775
6038.03537,0.09987
6039.96384,0.05805
6041.89231,0.04433
6043.82078,0.06324
6045.74925,0.06315
6047.67772,0.04897
6049.60618,0.02652
6051.53465,0.02534
6053.46312,0.04826
6055.39159,0.04879
6057.32006,0.04733
6059.24853,0.07965
6061.17700,0.11928
6063.10546,0.12152
6065.03393,0.07759
6066.96240,0.03741
6068.89087,0.06357
6070.81934,0.13853
6072.74781,0.17200
6074.67628,0.13221
6076.60475,0.07458
6078.53321,0.06435
6080.46168,0.08713
6082.39015,0.08492
6084.31862,0.06921
6086.24709,0.07617
6088.17556,0.09541
6090.10403,0.11741
6092.03249,0.13312
6093.96096,0.12588
6095.88943,0.12669
6097.81790,0.15396
6099.74637,0.18249
6101.67484,0.19318
6103.60331,0.17752
6105.53177,0.15969
6107.46024,0.14842
6109.38871,0.08776
6111.31718,0.00665
6113.24565,0.02639
6115.17412,0.09785
6117.10259,0.07929
6119.03106,0.00026
6120.95952,-0.00433
6122.88799,0.05377
6124.81646,0.08231
6126.74493,0.08871
6128.67340,0.11762
6130.60187,0.11256
6132.53034,0.06564
6134.45880,0.06598
6136.38727,0.11137
6138.31574,0.11461
6140.24421,0.08626
6142.17268,0.08420
6144.10115,0.07518
6146.02962,0.06240
6147.95809,0.06345
6149.88655,0.04236
6151.81502,0.00289
6153.74349,-0.02006
6155.67196,-0.00305
6157.60043,0.05013
6159.52890,0.08457
6161.45737,0.06092
6163.38583,0.01911
6165.31430,0.01179
6167.24277,0.03843
6169.17124,0.07632
6171.09971,0.11895
6173.02818,0.14410
6174.95665,0.12652
6176.88512,0.08203
6178.81358,0.03004
6180.74205,-0.01995
6182.67052,-0.02625
6184.59899,0.01993
6186.52746,0.03830
6188.45593,0.02426
6190.38440,0.06071
6192.31286,0.08743
6194.24133,0.05773
6196.16980,0.04495
6198.09827,0.07332
6200.02674,0.09682
6201.95521,0.10966
6203.88368,0.12101
6205.81215,0.09689
6207.74061,0.05003
6209.66908,0.04665
6211.59755,0.09763
6213.52602,0.09516
6215.45449,0.02177
6217.38296,0.01892
6219.31143,0.08493
6221.23989,0.10780
6223.16836,0.09198
6225.09683,0.06264
6227.02530,0.02690
6228.95377,0.02095
6230.88224,0.05386
6232.81071,0.11171
6234.73918,0.15174
6236.66764,0.14125
6238.59611,0.10739
6240.52458,0.06816
6242.45305,0.04596
6244.38152,0.06016
6246.30999,0.07025
6248.23846,0.07130
6250.16692,0.07296
6252.09539,0.06474
6254.02386,0.08340
6255.95233,0.12668
6257.88080,0.15359
6259.80927,0.16541
6261.73774,0.15760
6263.66621,0.12442
6265.59467,0.10966
6267.52314,0.13412
6269.45161,0.15181
6271.38008,0.16572
6273.30855,0.20057
6275.23702,0.18549
6277.16549,0.08670
6279.09395,0.03966
6281.02242,0.09954
6282.95089,0.14189
6284.87936,0.10540
6286.80783,0.08825
6288.73630,0.12928
6290.66477,0.14790
6292.59323,0.12903
6294.52170,0.13609
6296.45017,0.14624
6298.37864,0.11859
6300.30711,0.07190
6302.23558,0.05859
6304.16405,0.09536
6306.09252,0.10782
6308.02098,0.07514
6309.94945,0.07002
6311.87792,0.11139
6313.80639,0.13300
6315.73486,0.08510
6317.66333,-0.00467
6319.59180,-0.07992
6321.52026,-0.09551
6323.44873,-0.01932
6325.37720,0.07967
6327.30567,0.11906
6329.23414,0.13096
6331.16261,0.14796
6333.09108,0.15170
6335.01955,0.14245
6336.94801,0.11780
6338.87648,0.10376
6340.80495,0.12311
6342.73342,0.14263
6344.66189,0.13296
6346.59036,0.08525
6348.51883,0.04451
6350.44729,0.06899
6352.37576,0.09835
6354.30423,0.08596
6356.23270,0.09769
6358.16117,0.14711
6360.08964,0.17353
6362.01811,0.12995
6363.94658,0.05410
6365.87504,0.05750
6367.80351,0.13317
6369.73198,0.16277
6371.66045,0.15439
6373.58892,0.14948
6375.51739,0.13627
6377.44586,0.12065
6379.37432,0.11848
6381.30279,0.14445
6383.23126,0.18387
6385.15973,0.21280
6387.08820,0.23277
6389.01667,0.19892
6390.94514,0.11412
6392.87361,0.05762
6394.80207,0.00848
6396.73054,-0.05553
6398.65901,-0.05283
6400.58748,0.02998
6402.51595,0.08586
6404.44442,0.06801
6406.37289,0.06128
6408.30135,0.06271
6410.22982,0.01328
6412.15829,-0.00749
6414.08676,0.00059
6416.01523,-0.01381
6417.94370,0.00164
6419.87217,0.04399
6421.80064,0.06656
6423.72910,0.09120
6425.65757,0.12734
6427.58604,0.14310
6429.51451,0.13082
6431.44298,0.10613
6433.37145,0.08856
6435.29992,0.08710
6437.22838,0.08309
6439.15685,0.05745
6441.08532,0.00588
6443.01379,-0.02183
6444.94226,0.03947
6446.87073,0.10400
6448.79920,0.11881
6450.72766,0.14739
6452.65613,0.15631
6454.58460,0.11898
6456.51307,0.10693
6458.44154,0.13431
6460.37001,0.15499
6462.29848,0.14164
6464.22695,0.10739
6466.15541,0.07693
6468.08388,0.09120
6470.01235,0.15694
6471.94082,0.17514
6473.86929,0.13712
6475.79776,0.12349
6477.72623,0.13964
6479.65469,0.13919
6481.58316,0.11128
6483.51163,0.12686
6485.44010,0.18600
6487.36857,0.16977
6489.29704,0.06354
6491.22551,0.01398
6493.15398,0.07952
6495.08244,0.12348
6497.01091,0.09126
6498.93938,0.07753
6500.86785,0.11241
6502.79632,0.12464
6504.72479,0.10765
6506.65326,0.10855
6508.58172,0.13966
6510.51019,0.15632
6512.43866,0.13021
6514.36713,0.13053
6516.29560,0.15133
6518.22407,0.12085
6520.15254,0.07235
6522.08101,0.03893
6524.00947,0.02610
6525.93794,0.06881
6527.86641,0.13260
6529.79488,0.13522
6531.72335,0.07867
6533.65182,0.03880
6535.58029,0.04695
6537.50875,0.06432
6539.43722,0.04984
6541.36569,0.03562
6543.29416,0.07654
6545.22263,0.10121
6547.15110,0.08330
6549.07957,0.06856
6551.00804,0.03773
6552.93650,0.06501
6554.86497,0.15927
6556.79344,0.13342
6558.72191,-0.01307
6560.65038,-0.09736
6562.57885,-0.06910
6564.50732,-0.02674
6566.43578,-0.02127
6568.36425,-0.02620
6570.29272,-0.06188
6572.22119,-0.11050
6574.14966,-0.08535
6576.07813,0.00705
6578.00660,0.02889
6579.93507,-0.05961
6581.86353,-0.11330
6583.79200,-0.08839
6585.72047,-0.05208
6587.64894,0.00888
6589.57741,0.09314
6591.50588,0.12005
6593.43435,0.04733
6595.36281,-0.00605
6597.29128,0.04188
6599.21975,0.09136
6601.14822,0.03719
6603.07669,-0.07022
6605.00516,-0.11468
6606.93363,-0.10559
6608.86210,-0.04486
6610.79056,0.07918
6612.71903,0.15902
6614.64750,0.13457
6616.57597,0.10387
6618.50444,0.13434
6620.43291,0.16508
6622.36138,0.13286
6624.28984,0.07786
6626.21831,0.07523
6628.14678,0.08312
6630.07525,0.03888
6632.00372,-0.00856
6633.93219,0.00200
6635.86066,0.08449
6637.78912,0.14418
6639.71759,0.12444
6641.64606,0.10603
6643.57453,0.12937
6645.50300,0.14821
6647.43147,0.11864
6649.35994,0.06010
6651.28841,-0.00252
6653.21687,-0.02584
6655.14534,0.02113
6657.07381,0.08158
6659.00228,0.12807
6660.93075,0.16734
6662.85922,0.16013
6664.78769,0.13463
6666.71615,0.12314
6668.64462,0.10576
6670.57309,0.08339
6672.50156,0.09220
6674.43003,0.16954
6676.35850,0.22541
6678.28697,0.13035
6680.21544,0.01879
6682.14390,0.06368
6684.07237,0.10461
6686.00084,0.00186
6687.92931,-0.05998
6689.85778,-0.00355
6691.78625,0.01385
6693.71472,0.02413
6695.64318,0.09359
6697.57165,0.12992
6699.50012,0.13070
6701.42859,0.15271
6703.35706,0.13180
6705.28553,0.06710
6707.21400,0.02796
6709.14247,0.05407
6711.07093,0.10707
6712.99940,0.12108
6714.92787,0.12743
6716.85634,0.16547
6718.78481,0.13655
6720.71328,-0.01550
6722.64175,-0.14914
6724.57021,-0.17086
6726.49868,-0.15175
6728.42715,-0.11888
6730.35562,-0.04837
6732.28409,0.01711
6734.21256,0.07752
6736.14103,0.14269
6738.06950,0.13985
6739.99796,0.04119
6741.92643,0.00870
6743.85490,0.16115
6745.78337,0.27052
6747.71184,0.20493
6749.64031,0.10982
6751.56878,0.04686
6753.49724,-0.02422
6755.42571,-0.02113
6757.35418,0.06281
6759.28265,0.15854
6761.21112,0.20811
6763.13959,0.14972
6765.06806,0.11271
6766.99653,0.17541
6768.92499,0.22363
6770.85346,0.22528
6772.78193,0.19455
6774.71040,0.09483
6776.63887,-0.02488
6778.56734,-0.01823
6780.49581,0.04590
6782.42427,0.01399
6784.35274,-0.07582
6786.28121,-0.14223
6788.20968,-0.12539
6790.13815,0.00063
6792.06662,0.08399
6793.99509,0.01371
6795.92355,-0.07462
6797.85202,-0.04872
6799.78049,0.04148
6801.70896,0.02244
6803.63743,-0.08496
6805.56590,-0.06559
6807.49437,0.03242
6809.42284,0.07968
6811.35130,0.03530
6813.27977,-0.07351
6815.20824,-0.11387
6817.13671,-0.05376
6819.06518,0.03461
6820.99365,0.12439
6822.92212,0.14289
6824.85058,0.05864
6826.77905,-0.00444
6828.70752,-0.02694
6830.63599,-0.07664
6832.56446,-0.09270
6834.49293,-0.03169
6836.42140,0.01402
6838.34987,0.01296
6840.27833,0.04474
6842.20680,0.09073
6844.13527,0.04432
6846.06374,-0.10947
6847.99221,-0.16726
6849.92068,-0.03036
6851.84915,0.10914
6853.77761,0.18967
6855.70608,0.17686
6857.63455,0.07671
6859.56302,0.02048
6861.49149,-0.02524
6863.41996,-0.09175
6865.34843,-0.08341
6867.27690,-0.00999
6869.20536,0.04072
6871.13383,0.07017
6873.06230,0.11239
6874.99077,0.16228
6876.91924,0.15944
6878.84771,0.06816
6880.77618,0.01497
6882.70464,0.08395
6884.63311,0.17412
6886.56158,0.22321
6888.49005,0.20873
6890.41852,0.08425
6892.34699,-0.05451
6894.27546,-0.06191
6896.20393,-0.02373
6898.13239,-0.06473
6900.06086,-0.11014
6901.98933,-0.11837
6903.91780,-0.15051
6905.84627,-0.17714
6907.77474,-0.20583
6909.70321,-0.22591
6911.63167,-0.12561
6913.56014,0.03402
6915.48861,0.10659
6917.41708,0.13329
6919.34555,0.19771
6921.27402,0.29479
6923.20249,0.32132
6925.13096,0.23572
6927.05942,0.20353
6928.98789,0.29773
6930.91636,0.29600
6932.84483,0.10591
6934.77330,-0.03591
6936.70177,-0.04004
6938.63024,0.00597
6940.55870,0.07959
6942.48717,0.21002
6944.41564,0.28628
6946.34411,0.20526
6948.27258,0.06707
6950.20105,0.00579
6952.12952,-0.03804
6954.05799,-0.08383
6955.98645,-0.04814
6957.91492,0.00279
6959.84339,-0.00472
6961.77186,0.02673
6963.70033,0.12849
6965.62880,0.12015
6967.55727,-0.00573
6969.48573,-0.01957
6971.41420,0.03077
6973.34267,0.01353
6975.27114,0.01334
6977.19961,0.03090
6979.12808,0.00923
6981.05655,-0.04117
6982.98501,-0.00298
6984.91348,0.10896
6986.84195,0.11889
6988.77042,0.06515
6990.69889,0.00926
6992.62736,-0.06490
6994.55583,-0.06962
6996.48430,-0.02740
6998.41276,-0.06271
7000.34123,-0.03740
7002.26970,0.09487
7004.19817,0.12380
7006.12664,0.05675
7008.05511,0.07220
7009.98358,0.11383
7011.91204,0.06451
7013.84051,0.06560
7015.76898,0.16238
7017.69745,0.18107
7019.62592,0.12991
7021.55439,0.11034
7023.48286,0.09964
7025.41133,0.10440
7027.33979,0.20522
7029.26826,0.28831
7031.19673,0.23247
7033.12520,0.11956
7035.05367,-0.05664
7036.98214,-0.16565
7038.91061,-0.16003
7040.83907,-0.15284
7042.76754,-0.08796
7044.69601,0.08450
7046.62448,0.21074
7048.55295,0.18789
7050.48142,0.13721
7052.40989,0.13806
7054.33836,0.08746
7056.26682,-0.05141
7058.19529,-0.12842
7060.12376,-0.08395
7062.05223,-0.07351
7063.98070,-0.07885
7065.90917,0.04213
7067.83764,0.18640
7069.76610,0.22463
7071.69457,0.22914
7073.62304,0.20494
7075.55151,0.11935
7077.47998,0.09839
7079.40845,0.16987
7081.33692,0.19558
7083.26539,0.13960
7085.19385,0.06047
7087.12232,-0.02901
7089.05079,-0.05186
7090.97926,-0.10356
7092.90773,-0.24201
7094.83620,-0.21747
7096.76467,-0.05864
7098.69313,-0.05574
7100.62160,-0.12369
7102.55007,-0.11409
7104.47854,-0.14355
7106.40701,-0.15773
7108.33548,0.00198
7110.26395,0.13513
7112.19242,0.09699
7114.12088,0.06239
7116.04935,0.07854
7117.97782,0.01333
7119.90629,-0.07056
7121.83476,-0.09172
7123.76323,-0.03604
7125.69170,0.09367
7127.62016,0.18294
7129.54863,0.18775
7131.47710,0.15750
7133.40557,0.08844
7135.33404,0.00789
7137.26251,-0.00641
7139.19098,0.04615
7141.11944,0.11844
7143.04791,0.20180
7144.97638,0.22442
7146.90485,0.12423
7148.83332,0.06678
7150.76179,0.07406
7152.69026,-0.01928
7154.61873,-0.10923
7156.54719,0.02269
7158.47566,0.17637
7160.40413,0.09507
7162.33260,-0.07644
7164.26107,-0.09776
7166.18954,-0.01498
7168.11801,0.04563
7170.04647,0.14483
7171.97494,0.21380
7173.90341,0.11761
7175.83188,-0.01551
7177.76035,-0.03231
7179.68882,0.06203
7181.61729,0.16923
7183.54576,0.15115
7185.47422,0.08776
7187.40269,0.09744
7189.33116,0.10053
7191.25963,0.06652
7193.18810,0.08145
7195.11657,0.09121
7197.04504,0.01332
7198.97350,-0.06743
7200.90197,-0.09395
7202.83044,-0.14412
7204.75891,-0.22096
7206.68738,-0.21819
7208.61585,-0.11729
7210.54432,0.06362
7212.47279,0.15703
7214.40125,0.10737
7216.32972,0.10780
7218.25819,0.14678
7220.18666,0.09001
7222.11513,0.09428
7224.04360,0.14861
7225.97207,0.10600
7227.90053,-0.02230
7229.82900,-0.06757
7231.75747,0.08369
7233.68594,0.21923
7235.61441,0.12456
7237.54288,-0.10038
7239.47135,-0.17941
7241.39982,-0.04347
7243.32828,0.11000
7245.25675,0.14451
7247.18522,0.15470
7249.11369,0.16565
7251.04216,0.18003
7252.97063,0.22990
7254.89910,0.23676
7256.82756,0.16021
7258.75603,-0.02378
7260.68450,-0.20043
7262.61297,-0.07690
7264.54144,0.11804
7266.46991,0.13056
7268.39838,0.12529
7270.32685,0.15726
7272.25531,0.21410
7274.18378,0.21984
7276.11225,0.17259
7278.04072,0.20605
7279.96919,0.25983
7281.89766,0.16576
7283.82613,0.07586
7285.75459,0.05743
7287.68306,-0.03053
7289.61153,-0.14740
7291.54000,-0.09219
7293.46847,0.01083
7295.39694,0.05947
7297.32541,0.12011
7299.25387,0.11911
7301.18234,0.13237
7303.11081,0.24693
7305.03928,0.27866
7306.96775,0.11417
7308.89622,-0.08635
7310.82469,-0.11203
7312.75316,-0.03784
7314.68162,-0.01437
7316.61009,0.07159
7318.53856,0.26223
7320.46703,0.22308
7322.39550,-0.01715
7324.32397,-0.10958
7326.25244,-0.01647
7328.18090,0.06896
7330.10937,-0.01160
7332.03784,-0.10022
7333.96631,-0.04196
7335.89478,-0.01415
7337.82325,-0.07583
7339.75172,-0.06632
7341.68019,0.05996
7343.60865,0.10325
7345.53712,0.11299
7347.46559,0.17834
7349.39406,0.18617
7351.32253,0.06555
7353.25100,-0.07505
7355.17947,-0.18881
7357.10793,-0.18935
7359.03640,0.10534
7360.96487,0.51693
7362.89334,0.67764
7364.82181,0.50295
7366.75028,0.28809
7368.67875,0.25873
7370.60722,0.15952
7372.53568,-0.13959
7374.46415,-0.38673
7376.39262,-0.32706
7378.32109,-0.18032
7380.24956,-0.02463
7382.17803,0.19582
7384.10650,0.37449
7386.03496,0.35783
7387.96343,0.22167
7389.89190,0.15079
7391.82037,0.09192
7393.74884,0.01418
7395.67731,-0.01689
7397.60578,0.08468
7399.53425,0.25023
7401.46271,0.22102
7403.39118,-0.01560
7405.31965,-0.17487
7407.24812,-0.12860
7409.17659,0.04213
7411.10506,0.18723
7413.03353,0.16039
7414.96199,0.06640
7416.89046,0.09392
7418.81893,0.20100
7420.74740,0.17062
7422.67587,0.09316
7424.60434,0.08695
7426.53281,0.14461
7428.46128,0.15728
7430.38974,0.07273
7432.31821,0.13277
7434.24668,0.33012
7436.17515,0.38945
7438.10362,0.30666
7440.03209,0.28646
7441.96056,0.33220
7443.88902,0.21811
7445.81749,0.00430
7447.74596,-0.11808
7449.67443,-0.17009
7451.60290,-0.13358
7453.53137,-0.02983
7455.45984,0.08860
7457.38831,0.17545
7459.31677,0.11517
7461.24524,-0.11175
7463.17371,-0.30064
7465.10218,-0.23300
7467.03065,0.03890
7468.95912,0.24636
7470.88759,0.32433
7472.81605,0.36464
7474.74452,0.43806
7476.67299,0.41027
7478.60146,0.18211
7480.52993,0.01903
7482.45840,0.02076
7484.38687,0.00987
7486.31533,0.08853
7488.24380,0.24204
7490.17227,0.20502
7492.10074,0.08268
7494.02921,0.14216
7495.95768,0.26691
7497.88615,0.31824
