399.19301,1.55343
401.12148,-0.27470
403.04995,-0.46700
404.97842,-0.17095
406.90689,0.01887
408.83536,0.05254
410.76382,0.06409
412.69229,0.10224
414.62076,0.09409
416.54923,0.06387
418.47770,0.16574
420.40617,0.30139
422.33464,0.24319
424.26311,0.12413
426.19157,0.08022
428.12004,0.09971
430.04851,0.12921
431.97698,0.09746
433.90545,0.08683
435.83392,0.15924
437.76239,0.20409
439.69085,0.19403
441.61932,0.15700
443.54779,0.08662
445.47626,0.04689
447.40473,0.09133
449.33320,0.14393
451.26167,0.17238
453.19013,0.18646
455.11860,0.16816
457.04707,0.11991
458.97554,0.08268
460.90401,0.08733
462.83248,0.09375
464.76095,0.08300
466.68942,0.09279
468.61788,0.11343
470.54635,0.10242
472.47482,0.06526
474.40329,0.01969
476.33176,0.03211
478.26023,0.07669
480.18870,0.09955
482.11716,0.12553
484.04563,0.14428
485.97410,0.13829
487.90257,0.14896
489.83104,0.16045
491.75951,0.11692
493.68798,0.07805
495.61645,0.14085
497.54491,0.20888
499.47338,0.18161
501.40185,0.13542
503.33032,0.12810
505.25879,0.10695
507.18726,0.06861
509.11573,0.08865
511.04419,0.12773
512.97266,0.12788
514.90113,0.11741
516.82960,0.10884
518.75807,0.11041
520.68654,0.13927
522.61501,0.17058
524.54348,0.19390
526.47194,0.20515
528.40041,0.19096
530.32888,0.18211
532.25735,0.19540
534.18582,0.18968
536.11429,0.15236
538.04276,0.13131
539.97122,0.12746
541.89969,0.11987
543.82816,0.12805
545.75663,0.12367
547.68510,0.07624
549.61357,0.05227
551.54204,0.08912
553.47051,0.10826
555.39897,0.08755
557.32744,0.09044
559.25591,0.11712
561.18438,0.13670
563.11285,0.13256
565.04132,0.10214
566.96979,0.09188
568.89825,0.10079
570.82672,0.08687
572.75519,0.07212
574.68366,0.09192
576.61213,0.12848
578.54060,0.13858
580.46907,0.12149
582.39754,0.10649
584.32600,0.09947
586.25447,0.09264
588.18294,0.10173
590.11141,0.12608
592.03988,0.12216
593.96835,0.08871
595.89682,0.07199
597.82528,0.07195
599.75375,0.07167
601.68222,0.08144
603.61069,0.09879
605.53916,0.11275
607.46763,0.12424
609.39610,0.11957
611.32456,0.09986
613.25303,0.09008
615.18150,0.10028
617.10997,0.11687
619.03844,0.11747
620.96691,0.10960
622.89538,0.11208
624.82385,0.12291
626.75231,0.13710
628.68078,0.14840
630.60925,0.15116
632.53772,0.14021
634.46619,0.11676
636.39466,0.09241
638.32313,0.08334
640.25159,0.09088
642.18006,0.09679
644.10853,0.10812
646.03700,0.12591
647.96547,0.12862
649.89394,0.11300
651.82241,0.09339
653.75088,0.09454
655.67934,0.11715
657.60781,0.12884
659.53628,0.12523
661.46475,0.12593
663.39322,0.12684
665.32169,0.12099
667.25016,0.12301
669.17862,0.13267
671.10709,0.12035
673.03556,0.10913
674.96403,0.11477
676.89250,0.12666
678.82097,0.12922
680.74944,0.12141
682.67791,0.12034
684.60637,0.12383
686.53484,0.11003
688.46331,0.08939
690.39178,0.09262
692.32025,0.12073
694.24872,0.14950
696.17719,0.15927
698.10565,0.14619
700.03412,0.12420
701.96259,0.10841
703.89106,0.10343
705.81953,0.11056
707.74800,0.13283
709.67647,0.17068
711.60494,0.20062
713.53340,0.18845
715.46187,0.14575
717.39034,0.11791
719.31881,0.11800
721.24728,0.12720
723.17575,0.12841
725.10422,0.11892
727.03268,0.11238
728.96115,0.11906
730.88962,0.12566
732.81809,0.12099
734.74656,0.11823
736.67503,0.12787
738.60350,0.13652
740.53197,0.12792
742.46043,0.11084
744.38890,0.10607
746.31737,0.11448
748.24584,0.12368
750.17431,0.12912
752.10278,0.13154
754.03125,0.12960
755.95971,0.12345
757.88818,0.11777
759.81665,0.11720
761.74512,0.12313
763.67359,0.13440
765.60206,0.14307
767.53053,0.13738
769.45900,0.12535
771.38746,0.12517
773.31593,0.13446
775.24440,0.13961
777.17287,0.13636
779.10134,0.13363
781.02981,0.13372
782.95828,0.13304
784.88674,0.13708
786.81521,0.13577
788.74368,0.11575
790.67215,0.09780
792.60062,0.10502
794.52909,0.13239
796.45756,0.15283
798.38602,0.14994
800.31449,0.14520
802.24296,0.15415
804.17143,0.15662
806.09990,0.14715
808.02837,0.14418
809.95684,0.15109
811.88531,0.14658
813.81377,0.12749
815.74224,0.12339
817.67071,0.13433
819.59918,0.13580
821.52765,0.13348
823.45612,0.13613
825.38459,0.13433
827.31305,0.12856
829.24152,0.12896
831.16999,0.13647
833.09846,0.14323
835.02693,0.14728
836.95540,0.15201
838.88387,0.14971
840.81234,0.13960
842.74080,0.13518
844.66927,0.13430
846.59774,0.12989
848.52621,0.13108
850.45468,0.13920
852.38315,0.14507
854.31162,0.14418
856.24008,0.13665
858.16855,0.12933
860.09702,0.12833
862.02549,0.13171
863.95396,0.13124
865.88243,0.11279
867.81090,0.07091
869.73937,0.04444
871.66783,0.07916
873.59630,0.13897
875.52477,0.16117
877.45324,0.14854
879.38171,0.13203
881.31018,0.12687
883.23865,0.13596
885.16711,0.14667
887.09558,0.14193
889.02405,0.13014
890.95252,0.13166
892.88099,0.14043
894.80946,0.14250
896.73793,0.14378
898.66640,0.14920
900.59486,0.15138
902.52333,0.14755
904.45180,0.14411
906.38027,0.14443
908.30874,0.14535
910.23721,0.14287
912.16568,0.13392
914.09414,0.12185
916.02261,0.11759
917.95108,0.12679
919.87955,0.14115
921.80802,0.15138
923.73649,0.15501
925.66496,0.15251
927.59343,0.14777
929.52189,0.14214
931.45036,0.13796
933.37883,0.14096
935.30730,0.15049
937.23577,0.15998
939.16424,0.16403
941.09271,0.16190
943.02117,0.15464
944.94964,0.14636
946.87811,0.14187
948.80658,0.14327
950.73505,0.14975
952.66352,0.15433
954.59199,0.15193
956.52045,0.14729
958.44892,0.14791
960.37739,0.15287
962.30586,0.15430
964.23433,0.15083
966.16280,0.14986
968.09127,0.15217
970.01974,0.15108
971.94820,0.14701
973.87667,0.14127
975.80514,0.13694
977.73361,0.14226
979.66208,0.15313
981.59055,0.15930
983.51902,0.15861
985.44748,0.15265
987.37595,0.14531
989.30442,0.14031
991.23289,0.13834
993.16136,0.13933
995.08983,0.14274
997.01830,0.14856
998.94677,0.15480
1000.87523,0.15592
1002.80370,0.15457
1004.73217,0.15548
1006.66064,0.15436
1008.58911,0.15137
1010.51758,0.14939
1012.44605,0.14638
1014.37451,0.14418
1016.30298,0.14515
1018.23145,0.14663
1020.15992,0.14784
1022.08839,0.14693
1024.01686,0.13498
1025.94533,0.10722
1027.87380,0.08496
1029.80226,0.09989
1031.73073,0.13313
1033.65920,0.14294
1035.58767,0.14148
1037.51614,0.15278
1039.44461,0.15947
1041.37308,0.15211
1043.30154,0.15487
1045.23001,0.17000
1047.15848,0.17197
1049.08695,0.16558
1051.01542,0.16832
1052.94389,0.16871
1054.87236,0.15971
1056.80083,0.15154
1058.72929,0.14782
1060.65776,0.14996
1062.58623,0.15863
1064.51470,0.16599
1066.44317,0.16973
1068.37164,0.17997
1070.30011,0.19176
1072.22857,0.18764
1074.15704,0.17038
1076.08551,0.15600
1078.01398,0.15447
1079.94245,0.16077
1081.87092,0.16315
1083.79939,0.16429
1085.72786,0.17079
1087.65632,0.17581
1089.58479,0.17172
1091.51326,0.16962
1093.44173,0.17719
1095.37020,0.17885
1097.29867,0.16915
1099.22714,0.16069
1101.15560,0.15785
1103.08407,0.15755
1105.01254,0.16151
1106.94101,0.16943
1108.86948,0.17218
1110.79795,0.16944
1112.72642,0.16965
1114.65489,0.17272
1116.58335,0.17437
1118.51182,0.17115
1120.44029,0.16273
1122.36876,0.15678
1124.29723,0.15567
1126.22570,0.15491
1128.15417,0.15441
1130.08263,0.15139
1132.01110,0.14849
1133.93957,0.15259
1135.86804,0.15930
1137.79651,0.16231
1139.72498,0.16043
1141.65345,0.15710
1143.58191,0.15606
1145.51038,0.15873
1147.43885,0.16486
1149.36732,0.17023
1151.29579,0.17186
1153.22426,0.16854
1155.15273,0.16401
1157.08120,0.16506
1159.00966,0.17014
1160.93813,0.17455
1162.86660,0.17537
1164.79507,0.17147
1166.72354,0.16560
1168.65201,0.16074
1170.58048,0.16019
1172.50894,0.16505
1174.43741,0.17083
1176.36588,0.17246
1178.29435,0.16877
1180.22282,0.16387
1182.15129,0.16031
1184.07976,0.15799
1186.00823,0.15835
1187.93669,0.15988
1189.86516,0.16292
1191.79363,0.16842
1193.72210,0.17065
1195.65057,0.16751
1197.57904,0.16394
1199.50751,0.16333
1201.43597,0.16292
1203.36444,0.16219
1205.29291,0.16675
1207.22138,0.17281
1209.14985,0.17121
1211.07832,0.16672
1213.00679,0.16942
1214.93526,0.17364
1216.86372,0.16752
1218.79219,0.15756
1220.72066,0.15582
1222.64913,0.16085
1224.57760,0.16493
1226.50607,0.16585
1228.43454,0.16832
1230.36300,0.16980
1232.29147,0.16562
1234.21994,0.16184
1236.14841,0.16036
1238.07688,0.15769
1240.00535,0.15731
1241.93382,0.16130
1243.86229,0.16391
1245.79075,0.16297
1247.71922,0.16282
1249.64769,0.16478
1251.57616,0.16644
1253.50463,0.16440
1255.43310,0.15974
1257.36157,0.15956
1259.29003,0.16453
1261.21850,0.16885
1263.14697,0.17089
1265.07544,0.16977
1267.00391,0.16505
1268.93238,0.16172
1270.86085,0.16235
1272.78932,0.16488
1274.71778,0.16898
1276.64625,0.17294
1278.57472,0.17357
1280.50319,0.17179
1282.43166,0.17115
1284.36013,0.17194
1286.28860,0.16995
1288.21706,0.16473
1290.14553,0.16297
1292.07400,0.16627
1294.00247,0.16847
1295.93094,0.16884
1297.85941,0.17027
1299.78788,0.16908
1301.71634,0.16039
1303.64481,0.14791
1305.57328,0.14507
1307.50175,0.15730
1309.43022,0.17069
1311.35869,0.17521
1313.28716,0.17484
1315.21563,0.17229
1317.14409,0.16973
1319.07256,0.17061
1321.00103,0.17212
1322.92950,0.17184
1324.85797,0.16967
1326.78644,0.16541
1328.71491,0.16369
1330.64337,0.16440
1332.57184,0.16500
1334.50031,0.16817
1336.42878,0.17104
1338.35725,0.16918
1340.28572,0.14206
1342.21419,0.07573
1344.14266,0.03525
1346.07112,0.07600
1347.99959,0.14104
1349.92806,0.16443
1351.85653,0.16535
1353.78500,0.16636
1355.71347,0.16532
1357.64194,0.16415
1359.57040,0.16654
1361.49887,0.17520
1363.42734,0.18467
1365.35581,0.18481
1367.28428,0.17876
1369.21275,0.17426
1371.14122,0.17420
1373.06969,0.17805
1374.99815,0.18208
1376.92662,0.18055
1378.85509,0.17742
1380.78356,0.17640
1382.71203,0.17636
1384.64050,0.18112
1386.56897,0.18930
1388.49743,0.19001
1390.42590,0.18845
1392.35437,0.19276
1394.28284,0.19753
1396.21131,0.19887
1398.13978,0.19877
1400.06825,0.19361
1401.99672,0.18543
1403.92518,0.17935
1405.85365,0.17466
1407.78212,0.17365
1409.71059,0.17728
1411.63906,0.18094
1413.56753,0.18526
1415.49600,0.19434
1417.42446,0.20358
1419.35293,0.20091
1421.28140,0.19298
1423.20987,0.19227
1425.13834,0.19410
1427.06681,0.19509
1428.99528,0.19637
1430.92375,0.19422
1432.85221,0.19013
1434.78068,0.19156
1436.70915,0.19428
1438.63762,0.18777
1440.56609,0.17935
1442.49456,0.17602
1444.42303,0.18007
1446.35149,0.19018
1448.27996,0.19703
1450.20843,0.19519
1452.13690,0.19293
1454.06537,0.19784
1455.99384,0.21504
1457.92231,0.22833
1459.85077,0.21448
1461.77924,0.20030
1463.70771,0.19593
1465.63618,0.19451
1467.56465,0.19058
1469.49312,0.19363
1471.42159,0.20797
1473.35006,0.21871
1475.27852,0.21219
1477.20699,0.20147
1479.13546,0.19382
1481.06393,0.18905
1482.99240,0.18611
1484.92087,0.18783
1486.84934,0.19631
1488.77780,0.20736
1490.70627,0.20756
1492.63474,0.19983
1494.56321,0.20173
1496.49168,0.21600
1498.42015,0.21893
1500.34862,0.19930
1502.27709,0.18576
1504.20555,0.20011
1506.13402,0.23931
1508.06249,0.24206
1509.99096,0.21768
1511.91943,0.20796
1513.84790,0.20832
1515.77637,0.21515
1517.70483,0.22484
1519.63330,0.23309
1521.56177,0.23487
1523.49024,0.22446
1525.41871,0.21362
1527.34718,0.20483
1529.27565,0.19657
1531.20412,0.19714
1533.13258,0.20685
1535.06105,0.21210
1536.98952,0.21881
1538.91799,0.23872
1540.84646,0.24871
1542.77493,0.23134
1544.70340,0.21392
1546.63186,0.20137
1548.56033,0.19804
1550.48880,0.19944
1552.41727,0.20060
1554.34574,0.20800
1556.27421,0.22709
1558.20268,0.24880
1560.13115,0.22892
1562.05961,0.20433
1563.98808,0.19501
1565.91655,0.19293
1567.84502,0.19813
1569.77349,0.20434
1571.70196,0.20362
1573.63043,0.20336
1575.55889,0.20341
1577.48736,0.19550
1579.41583,0.18791
1581.34430,0.18377
1583.27277,0.17839
1585.20124,0.17452
1587.12971,0.17514
1589.05818,0.17694
1590.98664,0.17878
1592.91511,0.18139
1594.84358,0.18378
1596.77205,0.18501
1598.70052,0.18397
1600.62899,0.18086
1602.55746,0.18009
1604.48592,0.18375
1606.41439,0.18666
1608.34286,0.18615
1610.27133,0.18442
1612.19980,0.18500
1614.12827,0.19209
1616.05674,0.20369
1617.98521,0.20412
1619.91367,0.19893
1621.84214,0.20143
1623.77061,0.20500
1625.69908,0.20318
1627.62755,0.20074
1629.55602,0.19800
1631.48449,0.19879
1633.41295,0.21183
1635.34142,0.23523
1637.26989,0.23171
1639.19836,0.20984
1641.12683,0.19803
1643.05530,0.19841
1644.98377,0.21155
1646.91223,0.23076
1648.84070,0.23196
1650.76917,0.23080
1652.69764,0.23802
1654.62611,0.22341
1656.55458,0.20597
1658.48305,0.20108
1660.41152,0.20424
1662.33998,0.20961
1664.26845,0.20809
1666.19692,0.20750
1668.12539,0.21675
1670.05386,0.22223
1671.98233,0.21412
1673.91080,0.20988
1675.83926,0.20979
1677.76773,0.20843
1679.69620,0.21116
1681.62467,0.22145
1683.55314,0.23270
1685.48161,0.22455
1687.41008,0.21227
1689.33855,0.20691
1691.26701,0.20270
1693.19548,0.20255
1695.12395,0.21297
1697.05242,0.23119
1698.98089,0.24146
1700.90936,0.23129
1702.83783,0.21931
1704.76629,0.21848
1706.69476,0.21311
1708.62323,0.20075
1710.55170,0.19509
1712.48017,0.19957
1714.40864,0.21281
1716.33711,0.22896
1718.26558,0.22607
1720.19404,0.20871
1722.12251,0.19724
1724.05098,0.19097
1725.97945,0.18762
1727.90792,0.19039
1729.83639,0.19849
1731.76486,0.20791
1733.69332,0.21553
1735.62179,0.21186
1737.55026,0.20685
1739.47873,0.20812
1741.40720,0.20884
1743.33567,0.20507
1745.26414,0.20272
1747.19261,0.20627
1749.12107,0.21200
1751.04954,0.21063
1752.97801,0.20422
1754.90648,0.20004
1756.83495,0.19667
1758.76342,0.19379
1760.69189,0.19561
1762.62035,0.19770
1764.54882,0.19500
1766.47729,0.19283
1768.40576,0.19459
1770.33423,0.20174
1772.26270,0.20762
1774.19117,0.20215
1776.11964,0.19465
1778.04810,0.19275
1779.97657,0.19492
1781.90504,0.19443
1783.83351,0.19254
1785.76198,0.19402
1787.69045,0.19658
1789.61892,0.20032
1791.54738,0.20626
1793.47585,0.20943
1795.40432,0.20658
1797.33279,0.20125
1799.26126,0.19838
1801.18973,0.19819
1803.11820,0.19621
1805.04666,0.19333
1806.97513,0.19158
1808.90360,0.19141
1810.83207,0.19246
1812.76054,0.19127
1814.68901,0.18699
1816.61748,0.18478
1818.54595,0.18695
1820.47441,0.18736
1822.40288,0.18662
1824.33135,0.19050
1826.25982,0.19644
1828.18829,0.20149
1830.11676,0.19946
1832.04523,0.18902
1833.97369,0.18266
1835.90216,0.18408
1837.83063,0.18972
1839.75910,0.19481
1841.68757,0.19901
1843.61604,0.20267
1845.54451,0.20099
1847.47298,0.19447
1849.40144,0.18762
1851.32991,0.18411
1853.25838,0.18583
1855.18685,0.18890
1857.11532,0.18911
1859.04379,0.18717
1860.97226,0.18537
1862.90072,0.18548
1864.82919,0.19104
1866.75766,0.20163
1868.68613,0.20407
1870.61460,0.19307
1872.54307,0.18474
1874.47154,0.18429
1876.40001,0.18730
1878.32847,0.18904
1880.25694,0.18860
1882.18541,0.18835
1884.11388,0.18761
1886.04235,0.18622
1887.97082,0.18882
1889.89929,0.19456
1891.82775,0.19758
1893.75622,0.19767
1895.68469,0.19424
1897.61316,0.18861
1899.54163,0.18723
1901.47010,0.19039
1903.39857,0.19158
1905.32704,0.18952
1907.25550,0.18923
1909.18397,0.19072
1911.11244,0.19003
1913.04091,0.18999
1914.96938,0.19328
1916.89785,0.19563
1918.82632,0.19525
1920.75478,0.19471
1922.68325,0.19295
1924.61172,0.18971
1926.54019,0.18857
1928.46866,0.18778
1930.39713,0.18570
1932.32560,0.18765
1934.25407,0.19154
1936.18253,0.19047
1938.11100,0.18792
1940.03947,0.18952
1941.96794,0.19461
1943.89641,0.19945
1945.82488,0.19985
1947.75335,0.19475
1949.68181,0.18838
1951.61028,0.18547
1953.53875,0.18689
1955.46722,0.18941
1957.39569,0.18930
1959.32416,0.18909
1961.25263,0.19136
1963.18110,0.19348
1965.10956,0.19371
1967.03803,0.19172
1968.96650,0.18756
1970.89497,0.18473
1972.82344,0.18650
1974.75191,0.18805
1976.68038,0.18604
1978.60884,0.18597
1980.53731,0.18775
1982.46578,0.18745
1984.39425,0.18742
1986.32272,0.18882
1988.25119,0.19049
1990.17966,0.19332
1992.10812,0.19486
1994.03659,0.19158
1995.96506,0.18721
1997.89353,0.18700
1999.82200,0.18968
2001.75047,0.19114
2003.67894,0.19142
2005.60741,0.19197
2007.53587,0.19255
2009.46434,0.19259
2011.39281,0.19202
2013.32128,0.19019
2015.24975,0.18735
2017.17822,0.18699
2019.10669,0.18976
2021.03515,0.19196
2022.96362,0.19184
2024.89209,0.18971
2026.82056,0.18884
2028.74903,0.19069
2030.67750,0.19115
2032.60597,0.19037
2034.53444,0.19073
2036.46290,0.19102
2038.39137,0.19175
2040.31984,0.19257
2042.24831,0.19081
2044.17678,0.18774
2046.10525,0.18650
2048.03372,0.18752
2049.96218,0.18896
2051.89065,0.18885
2053.81912,0.18970
2055.74759,0.19310
2057.67606,0.19329
2059.60453,0.19065
2061.53300,0.19111
2063.46147,0.19147
2065.38993,0.18822
2067.31840,0.18634
2069.24687,0.18828
2071.17534,0.19087
2073.10381,0.19248
2075.03228,0.19221
2076.96075,0.19071
2078.88921,0.18884
2080.81768,0.18591
2082.74615,0.18456
2084.67462,0.18666
2086.60309,0.18980
2088.53156,0.19148
2090.46003,0.19096
2092.38850,0.18939
2094.31696,0.18824
2096.24543,0.18775
2098.17390,0.18835
2100.10237,0.19016
2102.03084,0.19077
2103.95931,0.18844
2105.88778,0.18567
2107.81624,0.18614
2109.74471,0.19031
2111.67318,0.19466
2113.60165,0.19424
2115.53012,0.19001
2117.45859,0.18859
2119.38706,0.19147
2121.31553,0.19360
2123.24399,0.19186
2125.17246,0.18883
2127.10093,0.18838
2129.02940,0.19026
2130.95787,0.19074
2132.88634,0.18623
2134.81481,0.17964
2136.74327,0.18053
2138.67174,0.18836
2140.60021,0.19236
2142.52868,0.19066
2144.45715,0.18989
2146.38562,0.19190
2148.31409,0.19226
2150.24255,0.19059
2152.17102,0.18915
2154.09949,0.18755
2156.02796,0.18699
2157.95643,0.18807
2159.88490,0.18904
2161.81337,0.18926
2163.74184,0.19023
2165.67030,0.19237
2167.59877,0.19481
2169.52724,0.19671
2171.45571,0.19741
2173.38418,0.19704
2175.31265,0.19485
2177.24112,0.19210
2179.16958,0.19036
2181.09805,0.18986
2183.02652,0.19193
2184.95499,0.19327
2186.88346,0.18984
2188.81193,0.18658
2190.74040,0.18839
2192.66887,0.19167
2194.59733,0.19375
2196.52580,0.19481
2198.45427,0.19476
2200.38274,0.19479
2202.31121,0.19475
2204.23968,0.19317
2206.16815,0.19057
2208.09661,0.18962
2210.02508,0.19132
2211.95355,0.19405
2213.88202,0.19481
2215.81049,0.19110
2217.73896,0.18634
2219.66743,0.18540
2221.59590,0.18782
2223.52436,0.19026
2225.45283,0.19025
2227.38130,0.18906
2229.30977,0.18952
2231.23824,0.19059
2233.16671,0.19024
2235.09518,0.18996
2237.02364,0.19014
2238.95211,0.18945
2240.88058,0.18954
2242.80905,0.19154
2244.73752,0.19327
2246.66599,0.19261
2248.59446,0.19027
2250.52293,0.18979
2252.45139,0.19135
2254.37986,0.19085
2256.30833,0.18925
2258.23680,0.18952
2260.16527,0.18919
2262.09374,0.18775
2264.02221,0.18849
2265.95067,0.19241
2267.87914,0.19597
2269.80761,0.19458
2271.73608,0.18996
2273.66455,0.18704
2275.59302,0.18704
2277.52149,0.18781
2279.44996,0.18600
2281.37842,0.18270
2283.30689,0.18229
2285.23536,0.18502
2287.16383,0.18860
2289.09230,0.19158
2291.02077,0.19422
2292.94924,0.19688
2294.87770,0.19780
2296.80617,0.19696
2298.73464,0.19615
2300.66311,0.19574
2302.59158,0.19455
2304.52005,0.19437
2306.44852,0.20029
2308.37699,0.20800
2310.30545,0.20658
2312.23392,0.19847
2314.16239,0.19332
2316.09086,0.19163
2318.01933,0.19239
2319.94780,0.19786
2321.87627,0.20338
2323.80473,0.20137
2325.73320,0.19584
2327.66167,0.19631
2329.59014,0.20151
2331.51861,0.20191
2333.44708,0.19743
2335.37555,0.19611
2337.30401,0.19892
2339.23248,0.20106
2341.16095,0.20004
2343.08942,0.19110
2345.01789,0.17885
2346.94636,0.18054
2348.87483,0.18968
2350.80330,0.19362
2352.73176,0.19696
2354.66023,0.20626
2356.58870,0.19856
2358.51717,0.17068
2360.44564,0.15560
2362.37411,0.16185
2364.30258,0.17335
2366.23104,0.18520
2368.15951,0.20354
2370.08798,0.21237
2372.01645,0.20497
2373.94492,0.19485
2375.87339,0.19108
2377.80186,0.19230
2379.73033,0.19283
2381.65879,0.19207
2383.58726,0.19293
2385.51573,0.19492
2387.44420,0.19481
2389.37267,0.19242
2391.30114,0.19068
2393.22961,0.18979
2395.15807,0.18873
2397.08654,0.18886
2399.01501,0.19048
2400.94348,0.19166
2402.87195,0.19160
2404.80042,0.19150
2406.72889,0.19252
2408.65736,0.19299
2410.58582,0.19114
2412.51429,0.18914
2414.44276,0.19026
2416.37123,0.19378
2418.29970,0.19541
2420.22817,0.19319
2422.15664,0.18993
2424.08510,0.19004
2426.01357,0.19263
2427.94204,0.19313
2429.87051,0.19151
2431.79898,0.19059
2433.72745,0.19127
2435.65592,0.19261
2437.58439,0.19445
2439.51285,0.19597
2441.44132,0.19556
2443.36979,0.19301
2445.29826,0.19040
2447.22673,0.18984
2449.15520,0.18987
2451.08367,0.18885
2453.01213,0.18685
2454.94060,0.18703
2456.86907,0.19069
2458.79754,0.19285
2460.72601,0.19297
2462.65448,0.19408
2464.58295,0.19579
2466.51142,0.19589
2468.43988,0.19282
2470.36835,0.18937
2472.29682,0.19046
2474.22529,0.19406
2476.15376,0.19405
2478.08223,0.19257
2480.01070,0.19341
2481.93916,0.19398
2483.86763,0.19307
2485.79610,0.19139
2487.72457,0.18990
2489.65304,0.19004
2491.58151,0.18987
2493.50998,0.18762
2495.43844,0.18526
2497.36691,0.18535
2499.29538,0.18811
2501.22385,0.19085
2503.15232,0.19174
2505.08079,0.19201
2507.00926,0.19292
2508.93773,0.19415
2510.86619,0.19428
2512.79466,0.19236
2514.72313,0.19060
2516.65160,0.19041
2518.58007,0.19115
2520.50854,0.19342
2522.43701,0.19504
2524.36547,0.19453
2526.29394,0.19344
2528.22241,0.19271
2530.15088,0.19418
2532.07935,0.19542
2534.00782,0.19317
2535.93629,0.19130
2537.86476,0.19313
2539.79322,0.19630
2541.72169,0.19769
2543.65016,0.19735
2545.57863,0.19631
2547.50710,0.19464
2549.43557,0.19266
2551.36404,0.19065
2553.29250,0.18930
2555.22097,0.18986
2557.14944,0.19252
2559.07791,0.19469
2561.00638,0.19404
2562.93485,0.19259
2564.86332,0.19214
2566.79179,0.19210
2568.72025,0.19319
2570.64872,0.19473
2572.57719,0.19431
2574.50566,0.19250
2576.43413,0.19112
2578.36260,0.19068
2580.29107,0.19094
2582.21953,0.19153
2584.14800,0.19310
2586.07647,0.19478
2588.00494,0.19411
2589.93341,0.19228
2591.86188,0.19215
2593.79035,0.19380
2595.71882,0.19592
2597.64728,0.19631
2599.57575,0.19424
2601.50422,0.19269
2603.43269,0.19409
2605.36116,0.19704
2607.28963,0.19853
2609.21810,0.19744
2611.14656,0.19415
2613.07503,0.19054
2615.00350,0.19065
2616.93197,0.19425
2618.86044,0.19721
2620.78891,0.19801
2622.71738,0.19766
2624.64585,0.19769
2626.57431,0.19812
2628.50278,0.19785
2630.43125,0.19741
2632.35972,0.19828
2634.28819,0.19948
2636.21666,0.19910
2638.14513,0.19684
2640.07359,0.19545
2642.00206,0.19770
2643.93053,0.19893
2645.85900,0.19736
2647.78747,0.19750
2649.71594,0.19696
2651.64441,0.19290
2653.57288,0.18974
2655.50134,0.19123
2657.42981,0.19405
2659.35828,0.19428
2661.28675,0.19393
2663.21522,0.19377
2665.14369,0.19321
2667.07216,0.19486
2669.00062,0.19768
2670.92909,0.19698
2672.85756,0.19381
2674.78603,0.19375
2676.71450,0.19683
2678.64297,0.19760
2680.57144,0.19608
2682.49990,0.19662
2684.42837,0.19886
2686.35684,0.19918
2688.28531,0.19737
2690.21378,0.19690
2692.14225,0.19756
2694.07072,0.19683
2695.99919,0.19532
2697.92765,0.19430
2699.85612,0.19519
2701.78459,0.19816
2703.71306,0.20067
2705.64153,0.20101
2707.57000,0.19967
2709.49847,0.19732
2711.42693,0.19492
2713.35540,0.19440
2715.28387,0.19506
2717.21234,0.19519
2719.14081,0.19541
2721.06928,0.19640
2722.99775,0.19905
2724.92622,0.20173
2726.85468,0.20209
2728.78315,0.20222
2730.71162,0.20213
2732.64009,0.19984
2734.56856,0.19849
2736.49703,0.20090
2738.42550,0.20234
2740.35396,0.20018
2742.28243,0.20100
2744.21090,0.20358
2746.13937,0.20106
2748.06784,0.19839
2749.99631,0.19946
2751.92478,0.20070
2753.85325,0.20168
2755.78171,0.20274
2757.71018,0.20232
2759.63865,0.20077
2761.56712,0.19818
2763.49559,0.19254
2765.42406,0.18782
2767.35253,0.18702
2769.28099,0.18715
2771.20946,0.19183
2773.13793,0.19931
2775.06640,0.20123
2776.99487,0.20182
2778.92334,0.20505
2780.85181,0.20639
2782.78028,0.20743
2784.70874,0.21145
2786.63721,0.21214
2788.56568,0.20709
2790.49415,0.20358
2792.42262,0.20334
2794.35109,0.20458
2796.27956,0.20669
2798.20802,0.20723
2800.13649,0.20680
2802.06496,0.20657
2803.99343,0.20631
2805.92190,0.20601
2807.85037,0.20339
2809.77884,0.20097
2811.70731,0.20319
2813.63577,0.20545
2815.56424,0.20439
2817.49271,0.20402
2819.42118,0.20631
2821.34965,0.20822
2823.27812,0.20734
2825.20659,0.20581
2827.13505,0.20486
2829.06352,0.20342
2830.99199,0.20373
2832.92046,0.20453
2834.84893,0.20209
2836.77740,0.20153
2838.70587,0.20472
2840.63433,0.20537
2842.56280,0.20349
2844.49127,0.20332
2846.41974,0.20498
2848.34821,0.20691
2850.27668,0.20813
2852.20515,0.20762
2854.13362,0.20650
2856.06208,0.20644
2857.99055,0.20653
2859.91902,0.20670
2861.84749,0.20977
2863.77596,0.21399
2865.70443,0.21384
2867.63290,0.21052
2869.56136,0.20868
2871.48983,0.20913
2873.41830,0.21018
2875.34677,0.21037
2877.27524,0.20859
2879.20371,0.20533
2881.13218,0.20282
2883.06065,0.20215
2884.98911,0.20426
2886.91758,0.20724
2888.84605,0.20745
2890.77452,0.20486
2892.70299,0.20044
2894.63146,0.19676
2896.55993,0.19783
2898.48839,0.20074
2900.41686,0.19992
2902.34533,0.19916
2904.27380,0.20161
2906.20227,0.20548
2908.13074,0.21036
2910.05921,0.21334
2911.98768,0.21366
2913.91614,0.21290
2915.84461,0.21008
2917.77308,0.20656
2919.70155,0.20307
2921.63002,0.19562
2923.55849,0.18525
2925.48696,0.18052
2927.41542,0.18637
2929.34389,0.19795
2931.27236,0.20503
2933.20083,0.20495
2935.12930,0.20102
2937.05777,0.19619
2938.98624,0.19733
2940.91471,0.20337
2942.84317,0.20608
2944.77164,0.20454
2946.70011,0.20065
2948.62858,0.19818
2950.55705,0.19923
2952.48552,0.20123
2954.41399,0.20424
2956.34245,0.20432
2958.27092,0.19954
2960.19939,0.19893
2962.12786,0.20284
2964.05633,0.20339
2965.98480,0.20057
2967.91327,0.19826
2969.84174,0.19979
2971.77020,0.20362
2973.69867,0.20427
2975.62714,0.20199
2977.55561,0.20129
2979.48408,0.20556
2981.41255,0.21281
2983.34102,0.21754
2985.26948,0.21731
2987.19795,0.21156
2989.12642,0.20631
2991.05489,0.20852
2992.98336,0.21186
2994.91183,0.21038
2996.84030,0.20803
2998.76877,0.20696
3000.69723,0.20771
3002.62570,0.21102
3004.55417,0.21304
3006.48264,0.21104
3008.41111,0.20741
3010.33958,0.20176
3012.26805,0.18846
3014.19651,0.16411
3016.12498,0.14240
3018.05345,0.14747
3019.98192,0.17510
3021.91039,0.19945
3023.83886,0.21238
3025.76733,0.21721
3027.69579,0.21614
3029.62426,0.21229
3031.55273,0.20955
3033.48120,0.20942
3035.40967,0.20835
3037.33814,0.20658
3039.26661,0.20694
3041.19508,0.20793
3043.12354,0.21030
3045.05201,0.21236
3046.98048,0.20976
3048.90895,0.20946
3050.83742,0.21769
3052.76589,0.22559
3054.69436,0.22114
3056.62282,0.20658
3058.55129,0.19909
3060.47976,0.20347
3062.40823,0.20691
3064.33670,0.20313
3066.26517,0.19942
3068.19364,0.20401
3070.12211,0.21087
3072.05057,0.21032
3073.97904,0.20365
3075.90751,0.19880
3077.83598,0.20081
3079.76445,0.20740
3081.69292,0.21361
3083.62139,0.21059
3085.54985,0.20033
3087.47832,0.19966
3089.40679,0.20919
3091.33526,0.21384
3093.26373,0.20689
3095.19220,0.20032
3097.12067,0.20511
3099.04914,0.21121
3100.97760,0.20858
3102.90607,0.20147
3104.83454,0.19983
3106.76301,0.20456
3108.69148,0.20848
3110.61995,0.20954
3112.54842,0.20765
3114.47688,0.20376
3116.40535,0.20184
3118.33382,0.20257
3120.26229,0.20397
3122.19076,0.20883
3124.11923,0.21729
3126.04770,0.22235
3127.97617,0.22345
3129.90463,0.22317
3131.83310,0.22080
3133.76157,0.21952
3135.69004,0.22148
3137.61851,0.22201
3139.54698,0.21964
3141.47545,0.21757
3143.40391,0.21720
3145.33238,0.21684
3147.26085,0.21442
3149.18932,0.21278
3151.11779,0.21253
3153.04626,0.21126
3154.97473,0.21167
3156.90320,0.21481
3158.83166,0.21801
3160.76013,0.21990
3162.68860,0.21892
3164.61707,0.21604
3166.54554,0.21596
3168.47401,0.21663
3170.40248,0.21421
3172.33094,0.21191
3174.25941,0.21152
3176.18788,0.21252
3178.11635,0.21442
3180.04482,0.21375
3181.97329,0.21021
3183.90176,0.21056
3185.83022,0.21729
3187.75869,0.22292
3189.68716,0.22090
3191.61563,0.21462
3193.54410,0.21253
3195.47257,0.21497
3197.40104,0.21394
3199.32951,0.20973
3201.25797,0.21047
3203.18644,0.21512
3205.11491,0.21942
3207.04338,0.22266
3208.97185,0.22187
3210.90032,0.21847
3212.82879,0.21534
3214.75725,0.21115
3216.68572,0.20819
3218.61419,0.20820
3220.54266,0.21011
3222.47113,0.21421
3224.39960,0.21828
3226.32807,0.21818
3228.25654,0.21255
3230.18500,0.20650
3232.11347,0.20457
3234.04194,0.20348
3235.97041,0.20295
3237.89888,0.20549
3239.82735,0.20818
3241.75582,0.20742
3243.68428,0.20439
3245.61275,0.20488
3247.54122,0.21222
3249.46969,0.22008
3251.39816,0.22040
3253.32663,0.21556
3255.25510,0.21202
3257.18357,0.21310
3259.11203,0.21691
3261.04050,0.21700
3262.96897,0.21268
3264.89744,0.21068
3266.82591,0.21498
3268.75438,0.21971
3270.68285,0.21897
3272.61131,0.21343
3274.53978,0.20591
3276.46825,0.20215
3278.39672,0.20580
3280.32519,0.21283
3282.25366,0.21677
3284.18213,0.21625
3286.11060,0.21412
3288.03906,0.21307
3289.96753,0.21438
3291.89600,0.21678
3293.82447,0.21835
3295.75294,0.22011
3297.68141,0.22204
3299.60988,0.21555
3301.53834,0.20103
3303.46681,0.19524
3305.39528,0.20198
3307.32375,0.20835
3309.25222,0.20966
3311.18069,0.20984
3313.10916,0.20704
3315.03763,0.20134
3316.96609,0.20062
3318.89456,0.20633
3320.82303,0.21260
3322.75150,0.21642
3324.67997,0.21560
3326.60844,0.21006
3328.53691,0.20876
3330.46537,0.21428
3332.39384,0.21817
3334.32231,0.21989
3336.25078,0.22135
3338.17925,0.21982
3340.10772,0.21726
3342.03619,0.21674
3343.96466,0.21720
3345.89312,0.21791
3347.82159,0.21823
3349.75006,0.21613
3351.67853,0.21479
3353.60700,0.21984
3355.53547,0.22445
3357.46394,0.21978
3359.39240,0.21357
3361.32087,0.21099
3363.24934,0.20769
3365.17781,0.20613
3367.10628,0.20766
3369.03475,0.20988
3370.96322,0.21342
3372.89168,0.21238
3374.82015,0.20575
3376.74862,0.20416
3378.67709,0.20706
3380.60556,0.21075
3382.53403,0.21561
3384.46250,0.21663
3386.39097,0.21395
3388.31943,0.21158
3390.24790,0.21147
3392.17637,0.21361
3394.10484,0.21626
3396.03331,0.21994
3397.96178,0.22025
3399.89025,0.21291
3401.81871,0.20632
3403.74718,0.20728
3405.67565,0.21220
3407.60412,0.21617
3409.53259,0.21441
3411.46106,0.20852
3413.38953,0.20594
3415.31800,0.20670
3417.24646,0.20932
3419.17493,0.21474
3421.10340,0.21927
3423.03187,0.21736
3424.96034,0.21052
3426.88881,0.20633
3428.81728,0.20632
3430.74574,0.20484
3432.67421,0.20098
3434.60268,0.20095
3436.53115,0.20737
3438.45962,0.21461
3440.38809,0.21694
3442.31656,0.21398
3444.24503,0.20920
3446.17349,0.20776
3448.10196,0.21199
3450.03043,0.21582
3451.95890,0.21117
3453.88737,0.20071
3455.81584,0.19649
3457.74431,0.20258
3459.67277,0.21022
3461.60124,0.21282
3463.52971,0.21190
3465.45818,0.20910
3467.38665,0.20415
3469.31512,0.20154
3471.24359,0.20471
3473.17206,0.20389
3475.10052,0.19379
3477.02899,0.18658
3478.95746,0.18814
3480.88593,0.19123
3482.81440,0.19089
3484.74287,0.18990
3486.67134,0.19158
3488.59980,0.19167
3490.52827,0.18802
3492.45674,0.18863
3494.38521,0.19508
3496.31368,0.19814
3498.24215,0.19582
3500.17062,0.19461
3502.09909,0.19412
3504.02755,0.18944
3505.95602,0.18286
3507.88449,0.18081
3509.81296,0.18498
3511.74143,0.18874
3513.66990,0.18575
3515.59837,0.17942
3517.52683,0.17586
3519.45530,0.17586
3521.38377,0.17806
3523.31224,0.18012
3525.24071,0.17816
3527.16918,0.17400
3529.09765,0.17154
3531.02611,0.17076
3532.95458,0.17032
3534.88305,0.16983
3536.81152,0.16952
3538.73999,0.16745
3540.66846,0.16372
3542.59693,0.16450
3544.52540,0.17212
3546.45386,0.17668
3548.38233,0.17475
3550.31080,0.17669
3552.23927,0.17993
3554.16774,0.17339
3556.09621,0.16388
3558.02468,0.16222
3559.95314,0.16641
3561.88161,0.17278
3563.81008,0.18013
3565.73855,0.18535
3567.66702,0.18063
3569.59549,0.16930
3571.52396,0.16387
3573.45243,0.16211
3575.38089,0.16077
3577.30936,0.15915
3579.23783,0.15443
3581.16630,0.15106
3583.09477,0.15309
3585.02324,0.16058
3586.95171,0.17002
3588.88017,0.16668
3590.80864,0.15743
3592.73711,0.15659
3594.66558,0.16065
3596.59405,0.16387
3598.52252,0.16459
3600.45099,0.16078
3602.37946,0.15720
3604.30792,0.15733
3606.23639,0.15925
3608.16486,0.16480
3610.09333,0.16981
3612.02180,0.16521
3613.95027,0.15547
3615.87874,0.15584
3617.80720,0.16812
3619.73567,0.17290
3621.66414,0.16212
3623.59261,0.15331
3625.52108,0.15508
3627.44955,0.16695
3629.37802,0.17235
3631.30649,0.16109
3633.23495,0.15088
3635.16342,0.14385
3637.09189,0.13870
3639.02036,0.13803
3640.94883,0.14212
3642.87730,0.14685
3644.80577,0.15365
3646.73423,0.16986
3648.66270,0.18638
3650.59117,0.17009
3652.51964,0.14798
3654.44811,0.14131
3656.37658,0.14165
3658.30505,0.14198
3660.23352,0.13916
3662.16198,0.13494
3664.09045,0.13514
3666.01892,0.14012
3667.94739,0.14687
3669.87586,0.15178
3671.80433,0.15259
3673.73280,0.15924
3675.66126,0.16530
3677.58973,0.15099
3679.51820,0.13706
3681.44667,0.13383
3683.37514,0.13550
3685.30361,0.13932
3687.23208,0.14828
3689.16055,0.16191
3691.08901,0.16455
3693.01748,0.15336
3694.94595,0.14007
3696.87442,0.13252
3698.80289,0.13587
3700.73136,0.14658
3702.65983,0.15054
3704.58829,0.14383
3706.51676,0.13726
3708.44523,0.13622
3710.37370,0.13890
3712.30217,0.13503
3714.23064,0.12931
3716.15911,0.12874
3718.08757,0.12968
3720.01604,0.13568
3721.94451,0.14566
3723.87298,0.14379
3725.80145,0.13368
3727.72992,0.13170
3729.65839,0.13705
3731.58686,0.14980
3733.51532,0.16621
3735.44379,0.16680
3737.37226,0.15499
3739.30073,0.14569
3741.22920,0.14013
3743.15767,0.14267
3745.08614,0.15490
3747.01460,0.16119
3748.94307,0.16140
3750.87154,0.15741
3752.80001,0.14717
3754.72848,0.14038
3756.65695,0.13952
3758.58542,0.14176
3760.51389,0.13970
3762.44235,0.13363
3764.37082,0.13162
3766.29929,0.13413
3768.22776,0.13583
3770.15623,0.13473
3772.08470,0.13097
3774.01317,0.12797
3775.94163,0.12980
3777.87010,0.13472
3779.79857,0.13545
3781.72704,0.13227
3783.65551,0.13094
3785.58398,0.13069
3787.51245,0.13017
3789.44092,0.12866
3791.36938,0.12460
3793.29785,0.12256
3795.22632,0.12989
3797.15479,0.14258
3799.08326,0.15032
3801.01173,0.15073
3802.94020,0.14300
3804.86866,0.13802
3806.79713,0.13568
3808.72560,0.13006
3810.65407,0.12573
3812.58254,0.12738
3814.51101,0.13912
3816.43948,0.15206
3818.36795,0.15421
3820.29641,0.15342
3822.22488,0.14354
3824.15335,0.13325
3826.08182,0.12959
3828.01029,0.12720
3829.93876,0.13084
3831.86723,0.13904
3833.79569,0.14165
3835.72416,0.14115
3837.65263,0.14257
3839.58110,0.14377
3841.50957,0.14165
3843.43804,0.13327
3845.36651,0.12092
3847.29498,0.11300
3849.22344,0.11840
3851.15191,0.14056
3853.08038,0.16309
3855.00885,0.14859
3856.93732,0.12746
3858.86579,0.11951
3860.79426,0.12129
3862.72272,0.12500
3864.65119,0.12437
3866.57966,0.12861
3868.50813,0.14171
3870.43660,0.14603
3872.36507,0.13230
3874.29354,0.11962
3876.22200,0.11541
3878.15047,0.11639
3880.07894,0.11839
3882.00741,0.11800
3883.93588,0.11994
3885.86435,0.12293
3887.79282,0.12279
3889.72129,0.12637
3891.64975,0.13026
3893.57822,0.12574
3895.50669,0.12257
3897.43516,0.12674
3899.36363,0.13254
3901.29210,0.13430
3903.22057,0.13290
3905.14903,0.12577
3907.07750,0.11369
3909.00597,0.10415
3910.93444,0.10194
3912.86291,0.10685
3914.79138,0.11664
3916.71985,0.12531
3918.64832,0.12263
3920.57678,0.11424
3922.50525,0.11235
3924.43372,0.11460
3926.36219,0.11446
3928.29066,0.11531
3930.21913,0.11927
3932.14760,0.12000
3934.07606,0.11820
3936.00453,0.12108
3937.93300,0.12637
3939.86147,0.12797
3941.78994,0.12398
3943.71841,0.11727
3945.64688,0.11376
3947.57535,0.11546
3949.50381,0.11767
3951.43228,0.11479
3953.36075,0.11161
3955.28922,0.11260
3957.21769,0.11301
3959.14616,0.11208
3961.07463,0.11102
3963.00309,0.10870
3964.93156,0.10638
3966.86003,0.10336
3968.78850,0.10435
3970.71697,0.11362
3972.64544,0.12037
3974.57391,0.11848
3976.50238,0.11369
3978.43084,0.10715
3980.35931,0.10340
3982.28778,0.10807
3984.21625,0.11329
3986.14472,0.11362
3988.07319,0.11067
3990.00166,0.10500
3991.93012,0.10029
3993.85859,0.09983
3995.78706,0.10128
3997.71553,0.10180
3999.64400,0.10373
4001.57247,0.10654
4003.50094,0.10623
4005.42941,0.10408
4007.35787,0.10195
4009.28634,0.10084
4011.21481,0.10283
4013.14328,0.10502
4015.07175,0.10374
4017.00022,0.10154
4018.92869,0.10015
4020.85715,0.09987
4022.78562,0.10376
4024.71409,0.10945
4026.64256,0.10733
4028.57103,0.09878
4030.49950,0.09705
4032.42797,0.10119
4034.35644,0.10129
4036.28490,0.10096
4038.21337,0.10493
4040.14184,0.10622
4042.07031,0.10309
4043.99878,0.10188
4045.92725,0.10394
4047.85572,0.10574
4049.78418,0.10224
4051.71265,0.09520
4053.64112,0.09169
4055.56959,0.09263
4057.49806,0.09593
4059.42653,0.10043
4061.35500,0.10549
4063.28346,0.10816
4065.21193,0.10549
4067.14040,0.10169
4069.06887,0.10193
4070.99734,0.10201
4072.92581,0.09733
4074.85428,0.09446
4076.78275,0.09685
4078.71121,0.09855
4080.63968,0.10050
4082.56815,0.10387
4084.49662,0.10156
4086.42509,0.09502
4088.35356,0.09315
4090.28203,0.09456
4092.21049,0.09292
4094.13896,0.09133
4096.06743,0.09324
4097.99590,0.09463
4099.92437,0.09645
4101.85284,0.10062
4103.78131,0.10096
4105.70978,0.09453
4107.63824,0.08734
4109.56671,0.08579
4111.49518,0.08899
4113.42365,0.08990
4115.35212,0.08947
4117.28059,0.09237
4119.20906,0.09129
4121.13752,0.08572
4123.06599,0.08458
4124.99446,0.08895
4126.92293,0.09655
4128.85140,0.09837
4130.77987,0.09227
4132.70834,0.09170
4134.63681,0.09441
4136.56527,0.08967
4138.49374,0.08452
4140.42221,0.08614
4142.35068,0.08965
4144.27915,0.09081
4146.20762,0.08964
4148.13609,0.08474
4150.06455,0.07808
4151.99302,0.07905
4153.92149,0.08677
4155.84996,0.09114
4157.77843,0.09378
4159.70690,0.09644
4161.63537,0.09363
4163.56384,0.08585
4165.49230,0.07596
4167.42077,0.06618
4169.34924,0.06677
4171.27771,0.08171
4173.20618,0.09303
4175.13465,0.08869
4177.06312,0.07955
4178.99158,0.07788
4180.92005,0.08352
4182.84852,0.09020
4184.77699,0.09176
4186.70546,0.08423
4188.63393,0.07313
4190.56240,0.06698
4192.49087,0.06538
4194.41933,0.06673
4196.34780,0.07173
4198.27627,0.07657
4200.20474,0.07712
4202.13321,0.07601
4204.06168,0.07456
4205.99015,0.07312
4207.91861,0.07529
4209.84708,0.07945
4211.77555,0.08102
4213.70402,0.07984
4215.63249,0.07749
4217.56096,0.07730
4219.48943,0.07887
4221.41789,0.07378
4223.34636,0.06449
4225.27483,0.06277
4227.20330,0.06904
4229.13177,0.07617
4231.06024,0.07813
4232.98871,0.07638
4234.91718,0.07434
4236.84564,0.07119
4238.77411,0.06940
4240.70258,0.07087
4242.63105,0.07272
4244.55952,0.07082
4246.48799,0.06631
4248.41646,0.06596
4250.34492,0.06852
4252.27339,0.06689
4254.20186,0.06266
4256.13033,0.06108
4258.05880,0.06194
4259.98727,0.06115
4261.91574,0.05872
4263.84421,0.06110
4265.77267,0.06743
4267.70114,0.07114
4269.62961,0.07097
4271.55808,0.06578
4273.48655,0.05728
4275.41502,0.05398
4277.34349,0.05751
4279.27195,0.06299
4281.20042,0.06867
4283.12889,0.06722
4285.05736,0.05494
4286.98583,0.04478
4288.91430,0.04512
4290.84277,0.05071
4292.77124,0.05590
4294.69970,0.05860
4296.62817,0.05864
4298.55664,0.05725
4300.48511,0.05454
4302.41358,0.04955
4304.34205,0.04667
4306.27052,0.05104
4308.19898,0.05662
4310.12745,0.05685
4312.05592,0.05642
4313.98439,0.05449
4315.91286,0.04688
4317.84133,0.04475
4319.76980,0.05363
4321.69827,0.05997
4323.62673,0.05697
4325.55520,0.05126
4327.48367,0.04650
4329.41214,0.04211
4331.34061,0.04364
4333.26908,0.05195
4335.19755,0.05511
4337.12601,0.04930
4339.05448,0.04169
4340.98295,0.03666
4342.91142,0.04040
4344.83989,0.04899
4346.76836,0.04792
4348.69683,0.04444
4350.62530,0.05002
4352.55376,0.05553
4354.48223,0.05380
4356.41070,0.04915
4358.33917,0.04695
4360.26764,0.04749
4362.19611,0.04662
4364.12458,0.04379
4366.05304,0.04481
4367.98151,0.04735
4369.90998,0.04451
4371.83845,0.03966
4373.76692,0.03521
4375.69539,0.03093
4377.62386,0.03085
4379.55232,0.03437
4381.48079,0.03428
4383.40926,0.03168
4385.33773,0.03631
4387.26620,0.04441
4389.19467,0.04771
4391.12314,0.04727
4393.05161,0.04138
4394.98007,0.03410
4396.90854,0.03369
4398.83701,0.03547
4400.76548,0.03571
4402.69395,0.03889
4404.62242,0.04171
4406.55089,0.03708
4408.47935,0.03406
4410.40782,0.04034
4412.33629,0.04329
4414.26476,0.04040
4416.19323,0.04252
4418.12170,0.04690
4420.05017,0.04405
4421.97864,0.03481
4423.90710,0.02724
4425.83557,0.02731
4427.76404,0.03454
4429.69251,0.03863
4431.62098,0.03734
4433.54945,0.04135
4435.47792,0.04736
4437.40638,0.04659
4439.33485,0.04149
4441.26332,0.03742
4443.19179,0.03891
4445.12026,0.04184
4447.04873,0.03782
4448.97720,0.03141
4450.90567,0.02864
4452.83413,0.02775
4454.76260,0.02644
4456.69107,0.02447
4458.61954,0.02821
4460.54801,0.03651
4462.47648,0.03573
4464.40495,0.02456
4466.33341,0.01541
4468.26188,0.01659
4470.19035,0.02622
4472.11882,0.03483
4474.04729,0.03414
4475.97576,0.02893
4477.90423,0.02413
4479.83270,0.01525
4481.76116,0.00716
4483.68963,0.00638
4485.61810,0.01037
4487.54657,0.01894
4489.47504,0.03171
4491.40351,0.03900
4493.33198,0.03706
4495.26044,0.03513
4497.18891,0.03495
4499.11738,0.03600
4501.04585,0.03616
4502.97432,0.02837
4504.90279,0.01889
4506.83126,0.01626
4508.75973,0.01782
4510.68819,0.01870
4512.61666,0.01991
4514.54513,0.02660
4516.47360,0.03382
4518.40207,0.02890
4520.33054,0.01153
4522.25901,0.00041
4524.18747,0.01037
4526.11594,0.02802
4528.04441,0.03300
4529.97288,0.02389
4531.90135,0.01096
4533.82982,0.00561
4535.75829,0.01351
4537.68676,0.02677
4539.61522,0.02764
4541.54369,0.01624
4543.47216,0.00961
4545.40063,0.01017
4547.32910,0.01304
4549.25757,0.01469
4551.18604,0.01484
4553.11450,0.01925
4555.04297,0.02418
4556.97144,0.02275
4558.89991,0.01682
4560.82838,0.01202
4562.75685,0.01140
4564.68532,0.01606
4566.61378,0.02421
4568.54225,0.02441
4570.47072,0.01432
4572.39919,0.00693
4574.32766,0.00773
4576.25613,0.01459
4578.18460,0.02250
4580.11307,0.02175
4582.04153,0.01284
4583.97000,0.00775
4585.89847,0.01209
4587.82694,0.02352
4589.75541,0.03382
4591.68388,0.03310
4593.61235,0.02386
4595.54081,0.01469
4597.46928,0.00577
4599.39775,-0.00062
4601.32622,0.00269
4603.25469,0.01343
4605.18316,0.01995
4607.11163,0.01731
4609.04010,0.01290
4610.96856,0.01106
4612.89703,0.01086
4614.82550,0.01321
4616.75397,0.01864
4618.68244,0.02069
4620.61091,0.01228
4622.53938,0.00339
4624.46784,0.00170
4626.39631,0.00094
4628.32478,0.00254
4630.25325,0.01037
4632.18172,0.02082
4634.11019,0.02538
4636.03866,0.01834
4637.96713,0.00627
4639.89559,0.00119
4641.82406,0.00867
4643.75253,0.02075
4645.68100,0.02807
4647.60947,0.03265
4649.53794,0.03081
4651.46641,0.01436
4653.39487,-0.00207
4655.32334,-0.00188
4657.25181,0.00400
4659.18028,0.00524
4661.10875,0.01138
4663.03722,0.02405
4664.96569,0.02589
4666.89416,0.00953
4668.82262,-0.00738
4670.75109,-0.01038
4672.67956,-0.00662
4674.60803,-0.00208
4676.53650,0.00629
4678.46497,0.01552
4680.39344,0.02166
4682.32190,0.02342
4684.25037,0.01697
4686.17884,0.00519
4688.10731,-0.00079
4690.03578,0.00415
4691.96425,0.00933
4693.89272,0.00730
4695.82119,0.01169
4697.74965,0.02615
4699.67812,0.03159
4701.60659,0.02216
4703.53506,0.01154
4705.46353,0.01281
4707.39200,0.02042
4709.32047,0.01942
4711.24893,0.01391
4713.17740,0.01042
4715.10587,0.00568
4717.03434,0.00562
4718.96281,0.01077
4720.89128,0.00998
4722.81975,0.00821
4724.74821,0.01509
4726.67668,0.02225
4728.60515,0.02696
4730.53362,0.02480
4732.46209,0.00677
4734.39056,-0.00753
4736.31903,-0.00601
4738.24750,-0.00426
4740.17596,-0.00821
4742.10443,-0.01127
4744.03290,-0.00702
4745.96137,0.00600
4747.88984,0.01935
4749.81831,0.02060
4751.74678,0.01539
4753.67524,0.01521
4755.60371,0.01592
4757.53218,0.01159
4759.46065,0.00217
4761.38912,-0.00506
4763.31759,-0.00172
4765.24606,0.01141
4767.17453,0.02833
4769.10299,0.03837
4771.03146,0.03312
4772.95993,0.02176
4774.88840,0.01818
4776.81687,0.01701
4778.74534,0.00928
4780.67381,0.00325
4782.60227,0.00633
4784.53074,0.01087
4786.45921,0.01422
4788.38768,0.01651
4790.31615,0.00851
4792.24462,-0.00235
4794.17309,0.00060
4796.10156,0.00693
4798.03002,-0.00221
4799.95849,-0.01965
4801.88696,-0.02530
4803.81543,-0.01575
4805.74390,-0.00715
4807.67237,-0.01037
4809.60084,-0.01510
4811.52930,-0.00575
4813.45777,0.01419
4815.38624,0.02565
4817.31471,0.01976
4819.24318,0.00625
4821.17165,-0.00426
4823.10012,-0.00427
4825.02859,0.00961
4826.95705,0.01933
4828.88552,0.01097
4830.81399,0.00674
4832.74246,0.01948
4834.67093,0.02795
4836.59940,0.02297
4838.52787,0.01757
4840.45633,0.01707
4842.38480,0.01913
4844.31327,0.02233
4846.24174,0.02222
4848.17021,0.01398
4850.09868,0.00349
4852.02715,0.00167
4853.95562,0.00646
4855.88408,0.00759
4857.81255,0.00280
4859.74102,-0.00070
4861.66949,0.00003
4863.59796,0.00236
4865.52643,0.00972
4867.45490,0.02265
4869.38336,0.02548
4871.31183,0.00800
4873.24030,-0.01307
4875.16877,-0.01781
4877.09724,-0.00781
4879.02571,0.00127
4880.95418,0.00363
4882.88265,0.00647
4884.81111,0.00880
4886.73958,0.00841
4888.66805,0.00816
4890.59652,0.00732
4892.52499,0.00598
4894.45346,0.00418
4896.38193,-0.00196
4898.31039,-0.00907
4900.23886,-0.00599
4902.16733,0.00906
4904.09580,0.02492
4906.02427,0.02854
4907.95274,0.02158
4909.88121,0.01467
4911.80967,0.01484
4913.73814,0.02002
4915.66661,0.01350
4917.59508,-0.00595
4919.52355,-0.01293
4921.45202,-0.00185
4923.38049,0.00773
4925.30896,0.00821
4927.23742,0.00183
4929.16589,-0.00420
4931.09436,-0.00202
4933.02283,0.00235
4934.95130,0.01071
4936.87977,0.02904
4938.80824,0.04208
4940.73670,0.03826
4942.66517,0.02314
4944.59364,0.00597
4946.52211,-0.00308
4948.45058,0.00222
4950.37905,0.01557
4952.30752,0.02284
4954.23599,0.01527
4956.16445,-0.00067
4958.09292,-0.00520
4960.02139,0.00485
4961.94986,0.00674
4963.87833,-0.00126
4965.80680,0.00252
4967.73527,0.01077
4969.66373,0.00816
4971.59220,0.00585
4973.52067,0.00416
4975.44914,-0.00125
4977.37761,-0.00268
4979.30608,-0.00441
4981.23455,-0.00490
4983.16302,-0.00380
4985.09148,-0.00798
4987.01995,-0.00414
4988.94842,0.01610
4990.87689,0.03524
4992.80536,0.03694
4994.73383,0.03005
4996.66230,0.02907
4998.59076,0.03474
5000.51923,0.04757
5002.44770,0.05901
5004.37617,0.04599
5006.30464,0.02224
5008.23311,0.02988
5010.16158,0.05487
5012.09005,0.05539
5014.01851,0.03776
5015.94698,0.02512
5017.87545,0.02178
5019.80392,0.02171
5021.73239,0.01995
5023.66086,0.01838
5025.58933,0.01628
5027.51779,0.01251
5029.44626,0.01520
5031.37473,0.01686
5033.30320,0.00315
5035.23167,-0.01029
5037.16014,-0.00602
5039.08861,0.00532
5041.01708,0.00817
5042.94554,0.00784
5044.87401,0.01197
5046.80248,0.01543
5048.73095,0.01602
5050.65942,0.01827
5052.58789,0.02026
5054.51636,0.01500
5056.44482,0.01403
5058.37329,0.02346
5060.30176,0.02358
5062.23023,0.01447
5064.15870,0.01104
5066.08717,0.00867
5068.01564,0.00374
5069.94410,0.00505
5071.87257,0.01301
5073.80104,0.01592
5075.72951,0.01826
5077.65798,0.03217
5079.58645,0.04322
5081.51492,0.04599
5083.44339,0.05334
5085.37185,0.06087
5087.30032,0.05761
5089.22879,0.03813
5091.15726,0.01555
5093.08573,0.00984
5095.01420,0.01491
5096.94267,0.01686
5098.87113,0.02039
5100.79960,0.02759
5102.72807,0.02751
5104.65654,0.02810
5106.58501,0.03690
5108.51348,0.03718
5110.44195,0.02550
5112.37042,0.02014
5114.29888,0.02549
5116.22735,0.03126
5118.15582,0.03123
5120.08429,0.02460
5122.01276,0.02472
5123.94123,0.03405
5125.86970,0.03695
5127.79816,0.03674
5129.72663,0.04383
5131.65510,0.04943
5133.58357,0.04172
5135.51204,0.03224
5137.44051,0.03274
5139.36898,0.03079
5141.29745,0.02105
5143.22591,0.01365
5145.15438,0.01445
5147.08285,0.01518
5149.01132,0.01438
5150.93979,0.02682
5152.86826,0.04181
5154.79673,0.04328
5156.72519,0.04209
5158.65366,0.04751
5160.58213,0.05856
5162.51060,0.05743
5164.43907,0.03015
5166.36754,0.00081
5168.29601,-0.00123
5170.22448,0.02471
5172.15294,0.04706
5174.08141,0.05327
5176.00988,0.06369
5177.93835,0.07373
5179.86682,0.06054
5181.79529,0.03448
5183.72376,0.03102
5185.65222,0.04773
5187.58069,0.05493
5189.50916,0.05878
5191.43763,0.06710
5193.36610,0.06125
5195.29457,0.04236
5197.22304,0.03557
5199.15151,0.04882
5201.07997,0.05989
5203.00844,0.05316
5204.93691,0.04164
5206.86538,0.03597
5208.79385,0.02350
5210.72232,0.00834
5212.65079,0.00727
5214.57925,0.01435
5216.50772,0.01431
5218.43619,0.00284
5220.36466,-0.00292
5222.29313,0.00809
5224.22160,0.01232
5226.15007,0.00536
5228.07854,0.00845
5230.00700,0.01200
5231.93547,0.00443
5233.86394,0.01062
5235.79241,0.03961
5237.72088,0.04798
5239.64935,0.02876
5241.57782,0.02125
5243.50628,0.02495
5245.43475,0.02683
5247.36322,0.03856
5249.29169,0.06007
5251.22016,0.08307
5253.14863,0.10039
5255.07710,0.09367
5257.00556,0.06766
5258.93403,0.05340
5260.86250,0.06941
5262.79097,0.08979
5264.71944,0.07532
5266.64791,0.04913
5268.57638,0.03793
5270.50485,0.04077
5272.43331,0.04975
5274.36178,0.04585
5276.29025,0.02733
5278.21872,0.01386
5280.14719,0.01902
5282.07566,0.03153
5284.00413,0.03168
5285.93259,0.02608
5287.86106,0.03985
5289.78953,0.06656
5291.71800,0.07701
5293.64647,0.06534
5295.57494,0.04373
5297.50341,0.03682
5299.43188,0.05650
5301.36034,0.07257
5303.28881,0.06589
5305.21728,0.05216
5307.14575,0.03679
5309.07422,0.02891
5311.00269,0.03980
5312.93116,0.04536
5314.85962,0.03245
5316.78809,0.02345
5318.71656,0.03529
5320.64503,0.06261
5322.57350,0.10016
5324.50197,0.13319
5326.43044,0.13211
5328.35891,0.10545
5330.28737,0.08696
5332.21584,0.07422
5334.14431,0.05970
5336.07278,0.05837
5338.00125,0.07824
5339.92972,0.08852
5341.85819,0.07088
5343.78665,0.05528
5345.71512,0.05948
5347.64359,0.06380
5349.57206,0.06588
5351.50053,0.07620
5353.42900,0.09139
5355.35747,0.08656
5357.28594,0.05263
5359.21440,0.02478
5361.14287,0.02394
5363.07134,0.02682
5364.99981,0.02486
5366.92828,0.02966
5368.85675,0.03786
5370.78522,0.05770
5372.71368,0.09042
5374.64215,0.10170
5376.57062,0.07838
5378.49909,0.05514
5380.42756,0.05194
5382.35603,0.06506
5384.28450,0.07684
5386.21297,0.06801
5388.14143,0.05362
5390.06990,0.04779
5391.99837,0.03321
5393.92684,0.01591
5395.85531,0.01741
5397.78378,0.01432
5399.71225,0.01103
5401.64071,0.02928
5403.56918,0.04946
5405.49765,0.06078
5407.42612,0.06524
5409.35459,0.06166
5411.28306,0.06428
5413.21153,0.07834
5415.13999,0.08348
5417.06846,0.07477
5418.99693,0.07364
5420.92540,0.08232
5422.85387,0.08131
5424.78234,0.09519
5426.71081,0.14609
5428.63928,0.16910
5430.56774,0.12372
5432.49621,0.06859
5434.42468,0.04685
5436.35315,0.05002
5438.28162,0.04044
5440.21009,0.02567
5442.13856,0.03859
5444.06702,0.07693
5445.99549,0.10860
5447.92396,0.08807
5449.85243,0.03067
5451.78090,0.00181
5453.70937,0.01149
5455.63784,0.03626
5457.56631,0.06105
5459.49477,0.07436
5461.42324,0.07245
5463.35171,0.06463
5465.28018,0.07110
5467.20865,0.09635
5469.13712,0.10171
5471.06559,0.07571
5472.99405,0.07451
5474.92252,0.10697
5476.85099,0.10577
5478.77946,0.05962
5480.70793,0.02058
5482.63640,0.00750
5484.56487,0.00981
5486.49334,0.02787
5488.42180,0.06909
5490.35027,0.11619
5492.27874,0.13127
5494.20721,0.10921
5496.13568,0.07716
5498.06415,0.05352
5499.99262,0.05487
5501.92108,0.06998
5503.84955,0.07612
5505.77802,0.07639
5507.70649,0.07012
5509.63496,0.06461
5511.56343,0.07095
5513.49190,0.06844
5515.42037,0.06279
5517.34883,0.07554
5519.27730,0.07842
5521.20577,0.06978
5523.13424,0.07686
5525.06271,0.08047
5526.99118,0.06995
5528.91965,0.06609
5530.84811,0.06743
5532.77658,0.06667
5534.70505,0.07016
5536.63352,0.08195
5538.56199,0.08642
5540.49046,0.07372
5542.41893,0.06867
5544.34740,0.07615
5546.27586,0.07059
5548.20433,0.05534
5550.13280,0.05160
5552.06127,0.05710
5553.98974,0.05570
5555.91821,0.04859
5557.84668,0.05225
5559.77514,0.06969
5561.70361,0.08426
5563.63208,0.07919
5565.56055,0.06522
5567.48902,0.07229
5569.41749,0.09520
5571.34596,0.09561
5573.27443,0.07262
5575.20289,0.06160
5577.13136,0.06846
5579.05983,0.07793
5580.98830,0.07614
5582.91677,0.06020
5584.84524,0.05799
5586.77371,0.07625
5588.70217,0.08843
5590.63064,0.08619
5592.55911,0.07733
5594.48758,0.06318
5596.41605,0.04544
5598.34452,0.03913
5600.27299,0.06268
5602.20145,0.09946
5604.12992,0.11114
5606.05839,0.09202
5607.98686,0.06730
5609.91533,0.05167
5611.84380,0.03608
5613.77227,0.01836
5615.70074,0.01502
5617.62920,0.03190
5619.55767,0.05221
5621.48614,0.06378
5623.41461,0.08450
5625.34308,0.11382
5627.27155,0.11197
5629.20002,0.08069
5631.12848,0.06564
5633.05695,0.07838
5634.98542,0.09482
5636.91389,0.09831
5638.84236,0.09755
5640.77083,0.09566
5642.69930,0.07642
5644.62777,0.03923
5646.55623,0.02389
5648.48470,0.05599
5650.41317,0.09171
5652.34164,0.09482
5654.27011,0.08059
5656.19858,0.06822
5658.12705,0.06273
5660.05551,0.04668
5661.98398,0.02182
5663.91245,0.01847
5665.84092,0.03263
5667.76939,0.03936
5669.69786,0.03038
5671.62633,0.02624
5673.55480,0.02979
5675.48326,0.02115
5677.41173,0.02496
5679.34020,0.05586
5681.26867,0.07574
5683.19714,0.06156
5685.12561,0.03590
5687.05408,0.03253
5688.98254,0.05374
5690.91101,0.08202
5692.83948,0.11240
5694.76795,0.13445
5696.69642,0.12871
5698.62489,0.11076
5700.55336,0.11018
5702.48183,0.10884
5704.41029,0.08232
5706.33876,0.05418
5708.26723,0.05167
5710.19570,0.06807
5712.12417,0.09008
5714.05264,0.10611
5715.98111,0.11134
5717.90957,0.11466
5719.83804,0.10769
5721.76651,0.08820
5723.69498,0.09201
5725.62345,0.12802
5727.55192,0.14863
5729.48039,0.13234
5731.40886,0.11692
5733.33732,0.11362
5735.26579,0.10579
5737.19426,0.09586
5739.12273,0.08240
5741.05120,0.07131
5742.97967,0.08007
5744.90814,0.09864
5746.83660,0.11544
5748.76507,0.12601
5750.69354,0.12612
5752.62201,0.11229
5754.55048,0.09056
5756.47895,0.08652
5758.40742,0.09478
5760.33588,0.09553
5762.26435,0.08717
5764.19282,0.06078
5766.12129,0.03304
5768.04976,0.03265
5769.97823,0.04614
5771.90670,0.06251
5773.83517,0.09440
5775.76363,0.12938
5777.69210,0.13947
5779.62057,0.13257
5781.54904,0.14358
5783.47751,0.17042
5785.40598,0.17196
5787.33445,0.14269
5789.26291,0.12048
5791.19138,0.11864
5793.11985,0.09382
5795.04832,0.03523
5796.97679,0.02830
5798.90526,0.08169
5800.83373,0.10386
5802.76220,0.08295
5804.69066,0.06591
5806.61913,0.07194
5808.54760,0.09167
5810.47607,0.10067
5812.40454,0.09193
5814.33301,0.09452
5816.26148,0.10822
5818.18994,0.11114
5820.11841,0.12437
5822.04688,0.13370
5823.97535,0.10760
5825.90382,0.08676
5827.83229,0.07647
5829.76076,0.04515
5831.68923,0.02252
5833.61769,0.03247
5835.54616,0.05749
5837.47463,0.09633
5839.40310,0.12514
5841.33157,0.10038
5843.26004,0.05015
5845.18851,0.03713
5847.11697,0.05633
5849.04544,0.06033
5850.97391,0.04710
5852.90238,0.04584
5854.83085,0.04598
5856.75932,0.01863
5858.68779,-0.00874
5860.61626,0.01227
5862.54472,0.05207
5864.47319,0.06850
5866.40166,0.06485
5868.33013,0.06157
5870.25860,0.08926
5872.18707,0.13609
5874.11554,0.14450
5876.04400,0.08594
5877.97247,0.01598
5879.90094,-0.00050
5881.82941,0.01654
5883.75788,0.03118
5885.68635,0.04368
5887.61482,0.04616
5889.54329,0.04469
5891.47175,0.06063
5893.40022,0.08274
5895.32869,0.08470
5897.25716,0.06051
5899.18563,0.04593
5901.11410,0.07022
5903.04257,0.11022
5904.97103,0.14567
5906.89950,0.18244
5908.82797,0.20750
5910.75644,0.18477
5912.68491,0.12706
5914.61338,0.09775
5916.54185,0.09166
5918.47032,0.06211
5920.39878,0.03067
5922.32725,0.04000
5924.25572,0.07651
5926.18419,0.08203
5928.11266,0.04774
5930.04113,0.01416
5931.96960,-0.02243
5933.89806,-0.04086
5935.82653,0.00539
5937.75500,0.06583
5939.68347,0.09904
5941.61194,0.11733
5943.54041,0.11047
5945.46888,0.09759
5947.39734,0.09777
5949.32581,0.10510
5951.25428,0.13129
5953.18275,0.15586
5955.11122,0.16435
5957.03969,0.16116
5958.96816,0.13249
5960.89663,0.09873
5962.82509,0.08815
5964.75356,0.09357
5966.68203,0.09683
5968.61050,0.09350
5970.53897,0.09307
5972.46744,0.08923
5974.39591,0.08346
5976.32437,0.08660
5978.25284,0.08115
5980.18131,0.06723
5982.10978,0.08383
5984.03825,0.12521
5985.96672,0.14500
5987.89519,0.14777
5989.82366,0.16171
5991.75212,0.17396
5993.68059,0.15859
5995.60906,0.14324
5997.53753,0.14741
5999.46600,0.11418
6001.39447,0.04241
6003.32294,-0.00345
6005.25140,0.01478
6007.17987,0.06932
6009.10834,0.08625
6011.03681,0.05898
6012.96528,0.04674
6014.89375,0.05223
6016.82222,0.05506
6018.75069,0.06837
6020.67915,0.07639
6022.60762,0.07123
6024.53609,0.06872
6026.46456,0.06109
6028.39303,0.07311
6030.32150,0.10528
6032.24997,0.10345
6034.17843,0.07242
6036.10690,0.05386
6038.03537,0.06662
6039.96384,0.10133
6041.89231,0.10279
6043.82078,0.04385
6045.74925,0.00439
6047.67772,0.03819
6049.60618,0.11300
6051.53465,0.17541
6053.46312,0.18471
6055.39159,0.15352
6057.32006,0.13741
6059.24853,0.14782
6061.17700,0.16607
6063.10546,0.16752
6065.03393,0.13521
6066.96240,0.10038
6068.89087,0.08228
6070.81934,0.08060
6072.74781,0.10338
6074.67628,0.12787
6076.60475,0.12992
6078.53321,0.11051
6080.46168,0.07408
6082.39015,0.05360
6084.31862,0.06269
6086.24709,0.05878
6088.17556,0.03509
6090.10403,0.02617
6092.03249,0.03451
6093.96096,0.05993
6095.88943,0.08222
6097.81790,0.07536
6099.74637,0.09418
6101.67484,0.14699
6103.60331,0.14526
6105.53177,0.11539
6107.46024,0.12318
6109.38871,0.12896
6111.31718,0.12061
6113.24565,0.12136
6115.17412,0.12407
6117.10259,0.13176
6119.03106,0.14004
6120.95952,0.16495
6122.88799,0.21514
6124.81646,0.21152
6126.74493,0.11492
6128.67340,0.00886
6130.60187,-0.02150
6132.53034,0.03337
6134.45880,0.09365
6136.38727,0.10127
6138.31574,0.10145
6140.24421,0.11823
6142.17268,0.12639
6144.10115,0.10575
6146.02962,0.07594
6147.95809,0.10059
6149.88655,0.16503
6151.81502,0.16717
6153.74349,0.07465
6155.67196,-0.03161
6157.60043,-0.05983
6159.52890,0.01582
6161.45737,0.09275
6163.38583,0.06627
6165.31430,0.00535
6167.24277,0.01523
6169.17124,0.08028
6171.09971,0.12176
6173.02818,0.10670
6174.95665,0.07953
6176.88512,0.05665
6178.81358,0.06579
6180.74205,0.11865
6182.67052,0.11698
6184.59899,0.03954
6186.52746,-0.01524
6188.45593,0.01882
6190.38440,0.10720
6192.31286,0.17988
6194.24133,0.20586
6196.16980,0.19018
6198.09827,0.15677
6200.02674,0.11908
6201.95521,0.08634
6203.88368,0.05504
6205.81215,0.02643
6207.74061,0.04187
6209.66908,0.09475
6211.59755,0.11322
6213.52602,0.09288
6215.45449,0.04566
6217.38296,-0.02001
6219.31143,-0.03533
6221.23989,-0.00005
6223.16836,0.02277
6225.09683,0.03415
6227.02530,0.07662
6228.95377,0.11681
6230.88224,0.09750
6232.81071,0.03925
6234.73918,0.00715
6236.66764,0.03514
6238.59611,0.08362
6240.52458,0.10283
6242.45305,0.09533
6244.38152,0.05701
6246.30999,-0.00510
6248.23846,-0.01640
6250.16692,0.04055
6252.09539,0.06062
6254.02386,0.03869
6255.95233,0.03717
6257.88080,0.03472
6259.80927,0.03052
6261.73774,0.03414
6263.66621,0.02238
6265.59467,-0.00754
6267.52314,-0.02050
6269.45161,0.02083
6271.38008,0.08177
6273.30855,0.08337
6275.23702,0.04337
6277.16549,0.02657
6279.09395,0.00813
6281.02242,-0.00505
6282.95089,0.01433
6284.87936,0.03327
6286.80783,0.03721
6288.73630,0.06558
6290.66477,0.10219
6292.59323,0.08425
6294.52170,0.03499
6296.45017,0.01483
6298.37864,0.03570
6300.30711,0.05790
6302.23558,0.05143
6304.16405,0.04947
6306.09252,0.09362
6308.02098,0.17017
6309.94945,0.18284
6311.87792,0.11087
6313.80639,0.07080
6315.73486,0.06251
6317.66333,0.03552
6319.59180,0.04352
6321.52026,0.05768
6323.44873,0.02069
6325.37720,-0.00037
6327.30567,0.00438
6329.23414,-0.00821
6331.16261,0.00252
6333.09108,0.04508
6335.01955,0.05491
6336.94801,0.05828
6338.87648,0.10474
6340.80495,0.13240
6342.73342,0.08295
6344.66189,0.03640
6346.59036,0.07596
6348.51883,0.14592
6350.44729,0.19926
6352.37576,0.21942
6354.30423,0.17650
6356.23270,0.11295
6358.16117,0.10705
6360.08964,0.15392
6362.01811,0.16780
6363.94658,0.13651
6365.87504,0.08531
6367.80351,0.00628
6369.73198,-0.04915
6371.66045,-0.02432
6373.58892,0.04341
6375.51739,0.09495
6377.44586,0.12165
6379.37432,0.10537
6381.30279,0.04637
6383.23126,-0.02249
6385.15973,-0.05315
6387.08820,-0.01169
6389.01667,0.06749
6390.94514,0.11380
6392.87361,0.08728
6394.80207,0.03761
6396.73054,0.02521
6398.65901,0.02969
6400.58748,0.03445
6402.51595,0.05367
6404.44442,0.10706
6406.37289,0.16664
6408.30135,0.15820
6410.22982,0.07040
6412.15829,0.00544
6414.08676,0.04109
6416.01523,0.10447
6417.94370,0.11304
6419.87217,0.07940
6421.80064,0.04430
6423.72910,0.00945
6425.65757,-0.00167
6427.58604,0.05354
6429.51451,0.12768
6431.44298,0.12393
6433.37145,0.07304
6435.29992,0.06163
6437.22838,0.09384
6439.15685,0.14843
6441.08532,0.17433
6443.01379,0.12097
6444.94226,0.05331
6446.87073,0.05248
6448.79920,0.06293
6450.72766,0.05904
6452.65613,0.08136
6454.58460,0.08045
6456.51307,0.03080
6458.44154,-0.00952
6460.37001,-0.02868
6462.29848,-0.02416
6464.22695,0.01501
6466.15541,0.04478
6468.08388,0.04890
6470.01235,0.07015
6471.94082,0.09214
6473.86929,0.12877
6475.79776,0.19613
6477.72623,0.19376
6479.65469,0.12703
6481.58316,0.07419
6483.51163,0.06644
6485.44010,0.09230
6487.36857,0.09290
6489.29704,0.07798
6491.22551,0.09096
6493.15398,0.12793
6495.08244,0.18490
6497.01091,0.21010
6498.93938,0.17334
6500.86785,0.12022
6502.79632,0.08275
6504.72479,0.08459
6506.65326,0.09220
6508.58172,0.05030
6510.51019,-0.00044
6512.43866,-0.02419
6514.36713,-0.02122
6516.29560,0.02307
6518.22407,0.06998
6520.15254,0.08380
6522.08101,0.11390
6524.00947,0.16592
6525.93794,0.19947
6527.86641,0.24305
6529.79488,0.26274
6531.72335,0.20143
6533.65182,0.11314
6535.58029,0.07285
6537.50875,0.08198
6539.43722,0.09435
6541.36569,0.08950
6543.29416,0.04919
6545.22263,0.00265
6547.15110,0.01027
6549.07957,0.05344
6551.00804,0.09444
6552.93650,0.11894
6554.86497,0.08642
6556.79344,0.01088
6558.72191,0.01223
6560.65038,0.07326
6562.57885,0.05105
6564.50732,-0.00100
6566.43578,0.02979
6568.36425,0.08339
6570.29272,0.13786
6572.22119,0.19987
6574.14966,0.20657
6576.07813,0.14409
6578.00660,0.05843
6579.93507,0.03826
6581.86353,0.11305
6583.79200,0.18993
6585.72047,0.20496
6587.64894,0.20230
6589.57741,0.20942
6591.50588,0.18681
6593.43435,0.12024
6595.36281,0.05921
6597.29128,0.02971
6599.21975,0.03843
6601.14822,0.12782
6603.07669,0.24755
6605.00516,0.29270
6606.93363,0.25922
6608.86210,0.17890
6610.79056,0.09334
6612.71903,0.02609
6614.64750,-0.02428
6616.57597,-0.02320
6618.50444,0.02449
6620.43291,0.06951
6622.36138,0.09647
6624.28984,0.07045
6626.21831,0.01160
6628.14678,-0.00617
6630.07525,0.00231
6632.00372,0.00563
6633.93219,0.02028
6635.86066,0.00298
6637.78912,-0.05178
6639.71759,-0.04912
6641.64606,-0.00596
6643.57453,-0.03359
6645.50300,-0.09772
6647.43147,-0.04880
6649.35994,0.09143
6651.28841,0.16814
6653.21687,0.13369
6655.14534,0.10813
6657.07381,0.13708
6659.00228,0.11403
6660.93075,0.06738
6662.85922,0.07121
6664.78769,0.11338
6666.71615,0.14389
6668.64462,0.10274
6670.57309,0.02166
6672.50156,-0.00918
6674.43003,0.02403
6676.35850,0.02881
6678.28697,-0.05178
6680.21544,-0.10386
6682.14390,-0.02186
6684.07237,0.11923
6686.00084,0.17611
6687.92931,0.12679
6689.85778,0.08024
6691.78625,0.08314
6693.71472,0.07378
6695.64318,0.02551
6697.57165,-0.02476
6699.50012,-0.01521
6701.42859,0.08480
6703.35706,0.19726
6705.28553,0.19572
6707.21400,0.11649
6709.14247,0.06689
6711.07093,0.06274
6712.99940,0.08389
6714.92787,0.09267
6716.85634,0.04735
6718.78481,0.01150
6720.71328,0.05623
6722.64175,0.07939
6724.57021,0.06232
6726.49868,0.10102
6728.42715,0.17009
6730.35562,0.22930
6732.28409,0.25547
6734.21256,0.21954
6736.14103,0.15137
6738.06950,0.08113
6739.99796,-0.00978
6741.92643,-0.07446
6743.85490,-0.04388
6745.78337,0.02939
6747.71184,0.07389
6749.64031,0.05600
6751.56878,0.02051
6753.49724,0.02817
6755.42571,0.03728
6757.35418,0.02059
6759.28265,0.00900
6761.21112,-0.02216
6763.13959,-0.08593
6765.06806,-0.11878
6766.99653,-0.10229
6768.92499,-0.10270
6770.85346,-0.08497
6772.78193,0.05546
6774.71040,0.17696
6776.63887,0.07293
6778.56734,-0.05113
6780.49581,-0.00279
6782.42427,0.07475
6784.35274,0.06550
6786.28121,0.03374
6788.20968,0.05722
6790.13815,0.11039
6792.06662,0.08264
6793.99509,-0.03544
6795.92355,-0.09215
6797.85202,-0.01685
6799.78049,0.08579
6801.70896,0.12131
6803.63743,0.10408
6805.56590,0.08491
6807.49437,0.05918
6809.42284,0.02456
6811.35130,0.05005
6813.27977,0.13373
6815.20824,0.16486
6817.13671,0.15331
6819.06518,0.14030
6820.99365,0.10003
6822.92212,0.01181
6824.85058,-0.10655
6826.77905,-0.16174
6828.70752,-0.10886
6830.63599,-0.02554
6832.56446,0.02953
6834.49293,0.08282
6836.42140,0.13368
6838.34987,0.16704
6840.27833,0.17256
6842.20680,0.10680
6844.13527,0.03879
6846.06374,0.02125
6847.99221,-0.01903
6849.92068,-0.04597
6851.84915,-0.01146
6853.77761,0.07980
6855.70608,0.19344
6857.63455,0.17830
6859.56302,0.08331
6861.49149,0.07193
6863.41996,0.12914
6865.34843,0.14621
6867.27690,0.13608
6869.20536,0.15346
6871.13383,0.17323
6873.06230,0.18483
6874.99077,0.22584
6876.91924,0.25069
6878.84771,0.18696
6880.77618,0.09233
6882.70464,0.07071
6884.63311,0.05781
6886.56158,0.00977
6888.49005,0.01671
6890.41852,0.05630
6892.34699,0.05520
6894.27546,0.08209
6896.20393,0.17735
6898.13239,0.24647
6900.06086,0.20829
6901.98933,0.18063
6903.91780,0.25281
6905.84627,0.29733
6907.77474,0.20818
6909.70321,0.06512
6911.63167,-0.03960
6913.56014,-0.04838
6915.48861,-0.01129
6917.41708,-0.00523
6919.34555,-0.00128
6921.27402,0.01811
6923.20249,0.07040
6925.13096,0.15649
6927.05942,0.21418
6928.98789,0.20381
6930.91636,0.13175
6932.84483,0.05689
6934.77330,0.01722
6936.70177,-0.06594
6938.63024,-0.20273
6940.55870,-0.19234
6942.48717,-0.06121
6944.41564,-0.05269
6946.34411,-0.07027
6948.27258,0.01269
6950.20105,0.07506
6952.12952,-0.01056
6954.05799,-0.17416
6955.98645,-0.19448
6957.91492,-0.03985
6959.84339,0.12494
6961.77186,0.24186
6963.70033,0.27456
6965.62880,0.18134
6967.55727,0.06493
6969.48573,0.09941
6971.41420,0.24524
6973.34267,0.31343
6975.27114,0.21348
6977.19961,0.05194
6979.12808,-0.03079
6981.05655,-0.06191
6982.98501,-0.12361
6984.91348,-0.13925
6986.84195,-0.07818
6988.77042,-0.08298
6990.69889,-0.14673
6992.62736,-0.12191
6994.55583,-0.01864
6996.48430,0.01533
6998.41276,-0.01854
7000.34123,0.01444
7002.26970,0.06014
7004.19817,0.07523
7006.12664,0.11286
7008.05511,0.13354
7009.98358,0.11646
7011.91204,0.11637
7013.84051,0.10673
7015.76898,0.05488
7017.69745,0.03235
7019.62592,0.10469
7021.55439,0.17552
7023.48286,0.15645
7025.41133,0.13871
7027.33979,0.11905
7029.26826,0.01971
7031.19673,-0.06258
7033.12520,-0.08249
7035.05367,-0.09371
7036.98214,-0.06937
7038.91061,0.01945
7040.83907,0.10550
7042.76754,0.15072
7044.69601,0.15532
7046.62448,0.09290
7048.55295,0.06897
7050.48142,0.09188
7052.40989,0.03363
7054.33836,-0.01233
7056.26682,0.08266
7058.19529,0.20598
7060.12376,0.23014
7062.05223,0.16281
7063.98070,0.05974
7065.90917,0.00407
7067.83764,-0.07290
7069.76610,-0.18619
7071.69457,-0.11963
7073.62304,0.03503
7075.55151,0.03558
7077.47998,-0.01361
7079.40845,0.00684
7081.33692,0.07323
7083.26539,0.10603
7085.19385,0.12403
7087.12232,0.18364
7089.05079,0.19998
7090.97926,0.15759
7092.90773,0.12428
7094.83620,-0.01121
7096.76467,-0.14668
7098.69313,-0.00492
7100.62160,0.21423
7102.55007,0.24205
7104.47854,0.09899
7106.40701,-0.08141
7108.33548,-0.12720
7110.26395,-0.10332
7112.19242,-0.10424
7114.12088,-0.06842
7116.04935,0.04416
7117.97782,0.14159
7119.90629,0.14434
7121.83476,0.16473
7123.76323,0.20419
7125.69170,0.15957
7127.62016,0.09290
7129.54863,0.11010
7131.47710,0.14633
7133.40557,0.14465
7135.33404,0.14711
7137.26251,0.16489
7139.19098,0.15283
7141.11944,0.06405
7143.04791,-0.05444
7144.97638,-0.10553
7146.90485,-0.15521
7148.83332,-0.22726
7150.76179,-0.16242
7152.69026,0.05408
7154.61873,0.18697
7156.54719,0.08751
7158.47566,-0.07402
7160.40413,-0.08603
7162.33260,0.07080
7164.26107,0.20749
7166.18954,0.22511
7168.11801,0.18378
7170.04647,0.14835
7171.97494,0.18995
7173.90341,0.24753
7175.83188,0.27176
7177.76035,0.31881
7179.68882,0.33475
7181.61729,0.25192
7183.54576,0.10635
7185.47422,-0.00792
7187.40269,-0.08697
7189.33116,-0.08972
7191.25963,0.01563
7193.18810,0.05726
7195.11657,0.05041
7197.04504,0.15429
7198.97350,0.23844
7200.90197,0.14923
7202.83044,-0.03500
7204.75891,-0.14641
7206.68738,-0.07097
7208.61585,0.07219
7210.54432,0.13990
7212.47279,0.12921
7214.40125,0.15594
7216.32972,0.24367
7218.25819,0.23754
7220.18666,0.12621
7222.11513,0.07939
7224.04360,0.12456
7225.97207,0.14262
7227.90053,0.06254
7229.82900,-0.00801
7231.75747,0.03430
7233.68594,0.21351
7235.61441,0.28754
7237.54288,0.08899
7239.47135,-0.11205
7241.39982,-0.14290
7243.32828,-0.09253
7245.25675,-0.03200
7247.18522,0.02270
7249.11369,0.10797
7251.04216,0.20042
7252.97063,0.21676
7254.89910,0.11524
7256.82756,0.02346
7258.75603,0.05983
7260.68450,0.19363
7262.61297,0.24106
7264.54144,0.17165
7266.46991,0.10425
7268.39838,0.09102
7270.32685,0.09440
7272.25531,0.04795
7274.18378,0.01865
7276.11225,0.09603
7278.04072,0.19001
7279.96919,0.19217
7281.89766,0.18592
7283.82613,0.25513
7285.75459,0.21461
7287.68306,0.01137
7289.61153,-0.13658
7291.54000,-0.06075
7293.46847,0.10364
7295.39694,0.09317
7297.32541,-0.03443
7299.25387,-0.06154
7301.18234,-0.03268
7303.11081,-0.04268
7305.03928,-0.07747
7306.96775,-0.01964
7308.89622,0.14326
7310.82469,0.16957
7312.75316,0.10562
7314.68162,0.10201
7316.61009,0.06214
7318.53856,-0.10556
7320.46703,-0.13732
7322.39550,0.07958
7324.32397,0.26174
7326.25244,0.29362
7328.18090,0.29026
7330.10937,0.23706
7332.03784,0.19368
7333.96631,0.22275
7335.89478,0.30772
7337.82325,0.43928
7339.75172,0.39848
7341.68019,0.07579
7343.60865,-0.02572
7345.53712,0.07252
7347.46559,0.03452
7349.39406,-0.09570
7351.32253,-0.03572
7353.25100,0.12233
7355.17947,0.12570
7357.10793,0.01871
7359.03640,-0.04601
7360.96487,-0.01269
7362.89334,0.07241
7364.82181,0.15184
7366.75028,0.16594
7368.67875,0.01493
7370.60722,-0.20324
7372.53568,-0.33978
7374.46415,-0.34855
7376.39262,-0.21226
7378.32109,-0.12526
7380.24956,-0.15760
7382.17803,-0.22359
7384.10650,-0.15375
7386.03496,0.01535
7387.96343,0.16676
7389.89190,0.28468
7391.82037,0.21320
7393.74884,-0.00253
7395.67731,-0.07618
7397.60578,-0.07851
7399.53425,-0.09720
7401.46271,0.02517
7403.39118,0.24851
7405.31965,0.27559
7407.24812,0.16564
7409.17659,0.14013
7411.10506,0.15817
7413.03353,0.16802
7414.96199,0.16701
7416.89046,0.23425
7418.81893,0.36820
7420.74740,0.34089
7422.67587,0.22518
7424.60434,0.15400
7426.53281,0.15170
7428.46128,0.16513
7430.38974,0.13871
7432.31821,0.12366
7434.24668,0.04684
7436.17515,-0.01444
7438.10362,0.13878
7440.03209,0.32622
7441.96056,0.35622
7443.88902,0.26784
7445.81749,0.16737
7447.74596,0.21759
7449.67443,0.37875
7451.60290,0.36229
7453.53137,0.17747
7455.45984,0.09754
7457.38831,0.06423
7459.31677,-0.02769
7461.24524,0.00328
7463.17371,0.11397
7465.10218,0.09017
7467.03065,0.06105
7468.95912,0.11821
7470.88759,0.12314
7472.81605,-0.00939
7474.74452,-0.15988
7476.67299,-0.25282
7478.60146,-0.28412
7480.52993,-0.19034
7482.45840,0.05782
7484.38687,0.28327
7486.31533,0.29682
7488.24380,0.11745
7490.17227,-0.02026
7492.10074,-0.04723
7494.02921,-0.07728
7495.95768,-0.05680
7497.88615,0.11711
