399.19301,0.36562
401.12148,0.05960
403.04995,-0.22290
404.97842,-0.38866
406.90689,-0.32680
408.83536,-0.05709
410.76382,0.16727
412.69229,0.18847
414.62076,0.22388
416.54923,0.34633
418.47770,0.44996
420.40617,0.35854
422.33464,0.18055
424.26311,0.11160
426.19157,0.14181
428.12004,0.19951
430.04851,0.30993
431.97698,0.34246
433.90545,0.22394
435.83392,0.15983
437.76239,0.18607
439.69085,0.19437
441.61932,0.15884
443.54779,0.09897
445.47626,0.02126
447.40473,0.04724
449.33320,0.17580
451.26167,0.20926
453.19013,0.17350
455.11860,0.19474
457.04707,0.20109
458.97554,0.11769
460.90401,0.02746
462.83248,-0.00155
464.76095,0.03681
466.68942,0.03824
468.61788,-0.02573
470.54635,-0.03084
472.47482,0.09252
474.40329,0.22288
476.33176,0.19818
478.26023,0.12966
480.18870,0.07813
482.11716,0.07114
484.04563,0.11791
485.97410,0.16866
487.90257,0.18440
489.83104,0.18190
491.75951,0.15295
493.68798,0.07932
495.61645,0.02181
497.54491,0.04444
499.47338,0.12123
501.40185,0.17211
503.33032,0.14897
505.25879,0.11456
507.18726,0.12602
509.11573,0.15160
511.04419,0.15365
512.97266,0.12940
514.90113,0.08785
516.82960,0.03283
518.75807,-0.00148
520.68654,0.01800
522.61501,0.05111
524.54348,0.05995
526.47194,0.05540
528.40041,0.06085
530.32888,0.07277
532.25735,0.07390
534.18582,0.07603
536.11429,0.11204
538.04276,0.14852
539.97122,0.13731
541.89969,0.11201
543.82816,0.09793
545.75663,0.08413
547.68510,0.08218
549.61357,0.05545
551.54204,-0.10501
553.47051,-0.27434
555.39897,-0.20304
557.32744,-0.00636
559.25591,0.09311
561.18438,0.13281
563.11285,0.15844
565.04132,0.13260
566.96979,0.07067
568.89825,0.05111
570.82672,0.08885
572.75519,0.12172
574.68366,0.11572
576.61213,0.09287
578.54060,0.07795
580.46907,0.08631
582.39754,0.11235
584.32600,0.12722
586.25447,0.12792
588.18294,0.10756
590.11141,0.08171
592.03988,0.08952
593.96835,0.10965
595.89682,0.11383
597.82528,0.11683
599.75375,0.14160
601.68222,0.18005
603.61069,0.18850
605.53916,0.15673
607.46763,0.11433
609.39610,0.09190
611.32456,0.10643
613.25303,0.13546
615.18150,0.13962
617.10997,0.11577
619.03844,0.09833
620.96691,0.10661
622.89538,0.12313
624.82385,0.14403
626.75231,0.16855
628.68078,0.16652
630.60925,0.13405
632.53772,0.11251
634.46619,0.12160
636.39466,0.14221
638.32313,0.16386
640.25159,0.17681
642.18006,0.16028
644.10853,0.12708
646.03700,0.11602
647.96547,0.13077
649.89394,0.14005
651.82241,0.12751
653.75088,0.10934
655.67934,0.10919
657.60781,0.12643
659.53628,0.13914
661.46475,0.14389
663.39322,0.15132
665.32169,0.14741
667.25016,0.12048
669.17862,0.10980
671.10709,0.12099
673.03556,0.12048
674.96403,0.12815
676.89250,0.15359
678.82097,0.16709
680.74944,0.14894
682.67791,0.12142
684.60637,0.11351
686.53484,0.12453
688.46331,0.13967
690.39178,0.15486
692.32025,0.16105
694.24872,0.15304
696.17719,0.14064
698.10565,0.13029
700.03412,0.12241
701.96259,0.11539
703.89106,0.11878
705.81953,0.14203
707.74800,0.18208
709.67647,0.23973
711.60494,0.27722
713.53340,0.23699
715.46187,0.16577
717.39034,0.14428
719.31881,0.15402
721.24728,0.15248
723.17575,0.13929
725.10422,0.13079
727.03268,0.13185
728.96115,0.13221
730.88962,0.13504
732.81809,0.14740
734.74656,0.15467
736.67503,0.14608
738.60350,0.13666
740.53197,0.13983
742.46043,0.14660
744.38890,0.14092
746.31737,0.12651
748.24584,0.12945
750.17431,0.14926
752.10278,0.15691
754.03125,0.14823
755.95971,0.13472
757.88818,0.12499
759.81665,0.12888
761.74512,0.13810
763.67359,0.14396
765.60206,0.15073
767.53053,0.15418
769.45900,0.15251
771.38746,0.15199
773.31593,0.14934
775.24440,0.13525
777.17287,0.12392
779.10134,0.12953
781.02981,0.13340
782.95828,0.13133
784.88674,0.13727
786.81521,0.14511
788.74368,0.14644
790.67215,0.14700
792.60062,0.14831
794.52909,0.15131
796.45756,0.15419
798.38602,0.14722
800.31449,0.13848
802.24296,0.13980
804.17143,0.14401
806.09990,0.14145
808.02837,0.13305
809.95684,0.12706
811.88531,0.12483
813.81377,0.12191
815.74224,0.12325
817.67071,0.13231
819.59918,0.13599
821.52765,0.12893
823.45612,0.12535
825.38459,0.13605
827.31305,0.14951
829.24152,0.15011
831.16999,0.14441
833.09846,0.14354
835.02693,0.14663
836.95540,0.15004
838.88387,0.15175
840.81234,0.14382
842.74080,0.12764
844.66927,0.12756
846.59774,0.14912
848.52621,0.16279
850.45468,0.15600
852.38315,0.14340
854.31162,0.13170
856.24008,0.12115
858.16855,0.11891
860.09702,0.13110
862.02549,0.14847
863.95396,0.15247
865.88243,0.15034
867.81090,0.17033
869.73937,0.19653
871.66783,0.18888
873.59630,0.16292
875.52477,0.14998
877.45324,0.14512
879.38171,0.13819
881.31018,0.12985
883.23865,0.12549
885.16711,0.12895
887.09558,0.13453
889.02405,0.13242
890.95252,0.12583
892.88099,0.13006
894.80946,0.14005
896.73793,0.13587
898.66640,0.12372
900.59486,0.12053
902.52333,0.12966
904.45180,0.14408
906.38027,0.15184
908.30874,0.15067
910.23721,0.14863
912.16568,0.15160
914.09414,0.15486
916.02261,0.15506
917.95108,0.15748
919.87955,0.15964
921.80802,0.15841
923.73649,0.15514
925.66496,0.14678
927.59343,0.13828
929.52189,0.13764
931.45036,0.14218
933.37883,0.14616
935.30730,0.14283
937.23577,0.13615
939.16424,0.13784
941.09271,0.14480
943.02117,0.15035
944.94964,0.15346
946.87811,0.15091
948.80658,0.14557
950.73505,0.14576
952.66352,0.15060
954.59199,0.15251
956.52045,0.14913
958.44892,0.14509
960.37739,0.14543
962.30586,0.14575
964.23433,0.14022
966.16280,0.13628
968.09127,0.13948
970.01974,0.14305
971.94820,0.14617
973.87667,0.15221
975.80514,0.15526
977.73361,0.15090
979.66208,0.14368
981.59055,0.13974
983.51902,0.14002
985.44748,0.14279
987.37595,0.14685
989.30442,0.14874
991.23289,0.14687
993.16136,0.14568
995.08983,0.14862
997.01830,0.14998
998.94677,0.14555
1000.87523,0.14397
1002.80370,0.14838
1004.73217,0.14839
1006.66064,0.14325
1008.58911,0.14171
1010.51758,0.14430
1012.44605,0.14811
1014.37451,0.15201
1016.30298,0.15433
1018.23145,0.15238
1020.15992,0.14849
1022.08839,0.14875
1024.01686,0.14742
1025.94533,0.14228
1027.87380,0.14389
1029.80226,0.14917
1031.73073,0.14794
1033.65920,0.14644
1035.58767,0.15578
1037.51614,0.17051
1039.44461,0.17472
1041.37308,0.16508
1043.30154,0.15205
1045.23001,0.14591
1047.15848,0.14572
1049.08695,0.14441
1051.01542,0.14710
1052.94389,0.15781
1054.87236,0.16328
1056.80083,0.15697
1058.72929,0.14762
1060.65776,0.14646
1062.58623,0.15551
1064.51470,0.16691
1066.44317,0.17391
1068.37164,0.17273
1070.30011,0.16782
1072.22857,0.16604
1074.15704,0.16646
1076.08551,0.16687
1078.01398,0.16192
1079.94245,0.15461
1081.87092,0.16003
1083.79939,0.17438
1085.72786,0.17779
1087.65632,0.16867
1089.58479,0.15779
1091.51326,0.15226
1093.44173,0.15739
1095.37020,0.16692
1097.29867,0.17087
1099.22714,0.16945
1101.15560,0.16502
1103.08407,0.16101
1105.01254,0.16286
1106.94101,0.16767
1108.86948,0.16942
1110.79795,0.17309
1112.72642,0.17745
1114.65489,0.17532
1116.58335,0.17588
1118.51182,0.18316
1120.44029,0.18579
1122.36876,0.17777
1124.29723,0.16514
1126.22570,0.15740
1128.15417,0.15456
1130.08263,0.15362
1132.01110,0.15456
1133.93957,0.15409
1135.86804,0.15301
1137.79651,0.15618
1139.72498,0.16072
1141.65345,0.16213
1143.58191,0.16282
1145.51038,0.16310
1147.43885,0.16196
1149.36732,0.16425
1151.29579,0.16785
1153.22426,0.16725
1155.15273,0.16654
1157.08120,0.16750
1159.00966,0.16777
1160.93813,0.16657
1162.86660,0.16372
1164.79507,0.16139
1166.72354,0.16061
1168.65201,0.16087
1170.58048,0.16123
1172.50894,0.15947
1174.43741,0.15547
1176.36588,0.15490
1178.29435,0.16060
1180.22282,0.16524
1182.15129,0.16607
1184.07976,0.16809
1186.00823,0.16990
1187.93669,0.16866
1189.86516,0.16694
1191.79363,0.16560
1193.72210,0.16253
1195.65057,0.15809
1197.57904,0.15687
1199.50751,0.16039
1201.43597,0.16370
1203.36444,0.16583
1205.29291,0.16777
1207.22138,0.16653
1209.14985,0.16319
1211.07832,0.16153
1213.00679,0.15990
1214.93526,0.15795
1216.86372,0.16018
1218.79219,0.16376
1220.72066,0.16486
1222.64913,0.16749
1224.57760,0.17010
1226.50607,0.16738
1228.43454,0.16303
1230.36300,0.16323
1232.29147,0.16539
1234.21994,0.16441
1236.14841,0.16382
1238.07688,0.16658
1240.00535,0.16780
1241.93382,0.16594
1243.86229,0.16416
1245.79075,0.16345
1247.71922,0.16407
1249.64769,0.16470
1251.57616,0.16314
1253.50463,0.16229
1255.43310,0.16599
1257.36157,0.17147
1259.29003,0.17284
1261.21850,0.16994
1263.14697,0.16663
1265.07544,0.16518
1267.00391,0.16686
1268.93238,0.17047
1270.86085,0.17415
1272.78932,0.17500
1274.71778,0.17074
1276.64625,0.16651
1278.57472,0.16649
1280.50319,0.16575
1282.43166,0.16221
1284.36013,0.16188
1286.28860,0.16507
1288.21706,0.16720
1290.14553,0.16776
1292.07400,0.16691
1294.00247,0.16572
1295.93094,0.16667
1297.85941,0.16872
1299.78788,0.16817
1301.71634,0.16191
1303.64481,0.15157
1305.57328,0.14800
1307.50175,0.15667
1309.43022,0.16655
1311.35869,0.17006
1313.28716,0.17127
1315.21563,0.17324
1317.14409,0.17496
1319.07256,0.17387
1321.00103,0.17027
1322.92950,0.16819
1324.85797,0.16668
1326.78644,0.16392
1328.71491,0.16250
1330.64337,0.16171
1332.57184,0.16344
1334.50031,0.17042
1336.42878,0.17747
1338.35725,0.17889
1340.28572,0.16986
1342.21419,0.15866
1344.14266,0.15662
1346.07112,0.16013
1347.99959,0.16491
1349.92806,0.16848
1351.85653,0.17051
1353.78500,0.17316
1355.71347,0.17302
1357.64194,0.17071
1359.57040,0.17171
1361.49887,0.17607
1363.42734,0.17851
1365.35581,0.17847
1367.28428,0.17932
1369.21275,0.17751
1371.14122,0.17415
1373.06969,0.17602
1374.99815,0.18048
1376.92662,0.18124
1378.85509,0.17998
1380.78356,0.17839
1382.71203,0.17703
1384.64050,0.17812
1386.56897,0.17937
1388.49743,0.17654
1390.42590,0.17514
1392.35437,0.18010
1394.28284,0.18754
1396.21131,0.19028
1398.13978,0.18851
1400.06825,0.18459
1401.99672,0.18206
1403.92518,0.18387
1405.85365,0.18493
1407.78212,0.18243
1409.71059,0.18078
1411.63906,0.18079
1413.56753,0.18266
1415.49600,0.18833
1417.42446,0.19603
1419.35293,0.19543
1421.28140,0.18658
1423.20987,0.18280
1425.13834,0.18364
1427.06681,0.18379
1428.99528,0.18390
1430.92375,0.18487
1432.85221,0.18722
1434.78068,0.19376
1436.70915,0.19749
1438.63762,0.18781
1440.56609,0.17726
1442.49456,0.17487
1444.42303,0.18006
1446.35149,0.18826
1448.27996,0.19411
1450.20843,0.19602
1452.13690,0.19798
1454.06537,0.20373
1455.99384,0.21664
1457.92231,0.21975
1459.85077,0.20053
1461.77924,0.18951
1463.70771,0.19129
1465.63618,0.19325
1467.56465,0.19221
1469.49312,0.19970
1471.42159,0.21822
1473.35006,0.23272
1475.27852,0.22616
1477.20699,0.21136
1479.13546,0.20201
1481.06393,0.19743
1482.99240,0.19126
1484.92087,0.18759
1486.84934,0.19453
1488.77780,0.20932
1490.70627,0.20924
1492.63474,0.19737
1494.56321,0.19550
1496.49168,0.20394
1498.42015,0.20634
1500.34862,0.19929
1502.27709,0.19511
1504.20555,0.20163
1506.13402,0.22173
1508.06249,0.22467
1509.99096,0.20809
1511.91943,0.20004
1513.84790,0.20339
1515.77637,0.21487
1517.70483,0.22213
1519.63330,0.22436
1521.56177,0.22641
1523.49024,0.22515
1525.41871,0.22498
1527.34718,0.21919
1529.27565,0.21002
1531.20412,0.21033
1533.13258,0.21692
1535.06105,0.21636
1536.98952,0.21909
1538.91799,0.23961
1540.84646,0.25538
1542.77493,0.24021
1544.70340,0.22393
1546.63186,0.21061
1548.56033,0.20255
1550.48880,0.19970
1552.41727,0.20068
1554.34574,0.20720
1556.27421,0.21869
1558.20268,0.22792
1560.13115,0.21761
1562.05961,0.20814
1563.98808,0.20424
1565.91655,0.20130
1567.84502,0.20305
1569.77349,0.20355
1571.70196,0.19595
1573.63043,0.19515
1575.55889,0.20253
1577.48736,0.19714
1579.41583,0.18424
1581.34430,0.18039
1583.27277,0.18241
1585.20124,0.18284
1587.12971,0.18245
1589.05818,0.18400
1590.98664,0.18408
1592.91511,0.18224
1594.84358,0.17969
1596.77205,0.17668
1598.70052,0.17754
1600.62899,0.18110
1602.55746,0.18413
1604.48592,0.18730
1606.41439,0.18843
1608.34286,0.18531
1610.27133,0.18119
1612.19980,0.18190
1614.12827,0.18881
1616.05674,0.19808
1617.98521,0.20063
1619.91367,0.20140
1621.84214,0.20800
1623.77061,0.21219
1625.69908,0.20766
1627.62755,0.19970
1629.55602,0.19149
1631.48449,0.19098
1633.41295,0.20249
1635.34142,0.21918
1637.26989,0.21892
1639.19836,0.21012
1641.12683,0.20554
1643.05530,0.20662
1644.98377,0.21819
1646.91223,0.23422
1648.84070,0.23253
1650.76917,0.22898
1652.69764,0.23351
1654.62611,0.22252
1656.55458,0.20787
1658.48305,0.20430
1660.41152,0.21032
1662.33998,0.21697
1664.26845,0.21238
1666.19692,0.20829
1668.12539,0.21425
1670.05386,0.21750
1671.98233,0.21105
1673.91080,0.20825
1675.83926,0.20687
1677.76773,0.20346
1679.69620,0.20403
1681.62467,0.21251
1683.55314,0.22567
1685.48161,0.22376
1687.41008,0.21419
1689.33855,0.20914
1691.26701,0.20474
1693.19548,0.20356
1695.12395,0.21262
1697.05242,0.23025
1698.98089,0.23664
1700.90936,0.22161
1702.83783,0.21100
1704.76629,0.21333
1706.69476,0.21237
1708.62323,0.20363
1710.55170,0.19768
1712.48017,0.20111
1714.40864,0.21505
1716.33711,0.22782
1718.26558,0.21438
1720.19404,0.19522
1722.12251,0.18973
1724.05098,0.18900
1725.97945,0.18896
1727.90792,0.19277
1729.83639,0.19917
1731.76486,0.20836
1733.69332,0.21716
1735.62179,0.21209
1737.55026,0.20693
1739.47873,0.20870
1741.40720,0.21133
1743.33567,0.21280
1745.26414,0.21343
1747.19261,0.21548
1749.12107,0.21913
1751.04954,0.21359
1752.97801,0.20202
1754.90648,0.19909
1756.83495,0.20392
1758.76342,0.20833
1760.69189,0.21109
1762.62035,0.20840
1764.54882,0.20048
1766.47729,0.19779
1768.40576,0.20330
1770.33423,0.21183
1772.26270,0.21327
1774.19117,0.20471
1776.11964,0.19868
1778.04810,0.19992
1779.97657,0.20501
1781.90504,0.20544
1783.83351,0.20063
1785.76198,0.19778
1787.69045,0.19830
1789.61892,0.20203
1791.54738,0.20766
1793.47585,0.20756
1795.40432,0.20296
1797.33279,0.20034
1799.26126,0.20202
1801.18973,0.20365
1803.11820,0.19958
1805.04666,0.19488
1806.97513,0.19244
1808.90360,0.19206
1810.83207,0.19419
1812.76054,0.19581
1814.68901,0.19464
1816.61748,0.18610
1818.54595,0.16865
1820.47441,0.16078
1822.40288,0.17521
1824.33135,0.19236
1826.25982,0.19466
1828.18829,0.19631
1830.11676,0.20254
1832.04523,0.20021
1833.97369,0.19309
1835.90216,0.19035
1837.83063,0.19054
1839.75910,0.19033
1841.68757,0.19173
1843.61604,0.19518
1845.54451,0.19679
1847.47298,0.19510
1849.40144,0.19119
1851.32991,0.18817
1853.25838,0.18862
1855.18685,0.18886
1857.11532,0.18778
1859.04379,0.18868
1860.97226,0.18975
1862.90072,0.18880
1864.82919,0.19087
1866.75766,0.19760
1868.68613,0.19895
1870.61460,0.19120
1872.54307,0.18463
1874.47154,0.18241
1876.40001,0.18259
1878.32847,0.18296
1880.25694,0.18346
1882.18541,0.18630
1884.11388,0.19125
1886.04235,0.19506
1887.97082,0.19709
1889.89929,0.19645
1891.82775,0.19406
1893.75622,0.19404
1895.68469,0.19310
1897.61316,0.18759
1899.54163,0.18207
1901.47010,0.18020
1903.39857,0.18171
1905.32704,0.18532
1907.25550,0.18954
1909.18397,0.19205
1911.11244,0.19078
1913.04091,0.18737
1914.96938,0.18612
1916.89785,0.18939
1918.82632,0.19390
1920.75478,0.19622
1922.68325,0.19677
1924.61172,0.19291
1926.54019,0.18655
1928.46866,0.18449
1930.39713,0.18721
1932.32560,0.18936
1934.25407,0.18797
1936.18253,0.18718
1938.11100,0.18950
1940.03947,0.19188
1941.96794,0.19304
1943.89641,0.19291
1945.82488,0.19215
1947.75335,0.19128
1949.68181,0.19009
1951.61028,0.18959
1953.53875,0.19060
1955.46722,0.19221
1957.39569,0.19269
1959.32416,0.19273
1961.25263,0.19218
1963.18110,0.19081
1965.10956,0.19111
1967.03803,0.19119
1968.96650,0.18898
1970.89497,0.18718
1972.82344,0.18672
1974.75191,0.18665
1976.68038,0.18609
1978.60884,0.18550
1980.53731,0.18601
1982.46578,0.18684
1984.39425,0.18773
1986.32272,0.18958
1988.25119,0.19195
1990.17966,0.19378
1992.10812,0.19368
1994.03659,0.19159
1995.96506,0.18905
1997.89353,0.18619
1999.82200,0.18486
2001.75047,0.18739
2003.67894,0.19124
2005.60741,0.19216
2007.53587,0.19002
2009.46434,0.18944
2011.39281,0.19112
2013.32128,0.19029
2015.24975,0.18872
2017.17822,0.18973
2019.10669,0.18910
2021.03515,0.18710
2022.96362,0.18724
2024.89209,0.18733
2026.82056,0.18614
2028.74903,0.18535
2030.67750,0.18578
2032.60597,0.18701
2034.53444,0.18753
2036.46290,0.18677
2038.39137,0.18649
2040.31984,0.18884
2042.24831,0.19211
2044.17678,0.19243
2046.10525,0.19093
2048.03372,0.19061
2049.96218,0.19097
2051.89065,0.19091
2053.81912,0.18944
2055.74759,0.18770
2057.67606,0.18765
2059.60453,0.18744
2061.53300,0.18771
2063.46147,0.18981
2065.38993,0.19092
2067.31840,0.19200
2069.24687,0.19496
2071.17534,0.19617
2073.10381,0.19310
2075.03228,0.18796
2076.96075,0.18461
2078.88921,0.18335
2080.81768,0.18334
2082.74615,0.18701
2084.67462,0.19303
2086.60309,0.19716
2088.53156,0.19846
2090.46003,0.19735
2092.38850,0.19471
2094.31696,0.19143
2096.24543,0.18923
2098.17390,0.18922
2100.10237,0.18965
2102.03084,0.18947
2103.95931,0.18964
2105.88778,0.19026
2107.81624,0.19031
2109.74471,0.19055
2111.67318,0.19101
2113.60165,0.18971
2115.53012,0.18762
2117.45859,0.18783
2119.38706,0.18987
2121.31553,0.19096
2123.24399,0.19132
2125.17246,0.19163
2127.10093,0.19008
2129.02940,0.18687
2130.95787,0.18720
2132.88634,0.19356
2134.81481,0.19863
2136.74327,0.19760
2138.67174,0.19423
2140.60021,0.19110
2142.52868,0.18944
2144.45715,0.19064
2146.38562,0.19340
2148.31409,0.19571
2150.24255,0.19651
2152.17102,0.19512
2154.09949,0.19184
2156.02796,0.18799
2157.95643,0.18561
2159.88490,0.18722
2161.81337,0.19184
2163.74184,0.19279
2165.67030,0.18863
2167.59877,0.18669
2169.52724,0.18901
2171.45571,0.19052
2173.38418,0.19020
2175.31265,0.19110
2177.24112,0.19347
2179.16958,0.19605
2181.09805,0.19754
2183.02652,0.19568
2184.95499,0.19171
2186.88346,0.19035
2188.81193,0.19130
2190.74040,0.19008
2192.66887,0.18681
2194.59733,0.18446
2196.52580,0.18490
2198.45427,0.18835
2200.38274,0.19184
2202.31121,0.19312
2204.23968,0.19458
2206.16815,0.19589
2208.09661,0.19350
2210.02508,0.18938
2211.95355,0.18647
2213.88202,0.18558
2215.81049,0.18764
2217.73896,0.19108
2219.66743,0.19252
2221.59590,0.18978
2223.52436,0.18569
2225.45283,0.18504
2227.38130,0.18774
2229.30977,0.19036
2231.23824,0.19183
2233.16671,0.19388
2235.09518,0.19626
2237.02364,0.19605
2238.95211,0.19421
2240.88058,0.19482
2242.80905,0.19660
2244.73752,0.19579
2246.66599,0.19221
2248.59446,0.18982
2250.52293,0.19157
2252.45139,0.19266
2254.37986,0.18961
2256.30833,0.18701
2258.23680,0.18719
2260.16527,0.18816
2262.09374,0.19159
2264.02221,0.19631
2265.95067,0.19551
2267.87914,0.19029
2269.80761,0.18642
2271.73608,0.18599
2273.66455,0.18855
2275.59302,0.19044
2277.52149,0.19018
2279.44996,0.18980
2281.37842,0.18937
2283.30689,0.18933
2285.23536,0.19099
2287.16383,0.19239
2289.09230,0.19135
2291.02077,0.19107
2292.94924,0.19434
2294.87770,0.19550
2296.80617,0.19106
2298.73464,0.18783
2300.66311,0.18859
2302.59158,0.18889
2304.52005,0.18788
2306.44852,0.18779
2308.37699,0.18950
2310.30545,0.19204
2312.23392,0.19508
2314.16239,0.19954
2316.09086,0.20388
2318.01933,0.20539
2319.94780,0.20413
2321.87627,0.20484
2323.80473,0.21240
2325.73320,0.22535
2327.66167,0.23652
2329.59014,0.23665
2331.51861,0.22832
2333.44708,0.22013
2335.37555,0.21480
2337.30401,0.21610
2339.23248,0.21823
2341.16095,0.21620
2343.08942,0.21373
2345.01789,0.20840
2346.94636,0.20533
2348.87483,0.20627
2350.80330,0.20582
2352.73176,0.20858
2354.66023,0.22460
2356.58870,0.23851
2358.51717,0.21980
2360.44564,0.18277
2362.37411,0.16859
2364.30258,0.17577
2366.23104,0.19144
2368.15951,0.20423
2370.08798,0.20515
2372.01645,0.19982
2373.94492,0.19249
2375.87339,0.18859
2377.80186,0.18972
2379.73033,0.19356
2381.65879,0.19616
2383.58726,0.19490
2385.51573,0.19348
2387.44420,0.19264
2389.37267,0.19006
2391.30114,0.18872
2393.22961,0.19083
2395.15807,0.19280
2397.08654,0.19236
2399.01501,0.19235
2400.94348,0.19296
2402.87195,0.19121
2404.80042,0.18962
2406.72889,0.19143
2408.65736,0.19282
2410.58582,0.19091
2412.51429,0.18927
2414.44276,0.19117
2416.37123,0.19426
2418.29970,0.19431
2420.22817,0.19190
2422.15664,0.19063
2424.08510,0.19172
2426.01357,0.19349
2427.94204,0.19406
2429.87051,0.19313
2431.79898,0.19170
2433.72745,0.19190
2435.65592,0.19396
2437.58439,0.19394
2439.51285,0.19106
2441.44132,0.18887
2443.36979,0.18810
2445.29826,0.18902
2447.22673,0.19124
2449.15520,0.19282
2451.08367,0.19473
2453.01213,0.19668
2454.94060,0.19653
2456.86907,0.19469
2458.79754,0.19209
2460.72601,0.18944
2462.65448,0.18882
2464.58295,0.19009
2466.51142,0.19066
2468.43988,0.19128
2470.36835,0.19247
2472.29682,0.19220
2474.22529,0.19077
2476.15376,0.18951
2478.08223,0.18852
2480.01070,0.18744
2481.93916,0.18749
2483.86763,0.18988
2485.79610,0.19207
2487.72457,0.19187
2489.65304,0.19122
2491.58151,0.19230
2493.50998,0.19354
2495.43844,0.19229
2497.36691,0.18947
2499.29538,0.18791
2501.22385,0.18851
2503.15232,0.18928
2505.08079,0.18986
2507.00926,0.19270
2508.93773,0.19486
2510.86619,0.19335
2512.79466,0.19333
2514.72313,0.19609
2516.65160,0.19584
2518.58007,0.19305
2520.50854,0.19179
2522.43701,0.19128
2524.36547,0.19115
2526.29394,0.19237
2528.22241,0.19386
2530.15088,0.19351
2532.07935,0.19055
2534.00782,0.18835
2535.93629,0.18999
2537.86476,0.19327
2539.79322,0.19471
2541.72169,0.19396
2543.65016,0.19381
2545.57863,0.19574
2547.50710,0.19537
2549.43557,0.18999
2551.36404,0.18560
2553.29250,0.18655
2555.22097,0.18951
2557.14944,0.19153
2559.07791,0.19255
2561.00638,0.19276
2562.93485,0.19301
2564.86332,0.19397
2566.79179,0.19436
2568.72025,0.19341
2570.64872,0.19347
2572.57719,0.19571
2574.50566,0.19681
2576.43413,0.19476
2578.36260,0.19177
2580.29107,0.19078
2582.21953,0.19202
2584.14800,0.19282
2586.07647,0.19211
2588.00494,0.19130
2589.93341,0.19191
2591.86188,0.19453
2593.79035,0.19814
2595.71882,0.19967
2597.64728,0.19749
2599.57575,0.19489
2601.50422,0.19479
2603.43269,0.19553
2605.36116,0.19547
2607.28963,0.19533
2609.21810,0.19526
2611.14656,0.19532
2613.07503,0.19493
2615.00350,0.19331
2616.93197,0.19346
2618.86044,0.19591
2620.78891,0.19581
2622.71738,0.19231
2624.64585,0.19012
2626.57431,0.19154
2628.50278,0.19472
2630.43125,0.19648
2632.35972,0.19565
2634.28819,0.19524
2636.21666,0.19617
2638.14513,0.19590
2640.07359,0.19587
2642.00206,0.19814
2643.93053,0.19962
2645.85900,0.19871
2647.78747,0.19711
2649.71594,0.19507
2651.64441,0.19329
2653.57288,0.19245
2655.50134,0.19226
2657.42981,0.19342
2659.35828,0.19613
2661.28675,0.19775
2663.21522,0.19577
2665.14369,0.19372
2667.07216,0.19564
2669.00062,0.19827
2670.92909,0.19837
2672.85756,0.19875
2674.78603,0.19892
2676.71450,0.19659
2678.64297,0.19556
2680.57144,0.19632
2682.49990,0.19579
2684.42837,0.19514
2686.35684,0.19581
2688.28531,0.19643
2690.21378,0.19622
2692.14225,0.19561
2694.07072,0.19414
2695.99919,0.19479
2697.92765,0.19983
2699.85612,0.20286
2701.78459,0.20098
2703.71306,0.19901
2705.64153,0.19840
2707.57000,0.19736
2709.49847,0.19570
2711.42693,0.19471
2713.35540,0.19544
2715.28387,0.19708
2717.21234,0.19836
2719.14081,0.19905
2721.06928,0.20083
2722.99775,0.20466
2724.92622,0.20570
2726.85468,0.20216
2728.78315,0.20056
2730.71162,0.20201
2732.64009,0.20187
2734.56856,0.20060
2736.49703,0.20071
2738.42550,0.20170
2740.35396,0.20179
2742.28243,0.20124
2744.21090,0.20185
2746.13937,0.20153
2748.06784,0.19860
2749.99631,0.19659
2751.92478,0.19657
2753.85325,0.19726
2755.78171,0.19853
2757.71018,0.19903
2759.63865,0.19887
2761.56712,0.19924
2763.49559,0.20085
2765.42406,0.20452
2767.35253,0.20730
2769.28099,0.20525
2771.20946,0.20060
2773.13793,0.19908
2775.06640,0.20228
2776.99487,0.20585
2778.92334,0.20682
2780.85181,0.20717
2782.78028,0.20655
2784.70874,0.20320
2786.63721,0.20165
2788.56568,0.20420
2790.49415,0.20655
2792.42262,0.20763
2794.35109,0.20827
2796.27956,0.20967
2798.20802,0.21150
2800.13649,0.20922
2802.06496,0.20491
2803.99343,0.20524
2805.92190,0.20979
2807.85037,0.21232
2809.77884,0.20938
2811.70731,0.20472
2813.63577,0.20327
2815.56424,0.20388
2817.49271,0.20233
2819.42118,0.20005
2821.34965,0.19940
2823.27812,0.19972
2825.20659,0.20194
2827.13505,0.20331
2829.06352,0.20138
2830.99199,0.20101
2832.92046,0.20511
2834.84893,0.20944
2836.77740,0.21016
2838.70587,0.20901
2840.63433,0.20799
2842.56280,0.20700
2844.49127,0.20535
2846.41974,0.20460
2848.34821,0.20775
2850.27668,0.21238
2852.20515,0.21464
2854.13362,0.21418
2856.06208,0.21243
2857.99055,0.21144
2859.91902,0.21074
2861.84749,0.20845
2863.77596,0.20661
2865.70443,0.20700
2867.63290,0.20709
2869.56136,0.20636
2871.48983,0.20561
2873.41830,0.20397
2875.34677,0.20238
2877.27524,0.20305
2879.20371,0.20438
2881.13218,0.20391
2883.06065,0.20487
2884.98911,0.20712
2886.91758,0.20599
2888.84605,0.20478
2890.77452,0.20710
2892.70299,0.20819
2894.63146,0.20538
2896.55993,0.20144
2898.48839,0.20029
2900.41686,0.20389
2902.34533,0.20657
2904.27380,0.20349
2906.20227,0.20004
2908.13074,0.20185
2910.05921,0.20480
2911.98768,0.20343
2913.91614,0.20019
2915.84461,0.19910
2917.77308,0.20075
2919.70155,0.20258
2921.63002,0.20239
2923.55849,0.19671
2925.48696,0.18455
2927.41542,0.17904
2929.34389,0.18726
2931.27236,0.19802
2933.20083,0.20302
2935.12930,0.20285
2937.05777,0.20069
2938.98624,0.20061
2940.91471,0.20171
2942.84317,0.20138
2944.77164,0.20072
2946.70011,0.19856
2948.62858,0.19865
2950.55705,0.20562
2952.48552,0.21043
2954.41399,0.20526
2956.34245,0.19423
2958.27092,0.18805
2960.19939,0.19351
2962.12786,0.20428
2964.05633,0.21118
2965.98480,0.21045
2967.91327,0.20258
2969.84174,0.19661
2971.77020,0.19977
2973.69867,0.20629
2975.62714,0.20718
2977.55561,0.20224
2979.48408,0.20158
2981.41255,0.20844
2983.34102,0.21219
2985.26948,0.20824
2987.19795,0.20351
2989.12642,0.20217
2991.05489,0.20431
2992.98336,0.21020
2994.91183,0.21497
2996.84030,0.21358
2998.76877,0.21084
3000.69723,0.21221
3002.62570,0.21389
3004.55417,0.21319
3006.48264,0.21260
3008.41111,0.21110
3010.33958,0.20531
3012.26805,0.19039
3014.19651,0.16367
3016.12498,0.13997
3018.05345,0.14530
3019.98192,0.17661
3021.91039,0.20281
3023.83886,0.21088
3025.76733,0.20891
3027.69579,0.20788
3029.62426,0.21139
3031.55273,0.21310
3033.48120,0.21207
3035.40967,0.21217
3037.33814,0.21276
3039.26661,0.21254
3041.19508,0.21152
3043.12354,0.21260
3045.05201,0.21319
3046.98048,0.20862
3048.90895,0.20462
3050.83742,0.20163
3052.76589,0.19655
3054.69436,0.19216
3056.62282,0.18813
3058.55129,0.18796
3060.47976,0.19392
3062.40823,0.19898
3064.33670,0.19607
3066.26517,0.18907
3068.19364,0.19266
3070.12211,0.20680
3072.05057,0.21724
3073.97904,0.21483
3075.90751,0.20138
3077.83598,0.19264
3079.76445,0.19643
3081.69292,0.20295
3083.62139,0.20294
3085.54985,0.19878
3087.47832,0.19994
3089.40679,0.20650
3091.33526,0.21043
3093.26373,0.20528
3095.19220,0.19801
3097.12067,0.20168
3099.04914,0.20924
3100.97760,0.20863
3102.90607,0.20033
3104.83454,0.19458
3106.76301,0.19989
3108.69148,0.20856
3110.61995,0.20737
3112.54842,0.19939
3114.47688,0.19820
3116.40535,0.20244
3118.33382,0.20340
3120.26229,0.20122
3122.19076,0.20104
3124.11923,0.20674
3126.04770,0.21325
3127.97617,0.21360
3129.90463,0.20822
3131.83310,0.20370
3133.76157,0.20422
3135.69004,0.20745
3137.61851,0.20899
3139.54698,0.20891
3141.47545,0.21014
3143.40391,0.20986
3145.33238,0.21019
3147.26085,0.21480
3149.18932,0.21786
3151.11779,0.21541
3153.04626,0.21048
3154.97473,0.20971
3156.90320,0.21564
3158.83166,0.22191
3160.76013,0.22035
3162.68860,0.21423
3164.61707,0.21366
3166.54554,0.21867
3168.47401,0.22326
3170.40248,0.22433
3172.33094,0.22061
3174.25941,0.21676
3176.18788,0.21816
3178.11635,0.21863
3180.04482,0.21507
3181.97329,0.21314
3183.90176,0.21231
3185.83022,0.21179
3187.75869,0.21277
3189.68716,0.21161
3191.61563,0.20946
3193.54410,0.21490
3195.47257,0.22410
3197.40104,0.22489
3199.32951,0.22222
3201.25797,0.22329
3203.18644,0.22249
3205.11491,0.21968
3207.04338,0.21984
3208.97185,0.22076
3210.90032,0.21950
3212.82879,0.21513
3214.75725,0.21030
3216.68572,0.21021
3218.61419,0.21216
3220.54266,0.21320
3222.47113,0.21512
3224.39960,0.21680
3226.32807,0.21669
3228.25654,0.21549
3230.18500,0.21237
3232.11347,0.20949
3234.04194,0.21247
3235.97041,0.21754
3237.89888,0.21630
3239.82735,0.20946
3241.75582,0.20342
3243.68428,0.20161
3245.61275,0.20380
3247.54122,0.20905
3249.46969,0.21306
3251.39816,0.21112
3253.32663,0.20665
3255.25510,0.20559
3257.18357,0.20717
3259.11203,0.21043
3261.04050,0.21616
3262.96897,0.21994
3264.89744,0.21710
3266.82591,0.21064
3268.75438,0.20824
3270.68285,0.20960
3272.61131,0.20829
3274.53978,0.20701
3276.46825,0.20800
3278.39672,0.20657
3280.32519,0.20664
3282.25366,0.21222
3284.18213,0.21502
3286.11060,0.21097
3288.03906,0.20711
3289.96753,0.20631
3291.89600,0.20594
3293.82447,0.20474
3295.75294,0.20243
3297.68141,0.20182
3299.60988,0.20448
3301.53834,0.20764
3303.46681,0.21045
3305.39528,0.21351
3307.32375,0.21541
3309.25222,0.21417
3311.18069,0.21070
3313.10916,0.20768
3315.03763,0.20641
3316.96609,0.20599
3318.89456,0.20785
3320.82303,0.21546
3322.75150,0.22348
3324.67997,0.22358
3326.60844,0.21728
3328.53691,0.21213
3330.46537,0.21135
3332.39384,0.21273
3334.32231,0.21704
3336.25078,0.22129
3338.17925,0.22011
3340.10772,0.21947
3342.03619,0.22099
3343.96466,0.21703
3345.89312,0.21225
3347.82159,0.21301
3349.75006,0.21223
3351.67853,0.21001
3353.60700,0.21360
3355.53547,0.21751
3357.46394,0.21747
3359.39240,0.21921
3361.32087,0.22064
3363.24934,0.21670
3365.17781,0.21216
3367.10628,0.21295
3369.03475,0.21813
3370.96322,0.22017
3372.89168,0.21512
3374.82015,0.21040
3376.74862,0.21112
3378.67709,0.21314
3380.60556,0.21301
3382.53403,0.21285
3384.46250,0.21166
3386.39097,0.20613
3388.31943,0.20383
3390.24790,0.21062
3392.17637,0.21846
3394.10484,0.21968
3396.03331,0.21623
3397.96178,0.21352
3399.89025,0.21341
3401.81871,0.21282
3403.74718,0.20880
3405.67565,0.20558
3407.60412,0.20825
3409.53259,0.21197
3411.46106,0.21027
3413.38953,0.20670
3415.31800,0.20597
3417.24646,0.20759
3419.17493,0.21364
3421.10340,0.22148
3423.03187,0.22099
3424.96034,0.21333
3426.88881,0.20794
3428.81728,0.20615
3430.74574,0.20485
3432.67421,0.20474
3434.60268,0.20569
3436.53115,0.20719
3438.45962,0.20980
3440.38809,0.21212
3442.31656,0.21348
3444.24503,0.21398
3446.17349,0.21074
3448.10196,0.20210
3450.03043,0.19547
3451.95890,0.19490
3453.88737,0.19476
3455.81584,0.19427
3457.74431,0.19671
3459.67277,0.19904
3461.60124,0.19784
3463.52971,0.19579
3465.45818,0.19623
3467.38665,0.19871
3469.31512,0.20195
3471.24359,0.20231
3473.17206,0.19565
3475.10052,0.19014
3477.02899,0.19360
3478.95746,0.19966
3480.88593,0.20267
3482.81440,0.20151
3484.74287,0.19793
3486.67134,0.19447
3488.59980,0.19079
3490.52827,0.18780
3492.45674,0.18956
3494.38521,0.19602
3496.31368,0.19777
3498.24215,0.19275
3500.17062,0.18885
3502.09909,0.18613
3504.02755,0.18139
3505.95602,0.17877
3507.88449,0.18140
3509.81296,0.18497
3511.74143,0.18449
3513.66990,0.17908
3515.59837,0.17424
3517.52683,0.17409
3519.45530,0.17391
3521.38377,0.17260
3523.31224,0.17461
3525.24071,0.18051
3527.16918,0.18562
3529.09765,0.18338
3531.02611,0.17310
3532.95458,0.16564
3534.88305,0.17017
3536.81152,0.17749
3538.73999,0.17599
3540.66846,0.17266
3542.59693,0.17573
3544.52540,0.18350
3546.45386,0.18861
3548.38233,0.18492
3550.31080,0.17728
3552.23927,0.17265
3554.16774,0.17177
3556.09621,0.17325
3558.02468,0.17541
3559.95314,0.17702
3561.88161,0.17879
3563.81008,0.18229
3565.73855,0.18914
3567.66702,0.19147
3569.59549,0.18112
3571.52396,0.17181
3573.45243,0.17118
3575.38089,0.17181
3577.30936,0.16751
3579.23783,0.16346
3581.16630,0.16309
3583.09477,0.16290
3585.02324,0.16479
3586.95171,0.17144
3588.88017,0.17185
3590.80864,0.16575
3592.73711,0.16367
3594.66558,0.16591
3596.59405,0.16680
3598.52252,0.16472
3600.45099,0.16185
3602.37946,0.16076
3604.30792,0.16098
3606.23639,0.15956
3608.16486,0.15862
3610.09333,0.16014
3612.02180,0.16047
3613.95027,0.15958
3615.87874,0.15983
3617.80720,0.16369
3619.73567,0.16667
3621.66414,0.16004
3623.59261,0.15077
3625.52108,0.14772
3627.44955,0.15297
3629.37802,0.15879
3631.30649,0.15769
3633.23495,0.15551
3635.16342,0.15041
3637.09189,0.14391
3639.02036,0.14188
3640.94883,0.14312
3642.87730,0.14345
3644.80577,0.14360
3646.73423,0.14943
3648.66270,0.16278
3650.59117,0.16250
3652.51964,0.15205
3654.44811,0.14969
3656.37658,0.14898
3658.30505,0.14124
3660.23352,0.13592
3662.16198,0.13564
3664.09045,0.13415
3666.01892,0.13314
3667.94739,0.14030
3669.87586,0.15405
3671.80433,0.15791
3673.73280,0.15469
3675.66126,0.14887
3677.58973,0.13973
3679.51820,0.13471
3681.44667,0.13478
3683.37514,0.13710
3685.30361,0.14056
3687.23208,0.14643
3689.16055,0.15042
3691.08901,0.14393
3693.01748,0.13535
3694.94595,0.13215
3696.87442,0.13107
3698.80289,0.12908
3700.73136,0.12818
3702.65983,0.12992
3704.58829,0.13233
3706.51676,0.13475
3708.44523,0.14059
3710.37370,0.14953
3712.30217,0.14733
3714.23064,0.13909
3716.15911,0.13956
3718.08757,0.14457
3720.01604,0.14965
3721.94451,0.15409
3723.87298,0.15176
3725.80145,0.14317
3727.72992,0.13424
3729.65839,0.12787
3731.58686,0.13405
3733.51532,0.15935
3735.44379,0.17762
3737.37226,0.16850
3739.30073,0.15750
3741.22920,0.15382
3743.15767,0.14946
3745.08614,0.14426
3747.01460,0.14724
3748.94307,0.15474
3750.87154,0.15893
3752.80001,0.15272
3754.72848,0.14562
3756.65695,0.14315
3758.58542,0.14148
3760.51389,0.13813
3762.44235,0.13886
3764.37082,0.14106
3766.29929,0.13618
3768.22776,0.12955
3770.15623,0.12859
3772.08470,0.12816
3774.01317,0.12681
3775.94163,0.12729
3777.87010,0.13024
3779.79857,0.13238
3781.72704,0.13013
3783.65551,0.12890
3785.58398,0.12961
3787.51245,0.12708
3789.44092,0.12440
3791.36938,0.12462
3793.29785,0.12682
3795.22632,0.13327
3797.15479,0.14238
3799.08326,0.14894
3801.01173,0.15199
3802.94020,0.14751
3804.86866,0.14476
3806.79713,0.14551
3808.72560,0.13748
3810.65407,0.12641
3812.58254,0.12057
3814.51101,0.11853
3816.43948,0.11968
3818.36795,0.12749
3820.29641,0.13876
3822.22488,0.13781
3824.15335,0.13075
3826.08182,0.12869
3828.01029,0.12564
3829.93876,0.12221
3831.86723,0.12470
3833.79569,0.13028
3835.72416,0.13071
3837.65263,0.13128
3839.58110,0.13975
3841.50957,0.14113
3843.43804,0.13105
3845.36651,0.12082
3847.29498,0.11490
3849.22344,0.11308
3851.15191,0.12150
3853.08038,0.14403
3855.00885,0.14952
3856.93732,0.13807
3858.86579,0.13183
3860.79426,0.13306
3862.72272,0.13588
3864.65119,0.13087
3866.57966,0.12449
3868.50813,0.12999
3870.43660,0.14031
3872.36507,0.13709
3874.29354,0.12728
3876.22200,0.12332
3878.15047,0.12697
3880.07894,0.13233
3882.00741,0.13109
3883.93588,0.12546
3885.86435,0.11853
3887.79282,0.11517
3889.72129,0.12015
3891.64975,0.12512
3893.57822,0.11810
3895.50669,0.11073
3897.43516,0.11409
3899.36363,0.12536
3901.29210,0.13470
3903.22057,0.13727
3905.14903,0.13271
3907.07750,0.12374
3909.00597,0.11704
3910.93444,0.11416
3912.86291,0.11248
3914.79138,0.11196
3916.71985,0.11354
3918.64832,0.11424
3920.57678,0.11259
3922.50525,0.11064
3924.43372,0.10789
3926.36219,0.10646
3928.29066,0.11056
3930.21913,0.11689
3932.14760,0.11837
3934.07606,0.11552
3936.00453,0.11379
3937.93300,0.11338
3939.86147,0.11373
3941.78994,0.11445
3943.71841,0.11472
3945.64688,0.11497
3947.57535,0.11120
3949.50381,0.10503
3951.43228,0.10739
3953.36075,0.11618
3955.28922,0.12277
3957.21769,0.12390
3959.14616,0.11927
3961.07463,0.11306
3963.00309,0.10808
3964.93156,0.10679
3966.86003,0.11169
3968.78850,0.11463
3970.71697,0.10782
3972.64544,0.09804
3974.57391,0.09480
3976.50238,0.09849
3978.43084,0.10411
3980.35931,0.10639
3982.28778,0.10324
3984.21625,0.09955
3986.14472,0.10071
3988.07319,0.10633
3990.00166,0.11147
3991.93012,0.11222
3993.85859,0.11084
3995.78706,0.10882
3997.71553,0.10449
3999.64400,0.10115
4001.57247,0.10346
4003.50094,0.10680
4005.42941,0.10448
4007.35787,0.09982
4009.28634,0.09784
4011.21481,0.09766
4013.14328,0.09781
4015.07175,0.09641
4017.00022,0.09261
4018.92869,0.09173
4020.85715,0.09626
4022.78562,0.10325
4024.71409,0.11029
4026.64256,0.11120
4028.57103,0.10263
4030.49950,0.09168
4032.42797,0.08800
4034.35644,0.09102
4036.28490,0.09386
4038.21337,0.09640
4040.14184,0.09842
4042.07031,0.09978
4043.99878,0.10056
4045.92725,0.09852
4047.85572,0.09777
4049.78418,0.09937
4051.71265,0.10050
4053.64112,0.10167
4055.56959,0.10141
4057.49806,0.10093
4059.42653,0.10262
4061.35500,0.10406
4063.28346,0.10424
4065.21193,0.10286
4067.14040,0.09933
4069.06887,0.09953
4070.99734,0.10398
4072.92581,0.10180
4074.85428,0.09578
4076.78275,0.09848
4078.71121,0.10348
4080.63968,0.09984
4082.56815,0.09511
4084.49662,0.09612
4086.42509,0.09490
4088.35356,0.09194
4090.28203,0.09638
4092.21049,0.10092
4094.13896,0.09580
4096.06743,0.08812
4097.99590,0.08737
4099.92437,0.09113
4101.85284,0.09310
4103.78131,0.09289
4105.70978,0.09234
4107.63824,0.09016
4109.56671,0.08520
4111.49518,0.08352
4113.42365,0.08802
4115.35212,0.09188
4117.28059,0.09410
4119.20906,0.09925
4121.13752,0.10468
4123.06599,0.10180
4124.99446,0.09112
4126.92293,0.08223
4128.85140,0.08226
4130.77987,0.09215
4132.70834,0.10120
4134.63681,0.10212
4136.56527,0.10201
4138.49374,0.10192
4140.42221,0.09733
4142.35068,0.08976
4144.27915,0.08282
4146.20762,0.08124
4148.13609,0.08615
4150.06455,0.09063
4151.99302,0.08822
4153.92149,0.08159
4155.84996,0.07884
4157.77843,0.08011
4159.70690,0.08006
4161.63537,0.08020
4163.56384,0.08269
4165.49230,0.08324
4167.42077,0.07902
4169.34924,0.07678
4171.27771,0.08043
4173.20618,0.08200
4175.13465,0.08281
4177.06312,0.08822
4178.99158,0.09002
4180.92005,0.08485
4182.84852,0.07906
4184.77699,0.07566
4186.70546,0.07603
4188.63393,0.08245
4190.56240,0.09043
4192.49087,0.08859
4194.41933,0.07759
4196.34780,0.07292
4198.27627,0.07883
4200.20474,0.08239
4202.13321,0.07963
4204.06168,0.07914
4205.99015,0.08289
4207.91861,0.08415
4209.84708,0.07872
4211.77555,0.07358
4213.70402,0.07642
4215.63249,0.07860
4217.56096,0.07168
4219.48943,0.06586
4221.41789,0.06696
4223.34636,0.06703
4225.27483,0.06639
4227.20330,0.07222
4229.13177,0.08057
4231.06024,0.08199
4232.98871,0.07423
4234.91718,0.06738
4236.84564,0.07195
4238.77411,0.07935
4240.70258,0.08082
4242.63105,0.07875
4244.55952,0.07328
4246.48799,0.06844
4248.41646,0.07062
4250.34492,0.07743
4252.27339,0.08005
4254.20186,0.07762
4256.13033,0.07198
4258.05880,0.06181
4259.98727,0.05627
4261.91574,0.06018
4263.84421,0.06520
4265.77267,0.06463
4267.70114,0.05995
4269.62961,0.05877
4271.55808,0.06113
4273.48655,0.06045
4275.41502,0.05733
4277.34349,0.05667
4279.27195,0.05885
4281.20042,0.06130
4283.12889,0.06159
4285.05736,0.05925
4286.98583,0.05659
4288.91430,0.05545
4290.84277,0.05636
4292.77124,0.05843
4294.69970,0.05983
4296.62817,0.06040
4298.55664,0.06167
4300.48511,0.06273
4302.41358,0.05695
4304.34205,0.04383
4306.27052,0.03806
4308.19898,0.04441
4310.12745,0.04965
4312.05592,0.05190
4313.98439,0.05535
4315.91286,0.05522
4317.84133,0.05063
4319.76980,0.04636
4321.69827,0.04640
4323.62673,0.04767
4325.55520,0.04390
4327.48367,0.04329
4329.41214,0.05188
4331.34061,0.05751
4333.26908,0.05873
4335.19755,0.06245
4337.12601,0.06075
4339.05448,0.04930
4340.98295,0.03827
4342.91142,0.03612
4344.83989,0.03742
4346.76836,0.03618
4348.69683,0.04323
4350.62530,0.05551
4352.55376,0.05296
4354.48223,0.04287
4356.41070,0.04607
4358.33917,0.05826
4360.26764,0.06115
4362.19611,0.05472
4364.12458,0.05042
4366.05304,0.04241
4367.98151,0.02887
4369.90998,0.02730
4371.83845,0.03933
4373.76692,0.04921
4375.69539,0.05125
4377.62386,0.04966
4379.55232,0.04780
4381.48079,0.04444
4383.40926,0.03776
4385.33773,0.03184
4387.26620,0.03381
4389.19467,0.04290
4391.12314,0.04980
4393.05161,0.05197
4394.98007,0.05051
4396.90854,0.04276
4398.83701,0.03421
4400.76548,0.03305
4402.69395,0.03950
4404.62242,0.04613
4406.55089,0.04509
4408.47935,0.03961
4410.40782,0.03440
4412.33629,0.02858
4414.26476,0.02450
4416.19323,0.02213
4418.12170,0.02012
4420.05017,0.02443
4421.97864,0.03464
4423.90710,0.04214
4425.83557,0.04525
4427.76404,0.04326
4429.69251,0.03682
4431.62098,0.03478
4433.54945,0.03837
4435.47792,0.03889
4437.40638,0.03413
4439.33485,0.03196
4441.26332,0.03562
4443.19179,0.03593
4445.12026,0.02984
4447.04873,0.02748
4448.97720,0.03269
4450.90567,0.03737
4452.83413,0.03490
4454.76260,0.02932
4456.69107,0.02983
4458.61954,0.03203
4460.54801,0.02551
4462.47648,0.01851
4464.40495,0.02079
4466.33341,0.02516
4468.26188,0.02569
4470.19035,0.02628
4472.11882,0.02677
4474.04729,0.02627
4475.97576,0.02725
4477.90423,0.02653
4479.83270,0.02300
4481.76116,0.02238
4483.68963,0.02774
4485.61810,0.03109
4487.54657,0.02846
4489.47504,0.02477
4491.40351,0.01905
4493.33198,0.01487
4495.26044,0.01920
4497.18891,0.02772
4499.11738,0.03024
4501.04585,0.02564
4502.97432,0.02385
4504.90279,0.02981
4506.83126,0.03434
4508.75973,0.03077
4510.68819,0.02691
4512.61666,0.02722
4514.54513,0.02631
4516.47360,0.02229
4518.40207,0.01945
4520.33054,0.01576
4522.25901,0.00913
4524.18747,0.00913
4526.11594,0.01791
4528.04441,0.02347
4529.97288,0.01970
4531.90135,0.01460
4533.82982,0.01344
4535.75829,0.01471
4537.68676,0.01461
4539.61522,0.01030
4541.54369,0.00762
4543.47216,0.01005
4545.40063,0.01553
4547.32910,0.01961
4549.25757,0.01910
4551.18604,0.01642
4553.11450,0.01439
4555.04297,0.01638
4556.97144,0.01843
4558.89991,0.01667
4560.82838,0.01755
4562.75685,0.02160
4564.68532,0.02317
4566.61378,0.01950
4568.54225,0.01002
4570.47072,0.00116
4572.39919,0.00344
4574.32766,0.01657
4576.25613,0.02911
4578.18460,0.03146
4580.11307,0.02415
4582.04153,0.01636
4583.97000,0.01501
4585.89847,0.01907
4587.82694,0.02182
4589.75541,0.01858
4591.68388,0.01173
4593.61235,0.00655
4595.54081,0.00828
4597.46928,0.01496
4599.39775,0.01753
4601.32622,0.01422
4603.25469,0.01048
4605.18316,0.00741
4607.11163,0.00395
4609.04010,0.00716
4610.96856,0.01617
4612.89703,0.01808
4614.82550,0.01143
4616.75397,0.00512
4618.68244,0.00609
4620.61091,0.00864
4622.53938,0.00472
4624.46784,-0.00095
4626.39631,-0.00402
4628.32478,-0.00086
4630.25325,0.01114
4632.18172,0.01992
4634.11019,0.01838
4636.03866,0.01578
4637.96713,0.00923
4639.89559,-0.00161
4641.82406,0.00191
4643.75253,0.01663
4645.68100,0.02163
4647.60947,0.01821
4649.53794,0.01507
4651.46641,0.01398
4653.39487,0.01833
4655.32334,0.02457
4657.25181,0.02597
4659.18028,0.02246
4661.10875,0.01904
4663.03722,0.01729
4664.96569,0.01475
4666.89416,0.01337
4668.82262,0.01175
4670.75109,0.00688
4672.67956,0.00085
4674.60803,-0.00279
4676.53650,-0.00538
4678.46497,-0.00893
4680.39344,-0.00796
4682.32190,0.00085
4684.25037,0.01754
4686.17884,0.03561
4688.10731,0.04153
4690.03578,0.03012
4691.96425,0.01124
4693.89272,-0.00150
4695.82119,-0.00424
4697.74965,0.00060
4699.67812,0.00894
4701.60659,0.01640
4703.53506,0.01659
4705.46353,0.01026
4707.39200,0.00994
4709.32047,0.01727
4711.24893,0.02182
4713.17740,0.01798
4715.10587,0.01073
4717.03434,0.00840
4718.96281,0.01176
4720.89128,0.01637
4722.81975,0.01500
4724.74821,0.00491
4726.67668,0.00175
4728.60515,0.01436
4730.53362,0.02482
4732.46209,0.01921
4734.39056,0.00964
4736.31903,0.01180
4738.24750,0.01619
4740.17596,0.01288
4742.10443,0.00695
4744.03290,0.00168
4745.96137,0.00716
4747.88984,0.02333
4749.81831,0.02555
4751.74678,0.01409
4753.67524,0.01161
4755.60371,0.01481
4757.53218,0.01562
4759.46065,0.01382
4761.38912,0.01108
4763.31759,0.01420
4765.24606,0.01295
4767.17453,0.00343
4769.10299,0.00191
4771.03146,0.00934
4772.95993,0.01587
4774.88840,0.01650
4776.81687,0.01148
4778.74534,0.00891
4780.67381,0.01235
4782.60227,0.01881
4784.53074,0.02802
4786.45921,0.02800
4788.38768,0.01042
4790.31615,-0.00753
4792.24462,-0.01274
4794.17309,-0.00981
4796.10156,-0.00052
4798.03002,0.01307
4799.95849,0.01805
4801.88696,0.00898
4803.81543,-0.00551
4805.74390,-0.01005
4807.67237,-0.00270
4809.60084,-0.00032
4811.52930,-0.00341
4813.45777,0.00022
4815.38624,0.01076
4817.31471,0.01858
4819.24318,0.01827
4821.17165,0.01739
4823.10012,0.01757
4825.02859,0.00831
4826.95705,-0.00595
4828.88552,-0.01016
4830.81399,-0.00283
4832.74246,0.00883
4834.67093,0.01455
4836.59940,0.01220
4838.52787,0.00999
4840.45633,0.00549
4842.38480,-0.00412
4844.31327,-0.00621
4846.24174,0.00274
4848.17021,0.01040
4850.09868,0.00982
4852.02715,0.00532
4853.95562,0.00448
4855.88408,0.00361
4857.81255,-0.00509
4859.74102,-0.01173
4861.66949,-0.00622
4863.59796,-0.00222
4865.52643,-0.00432
4867.45490,0.00409
4869.38336,0.01467
4871.31183,0.00730
4873.24030,-0.00750
4875.16877,-0.00970
4877.09724,-0.00165
4879.02571,0.00366
4880.95418,0.00761
4882.88265,0.01288
4884.81111,0.00909
4886.73958,-0.00526
4888.66805,-0.01439
4890.59652,-0.00926
4892.52499,0.00556
4894.45346,0.01786
4896.38193,0.01434
4898.31039,-0.00100
4900.23886,-0.01298
4902.16733,-0.01330
4904.09580,-0.00758
4906.02427,-0.00606
4907.95274,-0.00228
4909.88121,0.00810
4911.80967,0.01724
4913.73814,0.01947
4915.66661,0.01359
4917.59508,0.00956
4919.52355,0.00989
4921.45202,0.00341
4923.38049,-0.00411
4925.30896,0.00006
4927.23742,0.00496
4929.16589,0.00263
4931.09436,0.00649
4933.02283,0.01631
4934.95130,0.01727
4936.87977,0.00810
4938.80824,0.00411
4940.73670,0.00948
4942.66517,0.01277
4944.59364,0.01524
4946.52211,0.01682
4948.45058,0.01616
4950.37905,0.02135
4952.30752,0.02614
4954.23599,0.02597
4956.16445,0.02970
4958.09292,0.03375
4960.02139,0.03011
4961.94986,0.01449
4963.87833,-0.00792
4965.80680,-0.01719
4967.73527,-0.01295
4969.66373,-0.00770
4971.59220,-0.00241
4973.52067,0.00209
4975.44914,0.00991
4977.37761,0.01801
4979.30608,0.01347
4981.23455,0.00091
4983.16302,-0.00786
4985.09148,-0.00774
4987.01995,0.00431
4988.94842,0.01740
4990.87689,0.01984
4992.80536,0.01741
4994.73383,0.01374
4996.66230,0.00749
4998.59076,-0.00005
5000.51923,-0.00366
5002.44770,0.00342
5004.37617,0.01549
5006.30464,0.02172
5008.23311,0.02020
5010.16158,0.01085
5012.09005,0.00001
5014.01851,-0.00045
5015.94698,0.00497
5017.87545,0.00558
5019.80392,0.00719
5021.73239,0.01197
5023.66086,0.01027
5025.58933,0.00457
5027.51779,-0.00052
5029.44626,-0.00339
5031.37473,0.00509
5033.30320,0.02286
5035.23167,0.03756
5037.16014,0.03426
5039.08861,0.01285
5041.01708,0.00111
5042.94554,0.00746
5044.87401,0.01197
5046.80248,0.01002
5048.73095,0.01716
5050.65942,0.02670
5052.58789,0.01625
5054.51636,0.00537
5056.44482,0.01817
5058.37329,0.03323
5060.30176,0.03305
5062.23023,0.02907
5064.15870,0.02836
5066.08717,0.02678
5068.01564,0.01841
5069.94410,0.00500
5071.87257,0.00282
5073.80104,0.02398
5075.72951,0.05339
5077.65798,0.05696
5079.58645,0.02716
5081.51492,0.00427
5083.44339,0.01011
5085.37185,0.02102
5087.30032,0.02509
5089.22879,0.02239
5091.15726,0.01070
5093.08573,0.00547
5095.01420,0.01613
5096.94267,0.02958
5098.87113,0.03093
5100.79960,0.01840
5102.72807,0.01349
5104.65654,0.02685
5106.58501,0.03306
5108.51348,0.02700
5110.44195,0.02456
5112.37042,0.02462
5114.29888,0.02980
5116.22735,0.04549
5118.15582,0.06181
5120.08429,0.06136
5122.01276,0.04439
5123.94123,0.02879
5125.86970,0.02059
5127.79816,0.01803
5129.72663,0.02570
5131.65510,0.03351
5133.58357,0.02557
5135.51204,0.01485
5137.44051,0.01533
5139.36898,0.02147
5141.29745,0.02173
5143.22591,0.01827
5145.15438,0.02650
5147.08285,0.03667
5149.01132,0.03237
5150.93979,0.01922
5152.86826,0.00382
5154.79673,-0.00813
5156.72519,0.00172
5158.65366,0.03305
5160.58213,0.04852
5162.51060,0.03234
5164.43907,0.01346
5166.36754,0.01379
5168.29601,0.02215
5170.22448,0.02813
5172.15294,0.02743
5174.08141,0.02047
5176.00988,0.01769
5177.93835,0.01702
5179.86682,0.01109
5181.79529,0.00674
5183.72376,0.01467
5185.65222,0.03151
5187.58069,0.03657
5189.50916,0.02308
5191.43763,0.01141
5193.36610,0.02271
5195.29457,0.05034
5197.22304,0.05691
5199.15151,0.02760
5201.07997,0.00883
5203.00844,0.02466
5204.93691,0.04729
5206.86538,0.05490
5208.79385,0.04816
5210.72232,0.03342
5212.65079,0.01480
5214.57925,0.00343
5216.50772,0.01159
5218.43619,0.03399
5220.36466,0.05130
5222.29313,0.04890
5224.22160,0.02871
5226.15007,0.00879
5228.07854,0.00619
5230.00700,0.01795
5231.93547,0.03200
5233.86394,0.03775
5235.79241,0.03238
5237.72088,0.02375
5239.64935,0.02371
5241.57782,0.03481
5243.50628,0.04947
5245.43475,0.05868
5247.36322,0.05586
5249.29169,0.03940
5251.22016,0.02880
5253.14863,0.04178
5255.07710,0.05746
5257.00556,0.05299
5258.93403,0.04477
5260.86250,0.05138
5262.79097,0.05812
5264.71944,0.04096
5266.64791,0.02288
5268.57638,0.03738
5270.50485,0.06894
5272.43331,0.07895
5274.36178,0.06773
5276.29025,0.06104
5278.21872,0.05652
5280.14719,0.04859
5282.07566,0.04655
5284.00413,0.04311
5285.93259,0.03690
5287.86106,0.04006
5289.78953,0.04035
5291.71800,0.02819
5293.64647,0.03303
5295.57494,0.05391
5297.50341,0.05860
5299.43188,0.05501
5301.36034,0.06211
5303.28881,0.06417
5305.21728,0.05471
5307.14575,0.05336
5309.07422,0.05649
5311.00269,0.04458
5312.93116,0.03257
5314.85962,0.04024
5316.78809,0.05363
5318.71656,0.05456
5320.64503,0.05189
5322.57350,0.05045
5324.50197,0.04853
5326.43044,0.05053
5328.35891,0.05050
5330.28737,0.04889
5332.21584,0.05294
5334.14431,0.05616
5336.07278,0.05189
5338.00125,0.05399
5339.92972,0.08009
5341.85819,0.11594
5343.78665,0.12934
5345.71512,0.10564
5347.64359,0.08931
5349.57206,0.09154
5351.50053,0.07962
5353.42900,0.06403
5355.35747,0.06810
5357.28594,0.07123
5359.21440,0.05664
5361.14287,0.02974
5363.07134,0.00871
5364.99981,0.00948
5366.92828,0.02869
5368.85675,0.04747
5370.78522,0.04797
5372.71368,0.04010
5374.64215,0.05029
5376.57062,0.06413
5378.49909,0.06021
5380.42756,0.06691
5382.35603,0.08262
5384.28450,0.07051
5386.21297,0.04769
5388.14143,0.05484
5390.06990,0.06350
5391.99837,0.05873
5393.92684,0.05998
5395.85531,0.06873
5397.78378,0.07704
5399.71225,0.08056
5401.64071,0.08275
5403.56918,0.08164
5405.49765,0.06058
5407.42612,0.04210
5409.35459,0.05383
5411.28306,0.06687
5413.21153,0.06086
5415.13999,0.05613
5417.06846,0.05900
5418.99693,0.06436
5420.92540,0.07117
5422.85387,0.08006
5424.78234,0.08649
5426.71081,0.08065
5428.63928,0.06991
5430.56774,0.06476
5432.49621,0.05494
5434.42468,0.04230
5436.35315,0.04313
5438.28162,0.05214
5440.21009,0.05898
5442.13856,0.07925
5444.06702,0.10500
5445.99549,0.10908
5447.92396,0.10948
5449.85243,0.10977
5451.78090,0.09801
5453.70937,0.08521
5455.63784,0.06256
5457.56631,0.02868
5459.49477,0.00627
5461.42324,0.00610
5463.35171,0.01887
5465.28018,0.02581
5467.20865,0.03376
5469.13712,0.05157
5471.06559,0.06279
5472.99405,0.07919
5474.92252,0.10927
5476.85099,0.10681
5478.77946,0.07755
5480.70793,0.06820
5482.63640,0.07099
5484.56487,0.06606
5486.49334,0.05856
5488.42180,0.04949
5490.35027,0.03960
5492.27874,0.04009
5494.20721,0.06071
5496.13568,0.09278
5498.06415,0.11404
5499.99262,0.11701
5501.92108,0.10569
5503.84955,0.08576
5505.77802,0.07209
5507.70649,0.07011
5509.63496,0.07050
5511.56343,0.08022
5513.49190,0.11050
5515.42037,0.12638
5517.34883,0.10928
5519.27730,0.10244
5521.20577,0.11155
5523.13424,0.10797
5525.06271,0.10246
5526.99118,0.11153
5528.91965,0.11909
5530.84811,0.10618
5532.77658,0.07336
5534.70505,0.04127
5536.63352,0.03184
5538.56199,0.04379
5540.49046,0.05950
5542.41893,0.06179
5544.34740,0.05670
5546.27586,0.06792
5548.20433,0.09290
5550.13280,0.09719
5552.06127,0.06539
5553.98974,0.03114
5555.91821,0.03378
5557.84668,0.07252
5559.77514,0.10694
5561.70361,0.10938
5563.63208,0.09970
5565.56055,0.09558
5567.48902,0.09492
5569.41749,0.10516
5571.34596,0.11516
5573.27443,0.10562
5575.20289,0.08827
5577.13136,0.07421
5579.05983,0.06421
5580.98830,0.06559
5582.91677,0.07311
5584.84524,0.07538
5586.77371,0.06829
5588.70217,0.05198
5590.63064,0.03901
5592.55911,0.04510
5594.48758,0.06857
5596.41605,0.09506
5598.34452,0.10380
5600.27299,0.08342
5602.20145,0.06222
5604.12992,0.06162
5606.05839,0.06194
5607.98686,0.06144
5609.91533,0.07696
5611.84380,0.10663
5613.77227,0.13165
5615.70074,0.13112
5617.62920,0.10831
5619.55767,0.08052
5621.48614,0.05712
5623.41461,0.04815
5625.34308,0.06262
5627.27155,0.09653
5629.20002,0.12698
5631.12848,0.12867
5633.05695,0.09490
5634.98542,0.04909
5636.91389,0.02689
5638.84236,0.03708
5640.77083,0.07004
5642.69930,0.09776
5644.62777,0.09120
5646.55623,0.07869
5648.48470,0.10268
5650.41317,0.13462
5652.34164,0.13552
5654.27011,0.10928
5656.19858,0.07808
5658.12705,0.06571
5660.05551,0.07677
5661.98398,0.10408
5663.91245,0.13058
5665.84092,0.12463
5667.76939,0.08013
5669.69786,0.03554
5671.62633,0.02692
5673.55480,0.03632
5675.48326,0.04573
5677.41173,0.05766
5679.34020,0.05383
5681.26867,0.04672
5683.19714,0.06497
5685.12561,0.08734
5687.05408,0.09231
5688.98254,0.09362
5690.91101,0.10520
5692.83948,0.11610
5694.76795,0.10918
5696.69642,0.08849
5698.62489,0.07376
5700.55336,0.08852
5702.48183,0.12156
5704.41029,0.12116
5706.33876,0.08426
5708.26723,0.05742
5710.19570,0.06656
5712.12417,0.08829
5714.05264,0.07231
5715.98111,0.03771
5717.90957,0.03866
5719.83804,0.05052
5721.76651,0.04763
5723.69498,0.05894
5725.62345,0.07803
5727.55192,0.07466
5729.48039,0.08582
5731.40886,0.13185
5733.33732,0.13743
5735.26579,0.07759
5737.19426,0.02939
5739.12273,0.02231
5741.05120,0.03074
5742.97967,0.05671
5744.90814,0.09861
5746.83660,0.12985
5748.76507,0.11991
5750.69354,0.07212
5752.62201,0.04454
5754.55048,0.05852
5756.47895,0.07718
5758.40742,0.08824
5760.33588,0.09865
5762.26435,0.10470
5764.19282,0.09791
5766.12129,0.08704
5768.04976,0.08042
5769.97823,0.07430
5771.90670,0.05860
5773.83517,0.02772
5775.76363,0.02439
5777.69210,0.07229
5779.62057,0.12586
5781.54904,0.14171
5783.47751,0.11222
5785.40598,0.06575
5787.33445,0.04196
5789.26291,0.04693
5791.19138,0.06712
5793.11985,0.08326
5795.04832,0.07169
5796.97679,0.03950
5798.90526,0.01851
5800.83373,0.02691
5802.76220,0.05195
5804.69066,0.06010
5806.61913,0.04891
5808.54760,0.03982
5810.47607,0.04345
5812.40454,0.05641
5814.33301,0.06954
5816.26148,0.08467
5818.18994,0.08485
5820.11841,0.06080
5822.04688,0.06059
5823.97535,0.08999
5825.90382,0.08335
5827.83229,0.04187
5829.76076,0.04512
5831.68923,0.10588
5833.61769,0.14513
5835.54616,0.13788
5837.47463,0.14015
5839.40310,0.15578
5841.33157,0.14483
5843.26004,0.10520
5845.18851,0.06927
5847.11697,0.07422
5849.04544,0.09550
5850.97391,0.07599
5852.90238,0.04737
5854.83085,0.05051
5856.75932,0.06759
5858.68779,0.06329
5860.61626,0.03688
5862.54472,0.03082
5864.47319,0.04374
5866.40166,0.05503
5868.33013,0.07401
5870.25860,0.08049
5872.18707,0.06472
5874.11554,0.04859
5876.04400,0.04701
5877.97247,0.05008
5879.90094,0.03401
5881.82941,0.02473
5883.75788,0.05156
5885.68635,0.06802
5887.61482,0.04453
5889.54329,0.02027
5891.47175,0.02849
5893.40022,0.06909
5895.32869,0.10532
5897.25716,0.09498
5899.18563,0.07325
5901.11410,0.09367
5903.04257,0.10046
5904.97103,0.06100
5906.89950,0.05400
5908.82797,0.07592
5910.75644,0.08346
5912.68491,0.09689
5914.61338,0.12049
5916.54185,0.14956
5918.47032,0.13664
5920.39878,0.05550
5922.32725,-0.01677
5924.25572,-0.03373
5926.18419,0.00014
5928.11266,0.06839
5930.04113,0.12388
5931.96960,0.14750
5933.89806,0.16329
5935.82653,0.16804
5937.75500,0.15283
5939.68347,0.12936
5941.61194,0.09821
5943.54041,0.07912
5945.46888,0.10264
5947.39734,0.16266
5949.32581,0.20948
5951.25428,0.20555
5953.18275,0.15714
5955.11122,0.07771
5957.03969,0.02248
5958.96816,0.03743
5960.89663,0.09506
5962.82509,0.14797
5964.75356,0.15805
5966.68203,0.12647
5968.61050,0.11046
5970.53897,0.11913
5972.46744,0.11776
5974.39591,0.12651
5976.32437,0.13696
5978.25284,0.11994
5980.18131,0.10239
5982.10978,0.10426
5984.03825,0.12370
5985.96672,0.13622
5987.89519,0.12165
5989.82366,0.10541
5991.75212,0.10978
5993.68059,0.12213
5995.60906,0.10487
5997.53753,0.07363
5999.46600,0.06724
6001.39447,0.07395
6003.32294,0.10464
6005.25140,0.15205
6007.17987,0.16693
6009.10834,0.14649
6011.03681,0.10568
6012.96528,0.07153
6014.89375,0.06982
6016.82222,0.08505
6018.75069,0.08175
6020.67915,0.06353
6022.60762,0.07551
6024.53609,0.10402
6026.46456,0.10224
6028.39303,0.06317
6030.32150,0.02627
6032.24997,0.03990
6034.17843,0.09249
6036.10690,0.12620
6038.03537,0.12078
6039.96384,0.11353
6041.89231,0.09582
6043.82078,0.05325
6045.74925,0.05212
6047.67772,0.10019
6049.60618,0.12218
6051.53465,0.10990
6053.46312,0.11389
6055.39159,0.12791
6057.32006,0.11402
6059.24853,0.06798
6061.17700,0.02075
6063.10546,0.02375
6065.03393,0.07058
6066.96240,0.10342
6068.89087,0.09937
6070.81934,0.07285
6072.74781,0.05901
6074.67628,0.07258
6076.60475,0.10374
6078.53321,0.14703
6080.46168,0.18163
6082.39015,0.17212
6084.31862,0.10932
6086.24709,0.04518
6088.17556,0.04263
6090.10403,0.07376
6092.03249,0.08407
6093.96096,0.07290
6095.88943,0.05770
6097.81790,0.03620
6099.74637,0.03426
6101.67484,0.06704
6103.60331,0.09428
6105.53177,0.13052
6107.46024,0.17669
6109.38871,0.16387
6111.31718,0.10773
6113.24565,0.08105
6115.17412,0.10450
6117.10259,0.13254
6119.03106,0.08634
6120.95952,-0.01166
6122.88799,-0.04494
6124.81646,0.01782
6126.74493,0.09129
6128.67340,0.10224
6130.60187,0.08803
6132.53034,0.08469
6134.45880,0.05808
6136.38727,0.02952
6138.31574,0.05622
6140.24421,0.07742
6142.17268,0.02235
6144.10115,-0.03328
6146.02962,-0.02016
6147.95809,0.03994
6149.88655,0.11040
6151.81502,0.15070
6153.74349,0.13377
6155.67196,0.07464
6157.60043,0.03682
6159.52890,0.04989
6161.45737,0.06678
6163.38583,0.09057
6165.31430,0.12615
6167.24277,0.11035
6169.17124,0.05432
6171.09971,0.03744
6173.02818,0.08205
6174.95665,0.11641
6176.88512,0.11262
6178.81358,0.10498
6180.74205,0.07934
6182.67052,0.04999
6184.59899,0.07903
6186.52746,0.13596
6188.45593,0.14427
6190.38440,0.14414
6192.31286,0.16858
6194.24133,0.15605
6196.16980,0.11682
6198.09827,0.09217
6200.02674,0.07384
6201.95521,0.07649
6203.88368,0.11813
6205.81215,0.16062
6207.74061,0.17564
6209.66908,0.16751
6211.59755,0.10618
6213.52602,0.03347
6215.45449,0.03842
6217.38296,0.07184
6219.31143,0.06345
6221.23989,0.06107
6223.16836,0.05481
6225.09683,0.01074
6227.02530,0.03321
6228.95377,0.10773
6230.88224,0.11123
6232.81071,0.11253
6234.73918,0.14699
6236.66764,0.11021
6238.59611,0.03276
6240.52458,-0.00906
6242.45305,-0.00223
6244.38152,0.07409
6246.30999,0.17026
6248.23846,0.15926
6250.16692,0.05648
6252.09539,0.00892
6254.02386,0.02738
6255.95233,0.04159
6257.88080,0.04991
6259.80927,0.07657
6261.73774,0.10733
6263.66621,0.10100
6265.59467,0.08409
6267.52314,0.09152
6269.45161,0.10161
6271.38008,0.10080
6273.30855,0.08344
6275.23702,0.07583
6277.16549,0.08211
6279.09395,0.08370
6281.02242,0.08649
6282.95089,0.07040
6284.87936,0.03875
6286.80783,0.05214
6288.73630,0.12176
6290.66477,0.13771
6292.59323,0.03457
6294.52170,-0.06051
6296.45017,-0.03686
6298.37864,0.04694
6300.30711,0.10091
6302.23558,0.11189
6304.16405,0.09033
6306.09252,0.04678
6308.02098,0.05101
6309.94945,0.13458
6311.87792,0.17885
6313.80639,0.12182
6315.73486,0.06562
6317.66333,0.08697
6319.59180,0.14217
6321.52026,0.18746
6323.44873,0.25326
6325.37720,0.28016
6327.30567,0.19023
6329.23414,0.07434
6331.16261,0.04601
6333.09108,0.05789
6335.01955,0.05863
6336.94801,0.09705
6338.87648,0.15219
6340.80495,0.15813
6342.73342,0.13780
6344.66189,0.11136
6346.59036,0.07313
6348.51883,0.04062
6350.44729,0.02448
6352.37576,0.01881
6354.30423,0.01815
6356.23270,0.03230
6358.16117,0.06370
6360.08964,0.11255
6362.01811,0.17907
6363.94658,0.20005
6365.87504,0.11959
6367.80351,0.05640
6369.73198,0.12617
6371.66045,0.21821
6373.58892,0.20157
6375.51739,0.12087
6377.44586,0.04949
6379.37432,0.01181
6381.30279,0.04071
6383.23126,0.09956
6385.15973,0.10794
6387.08820,0.07581
6389.01667,0.03032
6390.94514,0.00848
6392.87361,0.03928
6394.80207,0.09705
6396.73054,0.13656
6398.65901,0.12047
6400.58748,0.08134
6402.51595,0.09102
6404.44442,0.09665
6406.37289,0.02869
6408.30135,-0.00487
6410.22982,0.06623
6412.15829,0.14647
6414.08676,0.18996
6416.01523,0.18842
6417.94370,0.13100
6419.87217,0.07790
6421.80064,0.09660
6423.72910,0.17373
6425.65757,0.21246
6427.58604,0.15139
6429.51451,0.06002
6431.44298,0.03386
6433.37145,0.08508
6435.29992,0.14530
6437.22838,0.14784
6439.15685,0.09204
6441.08532,0.04502
6443.01379,0.03088
6444.94226,0.04925
6446.87073,0.11244
6448.79920,0.17686
6450.72766,0.16712
6452.65613,0.11172
6454.58460,0.07765
6456.51307,0.04911
6458.44154,0.00182
6460.37001,-0.05220
6462.29848,-0.06036
6464.22695,0.00495
6466.15541,0.07205
6468.08388,0.11028
6470.01235,0.16375
6471.94082,0.20942
6473.86929,0.21637
6475.79776,0.19185
6477.72623,0.15077
6479.65469,0.12118
6481.58316,0.10010
6483.51163,0.10189
6485.44010,0.13776
6487.36857,0.15749
6489.29704,0.12874
6491.22551,0.08437
6493.15398,0.05235
6495.08244,0.03402
6497.01091,0.03056
6498.93938,0.02699
6500.86785,0.01725
6502.79632,0.03115
6504.72479,0.06650
6506.65326,0.10463
6508.58172,0.17670
6510.51019,0.23258
6512.43866,0.18014
6514.36713,0.12890
6516.29560,0.13337
6518.22407,0.10685
6520.15254,0.06731
6522.08101,0.06674
6524.00947,0.10276
6525.93794,0.12809
6527.86641,0.13383
6529.79488,0.14308
6531.72335,0.12728
6533.65182,0.07908
6535.58029,0.02206
6537.50875,-0.01336
6539.43722,0.01105
6541.36569,0.08597
6543.29416,0.11616
6545.22263,0.06104
6547.15110,0.02153
6549.07957,0.05042
6551.00804,0.13329
6552.93650,0.20021
6554.86497,0.17136
6556.79344,0.10637
6558.72191,0.08924
6560.65038,0.08893
6562.57885,0.07289
6564.50732,0.05963
6566.43578,0.06804
6568.36425,0.11114
6570.29272,0.13429
6572.22119,0.07842
6574.14966,0.01089
6576.07813,-0.02274
6578.00660,-0.02121
6579.93507,0.04868
6581.86353,0.15343
6583.79200,0.18135
6585.72047,0.09232
6587.64894,-0.01779
6589.57741,-0.03024
6591.50588,0.03391
6593.43435,0.05539
6595.36281,0.02488
6597.29128,0.02166
6599.21975,0.02945
6601.14822,0.00130
6603.07669,-0.02920
6605.00516,-0.04176
6606.93363,-0.06694
6608.86210,-0.06271
6610.79056,0.00313
6612.71903,0.07144
6614.64750,0.11565
6616.57597,0.12714
6618.50444,0.09732
6620.43291,0.09893
6622.36138,0.15458
6624.28984,0.16431
6626.21831,0.05985
6628.14678,-0.05284
6630.07525,-0.03867
6632.00372,0.05305
6633.93219,0.14804
6635.86066,0.18200
6637.78912,0.12936
6639.71759,0.09279
6641.64606,0.07529
6643.57453,0.03554
6645.50300,-0.00180
6647.43147,0.00783
6649.35994,0.03481
6651.28841,0.00982
6653.21687,-0.00964
6655.14534,0.06127
6657.07381,0.12686
6659.00228,0.07562
6660.93075,0.05383
6662.85922,0.10563
6664.78769,0.07994
6666.71615,0.02398
6668.64462,0.05347
6670.57309,0.10566
6672.50156,0.11908
6674.43003,0.10354
6676.35850,0.08975
6678.28697,0.11269
6680.21544,0.12079
6682.14390,0.06312
6684.07237,-0.00374
6686.00084,-0.01481
6687.92931,0.03425
6689.85778,0.10336
6691.78625,0.12682
6693.71472,0.11193
6695.64318,0.09918
6697.57165,0.08260
6699.50012,0.06935
6701.42859,0.07533
6703.35706,0.04144
6705.28553,-0.03225
6707.21400,-0.07976
6709.14247,-0.07249
6711.07093,-0.01471
6712.99940,0.02180
6714.92787,0.01565
6716.85634,0.04204
6718.78481,0.09349
6720.71328,0.09886
6722.64175,0.06835
6724.57021,0.03480
6726.49868,-0.00951
6728.42715,-0.05713
6730.35562,-0.08082
6732.28409,-0.07813
6734.21256,-0.05997
6736.14103,-0.02866
6738.06950,-0.01325
6739.99796,-0.03513
6741.92643,-0.02546
6743.85490,0.07293
6745.78337,0.17927
6747.71184,0.21166
6749.64031,0.14998
6751.56878,0.03552
6753.49724,-0.03586
6755.42571,0.00463
6757.35418,0.05651
6759.28265,0.01811
6761.21112,0.00481
6763.13959,0.04892
6765.06806,0.03375
6766.99653,0.01461
6768.92499,0.02435
6770.85346,0.01779
6772.78193,0.04677
6774.71040,0.08859
6776.63887,0.05056
6778.56734,-0.02267
6780.49581,-0.04487
6782.42427,-0.00676
6784.35274,-0.00826
6786.28121,-0.07902
6788.20968,-0.07468
6790.13815,0.03394
6792.06662,0.08880
6793.99509,0.06865
6795.92355,0.10571
6797.85202,0.20290
6799.78049,0.27934
6801.70896,0.26589
6803.63743,0.13297
6805.56590,-0.00533
6807.49437,-0.04769
6809.42284,-0.03490
6811.35130,-0.00707
6813.27977,0.03285
6815.20824,0.06792
6817.13671,0.08222
6819.06518,0.09411
6820.99365,0.09434
6822.92212,0.05987
6824.85058,0.03089
6826.77905,0.04197
6828.70752,0.05838
6830.63599,0.02425
6832.56446,-0.04204
6834.49293,-0.09578
6836.42140,-0.11050
6838.34987,-0.05611
6840.27833,0.05489
6842.20680,0.12378
6844.13527,0.07681
6846.06374,-0.01202
6847.99221,-0.01561
6849.92068,0.05140
6851.84915,0.06475
6853.77761,0.05876
6855.70608,0.03779
6857.63455,0.00037
6859.56302,0.06418
6861.49149,0.18739
6863.41996,0.21524
6865.34843,0.15028
6867.27690,0.12844
6869.20536,0.17345
6871.13383,0.15348
6873.06230,0.05468
6874.99077,-0.03904
6876.91924,-0.10845
6878.84771,-0.12759
6880.77618,-0.06916
6882.70464,0.02296
6884.63311,0.06937
6886.56158,0.06807
6888.49005,0.08728
6890.41852,0.10625
6892.34699,0.07054
6894.27546,-0.00229
6896.20393,-0.07913
6898.13239,-0.12890
6900.06086,-0.09276
6901.98933,-0.01418
6903.91780,-0.00469
6905.84627,-0.03553
6907.77474,-0.02611
6909.70321,0.01622
6911.63167,0.08939
6913.56014,0.13073
6915.48861,0.07942
6917.41708,-0.02072
6919.34555,-0.10641
6921.27402,-0.11410
6923.20249,-0.03211
6925.13096,0.10941
6927.05942,0.25096
6928.98789,0.23176
6930.91636,0.00506
6932.84483,-0.11326
6934.77330,0.03826
6936.70177,0.21670
6938.63024,0.27029
6940.55870,0.20253
6942.48717,0.10552
6944.41564,0.05391
6946.34411,0.08214
6948.27258,0.13405
6950.20105,0.12948
6952.12952,0.10207
6954.05799,0.07555
6955.98645,0.04957
6957.91492,0.02893
6959.84339,-0.00149
6961.77186,0.06229
6963.70033,0.17714
6965.62880,0.14886
6967.55727,0.01675
6969.48573,-0.07047
6971.41420,-0.09137
6973.34267,-0.04956
6975.27114,0.09252
6977.19961,0.25171
6979.12808,0.28529
6981.05655,0.24195
6982.98501,0.18626
6984.91348,0.09951
6986.84195,0.05754
6988.77042,0.05634
6990.69889,0.01145
6992.62736,-0.00148
6994.55583,0.03932
6996.48430,0.03126
6998.41276,0.04329
7000.34123,0.13777
7002.26970,0.13724
7004.19817,0.10371
7006.12664,0.12223
7008.05511,0.05231
7009.98358,-0.02447
7011.91204,0.00927
7013.84051,0.01163
7015.76898,-0.12050
7017.69745,-0.20258
7019.62592,-0.09267
7021.55439,0.05195
7023.48286,0.06721
7025.41133,0.02035
7027.33979,-0.01377
7029.26826,-0.03071
7031.19673,-0.00532
7033.12520,0.05096
7035.05367,0.01724
7036.98214,-0.10248
7038.91061,-0.11857
7040.83907,-0.06883
7042.76754,-0.03065
7044.69601,0.08105
7046.62448,0.17140
7048.55295,0.14211
7050.48142,0.12540
7052.40989,0.19001
7054.33836,0.26430
7056.26682,0.27167
7058.19529,0.16523
7060.12376,0.04274
7062.05223,0.06994
7063.98070,0.18641
7065.90917,0.19149
7067.83764,0.02770
7069.76610,-0.15945
7071.69457,-0.15261
7073.62304,-0.07424
7075.55151,-0.03388
7077.47998,0.02760
7079.40845,0.07982
7081.33692,0.09984
7083.26539,0.10609
7085.19385,0.05782
7087.12232,-0.05188
7089.05079,-0.13724
7090.97926,-0.14815
7092.90773,-0.08285
7094.83620,0.06355
7096.76467,0.21419
7098.69313,0.24602
7100.62160,0.24319
7102.55007,0.28135
7104.47854,0.21238
7106.40701,0.06582
7108.33548,-0.00085
7110.26395,0.02014
7112.19242,0.11942
7114.12088,0.14436
7116.04935,-0.00648
7117.97782,-0.07142
7119.90629,0.08862
7121.83476,0.12976
7123.76323,-0.02015
7125.69170,-0.10917
7127.62016,-0.01233
7129.54863,0.06710
7131.47710,-0.03797
7133.40557,-0.17218
7135.33404,-0.10040
7137.26251,0.09752
7139.19098,0.16179
7141.11944,0.09925
7143.04791,0.11386
7144.97638,0.16040
7146.90485,0.11746
7148.83332,0.07668
7150.76179,0.08013
7152.69026,0.09822
7154.61873,0.15261
7156.54719,0.23580
7158.47566,0.31326
7160.40413,0.30030
7162.33260,0.15883
7164.26107,0.01489
7166.18954,-0.10165
7168.11801,-0.24732
7170.04647,-0.34404
7171.97494,-0.33204
7173.90341,-0.25542
7175.83188,-0.09687
7177.76035,0.03192
7179.68882,0.03475
7181.61729,0.08376
7183.54576,0.22400
7185.47422,0.27353
7187.40269,0.21020
7189.33116,0.12970
7191.25963,0.13433
7193.18810,0.18462
7195.11657,0.15390
7197.04504,0.05395
7198.97350,-0.03404
7200.90197,-0.10160
7202.83044,-0.13707
7204.75891,-0.09674
7206.68738,-0.06474
7208.61585,-0.01801
7210.54432,0.12131
7212.47279,0.23091
7214.40125,0.23845
7216.32972,0.22101
7218.25819,0.19510
7220.18666,0.15015
7222.11513,0.10200
7224.04360,0.03446
7225.97207,0.06162
7227.90053,0.25352
7229.82900,0.35778
7231.75747,0.23732
7233.68594,0.17644
7235.61441,0.24254
7237.54288,0.26412
7239.47135,0.23959
7241.39982,0.24726
7243.32828,0.16870
7245.25675,0.03135
7247.18522,0.00612
7249.11369,0.03973
7251.04216,0.06125
7252.97063,0.05601
7254.89910,0.01751
7256.82756,-0.00705
7258.75603,0.00770
7260.68450,0.01811
7262.61297,0.03994
7264.54144,0.14623
7266.46991,0.22020
7268.39838,0.22479
7270.32685,0.20321
7272.25531,0.15385
7274.18378,0.13430
7276.11225,0.12015
7278.04072,0.01801
7279.96919,-0.07653
7281.89766,0.02550
7283.82613,0.12941
7285.75459,0.10485
7287.68306,0.05572
7289.61153,0.10719
7291.54000,0.25684
7293.46847,0.33158
7295.39694,0.22551
7297.32541,0.09173
7299.25387,0.02361
7301.18234,-0.11155
7303.11081,-0.26882
7305.03928,-0.28796
7306.96775,-0.18788
7308.89622,-0.07226
7310.82469,-0.02759
7312.75316,0.00794
7314.68162,0.07105
7316.61009,0.13453
7318.53856,0.19455
7320.46703,0.24804
7322.39550,0.19623
7324.32397,0.03823
7326.25244,-0.05134
7328.18090,-0.08578
7330.10937,-0.13409
7332.03784,-0.15075
7333.96631,-0.09900
7335.89478,0.02661
7337.82325,0.16438
7339.75172,0.12105
7341.68019,-0.08921
7343.60865,-0.12405
7345.53712,0.04996
7347.46559,0.33019
7349.39406,0.37379
7351.32253,0.15998
7353.25100,0.07853
7355.17947,0.19442
7357.10793,0.19759
7359.03640,-0.07766
7360.96487,-0.29379
7362.89334,-0.24614
7364.82181,-0.10284
7366.75028,-0.03167
7368.67875,0.01272
7370.60722,0.11571
7372.53568,0.26000
7374.46415,0.38841
7376.39262,0.38727
7378.32109,0.35814
7380.24956,0.27676
7382.17803,0.09534
7384.10650,0.08052
7386.03496,0.32975
7387.96343,0.48277
7389.89190,0.36842
7391.82037,0.23598
7393.74884,0.23970
7395.67731,0.26053
7397.60578,0.17922
7399.53425,0.09147
7401.46271,0.05640
7403.39118,-0.00348
7405.31965,-0.11763
7407.24812,-0.11873
7409.17659,0.04585
7411.10506,0.14652
7413.03353,0.06413
7414.96199,-0.07511
7416.89046,-0.11669
7418.81893,0.01657
7420.74740,0.15992
7422.67587,0.23860
7424.60434,0.30890
7426.53281,0.32043
7428.46128,0.26872
7430.38974,0.16755
7432.31821,0.03500
7434.24668,-0.07287
7436.17515,-0.14111
7438.10362,-0.15888
7440.03209,-0.08316
7441.96056,-0.03618
7443.88902,-0.07403
7445.81749,-0.08008
7447.74596,-0.14281
7449.67443,-0.29112
7451.60290,-0.22087
7453.53137,0.00715
7455.45984,0.03708
7457.38831,-0.06053
7459.31677,-0.05083
7461.24524,0.15366
7463.17371,0.31785
7465.10218,0.31473
7467.03065,0.25809
7468.95912,0.26458
7470.88759,0.18532
7472.81605,0.01519
7474.74452,-0.00359
7476.67299,0.18415
7478.60146,0.59189
7480.52993,0.91824
7482.45840,0.76226
7484.38687,0.43874
7486.31533,0.23506
7488.24380,0.05886
7490.17227,-0.04388
7492.10074,0.01047
7494.02921,0.12599
7495.95768,0.29279
7497.88615,0.46372
