399.19301,0.30770
401.12148,0.38620
403.04995,0.31258
404.97842,0.03818
406.90689,-0.14457
408.83536,-0.19629
410.76382,-0.17410
412.69229,-0.11318
414.62076,-0.03195
416.54923,0.03677
418.47770,0.08572
420.40617,-0.02300
422.33464,-0.29829
424.26311,-0.41891
426.19157,-0.21598
428.12004,0.01830
430.04851,0.09643
431.97698,0.05220
433.90545,-0.01819
435.83392,-0.01918
437.76239,0.01607
439.69085,0.02515
441.61932,0.00126
443.54779,-0.07370
445.47626,-0.08510
447.40473,0.04182
449.33320,0.15395
451.26167,0.19140
453.19013,0.24062
455.11860,0.25916
457.04707,0.17543
458.97554,0.14104
460.90401,0.23279
462.83248,0.26036
464.76095,0.17927
466.68942,0.15653
468.61788,0.21750
470.54635,0.28381
472.47482,0.31484
474.40329,0.25866
476.33176,0.20077
478.26023,0.16945
480.18870,0.13523
482.11716,0.10695
484.04563,0.08291
485.97410,0.07152
487.90257,0.07020
489.83104,0.06281
491.75951,0.07405
493.68798,0.13440
495.61645,0.20422
497.54491,0.21141
499.47338,0.16957
501.40185,0.12421
503.33032,0.08410
505.25879,0.05613
507.18726,0.03988
509.11573,0.03843
511.04419,0.04521
512.97266,0.04933
514.90113,0.04171
516.82960,0.01962
518.75807,0.01888
520.68654,0.03969
522.61501,0.04602
524.54348,0.05414
526.47194,0.08409
528.40041,0.09024
530.32888,0.06521
532.25735,0.07712
534.18582,0.12264
536.11429,0.12129
538.04276,0.09168
539.97122,0.09080
541.89969,0.10453
543.82816,0.12636
545.75663,0.14807
547.68510,0.13798
549.61357,0.14410
551.54204,0.30457
553.47051,0.49820
555.39897,0.44090
557.32744,0.24003
559.25591,0.15467
561.18438,0.14828
563.11285,0.14707
565.04132,0.15019
566.96979,0.12154
568.89825,0.07597
570.82672,0.08696
572.75519,0.12834
574.68366,0.13317
576.61213,0.11840
578.54060,0.10211
580.46907,0.07726
582.39754,0.06816
584.32600,0.09573
586.25447,0.13799
588.18294,0.15769
590.11141,0.15778
592.03988,0.14753
593.96835,0.13131
595.89682,0.13615
597.82528,0.14915
599.75375,0.14701
601.68222,0.14007
603.61069,0.12903
605.53916,0.11647
607.46763,0.11360
609.39610,0.11377
611.32456,0.11351
613.25303,0.12112
615.18150,0.12596
617.10997,0.11238
619.03844,0.09921
620.96691,0.10771
622.89538,0.11607
624.82385,0.11141
626.75231,0.11610
628.68078,0.13199
630.60925,0.15181
632.53772,0.17003
634.46619,0.15986
636.39466,0.13069
638.32313,0.11905
640.25159,0.12178
642.18006,0.12339
644.10853,0.13407
646.03700,0.15314
647.96547,0.16252
649.89394,0.15357
651.82241,0.13633
653.75088,0.13006
655.67934,0.13457
657.60781,0.13452
659.53628,0.13017
661.46475,0.12869
663.39322,0.13601
665.32169,0.15269
667.25016,0.15375
669.17862,0.12395
671.10709,0.12540
673.03556,0.14397
674.96403,0.14389
676.89250,0.13471
678.82097,0.13086
680.74944,0.11696
682.67791,0.10069
684.60637,0.10233
686.53484,0.11003
688.46331,0.11097
690.39178,0.11276
692.32025,0.11810
694.24872,0.12709
696.17719,0.14169
698.10565,0.14934
700.03412,0.14529
701.96259,0.13570
703.89106,0.12448
705.81953,0.12761
707.74800,0.13483
709.67647,0.10914
711.60494,0.07605
713.53340,0.09258
715.46187,0.13306
717.39034,0.14117
719.31881,0.12329
721.24728,0.11289
723.17575,0.12339
725.10422,0.14213
727.03268,0.15232
728.96115,0.15155
730.88962,0.14670
732.81809,0.13906
734.74656,0.12926
736.67503,0.12903
738.60350,0.13390
740.53197,0.12704
742.46043,0.11885
744.38890,0.12453
746.31737,0.13913
748.24584,0.15014
750.17431,0.14730
752.10278,0.14038
754.03125,0.13452
755.95971,0.12203
757.88818,0.12238
759.81665,0.13906
761.74512,0.14970
763.67359,0.15366
765.60206,0.15193
767.53053,0.14106
769.45900,0.13311
771.38746,0.13286
773.31593,0.13085
775.24440,0.13421
777.17287,0.15165
779.10134,0.16585
781.02981,0.16095
782.95828,0.14802
784.88674,0.14534
786.81521,0.14574
788.74368,0.14120
790.67215,0.14929
792.60062,0.16728
794.52909,0.16278
796.45756,0.13453
798.38602,0.11713
800.31449,0.12072
802.24296,0.12466
804.17143,0.12534
806.09990,0.13812
808.02837,0.15716
809.95684,0.16372
811.88531,0.15353
813.81377,0.14087
815.74224,0.14214
817.67071,0.15217
819.59918,0.15666
821.52765,0.15243
823.45612,0.14171
825.38459,0.13065
827.31305,0.12689
829.24152,0.12557
831.16999,0.12060
833.09846,0.11959
835.02693,0.12911
836.95540,0.14170
838.88387,0.15627
840.81234,0.17013
842.74080,0.16407
844.66927,0.14435
846.59774,0.13985
848.52621,0.15188
850.45468,0.15947
852.38315,0.15694
854.31162,0.15230
856.24008,0.14873
858.16855,0.14756
860.09702,0.15119
862.02549,0.16056
863.95396,0.16498
865.88243,0.15155
867.81090,0.11065
869.73937,0.07391
871.66783,0.09438
873.59630,0.13364
875.52477,0.14300
877.45324,0.14311
879.38171,0.14210
881.31018,0.13688
883.23865,0.13587
885.16711,0.13657
887.09558,0.13534
889.02405,0.13751
890.95252,0.13998
892.88099,0.13858
894.80946,0.13835
896.73793,0.14073
898.66640,0.14463
900.59486,0.15091
902.52333,0.15773
904.45180,0.15980
906.38027,0.15621
908.30874,0.15001
910.23721,0.14562
912.16568,0.14507
914.09414,0.14441
916.02261,0.14297
917.95108,0.14527
919.87955,0.14772
921.80802,0.14195
923.73649,0.13532
925.66496,0.13394
927.59343,0.13048
929.52189,0.13064
931.45036,0.14079
933.37883,0.14547
935.30730,0.14101
937.23577,0.14482
939.16424,0.15382
941.09271,0.15339
943.02117,0.14702
944.94964,0.14412
946.87811,0.14305
948.80658,0.13871
950.73505,0.13773
952.66352,0.14455
954.59199,0.14987
956.52045,0.14731
958.44892,0.14664
960.37739,0.15517
962.30586,0.15950
964.23433,0.15282
966.16280,0.14786
968.09127,0.14822
970.01974,0.14464
971.94820,0.13686
973.87667,0.13651
975.80514,0.14576
977.73361,0.15319
979.66208,0.15383
981.59055,0.15157
983.51902,0.15134
985.44748,0.15318
987.37595,0.15068
989.30442,0.14630
991.23289,0.14639
993.16136,0.14912
995.08983,0.15304
997.01830,0.15440
998.94677,0.15112
1000.87523,0.14828
1002.80370,0.14922
1004.73217,0.15540
1006.66064,0.16180
1008.58911,0.15901
1010.51758,0.15370
1012.44605,0.15525
1014.37451,0.15651
1016.30298,0.15170
1018.23145,0.14427
1020.15992,0.14476
1022.08839,0.15804
1024.01686,0.17132
1025.94533,0.17317
1027.87380,0.16493
1029.80226,0.15665
1031.73073,0.15949
1033.65920,0.17109
1035.58767,0.17088
1037.51614,0.15432
1039.44461,0.14729
1041.37308,0.15711
1043.30154,0.16520
1045.23001,0.15876
1047.15848,0.14734
1049.08695,0.15029
1051.01542,0.16280
1052.94389,0.16724
1054.87236,0.16124
1056.80083,0.15272
1058.72929,0.15044
1060.65776,0.15810
1062.58623,0.16849
1064.51470,0.17208
1066.44317,0.16952
1068.37164,0.16911
1070.30011,0.17188
1072.22857,0.16863
1074.15704,0.15490
1076.08551,0.14295
1078.01398,0.14779
1079.94245,0.15856
1081.87092,0.15992
1083.79939,0.15897
1085.72786,0.15593
1087.65632,0.14703
1089.58479,0.14619
1091.51326,0.15768
1093.44173,0.16763
1095.37020,0.17041
1097.29867,0.17237
1099.22714,0.17875
1101.15560,0.18568
1103.08407,0.18584
1105.01254,0.17871
1106.94101,0.16924
1108.86948,0.16315
1110.79795,0.16309
1112.72642,0.16761
1114.65489,0.17012
1116.58335,0.16630
1118.51182,0.16034
1120.44029,0.15465
1122.36876,0.15277
1124.29723,0.15572
1126.22570,0.15895
1128.15417,0.16260
1130.08263,0.16215
1132.01110,0.15927
1133.93957,0.16359
1135.86804,0.16906
1137.79651,0.16546
1139.72498,0.15476
1141.65345,0.14843
1143.58191,0.15438
1145.51038,0.16701
1147.43885,0.17458
1149.36732,0.17321
1151.29579,0.16751
1153.22426,0.16197
1155.15273,0.16351
1157.08120,0.17060
1159.00966,0.17287
1160.93813,0.17052
1162.86660,0.16860
1164.79507,0.17135
1166.72354,0.17745
1168.65201,0.17747
1170.58048,0.17058
1172.50894,0.16551
1174.43741,0.16424
1176.36588,0.16237
1178.29435,0.16060
1180.22282,0.16098
1182.15129,0.16198
1184.07976,0.16367
1186.00823,0.16470
1187.93669,0.16253
1189.86516,0.16186
1191.79363,0.16288
1193.72210,0.15925
1195.65057,0.15576
1197.57904,0.15756
1199.50751,0.16089
1201.43597,0.16460
1203.36444,0.16707
1205.29291,0.16623
1207.22138,0.16598
1209.14985,0.16737
1211.07832,0.16804
1213.00679,0.16955
1214.93526,0.17238
1216.86372,0.17447
1218.79219,0.17350
1220.72066,0.16846
1222.64913,0.16396
1224.57760,0.16326
1226.50607,0.16282
1228.43454,0.16081
1230.36300,0.15985
1232.29147,0.16166
1234.21994,0.16173
1236.14841,0.15824
1238.07688,0.15870
1240.00535,0.16397
1241.93382,0.16707
1243.86229,0.16594
1245.79075,0.16424
1247.71922,0.16595
1249.64769,0.16754
1251.57616,0.16495
1253.50463,0.16468
1255.43310,0.16840
1257.36157,0.16769
1259.29003,0.16300
1261.21850,0.16065
1263.14697,0.16015
1265.07544,0.16103
1267.00391,0.16602
1268.93238,0.17343
1270.86085,0.17917
1272.78932,0.18055
1274.71778,0.17521
1276.64625,0.16739
1278.57472,0.16382
1280.50319,0.16437
1282.43166,0.16557
1284.36013,0.16624
1286.28860,0.16705
1288.21706,0.16827
1290.14553,0.17058
1292.07400,0.17229
1294.00247,0.17030
1295.93094,0.16560
1297.85941,0.16027
1299.78788,0.15418
1301.71634,0.14739
1303.64481,0.14232
1305.57328,0.14456
1307.50175,0.15629
1309.43022,0.16769
1311.35869,0.17087
1313.28716,0.17011
1315.21563,0.17059
1317.14409,0.17477
1319.07256,0.18060
1321.00103,0.18136
1322.92950,0.17673
1324.85797,0.17084
1326.78644,0.16682
1328.71491,0.16527
1330.64337,0.16285
1332.57184,0.16152
1334.50031,0.16350
1336.42878,0.16524
1338.35725,0.16752
1340.28572,0.16929
1342.21419,0.16758
1344.14266,0.16357
1346.07112,0.16121
1347.99959,0.16542
1349.92806,0.16938
1351.85653,0.16610
1353.78500,0.16282
1355.71347,0.16482
1357.64194,0.16861
1359.57040,0.17444
1361.49887,0.18460
1363.42734,0.18929
1365.35581,0.18390
1367.28428,0.17835
1369.21275,0.17452
1371.14122,0.17347
1373.06969,0.17969
1374.99815,0.18649
1376.92662,0.18703
1378.85509,0.18815
1380.78356,0.19005
1382.71203,0.18891
1384.64050,0.18738
1386.56897,0.18703
1388.49743,0.18466
1390.42590,0.18230
1392.35437,0.18654
1394.28284,0.19605
1396.21131,0.20011
1398.13978,0.19633
1400.06825,0.18765
1401.99672,0.18015
1403.92518,0.18032
1405.85365,0.18300
1407.78212,0.18345
1409.71059,0.18553
1411.63906,0.18780
1413.56753,0.18830
1415.49600,0.19131
1417.42446,0.19495
1419.35293,0.18864
1421.28140,0.18265
1423.20987,0.18583
1425.13834,0.18683
1427.06681,0.18436
1428.99528,0.18552
1430.92375,0.18712
1432.85221,0.18590
1434.78068,0.18879
1436.70915,0.19568
1438.63762,0.19261
1440.56609,0.18432
1442.49456,0.18157
1444.42303,0.18504
1446.35149,0.18973
1448.27996,0.18952
1450.20843,0.18647
1452.13690,0.18709
1454.06537,0.19445
1455.99384,0.21320
1457.92231,0.22076
1459.85077,0.20160
1461.77924,0.19211
1463.70771,0.19579
1465.63618,0.19777
1467.56465,0.19354
1469.49312,0.19864
1471.42159,0.21626
1473.35006,0.22688
1475.27852,0.21950
1477.20699,0.20717
1479.13546,0.19506
1481.06393,0.18834
1482.99240,0.18889
1484.92087,0.19332
1486.84934,0.20197
1488.77780,0.21380
1490.70627,0.21132
1492.63474,0.19955
1494.56321,0.19863
1496.49168,0.20645
1498.42015,0.20729
1500.34862,0.20262
1502.27709,0.20216
1504.20555,0.21051
1506.13402,0.23293
1508.06249,0.23701
1509.99096,0.21772
1511.91943,0.20918
1513.84790,0.21177
1515.77637,0.21931
1517.70483,0.22465
1519.63330,0.23353
1521.56177,0.24638
1523.49024,0.23832
1525.41871,0.21717
1527.34718,0.20065
1529.27565,0.19806
1531.20412,0.20741
1533.13258,0.21557
1535.06105,0.21311
1536.98952,0.21391
1538.91799,0.22698
1540.84646,0.23845
1542.77493,0.22550
1544.70340,0.20540
1546.63186,0.19380
1548.56033,0.19369
1550.48880,0.19790
1552.41727,0.20353
1554.34574,0.21259
1556.27421,0.22353
1558.20268,0.23142
1560.13115,0.21494
1562.05961,0.19898
1563.98808,0.19314
1565.91655,0.19237
1567.84502,0.19707
1569.77349,0.19894
1571.70196,0.19227
1573.63043,0.19147
1575.55889,0.19926
1577.48736,0.19904
1579.41583,0.19103
1581.34430,0.18767
1583.27277,0.18722
1585.20124,0.18530
1587.12971,0.18454
1589.05818,0.18773
1590.98664,0.18923
1592.91511,0.18578
1594.84358,0.18321
1596.77205,0.18473
1598.70052,0.18672
1600.62899,0.18583
1602.55746,0.18363
1604.48592,0.18273
1606.41439,0.18316
1608.34286,0.18495
1610.27133,0.18512
1612.19980,0.18499
1614.12827,0.19254
1616.05674,0.20508
1617.98521,0.20434
1619.91367,0.19775
1621.84214,0.19903
1623.77061,0.20244
1625.69908,0.20049
1627.62755,0.19672
1629.55602,0.19429
1631.48449,0.19785
1633.41295,0.21451
1635.34142,0.23946
1637.26989,0.23412
1639.19836,0.21170
1641.12683,0.20053
1643.05530,0.20254
1644.98377,0.21614
1646.91223,0.23000
1648.84070,0.22720
1650.76917,0.22858
1652.69764,0.24606
1654.62611,0.24066
1656.55458,0.21807
1658.48305,0.20811
1660.41152,0.21105
1662.33998,0.21565
1664.26845,0.21019
1666.19692,0.20606
1668.12539,0.21073
1670.05386,0.21573
1671.98233,0.21568
1673.91080,0.21682
1675.83926,0.21574
1677.76773,0.21179
1679.69620,0.21148
1681.62467,0.21943
1683.55314,0.23121
1685.48161,0.22297
1687.41008,0.21063
1689.33855,0.20614
1691.26701,0.20286
1693.19548,0.20520
1695.12395,0.21710
1697.05242,0.22925
1698.98089,0.23497
1700.90936,0.23158
1702.83783,0.22329
1704.76629,0.22057
1706.69476,0.21631
1708.62323,0.20666
1710.55170,0.20028
1712.48017,0.20162
1714.40864,0.20967
1716.33711,0.21841
1718.26558,0.21232
1720.19404,0.19857
1722.12251,0.19135
1724.05098,0.18759
1725.97945,0.18636
1727.90792,0.19138
1729.83639,0.20002
1731.76486,0.20813
1733.69332,0.21331
1735.62179,0.20943
1737.55026,0.20696
1739.47873,0.20985
1741.40720,0.21073
1743.33567,0.20919
1745.26414,0.21035
1747.19261,0.21244
1749.12107,0.21288
1751.04954,0.21133
1752.97801,0.20583
1754.90648,0.19933
1756.83495,0.19477
1758.76342,0.19383
1760.69189,0.19707
1762.62035,0.19655
1764.54882,0.19140
1766.47729,0.19241
1768.40576,0.20111
1770.33423,0.21293
1772.26270,0.21916
1774.19117,0.21169
1776.11964,0.20267
1778.04810,0.19812
1779.97657,0.19353
1781.90504,0.18812
1783.83351,0.18738
1785.76198,0.18976
1787.69045,0.19292
1789.61892,0.20065
1791.54738,0.20929
1793.47585,0.20776
1795.40432,0.20075
1797.33279,0.19925
1799.26126,0.20357
1801.18973,0.20345
1803.11820,0.19629
1805.04666,0.19108
1806.97513,0.19005
1808.90360,0.19112
1810.83207,0.19218
1812.76054,0.19219
1814.68901,0.19297
1816.61748,0.19791
1818.54595,0.20584
1820.47441,0.20656
1822.40288,0.19997
1824.33135,0.19690
1826.25982,0.19739
1828.18829,0.19877
1830.11676,0.20117
1832.04523,0.20054
1833.97369,0.19817
1835.90216,0.19551
1837.83063,0.19350
1839.75910,0.19489
1841.68757,0.20039
1843.61604,0.20567
1845.54451,0.20279
1847.47298,0.19610
1849.40144,0.19100
1851.32991,0.18683
1853.25838,0.18561
1855.18685,0.18784
1857.11532,0.18889
1859.04379,0.18784
1860.97226,0.18826
1862.90072,0.19095
1864.82919,0.19625
1866.75766,0.20346
1868.68613,0.20527
1870.61460,0.19685
1872.54307,0.18830
1874.47154,0.18718
1876.40001,0.19146
1878.32847,0.19433
1880.25694,0.19157
1882.18541,0.18730
1884.11388,0.18645
1886.04235,0.18781
1887.97082,0.19031
1889.89929,0.19196
1891.82775,0.19200
1893.75622,0.19306
1895.68469,0.19299
1897.61316,0.19028
1899.54163,0.18838
1901.47010,0.18819
1903.39857,0.18754
1905.32704,0.18754
1907.25550,0.19035
1909.18397,0.19319
1911.11244,0.19353
1913.04091,0.19372
1914.96938,0.19455
1916.89785,0.19428
1918.82632,0.19399
1920.75478,0.19602
1922.68325,0.19690
1924.61172,0.19146
1926.54019,0.18562
1928.46866,0.18648
1930.39713,0.18920
1932.32560,0.18864
1934.25407,0.18748
1936.18253,0.18855
1938.11100,0.19047
1940.03947,0.19269
1941.96794,0.19568
1943.89641,0.19611
1945.82488,0.19471
1947.75335,0.19437
1949.68181,0.19318
1951.61028,0.19065
1953.53875,0.18949
1955.46722,0.19122
1957.39569,0.19304
1959.32416,0.19184
1961.25263,0.18916
1963.18110,0.18899
1965.10956,0.19193
1967.03803,0.19237
1968.96650,0.18812
1970.89497,0.18553
1972.82344,0.18767
1974.75191,0.19276
1976.68038,0.19908
1978.60884,0.20136
1980.53731,0.19655
1982.46578,0.19200
1984.39425,0.19128
1986.32272,0.18991
1988.25119,0.18886
1990.17966,0.19136
1992.10812,0.19455
1994.03659,0.19452
1995.96506,0.19307
1997.89353,0.19288
1999.82200,0.19200
2001.75047,0.19048
2003.67894,0.19070
2005.60741,0.19088
2007.53587,0.18968
2009.46434,0.18923
2011.39281,0.19117
2013.32128,0.19395
2015.24975,0.19566
2017.17822,0.19539
2019.10669,0.19354
2021.03515,0.19283
2022.96362,0.19278
2024.89209,0.19184
2026.82056,0.19179
2028.74903,0.19258
2030.67750,0.19193
2032.60597,0.19031
2034.53444,0.18901
2036.46290,0.18766
2038.39137,0.18705
2040.31984,0.18886
2042.24831,0.19169
2044.17678,0.19197
2046.10525,0.19095
2048.03372,0.19208
2049.96218,0.19341
2051.89065,0.19190
2053.81912,0.18883
2055.74759,0.18712
2057.67606,0.18755
2059.60453,0.18971
2061.53300,0.19219
2063.46147,0.19313
2065.38993,0.19258
2067.31840,0.19163
2069.24687,0.19129
2071.17534,0.19128
2073.10381,0.19065
2075.03228,0.19013
2076.96075,0.19131
2078.88921,0.19330
2080.81768,0.19302
2082.74615,0.19043
2084.67462,0.18870
2086.60309,0.18887
2088.53156,0.18913
2090.46003,0.18932
2092.38850,0.19009
2094.31696,0.18915
2096.24543,0.18610
2098.17390,0.18559
2100.10237,0.18905
2102.03084,0.19140
2103.95931,0.18974
2105.88778,0.18649
2107.81624,0.18524
2109.74471,0.18682
2111.67318,0.18878
2113.60165,0.19023
2115.53012,0.19163
2117.45859,0.19175
2119.38706,0.19167
2121.31553,0.19367
2123.24399,0.19623
2125.17246,0.19695
2127.10093,0.19516
2129.02940,0.19197
2130.95787,0.19106
2132.88634,0.19154
2134.81481,0.18886
2136.74327,0.18676
2138.67174,0.18815
2140.60021,0.18907
2142.52868,0.19066
2144.45715,0.19400
2146.38562,0.19672
2148.31409,0.19839
2150.24255,0.19757
2152.17102,0.19467
2154.09949,0.19285
2156.02796,0.19213
2157.95643,0.19029
2159.88490,0.18861
2161.81337,0.19009
2163.74184,0.19282
2165.67030,0.19337
2167.59877,0.19226
2169.52724,0.19141
2171.45571,0.19131
2173.38418,0.19051
2175.31265,0.18899
2177.24112,0.18981
2179.16958,0.19263
2181.09805,0.19302
2183.02652,0.19133
2184.95499,0.19280
2186.88346,0.19640
2188.81193,0.19557
2190.74040,0.19169
2192.66887,0.19115
2194.59733,0.19355
2196.52580,0.19413
2198.45427,0.19183
2200.38274,0.19003
2202.31121,0.19095
2204.23968,0.19313
2206.16815,0.19256
2208.09661,0.18750
2210.02508,0.18352
2211.95355,0.18508
2213.88202,0.18814
2215.81049,0.18971
2217.73896,0.19145
2219.66743,0.19278
2221.59590,0.19328
2223.52436,0.19418
2225.45283,0.19516
2227.38130,0.19548
2229.30977,0.19439
2231.23824,0.19254
2233.16671,0.19167
2235.09518,0.19259
2237.02364,0.19324
2238.95211,0.19136
2240.88058,0.19029
2242.80905,0.19116
2244.73752,0.19081
2246.66599,0.19012
2248.59446,0.19116
2250.52293,0.19339
2252.45139,0.19442
2254.37986,0.19400
2256.30833,0.19411
2258.23680,0.19405
2260.16527,0.19356
2262.09374,0.19380
2264.02221,0.19333
2265.95067,0.19128
2267.87914,0.19048
2269.80761,0.19266
2271.73608,0.19451
2273.66455,0.19321
2275.59302,0.19035
2277.52149,0.18855
2279.44996,0.18854
2281.37842,0.18867
2283.30689,0.18817
2285.23536,0.18837
2287.16383,0.18831
2289.09230,0.18909
2291.02077,0.19265
2292.94924,0.19301
2294.87770,0.18937
2296.80617,0.18791
2298.73464,0.18736
2300.66311,0.18723
2302.59158,0.19032
2304.52005,0.19369
2306.44852,0.19319
2308.37699,0.19131
2310.30545,0.19132
2312.23392,0.19155
2314.16239,0.19288
2316.09086,0.19495
2318.01933,0.19206
2319.94780,0.18727
2321.87627,0.19065
2323.80473,0.20007
2325.73320,0.20828
2327.66167,0.21365
2329.59014,0.21574
2331.51861,0.21466
2333.44708,0.20272
2335.37555,0.18789
2337.30401,0.18810
2339.23248,0.19354
2341.16095,0.19634
2343.08942,0.19794
2345.01789,0.19273
2346.94636,0.18958
2348.87483,0.19434
2350.80330,0.20337
2352.73176,0.21218
2354.66023,0.21611
2356.58870,0.21598
2358.51717,0.20065
2360.44564,0.16905
2362.37411,0.15987
2364.30258,0.18001
2366.23104,0.19894
2368.15951,0.19833
2370.08798,0.19377
2372.01645,0.20184
2373.94492,0.20526
2375.87339,0.19730
2377.80186,0.19322
2379.73033,0.19572
2381.65879,0.19731
2383.58726,0.19625
2385.51573,0.19366
2387.44420,0.19000
2389.37267,0.18759
2391.30114,0.18834
2393.22961,0.19066
2395.15807,0.19222
2397.08654,0.19310
2399.01501,0.19342
2400.94348,0.19173
2402.87195,0.18931
2404.80042,0.18953
2406.72889,0.19241
2408.65736,0.19525
2410.58582,0.19681
2412.51429,0.19652
2414.44276,0.19317
2416.37123,0.18796
2418.29970,0.18456
2420.22817,0.18519
2422.15664,0.18952
2424.08510,0.19307
2426.01357,0.19197
2427.94204,0.18975
2429.87051,0.18947
2431.79898,0.18928
2433.72745,0.18889
2435.65592,0.18857
2437.58439,0.18733
2439.51285,0.18719
2441.44132,0.18998
2443.36979,0.19247
2445.29826,0.19232
2447.22673,0.19169
2449.15520,0.19188
2451.08367,0.19168
2453.01213,0.19072
2454.94060,0.19011
2456.86907,0.19136
2458.79754,0.19435
2460.72601,0.19574
2462.65448,0.19427
2464.58295,0.19302
2466.51142,0.19387
2468.43988,0.19567
2470.36835,0.19720
2472.29682,0.19746
2474.22529,0.19577
2476.15376,0.19536
2478.08223,0.19740
2480.01070,0.19689
2481.93916,0.19389
2483.86763,0.19296
2485.79610,0.19334
2487.72457,0.19380
2489.65304,0.19393
2491.58151,0.19248
2493.50998,0.19254
2495.43844,0.19625
2497.36691,0.19910
2499.29538,0.19721
2501.22385,0.19388
2503.15232,0.19369
2505.08079,0.19473
2507.00926,0.19331
2508.93773,0.19013
2510.86619,0.18930
2512.79466,0.19226
2514.72313,0.19640
2516.65160,0.19954
2518.58007,0.19993
2520.50854,0.19796
2522.43701,0.19677
2524.36547,0.19609
2526.29394,0.19372
2528.22241,0.19172
2530.15088,0.19187
2532.07935,0.19203
2534.00782,0.19202
2535.93629,0.19309
2537.86476,0.19389
2539.79322,0.19480
2541.72169,0.19700
2543.65016,0.19800
2545.57863,0.19557
2547.50710,0.19203
2549.43557,0.19177
2551.36404,0.19496
2553.29250,0.19715
2555.22097,0.19572
2557.14944,0.19336
2559.07791,0.19439
2561.00638,0.19841
2562.93485,0.20047
2564.86332,0.19799
2566.79179,0.19393
2568.72025,0.19288
2570.64872,0.19509
2572.57719,0.19637
2574.50566,0.19478
2576.43413,0.19238
2578.36260,0.19132
2580.29107,0.19226
2582.21953,0.19376
2584.14800,0.19483
2586.07647,0.19617
2588.00494,0.19750
2589.93341,0.19798
2591.86188,0.19741
2593.79035,0.19577
2595.71882,0.19417
2597.64728,0.19450
2599.57575,0.19659
2601.50422,0.19677
2603.43269,0.19339
2605.36116,0.19109
2607.28963,0.19242
2609.21810,0.19584
2611.14656,0.19976
2613.07503,0.20049
2615.00350,0.19823
2616.93197,0.19615
2618.86044,0.19332
2620.78891,0.19097
2622.71738,0.19267
2624.64585,0.19688
2626.57431,0.19810
2628.50278,0.19655
2630.43125,0.19667
2632.35972,0.19675
2634.28819,0.19633
2636.21666,0.19839
2638.14513,0.20048
2640.07359,0.19937
2642.00206,0.19649
2643.93053,0.19505
2645.85900,0.19504
2647.78747,0.19543
2649.71594,0.19725
2651.64441,0.19937
2653.57288,0.20084
2655.50134,0.20267
2657.42981,0.20230
2659.35828,0.19844
2661.28675,0.19680
2663.21522,0.19932
2665.14369,0.20152
2667.07216,0.20304
2669.00062,0.20501
2670.92909,0.20494
2672.85756,0.20304
2674.78603,0.20104
2676.71450,0.19706
2678.64297,0.19329
2680.57144,0.19226
2682.49990,0.19082
2684.42837,0.19229
2686.35684,0.19931
2688.28531,0.20424
2690.21378,0.20281
2692.14225,0.19946
2694.07072,0.19906
2695.99919,0.20054
2697.92765,0.20104
2699.85612,0.20028
2701.78459,0.19941
2703.71306,0.20094
2705.64153,0.20285
2707.57000,0.20068
2709.49847,0.19655
2711.42693,0.19453
2713.35540,0.19566
2715.28387,0.19866
2717.21234,0.20115
2719.14081,0.20275
2721.06928,0.20348
2722.99775,0.20144
2724.92622,0.19826
2726.85468,0.19836
2728.78315,0.20118
2730.71162,0.20251
2732.64009,0.20071
2734.56856,0.19984
2736.49703,0.20366
2738.42550,0.20866
2740.35396,0.20989
2742.28243,0.20822
2744.21090,0.20665
2746.13937,0.20504
2748.06784,0.20455
2749.99631,0.20530
2751.92478,0.20328
2753.85325,0.20004
2755.78171,0.19903
2757.71018,0.20005
2759.63865,0.20297
2761.56712,0.20421
2763.49559,0.20130
2765.42406,0.19863
2767.35253,0.19956
2769.28099,0.20226
2771.20946,0.20409
2773.13793,0.20451
2775.06640,0.20503
2776.99487,0.20670
2778.92334,0.20738
2780.85181,0.20668
2782.78028,0.20743
2784.70874,0.20877
2786.63721,0.20888
2788.56568,0.20794
2790.49415,0.20634
2792.42262,0.20594
2794.35109,0.20642
2796.27956,0.20616
2798.20802,0.20617
2800.13649,0.20612
2802.06496,0.20609
2803.99343,0.20900
2805.92190,0.21369
2807.85037,0.21548
2809.77884,0.21353
2811.70731,0.20946
2813.63577,0.20488
2815.56424,0.20246
2817.49271,0.20366
2819.42118,0.20664
2821.34965,0.20845
2823.27812,0.20785
2825.20659,0.20540
2827.13505,0.20310
2829.06352,0.20320
2830.99199,0.20527
2832.92046,0.20728
2834.84893,0.20772
2836.77740,0.20623
2838.70587,0.20366
2840.63433,0.20284
2842.56280,0.20656
2844.49127,0.20987
2846.41974,0.20739
2848.34821,0.20614
2850.27668,0.21079
2852.20515,0.21193
2854.13362,0.20685
2856.06208,0.20589
2857.99055,0.20918
2859.91902,0.20799
2861.84749,0.20323
2863.77596,0.19998
2865.70443,0.19973
2867.63290,0.20236
2869.56136,0.20634
2871.48983,0.20885
2873.41830,0.20778
2875.34677,0.20551
2877.27524,0.20542
2879.20371,0.20777
2881.13218,0.20990
2883.06065,0.20751
2884.98911,0.20123
2886.91758,0.19726
2888.84605,0.19862
2890.77452,0.20002
2892.70299,0.19761
2894.63146,0.19514
2896.55993,0.19485
2898.48839,0.19779
2900.41686,0.20444
2902.34533,0.20809
2904.27380,0.20434
2906.20227,0.20104
2908.13074,0.20276
2910.05921,0.20528
2911.98768,0.20815
2913.91614,0.20822
2915.84461,0.20247
2917.77308,0.19853
2919.70155,0.20039
2921.63002,0.20469
2923.55849,0.20858
2925.48696,0.20832
2927.41542,0.20489
2929.34389,0.20306
2931.27236,0.20275
2933.20083,0.20384
2935.12930,0.20364
2937.05777,0.19936
2938.98624,0.19914
2940.91471,0.20538
2942.84317,0.20714
2944.77164,0.19998
2946.70011,0.19284
2948.62858,0.19413
2950.55705,0.20134
2952.48552,0.20933
2954.41399,0.21173
2956.34245,0.20262
2958.27092,0.19287
2960.19939,0.19340
2962.12786,0.19768
2964.05633,0.20079
2965.98480,0.20123
2967.91327,0.19833
2969.84174,0.19781
2971.77020,0.20064
2973.69867,0.20393
2975.62714,0.20590
2977.55561,0.20361
2979.48408,0.20235
2981.41255,0.20770
2983.34102,0.21259
2985.26948,0.21155
2987.19795,0.20715
2989.12642,0.20636
2991.05489,0.21390
2992.98336,0.22170
2994.91183,0.22161
2996.84030,0.21760
2998.76877,0.21512
3000.69723,0.21369
3002.62570,0.21270
3004.55417,0.21228
3006.48264,0.20959
3008.41111,0.20495
3010.33958,0.19792
3012.26805,0.18309
3014.19651,0.15916
3016.12498,0.13981
3018.05345,0.15116
3019.98192,0.18811
3021.91039,0.21422
3023.83886,0.21927
3025.76733,0.21428
3027.69579,0.20820
3029.62426,0.20851
3031.55273,0.21238
3033.48120,0.21442
3035.40967,0.21462
3037.33814,0.21258
3039.26661,0.21064
3041.19508,0.21282
3043.12354,0.21727
3045.05201,0.21753
3046.98048,0.21304
3048.90895,0.20972
3050.83742,0.20990
3052.76589,0.21182
3054.69436,0.21031
3056.62282,0.20364
3058.55129,0.20240
3060.47976,0.20967
3062.40823,0.21307
3064.33670,0.20712
3066.26517,0.20005
3068.19364,0.20231
3070.12211,0.21168
3072.05057,0.21809
3073.97904,0.21690
3075.90751,0.21084
3077.83598,0.20851
3079.76445,0.21194
3081.69292,0.21482
3083.62139,0.20868
3085.54985,0.19580
3087.47832,0.19314
3089.40679,0.19997
3091.33526,0.20110
3093.26373,0.19618
3095.19220,0.19733
3097.12067,0.20692
3099.04914,0.21379
3100.97760,0.21488
3102.90607,0.21203
3104.83454,0.21033
3106.76301,0.21482
3108.69148,0.21765
3110.61995,0.21309
3112.54842,0.20744
3114.47688,0.20901
3116.40535,0.21511
3118.33382,0.21593
3120.26229,0.20864
3122.19076,0.20173
3124.11923,0.20296
3126.04770,0.20656
3127.97617,0.20804
3129.90463,0.21069
3131.83310,0.21302
3133.76157,0.21089
3135.69004,0.20753
3137.61851,0.20740
3139.54698,0.21026
3141.47545,0.21470
3143.40391,0.21702
3145.33238,0.21615
3147.26085,0.21347
3149.18932,0.21062
3151.11779,0.21053
3153.04626,0.21284
3154.97473,0.21622
3156.90320,0.22271
3158.83166,0.23054
3160.76013,0.22993
3162.68860,0.22027
3164.61707,0.21425
3166.54554,0.21622
3168.47401,0.21822
3170.40248,0.21780
3172.33094,0.21926
3174.25941,0.22140
3176.18788,0.22164
3178.11635,0.21966
3180.04482,0.21658
3181.97329,0.21741
3183.90176,0.22132
3185.83022,0.22061
3187.75869,0.21651
3189.68716,0.21620
3191.61563,0.21854
3193.54410,0.22003
3195.47257,0.22138
3197.40104,0.22325
3199.32951,0.22386
3201.25797,0.22001
3203.18644,0.21423
3205.11491,0.21225
3207.04338,0.21387
3208.97185,0.21611
3210.90032,0.21694
3212.82879,0.21787
3214.75725,0.22081
3216.68572,0.22387
3218.61419,0.22563
3220.54266,0.22428
3222.47113,0.22028
3224.39960,0.21584
3226.32807,0.21075
3228.25654,0.20951
3230.18500,0.21394
3232.11347,0.21633
3234.04194,0.21515
3235.97041,0.21430
3237.89888,0.21139
3239.82735,0.20699
3241.75582,0.20791
3243.68428,0.21295
3245.61275,0.21605
3247.54122,0.21543
3249.46969,0.21143
3251.39816,0.21083
3253.32663,0.21727
3255.25510,0.22029
3257.18357,0.21549
3259.11203,0.21042
3261.04050,0.20929
3262.96897,0.21130
3264.89744,0.21392
3266.82591,0.21434
3268.75438,0.21350
3270.68285,0.21537
3272.61131,0.22007
3274.53978,0.22088
3276.46825,0.21594
3278.39672,0.21377
3280.32519,0.21471
3282.25366,0.21157
3284.18213,0.20546
3286.11060,0.20161
3288.03906,0.20320
3289.96753,0.20957
3291.89600,0.21396
3293.82447,0.21108
3295.75294,0.20732
3297.68141,0.20836
3299.60988,0.20990
3301.53834,0.21218
3303.46681,0.21684
3305.39528,0.21912
3307.32375,0.21824
3309.25222,0.21565
3311.18069,0.21124
3313.10916,0.20984
3315.03763,0.21268
3316.96609,0.21317
3318.89456,0.21324
3320.82303,0.21639
3322.75150,0.21676
3324.67997,0.21456
3326.60844,0.21248
3328.53691,0.21117
3330.46537,0.21358
3332.39384,0.21491
3334.32231,0.21339
3336.25078,0.21566
3338.17925,0.21767
3340.10772,0.21468
3342.03619,0.21337
3343.96466,0.21697
3345.89312,0.22171
3347.82159,0.22283
3349.75006,0.21901
3351.67853,0.21498
3353.60700,0.21282
3355.53547,0.21046
3357.46394,0.20867
3359.39240,0.20875
3361.32087,0.20956
3363.24934,0.21048
3365.17781,0.21357
3367.10628,0.21854
3369.03475,0.22037
3370.96322,0.21781
3372.89168,0.21624
3374.82015,0.21819
3376.74862,0.21932
3378.67709,0.21535
3380.60556,0.20998
3382.53403,0.20774
3384.46250,0.20462
3386.39097,0.20075
3388.31943,0.20144
3390.24790,0.20672
3392.17637,0.21471
3394.10484,0.22061
3396.03331,0.22057
3397.96178,0.21629
3399.89025,0.21047
3401.81871,0.20893
3403.74718,0.21372
3405.67565,0.21711
3407.60412,0.21719
3409.53259,0.21794
3411.46106,0.21874
3413.38953,0.21779
3415.31800,0.21387
3417.24646,0.20801
3419.17493,0.20441
3421.10340,0.20538
3423.03187,0.20615
3424.96034,0.20377
3426.88881,0.20157
3428.81728,0.20077
3430.74574,0.20406
3432.67421,0.21091
3434.60268,0.21178
3436.53115,0.20499
3438.45962,0.19944
3440.38809,0.19847
3442.31656,0.20011
3444.24503,0.20396
3446.17349,0.20697
3448.10196,0.20616
3450.03043,0.20363
3451.95890,0.20399
3453.88737,0.20750
3455.81584,0.20960
3457.74431,0.20970
3459.67277,0.20610
3461.60124,0.19744
3463.52971,0.19165
3465.45818,0.19162
3467.38665,0.19349
3469.31512,0.19657
3471.24359,0.19770
3473.17206,0.19507
3475.10052,0.19254
3477.02899,0.19031
3478.95746,0.18694
3480.88593,0.18646
3482.81440,0.19105
3484.74287,0.19385
3486.67134,0.19045
3488.59980,0.18577
3490.52827,0.18425
3492.45674,0.18668
3494.38521,0.19012
3496.31368,0.18737
3498.24215,0.18133
3500.17062,0.18140
3502.09909,0.18582
3504.02755,0.18680
3505.95602,0.18378
3507.88449,0.18336
3509.81296,0.18623
3511.74143,0.18458
3513.66990,0.17698
3515.59837,0.17025
3517.52683,0.16871
3519.45530,0.17220
3521.38377,0.17911
3523.31224,0.18555
3525.24071,0.18848
3527.16918,0.18974
3529.09765,0.18872
3531.02611,0.18369
3532.95458,0.17755
3534.88305,0.17523
3536.81152,0.17842
3538.73999,0.18128
3540.66846,0.18233
3542.59693,0.18499
3544.52540,0.18577
3546.45386,0.17956
3548.38233,0.16900
3550.31080,0.16483
3552.23927,0.16923
3554.16774,0.17013
3556.09621,0.16800
3558.02468,0.17109
3559.95314,0.17315
3561.88161,0.17121
3563.81008,0.17504
3565.73855,0.18368
3567.66702,0.18299
3569.59549,0.17619
3571.52396,0.17186
3573.45243,0.16446
3575.38089,0.15502
3577.30936,0.15224
3579.23783,0.15522
3581.16630,0.15953
3583.09477,0.16360
3585.02324,0.16298
3586.95171,0.15804
3588.88017,0.15887
3590.80864,0.16514
3592.73711,0.17047
3594.66558,0.17109
3596.59405,0.16436
3598.52252,0.15726
3600.45099,0.15503
3602.37946,0.15178
3604.30792,0.14794
3606.23639,0.15187
3608.16486,0.16173
3610.09333,0.16598
3612.02180,0.16419
3613.95027,0.16057
3615.87874,0.15584
3617.80720,0.15317
3619.73567,0.15348
3621.66414,0.14923
3623.59261,0.14489
3625.52108,0.15217
3627.44955,0.17130
3629.37802,0.18021
3631.30649,0.16769
3633.23495,0.15567
3635.16342,0.14874
3637.09189,0.14727
3639.02036,0.14817
3640.94883,0.14642
3642.87730,0.14513
3644.80577,0.14907
3646.73423,0.15899
3648.66270,0.17046
3650.59117,0.16411
3652.51964,0.14874
3654.44811,0.14281
3656.37658,0.14478
3658.30505,0.14585
3660.23352,0.14365
3662.16198,0.13900
3664.09045,0.13581
3666.01892,0.14052
3667.94739,0.15061
3669.87586,0.15175
3671.80433,0.14164
3673.73280,0.14186
3675.66126,0.15095
3677.58973,0.14979
3679.51820,0.14415
3681.44667,0.13999
3683.37514,0.13850
3685.30361,0.14112
3687.23208,0.14614
3689.16055,0.15049
3691.08901,0.14866
3693.01748,0.14387
3694.94595,0.14153
3696.87442,0.14144
3698.80289,0.14357
3700.73136,0.14656
3702.65983,0.14610
3704.58829,0.14384
3706.51676,0.14468
3708.44523,0.14936
3710.37370,0.15428
3712.30217,0.14778
3714.23064,0.13437
3716.15911,0.12922
3718.08757,0.13194
3720.01604,0.13539
3721.94451,0.13743
3723.87298,0.14095
3725.80145,0.14403
3727.72992,0.14275
3729.65839,0.14109
3731.58686,0.14409
3733.51532,0.15000
3735.44379,0.15134
3737.37226,0.14568
3739.30073,0.14299
3741.22920,0.14537
3743.15767,0.14503
3745.08614,0.13978
3747.01460,0.14294
3748.94307,0.15943
3750.87154,0.17758
3752.80001,0.16772
3754.72848,0.15012
3756.65695,0.14487
3758.58542,0.14290
3760.51389,0.13192
3762.44235,0.12205
3764.37082,0.12221
3766.29929,0.12708
3768.22776,0.13148
3770.15623,0.13544
3772.08470,0.13464
3774.01317,0.13028
3775.94163,0.12754
3777.87010,0.12732
3779.79857,0.12918
3781.72704,0.13146
3783.65551,0.13105
3785.58398,0.12780
3787.51245,0.12465
3789.44092,0.12467
3791.36938,0.12818
3793.29785,0.13198
3795.22632,0.13397
3797.15479,0.13599
3799.08326,0.14017
3801.01173,0.14255
3802.94020,0.14174
3804.86866,0.14560
3806.79713,0.14675
3808.72560,0.13706
3810.65407,0.12886
3812.58254,0.12930
3814.51101,0.13797
3816.43948,0.14806
3818.36795,0.15085
3820.29641,0.14946
3822.22488,0.14239
3824.15335,0.13229
3826.08182,0.12505
3828.01029,0.12256
3829.93876,0.12277
3831.86723,0.12500
3833.79569,0.13167
3835.72416,0.14040
3837.65263,0.14622
3839.58110,0.14455
3841.50957,0.13780
3843.43804,0.13041
3845.36651,0.12420
3847.29498,0.12106
3849.22344,0.12335
3851.15191,0.13540
3853.08038,0.14752
3855.00885,0.13021
3856.93732,0.11382
3858.86579,0.11286
3860.79426,0.12323
3862.72272,0.13714
3864.65119,0.13885
3866.57966,0.13144
3868.50813,0.12953
3870.43660,0.12962
3872.36507,0.12691
3874.29354,0.12565
3876.22200,0.12259
3878.15047,0.12091
3880.07894,0.12882
3882.00741,0.13684
3883.93588,0.13322
3885.86435,0.12504
3887.79282,0.12431
3889.72129,0.12929
3891.64975,0.12941
3893.57822,0.12514
3895.50669,0.12487
3897.43516,0.12806
3899.36363,0.12858
3901.29210,0.12284
3903.22057,0.12249
3905.14903,0.12878
3907.07750,0.12713
3909.00597,0.11877
3910.93444,0.11356
3912.86291,0.11624
3914.79138,0.12258
3916.71985,0.12709
3918.64832,0.12821
3920.57678,0.12496
3922.50525,0.11763
3924.43372,0.11295
3926.36219,0.11600
3928.29066,0.12092
3930.21913,0.12198
3932.14760,0.12021
3934.07606,0.11796
3936.00453,0.11407
3937.93300,0.11168
3939.86147,0.11475
3941.78994,0.11950
3943.71841,0.11916
3945.64688,0.11592
3947.57535,0.11648
3949.50381,0.11627
3951.43228,0.11132
3953.36075,0.10644
3955.28922,0.10343
3957.21769,0.10487
3959.14616,0.11132
3961.07463,0.11755
3963.00309,0.11994
3964.93156,0.11848
3966.86003,0.11548
3968.78850,0.11415
3970.71697,0.11206
3972.64544,0.10402
3974.57391,0.09709
3976.50238,0.09879
3978.43084,0.10129
3980.35931,0.10096
3982.28778,0.10417
3984.21625,0.10822
3986.14472,0.10591
3988.07319,0.10247
3990.00166,0.10474
3991.93012,0.10854
3993.85859,0.11093
3995.78706,0.11324
3997.71553,0.11195
3999.64400,0.10541
4001.57247,0.09934
4003.50094,0.09850
4005.42941,0.10076
4007.35787,0.10385
4009.28634,0.10859
4011.21481,0.11377
4013.14328,0.11566
4015.07175,0.11149
4017.00022,0.10479
4018.92869,0.10243
4020.85715,0.10670
4022.78562,0.11448
4024.71409,0.11761
4026.64256,0.11168
4028.57103,0.10552
4030.49950,0.10533
4032.42797,0.10352
4034.35644,0.09876
4036.28490,0.10220
4038.21337,0.11145
4040.14184,0.11288
4042.07031,0.10879
4043.99878,0.10716
4045.92725,0.10521
4047.85572,0.10258
4049.78418,0.10342
4051.71265,0.10314
4053.64112,0.10105
4055.56959,0.10457
4057.49806,0.10967
4059.42653,0.11062
4061.35500,0.10790
4063.28346,0.10183
4065.21193,0.09595
4067.14040,0.09282
4069.06887,0.09382
4070.99734,0.09624
4072.92581,0.09464
4074.85428,0.09344
4076.78275,0.09679
4078.71121,0.09833
4080.63968,0.09511
4082.56815,0.09309
4084.49662,0.09671
4086.42509,0.10057
4088.35356,0.09760
4090.28203,0.09319
4092.21049,0.09240
4094.13896,0.09087
4096.06743,0.08803
4097.99590,0.08763
4099.92437,0.09200
4101.85284,0.09755
4103.78131,0.09699
4105.70978,0.09325
4107.63824,0.09368
4109.56671,0.09523
4111.49518,0.09498
4113.42365,0.09419
4115.35212,0.09129
4117.28059,0.08866
4119.20906,0.08775
4121.13752,0.08666
4123.06599,0.08945
4124.99446,0.09336
4126.92293,0.08792
4128.85140,0.07756
4130.77987,0.07500
4132.70834,0.07806
4134.63681,0.07817
4136.56527,0.07649
4138.49374,0.07657
4140.42221,0.07648
4142.35068,0.07611
4144.27915,0.08034
4146.20762,0.08827
4148.13609,0.09250
4150.06455,0.09345
4151.99302,0.09246
4153.92149,0.08584
4155.84996,0.07907
4157.77843,0.07938
4159.70690,0.08295
4161.63537,0.08492
4163.56384,0.08557
4165.49230,0.08401
4167.42077,0.07947
4169.34924,0.07616
4171.27771,0.07668
4173.20618,0.07814
4175.13465,0.07999
4177.06312,0.08249
4178.99158,0.08192
4180.92005,0.08032
4182.84852,0.08239
4184.77699,0.08477
4186.70546,0.08135
4188.63393,0.07391
4190.56240,0.07080
4192.49087,0.07191
4194.41933,0.07234
4196.34780,0.06990
4198.27627,0.06690
4200.20474,0.07269
4202.13321,0.08290
4204.06168,0.08246
4205.99015,0.07168
4207.91861,0.06447
4209.84708,0.06645
4211.77555,0.06968
4213.70402,0.07179
4215.63249,0.07386
4217.56096,0.07064
4219.48943,0.06487
4221.41789,0.06572
4223.34636,0.07120
4225.27483,0.07395
4227.20330,0.07380
4229.13177,0.07508
4231.06024,0.07949
4232.98871,0.08091
4234.91718,0.07562
4236.84564,0.06952
4238.77411,0.06815
4240.70258,0.07192
4242.63105,0.07487
4244.55952,0.07170
4246.48799,0.06331
4248.41646,0.05440
4250.34492,0.05555
4252.27339,0.06666
4254.20186,0.07204
4256.13033,0.06827
4258.05880,0.06463
4259.98727,0.06624
4261.91574,0.07230
4263.84421,0.07545
4265.77267,0.07245
4267.70114,0.06705
4269.62961,0.06020
4271.55808,0.05394
4273.48655,0.05397
4275.41502,0.06308
4277.34349,0.07153
4279.27195,0.06941
4281.20042,0.06443
4283.12889,0.06323
4285.05736,0.06532
4286.98583,0.06858
4288.91430,0.06879
4290.84277,0.06894
4292.77124,0.07048
4294.69970,0.06967
4296.62817,0.06561
4298.55664,0.06208
4300.48511,0.06261
4302.41358,0.06304
4304.34205,0.06146
4306.27052,0.06106
4308.19898,0.06437
4310.12745,0.07052
4312.05592,0.07367
4313.98439,0.07263
4315.91286,0.07204
4317.84133,0.07278
4319.76980,0.07062
4321.69827,0.06242
4323.62673,0.05188
4325.55520,0.04707
4327.48367,0.04629
4329.41214,0.04183
4331.34061,0.03743
4333.26908,0.03999
4335.19755,0.04599
4337.12601,0.04875
4339.05448,0.05142
4340.98295,0.05677
4342.91142,0.06054
4344.83989,0.06365
4346.76836,0.06442
4348.69683,0.05790
4350.62530,0.04912
4352.55376,0.04459
4354.48223,0.04357
4356.41070,0.04388
4358.33917,0.04419
4360.26764,0.04402
4362.19611,0.04465
4364.12458,0.04221
4366.05304,0.03382
4367.98151,0.03097
4369.90998,0.04155
4371.83845,0.05417
4373.76692,0.05858
4375.69539,0.05733
4377.62386,0.05624
4379.55232,0.05587
4381.48079,0.05065
4383.40926,0.04174
4385.33773,0.04031
4387.26620,0.04874
4389.19467,0.05422
4391.12314,0.05007
4393.05161,0.04431
4394.98007,0.04251
4396.90854,0.04349
4398.83701,0.04445
4400.76548,0.04196
4402.69395,0.03720
4404.62242,0.03598
4406.55089,0.03923
4408.47935,0.04211
4410.40782,0.03939
4412.33629,0.03086
4414.26476,0.02399
4416.19323,0.02432
4418.12170,0.03009
4420.05017,0.03496
4421.97864,0.03761
4423.90710,0.04287
4425.83557,0.04562
4427.76404,0.04079
4429.69251,0.03794
4431.62098,0.04003
4433.54945,0.03840
4435.47792,0.03197
4437.40638,0.02666
4439.33485,0.02881
4441.26332,0.03633
4443.19179,0.03841
4445.12026,0.03710
4447.04873,0.04048
4448.97720,0.04595
4450.90567,0.04684
4452.83413,0.03812
4454.76260,0.02856
4456.69107,0.03036
4458.61954,0.03316
4460.54801,0.02919
4462.47648,0.03254
4464.40495,0.04055
4466.33341,0.03727
4468.26188,0.02672
4470.19035,0.02036
4472.11882,0.02342
4474.04729,0.03322
4475.97576,0.04285
4477.90423,0.04791
4479.83270,0.04251
4481.76116,0.02890
4483.68963,0.02031
4485.61810,0.02124
4487.54657,0.02407
4489.47504,0.02612
4491.40351,0.03211
4493.33198,0.03989
4495.26044,0.04058
4497.18891,0.03046
4499.11738,0.02157
4501.04585,0.02553
4502.97432,0.03404
4504.90279,0.03592
4506.83126,0.02714
4508.75973,0.01766
4510.68819,0.01893
4512.61666,0.02147
4514.54513,0.01853
4516.47360,0.01777
4518.40207,0.02155
4520.33054,0.02130
4522.25901,0.01155
4524.18747,0.00267
4526.11594,0.00516
4528.04441,0.01384
4529.97288,0.01847
4531.90135,0.01495
4533.82982,0.00739
4535.75829,0.00448
4537.68676,0.00578
4539.61522,0.00579
4541.54369,0.00791
4543.47216,0.01399
4545.40063,0.02283
4547.32910,0.03095
4549.25757,0.03018
4551.18604,0.02130
4553.11450,0.01085
4555.04297,0.00329
4556.97144,0.00348
4558.89991,0.01338
4560.82838,0.02461
4562.75685,0.02437
4564.68532,0.01627
4566.61378,0.01122
4568.54225,0.01422
4570.47072,0.02584
4572.39919,0.03313
4574.32766,0.02857
4576.25613,0.01941
4578.18460,0.01088
4580.11307,0.00907
4582.04153,0.01865
4583.97000,0.02732
4585.89847,0.02152
4587.82694,0.01297
4589.75541,0.01335
4591.68388,0.01500
4593.61235,0.01477
4595.54081,0.01647
4597.46928,0.01859
4599.39775,0.01664
4601.32622,0.00989
4603.25469,0.00167
4605.18316,-0.00114
4607.11163,0.00465
4609.04010,0.01084
4610.96856,0.01123
4612.89703,0.00859
4614.82550,0.00875
4616.75397,0.01493
4618.68244,0.02033
4620.61091,0.01950
4622.53938,0.01422
4624.46784,0.00457
4626.39631,0.00083
4628.32478,0.01116
4630.25325,0.02129
4632.18172,0.02317
4634.11019,0.02381
4636.03866,0.02209
4637.96713,0.01511
4639.89559,0.01030
4641.82406,0.01539
4643.75253,0.02322
4645.68100,0.01774
4647.60947,0.00304
4649.53794,-0.00466
4651.46641,-0.00376
4653.39487,0.00105
4655.32334,0.00265
4657.25181,0.00109
4659.18028,0.00695
4661.10875,0.01084
4663.03722,0.00206
4664.96569,-0.00461
4666.89416,0.00069
4668.82262,0.01465
4670.75109,0.02499
4672.67956,0.02097
4674.60803,0.01473
4676.53650,0.01404
4678.46497,0.01232
4680.39344,0.01025
4682.32190,0.00752
4684.25037,0.00548
4686.17884,0.00836
4688.10731,0.01035
4690.03578,0.00994
4691.96425,0.01079
4693.89272,0.00943
4695.82119,0.00669
4697.74965,0.00650
4699.67812,0.01094
4701.60659,0.01875
4703.53506,0.01905
4705.46353,0.00985
4707.39200,0.00281
4709.32047,0.00309
4711.24893,0.00683
4713.17740,0.00758
4715.10587,0.00751
4717.03434,0.01340
4718.96281,0.02180
4720.89128,0.02670
4722.81975,0.02310
4724.74821,0.01021
4726.67668,0.00020
4728.60515,0.00081
4730.53362,0.00392
4732.46209,-0.00112
4734.39056,-0.00820
4736.31903,-0.00277
4738.24750,0.00583
4740.17596,0.00536
4742.10443,0.00584
4744.03290,0.01211
4745.96137,0.01800
4747.88984,0.02031
4749.81831,0.01824
4751.74678,0.01381
4753.67524,0.01341
4755.60371,0.02049
4757.53218,0.02872
4759.46065,0.02507
4761.38912,0.00850
4763.31759,0.00034
4765.24606,0.00881
4767.17453,0.01654
4769.10299,0.01477
4771.03146,0.00683
4772.95993,-0.00061
4774.88840,-0.00031
4776.81687,0.00642
4778.74534,0.01317
4780.67381,0.01553
4782.60227,0.01485
4784.53074,0.01418
4786.45921,0.01251
4788.38768,0.00881
4790.31615,0.00684
4792.24462,0.01053
4794.17309,0.01667
4796.10156,0.01728
4798.03002,0.01013
4799.95849,0.00145
4801.88696,-0.00368
4803.81543,-0.00574
4805.74390,-0.00031
4807.67237,0.01632
4809.60084,0.02936
4811.52930,0.02493
4813.45777,0.00783
4815.38624,-0.00849
4817.31471,-0.01248
4819.24318,-0.01141
4821.17165,-0.01286
4823.10012,-0.00576
4825.02859,0.00400
4826.95705,0.00104
4828.88552,-0.00366
4830.81399,0.00028
4832.74246,0.00578
4834.67093,0.01328
4836.59940,0.02224
4838.52787,0.01675
4840.45633,0.00309
4842.38480,0.00365
4844.31327,0.00562
4846.24174,-0.00149
4848.17021,0.00074
4850.09868,0.00791
4852.02715,0.00676
4853.95562,-0.00033
4855.88408,-0.01196
4857.81255,-0.01843
4859.74102,-0.00915
4861.66949,0.00975
4863.59796,0.01980
4865.52643,0.01311
4867.45490,0.00011
4869.38336,-0.00802
4871.31183,-0.00047
4873.24030,0.01540
4875.16877,0.01470
4877.09724,0.00465
4879.02571,0.00397
4880.95418,0.00868
4882.88265,0.01261
4884.81111,0.00868
4886.73958,-0.00128
4888.66805,-0.00139
4890.59652,0.00885
4892.52499,0.01398
4894.45346,0.00845
4896.38193,0.00069
4898.31039,-0.00288
4900.23886,-0.00147
4902.16733,0.00296
4904.09580,0.00886
4906.02427,0.01801
4907.95274,0.02337
4909.88121,0.02332
4911.80967,0.02412
4913.73814,0.01817
4915.66661,0.00474
4917.59508,-0.00676
4919.52355,-0.01049
4921.45202,0.00144
4923.38049,0.02626
4925.30896,0.04184
4927.23742,0.02961
4929.16589,0.00496
4931.09436,-0.00327
4933.02283,0.00039
4934.95130,-0.00600
4936.87977,-0.01358
4938.80824,-0.00661
4940.73670,0.00531
4942.66517,0.00819
4944.59364,0.00486
4946.52211,0.00630
4948.45058,0.00885
4950.37905,0.00820
4952.30752,0.01304
4954.23599,0.01613
4956.16445,0.00384
4958.09292,-0.01343
4960.02139,-0.01010
4961.94986,0.01511
4963.87833,0.02970
4965.80680,0.02844
4967.73527,0.02713
4969.66373,0.01563
4971.59220,-0.00013
4973.52067,0.00593
4975.44914,0.02382
4977.37761,0.02528
4979.30608,0.01224
4981.23455,0.00540
4983.16302,0.01177
4985.09148,0.01252
4987.01995,-0.00226
4988.94842,-0.01231
4990.87689,-0.01492
4992.80536,-0.01570
4994.73383,-0.00226
4996.66230,0.01755
4998.59076,0.02489
5000.51923,0.02304
5002.44770,0.02294
5004.37617,0.02189
5006.30464,0.01902
5008.23311,0.01544
5010.16158,0.01261
5012.09005,0.01579
5014.01851,0.01397
5015.94698,0.01205
5017.87545,0.01528
5019.80392,0.00984
5021.73239,0.00580
5023.66086,0.00754
5025.58933,0.00488
5027.51779,0.00530
5029.44626,0.01541
5031.37473,0.02151
5033.30320,0.02066
5035.23167,0.03035
5037.16014,0.03749
5039.08861,0.01938
5041.01708,0.00019
5042.94554,0.00283
5044.87401,0.01383
5046.80248,0.02133
5048.73095,0.01842
5050.65942,0.00855
5052.58789,0.00185
5054.51636,-0.00120
5056.44482,0.01094
5058.37329,0.03444
5060.30176,0.03632
5062.23023,0.02358
5064.15870,0.02779
5066.08717,0.03308
5068.01564,0.02317
5069.94410,0.01571
5071.87257,0.01811
5073.80104,0.02705
5075.72951,0.03447
5077.65798,0.03322
5079.58645,0.03005
5081.51492,0.03428
5083.44339,0.04407
5085.37185,0.04198
5087.30032,0.02360
5089.22879,0.00997
5091.15726,0.01375
5093.08573,0.03207
5095.01420,0.04968
5096.94267,0.04736
5098.87113,0.03096
5100.79960,0.02231
5102.72807,0.02806
5104.65654,0.03803
5106.58501,0.03911
5108.51348,0.02490
5110.44195,0.00535
5112.37042,-0.00159
5114.29888,0.00320
5116.22735,0.01369
5118.15582,0.03168
5120.08429,0.04662
5122.01276,0.04726
5123.94123,0.03142
5125.86970,0.00398
5127.79816,-0.01410
5129.72663,-0.00702
5131.65510,0.01672
5133.58357,0.03633
5135.51204,0.03031
5137.44051,0.00489
5139.36898,0.00008
5141.29745,0.02457
5143.22591,0.04312
5145.15438,0.05085
5147.08285,0.05822
5149.01132,0.05188
5150.93979,0.03613
5152.86826,0.02502
5154.79673,0.01635
5156.72519,0.01334
5158.65366,0.02010
5160.58213,0.02581
5162.51060,0.02481
5164.43907,0.02321
5166.36754,0.02762
5168.29601,0.03770
5170.22448,0.03880
5172.15294,0.02795
5174.08141,0.02538
5176.00988,0.03176
5177.93835,0.04154
5179.86682,0.05920
5181.79529,0.07473
5183.72376,0.07731
5185.65222,0.06152
5187.58069,0.03847
5189.50916,0.03461
5191.43763,0.04537
5193.36610,0.04747
5195.29457,0.04088
5197.22304,0.03664
5199.15151,0.03236
5201.07997,0.02144
5203.00844,0.00594
5204.93691,0.00126
5206.86538,0.01364
5208.79385,0.02084
5210.72232,0.02630
5212.65079,0.03749
5214.57925,0.04421
5216.50772,0.05274
5218.43619,0.05548
5220.36466,0.03411
5222.29313,0.01139
5224.22160,0.01579
5226.15007,0.03217
5228.07854,0.02669
5230.00700,0.00950
5231.93547,0.00640
5233.86394,0.01513
5235.79241,0.02367
5237.72088,0.02043
5239.64935,0.01449
5241.57782,0.02781
5243.50628,0.04317
5245.43475,0.04500
5247.36322,0.04583
5249.29169,0.04267
5251.22016,0.02783
5253.14863,0.00421
5255.07710,-0.01088
5257.00556,-0.00413
5258.93403,0.01232
5260.86250,0.02335
5262.79097,0.02018
5264.71944,0.01277
5266.64791,0.01966
5268.57638,0.03898
5270.50485,0.06232
5272.43331,0.08048
5274.36178,0.08536
5276.29025,0.07911
5278.21872,0.06105
5280.14719,0.03118
5282.07566,0.01400
5284.00413,0.01681
5285.93259,0.01047
5287.86106,-0.00212
5289.78953,0.00064
5291.71800,0.01262
5293.64647,0.03015
5295.57494,0.05109
5297.50341,0.05656
5299.43188,0.04236
5301.36034,0.03230
5303.28881,0.03349
5305.21728,0.03237
5307.14575,0.03185
5309.07422,0.02965
5311.00269,0.02375
5312.93116,0.03090
5314.85962,0.04482
5316.78809,0.04904
5318.71656,0.04901
5320.64503,0.04794
5322.57350,0.04451
5324.50197,0.04578
5326.43044,0.05076
5328.35891,0.04483
5330.28737,0.03824
5332.21584,0.05017
5334.14431,0.06395
5336.07278,0.06931
5338.00125,0.07831
5339.92972,0.08036
5341.85819,0.06509
5343.78665,0.04361
5345.71512,0.02608
5347.64359,0.02505
5349.57206,0.04853
5351.50053,0.08168
5353.42900,0.10060
5355.35747,0.09563
5357.28594,0.08115
5359.21440,0.06523
5361.14287,0.04843
5363.07134,0.04346
5364.99981,0.04536
5366.92828,0.03841
5368.85675,0.03785
5370.78522,0.05777
5372.71368,0.07320
5374.64215,0.05851
5376.57062,0.03509
5378.49909,0.03430
5380.42756,0.04222
5382.35603,0.04730
5384.28450,0.05976
5386.21297,0.06772
5388.14143,0.05650
5390.06990,0.04253
5391.99837,0.03800
5393.92684,0.04868
5395.85531,0.05789
5397.78378,0.05281
5399.71225,0.05510
5401.64071,0.06999
5403.56918,0.07464
5405.49765,0.06473
5407.42612,0.06196
5409.35459,0.07549
5411.28306,0.08569
5413.21153,0.06194
5415.13999,0.03100
5417.06846,0.03100
5418.99693,0.03768
5420.92540,0.03776
5422.85387,0.03290
5424.78234,0.01627
5426.71081,0.00804
5428.63928,0.02178
5430.56774,0.03775
5432.49621,0.04631
5434.42468,0.04340
5436.35315,0.04093
5438.28162,0.05428
5440.21009,0.05402
5442.13856,0.02498
5444.06702,0.01078
5445.99549,0.03828
5447.92396,0.07576
5449.85243,0.08997
5451.78090,0.10097
5453.70937,0.11078
5455.63784,0.07649
5457.56631,0.01556
5459.49477,0.00205
5461.42324,0.02700
5463.35171,0.03972
5465.28018,0.04132
5467.20865,0.06210
5469.13712,0.09825
5471.06559,0.09647
5472.99405,0.05374
5474.92252,0.03360
5476.85099,0.04580
5478.77946,0.05392
5480.70793,0.07749
5482.63640,0.12741
5484.56487,0.16157
5486.49334,0.14219
5488.42180,0.09054
5490.35027,0.05663
5492.27874,0.05330
5494.20721,0.06062
5496.13568,0.05566
5498.06415,0.04372
5499.99262,0.04295
5501.92108,0.04697
5503.84955,0.05181
5505.77802,0.06701
5507.70649,0.08073
5509.63496,0.07654
5511.56343,0.07550
5513.49190,0.09276
5515.42037,0.10053
5517.34883,0.08192
5519.27730,0.06183
5521.20577,0.06131
5523.13424,0.06533
5525.06271,0.06723
5526.99118,0.07577
5528.91965,0.07990
5530.84811,0.07776
5532.77658,0.07949
5534.70505,0.08472
5536.63352,0.08795
5538.56199,0.08755
5540.49046,0.08690
5542.41893,0.07742
5544.34740,0.06196
5546.27586,0.06257
5548.20433,0.07023
5550.13280,0.06664
5552.06127,0.07068
5553.98974,0.09308
5555.91821,0.09902
5557.84668,0.07123
5559.77514,0.05309
5561.70361,0.07089
5563.63208,0.09455
5565.56055,0.09310
5567.48902,0.07963
5569.41749,0.07492
5571.34596,0.07551
5573.27443,0.07759
5575.20289,0.07361
5577.13136,0.06493
5579.05983,0.06616
5580.98830,0.08237
5582.91677,0.09393
5584.84524,0.07617
5586.77371,0.06267
5588.70217,0.08226
5590.63064,0.09240
5592.55911,0.07265
5594.48758,0.05567
5596.41605,0.06534
5598.34452,0.09385
5600.27299,0.12043
5602.20145,0.13434
5604.12992,0.13114
5606.05839,0.10994
5607.98686,0.09195
5609.91533,0.09593
5611.84380,0.10362
5613.77227,0.10007
5615.70074,0.08904
5617.62920,0.06802
5619.55767,0.06060
5621.48614,0.08756
5623.41461,0.10103
5625.34308,0.07874
5627.27155,0.06293
5629.20002,0.06275
5631.12848,0.07158
5633.05695,0.08566
5634.98542,0.09039
5636.91389,0.08108
5638.84236,0.05462
5640.77083,0.02912
5642.69930,0.02675
5644.62777,0.02979
5646.55623,0.01764
5648.48470,0.01784
5650.41317,0.05965
5652.34164,0.10980
5654.27011,0.12568
5656.19858,0.11122
5658.12705,0.09816
5660.05551,0.09703
5661.98398,0.08431
5663.91245,0.06309
5665.84092,0.05861
5667.76939,0.07238
5669.69786,0.09190
5671.62633,0.09489
5673.55480,0.07863
5675.48326,0.07221
5677.41173,0.08135
5679.34020,0.08217
5681.26867,0.07991
5683.19714,0.09177
5685.12561,0.09816
5687.05408,0.08800
5688.98254,0.08996
5690.91101,0.09913
5692.83948,0.08415
5694.76795,0.06695
5696.69642,0.06830
5698.62489,0.07217
5700.55336,0.08174
5702.48183,0.09358
5704.41029,0.09400
5706.33876,0.09565
5708.26723,0.10007
5710.19570,0.10127
5712.12417,0.11268
5714.05264,0.12614
5715.98111,0.10889
5717.90957,0.07720
5719.83804,0.08019
5721.76651,0.10182
5723.69498,0.11555
5725.62345,0.13763
5727.55192,0.15535
5729.48039,0.14998
5731.40886,0.12936
5733.33732,0.09279
5735.26579,0.05323
5737.19426,0.04659
5739.12273,0.06784
5741.05120,0.07417
5742.97967,0.07107
5744.90814,0.07789
5746.83660,0.08683
5748.76507,0.10383
5750.69354,0.11677
5752.62201,0.09651
5754.55048,0.06544
5756.47895,0.05664
5758.40742,0.06328
5760.33588,0.07371
5762.26435,0.08998
5764.19282,0.10960
5766.12129,0.11858
5768.04976,0.10915
5769.97823,0.09670
5771.90670,0.09489
5773.83517,0.09590
5775.76363,0.09421
5777.69210,0.07969
5779.62057,0.04408
5781.54904,0.02462
5783.47751,0.04585
5785.40598,0.07782
5787.33445,0.09709
5789.26291,0.10969
5791.19138,0.11914
5793.11985,0.11776
5795.04832,0.11156
5796.97679,0.10483
5798.90526,0.10658
5800.83373,0.12126
5802.76220,0.11362
5804.69066,0.09396
5806.61913,0.10251
5808.54760,0.10957
5810.47607,0.09103
5812.40454,0.06141
5814.33301,0.02579
5816.26148,-0.00205
5818.18994,0.01424
5820.11841,0.07379
5822.04688,0.11525
5823.97535,0.11111
5825.90382,0.10981
5827.83229,0.12312
5829.76076,0.11968
5831.68923,0.12066
5833.61769,0.13629
5835.54616,0.13060
5837.47463,0.10181
5839.40310,0.06564
5841.33157,0.03322
5843.26004,0.01367
5845.18851,0.00704
5847.11697,0.01497
5849.04544,0.03134
5850.97391,0.04274
5852.90238,0.05165
5854.83085,0.06186
5856.75932,0.06985
5858.68779,0.08726
5860.61626,0.10802
5862.54472,0.09651
5864.47319,0.07599
5866.40166,0.07862
5868.33013,0.08048
5870.25860,0.08681
5872.18707,0.10890
5874.11554,0.12361
5876.04400,0.10133
5877.97247,0.04541
5879.90094,0.00796
5881.82941,0.01813
5883.75788,0.04622
5885.68635,0.06477
5887.61482,0.08079
5889.54329,0.08963
5891.47175,0.07689
5893.40022,0.06497
5895.32869,0.08003
5897.25716,0.10556
5899.18563,0.10691
5901.11410,0.08311
5903.04257,0.05992
5904.97103,0.06026
5906.89950,0.09316
5908.82797,0.13062
5910.75644,0.12076
5912.68491,0.08237
5914.61338,0.07054
5916.54185,0.07074
5918.47032,0.06418
5920.39878,0.07671
5922.32725,0.09739
5924.25572,0.08235
5926.18419,0.03633
5928.11266,0.00282
5930.04113,0.00149
5931.96960,0.02755
5933.89806,0.06226
5935.82653,0.07934
5937.75500,0.06801
5939.68347,0.04621
5941.61194,0.03503
5943.54041,0.02824
5945.46888,0.02284
5947.39734,0.02447
5949.32581,0.02893
5951.25428,0.05080
5953.18275,0.09700
5955.11122,0.13066
5957.03969,0.12355
5958.96816,0.08666
5960.89663,0.06119
5962.82509,0.06867
5964.75356,0.08344
5966.68203,0.09804
5968.61050,0.12754
5970.53897,0.14901
5972.46744,0.12795
5974.39591,0.08412
5976.32437,0.05531
5978.25284,0.04506
5980.18131,0.04229
5982.10978,0.03819
5984.03825,0.05276
5985.96672,0.10359
5987.89519,0.13783
5989.82366,0.10741
5991.75212,0.06027
5993.68059,0.05135
5995.60906,0.05765
5997.53753,0.06106
5999.46600,0.07259
6001.39447,0.09264
6003.32294,0.11430
6005.25140,0.10792
6007.17987,0.07346
6009.10834,0.05383
6011.03681,0.08134
6012.96528,0.13372
6014.89375,0.14556
6016.82222,0.11778
6018.75069,0.11580
6020.67915,0.14046
6022.60762,0.13987
6024.53609,0.10311
6026.46456,0.06276
6028.39303,0.06389
6030.32150,0.09077
6032.24997,0.09079
6034.17843,0.06672
6036.10690,0.02784
6038.03537,-0.00095
6039.96384,0.00952
6041.89231,0.03891
6043.82078,0.06352
6045.74925,0.06931
6047.67772,0.07005
6049.60618,0.08461
6051.53465,0.09532
6053.46312,0.09783
6055.39159,0.10190
6057.32006,0.11618
6059.24853,0.13852
6061.17700,0.12953
6063.10546,0.08598
6065.03393,0.06840
6066.96240,0.08722
6068.89087,0.10001
6070.81934,0.09221
6072.74781,0.07529
6074.67628,0.05638
6076.60475,0.04456
6078.53321,0.04086
6080.46168,0.04163
6082.39015,0.05289
6084.31862,0.07198
6086.24709,0.09358
6088.17556,0.11301
6090.10403,0.11096
6092.03249,0.08579
6093.96096,0.03738
6095.88943,-0.02382
6097.81790,-0.04916
6099.74637,-0.03990
6101.67484,-0.02611
6103.60331,-0.01135
6105.53177,0.00433
6107.46024,0.04405
6109.38871,0.08088
6111.31718,0.05240
6113.24565,0.01872
6115.17412,0.03809
6117.10259,0.07154
6119.03106,0.07323
6120.95952,0.02983
6122.88799,-0.01247
6124.81646,-0.00344
6126.74493,0.02549
6128.67340,0.02094
6130.60187,0.02071
6132.53034,0.07417
6134.45880,0.12653
6136.38727,0.10687
6138.31574,0.06533
6140.24421,0.10312
6142.17268,0.15764
6144.10115,0.11359
6146.02962,0.05983
6147.95809,0.07579
6149.88655,0.10055
6151.81502,0.10668
6153.74349,0.09680
6155.67196,0.05420
6157.60043,0.02240
6159.52890,0.02326
6161.45737,0.02607
6163.38583,0.04153
6165.31430,0.06442
6167.24277,0.06814
6169.17124,0.06346
6171.09971,0.06000
6173.02818,0.07092
6174.95665,0.09936
6176.88512,0.09952
6178.81358,0.06831
6180.74205,0.05484
6182.67052,0.04188
6184.59899,0.03450
6186.52746,0.06893
6188.45593,0.08304
6190.38440,0.04971
6192.31286,0.04242
6194.24133,0.04598
6196.16980,0.00122
6198.09827,-0.05441
6200.02674,-0.04137
6201.95521,0.02628
6203.88368,0.05434
6205.81215,0.02472
6207.74061,0.02966
6209.66908,0.08039
6211.59755,0.08430
6213.52602,0.03285
6215.45449,0.00812
6217.38296,0.04370
6219.31143,0.09446
6221.23989,0.11645
6223.16836,0.11326
6225.09683,0.10199
6227.02530,0.10427
6228.95377,0.13390
6230.88224,0.14707
6232.81071,0.10514
6234.73918,0.06074
6236.66764,0.08688
6238.59611,0.18032
6240.52458,0.24042
6242.45305,0.18832
6244.38152,0.11781
6246.30999,0.14552
6248.23846,0.20159
6250.16692,0.19165
6252.09539,0.14350
6254.02386,0.11466
6255.95233,0.13720
6257.88080,0.17577
6259.80927,0.16851
6261.73774,0.11854
6263.66621,0.06103
6265.59467,0.03226
6267.52314,0.00664
6269.45161,-0.03529
6271.38008,-0.04479
6273.30855,-0.00950
6275.23702,0.03822
6277.16549,0.05896
6279.09395,0.05330
6281.02242,0.04234
6282.95089,0.00307
6284.87936,-0.06036
6286.80783,-0.07749
6288.73630,-0.01736
6290.66477,0.04628
6292.59323,0.05695
6294.52170,0.07620
6296.45017,0.12548
6298.37864,0.16639
6300.30711,0.15570
6302.23558,0.09243
6304.16405,0.08062
6306.09252,0.11130
6308.02098,0.11257
6309.94945,0.12902
6311.87792,0.14128
6313.80639,0.09483
6315.73486,0.06085
6317.66333,0.08362
6319.59180,0.13726
6321.52026,0.20899
6323.44873,0.24631
6325.37720,0.22204
6327.30567,0.19599
6329.23414,0.19530
6331.16261,0.16862
6333.09108,0.07912
6335.01955,-0.00275
6336.94801,0.01025
6338.87648,0.06685
6340.80495,0.06768
6342.73342,0.04386
6344.66189,0.07438
6346.59036,0.11861
6348.51883,0.09827
6350.44729,0.06760
6352.37576,0.08687
6354.30423,0.10708
6356.23270,0.09511
6358.16117,0.06197
6360.08964,0.01971
6362.01811,-0.03691
6363.94658,-0.08026
6365.87504,-0.05325
6367.80351,0.02824
6369.73198,0.10431
6371.66045,0.12708
6373.58892,0.09540
6375.51739,0.06467
6377.44586,0.05261
6379.37432,0.05325
6381.30279,0.03251
6383.23126,-0.01837
6385.15973,0.00686
6387.08820,0.08999
6389.01667,0.09419
6390.94514,0.05972
6392.87361,0.09232
6394.80207,0.13464
6396.73054,0.15148
6398.65901,0.17493
6400.58748,0.15332
6402.51595,0.06609
6404.44442,-0.00365
6406.37289,-0.02321
6408.30135,-0.02833
6410.22982,-0.01170
6412.15829,0.02983
6414.08676,0.06118
6416.01523,0.08346
6417.94370,0.10520
6419.87217,0.10964
6421.80064,0.08924
6423.72910,0.06647
6425.65757,0.07885
6427.58604,0.11370
6429.51451,0.13480
6431.44298,0.12272
6433.37145,0.07751
6435.29992,0.04972
6437.22838,0.07709
6439.15685,0.15525
6441.08532,0.22218
6443.01379,0.20238
6444.94226,0.10688
6446.87073,0.01895
6448.79920,-0.02711
6450.72766,-0.03433
6452.65613,0.01315
6454.58460,0.08392
6456.51307,0.10195
6458.44154,0.08554
6460.37001,0.09958
6462.29848,0.10539
6464.22695,0.04120
6466.15541,-0.02895
6468.08388,-0.01836
6470.01235,0.00782
6471.94082,-0.02716
6473.86929,-0.05602
6475.79776,-0.04730
6477.72623,-0.01076
6479.65469,0.10369
6481.58316,0.20319
6483.51163,0.15566
6485.44010,0.07384
6487.36857,0.07439
6489.29704,0.12595
6491.22551,0.14738
6493.15398,0.10256
6495.08244,0.03157
6497.01091,-0.01922
6498.93938,-0.00808
6500.86785,0.05971
6502.79632,0.07752
6504.72479,0.03393
6506.65326,0.01934
6508.58172,0.05301
6510.51019,0.09670
6512.43866,0.10463
6514.36713,0.08305
6516.29560,0.08579
6518.22407,0.10916
6520.15254,0.10719
6522.08101,0.07657
6524.00947,0.05083
6525.93794,0.06677
6527.86641,0.08985
6529.79488,0.06926
6531.72335,0.05253
6533.65182,0.05374
6535.58029,0.03090
6537.50875,0.02964
6539.43722,0.08369
6541.36569,0.13968
6543.29416,0.16356
6545.22263,0.18151
6547.15110,0.23102
6549.07957,0.24774
6551.00804,0.12344
6552.93650,-0.02163
6554.86497,-0.00159
6556.79344,0.11046
6558.72191,0.13049
6560.65038,0.05950
6562.57885,0.01852
6564.50732,0.02970
6566.43578,0.06883
6568.36425,0.09997
6570.29272,0.08868
6572.22119,0.07413
6574.14966,0.10148
6576.07813,0.14284
6578.00660,0.15516
6579.93507,0.13945
6581.86353,0.10400
6583.79200,0.06663
6585.72047,0.03365
6587.64894,0.00772
6589.57741,0.04048
6591.50588,0.09768
6593.43435,0.09843
6595.36281,0.07498
6597.29128,0.06583
6599.21975,0.05688
6601.14822,0.06188
6603.07669,0.07621
6605.00516,0.08604
6606.93363,0.09434
6608.86210,0.09919
6610.79056,0.07445
6612.71903,0.02909
6614.64750,0.03555
6616.57597,0.06976
6618.50444,0.09376
6620.43291,0.11449
6622.36138,0.07381
6624.28984,-0.02724
6626.21831,-0.12090
6628.14678,-0.17465
6630.07525,-0.15754
6632.00372,-0.05343
6633.93219,0.11491
6635.86066,0.23851
6637.78912,0.19678
6639.71759,0.07922
6641.64606,0.00116
6643.57453,-0.04339
6645.50300,-0.06004
6647.43147,-0.00836
6649.35994,0.06800
6651.28841,0.12694
6653.21687,0.18029
6655.14534,0.17425
6657.07381,0.11087
6659.00228,0.11130
6660.93075,0.17262
6662.85922,0.23280
6664.78769,0.25859
6666.71615,0.19872
6668.64462,0.07604
6670.57309,0.01899
6672.50156,0.10273
6674.43003,0.17856
6676.35850,0.07449
6678.28697,-0.06849
6680.21544,-0.06860
6682.14390,-0.00882
6684.07237,0.02158
6686.00084,0.04984
6687.92931,0.09452
6689.85778,0.12766
6691.78625,0.11985
6693.71472,0.07533
6695.64318,0.02709
6697.57165,0.05102
6699.50012,0.12011
6701.42859,0.13399
6703.35706,0.09347
6705.28553,0.05162
6707.21400,0.05127
6709.14247,0.07450
6711.07093,0.06190
6712.99940,0.02327
6714.92787,0.01092
6716.85634,0.03836
6718.78481,0.06580
6720.71328,0.02730
6722.64175,-0.06716
6724.57021,-0.10705
6726.49868,-0.08507
6728.42715,-0.07713
6730.35562,-0.06378
6732.28409,0.01510
6734.21256,0.10947
6736.14103,0.14654
6738.06950,0.12026
6739.99796,0.03512
6741.92643,-0.05157
6743.85490,-0.03765
6745.78337,0.04650
6747.71184,0.09930
6749.64031,0.12150
6751.56878,0.13099
6753.49724,0.03480
6755.42571,-0.11585
6757.35418,-0.13613
6759.28265,-0.03176
6761.21112,0.04268
6763.13959,0.04455
6765.06806,0.01497
6766.99653,0.02148
6768.92499,0.13096
6770.85346,0.24948
6772.78193,0.26417
6774.71040,0.19033
6776.63887,0.11351
6778.56734,0.10649
6780.49581,0.11112
6782.42427,0.03914
6784.35274,-0.02908
6786.28121,0.04017
6788.20968,0.14941
6790.13815,0.17676
6792.06662,0.16383
6793.99509,0.11312
6795.92355,0.04473
6797.85202,0.07128
6799.78049,0.14988
6801.70896,0.14539
6803.63743,0.07785
6805.56590,0.04421
6807.49437,0.06183
6809.42284,0.12857
6811.35130,0.17917
6813.27977,0.13753
6815.20824,0.06950
6817.13671,0.01947
6819.06518,-0.02492
6820.99365,-0.04869
6822.92212,-0.04170
6824.85058,0.00818
6826.77905,0.07636
6828.70752,0.07751
6830.63599,0.01417
6832.56446,-0.02079
6834.49293,-0.07934
6836.42140,-0.19151
6838.34987,-0.20574
6840.27833,-0.08703
6842.20680,0.06364
6844.13527,0.20190
6846.06374,0.30766
6847.99221,0.34093
6849.92068,0.29768
6851.84915,0.18057
6853.77761,0.05154
6855.70608,0.03818
6857.63455,0.08381
6859.56302,0.08517
6861.49149,0.07664
6863.41996,0.05486
6865.34843,0.03509
6867.27690,0.03292
6869.20536,0.01295
6871.13383,-0.03902
6873.06230,-0.08702
6874.99077,-0.09200
6876.91924,-0.09043
6878.84771,-0.06470
6880.77618,0.05423
6882.70464,0.19180
6884.63311,0.24729
6886.56158,0.22284
6888.49005,0.15848
6890.41852,0.06869
6892.34699,-0.00610
6894.27546,-0.03051
6896.20393,-0.04273
6898.13239,-0.06061
6900.06086,-0.04745
6901.98933,-0.00689
6903.91780,0.02782
6905.84627,0.10527
6907.77474,0.20391
6909.70321,0.23038
6911.63167,0.22938
6913.56014,0.20998
6915.48861,0.13777
6917.41708,0.08035
6919.34555,0.10504
6921.27402,0.14111
6923.20249,0.10843
6925.13096,0.09802
6927.05942,0.10385
6928.98789,0.03999
6930.91636,0.00424
6932.84483,0.05752
6934.77330,0.10332
6936.70177,0.10514
6938.63024,0.03647
6940.55870,-0.04483
6942.48717,-0.03769
6944.41564,-0.01244
6946.34411,0.02713
6948.27258,0.08563
6950.20105,0.06399
6952.12952,-0.02414
6954.05799,-0.10493
6955.98645,-0.11981
6957.91492,-0.01864
6959.84339,0.11157
6961.77186,0.19514
6963.70033,0.25503
6965.62880,0.26316
6967.55727,0.23364
6969.48573,0.26382
6971.41420,0.26644
6973.34267,0.14264
6975.27114,0.00634
6977.19961,-0.03596
6979.12808,-0.00169
6981.05655,0.05330
6982.98501,0.14390
6984.91348,0.20210
6986.84195,0.16755
6988.77042,0.17503
6990.69889,0.14827
6992.62736,0.04268
6994.55583,0.06616
6996.48430,0.15867
6998.41276,0.03641
7000.34123,-0.15062
7002.26970,-0.08871
7004.19817,0.07470
7006.12664,0.09422
7008.05511,-0.02242
7009.98358,-0.10458
7011.91204,-0.15041
7013.84051,-0.15770
7015.76898,-0.06387
7017.69745,0.03329
7019.62592,0.03865
7021.55439,0.03502
7023.48286,0.09780
7025.41133,0.19992
7027.33979,0.33626
7029.26826,0.40301
7031.19673,0.29743
7033.12520,0.16004
7035.05367,0.05068
7036.98214,-0.05807
7038.91061,-0.12723
7040.83907,-0.11198
7042.76754,0.00685
7044.69601,0.10498
7046.62448,0.07137
7048.55295,-0.01888
7050.48142,-0.04108
7052.40989,-0.00426
7054.33836,0.01230
7056.26682,0.07734
7058.19529,0.24642
7060.12376,0.34148
7062.05223,0.32776
7063.98070,0.29073
7065.90917,0.23611
7067.83764,0.14612
7069.76610,0.05381
7071.69457,0.00862
7073.62304,0.02259
7075.55151,0.11175
7077.47998,0.20927
7079.40845,0.22438
7081.33692,0.16248
7083.26539,0.06960
7085.19385,-0.00766
7087.12232,-0.03698
7089.05079,-0.07762
7090.97926,-0.12940
7092.90773,-0.12317
7094.83620,-0.12486
7096.76467,-0.14249
7098.69313,-0.01888
7100.62160,0.18200
7102.55007,0.26679
7104.47854,0.27563
7106.40701,0.28135
7108.33548,0.26045
7110.26395,0.22726
7112.19242,0.23101
7114.12088,0.25164
7116.04935,0.20129
7117.97782,0.03839
7119.90629,-0.11876
7121.83476,-0.12606
7123.76323,-0.04486
7125.69170,-0.03974
7127.62016,-0.09063
7129.54863,-0.06219
7131.47710,0.01924
7133.40557,0.02668
7135.33404,-0.00478
7137.26251,0.05559
7139.19098,0.22095
7141.11944,0.34607
7143.04791,0.33003
7144.97638,0.32430
7146.90485,0.41778
7148.83332,0.40590
7150.76179,0.25041
7152.69026,0.06328
7154.61873,-0.04138
7156.54719,0.06367
7158.47566,0.22915
7160.40413,0.22022
7162.33260,0.14919
7164.26107,0.17859
7166.18954,0.22638
7168.11801,0.23984
7170.04647,0.17875
7171.97494,-0.02112
7173.90341,-0.17048
7175.83188,-0.04483
7177.76035,0.23634
7179.68882,0.33194
7181.61729,0.13408
7183.54576,-0.15883
7185.47422,-0.28218
7187.40269,-0.30067
7189.33116,-0.26341
7191.25963,-0.11652
7193.18810,0.06952
7195.11657,0.10383
7197.04504,-0.03632
7198.97350,-0.12435
7200.90197,-0.06418
7202.83044,0.00916
7204.75891,0.04709
7206.68738,0.13348
7208.61585,0.22917
7210.54432,0.27756
7212.47279,0.27056
7214.40125,0.24181
7216.32972,0.23705
7218.25819,0.28653
7220.18666,0.31314
7222.11513,0.25107
7224.04360,0.17645
7225.97207,0.13468
7227.90053,0.14553
7229.82900,0.23300
7231.75747,0.23764
7233.68594,0.06334
7235.61441,-0.03619
7237.54288,0.02616
7239.47135,0.00051
7241.39982,-0.16276
7243.32828,-0.17889
7245.25675,-0.04807
7247.18522,-0.02035
7249.11369,-0.11242
7251.04216,-0.22110
7252.97063,-0.22156
7254.89910,-0.05563
7256.82756,0.09902
7258.75603,0.09195
7260.68450,-0.08006
7262.61297,-0.14781
7264.54144,-0.01880
7266.46991,0.10926
7268.39838,0.17068
7270.32685,0.09420
7272.25531,-0.13126
7274.18378,-0.17287
7276.11225,0.04413
7278.04072,0.26988
7279.96919,0.29157
7281.89766,0.19172
7283.82613,0.13911
7285.75459,0.09517
7287.68306,0.10182
7289.61153,0.15219
7291.54000,0.03891
7293.46847,-0.13943
7295.39694,-0.08456
7297.32541,0.02955
7299.25387,0.05298
7301.18234,0.05612
7303.11081,0.01281
7305.03928,-0.00066
7306.96775,0.09873
7308.89622,0.08927
7310.82469,-0.00535
7312.75316,0.03666
7314.68162,0.10391
7316.61009,0.08536
7318.53856,-0.01891
7320.46703,-0.08308
7322.39550,-0.04710
7324.32397,0.03539
7326.25244,0.10085
7328.18090,0.09622
7330.10937,0.06738
7332.03784,0.09928
7333.96631,0.15355
7335.89478,0.20068
7337.82325,0.26652
7339.75172,0.33586
7341.68019,0.21290
7343.60865,0.05846
7345.53712,0.14889
7347.46559,0.30535
7349.39406,0.26275
7351.32253,0.23318
7353.25100,0.30935
7355.17947,0.33889
7357.10793,0.30967
7359.03640,0.23100
7360.96487,0.04333
7362.89334,-0.13547
7364.82181,-0.16693
7366.75028,-0.04111
7368.67875,0.12406
7370.60722,0.17005
7372.53568,0.13447
7374.46415,0.13008
7376.39262,0.22291
7378.32109,0.29260
7380.24956,0.27285
7382.17803,0.16891
7384.10650,-0.01092
7386.03496,-0.17431
7387.96343,-0.19365
7389.89190,-0.11496
7391.82037,-0.03838
7393.74884,0.08664
7395.67731,0.20039
7397.60578,0.16649
7399.53425,0.08809
7401.46271,0.00827
7403.39118,-0.09066
7405.31965,-0.15667
7407.24812,-0.18461
7409.17659,-0.13785
7411.10506,-0.01099
7413.03353,0.07273
7414.96199,0.09539
7416.89046,0.20601
7418.81893,0.44549
7420.74740,0.44901
7422.67587,0.20996
7424.60434,0.06804
7426.53281,0.07335
7428.46128,0.09809
7430.38974,0.09568
7432.31821,0.16441
7434.24668,0.22489
7436.17515,0.12414
7438.10362,0.01312
7440.03209,0.08442
7441.96056,0.18000
7443.88902,0.10230
7445.81749,-0.05189
7447.74596,-0.12702
7449.67443,-0.03834
7451.60290,0.18633
7453.53137,0.32720
7455.45984,0.32236
7457.38831,0.25666
7459.31677,0.14634
7461.24524,0.10068
7463.17371,0.17606
7465.10218,0.16628
7467.03065,0.05288
7468.95912,-0.04189
7470.88759,-0.18910
7472.81605,-0.27002
7474.74452,-0.10437
7476.67299,0.11192
7478.60146,0.10319
7480.52993,-0.05644
7482.45840,-0.08598
7484.38687,-0.01886
7486.31533,-0.01592
7488.24380,-0.04336
7490.17227,0.00230
7492.10074,0.07303
7494.02921,0.05761
7495.95768,-0.05853
7497.88615,-0.15750
