399.19301,-0.03011
401.12148,0.37227
403.04995,0.55971
404.97842,0.55975
406.90689,0.41799
408.83536,0.17976
410.76382,-0.01744
412.69229,-0.08976
414.62076,0.00521
416.54923,0.29475
418.47770,0.60864
420.40617,0.53024
422.33464,0.33060
424.26311,0.23144
426.19157,0.13200
428.12004,0.05092
430.04851,0.03230
431.97698,0.04030
433.90545,0.03933
435.83392,0.03188
437.76239,0.00153
439.69085,-0.00892
441.61932,0.03755
443.54779,0.07278
445.47626,0.07124
447.40473,0.05456
449.33320,0.00594
451.26167,-0.02365
453.19013,0.00223
455.11860,0.05380
457.04707,0.13336
458.97554,0.16625
460.90401,0.07076
462.83248,-0.02198
464.76095,-0.02015
466.68942,0.02176
468.61788,0.07797
470.54635,0.16943
472.47482,0.28985
474.40329,0.27313
476.33176,0.12083
478.26023,0.06899
480.18870,0.05943
482.11716,0.03091
484.04563,0.03746
485.97410,0.09917
487.90257,0.17953
489.83104,0.23180
491.75951,0.21393
493.68798,0.17633
495.61645,0.16482
497.54491,0.14001
499.47338,0.10691
501.40185,0.09065
503.33032,0.09169
505.25879,0.11184
507.18726,0.10192
509.11573,0.06644
511.04419,0.08155
512.97266,0.11935
514.90113,0.11695
516.82960,0.07559
518.75807,0.05179
520.68654,0.09301
522.61501,0.15171
524.54348,0.14286
526.47194,0.09861
528.40041,0.11998
530.32888,0.16516
532.25735,0.16490
534.18582,0.14750
536.11429,0.14157
538.04276,0.14191
539.97122,0.14053
541.89969,0.13653
543.82816,0.12575
545.75663,0.10781
547.68510,0.12070
549.61357,0.18267
551.54204,0.28267
553.47051,0.34173
555.39897,0.27370
557.32744,0.18152
559.25591,0.16297
561.18438,0.14907
563.11285,0.11566
565.04132,0.07858
566.96979,0.02843
568.89825,0.01625
570.82672,0.06534
572.75519,0.10290
574.68366,0.10178
576.61213,0.10314
578.54060,0.12305
580.46907,0.15172
582.39754,0.16299
584.32600,0.13524
586.25447,0.09495
588.18294,0.09156
590.11141,0.13120
592.03988,0.15056
593.96835,0.09752
595.89682,0.03262
597.82528,0.03135
599.75375,0.07475
601.68222,0.11026
603.61069,0.13382
605.53916,0.14999
607.46763,0.14678
609.39610,0.13105
611.32456,0.12185
613.25303,0.13040
615.18150,0.13640
617.10997,0.12329
619.03844,0.11148
620.96691,0.10984
622.89538,0.11259
624.82385,0.11683
626.75231,0.11501
628.68078,0.10932
630.60925,0.11447
632.53772,0.12511
634.46619,0.12475
636.39466,0.12119
638.32313,0.12750
640.25159,0.13736
642.18006,0.13475
644.10853,0.12258
646.03700,0.11951
647.96547,0.13442
649.89394,0.15021
651.82241,0.15041
653.75088,0.15090
655.67934,0.15688
657.60781,0.15057
659.53628,0.13844
661.46475,0.14728
663.39322,0.16460
665.32169,0.15802
667.25016,0.13350
669.17862,0.12268
671.10709,0.11759
673.03556,0.12005
674.96403,0.13897
676.89250,0.14434
678.82097,0.12608
680.74944,0.11360
682.67791,0.12228
684.60637,0.14587
686.53484,0.16557
688.46331,0.16472
690.39178,0.15475
692.32025,0.15080
694.24872,0.14968
696.17719,0.14252
698.10565,0.12878
700.03412,0.11661
701.96259,0.11300
703.89106,0.12007
705.81953,0.12427
707.74800,0.13133
709.67647,0.16594
711.60494,0.20129
713.53340,0.19627
715.46187,0.16702
717.39034,0.15421
719.31881,0.16249
721.24728,0.16863
723.17575,0.16053
725.10422,0.14775
727.03268,0.14114
728.96115,0.14103
730.88962,0.14618
732.81809,0.14877
734.74656,0.14134
736.67503,0.13007
738.60350,0.11895
740.53197,0.11438
742.46043,0.12723
744.38890,0.14505
746.31737,0.14828
748.24584,0.14165
750.17431,0.13248
752.10278,0.12807
754.03125,0.13444
755.95971,0.14330
757.88818,0.14772
759.81665,0.14588
761.74512,0.14108
763.67359,0.14305
765.60206,0.15233
767.53053,0.15257
769.45900,0.14097
771.38746,0.13301
773.31593,0.13360
775.24440,0.14042
777.17287,0.14322
779.10134,0.13715
781.02981,0.13400
782.95828,0.13771
784.88674,0.14048
786.81521,0.13587
788.74368,0.13438
790.67215,0.14712
792.60062,0.16160
794.52909,0.16080
796.45756,0.14597
798.38602,0.13625
800.31449,0.13845
802.24296,0.13815
804.17143,0.13659
806.09990,0.14371
808.02837,0.14527
809.95684,0.13354
811.88531,0.13019
813.81377,0.14258
815.74224,0.14832
817.67071,0.13694
819.59918,0.11987
821.52765,0.10920
823.45612,0.11143
825.38459,0.12459
827.31305,0.13958
829.24152,0.14673
831.16999,0.14750
833.09846,0.14802
835.02693,0.14222
836.95540,0.13103
838.88387,0.12886
840.81234,0.13713
842.74080,0.14383
844.66927,0.14384
846.59774,0.14536
848.52621,0.14969
850.45468,0.15226
852.38315,0.15875
854.31162,0.16373
856.24008,0.15130
858.16855,0.13831
860.09702,0.15053
862.02549,0.16579
863.95396,0.15792
865.88243,0.14236
867.81090,0.13316
869.73937,0.13301
871.66783,0.14547
873.59630,0.15429
875.52477,0.14581
877.45324,0.13395
879.38171,0.13092
881.31018,0.13331
883.23865,0.13567
885.16711,0.13847
887.09558,0.14251
889.02405,0.14527
890.95252,0.14663
892.88099,0.14566
894.80946,0.14014
896.73793,0.13633
898.66640,0.13628
900.59486,0.13203
902.52333,0.13038
904.45180,0.13694
906.38027,0.13863
908.30874,0.13234
910.23721,0.12835
912.16568,0.13345
914.09414,0.14296
916.02261,0.14971
917.95108,0.15439
919.87955,0.15553
921.80802,0.14879
923.73649,0.13779
925.66496,0.13172
927.59343,0.13387
929.52189,0.13898
931.45036,0.14123
933.37883,0.14062
935.30730,0.14001
937.23577,0.14030
939.16424,0.13986
941.09271,0.13834
943.02117,0.13763
944.94964,0.13654
946.87811,0.13738
948.80658,0.14186
950.73505,0.14076
952.66352,0.13762
954.59199,0.14549
956.52045,0.15473
958.44892,0.15167
960.37739,0.14445
962.30586,0.14358
964.23433,0.14475
966.16280,0.14521
968.09127,0.15247
970.01974,0.16222
971.94820,0.16247
973.87667,0.15759
975.80514,0.15793
977.73361,0.16361
979.66208,0.16673
981.59055,0.16281
983.51902,0.15819
985.44748,0.15666
987.37595,0.15625
989.30442,0.15703
991.23289,0.15850
993.16136,0.16167
995.08983,0.16353
997.01830,0.15715
998.94677,0.14867
1000.87523,0.14773
1002.80370,0.15385
1004.73217,0.16066
1006.66064,0.15913
1008.58911,0.15252
1010.51758,0.15289
1012.44605,0.15406
1014.37451,0.14955
1016.30298,0.14823
1018.23145,0.15250
1020.15992,0.15625
1022.08839,0.14944
1024.01686,0.13131
1025.94533,0.12178
1027.87380,0.13061
1029.80226,0.14058
1031.73073,0.14051
1033.65920,0.14278
1035.58767,0.15224
1037.51614,0.15808
1039.44461,0.15772
1041.37308,0.15743
1043.30154,0.15851
1045.23001,0.15818
1047.15848,0.15472
1049.08695,0.15154
1051.01542,0.15592
1052.94389,0.16266
1054.87236,0.16207
1056.80083,0.16044
1058.72929,0.16586
1060.65776,0.17788
1062.58623,0.19026
1064.51470,0.19181
1066.44317,0.18115
1068.37164,0.17036
1070.30011,0.16595
1072.22857,0.16595
1074.15704,0.16689
1076.08551,0.16663
1078.01398,0.16772
1079.94245,0.17041
1081.87092,0.16790
1083.79939,0.15962
1085.72786,0.15760
1087.65632,0.16552
1089.58479,0.17295
1091.51326,0.17408
1093.44173,0.17032
1095.37020,0.16901
1097.29867,0.17551
1099.22714,0.18216
1101.15560,0.17987
1103.08407,0.17063
1105.01254,0.16216
1106.94101,0.15913
1108.86948,0.16376
1110.79795,0.17373
1112.72642,0.17998
1114.65489,0.17419
1116.58335,0.16179
1118.51182,0.16146
1120.44029,0.17302
1122.36876,0.17443
1124.29723,0.16309
1126.22570,0.15646
1128.15417,0.15846
1130.08263,0.15736
1132.01110,0.15131
1133.93957,0.14859
1135.86804,0.15030
1137.79651,0.15279
1139.72498,0.15501
1141.65345,0.15865
1143.58191,0.16158
1145.51038,0.15976
1147.43885,0.15724
1149.36732,0.15629
1151.29579,0.15343
1153.22426,0.15065
1155.15273,0.15376
1157.08120,0.16111
1159.00966,0.16597
1160.93813,0.16929
1162.86660,0.17211
1164.79507,0.16908
1166.72354,0.16456
1168.65201,0.16677
1170.58048,0.17177
1172.50894,0.17238
1174.43741,0.16707
1176.36588,0.16148
1178.29435,0.16153
1180.22282,0.16552
1182.15129,0.17006
1184.07976,0.17206
1186.00823,0.16937
1187.93669,0.16472
1189.86516,0.16160
1191.79363,0.16125
1193.72210,0.16464
1195.65057,0.16850
1197.57904,0.16939
1199.50751,0.17057
1201.43597,0.17118
1203.36444,0.16924
1205.29291,0.16898
1207.22138,0.16962
1209.14985,0.16740
1211.07832,0.16197
1213.00679,0.15732
1214.93526,0.15851
1216.86372,0.16308
1218.79219,0.16705
1220.72066,0.16887
1222.64913,0.16711
1224.57760,0.16283
1226.50607,0.15805
1228.43454,0.15607
1230.36300,0.15961
1232.29147,0.16704
1234.21994,0.17069
1236.14841,0.16523
1238.07688,0.15988
1240.00535,0.16403
1241.93382,0.17307
1243.86229,0.17694
1245.79075,0.17255
1247.71922,0.16640
1249.64769,0.16251
1251.57616,0.15869
1253.50463,0.15707
1255.43310,0.16065
1257.36157,0.16197
1259.29003,0.15709
1261.21850,0.15745
1263.14697,0.16637
1265.07544,0.17189
1267.00391,0.16787
1268.93238,0.16206
1270.86085,0.16438
1272.78932,0.17128
1274.71778,0.17325
1276.64625,0.17000
1278.57472,0.16548
1280.50319,0.16276
1282.43166,0.16478
1284.36013,0.16905
1286.28860,0.16969
1288.21706,0.16794
1290.14553,0.16796
1292.07400,0.16831
1294.00247,0.16614
1295.93094,0.16063
1297.85941,0.15425
1299.78788,0.15056
1301.71634,0.14576
1303.64481,0.13915
1305.57328,0.14258
1307.50175,0.15684
1309.43022,0.16873
1311.35869,0.17483
1313.28716,0.17841
1315.21563,0.18095
1317.14409,0.18235
1319.07256,0.17722
1321.00103,0.16851
1322.92950,0.16839
1324.85797,0.17232
1326.78644,0.17016
1328.71491,0.16466
1330.64337,0.16068
1332.57184,0.16359
1334.50031,0.17218
1336.42878,0.17858
1338.35725,0.18167
1340.28572,0.17944
1342.21419,0.17826
1344.14266,0.18448
1346.07112,0.18438
1347.99959,0.17473
1349.92806,0.16860
1351.85653,0.16700
1353.78500,0.16499
1355.71347,0.16451
1357.64194,0.16835
1359.57040,0.17427
1361.49887,0.17729
1363.42734,0.17466
1365.35581,0.17277
1367.28428,0.17432
1369.21275,0.17524
1371.14122,0.17828
1373.06969,0.18323
1374.99815,0.18338
1376.92662,0.18011
1378.85509,0.17620
1380.78356,0.17191
1382.71203,0.17150
1384.64050,0.17764
1386.56897,0.18564
1388.49743,0.18608
1390.42590,0.18184
1392.35437,0.18229
1394.28284,0.18532
1396.21131,0.18797
1398.13978,0.19256
1400.06825,0.19130
1401.99672,0.18366
1403.92518,0.17976
1405.85365,0.18132
1407.78212,0.18305
1409.71059,0.18356
1411.63906,0.18272
1413.56753,0.18195
1415.49600,0.18937
1417.42446,0.20551
1419.35293,0.20982
1421.28140,0.20082
1423.20987,0.19757
1425.13834,0.19661
1427.06681,0.19592
1428.99528,0.19464
1430.92375,0.18627
1432.85221,0.17808
1434.78068,0.18078
1436.70915,0.19016
1438.63762,0.18920
1440.56609,0.18069
1442.49456,0.17686
1444.42303,0.18120
1446.35149,0.18772
1448.27996,0.18883
1450.20843,0.18728
1452.13690,0.19175
1454.06537,0.20429
1455.99384,0.22141
1457.92231,0.22422
1459.85077,0.20907
1461.77924,0.19920
1463.70771,0.19663
1465.63618,0.19628
1467.56465,0.19227
1469.49312,0.18777
1471.42159,0.18939
1473.35006,0.19603
1475.27852,0.19613
1477.20699,0.19317
1479.13546,0.19173
1481.06393,0.18995
1482.99240,0.18891
1484.92087,0.19239
1486.84934,0.20121
1488.77780,0.20910
1490.70627,0.20333
1492.63474,0.19431
1494.56321,0.19731
1496.49168,0.20832
1498.42015,0.20845
1500.34862,0.20057
1502.27709,0.20051
1504.20555,0.21147
1506.13402,0.23613
1508.06249,0.24834
1509.99096,0.23253
1511.91943,0.21585
1513.84790,0.20944
1515.77637,0.21830
1517.70483,0.23243
1519.63330,0.23925
1521.56177,0.23332
1523.49024,0.21429
1525.41871,0.20135
1527.34718,0.19771
1529.27565,0.19842
1531.20412,0.20525
1533.13258,0.21483
1535.06105,0.21623
1536.98952,0.22266
1538.91799,0.25137
1540.84646,0.27688
1542.77493,0.25313
1544.70340,0.22224
1546.63186,0.20647
1548.56033,0.20553
1550.48880,0.20843
1552.41727,0.20958
1554.34574,0.21705
1556.27421,0.24146
1558.20268,0.27641
1560.13115,0.24964
1562.05961,0.21117
1563.98808,0.19789
1565.91655,0.19561
1567.84502,0.20107
1569.77349,0.20649
1571.70196,0.20069
1573.63043,0.19524
1575.55889,0.19731
1577.48736,0.19594
1579.41583,0.18634
1581.34430,0.17905
1583.27277,0.17759
1585.20124,0.17804
1587.12971,0.17874
1589.05818,0.18024
1590.98664,0.18139
1592.91511,0.18241
1594.84358,0.18273
1596.77205,0.18207
1598.70052,0.18136
1600.62899,0.18231
1602.55746,0.18432
1604.48592,0.18310
1606.41439,0.18145
1608.34286,0.18476
1610.27133,0.18852
1612.19980,0.18853
1614.12827,0.19291
1616.05674,0.20469
1617.98521,0.20312
1619.91367,0.19443
1621.84214,0.19755
1623.77061,0.20181
1625.69908,0.19687
1627.62755,0.19442
1629.55602,0.19622
1631.48449,0.19926
1633.41295,0.20936
1635.34142,0.22509
1637.26989,0.21937
1639.19836,0.20405
1641.12683,0.19958
1643.05530,0.20410
1644.98377,0.21344
1646.91223,0.22322
1648.84070,0.22568
1650.76917,0.22907
1652.69764,0.23778
1654.62611,0.22510
1656.55458,0.20702
1658.48305,0.19954
1660.41152,0.19889
1662.33998,0.20211
1664.26845,0.20477
1666.19692,0.20943
1668.12539,0.21908
1670.05386,0.22389
1671.98233,0.21943
1673.91080,0.21554
1675.83926,0.21193
1677.76773,0.21129
1679.69620,0.21737
1681.62467,0.22982
1683.55314,0.24305
1685.48161,0.23275
1687.41008,0.21477
1689.33855,0.20652
1691.26701,0.20257
1693.19548,0.20456
1695.12395,0.21698
1697.05242,0.22852
1698.98089,0.22535
1700.90936,0.21377
1702.83783,0.20757
1704.76629,0.20894
1706.69476,0.20709
1708.62323,0.19890
1710.55170,0.19504
1712.48017,0.19865
1714.40864,0.20879
1716.33711,0.22103
1718.26558,0.21351
1720.19404,0.19570
1722.12251,0.19037
1724.05098,0.19197
1725.97945,0.19137
1727.90792,0.19287
1729.83639,0.19951
1731.76486,0.20691
1733.69332,0.21051
1735.62179,0.20488
1737.55026,0.20067
1739.47873,0.20128
1741.40720,0.20154
1743.33567,0.20048
1745.26414,0.20155
1747.19261,0.20652
1749.12107,0.21074
1751.04954,0.20584
1752.97801,0.19746
1754.90648,0.19532
1756.83495,0.19616
1758.76342,0.19559
1760.69189,0.19784
1762.62035,0.20056
1764.54882,0.19982
1766.47729,0.20208
1768.40576,0.21074
1770.33423,0.22300
1772.26270,0.22547
1774.19117,0.21078
1776.11964,0.19869
1778.04810,0.19564
1779.97657,0.19660
1781.90504,0.19724
1783.83351,0.19700
1785.76198,0.19576
1787.69045,0.19540
1789.61892,0.19892
1791.54738,0.20399
1793.47585,0.20436
1795.40432,0.20025
1797.33279,0.19722
1799.26126,0.19874
1801.18973,0.20221
1803.11820,0.20135
1805.04666,0.19651
1806.97513,0.19229
1808.90360,0.19214
1810.83207,0.19400
1812.76054,0.19186
1814.68901,0.18624
1816.61748,0.17953
1818.54595,0.17390
1820.47441,0.17476
1822.40288,0.18332
1824.33135,0.19284
1826.25982,0.19686
1828.18829,0.20010
1830.11676,0.20406
1832.04523,0.20209
1833.97369,0.19665
1835.90216,0.19248
1837.83063,0.19113
1839.75910,0.19301
1841.68757,0.19859
1843.61604,0.20332
1845.54451,0.19940
1847.47298,0.19325
1849.40144,0.19102
1851.32991,0.19152
1853.25838,0.19228
1855.18685,0.19092
1857.11532,0.18813
1859.04379,0.18595
1860.97226,0.18552
1862.90072,0.18682
1864.82919,0.18956
1866.75766,0.19439
1868.68613,0.19719
1870.61460,0.19331
1872.54307,0.18876
1874.47154,0.18672
1876.40001,0.18525
1878.32847,0.18405
1880.25694,0.18505
1882.18541,0.18751
1884.11388,0.18879
1886.04235,0.18990
1887.97082,0.19228
1889.89929,0.19296
1891.82775,0.19253
1893.75622,0.19418
1895.68469,0.19371
1897.61316,0.18990
1899.54163,0.18837
1901.47010,0.18985
1903.39857,0.19041
1905.32704,0.18925
1907.25550,0.19030
1909.18397,0.19259
1911.11244,0.19097
1913.04091,0.18954
1914.96938,0.19470
1916.89785,0.20140
1918.82632,0.20078
1920.75478,0.19719
1922.68325,0.19489
1924.61172,0.19028
1926.54019,0.18744
1928.46866,0.18967
1930.39713,0.19113
1932.32560,0.19036
1934.25407,0.19067
1936.18253,0.19011
1938.11100,0.18852
1940.03947,0.19015
1941.96794,0.19313
1943.89641,0.19165
1945.82488,0.18728
1947.75335,0.18533
1949.68181,0.18667
1951.61028,0.18762
1953.53875,0.18711
1955.46722,0.18791
1957.39569,0.18954
1959.32416,0.18997
1961.25263,0.19044
1963.18110,0.19135
1965.10956,0.19074
1967.03803,0.18950
1968.96650,0.18950
1970.89497,0.18997
1972.82344,0.18893
1974.75191,0.18887
1976.68038,0.19407
1978.60884,0.19630
1980.53731,0.19112
1982.46578,0.18791
1984.39425,0.18766
1986.32272,0.18736
1988.25119,0.18712
1990.17966,0.18662
1992.10812,0.18803
1994.03659,0.18984
1995.96506,0.18999
1997.89353,0.19098
1999.82200,0.19286
2001.75047,0.19342
2003.67894,0.19256
2005.60741,0.19110
2007.53587,0.18970
2009.46434,0.18862
2011.39281,0.18819
2013.32128,0.18863
2015.24975,0.18885
2017.17822,0.18875
2019.10669,0.18864
2021.03515,0.18858
2022.96362,0.18880
2024.89209,0.18837
2026.82056,0.18824
2028.74903,0.18924
2030.67750,0.19031
2032.60597,0.19154
2034.53444,0.19224
2036.46290,0.19088
2038.39137,0.18871
2040.31984,0.18864
2042.24831,0.19099
2044.17678,0.19334
2046.10525,0.19415
2048.03372,0.19397
2049.96218,0.19315
2051.89065,0.19161
2053.81912,0.19121
2055.74759,0.19223
2057.67606,0.19244
2059.60453,0.19216
2061.53300,0.19242
2063.46147,0.19293
2065.38993,0.19408
2067.31840,0.19525
2069.24687,0.19396
2071.17534,0.18940
2073.10381,0.18597
2075.03228,0.18781
2076.96075,0.19138
2078.88921,0.19227
2080.81768,0.19144
2082.74615,0.19027
2084.67462,0.18879
2086.60309,0.18842
2088.53156,0.18981
2090.46003,0.19070
2092.38850,0.19014
2094.31696,0.18937
2096.24543,0.18943
2098.17390,0.19057
2100.10237,0.19148
2102.03084,0.19184
2103.95931,0.19296
2105.88778,0.19336
2107.81624,0.19067
2109.74471,0.18728
2111.67318,0.18730
2113.60165,0.19038
2115.53012,0.19269
2117.45859,0.19344
2119.38706,0.19432
2121.31553,0.19382
2123.24399,0.19118
2125.17246,0.18899
2127.10093,0.18833
2129.02940,0.18897
2130.95787,0.19061
2132.88634,0.19143
2134.81481,0.19081
2136.74327,0.19119
2138.67174,0.19279
2140.60021,0.19429
2142.52868,0.19539
2144.45715,0.19459
2146.38562,0.19273
2148.31409,0.19197
2150.24255,0.19182
2152.17102,0.19184
2154.09949,0.19139
2156.02796,0.19011
2157.95643,0.18965
2159.88490,0.19100
2161.81337,0.19233
2163.74184,0.19202
2165.67030,0.19203
2167.59877,0.19314
2169.52724,0.19439
2171.45571,0.19608
2173.38418,0.19586
2175.31265,0.19255
2177.24112,0.19081
2179.16958,0.19348
2181.09805,0.19570
2183.02652,0.19365
2184.95499,0.19206
2186.88346,0.19358
2188.81193,0.19463
2190.74040,0.19422
2192.66887,0.19438
2194.59733,0.19489
2196.52580,0.19354
2198.45427,0.19060
2200.38274,0.18858
2202.31121,0.18883
2204.23968,0.19022
2206.16815,0.18949
2208.09661,0.18702
2210.02508,0.18711
2211.95355,0.18925
2213.88202,0.18927
2215.81049,0.18827
2217.73896,0.18876
2219.66743,0.18907
2221.59590,0.18875
2223.52436,0.18782
2225.45283,0.18571
2227.38130,0.18544
2229.30977,0.18917
2231.23824,0.19405
2233.16671,0.19533
2235.09518,0.19240
2237.02364,0.19036
2238.95211,0.19230
2240.88058,0.19453
2242.80905,0.19260
2244.73752,0.18882
2246.66599,0.18796
2248.59446,0.18890
2250.52293,0.18975
2252.45139,0.19101
2254.37986,0.19137
2256.30833,0.19121
2258.23680,0.19168
2260.16527,0.19186
2262.09374,0.19135
2264.02221,0.19195
2265.95067,0.19414
2267.87914,0.19382
2269.80761,0.19141
2271.73608,0.19064
2273.66455,0.19066
2275.59302,0.19084
2277.52149,0.19091
2279.44996,0.19043
2281.37842,0.19014
2283.30689,0.19075
2285.23536,0.19072
2287.16383,0.18917
2289.09230,0.18896
2291.02077,0.19105
2292.94924,0.19361
2294.87770,0.19519
2296.80617,0.19546
2298.73464,0.19359
2300.66311,0.18900
2302.59158,0.18551
2304.52005,0.18754
2306.44852,0.19380
2308.37699,0.19622
2310.30545,0.19152
2312.23392,0.18955
2314.16239,0.19265
2316.09086,0.19152
2318.01933,0.19240
2319.94780,0.20399
2321.87627,0.21258
2323.80473,0.20983
2325.73320,0.20514
2327.66167,0.19988
2329.59014,0.19643
2331.51861,0.20598
2333.44708,0.21479
2335.37555,0.20821
2337.30401,0.20486
2339.23248,0.20915
2341.16095,0.20792
2343.08942,0.20076
2345.01789,0.19537
2346.94636,0.19672
2348.87483,0.19691
2350.80330,0.19295
2352.73176,0.19177
2354.66023,0.19937
2356.58870,0.20890
2358.51717,0.21119
2360.44564,0.21629
2362.37411,0.22941
2364.30258,0.22858
2366.23104,0.21011
2368.15951,0.19277
2370.08798,0.18821
2372.01645,0.19037
2373.94492,0.18970
2375.87339,0.18939
2377.80186,0.19117
2379.73033,0.19115
2381.65879,0.19046
2383.58726,0.19152
2385.51573,0.19269
2387.44420,0.19162
2389.37267,0.18870
2391.30114,0.18829
2393.22961,0.19224
2395.15807,0.19491
2397.08654,0.19447
2399.01501,0.19437
2400.94348,0.19434
2402.87195,0.19357
2404.80042,0.19229
2406.72889,0.19156
2408.65736,0.19217
2410.58582,0.19155
2412.51429,0.18846
2414.44276,0.18634
2416.37123,0.18735
2418.29970,0.18958
2420.22817,0.19100
2422.15664,0.19109
2424.08510,0.18963
2426.01357,0.18738
2427.94204,0.18755
2429.87051,0.19078
2431.79898,0.19424
2433.72745,0.19649
2435.65592,0.19588
2437.58439,0.19209
2439.51285,0.18944
2441.44132,0.19144
2443.36979,0.19528
2445.29826,0.19645
2447.22673,0.19500
2449.15520,0.19336
2451.08367,0.19261
2453.01213,0.19223
2454.94060,0.19252
2456.86907,0.19416
2458.79754,0.19478
2460.72601,0.19227
2462.65448,0.18945
2464.58295,0.18990
2466.51142,0.19205
2468.43988,0.19175
2470.36835,0.18974
2472.29682,0.19025
2474.22529,0.19255
2476.15376,0.19329
2478.08223,0.19275
2480.01070,0.19350
2481.93916,0.19536
2483.86763,0.19589
2485.79610,0.19624
2487.72457,0.19713
2489.65304,0.19556
2491.58151,0.19098
2493.50998,0.18817
2495.43844,0.19040
2497.36691,0.19411
2499.29538,0.19620
2501.22385,0.19673
2503.15232,0.19656
2505.08079,0.19630
2507.00926,0.19362
2508.93773,0.18972
2510.86619,0.18967
2512.79466,0.19343
2514.72313,0.19715
2516.65160,0.19810
2518.58007,0.19645
2520.50854,0.19341
2522.43701,0.19102
2524.36547,0.19223
2526.29394,0.19521
2528.22241,0.19600
2530.15088,0.19444
2532.07935,0.19363
2534.00782,0.19608
2535.93629,0.19823
2537.86476,0.19694
2539.79322,0.19502
2541.72169,0.19303
2543.65016,0.19080
2545.57863,0.19082
2547.50710,0.19093
2549.43557,0.18899
2551.36404,0.18916
2553.29250,0.19153
2555.22097,0.19228
2557.14944,0.19281
2559.07791,0.19410
2561.00638,0.19441
2562.93485,0.19397
2564.86332,0.19243
2566.79179,0.19037
2568.72025,0.19034
2570.64872,0.19232
2572.57719,0.19327
2574.50566,0.19318
2576.43413,0.19610
2578.36260,0.19989
2580.29107,0.19955
2582.21953,0.19679
2584.14800,0.19613
2586.07647,0.19746
2588.00494,0.19625
2589.93341,0.19287
2591.86188,0.19155
2593.79035,0.19207
2595.71882,0.19415
2597.64728,0.19912
2599.57575,0.20203
2601.50422,0.20010
2603.43269,0.19978
2605.36116,0.20238
2607.28963,0.20352
2609.21810,0.20298
2611.14656,0.20321
2613.07503,0.20359
2615.00350,0.20183
2616.93197,0.20025
2618.86044,0.20145
2620.78891,0.20317
2622.71738,0.20221
2624.64585,0.19864
2626.57431,0.19480
2628.50278,0.19293
2630.43125,0.19420
2632.35972,0.19716
2634.28819,0.19898
2636.21666,0.19795
2638.14513,0.19511
2640.07359,0.19353
2642.00206,0.19384
2643.93053,0.19336
2645.85900,0.19106
2647.78747,0.19019
2649.71594,0.19224
2651.64441,0.19396
2653.57288,0.19376
2655.50134,0.19431
2657.42981,0.19743
2659.35828,0.19998
2661.28675,0.19784
2663.21522,0.19317
2665.14369,0.19181
2667.07216,0.19535
2669.00062,0.19961
2670.92909,0.20132
2672.85756,0.20071
2674.78603,0.19871
2676.71450,0.19827
2678.64297,0.20024
2680.57144,0.20119
2682.49990,0.19935
2684.42837,0.19558
2686.35684,0.19284
2688.28531,0.19265
2690.21378,0.19329
2692.14225,0.19390
2694.07072,0.19478
2695.99919,0.19507
2697.92765,0.19610
2699.85612,0.19981
2701.78459,0.20213
2703.71306,0.20121
2705.64153,0.20205
2707.57000,0.20468
2709.49847,0.20366
2711.42693,0.19867
2713.35540,0.19448
2715.28387,0.19321
2717.21234,0.19274
2719.14081,0.19263
2721.06928,0.19420
2722.99775,0.19544
2724.92622,0.19569
2726.85468,0.19719
2728.78315,0.19915
2730.71162,0.20021
2732.64009,0.20081
2734.56856,0.20047
2736.49703,0.19955
2738.42550,0.19993
2740.35396,0.20069
2742.28243,0.20033
2744.21090,0.19979
2746.13937,0.20081
2748.06784,0.20436
2749.99631,0.20727
2751.92478,0.20579
2753.85325,0.20168
2755.78171,0.19845
2757.71018,0.19951
2759.63865,0.20402
2761.56712,0.20247
2763.49559,0.19464
2765.42406,0.19253
2767.35253,0.19794
2769.28099,0.20349
2771.20946,0.20493
2773.13793,0.20331
2775.06640,0.20120
2776.99487,0.19820
2778.92334,0.19561
2780.85181,0.19641
2782.78028,0.19771
2784.70874,0.19636
2786.63721,0.19766
2788.56568,0.20313
2790.49415,0.20623
2792.42262,0.20565
2794.35109,0.20436
2796.27956,0.20398
2798.20802,0.20572
2800.13649,0.20919
2802.06496,0.21083
2803.99343,0.20826
2805.92190,0.20295
2807.85037,0.19835
2809.77884,0.19798
2811.70731,0.20023
2813.63577,0.20187
2815.56424,0.20287
2817.49271,0.20372
2819.42118,0.20504
2821.34965,0.20708
2823.27812,0.20912
2825.20659,0.20780
2827.13505,0.20340
2829.06352,0.20287
2830.99199,0.20731
2832.92046,0.20965
2834.84893,0.20558
2836.77740,0.20026
2838.70587,0.19975
2840.63433,0.20193
2842.56280,0.20358
2844.49127,0.20552
2846.41974,0.20783
2848.34821,0.20855
2850.27668,0.20730
2852.20515,0.20802
2854.13362,0.21256
2856.06208,0.21492
2857.99055,0.21340
2859.91902,0.21252
2861.84749,0.21050
2863.77596,0.20561
2865.70443,0.20178
2867.63290,0.20212
2869.56136,0.20612
2871.48983,0.20888
2873.41830,0.20773
2875.34677,0.20666
2877.27524,0.20756
2879.20371,0.20842
2881.13218,0.20801
2883.06065,0.20688
2884.98911,0.20715
2886.91758,0.20977
2888.84605,0.21257
2890.77452,0.21248
2892.70299,0.21159
2894.63146,0.21369
2896.55993,0.21498
2898.48839,0.21222
2900.41686,0.20807
2902.34533,0.20320
2904.27380,0.19944
2906.20227,0.20189
2908.13074,0.20777
2910.05921,0.20900
2911.98768,0.20543
2913.91614,0.20237
2915.84461,0.20221
2917.77308,0.20374
2919.70155,0.20584
2921.63002,0.20764
2923.55849,0.20373
2925.48696,0.19126
2927.41542,0.18239
2929.34389,0.18800
2931.27236,0.19937
2933.20083,0.20466
2935.12930,0.20304
2937.05777,0.19997
2938.98624,0.20228
2940.91471,0.20827
2942.84317,0.21057
2944.77164,0.20746
2946.70011,0.20092
2948.62858,0.19816
2950.55705,0.20159
2952.48552,0.20265
2954.41399,0.19850
2956.34245,0.19084
2958.27092,0.18451
2960.19939,0.18727
2962.12786,0.19531
2964.05633,0.20065
2965.98480,0.20136
2967.91327,0.19971
2969.84174,0.20374
2971.77020,0.21502
2973.69867,0.22417
2975.62714,0.22389
2977.55561,0.21428
2979.48408,0.20496
2981.41255,0.20330
2983.34102,0.20435
2985.26948,0.20430
2987.19795,0.20438
2989.12642,0.20643
2991.05489,0.20965
2992.98336,0.21252
2994.91183,0.21834
2996.84030,0.22359
2998.76877,0.22055
3000.69723,0.21455
3002.62570,0.21334
3004.55417,0.21304
3006.48264,0.20823
3008.41111,0.20227
3010.33958,0.19701
3012.26805,0.18536
3014.19651,0.16321
3016.12498,0.14474
3018.05345,0.15432
3019.98192,0.18519
3021.91039,0.20505
3023.83886,0.20861
3025.76733,0.20830
3027.69579,0.20692
3029.62426,0.20727
3031.55273,0.21285
3033.48120,0.21935
3035.40967,0.22029
3037.33814,0.21508
3039.26661,0.20982
3041.19508,0.21025
3043.12354,0.21481
3045.05201,0.21648
3046.98048,0.21151
3048.90895,0.20624
3050.83742,0.20602
3052.76589,0.20793
3054.69436,0.20582
3056.62282,0.19870
3058.55129,0.19769
3060.47976,0.20582
3062.40823,0.21379
3064.33670,0.21254
3066.26517,0.19901
3068.19364,0.18771
3070.12211,0.19024
3072.05057,0.19892
3073.97904,0.20394
3075.90751,0.20779
3077.83598,0.21598
3079.76445,0.21879
3081.69292,0.20950
3083.62139,0.19469
3085.54985,0.18620
3087.47832,0.19397
3089.40679,0.20560
3091.33526,0.20625
3093.26373,0.20102
3095.19220,0.19911
3097.12067,0.20506
3099.04914,0.21298
3100.97760,0.21279
3102.90607,0.20503
3104.83454,0.19996
3106.76301,0.20150
3108.69148,0.20348
3110.61995,0.20258
3112.54842,0.20027
3114.47688,0.20096
3116.40535,0.20639
3118.33382,0.20959
3120.26229,0.20706
3122.19076,0.20642
3124.11923,0.21165
3126.04770,0.21630
3127.97617,0.21651
3129.90463,0.21409
3131.83310,0.21262
3133.76157,0.21311
3135.69004,0.21305
3137.61851,0.21194
3139.54698,0.21081
3141.47545,0.20906
3143.40391,0.20776
3145.33238,0.21277
3147.26085,0.22191
3149.18932,0.22617
3151.11779,0.22449
3153.04626,0.21911
3154.97473,0.21277
3156.90320,0.20969
3158.83166,0.21081
3160.76013,0.21307
3162.68860,0.21493
3164.61707,0.21770
3166.54554,0.21938
3168.47401,0.21822
3170.40248,0.21703
3172.33094,0.21498
3174.25941,0.21157
3176.18788,0.21171
3178.11635,0.21406
3180.04482,0.21285
3181.97329,0.21097
3183.90176,0.21471
3185.83022,0.21986
3187.75869,0.21965
3189.68716,0.21666
3191.61563,0.21446
3193.54410,0.21411
3195.47257,0.21551
3197.40104,0.21718
3199.32951,0.21733
3201.25797,0.21410
3203.18644,0.21109
3205.11491,0.21339
3207.04338,0.21705
3208.97185,0.21831
3210.90032,0.22035
3212.82879,0.22271
3214.75725,0.22016
3216.68572,0.21275
3218.61419,0.20874
3220.54266,0.21118
3222.47113,0.21385
3224.39960,0.21254
3226.32807,0.20887
3228.25654,0.20727
3230.18500,0.20734
3232.11347,0.20603
3234.04194,0.20657
3235.97041,0.20987
3237.89888,0.21010
3239.82735,0.20890
3241.75582,0.21040
3243.68428,0.20997
3245.61275,0.20858
3247.54122,0.21217
3249.46969,0.21648
3251.39816,0.21569
3253.32663,0.21309
3255.25510,0.21329
3257.18357,0.21457
3259.11203,0.21461
3261.04050,0.21494
3262.96897,0.21705
3264.89744,0.21880
3266.82591,0.21753
3268.75438,0.21573
3270.68285,0.21677
3272.61131,0.21772
3274.53978,0.21438
3276.46825,0.20918
3278.39672,0.20857
3280.32519,0.21090
3282.25366,0.21118
3284.18213,0.21346
3286.11060,0.21653
3288.03906,0.21425
3289.96753,0.20939
3291.89600,0.20577
3293.82447,0.20399
3295.75294,0.20433
3297.68141,0.20697
3299.60988,0.20907
3301.53834,0.20799
3303.46681,0.20674
3305.39528,0.20717
3307.32375,0.20693
3309.25222,0.20693
3311.18069,0.20912
3313.10916,0.21092
3315.03763,0.21360
3316.96609,0.21799
3318.89456,0.21986
3320.82303,0.21986
3322.75150,0.21945
3324.67997,0.21854
3326.60844,0.21890
3328.53691,0.21934
3330.46537,0.21670
3332.39384,0.21383
3334.32231,0.21490
3336.25078,0.21724
3338.17925,0.21545
3340.10772,0.20914
3342.03619,0.20621
3343.96466,0.20932
3345.89312,0.21291
3347.82159,0.21681
3349.75006,0.22009
3351.67853,0.22099
3353.60700,0.22240
3355.53547,0.22154
3357.46394,0.21542
3359.39240,0.21162
3361.32087,0.21449
3363.24934,0.21806
3365.17781,0.21915
3367.10628,0.21986
3369.03475,0.22094
3370.96322,0.22272
3372.89168,0.22485
3374.82015,0.22505
3376.74862,0.22379
3378.67709,0.21979
3380.60556,0.21277
3382.53403,0.21135
3384.46250,0.21573
3386.39097,0.21908
3388.31943,0.22289
3390.24790,0.22718
3392.17637,0.23093
3394.10484,0.23398
3396.03331,0.23217
3397.96178,0.22783
3399.89025,0.22431
3401.81871,0.21765
3403.74718,0.20942
3405.67565,0.20454
3407.60412,0.20552
3409.53259,0.21049
3411.46106,0.21375
3413.38953,0.21441
3415.31800,0.21329
3417.24646,0.21287
3419.17493,0.21425
3421.10340,0.21299
3423.03187,0.20850
3424.96034,0.20492
3426.88881,0.20650
3428.81728,0.21143
3430.74574,0.21157
3432.67421,0.20669
3434.60268,0.20201
3436.53115,0.20127
3438.45962,0.20991
3440.38809,0.22047
3442.31656,0.21952
3444.24503,0.21250
3446.17349,0.20726
3448.10196,0.20257
3450.03043,0.19932
3451.95890,0.20004
3453.88737,0.20273
3455.81584,0.19992
3457.74431,0.19123
3459.67277,0.18639
3461.60124,0.18814
3463.52971,0.19096
3465.45818,0.19380
3467.38665,0.19798
3469.31512,0.20446
3471.24359,0.21223
3473.17206,0.21551
3475.10052,0.21035
3477.02899,0.20158
3478.95746,0.19866
3480.88593,0.20067
3482.81440,0.19950
3484.74287,0.19638
3486.67134,0.19408
3488.59980,0.19149
3490.52827,0.19326
3492.45674,0.19820
3494.38521,0.19636
3496.31368,0.18992
3498.24215,0.18843
3500.17062,0.19375
3502.09909,0.19988
3504.02755,0.19647
3505.95602,0.18746
3507.88449,0.18439
3509.81296,0.18423
3511.74143,0.18050
3513.66990,0.17641
3515.59837,0.17540
3517.52683,0.17490
3519.45530,0.17343
3521.38377,0.17521
3523.31224,0.18154
3525.24071,0.18529
3527.16918,0.18092
3529.09765,0.17378
3531.02611,0.17084
3532.95458,0.16913
3534.88305,0.16642
3536.81152,0.16472
3538.73999,0.16399
3540.66846,0.16678
3542.59693,0.17599
3544.52540,0.18566
3546.45386,0.18615
3548.38233,0.17868
3550.31080,0.17219
3552.23927,0.17230
3554.16774,0.17582
3556.09621,0.17256
3558.02468,0.16283
3559.95314,0.15879
3561.88161,0.16591
3563.81008,0.17654
3565.73855,0.18428
3567.66702,0.18312
3569.59549,0.17271
3571.52396,0.16564
3573.45243,0.16535
3575.38089,0.16651
3577.30936,0.16726
3579.23783,0.16906
3581.16630,0.16928
3583.09477,0.16653
3585.02324,0.16421
3586.95171,0.16445
3588.88017,0.16408
3590.80864,0.16353
3592.73711,0.16635
3594.66558,0.17041
3596.59405,0.17007
3598.52252,0.16582
3600.45099,0.16238
3602.37946,0.15747
3604.30792,0.15282
3606.23639,0.15803
3608.16486,0.16726
3610.09333,0.16872
3612.02180,0.16912
3613.95027,0.16781
3615.87874,0.16378
3617.80720,0.16497
3619.73567,0.16781
3621.66414,0.16342
3623.59261,0.15803
3625.52108,0.15934
3627.44955,0.16759
3629.37802,0.16910
3631.30649,0.15867
3633.23495,0.15255
3635.16342,0.15061
3637.09189,0.14849
3639.02036,0.14811
3640.94883,0.15030
3642.87730,0.15439
3644.80577,0.16320
3646.73423,0.17677
3648.66270,0.18431
3650.59117,0.16938
3652.51964,0.15104
3654.44811,0.14337
3656.37658,0.13955
3658.30505,0.13390
3660.23352,0.13097
3662.16198,0.13138
3664.09045,0.13236
3666.01892,0.13339
3667.94739,0.13876
3669.87586,0.15027
3671.80433,0.15395
3673.73280,0.15444
3675.66126,0.15798
3677.58973,0.15261
3679.51820,0.14420
3681.44667,0.13617
3683.37514,0.12895
3685.30361,0.12908
3687.23208,0.14110
3689.16055,0.15513
3691.08901,0.14980
3693.01748,0.14016
3694.94595,0.14109
3696.87442,0.14345
3698.80289,0.13856
3700.73136,0.12972
3702.65983,0.12648
3704.58829,0.13361
3706.51676,0.14361
3708.44523,0.15087
3710.37370,0.15244
3712.30217,0.14685
3714.23064,0.14208
3716.15911,0.13809
3718.08757,0.13257
3720.01604,0.12847
3721.94451,0.12858
3723.87298,0.13234
3725.80145,0.13652
3727.72992,0.13820
3729.65839,0.13969
3731.58686,0.14643
3733.51532,0.15404
3735.44379,0.15315
3737.37226,0.15102
3739.30073,0.14969
3741.22920,0.14532
3743.15767,0.13801
3745.08614,0.13426
3747.01460,0.13963
3748.94307,0.14952
3750.87154,0.15952
3752.80001,0.15719
3754.72848,0.14896
3756.65695,0.14409
3758.58542,0.14238
3760.51389,0.13869
3762.44235,0.13071
3764.37082,0.12316
3766.29929,0.12219
3768.22776,0.12768
3770.15623,0.13223
3772.08470,0.13051
3774.01317,0.12791
3775.94163,0.13113
3777.87010,0.13794
3779.79857,0.13765
3781.72704,0.12950
3783.65551,0.12436
3785.58398,0.12464
3787.51245,0.12741
3789.44092,0.13072
3791.36938,0.13402
3793.29785,0.13705
3795.22632,0.13838
3797.15479,0.13936
3799.08326,0.14609
3801.01173,0.15383
3802.94020,0.14499
3804.86866,0.13049
3806.79713,0.12558
3808.72560,0.12842
3810.65407,0.12925
3812.58254,0.12729
3814.51101,0.12831
3816.43948,0.13892
3818.36795,0.15504
3820.29641,0.15989
3822.22488,0.14131
3824.15335,0.12850
3826.08182,0.13320
3828.01029,0.13870
3829.93876,0.13584
3831.86723,0.13061
3833.79569,0.12705
3835.72416,0.12740
3837.65263,0.13438
3839.58110,0.13929
3841.50957,0.13634
3843.43804,0.13342
3845.36651,0.13125
3847.29498,0.12872
3849.22344,0.13101
3851.15191,0.14094
3853.08038,0.15000
3855.00885,0.14282
3856.93732,0.13505
3858.86579,0.13376
3860.79426,0.13556
3862.72272,0.13629
3864.65119,0.13124
3866.57966,0.12526
3868.50813,0.12793
3870.43660,0.13407
3872.36507,0.13035
3874.29354,0.12220
3876.22200,0.11776
3878.15047,0.11826
3880.07894,0.12234
3882.00741,0.12476
3883.93588,0.12440
3885.86435,0.12527
3887.79282,0.12805
3889.72129,0.13221
3891.64975,0.13457
3893.57822,0.12980
3895.50669,0.12317
3897.43516,0.12168
3899.36363,0.13030
3901.29210,0.14459
3903.22057,0.14770
3905.14903,0.13452
3907.07750,0.12128
3909.00597,0.11747
3910.93444,0.11684
3912.86291,0.11537
3914.79138,0.11695
3916.71985,0.12011
3918.64832,0.11980
3920.57678,0.11907
3922.50525,0.12184
3924.43372,0.12380
3926.36219,0.11704
3928.29066,0.10820
3930.21913,0.10981
3932.14760,0.11686
3934.07606,0.11800
3936.00453,0.11551
3937.93300,0.11425
3939.86147,0.11729
3941.78994,0.11846
3943.71841,0.11192
3945.64688,0.11094
3947.57535,0.11985
3949.50381,0.12309
3951.43228,0.11501
3953.36075,0.11101
3955.28922,0.11620
3957.21769,0.11774
3959.14616,0.11052
3961.07463,0.10369
3963.00309,0.10336
3964.93156,0.10672
3966.86003,0.10880
3968.78850,0.10877
3970.71697,0.10996
3972.64544,0.11411
3974.57391,0.11693
3976.50238,0.11328
3978.43084,0.10658
3980.35931,0.10301
3982.28778,0.10211
3984.21625,0.10253
3986.14472,0.10486
3988.07319,0.10800
3990.00166,0.11095
3991.93012,0.11251
3993.85859,0.10916
3995.78706,0.10209
3997.71553,0.09929
3999.64400,0.10225
4001.57247,0.10504
4003.50094,0.10647
4005.42941,0.10835
4007.35787,0.10707
4009.28634,0.10167
4011.21481,0.09943
4013.14328,0.10286
4015.07175,0.10550
4017.00022,0.10370
4018.92869,0.10347
4020.85715,0.10683
4022.78562,0.10815
4024.71409,0.10827
4026.64256,0.10770
4028.57103,0.10337
4030.49950,0.09826
4032.42797,0.09508
4034.35644,0.09221
4036.28490,0.09039
4038.21337,0.09167
4040.14184,0.09385
4042.07031,0.09290
4043.99878,0.08840
4045.92725,0.08695
4047.85572,0.09305
4049.78418,0.09781
4051.71265,0.09658
4053.64112,0.09767
4055.56959,0.10115
4057.49806,0.10105
4059.42653,0.09822
4061.35500,0.09690
4063.28346,0.09973
4065.21193,0.10113
4067.14040,0.09624
4069.06887,0.08892
4070.99734,0.08672
4072.92581,0.09459
4074.85428,0.10167
4076.78275,0.09611
4078.71121,0.08763
4080.63968,0.08825
4082.56815,0.09575
4084.49662,0.10103
4086.42509,0.09761
4088.35356,0.09151
4090.28203,0.09139
4092.21049,0.09330
4094.13896,0.09457
4096.06743,0.09790
4097.99590,0.09958
4099.92437,0.09658
4101.85284,0.09317
4103.78131,0.09156
4105.70978,0.09136
4107.63824,0.09278
4109.56671,0.09310
4111.49518,0.09362
4113.42365,0.09419
4115.35212,0.08988
4117.28059,0.08645
4119.20906,0.08829
4121.13752,0.08717
4123.06599,0.08161
4124.99446,0.07904
4126.92293,0.08006
4128.85140,0.08196
4130.77987,0.08604
4132.70834,0.09275
4134.63681,0.09930
4136.56527,0.10313
4138.49374,0.10370
4140.42221,0.09885
4142.35068,0.08756
4144.27915,0.07753
4146.20762,0.07499
4148.13609,0.07490
4150.06455,0.07595
4151.99302,0.08184
4153.92149,0.08613
4155.84996,0.08429
4157.77843,0.08097
4159.70690,0.07788
4161.63537,0.07681
4163.56384,0.07961
4165.49230,0.08347
4167.42077,0.08579
4169.34924,0.08529
4171.27771,0.08274
4173.20618,0.08026
4175.13465,0.07949
4177.06312,0.08270
4178.99158,0.08511
4180.92005,0.08099
4182.84852,0.07760
4184.77699,0.07941
4186.70546,0.07994
4188.63393,0.07951
4190.56240,0.08359
4192.49087,0.08802
4194.41933,0.09041
4196.34780,0.09387
4198.27627,0.08967
4200.20474,0.07357
4202.13321,0.06223
4204.06168,0.06415
4205.99015,0.06977
4207.91861,0.07301
4209.84708,0.07520
4211.77555,0.07686
4213.70402,0.07849
4215.63249,0.08047
4217.56096,0.07857
4219.48943,0.07116
4221.41789,0.06435
4223.34636,0.06003
4225.27483,0.05707
4227.20330,0.06183
4229.13177,0.07343
4231.06024,0.07837
4232.98871,0.07366
4234.91718,0.06982
4236.84564,0.07282
4238.77411,0.07895
4240.70258,0.08138
4242.63105,0.07757
4244.55952,0.06895
4246.48799,0.06099
4248.41646,0.05990
4250.34492,0.06243
4252.27339,0.06344
4254.20186,0.06200
4256.13033,0.06155
4258.05880,0.06637
4259.98727,0.07098
4261.91574,0.07041
4263.84421,0.06658
4265.77267,0.06260
4267.70114,0.06045
4269.62961,0.05781
4271.55808,0.05569
4273.48655,0.05883
4275.41502,0.06503
4277.34349,0.07039
4279.27195,0.07441
4281.20042,0.07259
4283.12889,0.06585
4285.05736,0.06616
4286.98583,0.07373
4288.91430,0.07621
4290.84277,0.06961
4292.77124,0.06108
4294.69970,0.05755
4296.62817,0.05798
4298.55664,0.06041
4300.48511,0.06441
4302.41358,0.06578
4304.34205,0.06337
4306.27052,0.06231
4308.19898,0.06256
4310.12745,0.05801
4312.05592,0.05103
4313.98439,0.04971
4315.91286,0.05496
4317.84133,0.06395
4319.76980,0.06892
4321.69827,0.06332
4323.62673,0.05213
4325.55520,0.04296
4327.48367,0.04287
4329.41214,0.04937
4331.34061,0.05018
4333.26908,0.04753
4335.19755,0.05261
4337.12601,0.06116
4339.05448,0.06089
4340.98295,0.05256
4342.91142,0.04669
4344.83989,0.04617
4346.76836,0.04788
4348.69683,0.05061
4350.62530,0.05335
4352.55376,0.05511
4354.48223,0.05222
4356.41070,0.04592
4358.33917,0.04260
4360.26764,0.04277
4362.19611,0.04768
4364.12458,0.05469
4366.05304,0.05693
4367.98151,0.05375
4369.90998,0.04703
4371.83845,0.03949
4373.76692,0.03399
4375.69539,0.03390
4377.62386,0.03550
4379.55232,0.03323
4381.48079,0.03354
4383.40926,0.04047
4385.33773,0.04886
4387.26620,0.05181
4389.19467,0.04874
4391.12314,0.04790
4393.05161,0.05396
4394.98007,0.06057
4396.90854,0.05874
4398.83701,0.04891
4400.76548,0.03596
4402.69395,0.02480
4404.62242,0.02313
4406.55089,0.03180
4408.47935,0.03784
4410.40782,0.03336
4412.33629,0.03388
4414.26476,0.04582
4416.19323,0.04977
4418.12170,0.04213
4420.05017,0.03534
4421.97864,0.02942
4423.90710,0.02382
4425.83557,0.02304
4427.76404,0.02596
4429.69251,0.02970
4431.62098,0.03400
4433.54945,0.03366
4435.47792,0.02379
4437.40638,0.01741
4439.33485,0.02168
4441.26332,0.02638
4443.19179,0.03097
4445.12026,0.03615
4447.04873,0.04009
4448.97720,0.04395
4450.90567,0.04379
4452.83413,0.03591
4454.76260,0.02470
4456.69107,0.02326
4458.61954,0.03379
4460.54801,0.04132
4462.47648,0.03684
4464.40495,0.02407
4466.33341,0.01238
4468.26188,0.00867
4470.19035,0.01195
4472.11882,0.01765
4474.04729,0.02049
4475.97576,0.01893
4477.90423,0.02152
4479.83270,0.02927
4481.76116,0.03262
4483.68963,0.03313
4485.61810,0.03541
4487.54657,0.03523
4489.47504,0.03357
4491.40351,0.04117
4493.33198,0.05232
4495.26044,0.04570
4497.18891,0.02758
4499.11738,0.02382
4501.04585,0.03231
4502.97432,0.03254
4504.90279,0.02600
4506.83126,0.02406
4508.75973,0.02208
4510.68819,0.01755
4512.61666,0.01723
4514.54513,0.02003
4516.47360,0.02414
4518.40207,0.03160
4520.33054,0.03690
4522.25901,0.03265
4524.18747,0.02223
4526.11594,0.01736
4528.04441,0.02182
4529.97288,0.02542
4531.90135,0.02059
4533.82982,0.01061
4535.75829,0.00230
4537.68676,-0.00074
4539.61522,0.00146
4541.54369,0.00986
4543.47216,0.01611
4545.40063,0.00871
4547.32910,-0.00257
4549.25757,-0.00366
4551.18604,0.00292
4553.11450,0.01476
4555.04297,0.03050
4556.97144,0.03680
4558.89991,0.02831
4560.82838,0.01773
4562.75685,0.01113
4564.68532,0.00341
4566.61378,-0.00230
4568.54225,0.00220
4570.47072,0.01268
4572.39919,0.02149
4574.32766,0.02141
4576.25613,0.01351
4578.18460,0.01506
4580.11307,0.02159
4582.04153,0.01139
4583.97000,-0.00769
4585.89847,-0.01237
4587.82694,-0.00358
4589.75541,0.00063
4591.68388,0.00122
4593.61235,0.00808
4595.54081,0.01424
4597.46928,0.01164
4599.39775,0.00299
4601.32622,-0.00354
4603.25469,-0.00167
4605.18316,0.00497
4607.11163,0.00785
4609.04010,0.00600
4610.96856,0.00427
4612.89703,0.00757
4614.82550,0.01281
4616.75397,0.00975
4618.68244,0.00619
4620.61091,0.01165
4622.53938,0.01412
4624.46784,0.01683
4626.39631,0.02570
4628.32478,0.02692
4630.25325,0.02076
4632.18172,0.01609
4634.11019,0.01098
4636.03866,0.00330
4637.96713,-0.00092
4639.89559,0.00197
4641.82406,0.00487
4643.75253,0.00432
4645.68100,0.00712
4647.60947,0.00983
4649.53794,0.00137
4651.46641,-0.00529
4653.39487,0.00360
4655.32334,0.01045
4657.25181,0.00461
4659.18028,-0.00035
4661.10875,0.00114
4663.03722,0.00375
4664.96569,0.00622
4666.89416,0.01032
4668.82262,0.01711
4670.75109,0.02382
4672.67956,0.01841
4674.60803,-0.00283
4676.53650,-0.01837
4678.46497,-0.01353
4680.39344,-0.00242
4682.32190,0.00114
4684.25037,0.00170
4686.17884,0.00169
4688.10731,-0.00432
4690.03578,-0.00635
4691.96425,0.00103
4693.89272,0.00215
4695.82119,-0.00110
4697.74965,0.00601
4699.67812,0.00956
4701.60659,-0.00275
4703.53506,-0.01025
4705.46353,-0.00018
4707.39200,0.00904
4709.32047,0.00513
4711.24893,0.00322
4713.17740,0.00923
4715.10587,0.01092
4717.03434,0.00662
4718.96281,0.00140
4720.89128,-0.00437
4722.81975,-0.00521
4724.74821,0.00727
4726.67668,0.01767
4728.60515,0.01088
4730.53362,0.00410
4732.46209,0.00518
4734.39056,0.00422
4736.31903,0.00492
4738.24750,0.00629
4740.17596,0.00078
4742.10443,-0.00347
4744.03290,-0.00084
4745.96137,0.00463
4747.88984,0.00792
4749.81831,0.00645
4751.74678,0.00490
4753.67524,0.00713
4755.60371,0.01268
4757.53218,0.01988
4759.46065,0.02691
4761.38912,0.02816
4763.31759,0.02194
4765.24606,0.01574
4767.17453,0.01436
4769.10299,0.01313
4771.03146,0.00590
4772.95993,0.00432
4774.88840,0.01573
4776.81687,0.01833
4778.74534,0.00381
4780.67381,-0.00505
4782.60227,0.00182
4784.53074,0.00775
4786.45921,0.00652
4788.38768,0.00656
4790.31615,0.00385
4792.24462,-0.00456
4794.17309,-0.00636
4796.10156,0.00402
4798.03002,0.01562
4799.95849,0.02281
4801.88696,0.02543
4803.81543,0.02282
4805.74390,0.02176
4807.67237,0.01982
4809.60084,0.01185
4811.52930,0.00553
4813.45777,0.00721
4815.38624,0.01570
4817.31471,0.02198
4819.24318,0.02143
4821.17165,0.01728
4823.10012,0.01445
4825.02859,0.01464
4826.95705,0.01113
4828.88552,0.00268
4830.81399,-0.00174
4832.74246,-0.00042
4834.67093,-0.00324
4836.59940,-0.00648
4838.52787,-0.00071
4840.45633,0.00853
4842.38480,0.01996
4844.31327,0.02788
4846.24174,0.02414
4848.17021,0.01158
4850.09868,-0.00605
4852.02715,-0.01368
4853.95562,-0.00528
4855.88408,0.00825
4857.81255,0.01988
4859.74102,0.01876
4861.66949,0.01246
4863.59796,0.01994
4865.52643,0.03077
4867.45490,0.03478
4869.38336,0.03653
4871.31183,0.03397
4873.24030,0.02418
4875.16877,0.01743
4877.09724,0.02444
4879.02571,0.03244
4880.95418,0.02499
4882.88265,0.00528
4884.81111,-0.01301
4886.73958,-0.01819
4888.66805,-0.01078
4890.59652,-0.00138
4892.52499,0.00640
4894.45346,0.01622
4896.38193,0.02310
4898.31039,0.02299
4900.23886,0.02140
4902.16733,0.02155
4904.09580,0.01479
4906.02427,-0.00275
4907.95274,-0.01373
4909.88121,-0.01368
4911.80967,-0.01091
4913.73814,-0.00264
4915.66661,0.00324
4917.59508,0.00543
4919.52355,0.01031
4921.45202,0.01454
4923.38049,0.01743
4925.30896,0.01378
4927.23742,0.00122
4929.16589,-0.00415
4931.09436,0.00381
4933.02283,0.00903
4934.95130,0.00741
4936.87977,0.00659
4938.80824,0.00282
4940.73670,-0.00272
4942.66517,-0.00144
4944.59364,-0.00269
4946.52211,-0.00928
4948.45058,-0.01071
4950.37905,-0.00279
4952.30752,0.01016
4954.23599,0.01855
4956.16445,0.02156
4958.09292,0.02334
4960.02139,0.02035
4961.94986,0.01787
4963.87833,0.02268
4965.80680,0.01819
4967.73527,-0.00375
4969.66373,-0.01812
4971.59220,-0.01151
4973.52067,-0.00487
4975.44914,-0.01042
4977.37761,-0.00965
4979.30608,0.00077
4981.23455,-0.00003
4983.16302,-0.00488
4985.09148,0.00186
4987.01995,0.01106
4988.94842,0.01803
4990.87689,0.01971
4992.80536,0.01692
4994.73383,0.01943
4996.66230,0.02112
4998.59076,0.01735
5000.51923,0.01704
5002.44770,0.02114
5004.37617,0.02200
5006.30464,0.01951
5008.23311,0.01554
5010.16158,0.00705
5012.09005,0.00502
5014.01851,0.01779
5015.94698,0.02999
5017.87545,0.03391
5019.80392,0.03461
5021.73239,0.03022
5023.66086,0.02217
5025.58933,0.00968
5027.51779,-0.00079
5029.44626,0.00382
5031.37473,0.00767
5033.30320,0.00426
5035.23167,0.01058
5037.16014,0.02023
5039.08861,0.02264
5041.01708,0.02199
5042.94554,0.01061
5044.87401,-0.01338
5046.80248,-0.01902
5048.73095,0.00174
5050.65942,0.01283
5052.58789,0.00787
5054.51636,0.01205
5056.44482,0.02130
5058.37329,0.02032
5060.30176,0.00852
5062.23023,-0.01033
5064.15870,-0.01981
5066.08717,-0.00735
5068.01564,0.01201
5069.94410,0.01941
5071.87257,0.01991
5073.80104,0.02338
5075.72951,0.02852
5077.65798,0.03363
5079.58645,0.02684
5081.51492,0.00594
5083.44339,-0.00534
5085.37185,0.00640
5087.30032,0.02924
5089.22879,0.03901
5091.15726,0.03441
5093.08573,0.04013
5095.01420,0.04893
5096.94267,0.03707
5098.87113,0.02063
5100.79960,0.01545
5102.72807,0.01974
5104.65654,0.03432
5106.58501,0.04518
5108.51348,0.04239
5110.44195,0.03392
5112.37042,0.02891
5114.29888,0.02604
5116.22735,0.01578
5118.15582,0.00405
5120.08429,0.00300
5122.01276,0.00730
5123.94123,0.01094
5125.86970,0.01694
5127.79816,0.02499
5129.72663,0.03546
5131.65510,0.04446
5133.58357,0.04770
5135.51204,0.05604
5137.44051,0.06427
5139.36898,0.05338
5141.29745,0.03699
5143.22591,0.03477
5145.15438,0.03502
5147.08285,0.02448
5149.01132,0.01034
5150.93979,0.01147
5152.86826,0.03460
5154.79673,0.05613
5156.72519,0.05056
5158.65366,0.02905
5160.58213,0.02798
5162.51060,0.05160
5164.43907,0.06075
5166.36754,0.04553
5168.29601,0.03942
5170.22448,0.04414
5172.15294,0.03212
5174.08141,0.01543
5176.00988,0.01962
5177.93835,0.03162
5179.86682,0.03557
5181.79529,0.03562
5183.72376,0.03500
5185.65222,0.03365
5187.58069,0.03268
5189.50916,0.03307
5191.43763,0.03490
5193.36610,0.03022
5195.29457,0.01384
5197.22304,0.00102
5199.15151,0.00181
5201.07997,0.00602
5203.00844,0.00974
5204.93691,0.01796
5206.86538,0.03435
5208.79385,0.04696
5210.72232,0.04828
5212.65079,0.04786
5214.57925,0.04271
5216.50772,0.03686
5218.43619,0.04457
5220.36466,0.05421
5222.29313,0.05888
5224.22160,0.05821
5226.15007,0.04083
5228.07854,0.02659
5230.00700,0.02507
5231.93547,0.02372
5233.86394,0.03398
5235.79241,0.04878
5237.72088,0.04306
5239.64935,0.02341
5241.57782,0.01201
5243.50628,0.01583
5245.43475,0.02240
5247.36322,0.01934
5249.29169,0.01280
5251.22016,0.00768
5253.14863,0.00631
5255.07710,0.02160
5257.00556,0.04134
5258.93403,0.04444
5260.86250,0.04995
5262.79097,0.06869
5264.71944,0.07396
5266.64791,0.06080
5268.57638,0.04664
5270.50485,0.04426
5272.43331,0.05970
5274.36178,0.07658
5276.29025,0.07701
5278.21872,0.06586
5280.14719,0.04610
5282.07566,0.01391
5284.00413,-0.00059
5285.93259,0.02244
5287.86106,0.03893
5289.78953,0.02826
5291.71800,0.02490
5293.64647,0.03687
5295.57494,0.04321
5297.50341,0.04486
5299.43188,0.04260
5301.36034,0.02715
5303.28881,0.01800
5305.21728,0.04065
5307.14575,0.07128
5309.07422,0.06896
5311.00269,0.05169
5312.93116,0.05180
5314.85962,0.05557
5316.78809,0.04862
5318.71656,0.04031
5320.64503,0.03028
5322.57350,0.02527
5324.50197,0.03993
5326.43044,0.05182
5328.35891,0.04629
5330.28737,0.04249
5332.21584,0.03720
5334.14431,0.03635
5336.07278,0.05610
5338.00125,0.07544
5339.92972,0.08500
5341.85819,0.10109
5343.78665,0.10400
5345.71512,0.07973
5347.64359,0.05413
5349.57206,0.03557
5351.50053,0.03449
5353.42900,0.05087
5355.35747,0.04325
5357.28594,0.01328
5359.21440,0.01080
5361.14287,0.03728
5363.07134,0.05263
5364.99981,0.05391
5366.92828,0.05567
5368.85675,0.05336
5370.78522,0.04452
5372.71368,0.03588
5374.64215,0.04096
5376.57062,0.04670
5378.49909,0.02996
5380.42756,0.01934
5382.35603,0.02830
5384.28450,0.04450
5386.21297,0.06646
5388.14143,0.08239
5390.06990,0.08587
5391.99837,0.08546
5393.92684,0.08076
5395.85531,0.06552
5397.78378,0.04274
5399.71225,0.03649
5401.64071,0.06101
5403.56918,0.08882
5405.49765,0.08630
5407.42612,0.05531
5409.35459,0.02202
5411.28306,0.00809
5413.21153,0.01625
5415.13999,0.02893
5417.06846,0.03435
5418.99693,0.04631
5420.92540,0.06616
5422.85387,0.07511
5424.78234,0.07796
5426.71081,0.07455
5428.63928,0.04534
5430.56774,0.01149
5432.49621,0.00501
5434.42468,0.02395
5436.35315,0.04183
5438.28162,0.04430
5440.21009,0.05231
5442.13856,0.07499
5444.06702,0.09472
5445.99549,0.09482
5447.92396,0.06951
5449.85243,0.03724
5451.78090,0.01924
5453.70937,0.01390
5455.63784,0.02416
5457.56631,0.05286
5459.49477,0.07468
5461.42324,0.07679
5463.35171,0.07862
5465.28018,0.09381
5467.20865,0.11134
5469.13712,0.11022
5471.06559,0.08948
5472.99405,0.07412
5474.92252,0.07252
5476.85099,0.07048
5478.77946,0.06529
5480.70793,0.06960
5482.63640,0.08722
5484.56487,0.09662
5486.49334,0.08534
5488.42180,0.06989
5490.35027,0.06499
5492.27874,0.07370
5494.20721,0.07847
5496.13568,0.07067
5498.06415,0.06790
5499.99262,0.07284
5501.92108,0.07877
5503.84955,0.08883
5505.77802,0.09971
5507.70649,0.09564
5509.63496,0.07732
5511.56343,0.07105
5513.49190,0.09034
5515.42037,0.11036
5517.34883,0.09702
5519.27730,0.06417
5521.20577,0.04999
5523.13424,0.05337
5525.06271,0.05350
5526.99118,0.04352
5528.91965,0.03646
5530.84811,0.05200
5532.77658,0.07036
5534.70505,0.06534
5536.63352,0.05469
5538.56199,0.06273
5540.49046,0.08667
5542.41893,0.10898
5544.34740,0.12072
5546.27586,0.11334
5548.20433,0.07916
5550.13280,0.04760
5552.06127,0.03958
5553.98974,0.03918
5555.91821,0.04881
5557.84668,0.07730
5559.77514,0.09657
5561.70361,0.09460
5563.63208,0.08965
5565.56055,0.08091
5567.48902,0.05844
5569.41749,0.03391
5571.34596,0.02432
5573.27443,0.03693
5575.20289,0.05831
5577.13136,0.05781
5579.05983,0.04283
5580.98830,0.03512
5582.91677,0.01624
5584.84524,-0.00045
5586.77371,0.02091
5588.70217,0.04808
5590.63064,0.05488
5592.55911,0.07896
5594.48758,0.10986
5596.41605,0.10118
5598.34452,0.07766
5600.27299,0.07544
5602.20145,0.08214
5604.12992,0.08662
5606.05839,0.09005
5607.98686,0.09617
5609.91533,0.10404
5611.84380,0.09973
5613.77227,0.08162
5615.70074,0.07840
5617.62920,0.09000
5619.55767,0.08673
5621.48614,0.08020
5623.41461,0.08291
5625.34308,0.08227
5627.27155,0.07897
5629.20002,0.07038
5631.12848,0.06286
5633.05695,0.06228
5634.98542,0.05927
5636.91389,0.06978
5638.84236,0.09162
5640.77083,0.09377
5642.69930,0.08160
5644.62777,0.07001
5646.55623,0.07372
5648.48470,0.09924
5650.41317,0.11694
5652.34164,0.10870
5654.27011,0.08597
5656.19858,0.06413
5658.12705,0.05372
5660.05551,0.05680
5661.98398,0.05509
5663.91245,0.04544
5665.84092,0.04809
5667.76939,0.04372
5669.69786,0.02226
5671.62633,0.01069
5673.55480,0.02275
5675.48326,0.04837
5677.41173,0.05415
5679.34020,0.04177
5681.26867,0.03752
5683.19714,0.03801
5685.12561,0.04234
5687.05408,0.05001
5688.98254,0.05331
5690.91101,0.06168
5692.83948,0.08942
5694.76795,0.11862
5696.69642,0.11972
5698.62489,0.08982
5700.55336,0.05348
5702.48183,0.04190
5704.41029,0.05198
5706.33876,0.06175
5708.26723,0.07480
5710.19570,0.09018
5712.12417,0.09131
5714.05264,0.10132
5715.98111,0.13413
5717.90957,0.13363
5719.83804,0.08852
5721.76651,0.05835
5723.69498,0.06089
5725.62345,0.06320
5727.55192,0.04235
5729.48039,0.01927
5731.40886,0.03103
5733.33732,0.06269
5735.26579,0.07448
5737.19426,0.07656
5739.12273,0.07346
5741.05120,0.05036
5742.97967,0.04160
5744.90814,0.04655
5746.83660,0.03920
5748.76507,0.04541
5750.69354,0.05731
5752.62201,0.04056
5754.55048,0.04377
5756.47895,0.08137
5758.40742,0.09195
5760.33588,0.06939
5762.26435,0.05548
5764.19282,0.06718
5766.12129,0.09936
5768.04976,0.12358
5769.97823,0.10826
5771.90670,0.08253
5773.83517,0.08663
5775.76363,0.10607
5777.69210,0.11439
5779.62057,0.10550
5781.54904,0.09072
5783.47751,0.07999
5785.40598,0.08251
5787.33445,0.08893
5789.26291,0.06941
5791.19138,0.04122
5793.11985,0.04127
5795.04832,0.05202
5796.97679,0.05633
5798.90526,0.06421
5800.83373,0.07828
5802.76220,0.09978
5804.69066,0.10929
5806.61913,0.08492
5808.54760,0.05170
5810.47607,0.04949
5812.40454,0.06454
5814.33301,0.04861
5816.26148,0.02498
5818.18994,0.04502
5820.11841,0.07623
5822.04688,0.07084
5823.97535,0.05702
5825.90382,0.05490
5827.83229,0.06341
5829.76076,0.08490
5831.68923,0.08667
5833.61769,0.05929
5835.54616,0.04390
5837.47463,0.04827
5839.40310,0.04995
5841.33157,0.06925
5843.26004,0.10838
5845.18851,0.12294
5847.11697,0.10577
5849.04544,0.08250
5850.97391,0.09926
5852.90238,0.14814
5854.83085,0.15705
5856.75932,0.11989
5858.68779,0.08964
5860.61626,0.07494
5862.54472,0.06488
5864.47319,0.06823
5866.40166,0.06038
5868.33013,0.01345
5870.25860,-0.01165
5872.18707,0.02855
5874.11554,0.06535
5876.04400,0.05200
5877.97247,0.03342
5879.90094,0.03857
5881.82941,0.06131
5883.75788,0.10928
5885.68635,0.15968
5887.61482,0.15464
5889.54329,0.11049
5891.47175,0.09141
5893.40022,0.08700
5895.32869,0.06409
5897.25716,0.04956
5899.18563,0.05611
5901.11410,0.06049
5903.04257,0.08138
5904.97103,0.08791
5906.89950,0.02042
5908.82797,-0.05390
5910.75644,-0.03825
5912.68491,0.04204
5914.61338,0.11018
5916.54185,0.11827
5918.47032,0.07527
5920.39878,0.05048
5922.32725,0.07697
5924.25572,0.11982
5926.18419,0.13878
5928.11266,0.11192
5930.04113,0.07678
5931.96960,0.08502
5933.89806,0.11956
5935.82653,0.13982
5937.75500,0.13847
5939.68347,0.12059
5941.61194,0.09572
5943.54041,0.06921
5945.46888,0.04967
5947.39734,0.05929
5949.32581,0.08481
5951.25428,0.07869
5953.18275,0.04367
5955.11122,0.02342
5957.03969,0.03516
5958.96816,0.05965
5960.89663,0.06570
5962.82509,0.07710
5964.75356,0.10407
5966.68203,0.11245
5968.61050,0.10576
5970.53897,0.07144
5972.46744,0.01585
5974.39591,0.00758
5976.32437,0.03921
5978.25284,0.05883
5980.18131,0.06817
5982.10978,0.08000
5984.03825,0.08838
5985.96672,0.10309
5987.89519,0.12606
5989.82366,0.13399
5991.75212,0.12908
5993.68059,0.12538
5995.60906,0.10957
5997.53753,0.08437
5999.46600,0.08961
6001.39447,0.12853
6003.32294,0.15731
6005.25140,0.14759
6007.17987,0.11102
6009.10834,0.08007
6011.03681,0.08036
6012.96528,0.09661
6014.89375,0.10747
6016.82222,0.11542
6018.75069,0.11335
6020.67915,0.08568
6022.60762,0.04360
6024.53609,0.02275
6026.46456,0.03855
6028.39303,0.06983
6030.32150,0.08037
6032.24997,0.07147
6034.17843,0.05610
6036.10690,0.02328
6038.03537,0.01204
6039.96384,0.04176
6041.89231,0.06375
6043.82078,0.04753
6045.74925,0.01359
6047.67772,0.01382
6049.60618,0.05190
6051.53465,0.07919
6053.46312,0.08196
6055.39159,0.06610
6057.32006,0.04791
6059.24853,0.06647
6061.17700,0.11210
6063.10546,0.11057
6065.03393,0.06120
6066.96240,0.04470
6068.89087,0.07785
6070.81934,0.11908
6072.74781,0.15148
6074.67628,0.17260
6076.60475,0.16895
6078.53321,0.14299
6080.46168,0.10386
6082.39015,0.07215
6084.31862,0.07407
6086.24709,0.10217
6088.17556,0.12997
6090.10403,0.15291
6092.03249,0.15314
6093.96096,0.10982
6095.88943,0.06969
6097.81790,0.06900
6099.74637,0.07576
6101.67484,0.07190
6103.60331,0.05488
6105.53177,0.03995
6107.46024,0.07226
6109.38871,0.11857
6111.31718,0.11092
6113.24565,0.09451
6115.17412,0.10881
6117.10259,0.11411
6119.03106,0.08946
6120.95952,0.06962
6122.88799,0.08544
6124.81646,0.12720
6126.74493,0.15110
6128.67340,0.12519
6130.60187,0.08661
6132.53034,0.07890
6134.45880,0.06868
6136.38727,0.03635
6138.31574,0.03316
6140.24421,0.06172
6142.17268,0.06878
6144.10115,0.06389
6146.02962,0.06839
6147.95809,0.06819
6149.88655,0.07699
6151.81502,0.08763
6153.74349,0.06609
6155.67196,0.05237
6157.60043,0.08733
6159.52890,0.14459
6161.45737,0.18972
6163.38583,0.20399
6165.31430,0.16087
6167.24277,0.08253
6169.17124,0.03914
6171.09971,0.05021
6173.02818,0.06405
6174.95665,0.02818
6176.88512,-0.01801
6178.81358,-0.00174
6180.74205,0.05582
6182.67052,0.08132
6184.59899,0.04187
6186.52746,-0.01637
6188.45593,-0.02674
6190.38440,-0.01218
6192.31286,-0.01910
6194.24133,-0.03000
6196.16980,-0.02911
6198.09827,-0.02328
6200.02674,-0.00894
6201.95521,0.02151
6203.88368,0.06530
6205.81215,0.08354
6207.74061,0.06310
6209.66908,0.04263
6211.59755,0.02703
6213.52602,-0.01241
6215.45449,-0.06358
6217.38296,-0.07800
6219.31143,-0.03399
6221.23989,0.05342
6223.16836,0.13384
6225.09683,0.14846
6227.02530,0.15557
6228.95377,0.22496
6230.88224,0.28141
6232.81071,0.25451
6234.73918,0.19411
6236.66764,0.13497
6238.59611,0.07870
6240.52458,0.05909
6242.45305,0.09172
6244.38152,0.13594
6246.30999,0.15569
6248.23846,0.15430
6250.16692,0.13524
6252.09539,0.11347
6254.02386,0.11454
6255.95233,0.12639
6257.88080,0.12033
6259.80927,0.08593
6261.73774,0.04945
6263.66621,0.06171
6265.59467,0.11931
6267.52314,0.13704
6269.45161,0.10282
6271.38008,0.08685
6273.30855,0.07894
6275.23702,0.04638
6277.16549,0.03911
6279.09395,0.05673
6281.02242,0.07459
6282.95089,0.09815
6284.87936,0.09700
6286.80783,0.09076
6288.73630,0.13696
6290.66477,0.19815
6292.59323,0.18025
6294.52170,0.09109
6296.45017,0.00535
6298.37864,-0.04593
6300.30711,-0.04790
6302.23558,0.01466
6304.16405,0.09615
6306.09252,0.13442
6308.02098,0.11634
6309.94945,0.07922
6311.87792,0.05928
6313.80639,0.05821
6315.73486,0.08745
6317.66333,0.14423
6319.59180,0.16780
6321.52026,0.13196
6323.44873,0.08781
6325.37720,0.06622
6327.30567,0.06338
6329.23414,0.05706
6331.16261,0.01392
6333.09108,-0.02079
6335.01955,0.00856
6336.94801,0.05555
6338.87648,0.05548
6340.80495,0.02549
6342.73342,0.01867
6344.66189,0.02325
6346.59036,0.02103
6348.51883,0.04671
6350.44729,0.07769
6352.37576,0.05106
6354.30423,0.02104
6356.23270,0.03363
6358.16117,0.03866
6360.08964,0.01965
6362.01811,0.01275
6363.94658,0.03418
6365.87504,0.09964
6367.80351,0.16550
6369.73198,0.15046
6371.66045,0.10432
6373.58892,0.09426
6375.51739,0.09158
6377.44586,0.09476
6379.37432,0.11658
6381.30279,0.14049
6383.23126,0.16519
6385.15973,0.17791
6387.08820,0.11825
6389.01667,0.02994
6390.94514,0.03318
6392.87361,0.08381
6394.80207,0.07200
6396.73054,0.02586
6398.65901,-0.01028
6400.58748,-0.01663
6402.51595,0.02831
6404.44442,0.11983
6406.37289,0.18748
6408.30135,0.17863
6410.22982,0.16376
6412.15829,0.16086
6414.08676,0.07226
6416.01523,-0.06393
6417.94370,-0.09305
6419.87217,0.00144
6421.80064,0.08171
6423.72910,0.11025
6425.65757,0.16417
6427.58604,0.22612
6429.51451,0.19372
6431.44298,0.11605
6433.37145,0.07825
6435.29992,0.05131
6437.22838,0.03562
6439.15685,0.07997
6441.08532,0.15055
6443.01379,0.17323
6444.94226,0.17406
6446.87073,0.18680
6448.79920,0.17232
6450.72766,0.14556
6452.65613,0.12116
6454.58460,0.08283
6456.51307,0.05539
6458.44154,0.06143
6460.37001,0.07249
6462.29848,0.05385
6464.22695,0.02967
6466.15541,0.02238
6468.08388,-0.00157
6470.01235,-0.01954
6471.94082,0.02558
6473.86929,0.08182
6475.79776,0.09170
6477.72623,0.10538
6479.65469,0.13883
6481.58316,0.12767
6483.51163,0.11109
6485.44010,0.12815
6487.36857,0.11134
6489.29704,0.06362
6491.22551,0.07995
6493.15398,0.17114
6495.08244,0.21415
6497.01091,0.17759
6498.93938,0.16760
6500.86785,0.20911
6502.79632,0.22533
6504.72479,0.20751
6506.65326,0.18371
6508.58172,0.15432
6510.51019,0.09969
6512.43866,0.01264
6514.36713,-0.04249
6516.29560,-0.03252
6518.22407,-0.00549
6520.15254,0.03657
6522.08101,0.09134
6524.00947,0.08965
6525.93794,0.05279
6527.86641,0.08244
6529.79488,0.14813
6531.72335,0.15786
6533.65182,0.14506
6535.58029,0.18162
6537.50875,0.23433
6539.43722,0.25232
6541.36569,0.19496
6543.29416,0.05787
6545.22263,-0.05377
6547.15110,-0.08636
6549.07957,-0.07537
6551.00804,-0.01572
6552.93650,0.08531
6554.86497,0.16842
6556.79344,0.19797
6558.72191,0.20147
6560.65038,0.19718
6562.57885,0.16676
6564.50732,0.13810
6566.43578,0.12943
6568.36425,0.10764
6570.29272,0.10970
6572.22119,0.15642
6574.14966,0.17867
6576.07813,0.16992
6578.00660,0.17781
6579.93507,0.16364
6581.86353,0.10421
6583.79200,0.06866
6585.72047,0.05289
6587.64894,0.01324
6589.57741,-0.01350
6591.50588,-0.00086
6593.43435,0.01537
6595.36281,0.01894
6597.29128,0.02934
6599.21975,0.04387
6601.14822,0.04519
6603.07669,0.03663
6605.00516,0.04671
6606.93363,0.07270
6608.86210,0.07860
6610.79056,0.07050
6612.71903,0.10331
6614.64750,0.15162
6616.57597,0.14377
6618.50444,0.10987
6620.43291,0.08228
6622.36138,0.05876
6624.28984,0.07027
6626.21831,0.11201
6628.14678,0.14602
6630.07525,0.12884
6632.00372,0.05554
6633.93219,0.00848
6635.86066,0.02512
6637.78912,0.03291
6639.71759,0.00679
6641.64606,-0.03829
6643.57453,-0.08173
6645.50300,-0.05068
6647.43147,0.06658
6649.35994,0.15497
6651.28841,0.15915
6653.21687,0.14427
6655.14534,0.13849
6657.07381,0.11040
6659.00228,0.04822
6660.93075,-0.02234
6662.85922,-0.05244
6664.78769,-0.05825
6666.71615,-0.04445
6668.64462,-0.00910
6670.57309,-0.00858
6672.50156,0.00776
6674.43003,0.08085
6676.35850,0.11562
6678.28697,0.10063
6680.21544,0.04073
6682.14390,-0.05706
6684.07237,-0.08355
6686.00084,-0.00993
6687.92931,0.04654
6689.85778,0.01691
6691.78625,-0.01790
6693.71472,-0.01358
6695.64318,-0.00175
6697.57165,0.03178
6699.50012,0.04379
6701.42859,-0.03187
6703.35706,-0.09275
6705.28553,-0.08236
6707.21400,-0.02357
6709.14247,0.09141
6711.07093,0.10266
6712.99940,-0.03686
6714.92787,-0.10509
6716.85634,-0.01339
6718.78481,0.08659
6720.71328,0.09155
6722.64175,0.04203
6724.57021,0.07560
6726.49868,0.18805
6728.42715,0.19968
6730.35562,0.06928
6732.28409,-0.02788
6734.21256,0.01727
6736.14103,0.12460
6738.06950,0.18461
6739.99796,0.19160
6741.92643,0.12247
6743.85490,0.00513
6745.78337,-0.04371
6747.71184,0.03404
6749.64031,0.16004
6751.56878,0.14198
6753.49724,0.01701
6755.42571,0.00883
6757.35418,0.10633
6759.28265,0.18014
6761.21112,0.16966
6763.13959,0.09046
6765.06806,0.00180
6766.99653,-0.06833
6768.92499,-0.07429
6770.85346,-0.01440
6772.78193,0.01284
6774.71040,0.00534
6776.63887,0.00446
6778.56734,0.00524
6780.49581,0.02535
6782.42427,0.05332
6784.35274,0.10763
6786.28121,0.18288
6788.20968,0.19397
6790.13815,0.15149
6792.06662,0.13512
6793.99509,0.12544
6795.92355,0.07223
6797.85202,0.00172
6799.78049,-0.03751
6801.70896,-0.02327
6803.63743,-0.00272
6805.56590,0.01827
6807.49437,0.06456
6809.42284,0.08251
6811.35130,0.05908
6813.27977,0.05300
6815.20824,0.08463
6817.13671,0.09098
6819.06518,0.04682
6820.99365,0.00384
6822.92212,-0.01243
6824.85058,0.01856
6826.77905,0.10897
6828.70752,0.17842
6830.63599,0.15063
6832.56446,0.10937
6834.49293,0.10589
6836.42140,0.12049
6838.34987,0.15722
6840.27833,0.20599
6842.20680,0.24298
6844.13527,0.20257
6846.06374,0.08443
6847.99221,0.02882
6849.92068,0.05729
6851.84915,0.05378
6853.77761,0.03697
6855.70608,0.03715
6857.63455,0.05083
6859.56302,0.08763
6861.49149,0.15819
6863.41996,0.20919
6865.34843,0.19178
6867.27690,0.16344
6869.20536,0.12047
6871.13383,0.02359
6873.06230,-0.04035
6874.99077,-0.01366
6876.91924,0.00460
6878.84771,-0.03615
6880.77618,-0.06151
6882.70464,-0.03575
6884.63311,0.02387
6886.56158,0.11048
6888.49005,0.14747
6890.41852,0.12309
6892.34699,0.13388
6894.27546,0.21263
6896.20393,0.25967
6898.13239,0.17823
6900.06086,0.07854
6901.98933,0.06921
6903.91780,0.10489
6905.84627,0.11803
6907.77474,0.06227
6909.70321,-0.00763
6911.63167,0.01077
6913.56014,0.09173
6915.48861,0.17257
6917.41708,0.29268
6919.34555,0.40828
6921.27402,0.38185
6923.20249,0.23539
6925.13096,0.08701
6927.05942,0.00015
6928.98789,-0.01966
6930.91636,0.04756
6932.84483,0.14505
6934.77330,0.11810
6936.70177,0.02299
6938.63024,0.01219
6940.55870,0.09143
6942.48717,0.17225
6944.41564,0.25639
6946.34411,0.29322
6948.27258,0.25664
6950.20105,0.23631
6952.12952,0.21143
6954.05799,0.14176
6955.98645,0.11875
6957.91492,0.14712
6959.84339,0.12341
6961.77186,0.05854
6963.70033,0.05390
6965.62880,0.12485
6967.55727,0.14342
6969.48573,0.03306
6971.41420,-0.06655
6973.34267,-0.09055
6975.27114,-0.09419
6977.19961,0.00174
6979.12808,0.22109
6981.05655,0.37982
6982.98501,0.29698
6984.91348,0.09580
6986.84195,0.02292
6988.77042,0.04187
6990.69889,0.02959
6992.62736,0.02990
6994.55583,0.09568
6996.48430,0.17907
6998.41276,0.15425
7000.34123,-0.00228
7002.26970,-0.08385
7004.19817,0.02421
7006.12664,0.14174
7008.05511,0.04188
7009.98358,-0.14095
7011.91204,-0.19969
7013.84051,-0.09764
7015.76898,0.08462
7017.69745,0.15442
7019.62592,0.08396
7021.55439,0.04993
7023.48286,0.04065
7025.41133,-0.04091
7027.33979,-0.11167
7029.26826,-0.08380
7031.19673,0.00827
7033.12520,0.14381
7035.05367,0.24316
7036.98214,0.14893
7038.91061,0.00311
7040.83907,-0.03051
7042.76754,0.02843
7044.69601,0.12419
7046.62448,0.17689
7048.55295,0.15891
7050.48142,0.17165
7052.40989,0.18885
7054.33836,0.10874
7056.26682,-0.00429
7058.19529,0.02307
7060.12376,0.16168
7062.05223,0.24789
7063.98070,0.23649
7065.90917,0.15212
7067.83764,0.00423
7069.76610,-0.14894
7071.69457,-0.16470
7073.62304,-0.05395
7075.55151,0.06986
7077.47998,0.15166
7079.40845,0.17077
7081.33692,0.12912
7083.26539,0.06412
7085.19385,0.02863
7087.12232,0.05965
7089.05079,0.15267
7090.97926,0.16917
7092.90773,0.06005
7094.83620,0.04446
7096.76467,0.23104
7098.69313,0.38500
7100.62160,0.31479
7102.55007,0.14757
7104.47854,0.02878
7106.40701,0.04366
7108.33548,0.10654
7110.26395,0.09666
7112.19242,0.04018
7114.12088,0.01068
7116.04935,0.04280
7117.97782,0.10508
7119.90629,0.12515
7121.83476,0.08170
7123.76323,-0.00163
7125.69170,-0.07341
7127.62016,-0.03755
7129.54863,0.08158
7131.47710,0.12357
7133.40557,0.10909
7135.33404,0.15657
7137.26251,0.20802
7139.19098,0.17742
7141.11944,0.10782
7143.04791,0.05790
7144.97638,0.00976
7146.90485,0.01096
7148.83332,0.09502
7150.76179,0.16742
7152.69026,0.15999
7154.61873,0.09662
7156.54719,0.06570
7158.47566,0.13812
7160.40413,0.26984
7162.33260,0.30439
7164.26107,0.17631
7166.18954,0.04633
7168.11801,0.13169
7170.04647,0.33550
7171.97494,0.32896
7173.90341,0.10839
7175.83188,-0.03306
7177.76035,0.02502
7179.68882,0.03640
7181.61729,-0.10015
7183.54576,-0.19063
7185.47422,-0.16755
7187.40269,-0.05989
7189.33116,0.09666
7191.25963,0.05844
7193.18810,-0.10974
7195.11657,-0.06854
7197.04504,0.04892
7198.97350,0.07368
7200.90197,0.10577
7202.83044,0.16268
7204.75891,0.17877
7206.68738,0.14197
7208.61585,0.05333
7210.54432,-0.03406
7212.47279,-0.03428
7214.40125,0.04717
7216.32972,0.12091
7218.25819,0.03086
7220.18666,-0.11239
7222.11513,-0.09803
7224.04360,-0.02052
7225.97207,0.03312
7227.90053,0.09648
7229.82900,0.12296
7231.75747,-0.00020
7233.68594,-0.13791
7235.61441,-0.13790
7237.54288,-0.07538
7239.47135,-0.01451
7241.39982,0.10140
7243.32828,0.18078
7245.25675,0.11970
7247.18522,0.01366
7249.11369,-0.11805
7251.04216,-0.13315
7252.97063,0.04112
7254.89910,0.02260
7256.82756,-0.17251
7258.75603,-0.26599
7260.68450,-0.15957
7262.61297,0.10584
7264.54144,0.29589
7266.46991,0.24056
7268.39838,0.12747
7270.32685,0.05614
7272.25531,-0.06501
7274.18378,-0.18738
7276.11225,-0.24166
7278.04072,-0.24164
7279.96919,-0.13509
7281.89766,0.05297
7283.82613,0.14991
7285.75459,0.09298
7287.68306,-0.01627
7289.61153,-0.09223
7291.54000,-0.07973
7293.46847,0.06624
7295.39694,0.21500
7297.32541,0.25021
7299.25387,0.17369
7301.18234,0.01845
7303.11081,-0.09895
7305.03928,-0.05543
7306.96775,0.13459
7308.89622,0.21876
7310.82469,-0.01048
7312.75316,-0.24033
7314.68162,-0.24213
7316.61009,-0.10000
7318.53856,-0.11554
7320.46703,-0.17524
7322.39550,-0.03297
7324.32397,0.18774
7326.25244,0.34060
7328.18090,0.38427
7330.10937,0.23214
7332.03784,0.14603
7333.96631,0.22458
7335.89478,0.23609
7337.82325,0.13812
7339.75172,0.09799
7341.68019,0.16976
7343.60865,0.08180
7345.53712,-0.06520
7347.46559,0.02986
7349.39406,0.21880
7351.32253,0.21458
7353.25100,0.15725
7355.17947,0.16635
7357.10793,0.16641
7359.03640,0.12671
7360.96487,0.06197
7362.89334,0.02358
7364.82181,0.04256
7366.75028,0.06630
7368.67875,0.03951
7370.60722,0.00711
7372.53568,0.04482
7374.46415,0.11273
7376.39262,0.11774
7378.32109,0.03264
7380.24956,-0.10906
7382.17803,-0.16616
7384.10650,-0.03123
7386.03496,0.19200
7387.96343,0.33967
7389.89190,0.34574
7391.82037,0.24101
7393.74884,0.14221
7395.67731,0.16426
7397.60578,0.26568
7399.53425,0.28367
7401.46271,0.07045
7403.39118,-0.16299
7405.31965,-0.06191
7407.24812,0.05897
7409.17659,-0.01258
7411.10506,-0.04670
7413.03353,-0.00615
7414.96199,0.02215
7416.89046,0.05064
7418.81893,0.07225
7420.74740,0.07074
7422.67587,0.16681
7424.60434,0.30684
7426.53281,0.34200
7428.46128,0.31981
7430.38974,0.32751
7432.31821,0.29644
7434.24668,0.17866
7436.17515,0.04786
7438.10362,-0.01586
7440.03209,0.01214
7441.96056,0.15540
7443.88902,0.37463
7445.81749,0.50342
7447.74596,0.43503
7449.67443,0.19994
7451.60290,-0.01043
7453.53137,-0.00453
7455.45984,0.00701
7457.38831,-0.06152
7459.31677,-0.03977
7461.24524,0.01514
7463.17371,0.02916
7465.10218,0.07810
7467.03065,0.11519
7468.95912,0.15571
7470.88759,0.12109
7472.81605,-0.07113
7474.74452,-0.18179
7476.67299,-0.10408
7478.60146,0.02634
7480.52993,0.13246
7482.45840,0.15807
7484.38687,0.06947
7486.31533,-0.01679
7488.24380,0.05209
7490.17227,0.18874
7492.10074,0.13874
7494.02921,0.08092
7495.95768,0.21789
7497.88615,0.48577
