399.19301,2.75182
401.12148,0.53955
403.04995,-0.04366
404.97842,-0.02682
406.90689,0.16868
408.83536,0.26561
410.76382,0.23115
412.69229,0.14528
414.62076,0.15151
416.54923,0.29758
418.47770,0.29858
420.40617,0.05422
422.33464,-0.01178
424.26311,0.02182
426.19157,0.00357
428.12004,-0.02175
430.04851,0.01241
431.97698,0.06470
433.90545,0.07807
435.83392,0.08136
437.76239,0.05792
439.69085,0.01034
441.61932,0.01095
443.54779,0.08639
445.47626,0.15759
447.40473,0.18318
449.33320,0.16861
451.26167,0.15067
453.19013,0.14142
455.11860,0.13256
457.04707,0.13645
458.97554,0.12994
460.90401,0.10789
462.83248,0.09452
464.76095,0.07627
466.68942,0.07837
468.61788,0.13371
470.54635,0.25781
472.47482,0.55046
474.40329,0.78472
476.33176,0.50753
478.26023,0.17090
480.18870,0.02612
482.11716,0.05014
484.04563,0.12582
485.97410,0.16534
487.90257,0.16097
489.83104,0.11981
491.75951,0.10267
493.68798,0.11380
495.61645,0.09290
497.54491,0.07329
499.47338,0.06468
501.40185,0.02210
503.33032,-0.00407
505.25879,0.03333
507.18726,0.09713
509.11573,0.15695
511.04419,0.19677
512.97266,0.18706
514.90113,0.13930
516.82960,0.11220
518.75807,0.12662
520.68654,0.14342
522.61501,0.13971
524.54348,0.11456
526.47194,0.06412
528.40041,0.03023
530.32888,0.05593
532.25735,0.10196
534.18582,0.11696
536.11429,0.10673
538.04276,0.09202
539.97122,0.08899
541.89969,0.10419
543.82816,0.14243
545.75663,0.17777
547.68510,0.17471
549.61357,0.14371
551.54204,0.05656
553.47051,-0.04657
555.39897,-0.01994
557.32744,0.09015
559.25591,0.12703
561.18438,0.10326
563.11285,0.10467
565.04132,0.15343
566.96979,0.18096
568.89825,0.15024
570.82672,0.13170
572.75519,0.15200
574.68366,0.16423
576.61213,0.15068
578.54060,0.14218
580.46907,0.14880
582.39754,0.15426
584.32600,0.15045
586.25447,0.13571
588.18294,0.11476
590.11141,0.10748
592.03988,0.11877
593.96835,0.12084
595.89682,0.11240
597.82528,0.11665
599.75375,0.13114
601.68222,0.13842
603.61069,0.13338
605.53916,0.13151
607.46763,0.14241
609.39610,0.14891
611.32456,0.13323
613.25303,0.10451
615.18150,0.08290
617.10997,0.07978
619.03844,0.09115
620.96691,0.09613
622.89538,0.08799
624.82385,0.07750
626.75231,0.07197
628.68078,0.07522
630.60925,0.09124
632.53772,0.12208
634.46619,0.14628
636.39466,0.14109
638.32313,0.11537
640.25159,0.08941
642.18006,0.08352
644.10853,0.09880
646.03700,0.11883
647.96547,0.13075
649.89394,0.13322
651.82241,0.14172
653.75088,0.15218
655.67934,0.14214
657.60781,0.12352
659.53628,0.11834
661.46475,0.11632
663.39322,0.11193
665.32169,0.11855
667.25016,0.13586
669.17862,0.14307
671.10709,0.13949
673.03556,0.14109
674.96403,0.14725
676.89250,0.15312
678.82097,0.14811
680.74944,0.13208
682.67791,0.12472
684.60637,0.12830
686.53484,0.13825
688.46331,0.15271
690.39178,0.15477
692.32025,0.14866
694.24872,0.14584
696.17719,0.14107
698.10565,0.13218
700.03412,0.12387
701.96259,0.12398
703.89106,0.12783
705.81953,0.12636
707.74800,0.12201
709.67647,0.11298
711.60494,0.10196
713.53340,0.10822
715.46187,0.13069
717.39034,0.14232
719.31881,0.13610
721.24728,0.12788
723.17575,0.13190
725.10422,0.14138
727.03268,0.13928
728.96115,0.12798
730.88962,0.12287
732.81809,0.13257
734.74656,0.14556
736.67503,0.14227
738.60350,0.12829
740.53197,0.12108
742.46043,0.12156
744.38890,0.12678
746.31737,0.13291
748.24584,0.12979
750.17431,0.12517
752.10278,0.13040
754.03125,0.13782
755.95971,0.14522
757.88818,0.15361
759.81665,0.15189
761.74512,0.13886
763.67359,0.12577
765.60206,0.11505
767.53053,0.11077
769.45900,0.11467
771.38746,0.11596
773.31593,0.11738
775.24440,0.12641
777.17287,0.13612
779.10134,0.13852
781.02981,0.13343
782.95828,0.13046
784.88674,0.13404
786.81521,0.13658
788.74368,0.13585
790.67215,0.13753
792.60062,0.14572
794.52909,0.14943
796.45756,0.14043
798.38602,0.13506
800.31449,0.13144
802.24296,0.11720
804.17143,0.10785
806.09990,0.10926
808.02837,0.11130
809.95684,0.11269
811.88531,0.11501
813.81377,0.11657
815.74224,0.11388
817.67071,0.10893
819.59918,0.10671
821.52765,0.11200
823.45612,0.12400
825.38459,0.13220
827.31305,0.13759
829.24152,0.14894
831.16999,0.15882
833.09846,0.15322
835.02693,0.13451
836.95540,0.12581
838.88387,0.13466
840.81234,0.14165
842.74080,0.14124
844.66927,0.14359
846.59774,0.15022
848.52621,0.15357
850.45468,0.14854
852.38315,0.14225
854.31162,0.14393
856.24008,0.14882
858.16855,0.14295
860.09702,0.12715
862.02549,0.11678
863.95396,0.12038
865.88243,0.13600
867.81090,0.15692
869.73937,0.17448
871.66783,0.17237
873.59630,0.15512
875.52477,0.15055
877.45324,0.15478
879.38171,0.15367
881.31018,0.15690
883.23865,0.16268
885.16711,0.15867
887.09558,0.14875
889.02405,0.14400
890.95252,0.14392
892.88099,0.13704
894.80946,0.12737
896.73793,0.13075
898.66640,0.13906
900.59486,0.13732
902.52333,0.13454
904.45180,0.14328
906.38027,0.15440
908.30874,0.15980
910.23721,0.16247
912.16568,0.15857
914.09414,0.15030
916.02261,0.14644
917.95108,0.14469
919.87955,0.14174
921.80802,0.13915
923.73649,0.13632
925.66496,0.13881
927.59343,0.14796
929.52189,0.15035
931.45036,0.14646
933.37883,0.14615
935.30730,0.14558
937.23577,0.14109
939.16424,0.13756
941.09271,0.13578
943.02117,0.13448
944.94964,0.13871
946.87811,0.14429
948.80658,0.14143
950.73505,0.13695
952.66352,0.14198
954.59199,0.15323
956.52045,0.15853
958.44892,0.15419
960.37739,0.14960
962.30586,0.15157
964.23433,0.15328
966.16280,0.15125
968.09127,0.15049
970.01974,0.15130
971.94820,0.15103
973.87667,0.14817
975.80514,0.14564
977.73361,0.14694
979.66208,0.15029
981.59055,0.15492
983.51902,0.15889
985.44748,0.15832
987.37595,0.15509
989.30442,0.15124
991.23289,0.14570
993.16136,0.14152
995.08983,0.14098
997.01830,0.14148
998.94677,0.14385
1000.87523,0.15116
1002.80370,0.15838
1004.73217,0.15921
1006.66064,0.15841
1008.58911,0.15515
1010.51758,0.14495
1012.44605,0.14028
1014.37451,0.14556
1016.30298,0.15084
1018.23145,0.15745
1020.15992,0.16646
1022.08839,0.16669
1024.01686,0.15619
1025.94533,0.15267
1027.87380,0.16176
1029.80226,0.16419
1031.73073,0.15342
1033.65920,0.14657
1035.58767,0.15110
1037.51614,0.15462
1039.44461,0.14898
1041.37308,0.14215
1043.30154,0.14316
1045.23001,0.14726
1047.15848,0.14525
1049.08695,0.14333
1051.01542,0.14749
1052.94389,0.15301
1054.87236,0.15835
1056.80083,0.16037
1058.72929,0.15815
1060.65776,0.15691
1062.58623,0.16155
1064.51470,0.17319
1066.44317,0.17874
1068.37164,0.17383
1070.30011,0.17275
1072.22857,0.17248
1074.15704,0.16371
1076.08551,0.15420
1078.01398,0.15049
1079.94245,0.15138
1081.87092,0.15489
1083.79939,0.15801
1085.72786,0.15474
1087.65632,0.14967
1089.58479,0.15549
1091.51326,0.16618
1093.44173,0.17119
1095.37020,0.17300
1097.29867,0.17100
1099.22714,0.16420
1101.15560,0.15997
1103.08407,0.16104
1105.01254,0.16162
1106.94101,0.16044
1108.86948,0.16029
1110.79795,0.16267
1112.72642,0.16791
1114.65489,0.17082
1116.58335,0.16787
1118.51182,0.16559
1120.44029,0.16685
1122.36876,0.16473
1124.29723,0.15885
1126.22570,0.15904
1128.15417,0.16451
1130.08263,0.16178
1132.01110,0.15276
1133.93957,0.14756
1135.86804,0.14584
1137.79651,0.15105
1139.72498,0.16111
1141.65345,0.16452
1143.58191,0.16376
1145.51038,0.16455
1147.43885,0.16500
1149.36732,0.16544
1151.29579,0.16658
1153.22426,0.16658
1155.15273,0.16316
1157.08120,0.15881
1159.00966,0.16056
1160.93813,0.16773
1162.86660,0.17281
1164.79507,0.17241
1166.72354,0.16838
1168.65201,0.16656
1170.58048,0.16786
1172.50894,0.16580
1174.43741,0.16331
1176.36588,0.16704
1178.29435,0.16920
1180.22282,0.16668
1182.15129,0.16636
1184.07976,0.16354
1186.00823,0.15647
1187.93669,0.15603
1189.86516,0.16066
1191.79363,0.15868
1193.72210,0.15547
1195.65057,0.16154
1197.57904,0.16862
1199.50751,0.16770
1201.43597,0.16397
1203.36444,0.16343
1205.29291,0.16398
1207.22138,0.16200
1209.14985,0.15894
1211.07832,0.15698
1213.00679,0.15713
1214.93526,0.15959
1216.86372,0.16285
1218.79219,0.16535
1220.72066,0.16711
1222.64913,0.17004
1224.57760,0.17318
1226.50607,0.17102
1228.43454,0.16431
1230.36300,0.16293
1232.29147,0.16806
1234.21994,0.17063
1236.14841,0.17087
1238.07688,0.17188
1240.00535,0.16954
1241.93382,0.16533
1243.86229,0.16353
1245.79075,0.16408
1247.71922,0.16649
1249.64769,0.16850
1251.57616,0.16835
1253.50463,0.16821
1255.43310,0.17002
1257.36157,0.17002
1259.29003,0.16519
1261.21850,0.16012
1263.14697,0.15772
1265.07544,0.15469
1267.00391,0.15228
1268.93238,0.15597
1270.86085,0.16511
1272.78932,0.17322
1274.71778,0.17413
1276.64625,0.17083
1278.57472,0.16858
1280.50319,0.16605
1282.43166,0.16571
1284.36013,0.17039
1286.28860,0.17338
1288.21706,0.17143
1290.14553,0.17005
1292.07400,0.16947
1294.00247,0.16833
1295.93094,0.16855
1297.85941,0.16942
1299.78788,0.16760
1301.71634,0.15804
1303.64481,0.14436
1305.57328,0.14154
1307.50175,0.15485
1309.43022,0.16942
1311.35869,0.17434
1313.28716,0.17479
1315.21563,0.17434
1317.14409,0.17409
1319.07256,0.17527
1321.00103,0.17428
1322.92950,0.17157
1324.85797,0.16988
1326.78644,0.16766
1328.71491,0.16637
1330.64337,0.16441
1332.57184,0.16043
1334.50031,0.15969
1336.42878,0.16275
1338.35725,0.16817
1340.28572,0.17200
1342.21419,0.17570
1344.14266,0.18241
1346.07112,0.18528
1347.99959,0.18032
1349.92806,0.16974
1351.85653,0.16294
1353.78500,0.16253
1355.71347,0.16230
1357.64194,0.16322
1359.57040,0.16561
1361.49887,0.16678
1363.42734,0.16664
1365.35581,0.16901
1367.28428,0.17171
1369.21275,0.17027
1371.14122,0.17068
1373.06969,0.17783
1374.99815,0.18404
1376.92662,0.18380
1378.85509,0.18143
1380.78356,0.17779
1382.71203,0.17588
1384.64050,0.17913
1386.56897,0.18399
1388.49743,0.18410
1390.42590,0.18079
1392.35437,0.18117
1394.28284,0.18643
1396.21131,0.19078
1398.13978,0.19059
1400.06825,0.18552
1401.99672,0.17863
1403.92518,0.17653
1405.85365,0.17988
1407.78212,0.18321
1409.71059,0.18432
1411.63906,0.18287
1413.56753,0.18109
1415.49600,0.18420
1417.42446,0.19450
1419.35293,0.20183
1421.28140,0.19913
1423.20987,0.19510
1425.13834,0.18946
1427.06681,0.18580
1428.99528,0.18730
1430.92375,0.18653
1432.85221,0.18288
1434.78068,0.18462
1436.70915,0.19004
1438.63762,0.18902
1440.56609,0.18540
1442.49456,0.18349
1444.42303,0.18477
1446.35149,0.19102
1448.27996,0.19592
1450.20843,0.19473
1452.13690,0.19576
1454.06537,0.20409
1455.99384,0.21937
1457.92231,0.22179
1459.85077,0.20162
1461.77924,0.18949
1463.70771,0.18841
1465.63618,0.18693
1467.56465,0.18380
1469.49312,0.18888
1471.42159,0.20272
1473.35006,0.21338
1475.27852,0.21094
1477.20699,0.20357
1479.13546,0.19647
1481.06393,0.19056
1482.99240,0.18768
1484.92087,0.19232
1486.84934,0.20467
1488.77780,0.21360
1490.70627,0.20639
1492.63474,0.19819
1494.56321,0.20171
1496.49168,0.21196
1498.42015,0.21513
1500.34862,0.20995
1502.27709,0.20749
1504.20555,0.21648
1506.13402,0.23983
1508.06249,0.24139
1509.99096,0.21952
1511.91943,0.20672
1513.84790,0.20534
1515.77637,0.21118
1517.70483,0.21398
1519.63330,0.21209
1521.56177,0.21482
1523.49024,0.22060
1525.41871,0.22218
1527.34718,0.21662
1529.27565,0.21010
1531.20412,0.21357
1533.13258,0.22396
1535.06105,0.22550
1536.98952,0.22458
1538.91799,0.23483
1540.84646,0.24534
1542.77493,0.23378
1544.70340,0.21539
1546.63186,0.20388
1548.56033,0.20463
1550.48880,0.20958
1552.41727,0.21133
1554.34574,0.21427
1556.27421,0.22570
1558.20268,0.24696
1560.13115,0.23272
1562.05961,0.20717
1563.98808,0.19836
1565.91655,0.19718
1567.84502,0.20102
1569.77349,0.20372
1571.70196,0.19918
1573.63043,0.19921
1575.55889,0.20365
1577.48736,0.19629
1579.41583,0.18466
1581.34430,0.18066
1583.27277,0.18112
1585.20124,0.18160
1587.12971,0.18161
1589.05818,0.18038
1590.98664,0.17720
1592.91511,0.17563
1594.84358,0.17774
1596.77205,0.17919
1598.70052,0.17902
1600.62899,0.18074
1602.55746,0.18361
1604.48592,0.18592
1606.41439,0.18787
1608.34286,0.18847
1610.27133,0.18672
1612.19980,0.18486
1614.12827,0.18839
1616.05674,0.19952
1617.98521,0.20257
1619.91367,0.19619
1621.84214,0.19602
1623.77061,0.20056
1625.69908,0.20290
1627.62755,0.20308
1629.55602,0.19898
1631.48449,0.19610
1633.41295,0.20500
1635.34142,0.22353
1637.26989,0.22238
1639.19836,0.20813
1641.12683,0.19960
1643.05530,0.20028
1644.98377,0.21174
1646.91223,0.22485
1648.84070,0.22686
1650.76917,0.23495
1652.69764,0.25294
1654.62611,0.23485
1656.55458,0.20761
1658.48305,0.19936
1660.41152,0.20554
1662.33998,0.21414
1664.26845,0.20966
1666.19692,0.20422
1668.12539,0.21136
1670.05386,0.21977
1671.98233,0.21579
1673.91080,0.21129
1675.83926,0.20647
1677.76773,0.20119
1679.69620,0.20170
1681.62467,0.21017
1683.55314,0.22581
1685.48161,0.22831
1687.41008,0.21622
1689.33855,0.20418
1691.26701,0.19620
1693.19548,0.19926
1695.12395,0.21522
1697.05242,0.23349
1698.98089,0.24423
1700.90936,0.23894
1702.83783,0.22347
1704.76629,0.21666
1706.69476,0.21336
1708.62323,0.20753
1710.55170,0.20291
1712.48017,0.20272
1714.40864,0.21201
1716.33711,0.22886
1718.26558,0.22630
1720.19404,0.20903
1722.12251,0.19960
1724.05098,0.19631
1725.97945,0.19786
1727.90792,0.20370
1729.83639,0.21063
1731.76486,0.21780
1733.69332,0.21779
1735.62179,0.20553
1737.55026,0.20099
1739.47873,0.20613
1741.40720,0.21079
1743.33567,0.20938
1745.26414,0.20601
1747.19261,0.20773
1749.12107,0.21196
1751.04954,0.20638
1752.97801,0.19657
1754.90648,0.19255
1756.83495,0.19290
1758.76342,0.19346
1760.69189,0.19416
1762.62035,0.19495
1764.54882,0.19392
1766.47729,0.19391
1768.40576,0.19723
1770.33423,0.20582
1772.26270,0.21409
1774.19117,0.20890
1776.11964,0.19983
1778.04810,0.19714
1779.97657,0.19796
1781.90504,0.19562
1783.83351,0.19296
1785.76198,0.19304
1787.69045,0.19384
1789.61892,0.19936
1791.54738,0.20882
1793.47585,0.20901
1795.40432,0.20397
1797.33279,0.20436
1799.26126,0.20628
1801.18973,0.20281
1803.11820,0.19591
1805.04666,0.18982
1806.97513,0.18456
1808.90360,0.18430
1810.83207,0.19095
1812.76054,0.19427
1814.68901,0.19021
1816.61748,0.18240
1818.54595,0.17255
1820.47441,0.16746
1822.40288,0.17445
1824.33135,0.18850
1826.25982,0.19758
1828.18829,0.20197
1830.11676,0.20294
1832.04523,0.19782
1833.97369,0.19388
1835.90216,0.19312
1837.83063,0.19177
1839.75910,0.19143
1841.68757,0.19598
1843.61604,0.20156
1845.54451,0.19939
1847.47298,0.19323
1849.40144,0.18922
1851.32991,0.18563
1853.25838,0.18244
1855.18685,0.18386
1857.11532,0.18743
1859.04379,0.18831
1860.97226,0.18838
1862.90072,0.18914
1864.82919,0.19273
1866.75766,0.20096
1868.68613,0.20489
1870.61460,0.19879
1872.54307,0.19240
1874.47154,0.18853
1876.40001,0.18700
1878.32847,0.18829
1880.25694,0.18946
1882.18541,0.18973
1884.11388,0.18945
1886.04235,0.18913
1887.97082,0.19044
1889.89929,0.19116
1891.82775,0.19105
1893.75622,0.19346
1895.68469,0.19582
1897.61316,0.19442
1899.54163,0.19070
1901.47010,0.18696
1903.39857,0.18509
1905.32704,0.18657
1907.25550,0.19094
1909.18397,0.19503
1911.11244,0.19567
1913.04091,0.19348
1914.96938,0.19072
1916.89785,0.18830
1918.82632,0.18656
1920.75478,0.18809
1922.68325,0.19188
1924.61172,0.19160
1926.54019,0.18904
1928.46866,0.18862
1930.39713,0.18715
1932.32560,0.18481
1934.25407,0.18615
1936.18253,0.18874
1938.11100,0.18904
1940.03947,0.19006
1941.96794,0.19282
1943.89641,0.19273
1945.82488,0.18875
1947.75335,0.18530
1949.68181,0.18484
1951.61028,0.18637
1953.53875,0.18921
1955.46722,0.19227
1957.39569,0.19265
1959.32416,0.19068
1961.25263,0.19015
1963.18110,0.19135
1965.10956,0.19084
1967.03803,0.18773
1968.96650,0.18655
1970.89497,0.18895
1972.82344,0.19089
1974.75191,0.19053
1976.68038,0.18795
1978.60884,0.18621
1980.53731,0.18977
1982.46578,0.19484
1984.39425,0.19484
1986.32272,0.19087
1988.25119,0.18809
1990.17966,0.18922
1992.10812,0.19244
1994.03659,0.19306
1995.96506,0.19078
1997.89353,0.19008
1999.82200,0.19211
2001.75047,0.19373
2003.67894,0.19269
2005.60741,0.19021
2007.53587,0.19108
2009.46434,0.19537
2011.39281,0.19598
2013.32128,0.19291
2015.24975,0.19318
2017.17822,0.19538
2019.10669,0.19320
2021.03515,0.18821
2022.96362,0.18542
2024.89209,0.18497
2026.82056,0.18502
2028.74903,0.18580
2030.67750,0.18709
2032.60597,0.18726
2034.53444,0.18638
2036.46290,0.18678
2038.39137,0.18798
2040.31984,0.18915
2042.24831,0.19307
2044.17678,0.19631
2046.10525,0.19407
2048.03372,0.19159
2049.96218,0.19101
2051.89065,0.18835
2053.81912,0.18632
2055.74759,0.18823
2057.67606,0.19125
2059.60453,0.19177
2061.53300,0.19035
2063.46147,0.19091
2065.38993,0.19322
2067.31840,0.19366
2069.24687,0.19244
2071.17534,0.19181
2073.10381,0.19243
2075.03228,0.19440
2076.96075,0.19643
2078.88921,0.19440
2080.81768,0.18906
2082.74615,0.18674
2084.67462,0.18790
2086.60309,0.18937
2088.53156,0.18946
2090.46003,0.18760
2092.38850,0.18698
2094.31696,0.18844
2096.24543,0.18862
2098.17390,0.18781
2100.10237,0.18834
2102.03084,0.19017
2103.95931,0.19042
2105.88778,0.18782
2107.81624,0.18607
2109.74471,0.18693
2111.67318,0.18750
2113.60165,0.18674
2115.53012,0.18684
2117.45859,0.18907
2119.38706,0.19194
2121.31553,0.19281
2123.24399,0.19143
2125.17246,0.18967
2127.10093,0.18839
2129.02940,0.18786
2130.95787,0.18803
2132.88634,0.18803
2134.81481,0.18764
2136.74327,0.18666
2138.67174,0.18555
2140.60021,0.18699
2142.52868,0.19082
2144.45715,0.19271
2146.38562,0.19076
2148.31409,0.18776
2150.24255,0.18772
2152.17102,0.19020
2154.09949,0.19105
2156.02796,0.18839
2157.95643,0.18531
2159.88490,0.18595
2161.81337,0.18876
2163.74184,0.18987
2165.67030,0.19056
2167.59877,0.19329
2169.52724,0.19534
2171.45571,0.19299
2173.38418,0.18940
2175.31265,0.19034
2177.24112,0.19378
2179.16958,0.19409
2181.09805,0.19161
2183.02652,0.18901
2184.95499,0.18753
2186.88346,0.18850
2188.81193,0.19129
2190.74040,0.19278
2192.66887,0.19225
2194.59733,0.19215
2196.52580,0.19279
2198.45427,0.19290
2200.38274,0.19253
2202.31121,0.19187
2204.23968,0.19113
2206.16815,0.19068
2208.09661,0.19036
2210.02508,0.19069
2211.95355,0.19215
2213.88202,0.19279
2215.81049,0.19117
2217.73896,0.18862
2219.66743,0.18684
2221.59590,0.18603
2223.52436,0.18582
2225.45283,0.18692
2227.38130,0.18885
2229.30977,0.19033
2231.23824,0.19173
2233.16671,0.19348
2235.09518,0.19460
2237.02364,0.19334
2238.95211,0.19090
2240.88058,0.18941
2242.80905,0.18933
2244.73752,0.19042
2246.66599,0.19012
2248.59446,0.18920
2250.52293,0.18887
2252.45139,0.18639
2254.37986,0.18500
2256.30833,0.18826
2258.23680,0.19114
2260.16527,0.18970
2262.09374,0.18705
2264.02221,0.18727
2265.95067,0.18999
2267.87914,0.19347
2269.80761,0.19710
2271.73608,0.19857
2273.66455,0.19597
2275.59302,0.19264
2277.52149,0.19238
2279.44996,0.19357
2281.37842,0.19242
2283.30689,0.18885
2285.23536,0.18653
2287.16383,0.18863
2289.09230,0.19348
2291.02077,0.19680
2292.94924,0.20145
2294.87770,0.20930
2296.80617,0.21001
2298.73464,0.20024
2300.66311,0.19253
2302.59158,0.19304
2304.52005,0.19462
2306.44852,0.19126
2308.37699,0.18515
2310.30545,0.18257
2312.23392,0.18554
2314.16239,0.18959
2316.09086,0.19169
2318.01933,0.19234
2319.94780,0.19302
2321.87627,0.19507
2323.80473,0.19971
2325.73320,0.20597
2327.66167,0.20798
2329.59014,0.20471
2331.51861,0.19927
2333.44708,0.19575
2335.37555,0.19952
2337.30401,0.20367
2339.23248,0.20055
2341.16095,0.19588
2343.08942,0.19389
2345.01789,0.19298
2346.94636,0.19399
2348.87483,0.19700
2350.80330,0.19990
2352.73176,0.20093
2354.66023,0.20251
2356.58870,0.21032
2358.51717,0.20789
2360.44564,0.18163
2362.37411,0.16890
2364.30258,0.18471
2366.23104,0.20472
2368.15951,0.21822
2370.08798,0.22092
2372.01645,0.21656
2373.94492,0.20719
2375.87339,0.19577
2377.80186,0.19250
2379.73033,0.19405
2381.65879,0.19169
2383.58726,0.18762
2385.51573,0.18702
2387.44420,0.18899
2389.37267,0.18876
2391.30114,0.18672
2393.22961,0.18661
2395.15807,0.18761
2397.08654,0.18677
2399.01501,0.18421
2400.94348,0.18402
2402.87195,0.18849
2404.80042,0.19355
2406.72889,0.19555
2408.65736,0.19595
2410.58582,0.19604
2412.51429,0.19425
2414.44276,0.18941
2416.37123,0.18510
2418.29970,0.18575
2420.22817,0.18835
2422.15664,0.18868
2424.08510,0.18814
2426.01357,0.18881
2427.94204,0.19115
2429.87051,0.19332
2431.79898,0.19329
2433.72745,0.19229
2435.65592,0.19175
2437.58439,0.19251
2439.51285,0.19422
2441.44132,0.19459
2443.36979,0.19377
2445.29826,0.19280
2447.22673,0.19121
2449.15520,0.19023
2451.08367,0.19125
2453.01213,0.19245
2454.94060,0.19171
2456.86907,0.18942
2458.79754,0.18775
2460.72601,0.18871
2462.65448,0.19112
2464.58295,0.19176
2466.51142,0.19125
2468.43988,0.19214
2470.36835,0.19352
2472.29682,0.19457
2474.22529,0.19529
2476.15376,0.19566
2478.08223,0.19622
2480.01070,0.19572
2481.93916,0.19473
2483.86763,0.19442
2485.79610,0.19346
2487.72457,0.19233
2489.65304,0.19244
2491.58151,0.19324
2493.50998,0.19416
2495.43844,0.19363
2497.36691,0.19125
2499.29538,0.19203
2501.22385,0.19602
2503.15232,0.19690
2505.08079,0.19441
2507.00926,0.19210
2508.93773,0.19163
2510.86619,0.19357
2512.79466,0.19643
2514.72313,0.19656
2516.65160,0.19443
2518.58007,0.19494
2520.50854,0.19694
2522.43701,0.19555
2524.36547,0.19345
2526.29394,0.19487
2528.22241,0.19741
2530.15088,0.19824
2532.07935,0.19747
2534.00782,0.19661
2535.93629,0.19523
2537.86476,0.19231
2539.79322,0.19109
2541.72169,0.19230
2543.65016,0.19275
2545.57863,0.19291
2547.50710,0.19470
2549.43557,0.19675
2551.36404,0.19743
2553.29250,0.19868
2555.22097,0.20027
2557.14944,0.19790
2559.07791,0.19240
2561.00638,0.18851
2562.93485,0.18790
2564.86332,0.18972
2566.79179,0.19303
2568.72025,0.19638
2570.64872,0.19695
2572.57719,0.19439
2574.50566,0.19045
2576.43413,0.18709
2578.36260,0.18715
2580.29107,0.19059
2582.21953,0.19315
2584.14800,0.19252
2586.07647,0.19217
2588.00494,0.19452
2589.93341,0.19772
2591.86188,0.19808
2593.79035,0.19400
2595.71882,0.19020
2597.64728,0.18984
2599.57575,0.19100
2601.50422,0.19380
2603.43269,0.19758
2605.36116,0.19778
2607.28963,0.19577
2609.21810,0.19656
2611.14656,0.19648
2613.07503,0.19248
2615.00350,0.19035
2616.93197,0.19289
2618.86044,0.19540
2620.78891,0.19546
2622.71738,0.19503
2624.64585,0.19516
2626.57431,0.19539
2628.50278,0.19472
2630.43125,0.19506
2632.35972,0.19807
2634.28819,0.20012
2636.21666,0.19903
2638.14513,0.19704
2640.07359,0.19479
2642.00206,0.19274
2643.93053,0.19379
2645.85900,0.19570
2647.78747,0.19546
2649.71594,0.19612
2651.64441,0.19743
2653.57288,0.19710
2655.50134,0.19703
2657.42981,0.19950
2659.35828,0.20380
2661.28675,0.20480
2663.21522,0.19995
2665.14369,0.19554
2667.07216,0.19677
2669.00062,0.20084
2670.92909,0.20380
2672.85756,0.20480
2674.78603,0.20272
2676.71450,0.19806
2678.64297,0.19461
2680.57144,0.19476
2682.49990,0.19798
2684.42837,0.19990
2686.35684,0.19709
2688.28531,0.19264
2690.21378,0.19080
2692.14225,0.19230
2694.07072,0.19549
2695.99919,0.19869
2697.92765,0.20079
2699.85612,0.20048
2701.78459,0.19859
2703.71306,0.19826
2705.64153,0.19937
2707.57000,0.19994
2709.49847,0.20126
2711.42693,0.20263
2713.35540,0.20089
2715.28387,0.19811
2717.21234,0.19707
2719.14081,0.19577
2721.06928,0.19500
2722.99775,0.19802
2724.92622,0.20215
2726.85468,0.20266
2728.78315,0.20048
2730.71162,0.20088
2732.64009,0.20367
2734.56856,0.20488
2736.49703,0.20594
2738.42550,0.20716
2740.35396,0.20639
2742.28243,0.20556
2744.21090,0.20658
2746.13937,0.20606
2748.06784,0.20032
2749.99631,0.19472
2751.92478,0.19685
2753.85325,0.20392
2755.78171,0.20856
2757.71018,0.21009
2759.63865,0.21002
2761.56712,0.20672
2763.49559,0.20191
2765.42406,0.19880
2767.35253,0.19878
2769.28099,0.20303
2771.20946,0.20584
2773.13793,0.20360
2775.06640,0.20505
2776.99487,0.21157
2778.92334,0.21314
2780.85181,0.20792
2782.78028,0.20237
2784.70874,0.20108
2786.63721,0.20401
2788.56568,0.20615
2790.49415,0.20403
2792.42262,0.20159
2794.35109,0.20226
2796.27956,0.20333
2798.20802,0.20319
2800.13649,0.20473
2802.06496,0.20935
2803.99343,0.21261
2805.92190,0.21102
2807.85037,0.20765
2809.77884,0.20451
2811.70731,0.20253
2813.63577,0.20406
2815.56424,0.20695
2817.49271,0.20821
2819.42118,0.20856
2821.34965,0.20754
2823.27812,0.20352
2825.20659,0.20060
2827.13505,0.20351
2829.06352,0.20853
2830.99199,0.21041
2832.92046,0.21007
2834.84893,0.21097
2836.77740,0.21402
2838.70587,0.21714
2840.63433,0.21578
2842.56280,0.20915
2844.49127,0.20379
2846.41974,0.20363
2848.34821,0.20587
2850.27668,0.20627
2852.20515,0.20458
2854.13362,0.20349
2856.06208,0.20357
2857.99055,0.20525
2859.91902,0.20856
2861.84749,0.21093
2863.77596,0.20942
2865.70443,0.20557
2867.63290,0.20470
2869.56136,0.20729
2871.48983,0.20746
2873.41830,0.20327
2875.34677,0.20107
2877.27524,0.20498
2879.20371,0.20990
2881.13218,0.20902
2883.06065,0.20404
2884.98911,0.20211
2886.91758,0.20489
2888.84605,0.20875
2890.77452,0.21079
2892.70299,0.20864
2894.63146,0.20249
2896.55993,0.19940
2898.48839,0.20213
2900.41686,0.20465
2902.34533,0.20535
2904.27380,0.20567
2906.20227,0.20611
2908.13074,0.20743
2910.05921,0.20697
2911.98768,0.20363
2913.91614,0.20089
2915.84461,0.20095
2917.77308,0.20213
2919.70155,0.20084
2921.63002,0.19898
2923.55849,0.19937
2925.48696,0.19614
2927.41542,0.18949
2929.34389,0.19080
2931.27236,0.20161
2933.20083,0.21092
2935.12930,0.21087
2937.05777,0.20310
2938.98624,0.19550
2940.91471,0.19425
2942.84317,0.19790
2944.77164,0.19983
2946.70011,0.19795
2948.62858,0.19827
2950.55705,0.20198
2952.48552,0.20399
2954.41399,0.20141
2956.34245,0.19182
2958.27092,0.18461
2960.19939,0.19251
2962.12786,0.20592
2964.05633,0.21020
2965.98480,0.20596
2967.91327,0.20316
2969.84174,0.20835
2971.77020,0.21521
2973.69867,0.21713
2975.62714,0.21300
2977.55561,0.20353
2979.48408,0.19740
2981.41255,0.19989
2983.34102,0.20555
2985.26948,0.20964
2987.19795,0.20999
2989.12642,0.21002
2991.05489,0.21456
2992.98336,0.21909
2994.91183,0.21950
2996.84030,0.21676
2998.76877,0.21264
3000.69723,0.21113
3002.62570,0.21087
3004.55417,0.20889
3006.48264,0.20794
3008.41111,0.20689
3010.33958,0.20166
3012.26805,0.18745
3014.19651,0.16091
3016.12498,0.13810
3018.05345,0.14614
3019.98192,0.17895
3021.91039,0.20503
3023.83886,0.21467
3025.76733,0.21289
3027.69579,0.20676
3029.62426,0.20734
3031.55273,0.21275
3033.48120,0.21292
3035.40967,0.20874
3037.33814,0.20780
3039.26661,0.21249
3041.19508,0.21627
3043.12354,0.21314
3045.05201,0.20623
3046.98048,0.19969
3048.90895,0.19639
3050.83742,0.19879
3052.76589,0.20317
3054.69436,0.20497
3056.62282,0.20501
3058.55129,0.20819
3060.47976,0.21350
3062.40823,0.21427
3064.33670,0.20758
3066.26517,0.19845
3068.19364,0.19832
3070.12211,0.20417
3072.05057,0.20561
3073.97904,0.20453
3075.90751,0.20498
3077.83598,0.20816
3079.76445,0.21070
3081.69292,0.21011
3083.62139,0.20519
3085.54985,0.19637
3087.47832,0.19499
3089.40679,0.20420
3091.33526,0.21102
3093.26373,0.20634
3095.19220,0.19869
3097.12067,0.20103
3099.04914,0.20841
3100.97760,0.21044
3102.90607,0.20668
3104.83454,0.20343
3106.76301,0.20598
3108.69148,0.21122
3110.61995,0.21049
3112.54842,0.20574
3114.47688,0.20767
3116.40535,0.21208
3118.33382,0.21169
3120.26229,0.20952
3122.19076,0.20790
3124.11923,0.20987
3126.04770,0.21394
3127.97617,0.21518
3129.90463,0.21380
3131.83310,0.21215
3133.76157,0.21064
3135.69004,0.20786
3137.61851,0.20584
3139.54698,0.20750
3141.47545,0.21237
3143.40391,0.21782
3145.33238,0.21961
3147.26085,0.21670
3149.18932,0.21275
3151.11779,0.21023
3153.04626,0.21083
3154.97473,0.21462
3156.90320,0.21676
3158.83166,0.21640
3160.76013,0.21606
3162.68860,0.21410
3164.61707,0.21262
3166.54554,0.21559
3168.47401,0.21970
3170.40248,0.22158
3172.33094,0.22016
3174.25941,0.21547
3176.18788,0.21407
3178.11635,0.21979
3180.04482,0.22420
3181.97329,0.22013
3183.90176,0.21588
3185.83022,0.21920
3187.75869,0.22258
3189.68716,0.21946
3191.61563,0.21502
3193.54410,0.21670
3195.47257,0.22144
3197.40104,0.22023
3199.32951,0.21421
3201.25797,0.21233
3203.18644,0.21622
3205.11491,0.21819
3207.04338,0.21629
3208.97185,0.21523
3210.90032,0.21614
3212.82879,0.21768
3214.75725,0.21860
3216.68572,0.21657
3218.61419,0.21207
3220.54266,0.21118
3222.47113,0.21442
3224.39960,0.21767
3226.32807,0.22047
3228.25654,0.22054
3230.18500,0.21718
3232.11347,0.21364
3234.04194,0.21112
3235.97041,0.21112
3237.89888,0.21472
3239.82735,0.21786
3241.75582,0.21781
3243.68428,0.21688
3245.61275,0.21754
3247.54122,0.22064
3249.46969,0.22263
3251.39816,0.21961
3253.32663,0.21480
3255.25510,0.21214
3257.18357,0.21248
3259.11203,0.21449
3261.04050,0.21507
3262.96897,0.21443
3264.89744,0.21268
3266.82591,0.21018
3268.75438,0.20929
3270.68285,0.20888
3272.61131,0.21084
3274.53978,0.21493
3276.46825,0.21280
3278.39672,0.20501
3280.32519,0.20286
3282.25366,0.21010
3284.18213,0.21710
3286.11060,0.21685
3288.03906,0.21273
3289.96753,0.21016
3291.89600,0.21272
3293.82447,0.21763
3295.75294,0.21867
3297.68141,0.21491
3299.60988,0.20977
3301.53834,0.20730
3303.46681,0.20822
3305.39528,0.20830
3307.32375,0.20540
3309.25222,0.20352
3311.18069,0.20573
3313.10916,0.20875
3315.03763,0.20739
3316.96609,0.20412
3318.89456,0.20767
3320.82303,0.21651
3322.75150,0.22107
3324.67997,0.21895
3326.60844,0.21188
3328.53691,0.20477
3330.46537,0.20314
3332.39384,0.20775
3334.32231,0.21755
3336.25078,0.22493
3338.17925,0.22459
3340.10772,0.22382
3342.03619,0.22554
3343.96466,0.22204
3345.89312,0.21409
3347.82159,0.21269
3349.75006,0.21631
3351.67853,0.21715
3353.60700,0.21944
3355.53547,0.22365
3357.46394,0.22198
3359.39240,0.21680
3361.32087,0.21407
3363.24934,0.21273
3365.17781,0.21252
3367.10628,0.21513
3369.03475,0.22064
3370.96322,0.22556
3372.89168,0.22391
3374.82015,0.21514
3376.74862,0.20638
3378.67709,0.20442
3380.60556,0.20679
3382.53403,0.20925
3384.46250,0.21237
3386.39097,0.21329
3388.31943,0.21107
3390.24790,0.21165
3392.17637,0.21569
3394.10484,0.21831
3396.03331,0.21744
3397.96178,0.21308
3399.89025,0.20893
3401.81871,0.20809
3403.74718,0.20689
3405.67565,0.20511
3407.60412,0.20768
3409.53259,0.21297
3411.46106,0.21439
3413.38953,0.21129
3415.31800,0.20837
3417.24646,0.20674
3419.17493,0.20466
3421.10340,0.20365
3423.03187,0.20607
3424.96034,0.21034
3426.88881,0.21383
3428.81728,0.21518
3430.74574,0.21239
3432.67421,0.20680
3434.60268,0.20262
3436.53115,0.20138
3438.45962,0.20463
3440.38809,0.21061
3442.31656,0.21234
3444.24503,0.21001
3446.17349,0.20906
3448.10196,0.20481
3450.03043,0.19445
3451.95890,0.18765
3453.88737,0.18614
3455.81584,0.18535
3457.74431,0.19018
3459.67277,0.19963
3461.60124,0.20185
3463.52971,0.19566
3465.45818,0.18944
3467.38665,0.18862
3469.31512,0.19221
3471.24359,0.19693
3473.17206,0.20099
3475.10052,0.20002
3477.02899,0.19491
3478.95746,0.19247
3480.88593,0.19178
3482.81440,0.19008
3484.74287,0.19097
3486.67134,0.19367
3488.59980,0.19328
3490.52827,0.19260
3492.45674,0.19532
3494.38521,0.19663
3496.31368,0.19048
3498.24215,0.18108
3500.17062,0.17687
3502.09909,0.17737
3504.02755,0.17834
3505.95602,0.17863
3507.88449,0.17879
3509.81296,0.17916
3511.74143,0.17838
3513.66990,0.17597
3515.59837,0.17434
3517.52683,0.17601
3519.45530,0.18142
3521.38377,0.18679
3523.31224,0.18940
3525.24071,0.19243
3527.16918,0.19419
3529.09765,0.19103
3531.02611,0.18718
3532.95458,0.18637
3534.88305,0.18925
3536.81152,0.18964
3538.73999,0.18098
3540.66846,0.17418
3542.59693,0.17658
3544.52540,0.17746
3546.45386,0.17348
3548.38233,0.17649
3550.31080,0.18667
3552.23927,0.19040
3554.16774,0.18308
3556.09621,0.17436
3558.02468,0.16942
3559.95314,0.16901
3561.88161,0.17196
3563.81008,0.17547
3565.73855,0.17761
3567.66702,0.17483
3569.59549,0.16926
3571.52396,0.16478
3573.45243,0.16129
3575.38089,0.15897
3577.30936,0.15696
3579.23783,0.15819
3581.16630,0.16506
3583.09477,0.17246
3585.02324,0.18070
3586.95171,0.18981
3588.88017,0.18459
3590.80864,0.16989
3592.73711,0.16067
3594.66558,0.15586
3596.59405,0.15093
3598.52252,0.14880
3600.45099,0.14967
3602.37946,0.14849
3604.30792,0.14963
3606.23639,0.15981
3608.16486,0.16870
3610.09333,0.16323
3612.02180,0.15650
3613.95027,0.15808
3615.87874,0.16097
3617.80720,0.16083
3619.73567,0.15949
3621.66414,0.15653
3623.59261,0.15178
3625.52108,0.15027
3627.44955,0.15508
3629.37802,0.15587
3631.30649,0.15027
3633.23495,0.15100
3635.16342,0.15339
3637.09189,0.15111
3639.02036,0.14548
3640.94883,0.13904
3642.87730,0.13565
3644.80577,0.14117
3646.73423,0.15535
3648.66270,0.15959
3650.59117,0.14455
3652.51964,0.13985
3654.44811,0.14327
3656.37658,0.14365
3658.30505,0.13956
3660.23352,0.13661
3662.16198,0.13626
3664.09045,0.13758
3666.01892,0.14173
3667.94739,0.15154
3669.87586,0.15870
3671.80433,0.15428
3673.73280,0.15374
3675.66126,0.15826
3677.58973,0.15298
3679.51820,0.14289
3681.44667,0.13730
3683.37514,0.13822
3685.30361,0.14416
3687.23208,0.15091
3689.16055,0.14699
3691.08901,0.13329
3693.01748,0.12971
3694.94595,0.13167
3696.87442,0.12963
3698.80289,0.12738
3700.73136,0.12920
3702.65983,0.13271
3704.58829,0.13489
3706.51676,0.13440
3708.44523,0.13432
3710.37370,0.13918
3712.30217,0.14137
3714.23064,0.13645
3716.15911,0.13620
3718.08757,0.14037
3720.01604,0.14107
3721.94451,0.13807
3723.87298,0.13757
3725.80145,0.13921
3727.72992,0.13689
3729.65839,0.13444
3731.58686,0.13939
3733.51532,0.15028
3735.44379,0.15782
3737.37226,0.15917
3739.30073,0.15647
3741.22920,0.14991
3743.15767,0.14194
3745.08614,0.14110
3747.01460,0.14934
3748.94307,0.15972
3750.87154,0.16583
3752.80001,0.15579
3754.72848,0.14262
3756.65695,0.13599
3758.58542,0.13411
3760.51389,0.13477
3762.44235,0.13609
3764.37082,0.13589
3766.29929,0.13528
3768.22776,0.13909
3770.15623,0.14177
3772.08470,0.13390
3774.01317,0.12567
3775.94163,0.12632
3777.87010,0.13138
3779.79857,0.13093
3781.72704,0.12860
3783.65551,0.13179
3785.58398,0.13173
3787.51245,0.12617
3789.44092,0.12553
3791.36938,0.12839
3793.29785,0.12950
3795.22632,0.13002
3797.15479,0.13052
3799.08326,0.13212
3801.01173,0.13465
3802.94020,0.13270
3804.86866,0.13020
3806.79713,0.13155
3808.72560,0.13267
3810.65407,0.13323
3812.58254,0.13582
3814.51101,0.13732
3816.43948,0.13585
3818.36795,0.14003
3820.29641,0.14954
3822.22488,0.15048
3824.15335,0.14609
3826.08182,0.14315
3828.01029,0.13944
3829.93876,0.13719
3831.86723,0.13582
3833.79569,0.13353
3835.72416,0.13423
3837.65263,0.13897
3839.58110,0.13879
3841.50957,0.13320
3843.43804,0.12958
3845.36651,0.12742
3847.29498,0.12630
3849.22344,0.12741
3851.15191,0.13077
3853.08038,0.13500
3855.00885,0.13225
3856.93732,0.12691
3858.86579,0.12471
3860.79426,0.12585
3862.72272,0.12876
3864.65119,0.12896
3866.57966,0.12960
3868.50813,0.13457
3870.43660,0.13370
3872.36507,0.12468
3874.29354,0.11801
3876.22200,0.11441
3878.15047,0.11444
3880.07894,0.11752
3882.00741,0.11963
3883.93588,0.12326
3885.86435,0.12625
3887.79282,0.12135
3889.72129,0.11550
3891.64975,0.11371
3893.57822,0.11406
3895.50669,0.11632
3897.43516,0.12116
3899.36363,0.12572
3901.29210,0.12843
3903.22057,0.13314
3905.14903,0.13368
3907.07750,0.12576
3909.00597,0.11784
3910.93444,0.11370
3912.86291,0.11269
3914.79138,0.11298
3916.71985,0.11463
3918.64832,0.12013
3920.57678,0.12500
3922.50525,0.12559
3924.43372,0.12416
3926.36219,0.12028
3928.29066,0.11446
3930.21913,0.11155
3932.14760,0.11205
3934.07606,0.11018
3936.00453,0.10888
3937.93300,0.11163
3939.86147,0.11437
3941.78994,0.11495
3943.71841,0.11177
3945.64688,0.10832
3947.57535,0.10895
3949.50381,0.10791
3951.43228,0.10477
3953.36075,0.10758
3955.28922,0.11375
3957.21769,0.11503
3959.14616,0.11226
3961.07463,0.11119
3963.00309,0.11321
3964.93156,0.11353
3966.86003,0.10953
3968.78850,0.10815
3970.71697,0.11314
3972.64544,0.11640
3974.57391,0.11007
3976.50238,0.09861
3978.43084,0.09260
3980.35931,0.09375
3982.28778,0.09695
3984.21625,0.09970
3986.14472,0.10165
3988.07319,0.10325
3990.00166,0.10306
3991.93012,0.09869
3993.85859,0.09522
3995.78706,0.09782
3997.71553,0.10388
3999.64400,0.10930
4001.57247,0.11303
4003.50094,0.11546
4005.42941,0.11326
4007.35787,0.10560
4009.28634,0.09947
4011.21481,0.09889
4013.14328,0.10175
4015.07175,0.10467
4017.00022,0.10493
4018.92869,0.10615
4020.85715,0.11149
4022.78562,0.11289
4024.71409,0.10502
4026.64256,0.09679
4028.57103,0.09715
4030.49950,0.10153
4032.42797,0.10129
4034.35644,0.09638
4036.28490,0.09399
4038.21337,0.09534
4040.14184,0.09497
4042.07031,0.09633
4043.99878,0.10249
4045.92725,0.10871
4047.85572,0.11231
4049.78418,0.11131
4051.71265,0.10949
4053.64112,0.11009
4055.56959,0.10726
4057.49806,0.10077
4059.42653,0.09700
4061.35500,0.09804
4063.28346,0.10049
4065.21193,0.10119
4067.14040,0.10143
4069.06887,0.10020
4070.99734,0.09549
4072.92581,0.09143
4074.85428,0.09096
4076.78275,0.09451
4078.71121,0.09795
4080.63968,0.09281
4082.56815,0.08396
4084.49662,0.08097
4086.42509,0.08305
4088.35356,0.08794
4090.28203,0.09258
4092.21049,0.09395
4094.13896,0.09352
4096.06743,0.09443
4097.99590,0.09831
4099.92437,0.10153
4101.85284,0.10075
4103.78131,0.09522
4105.70978,0.08732
4107.63824,0.08528
4109.56671,0.08928
4111.49518,0.09101
4113.42365,0.08770
4115.35212,0.08194
4117.28059,0.07941
4119.20906,0.08378
4121.13752,0.08922
4123.06599,0.08896
4124.99446,0.08656
4126.92293,0.08696
4128.85140,0.09007
4130.77987,0.09239
4132.70834,0.09101
4134.63681,0.08826
4136.56527,0.08576
4138.49374,0.08525
4140.42221,0.08835
4142.35068,0.08935
4144.27915,0.08326
4146.20762,0.07486
4148.13609,0.07173
4150.06455,0.07506
4151.99302,0.08061
4153.92149,0.08198
4155.84996,0.07848
4157.77843,0.07844
4159.70690,0.08545
4161.63537,0.09275
4163.56384,0.09680
4165.49230,0.09621
4167.42077,0.08881
4169.34924,0.08158
4171.27771,0.07849
4173.20618,0.07819
4175.13465,0.08150
4177.06312,0.08289
4178.99158,0.07963
4180.92005,0.07598
4182.84852,0.07408
4184.77699,0.07337
4186.70546,0.07544
4188.63393,0.08056
4190.56240,0.08281
4192.49087,0.08186
4194.41933,0.08027
4196.34780,0.07733
4198.27627,0.07594
4200.20474,0.07858
4202.13321,0.08147
4204.06168,0.08013
4205.99015,0.07688
4207.91861,0.07337
4209.84708,0.06990
4211.77555,0.07120
4213.70402,0.07356
4215.63249,0.07026
4217.56096,0.06420
4219.48943,0.06027
4221.41789,0.05968
4223.34636,0.06006
4225.27483,0.06153
4227.20330,0.06484
4229.13177,0.06645
4231.06024,0.06589
4232.98871,0.06655
4234.91718,0.06916
4236.84564,0.06953
4238.77411,0.06704
4240.70258,0.06459
4242.63105,0.05979
4244.55952,0.05593
4246.48799,0.05943
4248.41646,0.06320
4250.34492,0.06168
4252.27339,0.06209
4254.20186,0.06545
4256.13033,0.06579
4258.05880,0.06471
4259.98727,0.06478
4261.91574,0.06455
4263.84421,0.06527
4265.77267,0.06838
4267.70114,0.07139
4269.62961,0.06993
4271.55808,0.06247
4273.48655,0.05360
4275.41502,0.05177
4277.34349,0.05871
4279.27195,0.06580
4281.20042,0.06573
4283.12889,0.05941
4285.05736,0.05312
4286.98583,0.05306
4288.91430,0.05865
4290.84277,0.06400
4292.77124,0.06413
4294.69970,0.05812
4296.62817,0.05058
4298.55664,0.04739
4300.48511,0.04877
4302.41358,0.05197
4304.34205,0.05336
4306.27052,0.05172
4308.19898,0.05392
4310.12745,0.05970
4312.05592,0.06050
4313.98439,0.05651
4315.91286,0.05276
4317.84133,0.05255
4319.76980,0.05527
4321.69827,0.05819
4323.62673,0.05921
4325.55520,0.05648
4327.48367,0.04974
4329.41214,0.04107
4331.34061,0.03721
4333.26908,0.04031
4335.19755,0.04475
4337.12601,0.04584
4339.05448,0.04452
4340.98295,0.04811
4342.91142,0.05544
4344.83989,0.05565
4346.76836,0.04897
4348.69683,0.04286
4350.62530,0.03621
4352.55376,0.03010
4354.48223,0.02847
4356.41070,0.02983
4358.33917,0.03613
4360.26764,0.04423
4362.19611,0.04802
4364.12458,0.04757
4366.05304,0.04455
4367.98151,0.04758
4369.90998,0.05579
4371.83845,0.05373
4373.76692,0.04206
4375.69539,0.03589
4377.62386,0.03829
4379.55232,0.04386
4381.48079,0.04626
4383.40926,0.04318
4385.33773,0.04573
4387.26620,0.05230
4389.19467,0.04982
4391.12314,0.04458
4393.05161,0.04471
4394.98007,0.04544
4396.90854,0.04723
4398.83701,0.05217
4400.76548,0.05117
4402.69395,0.04086
4404.62242,0.03214
4406.55089,0.03057
4408.47935,0.02961
4410.40782,0.02886
4412.33629,0.03532
4414.26476,0.04251
4416.19323,0.04348
4418.12170,0.04512
4420.05017,0.04873
4421.97864,0.04885
4423.90710,0.04532
4425.83557,0.04060
4427.76404,0.03791
4429.69251,0.03881
4431.62098,0.04038
4433.54945,0.03863
4435.47792,0.03366
4437.40638,0.03162
4439.33485,0.03424
4441.26332,0.03459
4443.19179,0.02812
4445.12026,0.02190
4447.04873,0.02456
4448.97720,0.02940
4450.90567,0.03040
4452.83413,0.03428
4454.76260,0.04122
4456.69107,0.04389
4458.61954,0.04400
4460.54801,0.04471
4462.47648,0.03953
4464.40495,0.02707
4466.33341,0.01480
4468.26188,0.00650
4470.19035,0.00484
4472.11882,0.00933
4474.04729,0.01150
4475.97576,0.01379
4477.90423,0.02331
4479.83270,0.03074
4481.76116,0.03086
4483.68963,0.03044
4485.61810,0.03041
4487.54657,0.02563
4489.47504,0.01768
4491.40351,0.01393
4493.33198,0.01700
4495.26044,0.02092
4497.18891,0.02089
4499.11738,0.02144
4501.04585,0.02167
4502.97432,0.01696
4504.90279,0.01560
4506.83126,0.02275
4508.75973,0.02851
4510.68819,0.02777
4512.61666,0.02422
4514.54513,0.02181
4516.47360,0.02644
4518.40207,0.03064
4520.33054,0.02404
4522.25901,0.01400
4524.18747,0.00682
4526.11594,0.00295
4528.04441,0.00292
4529.97288,0.00722
4531.90135,0.01519
4533.82982,0.02290
4535.75829,0.02965
4537.68676,0.03262
4539.61522,0.02708
4541.54369,0.02003
4543.47216,0.01983
4545.40063,0.02139
4547.32910,0.01694
4549.25757,0.01287
4551.18604,0.02042
4553.11450,0.03067
4555.04297,0.02850
4556.97144,0.02404
4558.89991,0.03372
4560.82838,0.04516
4562.75685,0.04218
4564.68532,0.03416
4566.61378,0.02893
4568.54225,0.02508
4570.47072,0.02214
4572.39919,0.01652
4574.32766,0.01229
4576.25613,0.01081
4578.18460,0.00296
4580.11307,-0.00763
4582.04153,-0.01016
4583.97000,-0.00403
4585.89847,0.00919
4587.82694,0.02305
4589.75541,0.02915
4591.68388,0.02584
4593.61235,0.01596
4595.54081,0.00818
4597.46928,0.00357
4599.39775,0.00198
4601.32622,0.01027
4603.25469,0.02221
4605.18316,0.02592
4607.11163,0.01977
4609.04010,0.01211
4610.96856,0.01241
4612.89703,0.01795
4614.82550,0.02120
4616.75397,0.01894
4618.68244,0.01657
4620.61091,0.02386
4622.53938,0.03424
4624.46784,0.03496
4626.39631,0.02558
4628.32478,0.01396
4630.25325,0.00900
4632.18172,0.01010
4634.11019,0.01176
4636.03866,0.01064
4637.96713,0.00592
4639.89559,0.00384
4641.82406,0.00586
4643.75253,0.00818
4645.68100,0.01062
4647.60947,0.01234
4649.53794,0.01463
4651.46641,0.01913
4653.39487,0.01976
4655.32334,0.01413
4657.25181,0.01423
4659.18028,0.02649
4661.10875,0.03886
4663.03722,0.03855
4664.96569,0.02738
4666.89416,0.01538
4668.82262,0.01067
4670.75109,0.01260
4672.67956,0.01331
4674.60803,0.01266
4676.53650,0.01081
4678.46497,0.00941
4680.39344,0.01626
4682.32190,0.02476
4684.25037,0.02807
4686.17884,0.02893
4688.10731,0.02316
4690.03578,0.01004
4691.96425,0.00451
4693.89272,0.01362
4695.82119,0.01996
4697.74965,0.01088
4699.67812,-0.00527
4701.60659,-0.01532
4703.53506,-0.01204
4705.46353,0.00002
4707.39200,0.00948
4709.32047,0.01607
4711.24893,0.02150
4713.17740,0.02091
4715.10587,0.01719
4717.03434,0.01188
4718.96281,0.00492
4720.89128,0.00474
4722.81975,0.00957
4724.74821,0.00927
4726.67668,0.00848
4728.60515,0.01185
4730.53362,0.01300
4732.46209,0.01114
4734.39056,0.00784
4736.31903,0.00371
4738.24750,0.00472
4740.17596,0.01295
4742.10443,0.01985
4744.03290,0.02114
4745.96137,0.02010
4747.88984,0.01423
4749.81831,0.00692
4751.74678,0.01262
4753.67524,0.03152
4755.60371,0.03842
4757.53218,0.02286
4759.46065,0.01082
4761.38912,0.01147
4763.31759,0.00800
4765.24606,-0.00016
4767.17453,-0.00183
4769.10299,0.00038
4771.03146,0.00019
4772.95993,0.00127
4774.88840,0.00376
4776.81687,0.00618
4778.74534,0.01045
4780.67381,0.01471
4782.60227,0.01578
4784.53074,0.01484
4786.45921,0.01801
4788.38768,0.02308
4790.31615,0.02300
4792.24462,0.02167
4794.17309,0.01891
4796.10156,0.00887
4798.03002,-0.00120
4799.95849,-0.00227
4801.88696,-0.00227
4803.81543,-0.00971
4805.74390,-0.01235
4807.67237,-0.00197
4809.60084,0.00772
4811.52930,0.00647
4813.45777,0.00011
4815.38624,-0.00225
4817.31471,-0.00238
4819.24318,-0.00453
4821.17165,-0.00332
4823.10012,0.00529
4825.02859,0.01734
4826.95705,0.02430
4828.88552,0.02380
4830.81399,0.02089
4832.74246,0.01313
4834.67093,0.00276
4836.59940,0.00010
4838.52787,0.00231
4840.45633,0.00391
4842.38480,0.00642
4844.31327,0.00735
4846.24174,0.00318
4848.17021,-0.00226
4850.09868,-0.00213
4852.02715,0.00144
4853.95562,-0.00069
4855.88408,-0.00426
4857.81255,0.00240
4859.74102,0.01237
4861.66949,0.01259
4863.59796,0.00529
4865.52643,-0.00015
4867.45490,-0.00001
4869.38336,0.00252
4871.31183,0.00685
4873.24030,0.01171
4875.16877,0.01420
4877.09724,0.01386
4879.02571,0.00992
4880.95418,0.00434
4882.88265,0.00404
4884.81111,0.00718
4886.73958,-0.00282
4888.66805,-0.01658
4890.59652,-0.00884
4892.52499,0.00230
4894.45346,-0.00322
4896.38193,-0.00753
4898.31039,-0.00327
4900.23886,0.00106
4902.16733,0.00961
4904.09580,0.02105
4906.02427,0.02635
4907.95274,0.02477
4909.88121,0.02150
4911.80967,0.02345
4913.73814,0.02578
4915.66661,0.01939
4917.59508,0.00794
4919.52355,0.00501
4921.45202,0.01593
4923.38049,0.02071
4925.30896,0.01073
4927.23742,0.01015
4929.16589,0.02502
4931.09436,0.03294
4933.02283,0.02694
4934.95130,0.01957
4936.87977,0.01166
4938.80824,-0.00531
4940.73670,-0.02364
4942.66517,-0.02656
4944.59364,-0.01187
4946.52211,0.00774
4948.45058,0.01517
4950.37905,0.00304
4952.30752,-0.01422
4954.23599,-0.01741
4956.16445,-0.00842
4958.09292,0.00362
4960.02139,0.01553
4961.94986,0.01935
4963.87833,0.01231
4965.80680,0.00725
4967.73527,0.01066
4969.66373,0.01722
4971.59220,0.02986
4973.52067,0.04420
4975.44914,0.04376
4977.37761,0.03001
4979.30608,0.01677
4981.23455,0.01229
4983.16302,0.01515
4985.09148,0.01290
4987.01995,0.00249
4988.94842,-0.00011
4990.87689,0.01146
4992.80536,0.02369
4994.73383,0.02443
4996.66230,0.01200
4998.59076,-0.00068
5000.51923,-0.00391
5002.44770,-0.00474
5004.37617,-0.00636
5006.30464,-0.00472
5008.23311,-0.00176
5010.16158,0.00049
5012.09005,0.01336
5014.01851,0.03303
5015.94698,0.03326
5017.87545,0.01301
5019.80392,-0.00348
5021.73239,-0.00175
5023.66086,0.00993
5025.58933,0.01799
5027.51779,0.02093
5029.44626,0.02085
5031.37473,0.01935
5033.30320,0.01833
5035.23167,0.01907
5037.16014,0.01596
5039.08861,0.00994
5041.01708,0.01317
5042.94554,0.01697
5044.87401,0.01519
5046.80248,0.02084
5048.73095,0.03222
5050.65942,0.03712
5052.58789,0.02910
5054.51636,0.01190
5056.44482,-0.00401
5058.37329,-0.00739
5060.30176,0.00966
5062.23023,0.03202
5064.15870,0.04352
5066.08717,0.04951
5068.01564,0.04871
5069.94410,0.03714
5071.87257,0.01913
5073.80104,0.00541
5075.72951,0.00300
5077.65798,0.00059
5079.58645,-0.00176
5081.51492,0.00473
5083.44339,0.00933
5085.37185,0.00554
5087.30032,0.00581
5089.22879,0.01960
5091.15726,0.03455
5093.08573,0.03302
5095.01420,0.01617
5096.94267,0.00147
5098.87113,0.00857
5100.79960,0.04078
5102.72807,0.07008
5104.65654,0.06537
5106.58501,0.04122
5108.51348,0.03088
5110.44195,0.03443
5112.37042,0.03801
5114.29888,0.03678
5116.22735,0.03109
5118.15582,0.03200
5120.08429,0.04396
5122.01276,0.05187
5123.94123,0.04765
5125.86970,0.04175
5127.79816,0.04980
5129.72663,0.06618
5131.65510,0.07180
5133.58357,0.06512
5135.51204,0.05369
5137.44051,0.04341
5139.36898,0.04162
5141.29745,0.04843
5143.22591,0.04713
5145.15438,0.03075
5147.08285,0.01536
5149.01132,0.01056
5150.93979,0.01310
5152.86826,0.01743
5154.79673,0.02905
5156.72519,0.04372
5158.65366,0.04660
5160.58213,0.04594
5162.51060,0.04239
5164.43907,0.03843
5166.36754,0.04431
5168.29601,0.04632
5170.22448,0.03882
5172.15294,0.03610
5174.08141,0.04423
5176.00988,0.04821
5177.93835,0.03490
5179.86682,0.01743
5181.79529,0.01472
5183.72376,0.03345
5185.65222,0.06364
5187.58069,0.07697
5189.50916,0.06373
5191.43763,0.04870
5193.36610,0.05016
5195.29457,0.05211
5197.22304,0.03560
5199.15151,0.01902
5201.07997,0.02648
5203.00844,0.03670
5204.93691,0.02685
5206.86538,0.01684
5208.79385,0.03013
5210.72232,0.04241
5212.65079,0.03110
5214.57925,0.01779
5216.50772,0.01446
5218.43619,0.00529
5220.36466,0.00191
5222.29313,0.01013
5224.22160,0.01902
5226.15007,0.04027
5228.07854,0.06491
5230.00700,0.07387
5231.93547,0.06502
5233.86394,0.03879
5235.79241,0.02115
5237.72088,0.02955
5239.64935,0.04012
5241.57782,0.04227
5243.50628,0.04972
5245.43475,0.05477
5247.36322,0.04463
5249.29169,0.03172
5251.22016,0.03084
5253.14863,0.03892
5255.07710,0.04933
5257.00556,0.05907
5258.93403,0.05571
5260.86250,0.03552
5262.79097,0.01915
5264.71944,0.02264
5266.64791,0.03571
5268.57638,0.04040
5270.50485,0.03744
5272.43331,0.04082
5274.36178,0.05545
5276.29025,0.07307
5278.21872,0.08746
5280.14719,0.09802
5282.07566,0.09336
5284.00413,0.06732
5285.93259,0.04214
5287.86106,0.03403
5289.78953,0.03465
5291.71800,0.04129
5293.64647,0.04931
5295.57494,0.05341
5297.50341,0.06025
5299.43188,0.06968
5301.36034,0.06793
5303.28881,0.05243
5305.21728,0.04251
5307.14575,0.04595
5309.07422,0.05604
5311.00269,0.06623
5312.93116,0.07248
5314.85962,0.07841
5316.78809,0.07952
5318.71656,0.07288
5320.64503,0.06750
5322.57350,0.06090
5324.50197,0.05392
5326.43044,0.05934
5328.35891,0.06925
5330.28737,0.06155
5332.21584,0.04039
5334.14431,0.02970
5336.07278,0.03395
5338.00125,0.04070
5339.92972,0.04616
5341.85819,0.04697
5343.78665,0.04824
5345.71512,0.05184
5347.64359,0.04870
5349.57206,0.04732
5351.50053,0.04890
5353.42900,0.04752
5355.35747,0.04299
5357.28594,0.03132
5359.21440,0.02382
5361.14287,0.03772
5363.07134,0.05574
5364.99981,0.05481
5366.92828,0.04947
5368.85675,0.04465
5370.78522,0.03406
5372.71368,0.02808
5374.64215,0.04011
5376.57062,0.06574
5378.49909,0.07409
5380.42756,0.07612
5382.35603,0.08873
5384.28450,0.08413
5386.21297,0.05977
5388.14143,0.04365
5390.06990,0.02497
5391.99837,0.00259
5393.92684,0.00666
5395.85531,0.03603
5397.78378,0.05179
5399.71225,0.04863
5401.64071,0.05050
5403.56918,0.06366
5405.49765,0.07053
5407.42612,0.05698
5409.35459,0.03641
5411.28306,0.03824
5413.21153,0.06076
5415.13999,0.07306
5417.06846,0.06488
5418.99693,0.04566
5420.92540,0.02327
5422.85387,0.00427
5424.78234,-0.00051
5426.71081,0.01303
5428.63928,0.04198
5430.56774,0.07966
5432.49621,0.10070
5434.42468,0.07802
5436.35315,0.03280
5438.28162,0.01378
5440.21009,0.02789
5442.13856,0.04342
5444.06702,0.03860
5445.99549,0.03531
5447.92396,0.04721
5449.85243,0.06431
5451.78090,0.06969
5453.70937,0.05643
5455.63784,0.04436
5457.56631,0.04182
5459.49477,0.03737
5461.42324,0.04063
5463.35171,0.05980
5465.28018,0.07865
5467.20865,0.08251
5469.13712,0.07797
5471.06559,0.07443
5472.99405,0.07397
5474.92252,0.07617
5476.85099,0.05960
5478.77946,0.03522
5480.70793,0.04087
5482.63640,0.06337
5484.56487,0.07862
5486.49334,0.08488
5488.42180,0.07343
5490.35027,0.05088
5492.27874,0.04680
5494.20721,0.06043
5496.13568,0.06171
5498.06415,0.04970
5499.99262,0.04575
5501.92108,0.06690
5503.84955,0.10272
5505.77802,0.11663
5507.70649,0.09144
5509.63496,0.06040
5511.56343,0.05279
5513.49190,0.06483
5515.42037,0.08240
5517.34883,0.09005
5519.27730,0.08069
5521.20577,0.06169
5523.13424,0.05502
5525.06271,0.07387
5526.99118,0.09381
5528.91965,0.08312
5530.84811,0.05836
5532.77658,0.05706
5534.70505,0.06357
5536.63352,0.06438
5538.56199,0.06831
5540.49046,0.05982
5542.41893,0.04460
5544.34740,0.04551
5546.27586,0.05190
5548.20433,0.05035
5550.13280,0.05156
5552.06127,0.07247
5553.98974,0.10619
5555.91821,0.10819
5557.84668,0.06708
5559.77514,0.04478
5561.70361,0.06199
5563.63208,0.07770
5565.56055,0.08455
5567.48902,0.09627
5569.41749,0.09392
5571.34596,0.08130
5573.27443,0.09204
5575.20289,0.10011
5577.13136,0.07135
5579.05983,0.05484
5580.98830,0.09001
5582.91677,0.12372
5584.84524,0.11415
5586.77371,0.09542
5588.70217,0.09614
5590.63064,0.11441
5592.55911,0.12797
5594.48758,0.12226
5596.41605,0.11521
5598.34452,0.10826
5600.27299,0.08603
5602.20145,0.06668
5604.12992,0.06880
5606.05839,0.06752
5607.98686,0.05490
5609.91533,0.06887
5611.84380,0.09527
5613.77227,0.08236
5615.70074,0.05282
5617.62920,0.05976
5619.55767,0.09748
5621.48614,0.12527
5623.41461,0.13226
5625.34308,0.12372
5627.27155,0.10494
5629.20002,0.09186
5631.12848,0.09183
5633.05695,0.09185
5634.98542,0.08508
5636.91389,0.08839
5638.84236,0.09684
5640.77083,0.08833
5642.69930,0.07617
5644.62777,0.07932
5646.55623,0.07976
5648.48470,0.07221
5650.41317,0.08601
5652.34164,0.10738
5654.27011,0.10975
5656.19858,0.10157
5658.12705,0.08749
5660.05551,0.07334
5661.98398,0.06427
5663.91245,0.05819
5665.84092,0.05656
5667.76939,0.05120
5669.69786,0.04543
5671.62633,0.05910
5673.55480,0.07898
5675.48326,0.07705
5677.41173,0.07218
5679.34020,0.09265
5681.26867,0.10905
5683.19714,0.09327
5685.12561,0.07890
5687.05408,0.09692
5688.98254,0.11688
5690.91101,0.09532
5692.83948,0.05121
5694.76795,0.04041
5696.69642,0.06109
5698.62489,0.05557
5700.55336,0.02923
5702.48183,0.03762
5704.41029,0.07106
5706.33876,0.07869
5708.26723,0.06637
5710.19570,0.06764
5712.12417,0.07928
5714.05264,0.10408
5715.98111,0.12797
5717.90957,0.11222
5719.83804,0.08150
5721.76651,0.07083
5723.69498,0.06672
5725.62345,0.07091
5727.55192,0.09118
5729.48039,0.09765
5731.40886,0.08813
5733.33732,0.09412
5735.26579,0.12342
5737.19426,0.15265
5739.12273,0.14212
5741.05120,0.10661
5742.97967,0.09789
5744.90814,0.11398
5746.83660,0.12336
5748.76507,0.11481
5750.69354,0.09366
5752.62201,0.06875
5754.55048,0.06649
5756.47895,0.09815
5758.40742,0.11130
5760.33588,0.07890
5762.26435,0.06401
5764.19282,0.08159
5766.12129,0.07311
5768.04976,0.06347
5769.97823,0.09205
5771.90670,0.11798
5773.83517,0.10600
5775.76363,0.08722
5777.69210,0.09604
5779.62057,0.11041
5781.54904,0.10838
5783.47751,0.09354
5785.40598,0.06807
5787.33445,0.05893
5789.26291,0.07291
5791.19138,0.08344
5793.11985,0.08901
5795.04832,0.08761
5796.97679,0.07204
5798.90526,0.06541
5800.83373,0.08612
5802.76220,0.11179
5804.69066,0.11045
5806.61913,0.08697
5808.54760,0.07897
5810.47607,0.08602
5812.40454,0.08024
5814.33301,0.07323
5816.26148,0.06894
5818.18994,0.06312
5820.11841,0.07657
5822.04688,0.10972
5823.97535,0.14543
5825.90382,0.16435
5827.83229,0.15891
5829.76076,0.14819
5831.68923,0.13520
5833.61769,0.10079
5835.54616,0.07187
5837.47463,0.08145
5839.40310,0.10567
5841.33157,0.11645
5843.26004,0.10502
5845.18851,0.08211
5847.11697,0.06615
5849.04544,0.05837
5850.97391,0.05253
5852.90238,0.05323
5854.83085,0.07587
5856.75932,0.11411
5858.68779,0.13351
5860.61626,0.12835
5862.54472,0.12772
5864.47319,0.13123
5866.40166,0.13486
5868.33013,0.15460
5870.25860,0.17720
5872.18707,0.17192
5874.11554,0.13053
5876.04400,0.10548
5877.97247,0.13306
5879.90094,0.14785
5881.82941,0.11500
5883.75788,0.08901
5885.68635,0.09504
5887.61482,0.10763
5889.54329,0.10738
5891.47175,0.08856
5893.40022,0.07620
5895.32869,0.08996
5897.25716,0.11388
5899.18563,0.14558
5901.11410,0.17490
5903.04257,0.16523
5904.97103,0.12111
5906.89950,0.07258
5908.82797,0.04103
5910.75644,0.04625
5912.68491,0.06429
5914.61338,0.07341
5916.54185,0.07727
5918.47032,0.07924
5920.39878,0.08315
5922.32725,0.06328
5924.25572,0.04149
5926.18419,0.05296
5928.11266,0.06270
5930.04113,0.06175
5931.96960,0.07080
5933.89806,0.07819
5935.82653,0.05634
5937.75500,0.03149
5939.68347,0.04779
5941.61194,0.07510
5943.54041,0.07036
5945.46888,0.05617
5947.39734,0.05552
5949.32581,0.06931
5951.25428,0.09332
5953.18275,0.10060
5955.11122,0.10618
5957.03969,0.12843
5958.96816,0.12832
5960.89663,0.10410
5962.82509,0.08310
5964.75356,0.07100
5966.68203,0.07292
5968.61050,0.07668
5970.53897,0.06197
5972.46744,0.05044
5974.39591,0.06566
5976.32437,0.09365
5978.25284,0.12011
5980.18131,0.12747
5982.10978,0.11437
5984.03825,0.10601
5985.96672,0.09924
5987.89519,0.06619
5989.82366,0.02714
5991.75212,0.03631
5993.68059,0.08426
5995.60906,0.09034
5997.53753,0.04248
5999.46600,0.02028
6001.39447,0.03767
6003.32294,0.05549
6005.25140,0.06590
6007.17987,0.07750
6009.10834,0.08406
6011.03681,0.07465
6012.96528,0.06139
6014.89375,0.05328
6016.82222,0.02582
6018.75069,0.01000
6020.67915,0.06018
6022.60762,0.10472
6024.53609,0.09860
6026.46456,0.07608
6028.39303,0.05252
6030.32150,0.06581
6032.24997,0.10769
6034.17843,0.11820
6036.10690,0.08271
6038.03537,0.04119
6039.96384,0.05175
6041.89231,0.09445
6043.82078,0.10226
6045.74925,0.06949
6047.67772,0.04336
6049.60618,0.03913
6051.53465,0.01046
6053.46312,-0.01854
6055.39159,0.01456
6057.32006,0.06581
6059.24853,0.09592
6061.17700,0.11228
6063.10546,0.11469
6065.03393,0.13760
6066.96240,0.16587
6068.89087,0.14363
6070.81934,0.09574
6072.74781,0.06900
6074.67628,0.04980
6076.60475,0.04152
6078.53321,0.06563
6080.46168,0.09129
6082.39015,0.09628
6084.31862,0.07389
6086.24709,-0.00944
6088.17556,-0.10345
6090.10403,-0.11796
6092.03249,-0.06550
6093.96096,0.03081
6095.88943,0.14068
6097.81790,0.17355
6099.74637,0.12309
6101.67484,0.07678
6103.60331,0.05907
6105.53177,0.05953
6107.46024,0.08664
6109.38871,0.10818
6111.31718,0.10297
6113.24565,0.09214
6115.17412,0.07918
6117.10259,0.07873
6119.03106,0.09121
6120.95952,0.10038
6122.88799,0.11040
6124.81646,0.08109
6126.74493,0.03123
6128.67340,0.06770
6130.60187,0.14777
6132.53034,0.17254
6134.45880,0.16667
6136.38727,0.15260
6138.31574,0.13955
6140.24421,0.14364
6142.17268,0.13437
6144.10115,0.10723
6146.02962,0.10282
6147.95809,0.10716
6149.88655,0.09312
6151.81502,0.09235
6153.74349,0.11060
6155.67196,0.08930
6157.60043,0.04230
6159.52890,0.02909
6161.45737,0.04212
6163.38583,0.02646
6165.31430,-0.00958
6167.24277,0.00628
6169.17124,0.05405
6171.09971,0.06608
6173.02818,0.04795
6174.95665,0.02350
6176.88512,0.00385
6178.81358,0.00970
6180.74205,0.05517
6182.67052,0.10606
6184.59899,0.09234
6186.52746,0.04336
6188.45593,0.06326
6190.38440,0.13967
6192.31286,0.17589
6194.24133,0.13403
6196.16980,0.06420
6198.09827,0.04111
6200.02674,0.05312
6201.95521,0.06569
6203.88368,0.08926
6205.81215,0.10108
6207.74061,0.07042
6209.66908,0.03227
6211.59755,0.03646
6213.52602,0.08383
6215.45449,0.11593
6217.38296,0.08048
6219.31143,0.02761
6221.23989,0.01729
6223.16836,0.05139
6225.09683,0.10103
6227.02530,0.11104
6228.95377,0.08668
6230.88224,0.07901
6232.81071,0.07227
6234.73918,0.03430
6236.66764,-0.00200
6238.59611,-0.00054
6240.52458,0.04351
6242.45305,0.11822
6244.38152,0.18042
6246.30999,0.19518
6248.23846,0.16766
6250.16692,0.10711
6252.09539,0.07495
6254.02386,0.11244
6255.95233,0.15654
6257.88080,0.17370
6259.80927,0.17109
6261.73774,0.12759
6263.66621,0.05838
6265.59467,0.03849
6267.52314,0.07948
6269.45161,0.08130
6271.38008,0.00617
6273.30855,-0.06494
6275.23702,-0.07247
6277.16549,-0.04663
6279.09395,0.00011
6281.02242,0.03763
6282.95089,0.03187
6284.87936,0.03982
6286.80783,0.08508
6288.73630,0.11240
6290.66477,0.12248
6292.59323,0.14440
6294.52170,0.15824
6296.45017,0.13723
6298.37864,0.08142
6300.30711,0.03529
6302.23558,0.06731
6304.16405,0.15429
6306.09252,0.16967
6308.02098,0.09597
6309.94945,0.05966
6311.87792,0.08876
6313.80639,0.10970
6315.73486,0.11607
6317.66333,0.12653
6319.59180,0.13674
6321.52026,0.15738
6323.44873,0.18031
6325.37720,0.19284
6327.30567,0.19934
6329.23414,0.18318
6331.16261,0.13978
6333.09108,0.08672
6335.01955,0.06437
6336.94801,0.09146
6338.87648,0.13081
6340.80495,0.11712
6342.73342,0.05494
6344.66189,0.04623
6346.59036,0.09759
6348.51883,0.13075
6350.44729,0.13691
6352.37576,0.14109
6354.30423,0.15075
6356.23270,0.14694
6358.16117,0.15471
6360.08964,0.17976
6362.01811,0.13824
6363.94658,0.04153
6365.87504,0.00660
6367.80351,0.02179
6369.73198,0.01897
6371.66045,0.02987
6373.58892,0.05451
6375.51739,0.06870
6377.44586,0.06253
6379.37432,0.04884
6381.30279,0.06109
6383.23126,0.05683
6385.15973,0.01133
6387.08820,0.01266
6389.01667,0.06945
6390.94514,0.10195
6392.87361,0.08096
6394.80207,0.07024
6396.73054,0.07366
6398.65901,0.04675
6400.58748,0.05089
6402.51595,0.12230
6404.44442,0.15329
6406.37289,0.11625
6408.30135,0.11170
6410.22982,0.14290
6412.15829,0.12097
6414.08676,0.05514
6416.01523,0.01225
6417.94370,0.01380
6419.87217,0.05010
6421.80064,0.10530
6423.72910,0.16335
6425.65757,0.17122
6427.58604,0.10471
6429.51451,0.02096
6431.44298,0.00524
6433.37145,0.10011
6435.29992,0.18432
6437.22838,0.11055
6439.15685,-0.02851
6441.08532,-0.04667
6443.01379,0.03751
6444.94226,0.09078
6446.87073,0.08997
6448.79920,0.09983
6450.72766,0.08514
6452.65613,0.01664
6454.58460,-0.02274
6456.51307,-0.00071
6458.44154,0.03058
6460.37001,0.04230
6462.29848,0.03832
6464.22695,0.00248
6466.15541,-0.01986
6468.08388,0.07082
6470.01235,0.19792
6471.94082,0.17970
6473.86929,0.06585
6475.79776,0.02950
6477.72623,0.07845
6479.65469,0.10103
6481.58316,0.08513
6483.51163,0.06108
6485.44010,0.02395
6487.36857,-0.02407
6489.29704,-0.04990
6491.22551,-0.04729
6493.15398,-0.05571
6495.08244,-0.05276
6497.01091,-0.01814
6498.93938,0.01958
6500.86785,0.04648
6502.79632,0.05061
6504.72479,0.04994
6506.65326,0.07588
6508.58172,0.12841
6510.51019,0.17552
6512.43866,0.15074
6514.36713,0.05373
6516.29560,-0.01554
6518.22407,-0.02604
6520.15254,-0.01274
6522.08101,0.03505
6524.00947,0.09750
6525.93794,0.13725
6527.86641,0.16648
6529.79488,0.20516
6531.72335,0.22910
6533.65182,0.16720
6535.58029,0.06209
6537.50875,0.04708
6539.43722,0.10344
6541.36569,0.06682
6543.29416,-0.07336
6545.22263,-0.09630
6547.15110,0.04999
6549.07957,0.17955
6551.00804,0.18334
6552.93650,0.16671
6554.86497,0.21229
6556.79344,0.27793
6558.72191,0.29443
6560.65038,0.23663
6562.57885,0.13798
6564.50732,0.07578
6566.43578,0.12939
6568.36425,0.22009
6570.29272,0.22469
6572.22119,0.14817
6574.14966,0.07583
6576.07813,0.06467
6578.00660,0.07729
6579.93507,0.06696
6581.86353,0.07545
6583.79200,0.10461
6585.72047,0.07346
6587.64894,0.03216
6589.57741,0.06750
6591.50588,0.12140
6593.43435,0.15622
6595.36281,0.22277
6597.29128,0.29898
6599.21975,0.32395
6601.14822,0.29234
6603.07669,0.22086
6605.00516,0.14637
6606.93363,0.12205
6608.86210,0.13924
6610.79056,0.13706
6612.71903,0.10120
6614.64750,0.09001
6616.57597,0.12421
6618.50444,0.12287
6620.43291,0.09731
6622.36138,0.14525
6624.28984,0.20290
6626.21831,0.16081
6628.14678,0.07504
6630.07525,0.04297
6632.00372,0.07488
6633.93219,0.10481
6635.86066,0.09933
6637.78912,0.10421
6639.71759,0.11974
6641.64606,0.10866
6643.57453,0.09136
6645.50300,0.13008
6647.43147,0.20737
6649.35994,0.23211
6651.28841,0.20440
6653.21687,0.16424
6655.14534,0.11206
6657.07381,0.07242
6659.00228,0.09291
6660.93075,0.12396
6662.85922,0.09641
6664.78769,0.04031
6666.71615,0.02136
6668.64462,0.04868
6670.57309,0.10803
6672.50156,0.19993
6674.43003,0.23318
6676.35850,0.15131
6678.28697,0.05027
6680.21544,0.00188
6682.14390,0.00624
6684.07237,0.06631
6686.00084,0.13255
6687.92931,0.14791
6689.85778,0.13392
6691.78625,0.09433
6693.71472,0.04513
6695.64318,0.07833
6697.57165,0.16623
6699.50012,0.14199
6701.42859,0.05549
6703.35706,0.02392
6705.28553,-0.00898
6707.21400,0.01399
6709.14247,0.14599
6711.07093,0.21706
6712.99940,0.18464
6714.92787,0.10901
6716.85634,0.04336
6718.78481,0.05983
6720.71328,0.10801
6722.64175,0.08205
6724.57021,0.03149
6726.49868,0.03146
6728.42715,0.07526
6730.35562,0.12552
6732.28409,0.12476
6734.21256,0.05634
6736.14103,-0.01877
6738.06950,-0.05359
6739.99796,-0.02058
6741.92643,0.08581
6743.85490,0.12134
6745.78337,0.04128
6747.71184,-0.02905
6749.64031,-0.02582
6751.56878,0.03317
6753.49724,0.12018
6755.42571,0.17436
6757.35418,0.18764
6759.28265,0.18945
6761.21112,0.17367
6763.13959,0.14092
6765.06806,0.06447
6766.99653,-0.00655
6768.92499,0.03563
6770.85346,0.09154
6772.78193,0.04994
6774.71040,-0.02520
6776.63887,-0.04060
6778.56734,0.03428
6780.49581,0.11366
6782.42427,0.12163
6784.35274,0.10122
6786.28121,0.08194
6788.20968,0.05637
6790.13815,0.04313
6792.06662,0.02722
6793.99509,-0.00444
6795.92355,-0.01776
6797.85202,0.02390
6799.78049,0.09094
6801.70896,0.11952
6803.63743,0.12746
6805.56590,0.12557
6807.49437,0.07915
6809.42284,0.02460
6811.35130,0.02757
6813.27977,0.08774
6815.20824,0.13647
6817.13671,0.16162
6819.06518,0.19732
6820.99365,0.22848
6822.92212,0.17221
6824.85058,0.03561
6826.77905,-0.01588
6828.70752,0.07593
6830.63599,0.16715
6832.56446,0.18290
6834.49293,0.14246
6836.42140,0.02793
6838.34987,-0.02106
6840.27833,0.01121
6842.20680,-0.01000
6844.13527,-0.04624
6846.06374,-0.03647
6847.99221,0.02392
6849.92068,0.10983
6851.84915,0.13860
6853.77761,0.15708
6855.70608,0.22806
6857.63455,0.24174
6859.56302,0.15708
6861.49149,0.09492
6863.41996,0.08306
6865.34843,0.03408
6867.27690,-0.02542
6869.20536,-0.01043
6871.13383,0.07637
6873.06230,0.17460
6874.99077,0.17126
6876.91924,0.05802
6878.84771,-0.01905
6880.77618,0.02759
6882.70464,0.08408
6884.63311,0.12901
6886.56158,0.18070
6888.49005,0.18426
6890.41852,0.18621
6892.34699,0.24231
6894.27546,0.26148
6896.20393,0.19490
6898.13239,0.09761
6900.06086,0.00320
6901.98933,-0.09209
6903.91780,-0.18825
6905.84627,-0.16400
6907.77474,0.01969
6909.70321,0.11007
6911.63167,0.06619
6913.56014,0.04870
6915.48861,0.04583
6917.41708,0.01588
6919.34555,0.01140
6921.27402,0.04459
6923.20249,0.04777
6925.13096,-0.01470
6927.05942,-0.06047
6928.98789,-0.02602
6930.91636,-0.01400
6932.84483,-0.05145
6934.77330,-0.03930
6936.70177,0.01298
6938.63024,0.04737
6940.55870,-0.00196
6942.48717,-0.05446
6944.41564,-0.01954
6946.34411,0.02562
6948.27258,0.02969
6950.20105,0.06816
6952.12952,0.12387
6954.05799,0.09693
6955.98645,0.07558
6957.91492,0.11724
6959.84339,0.12421
6961.77186,0.06509
6963.70033,-0.02292
6965.62880,-0.04732
6967.55727,-0.00856
6969.48573,-0.01900
6971.41420,-0.06567
6973.34267,-0.08582
6975.27114,-0.09423
6977.19961,-0.08284
6979.12808,-0.07905
6981.05655,-0.07867
6982.98501,-0.09158
6984.91348,-0.11002
6986.84195,-0.06292
6988.77042,0.01215
6990.69889,0.07184
6992.62736,0.05641
6994.55583,-0.05837
6996.48430,-0.12652
6998.41276,-0.05786
7000.34123,0.03287
7002.26970,0.07245
7004.19817,0.08745
7006.12664,0.09090
7008.05511,0.08163
7009.98358,0.08099
7011.91204,0.11437
7013.84051,0.11836
7015.76898,0.00412
7017.69745,-0.10005
7019.62592,-0.08067
7021.55439,-0.06107
7023.48286,-0.09954
7025.41133,-0.05963
7027.33979,0.01563
7029.26826,0.00690
7031.19673,0.00758
7033.12520,-0.02123
7035.05367,-0.14200
7036.98214,-0.16792
7038.91061,-0.06286
7040.83907,0.07720
7042.76754,0.22633
7044.69601,0.30223
7046.62448,0.24659
7048.55295,0.17422
7050.48142,0.16425
7052.40989,0.15689
7054.33836,0.13569
7056.26682,0.10539
7058.19529,0.07756
7060.12376,0.08456
7062.05223,0.08191
7063.98070,0.07286
7065.90917,0.06297
7067.83764,0.04685
7069.76610,0.07935
7071.69457,0.14246
7073.62304,0.18543
7075.55151,0.19488
7077.47998,0.17760
7079.40845,0.15236
7081.33692,0.10691
7083.26539,0.10073
7085.19385,0.15390
7087.12232,0.17664
7089.05079,0.18681
7090.97926,0.23781
7092.90773,0.26051
7094.83620,0.27982
7096.76467,0.34906
7098.69313,0.38011
7100.62160,0.28921
7102.55007,0.15140
7104.47854,0.13086
7106.40701,0.22200
7108.33548,0.20778
7110.26395,0.12535
7112.19242,0.07314
7114.12088,0.00085
7116.04935,-0.06577
7117.97782,-0.04505
7119.90629,0.03554
7121.83476,0.09334
7123.76323,0.10211
7125.69170,0.12496
7127.62016,0.17757
7129.54863,0.17574
7131.47710,0.10042
7133.40557,-0.00186
7135.33404,-0.06683
7137.26251,-0.01590
7139.19098,0.12113
7141.11944,0.11552
7143.04791,-0.01255
7144.97638,0.02112
7146.90485,0.15940
7148.83332,0.18390
7150.76179,0.15100
7152.69026,0.14255
7154.61873,0.14671
7156.54719,0.12554
7158.47566,0.08837
7160.40413,0.01828
7162.33260,-0.06779
7164.26107,-0.07048
7166.18954,-0.00103
7168.11801,0.07214
7170.04647,0.18600
7171.97494,0.22109
7173.90341,0.11071
7175.83188,-0.06830
7177.76035,-0.16035
7179.68882,-0.07788
7181.61729,-0.03404
7183.54576,-0.06497
7185.47422,0.02580
7187.40269,0.12537
7189.33116,0.09906
7191.25963,-0.00038
7193.18810,-0.01522
7195.11657,0.04535
7197.04504,0.10196
7198.97350,0.13914
7200.90197,0.23190
7202.83044,0.38915
7204.75891,0.40828
7206.68738,0.27255
7208.61585,0.17363
7210.54432,0.05416
7212.47279,-0.06164
7214.40125,-0.12287
7216.32972,-0.17470
7218.25819,-0.11057
7220.18666,0.13836
7222.11513,0.30227
7224.04360,0.21855
7225.97207,-0.00252
7227.90053,-0.01469
7229.82900,0.16772
7231.75747,0.19297
7233.68594,0.06314
7235.61441,0.03316
7237.54288,0.11119
7239.47135,0.19379
7241.39982,0.23459
7243.32828,0.21351
7245.25675,0.14350
7247.18522,0.07417
7249.11369,0.02250
7251.04216,-0.04427
7252.97063,-0.14485
7254.89910,-0.10391
7256.82756,0.05088
7258.75603,0.13569
7260.68450,0.04551
7262.61297,-0.10043
7264.54144,-0.05035
7266.46991,0.12323
7268.39838,0.23913
7270.32685,0.32393
7272.25531,0.33313
7274.18378,0.20077
7276.11225,0.14749
7278.04072,0.25745
7279.96919,0.34726
7281.89766,0.23709
7283.82613,0.09587
7285.75459,0.03675
7287.68306,0.05403
7289.61153,0.08084
7291.54000,0.08575
7293.46847,0.13816
7295.39694,0.22299
7297.32541,0.20690
7299.25387,0.07541
7301.18234,-0.02199
7303.11081,-0.01194
7305.03928,0.07008
7306.96775,0.17229
7308.89622,0.20255
7310.82469,0.15205
7312.75316,0.12282
7314.68162,0.11943
7316.61009,0.07440
7318.53856,0.06132
7320.46703,0.12954
7322.39550,0.19607
7324.32397,0.18659
7326.25244,0.08433
7328.18090,-0.08048
7330.10937,-0.20449
7332.03784,-0.12352
7333.96631,0.05007
7335.89478,0.09867
7337.82325,0.02516
7339.75172,0.00926
7341.68019,0.10806
7343.60865,0.03216
7345.53712,-0.15012
7347.46559,-0.19592
7349.39406,-0.05545
7351.32253,0.12702
7353.25100,0.12517
7355.17947,-0.05261
7357.10793,-0.15282
7359.03640,-0.07775
7360.96487,0.01474
7362.89334,0.10102
7364.82181,0.11619
7366.75028,0.07625
7368.67875,0.12567
7370.60722,0.18915
7372.53568,0.10598
7374.46415,-0.10527
7376.39262,-0.13825
7378.32109,-0.02300
7380.24956,0.04490
7382.17803,0.16700
7384.10650,0.25151
7386.03496,0.18291
7387.96343,0.16125
7389.89190,0.22229
7391.82037,0.18985
7393.74884,0.10498
7395.67731,0.14306
7397.60578,0.24642
7399.53425,0.25393
7401.46271,0.19134
7403.39118,0.13873
7405.31965,0.09054
7407.24812,-0.04275
7409.17659,-0.21690
7411.10506,-0.21133
7413.03353,-0.03364
7414.96199,0.10511
7416.89046,0.18116
7418.81893,0.35061
7420.74740,0.41774
7422.67587,0.15925
7424.60434,-0.00447
7426.53281,0.06010
7428.46128,0.05404
7430.38974,-0.06276
7432.31821,-0.12300
7434.24668,-0.15975
7436.17515,-0.05132
7438.10362,0.09451
7440.03209,0.01097
7441.96056,-0.11466
7443.88902,-0.08126
7445.81749,-0.01018
7447.74596,0.02159
7449.67443,0.07051
7451.60290,0.18900
7453.53137,0.25944
7455.45984,0.16293
7457.38831,-0.08290
7459.31677,-0.26536
7461.24524,-0.02233
7463.17371,0.36548
7465.10218,0.51644
7467.03065,0.39103
7468.95912,0.14422
7470.88759,0.02954
7472.81605,0.19927
7474.74452,0.34114
7476.67299,0.18981
7478.60146,-0.04636
7480.52993,-0.13116
7482.45840,-0.09202
7484.38687,0.04776
7486.31533,0.24639
7488.24380,0.37471
7490.17227,0.28485
7492.10074,0.10206
7494.02921,0.03240
7495.95768,0.05239
7497.88615,0.13608
