399.19301,-0.70277
401.12148,-0.15782
403.04995,-0.06196
404.97842,-0.06451
406.90689,0.05204
408.83536,0.21420
410.76382,0.30038
412.69229,0.28244
414.62076,0.23973
416.54923,0.19714
418.47770,0.09916
420.40617,0.06720
422.33464,0.14047
424.26311,0.15120
426.19157,0.12289
428.12004,0.14824
430.04851,0.18901
431.97698,0.18208
433.90545,0.17308
435.83392,0.16271
437.76239,0.11551
439.69085,0.08308
441.61932,0.11677
443.54779,0.17124
445.47626,0.18777
447.40473,0.20329
449.33320,0.20185
451.26167,0.12210
453.19013,0.02551
455.11860,-0.00287
457.04707,0.05016
458.97554,0.12144
460.90401,0.14643
462.83248,0.15148
464.76095,0.16413
466.68942,0.19647
468.61788,0.21378
470.54635,0.18507
472.47482,0.13307
474.40329,0.06459
476.33176,0.03257
478.26023,0.06788
480.18870,0.12703
482.11716,0.14245
484.04563,0.12423
485.97410,0.14255
487.90257,0.13872
489.83104,0.07321
491.75951,0.02589
493.68798,0.05496
495.61645,0.12449
497.54491,0.14624
499.47338,0.10646
501.40185,0.06160
503.33032,0.04779
505.25879,0.05722
507.18726,0.05284
509.11573,0.04981
511.04419,0.08598
512.97266,0.12367
514.90113,0.12815
516.82960,0.10220
518.75807,0.04873
520.68654,0.01606
522.61501,0.04453
524.54348,0.09264
526.47194,0.10471
528.40041,0.10012
530.32888,0.09921
532.25735,0.09368
534.18582,0.09237
536.11429,0.10563
538.04276,0.12352
539.97122,0.14482
541.89969,0.16214
543.82816,0.15598
545.75663,0.13949
547.68510,0.13012
549.61357,0.11413
551.54204,0.04082
553.47051,-0.06539
555.39897,-0.08169
557.32744,-0.00923
559.25591,0.03636
561.18438,0.04470
563.11285,0.07031
565.04132,0.10618
566.96979,0.11111
568.89825,0.10636
570.82672,0.13021
572.75519,0.15498
574.68366,0.14786
576.61213,0.13173
578.54060,0.12719
580.46907,0.12487
582.39754,0.12171
584.32600,0.11000
586.25447,0.10067
588.18294,0.11108
590.11141,0.12777
592.03988,0.13607
593.96835,0.12240
595.89682,0.09075
597.82528,0.07951
599.75375,0.10643
601.68222,0.13380
603.61069,0.14433
605.53916,0.15802
607.46763,0.15637
609.39610,0.12916
611.32456,0.10644
613.25303,0.09739
615.18150,0.09374
617.10997,0.10037
619.03844,0.10194
620.96691,0.09332
622.89538,0.10126
624.82385,0.10945
626.75231,0.10328
628.68078,0.10848
630.60925,0.11825
632.53772,0.11256
634.46619,0.11311
636.39466,0.12885
638.32313,0.13010
640.25159,0.11644
642.18006,0.11898
644.10853,0.13784
646.03700,0.14748
647.96547,0.13600
649.89394,0.11864
651.82241,0.10699
653.75088,0.09812
655.67934,0.10532
657.60781,0.12492
659.53628,0.13273
661.46475,0.13317
663.39322,0.13014
665.32169,0.11632
667.25016,0.11457
669.17862,0.15890
671.10709,0.18634
673.03556,0.16738
674.96403,0.12525
676.89250,0.10255
678.82097,0.11219
680.74944,0.11919
682.67791,0.10748
684.60637,0.09774
686.53484,0.10414
688.46331,0.11607
690.39178,0.12843
692.32025,0.14907
694.24872,0.16839
696.17719,0.16527
698.10565,0.14497
700.03412,0.13385
701.96259,0.13407
703.89106,0.13414
705.81953,0.13687
707.74800,0.14367
709.67647,0.14646
711.60494,0.14251
713.53340,0.13849
715.46187,0.13687
717.39034,0.13245
719.31881,0.12573
721.24728,0.12197
723.17575,0.12638
725.10422,0.14050
727.03268,0.15206
728.96115,0.14674
730.88962,0.13389
732.81809,0.13234
734.74656,0.13821
736.67503,0.13595
738.60350,0.12618
740.53197,0.11845
742.46043,0.11579
744.38890,0.11900
746.31737,0.12575
748.24584,0.13124
750.17431,0.13529
752.10278,0.13651
754.03125,0.13369
755.95971,0.13035
757.88818,0.13171
759.81665,0.13571
761.74512,0.13773
763.67359,0.14195
765.60206,0.14738
767.53053,0.14892
769.45900,0.14751
771.38746,0.14389
773.31593,0.14485
775.24440,0.15124
777.17287,0.14772
779.10134,0.13380
781.02981,0.12710
782.95828,0.13533
784.88674,0.14599
786.81521,0.14441
788.74368,0.13509
790.67215,0.13064
792.60062,0.13730
794.52909,0.14460
796.45756,0.13822
798.38602,0.13029
800.31449,0.12742
802.24296,0.12326
804.17143,0.13038
806.09990,0.14798
808.02837,0.15646
809.95684,0.15690
811.88531,0.15781
813.81377,0.16021
815.74224,0.15570
817.67071,0.13400
819.59918,0.11192
821.52765,0.11266
823.45612,0.13328
825.38459,0.15556
827.31305,0.16205
829.24152,0.15412
831.16999,0.15342
833.09846,0.16153
835.02693,0.16042
836.95540,0.14905
838.88387,0.13338
840.81234,0.12342
842.74080,0.12759
844.66927,0.13713
846.59774,0.14278
848.52621,0.14325
850.45468,0.14355
852.38315,0.15338
854.31162,0.16672
856.24008,0.16181
858.16855,0.14389
860.09702,0.13718
862.02549,0.13941
863.95396,0.14104
865.88243,0.14531
867.81090,0.12995
869.73937,0.08033
871.66783,0.06067
873.59630,0.10204
875.52477,0.13631
877.45324,0.13908
879.38171,0.14600
881.31018,0.16044
883.23865,0.16147
885.16711,0.14674
887.09558,0.13626
889.02405,0.14459
890.95252,0.16096
892.88099,0.16496
894.80946,0.15093
896.73793,0.12924
898.66640,0.11719
900.59486,0.11933
902.52333,0.12419
904.45180,0.12818
906.38027,0.13592
908.30874,0.14751
910.23721,0.15476
912.16568,0.15138
914.09414,0.14602
916.02261,0.14584
917.95108,0.14529
919.87955,0.14236
921.80802,0.14256
923.73649,0.14483
925.66496,0.14566
927.59343,0.14880
929.52189,0.15189
931.45036,0.14853
933.37883,0.14452
935.30730,0.14525
937.23577,0.14767
939.16424,0.15054
941.09271,0.15198
943.02117,0.14885
944.94964,0.14769
946.87811,0.15200
948.80658,0.15126
950.73505,0.14616
952.66352,0.14478
954.59199,0.14624
956.52045,0.15226
958.44892,0.15917
960.37739,0.15525
962.30586,0.14666
964.23433,0.14692
966.16280,0.14991
968.09127,0.14411
970.01974,0.13464
971.94820,0.13550
973.87667,0.14150
975.80514,0.13777
977.73361,0.13441
979.66208,0.14334
981.59055,0.15203
983.51902,0.14995
985.44748,0.14435
987.37595,0.14376
989.30442,0.14842
991.23289,0.15190
993.16136,0.15246
995.08983,0.15446
997.01830,0.15455
998.94677,0.15412
1000.87523,0.15513
1002.80370,0.15159
1004.73217,0.14773
1006.66064,0.14696
1008.58911,0.14651
1010.51758,0.14902
1012.44605,0.15350
1014.37451,0.15389
1016.30298,0.15079
1018.23145,0.14923
1020.15992,0.15017
1022.08839,0.15352
1024.01686,0.15487
1025.94533,0.14832
1027.87380,0.14145
1029.80226,0.14224
1031.73073,0.14563
1033.65920,0.14944
1035.58767,0.15580
1037.51614,0.15868
1039.44461,0.15550
1041.37308,0.15517
1043.30154,0.15620
1045.23001,0.15400
1047.15848,0.15715
1049.08695,0.16285
1051.01542,0.16345
1052.94389,0.16234
1054.87236,0.16050
1056.80083,0.15851
1058.72929,0.15630
1060.65776,0.15483
1062.58623,0.15936
1064.51470,0.16276
1066.44317,0.16013
1068.37164,0.16413
1070.30011,0.17201
1072.22857,0.17063
1074.15704,0.16198
1076.08551,0.15613
1078.01398,0.16264
1079.94245,0.17718
1081.87092,0.18560
1083.79939,0.17795
1085.72786,0.15952
1087.65632,0.15223
1089.58479,0.15876
1091.51326,0.15889
1093.44173,0.14984
1095.37020,0.14852
1097.29867,0.15997
1099.22714,0.17120
1101.15560,0.16964
1103.08407,0.15990
1105.01254,0.16098
1106.94101,0.17113
1108.86948,0.17308
1110.79795,0.17291
1112.72642,0.17673
1114.65489,0.17202
1116.58335,0.16100
1118.51182,0.15718
1120.44029,0.16004
1122.36876,0.16115
1124.29723,0.15603
1126.22570,0.15037
1128.15417,0.15132
1130.08263,0.15580
1132.01110,0.15657
1133.93957,0.15004
1135.86804,0.14466
1137.79651,0.14800
1139.72498,0.15191
1141.65345,0.15441
1143.58191,0.16032
1145.51038,0.16534
1147.43885,0.16654
1149.36732,0.16816
1151.29579,0.17308
1153.22426,0.17596
1155.15273,0.16957
1157.08120,0.15838
1159.00966,0.15485
1160.93813,0.16112
1162.86660,0.16628
1164.79507,0.16535
1166.72354,0.16202
1168.65201,0.15710
1170.58048,0.15601
1172.50894,0.16351
1174.43741,0.17171
1176.36588,0.17344
1178.29435,0.16935
1180.22282,0.16393
1182.15129,0.16298
1184.07976,0.16576
1186.00823,0.16862
1187.93669,0.16941
1189.86516,0.16466
1191.79363,0.16002
1193.72210,0.16357
1195.65057,0.16817
1197.57904,0.16743
1199.50751,0.16473
1201.43597,0.16231
1203.36444,0.16225
1205.29291,0.16473
1207.22138,0.16563
1209.14985,0.16526
1211.07832,0.16577
1213.00679,0.16491
1214.93526,0.16305
1216.86372,0.16434
1218.79219,0.16918
1220.72066,0.17235
1222.64913,0.17067
1224.57760,0.16692
1226.50607,0.16560
1228.43454,0.16747
1230.36300,0.16828
1232.29147,0.16754
1234.21994,0.16632
1236.14841,0.16345
1238.07688,0.16242
1240.00535,0.16445
1241.93382,0.16575
1243.86229,0.16417
1245.79075,0.16117
1247.71922,0.16245
1249.64769,0.16739
1251.57616,0.16868
1253.50463,0.16856
1255.43310,0.17032
1257.36157,0.16952
1259.29003,0.16578
1261.21850,0.16172
1263.14697,0.15782
1265.07544,0.15664
1267.00391,0.16035
1268.93238,0.16573
1270.86085,0.16998
1272.78932,0.17089
1274.71778,0.16650
1276.64625,0.16333
1278.57472,0.16532
1280.50319,0.16763
1282.43166,0.16976
1284.36013,0.17229
1286.28860,0.17327
1288.21706,0.17527
1290.14553,0.17760
1292.07400,0.17521
1294.00247,0.17038
1295.93094,0.16759
1297.85941,0.16519
1299.78788,0.15923
1301.71634,0.14802
1303.64481,0.13633
1305.57328,0.13827
1307.50175,0.15682
1309.43022,0.17133
1311.35869,0.17253
1313.28716,0.17090
1315.21563,0.17168
1317.14409,0.17551
1319.07256,0.17926
1321.00103,0.17885
1322.92950,0.17928
1324.85797,0.18079
1326.78644,0.17902
1328.71491,0.17669
1330.64337,0.17047
1332.57184,0.16053
1334.50031,0.15827
1336.42878,0.16371
1338.35725,0.16918
1340.28572,0.16894
1342.21419,0.17295
1344.14266,0.19519
1346.07112,0.21527
1347.99959,0.20571
1349.92806,0.18125
1351.85653,0.16932
1353.78500,0.16731
1355.71347,0.16372
1357.64194,0.16063
1359.57040,0.16407
1361.49887,0.17208
1363.42734,0.17612
1365.35581,0.17597
1367.28428,0.17616
1369.21275,0.17727
1371.14122,0.17929
1373.06969,0.18095
1374.99815,0.18181
1376.92662,0.18194
1378.85509,0.18064
1380.78356,0.17810
1382.71203,0.17715
1384.64050,0.18013
1386.56897,0.18449
1388.49743,0.18593
1390.42590,0.18484
1392.35437,0.18570
1394.28284,0.19017
1396.21131,0.19476
1398.13978,0.19580
1400.06825,0.19078
1401.99672,0.18325
1403.92518,0.17890
1405.85365,0.17825
1407.78212,0.17915
1409.71059,0.18048
1411.63906,0.18173
1413.56753,0.18140
1415.49600,0.18265
1417.42446,0.19068
1419.35293,0.19798
1421.28140,0.19511
1423.20987,0.19143
1425.13834,0.18974
1427.06681,0.18876
1428.99528,0.18937
1430.92375,0.18770
1432.85221,0.18351
1434.78068,0.18338
1436.70915,0.18656
1438.63762,0.18681
1440.56609,0.18736
1442.49456,0.18911
1444.42303,0.19093
1446.35149,0.19550
1448.27996,0.19777
1450.20843,0.19272
1452.13690,0.19008
1454.06537,0.19718
1455.99384,0.21368
1457.92231,0.21929
1459.85077,0.20522
1461.77924,0.19826
1463.70771,0.19934
1465.63618,0.19722
1467.56465,0.19008
1469.49312,0.18980
1471.42159,0.20345
1473.35006,0.21667
1475.27852,0.20882
1477.20699,0.19590
1479.13546,0.18768
1481.06393,0.18513
1482.99240,0.18843
1484.92087,0.19676
1486.84934,0.20708
1488.77780,0.21190
1490.70627,0.20522
1492.63474,0.19664
1494.56321,0.19560
1496.49168,0.20038
1498.42015,0.20123
1500.34862,0.19631
1502.27709,0.19435
1504.20555,0.20466
1506.13402,0.23454
1508.06249,0.24324
1509.99096,0.21991
1511.91943,0.20732
1513.84790,0.20929
1515.77637,0.22077
1517.70483,0.23204
1519.63330,0.23832
1521.56177,0.23964
1523.49024,0.23138
1525.41871,0.22323
1527.34718,0.21641
1529.27565,0.20910
1531.20412,0.20751
1533.13258,0.21157
1535.06105,0.21310
1536.98952,0.21503
1538.91799,0.22358
1540.84646,0.23528
1542.77493,0.23643
1544.70340,0.22543
1546.63186,0.21366
1548.56033,0.21114
1550.48880,0.21411
1552.41727,0.21546
1554.34574,0.21651
1556.27421,0.22511
1558.20268,0.24145
1560.13115,0.22418
1562.05961,0.20229
1563.98808,0.19887
1565.91655,0.20391
1567.84502,0.20998
1569.77349,0.20894
1571.70196,0.20140
1573.63043,0.20003
1575.55889,0.20435
1577.48736,0.20346
1579.41583,0.19617
1581.34430,0.18812
1583.27277,0.18189
1585.20124,0.17895
1587.12971,0.17933
1589.05818,0.18309
1590.98664,0.18526
1592.91511,0.18231
1594.84358,0.17865
1596.77205,0.17583
1598.70052,0.17570
1600.62899,0.18057
1602.55746,0.18354
1604.48592,0.18074
1606.41439,0.17816
1608.34286,0.17836
1610.27133,0.17900
1612.19980,0.17987
1614.12827,0.18440
1616.05674,0.19310
1617.98521,0.19870
1619.91367,0.20338
1621.84214,0.21122
1623.77061,0.21277
1625.69908,0.20585
1627.62755,0.19958
1629.55602,0.19532
1631.48449,0.19672
1633.41295,0.20855
1635.34142,0.22356
1637.26989,0.21505
1639.19836,0.20083
1641.12683,0.19875
1643.05530,0.20476
1644.98377,0.21750
1646.91223,0.22930
1648.84070,0.22498
1650.76917,0.22519
1652.69764,0.23724
1654.62611,0.22637
1656.55458,0.20738
1658.48305,0.20193
1660.41152,0.20837
1662.33998,0.21581
1664.26845,0.21204
1666.19692,0.20905
1668.12539,0.21569
1670.05386,0.22219
1671.98233,0.21980
1673.91080,0.21638
1675.83926,0.20972
1677.76773,0.20277
1679.69620,0.20583
1681.62467,0.22014
1683.55314,0.23557
1685.48161,0.22772
1687.41008,0.21301
1689.33855,0.20558
1691.26701,0.20262
1693.19548,0.20732
1695.12395,0.22158
1697.05242,0.23486
1698.98089,0.23672
1700.90936,0.22627
1702.83783,0.21627
1704.76629,0.21563
1706.69476,0.21246
1708.62323,0.20232
1710.55170,0.19642
1712.48017,0.19957
1714.40864,0.21357
1716.33711,0.23492
1718.26558,0.23328
1720.19404,0.21206
1722.12251,0.20013
1724.05098,0.19563
1725.97945,0.19112
1727.90792,0.18866
1729.83639,0.19311
1731.76486,0.20473
1733.69332,0.21519
1735.62179,0.21061
1737.55026,0.20401
1739.47873,0.20254
1741.40720,0.20270
1743.33567,0.20360
1745.26414,0.20462
1747.19261,0.20574
1749.12107,0.20728
1751.04954,0.20317
1752.97801,0.19526
1754.90648,0.19306
1756.83495,0.19461
1758.76342,0.19554
1760.69189,0.19891
1762.62035,0.20096
1764.54882,0.19679
1766.47729,0.19376
1768.40576,0.19817
1770.33423,0.20994
1772.26270,0.21739
1774.19117,0.21007
1776.11964,0.20045
1778.04810,0.19663
1779.97657,0.19854
1781.90504,0.20007
1783.83351,0.19579
1785.76198,0.18924
1787.69045,0.18803
1789.61892,0.19502
1791.54738,0.20511
1793.47585,0.20750
1795.40432,0.20304
1797.33279,0.19990
1799.26126,0.19933
1801.18973,0.19804
1803.11820,0.19452
1805.04666,0.19129
1806.97513,0.18949
1808.90360,0.18923
1810.83207,0.19175
1812.76054,0.19310
1814.68901,0.18932
1816.61748,0.18467
1818.54595,0.18500
1820.47441,0.19054
1822.40288,0.19523
1824.33135,0.19683
1826.25982,0.19922
1828.18829,0.20226
1830.11676,0.20167
1832.04523,0.19683
1833.97369,0.19256
1835.90216,0.19070
1837.83063,0.18943
1839.75910,0.18826
1841.68757,0.18952
1843.61604,0.19346
1845.54451,0.19586
1847.47298,0.19497
1849.40144,0.19167
1851.32991,0.18793
1853.25838,0.18775
1855.18685,0.18948
1857.11532,0.18880
1859.04379,0.18775
1860.97226,0.18850
1862.90072,0.19008
1864.82919,0.19516
1866.75766,0.20412
1868.68613,0.20732
1870.61460,0.20013
1872.54307,0.19303
1874.47154,0.18972
1876.40001,0.18842
1878.32847,0.18926
1880.25694,0.19153
1882.18541,0.19223
1884.11388,0.19061
1886.04235,0.19012
1887.97082,0.19286
1889.89929,0.19444
1891.82775,0.19160
1893.75622,0.18820
1895.68469,0.18732
1897.61316,0.18771
1899.54163,0.18737
1901.47010,0.18782
1903.39857,0.18980
1905.32704,0.19201
1907.25550,0.19477
1909.18397,0.19524
1911.11244,0.19135
1913.04091,0.18818
1914.96938,0.18941
1916.89785,0.19333
1918.82632,0.19526
1920.75478,0.19510
1922.68325,0.19453
1924.61172,0.19168
1926.54019,0.18951
1928.46866,0.18952
1930.39713,0.18851
1932.32560,0.18740
1934.25407,0.18760
1936.18253,0.18645
1938.11100,0.18506
1940.03947,0.18916
1941.96794,0.19632
1943.89641,0.19734
1945.82488,0.19299
1947.75335,0.18959
1949.68181,0.18900
1951.61028,0.18995
1953.53875,0.19161
1955.46722,0.19308
1957.39569,0.19205
1959.32416,0.18952
1961.25263,0.18835
1963.18110,0.18873
1965.10956,0.18946
1967.03803,0.18932
1968.96650,0.18762
1970.89497,0.18598
1972.82344,0.18627
1974.75191,0.18707
1976.68038,0.18621
1978.60884,0.18472
1980.53731,0.18490
1982.46578,0.18722
1984.39425,0.19099
1986.32272,0.19469
1988.25119,0.19676
1990.17966,0.19728
1992.10812,0.19561
1994.03659,0.19165
1995.96506,0.18866
1997.89353,0.18861
1999.82200,0.18958
2001.75047,0.18997
2003.67894,0.19022
2005.60741,0.19054
2007.53587,0.18998
2009.46434,0.18824
2011.39281,0.18800
2013.32128,0.19019
2015.24975,0.19275
2017.17822,0.19382
2019.10669,0.19167
2021.03515,0.18779
2022.96362,0.18531
2024.89209,0.18602
2026.82056,0.18853
2028.74903,0.18809
2030.67750,0.18431
2032.60597,0.18257
2034.53444,0.18487
2036.46290,0.18839
2038.39137,0.19205
2040.31984,0.19511
2042.24831,0.19531
2044.17678,0.19340
2046.10525,0.19059
2048.03372,0.18851
2049.96218,0.18955
2051.89065,0.18981
2053.81912,0.18700
2055.74759,0.18579
2057.67606,0.18718
2059.60453,0.18856
2061.53300,0.18942
2063.46147,0.19200
2065.38993,0.19628
2067.31840,0.19855
2069.24687,0.19731
2071.17534,0.19408
2073.10381,0.19055
2075.03228,0.18782
2076.96075,0.18817
2078.88921,0.18982
2080.81768,0.18781
2082.74615,0.18485
2084.67462,0.18579
2086.60309,0.18913
2088.53156,0.19129
2090.46003,0.19063
2092.38850,0.18863
2094.31696,0.18856
2096.24543,0.19103
2098.17390,0.19352
2100.10237,0.19401
2102.03084,0.19259
2103.95931,0.19149
2105.88778,0.19206
2107.81624,0.19292
2109.74471,0.19277
2111.67318,0.19214
2113.60165,0.19154
2115.53012,0.19063
2117.45859,0.19021
2119.38706,0.19158
2121.31553,0.19197
2123.24399,0.18961
2125.17246,0.18945
2127.10093,0.19308
2129.02940,0.19546
2130.95787,0.19480
2132.88634,0.19343
2134.81481,0.19140
2136.74327,0.18664
2138.67174,0.18243
2140.60021,0.18345
2142.52868,0.18677
2144.45715,0.18833
2146.38562,0.18863
2148.31409,0.18880
2150.24255,0.18893
2152.17102,0.18915
2154.09949,0.19021
2156.02796,0.19199
2157.95643,0.19335
2159.88490,0.19394
2161.81337,0.19397
2163.74184,0.19329
2165.67030,0.19163
2167.59877,0.18942
2169.52724,0.18861
2171.45571,0.19114
2173.38418,0.19426
2175.31265,0.19417
2177.24112,0.19223
2179.16958,0.18983
2181.09805,0.18771
2183.02652,0.18848
2184.95499,0.19148
2186.88346,0.19341
2188.81193,0.19331
2190.74040,0.19180
2192.66887,0.18992
2194.59733,0.18920
2196.52580,0.18996
2198.45427,0.19200
2200.38274,0.19426
2202.31121,0.19438
2204.23968,0.19235
2206.16815,0.18962
2208.09661,0.18699
2210.02508,0.18552
2211.95355,0.18650
2213.88202,0.18958
2215.81049,0.19103
2217.73896,0.18914
2219.66743,0.18901
2221.59590,0.19169
2223.52436,0.19107
2225.45283,0.18756
2227.38130,0.18681
2229.30977,0.18856
2231.23824,0.18936
2233.16671,0.18918
2235.09518,0.18983
2237.02364,0.19106
2238.95211,0.19136
2240.88058,0.19068
2242.80905,0.18977
2244.73752,0.18951
2246.66599,0.19070
2248.59446,0.19222
2250.52293,0.19361
2252.45139,0.19407
2254.37986,0.19193
2256.30833,0.19081
2258.23680,0.19350
2260.16527,0.19593
2262.09374,0.19520
2264.02221,0.19485
2265.95067,0.19647
2267.87914,0.19567
2269.80761,0.19264
2271.73608,0.19189
2273.66455,0.19294
2275.59302,0.19245
2277.52149,0.19083
2279.44996,0.19077
2281.37842,0.19152
2283.30689,0.19146
2285.23536,0.19172
2287.16383,0.19285
2289.09230,0.19354
2291.02077,0.19449
2292.94924,0.19722
2294.87770,0.19940
2296.80617,0.19814
2298.73464,0.19432
2300.66311,0.19146
2302.59158,0.19167
2304.52005,0.19223
2306.44852,0.19114
2308.37699,0.19097
2310.30545,0.19307
2312.23392,0.19476
2314.16239,0.19314
2316.09086,0.19098
2318.01933,0.19081
2319.94780,0.19061
2321.87627,0.19298
2323.80473,0.20081
2325.73320,0.21015
2327.66167,0.21533
2329.59014,0.21039
2331.51861,0.19545
2333.44708,0.18778
2335.37555,0.19737
2337.30401,0.20807
2339.23248,0.21283
2341.16095,0.21822
2343.08942,0.21693
2345.01789,0.20931
2346.94636,0.20776
2348.87483,0.20898
2350.80330,0.20755
2352.73176,0.20310
2354.66023,0.19926
2356.58870,0.20498
2358.51717,0.21087
2360.44564,0.20090
2362.37411,0.19149
2364.30258,0.19574
2366.23104,0.20659
2368.15951,0.21104
2370.08798,0.20708
2372.01645,0.20405
2373.94492,0.20128
2375.87339,0.19932
2377.80186,0.20264
2379.73033,0.20390
2381.65879,0.19821
2383.58726,0.19113
2385.51573,0.18758
2387.44420,0.18861
2389.37267,0.19170
2391.30114,0.19428
2393.22961,0.19518
2395.15807,0.19341
2397.08654,0.19115
2399.01501,0.19146
2400.94348,0.19391
2402.87195,0.19572
2404.80042,0.19544
2406.72889,0.19384
2408.65736,0.19164
2410.58582,0.19046
2412.51429,0.19097
2414.44276,0.19029
2416.37123,0.18819
2418.29970,0.18896
2420.22817,0.19345
2422.15664,0.19670
2424.08510,0.19563
2426.01357,0.19247
2427.94204,0.18953
2429.87051,0.18837
2431.79898,0.18897
2433.72745,0.19014
2435.65592,0.19254
2437.58439,0.19510
2439.51285,0.19554
2441.44132,0.19345
2443.36979,0.19051
2445.29826,0.19075
2447.22673,0.19338
2449.15520,0.19299
2451.08367,0.19097
2453.01213,0.19136
2454.94060,0.19366
2456.86907,0.19694
2458.79754,0.19828
2460.72601,0.19585
2462.65448,0.19324
2464.58295,0.19276
2466.51142,0.19391
2468.43988,0.19519
2470.36835,0.19436
2472.29682,0.19254
2474.22529,0.19243
2476.15376,0.19356
2478.08223,0.19513
2480.01070,0.19602
2481.93916,0.19445
2483.86763,0.19237
2485.79610,0.19179
2487.72457,0.19133
2489.65304,0.18978
2491.58151,0.18855
2493.50998,0.18962
2495.43844,0.19126
2497.36691,0.19061
2499.29538,0.18950
2501.22385,0.19189
2503.15232,0.19554
2505.08079,0.19484
2507.00926,0.19186
2508.93773,0.19206
2510.86619,0.19301
2512.79466,0.19037
2514.72313,0.18652
2516.65160,0.18569
2518.58007,0.18796
2520.50854,0.19055
2522.43701,0.19248
2524.36547,0.19399
2526.29394,0.19456
2528.22241,0.19475
2530.15088,0.19371
2532.07935,0.19107
2534.00782,0.19016
2535.93629,0.19249
2537.86476,0.19547
2539.79322,0.19621
2541.72169,0.19554
2543.65016,0.19522
2545.57863,0.19539
2547.50710,0.19573
2549.43557,0.19487
2551.36404,0.19446
2553.29250,0.19647
2555.22097,0.19726
2557.14944,0.19519
2559.07791,0.19282
2561.00638,0.19162
2562.93485,0.19349
2564.86332,0.19735
2566.79179,0.19793
2568.72025,0.19569
2570.64872,0.19419
2572.57719,0.19311
2574.50566,0.19291
2576.43413,0.19389
2578.36260,0.19368
2580.29107,0.19137
2582.21953,0.18949
2584.14800,0.19070
2586.07647,0.19319
2588.00494,0.19355
2589.93341,0.19161
2591.86188,0.18940
2593.79035,0.18909
2595.71882,0.19018
2597.64728,0.19111
2599.57575,0.19248
2601.50422,0.19447
2603.43269,0.19664
2605.36116,0.19821
2607.28963,0.19906
2609.21810,0.19906
2611.14656,0.19535
2613.07503,0.19179
2615.00350,0.19462
2616.93197,0.19761
2618.86044,0.19548
2620.78891,0.19406
2622.71738,0.19495
2624.64585,0.19375
2626.57431,0.19161
2628.50278,0.19307
2630.43125,0.19705
2632.35972,0.19825
2634.28819,0.19713
2636.21666,0.19707
2638.14513,0.19789
2640.07359,0.19979
2642.00206,0.20205
2643.93053,0.20251
2645.85900,0.20040
2647.78747,0.19640
2649.71594,0.19369
2651.64441,0.19415
2653.57288,0.19575
2655.50134,0.19696
2657.42981,0.19791
2659.35828,0.19744
2661.28675,0.19443
2663.21522,0.19205
2665.14369,0.19341
2667.07216,0.19564
2669.00062,0.19627
2670.92909,0.19648
2672.85756,0.19644
2674.78603,0.19612
2676.71450,0.19695
2678.64297,0.19762
2680.57144,0.19639
2682.49990,0.19652
2684.42837,0.19886
2686.35684,0.20060
2688.28531,0.20050
2690.21378,0.19729
2692.14225,0.19388
2694.07072,0.19559
2695.99919,0.20150
2697.92765,0.20680
2699.85612,0.20740
2701.78459,0.20208
2703.71306,0.19589
2705.64153,0.19517
2707.57000,0.19885
2709.49847,0.20186
2711.42693,0.20249
2713.35540,0.20248
2715.28387,0.20279
2717.21234,0.20325
2719.14081,0.20311
2721.06928,0.20168
2722.99775,0.20177
2724.92622,0.20465
2726.85468,0.20665
2728.78315,0.20541
2730.71162,0.20197
2732.64009,0.20033
2734.56856,0.20356
2736.49703,0.20801
2738.42550,0.20815
2740.35396,0.20451
2742.28243,0.20129
2744.21090,0.20062
2746.13937,0.20060
2748.06784,0.20065
2749.99631,0.20318
2751.92478,0.20625
2753.85325,0.20651
2755.78171,0.20589
2757.71018,0.20745
2759.63865,0.20979
2761.56712,0.20963
2763.49559,0.20822
2765.42406,0.20718
2767.35253,0.20607
2769.28099,0.20636
2771.20946,0.20809
2773.13793,0.20963
2775.06640,0.20996
2776.99487,0.20953
2778.92334,0.20901
2780.85181,0.20781
2782.78028,0.20771
2784.70874,0.20858
2786.63721,0.20749
2788.56568,0.20595
2790.49415,0.20505
2792.42262,0.20354
2794.35109,0.20242
2796.27956,0.20152
2798.20802,0.20128
2800.13649,0.20370
2802.06496,0.20708
2803.99343,0.20966
2805.92190,0.21029
2807.85037,0.20784
2809.77884,0.20597
2811.70731,0.20768
2813.63577,0.20944
2815.56424,0.20901
2817.49271,0.20930
2819.42118,0.20879
2821.34965,0.20536
2823.27812,0.20463
2825.20659,0.20683
2827.13505,0.20808
2829.06352,0.21018
2830.99199,0.21230
2832.92046,0.21252
2834.84893,0.21127
2836.77740,0.20795
2838.70587,0.20491
2840.63433,0.20491
2842.56280,0.20589
2844.49127,0.20431
2846.41974,0.20199
2848.34821,0.20364
2850.27668,0.20716
2852.20515,0.20809
2854.13362,0.20649
2856.06208,0.20526
2857.99055,0.20605
2859.91902,0.20821
2861.84749,0.21157
2863.77596,0.21284
2865.70443,0.20990
2867.63290,0.20749
2869.56136,0.20770
2871.48983,0.20862
2873.41830,0.21014
2875.34677,0.21112
2877.27524,0.20901
2879.20371,0.20557
2881.13218,0.20439
2883.06065,0.20415
2884.98911,0.20365
2886.91758,0.20506
2888.84605,0.20764
2890.77452,0.20897
2892.70299,0.20737
2894.63146,0.20366
2896.55993,0.20224
2898.48839,0.20417
2900.41686,0.20677
2902.34533,0.20801
2904.27380,0.20681
2906.20227,0.20346
2908.13074,0.20114
2910.05921,0.20179
2911.98768,0.20356
2913.91614,0.20512
2915.84461,0.20498
2917.77308,0.20365
2919.70155,0.20389
2921.63002,0.20624
2923.55849,0.20624
2925.48696,0.19975
2927.41542,0.19728
2929.34389,0.20479
2931.27236,0.20943
2933.20083,0.20636
2935.12930,0.20088
2937.05777,0.19724
2938.98624,0.20105
2940.91471,0.20821
2942.84317,0.20995
2944.77164,0.20684
2946.70011,0.20197
2948.62858,0.20011
2950.55705,0.20354
2952.48552,0.20769
2954.41399,0.20792
2956.34245,0.20101
2958.27092,0.19418
2960.19939,0.19831
2962.12786,0.20622
2964.05633,0.20663
2965.98480,0.20130
2967.91327,0.19660
2969.84174,0.19896
2971.77020,0.20692
2973.69867,0.21185
2975.62714,0.20838
2977.55561,0.19884
2979.48408,0.19532
2981.41255,0.20147
2983.34102,0.20665
2985.26948,0.20536
2987.19795,0.20308
2989.12642,0.20643
2991.05489,0.21162
2992.98336,0.21214
2994.91183,0.21099
2996.84030,0.21087
2998.76877,0.21009
3000.69723,0.21035
3002.62570,0.21245
3004.55417,0.21314
3006.48264,0.21015
3008.41111,0.20567
3010.33958,0.19982
3012.26805,0.18204
3014.19651,0.14800
3016.12498,0.12168
3018.05345,0.13572
3019.98192,0.17797
3021.91039,0.20575
3023.83886,0.21157
3025.76733,0.20897
3027.69579,0.20428
3029.62426,0.20508
3031.55273,0.21098
3033.48120,0.21257
3035.40967,0.20695
3037.33814,0.20264
3039.26661,0.20840
3041.19508,0.21743
3043.12354,0.21805
3045.05201,0.21076
3046.98048,0.20450
3048.90895,0.20628
3050.83742,0.21015
3052.76589,0.21005
3054.69436,0.20996
3056.62282,0.20838
3058.55129,0.20528
3060.47976,0.20614
3062.40823,0.20781
3064.33670,0.20385
3066.26517,0.19958
3068.19364,0.20391
3070.12211,0.21159
3072.05057,0.21571
3073.97904,0.21237
3075.90751,0.20235
3077.83598,0.20095
3079.76445,0.20960
3081.69292,0.21256
3083.62139,0.20380
3085.54985,0.19322
3087.47832,0.19728
3089.40679,0.21271
3091.33526,0.21910
3093.26373,0.20828
3095.19220,0.19976
3097.12067,0.21091
3099.04914,0.22388
3100.97760,0.22096
3102.90607,0.20862
3104.83454,0.20384
3106.76301,0.21149
3108.69148,0.21633
3110.61995,0.20926
3112.54842,0.19845
3114.47688,0.19687
3116.40535,0.20372
3118.33382,0.20586
3120.26229,0.20033
3122.19076,0.19732
3124.11923,0.20092
3126.04770,0.20355
3127.97617,0.20274
3129.90463,0.20053
3131.83310,0.20266
3133.76157,0.21294
3135.69004,0.21856
3137.61851,0.21320
3139.54698,0.20938
3141.47545,0.21232
3143.40391,0.21456
3145.33238,0.21227
3147.26085,0.20874
3149.18932,0.20891
3151.11779,0.21110
3153.04626,0.21110
3154.97473,0.21271
3156.90320,0.21603
3158.83166,0.21568
3160.76013,0.21493
3162.68860,0.21687
3164.61707,0.21698
3166.54554,0.21444
3168.47401,0.21282
3170.40248,0.21411
3172.33094,0.21727
3174.25941,0.21945
3176.18788,0.22097
3178.11635,0.22218
3180.04482,0.21957
3181.97329,0.21533
3183.90176,0.21459
3185.83022,0.21561
3187.75869,0.21705
3189.68716,0.21931
3191.61563,0.22206
3193.54410,0.22427
3195.47257,0.22131
3197.40104,0.21408
3199.32951,0.20956
3201.25797,0.20939
3203.18644,0.21093
3205.11491,0.21135
3207.04338,0.21135
3208.97185,0.21285
3210.90032,0.21289
3212.82879,0.21222
3214.75725,0.21407
3216.68572,0.21615
3218.61419,0.21744
3220.54266,0.21619
3222.47113,0.21331
3224.39960,0.21399
3226.32807,0.21641
3228.25654,0.21731
3230.18500,0.21752
3232.11347,0.21702
3234.04194,0.21501
3235.97041,0.21334
3237.89888,0.21292
3239.82735,0.21305
3241.75582,0.21643
3243.68428,0.22236
3245.61275,0.22398
3247.54122,0.22108
3249.46969,0.21848
3251.39816,0.21673
3253.32663,0.21687
3255.25510,0.21850
3257.18357,0.21712
3259.11203,0.21154
3261.04050,0.20550
3262.96897,0.20351
3264.89744,0.20597
3266.82591,0.21005
3268.75438,0.21502
3270.68285,0.22192
3272.61131,0.22492
3274.53978,0.21934
3276.46825,0.21268
3278.39672,0.21007
3280.32519,0.21133
3282.25366,0.21417
3284.18213,0.21465
3286.11060,0.21422
3288.03906,0.21372
3289.96753,0.21363
3291.89600,0.21543
3293.82447,0.21593
3295.75294,0.21359
3297.68141,0.21102
3299.60988,0.21093
3301.53834,0.21334
3303.46681,0.21637
3305.39528,0.21895
3307.32375,0.22026
3309.25222,0.21849
3311.18069,0.21340
3313.10916,0.20965
3315.03763,0.20890
3316.96609,0.20850
3318.89456,0.20951
3320.82303,0.21163
3322.75150,0.21188
3324.67997,0.21136
3326.60844,0.21188
3328.53691,0.21371
3330.46537,0.21668
3332.39384,0.21901
3334.32231,0.22001
3336.25078,0.21859
3338.17925,0.21249
3340.10772,0.20416
3342.03619,0.19906
3343.96466,0.20086
3345.89312,0.20715
3347.82159,0.20943
3349.75006,0.20607
3351.67853,0.20618
3353.60700,0.21043
3355.53547,0.21051
3357.46394,0.21053
3359.39240,0.21655
3361.32087,0.22146
3363.24934,0.22137
3365.17781,0.22103
3367.10628,0.22155
3369.03475,0.22082
3370.96322,0.21996
3372.89168,0.22174
3374.82015,0.22282
3376.74862,0.21842
3378.67709,0.21283
3380.60556,0.20964
3382.53403,0.20646
3384.46250,0.20208
3386.39097,0.20135
3388.31943,0.20978
3390.24790,0.21766
3392.17637,0.21429
3394.10484,0.20896
3396.03331,0.21267
3397.96178,0.22055
3399.89025,0.22407
3401.81871,0.22121
3403.74718,0.21220
3405.67565,0.20277
3407.60412,0.20040
3409.53259,0.20199
3411.46106,0.20474
3413.38953,0.21113
3415.31800,0.21727
3417.24646,0.21887
3419.17493,0.21907
3421.10340,0.21948
3423.03187,0.21659
3424.96034,0.21060
3426.88881,0.20496
3428.81728,0.20267
3430.74574,0.20406
3432.67421,0.20454
3434.60268,0.20349
3436.53115,0.20421
3438.45962,0.20780
3440.38809,0.21203
3442.31656,0.20979
3444.24503,0.20188
3446.17349,0.19682
3448.10196,0.19835
3450.03043,0.20457
3451.95890,0.20711
3453.88737,0.20192
3455.81584,0.19495
3457.74431,0.19351
3459.67277,0.19918
3461.60124,0.20349
3463.52971,0.20256
3465.45818,0.20187
3467.38665,0.20055
3469.31512,0.19715
3471.24359,0.19434
3473.17206,0.19140
3475.10052,0.18612
3477.02899,0.18152
3478.95746,0.18142
3480.88593,0.18212
3482.81440,0.18189
3484.74287,0.18450
3486.67134,0.18730
3488.59980,0.18786
3490.52827,0.18915
3492.45674,0.19053
3494.38521,0.19081
3496.31368,0.18950
3498.24215,0.18635
3500.17062,0.18711
3502.09909,0.19306
3504.02755,0.19517
3505.95602,0.19178
3507.88449,0.19188
3509.81296,0.19607
3511.74143,0.19576
3513.66990,0.19075
3515.59837,0.18714
3517.52683,0.18560
3519.45530,0.18532
3521.38377,0.18819
3523.31224,0.19100
3525.24071,0.18879
3527.16918,0.18504
3529.09765,0.18187
3531.02611,0.17768
3532.95458,0.17463
3534.88305,0.17292
3536.81152,0.17056
3538.73999,0.16926
3540.66846,0.16830
3542.59693,0.16653
3544.52540,0.16866
3546.45386,0.17199
3548.38233,0.16923
3550.31080,0.16380
3552.23927,0.16249
3554.16774,0.16843
3556.09621,0.17367
3558.02468,0.17097
3559.95314,0.16646
3561.88161,0.16681
3563.81008,0.17008
3565.73855,0.17700
3567.66702,0.18347
3569.59549,0.17966
3571.52396,0.17357
3573.45243,0.16851
3575.38089,0.16371
3577.30936,0.16138
3579.23783,0.16017
3581.16630,0.16196
3583.09477,0.16867
3585.02324,0.17800
3586.95171,0.18177
3588.88017,0.17156
3590.80864,0.16519
3592.73711,0.16837
3594.66558,0.16723
3596.59405,0.15962
3598.52252,0.15436
3600.45099,0.15114
3602.37946,0.14920
3604.30792,0.15181
3606.23639,0.16191
3608.16486,0.17471
3610.09333,0.17809
3612.02180,0.17336
3613.95027,0.16830
3615.87874,0.16804
3617.80720,0.17019
3619.73567,0.16516
3621.66414,0.15588
3623.59261,0.15295
3625.52108,0.15599
3627.44955,0.16123
3629.37802,0.16019
3631.30649,0.15096
3633.23495,0.14407
3635.16342,0.14108
3637.09189,0.14137
3639.02036,0.14322
3640.94883,0.14502
3642.87730,0.14651
3644.80577,0.14818
3646.73423,0.15490
3648.66270,0.16742
3650.59117,0.16289
3652.51964,0.14946
3654.44811,0.14775
3656.37658,0.15149
3658.30505,0.14843
3660.23352,0.14114
3662.16198,0.13305
3664.09045,0.12838
3666.01892,0.13211
3667.94739,0.14241
3669.87586,0.15255
3671.80433,0.15553
3673.73280,0.15975
3675.66126,0.16083
3677.58973,0.14724
3679.51820,0.13779
3681.44667,0.13560
3683.37514,0.13443
3685.30361,0.13506
3687.23208,0.14038
3689.16055,0.14858
3691.08901,0.14714
3693.01748,0.13698
3694.94595,0.13031
3696.87442,0.12848
3698.80289,0.12927
3700.73136,0.13249
3702.65983,0.13478
3704.58829,0.13259
3706.51676,0.13048
3708.44523,0.13582
3710.37370,0.14714
3712.30217,0.14611
3714.23064,0.13447
3716.15911,0.13008
3718.08757,0.13270
3720.01604,0.13250
3721.94451,0.12871
3723.87298,0.13149
3725.80145,0.13607
3727.72992,0.13332
3729.65839,0.13184
3731.58686,0.13952
3733.51532,0.15038
3735.44379,0.14879
3737.37226,0.14137
3739.30073,0.14436
3741.22920,0.15385
3743.15767,0.16567
3745.08614,0.16820
3747.01460,0.15731
3748.94307,0.15671
3750.87154,0.16418
3752.80001,0.15522
3754.72848,0.14383
3756.65695,0.14043
3758.58542,0.13950
3760.51389,0.13756
3762.44235,0.13869
3764.37082,0.14132
3766.29929,0.13908
3768.22776,0.13541
3770.15623,0.13427
3772.08470,0.13060
3774.01317,0.12657
3775.94163,0.12929
3777.87010,0.13749
3779.79857,0.14014
3781.72704,0.13470
3783.65551,0.12851
3785.58398,0.12430
3787.51245,0.12310
3789.44092,0.12236
3791.36938,0.12069
3793.29785,0.12012
3795.22632,0.12225
3797.15479,0.12645
3799.08326,0.13303
3801.01173,0.14376
3802.94020,0.14478
3804.86866,0.13594
3806.79713,0.13021
3808.72560,0.12698
3810.65407,0.12500
3812.58254,0.12514
3814.51101,0.12870
3816.43948,0.13687
3818.36795,0.14573
3820.29641,0.15228
3822.22488,0.14773
3824.15335,0.14024
3826.08182,0.13909
3828.01029,0.13819
3829.93876,0.13621
3831.86723,0.13521
3833.79569,0.13721
3835.72416,0.14511
3837.65263,0.15382
3839.58110,0.15100
3841.50957,0.14184
3843.43804,0.13825
3845.36651,0.13369
3847.29498,0.12453
3849.22344,0.12126
3851.15191,0.12891
3853.08038,0.14007
3855.00885,0.13805
3856.93732,0.12954
3858.86579,0.12435
3860.79426,0.12578
3862.72272,0.13216
3864.65119,0.13167
3866.57966,0.12409
3868.50813,0.12197
3870.43660,0.12483
3872.36507,0.12685
3874.29354,0.12940
3876.22200,0.12909
3878.15047,0.12744
3880.07894,0.13064
3882.00741,0.13234
3883.93588,0.12850
3885.86435,0.12522
3887.79282,0.12494
3889.72129,0.12767
3891.64975,0.13177
3893.57822,0.13051
3895.50669,0.12302
3897.43516,0.11858
3899.36363,0.12549
3901.29210,0.13590
3903.22057,0.13787
3905.14903,0.13203
3907.07750,0.12155
3909.00597,0.11090
3910.93444,0.10657
3912.86291,0.11109
3914.79138,0.11662
3916.71985,0.11539
3918.64832,0.11028
3920.57678,0.10882
3922.50525,0.11341
3924.43372,0.11982
3926.36219,0.12181
3928.29066,0.11912
3930.21913,0.11548
3932.14760,0.11508
3934.07606,0.11630
3936.00453,0.11524
3937.93300,0.11452
3939.86147,0.11572
3941.78994,0.11408
3943.71841,0.10853
3945.64688,0.10803
3947.57535,0.11513
3949.50381,0.12208
3951.43228,0.12210
3953.36075,0.11437
3955.28922,0.10530
3957.21769,0.10570
3959.14616,0.11243
3961.07463,0.11295
3963.00309,0.10936
3964.93156,0.11160
3966.86003,0.11746
3968.78850,0.11610
3970.71697,0.11001
3972.64544,0.10994
3974.57391,0.11265
3976.50238,0.11159
3978.43084,0.10780
3980.35931,0.10431
3982.28778,0.10290
3984.21625,0.10235
3986.14472,0.10207
3988.07319,0.10254
3990.00166,0.10407
3991.93012,0.10657
3993.85859,0.10635
3995.78706,0.10162
3997.71553,0.09918
3999.64400,0.10303
4001.57247,0.10602
4003.50094,0.10390
4005.42941,0.10206
4007.35787,0.10144
4009.28634,0.10144
4011.21481,0.10586
4013.14328,0.11002
4015.07175,0.10787
4017.00022,0.10122
4018.92869,0.09585
4020.85715,0.09732
4022.78562,0.10242
4024.71409,0.10684
4026.64256,0.10880
4028.57103,0.10602
4030.49950,0.10162
4032.42797,0.10204
4034.35644,0.10694
4036.28490,0.10599
4038.21337,0.09696
4040.14184,0.09171
4042.07031,0.09440
4043.99878,0.09814
4045.92725,0.10050
4047.85572,0.10194
4049.78418,0.10219
4051.71265,0.10494
4053.64112,0.10800
4055.56959,0.10714
4057.49806,0.10626
4059.42653,0.10435
4061.35500,0.09791
4063.28346,0.09338
4065.21193,0.09307
4067.14040,0.09143
4069.06887,0.09109
4070.99734,0.09501
4072.92581,0.09685
4074.85428,0.09507
4076.78275,0.09666
4078.71121,0.10220
4080.63968,0.10173
4082.56815,0.09250
4084.49662,0.08610
4086.42509,0.08892
4088.35356,0.09268
4090.28203,0.09186
4092.21049,0.09202
4094.13896,0.09478
4096.06743,0.09601
4097.99590,0.09687
4099.92437,0.10011
4101.85284,0.10366
4103.78131,0.10162
4105.70978,0.09076
4107.63824,0.07919
4109.56671,0.07603
4111.49518,0.07922
4113.42365,0.08482
4115.35212,0.09094
4117.28059,0.09438
4119.20906,0.09508
4121.13752,0.09330
4123.06599,0.08936
4124.99446,0.08909
4126.92293,0.09168
4128.85140,0.09329
4130.77987,0.09793
4132.70834,0.10168
4134.63681,0.10071
4136.56527,0.10114
4138.49374,0.10130
4140.42221,0.09650
4142.35068,0.08786
4144.27915,0.07957
4146.20762,0.07723
4148.13609,0.07994
4150.06455,0.07894
4151.99302,0.07333
4153.92149,0.07478
4155.84996,0.08286
4157.77843,0.08566
4159.70690,0.08386
4161.63537,0.08449
4163.56384,0.08685
4165.49230,0.08525
4167.42077,0.08333
4169.34924,0.08643
4171.27771,0.08641
4173.20618,0.08032
4175.13465,0.07616
4177.06312,0.07648
4178.99158,0.07692
4180.92005,0.07424
4182.84852,0.07170
4184.77699,0.07440
4186.70546,0.07946
4188.63393,0.08314
4190.56240,0.08614
4192.49087,0.08652
4194.41933,0.08502
4196.34780,0.08321
4198.27627,0.08149
4200.20474,0.08334
4202.13321,0.08529
4204.06168,0.08190
4205.99015,0.07947
4207.91861,0.07958
4209.84708,0.07381
4211.77555,0.06665
4213.70402,0.06431
4215.63249,0.06365
4217.56096,0.06627
4219.48943,0.07282
4221.41789,0.08023
4223.34636,0.08574
4225.27483,0.08483
4227.20330,0.07426
4229.13177,0.06128
4231.06024,0.05593
4232.98871,0.05880
4234.91718,0.06772
4236.84564,0.07498
4238.77411,0.07122
4240.70258,0.06150
4242.63105,0.06057
4244.55952,0.07034
4246.48799,0.07749
4248.41646,0.07734
4250.34492,0.07629
4252.27339,0.07968
4254.20186,0.08379
4256.13033,0.08172
4258.05880,0.07926
4259.98727,0.08114
4261.91574,0.08012
4263.84421,0.07303
4265.77267,0.06595
4267.70114,0.06354
4269.62961,0.06449
4271.55808,0.06235
4273.48655,0.05489
4275.41502,0.05434
4277.34349,0.06650
4279.27195,0.07492
4281.20042,0.06912
4283.12889,0.05961
4285.05736,0.05508
4286.98583,0.05456
4288.91430,0.05849
4290.84277,0.06328
4292.77124,0.06297
4294.69970,0.06248
4296.62817,0.06716
4298.55664,0.07096
4300.48511,0.07000
4302.41358,0.06916
4304.34205,0.06817
4306.27052,0.06580
4308.19898,0.06412
4310.12745,0.05708
4312.05592,0.04740
4313.98439,0.04529
4315.91286,0.05066
4317.84133,0.06313
4319.76980,0.07346
4321.69827,0.06938
4323.62673,0.06128
4325.55520,0.06296
4327.48367,0.06934
4329.41214,0.07181
4331.34061,0.06768
4333.26908,0.05737
4335.19755,0.04907
4337.12601,0.04678
4339.05448,0.04547
4340.98295,0.04431
4342.91142,0.04434
4344.83989,0.04486
4346.76836,0.04422
4348.69683,0.04189
4350.62530,0.04086
4352.55376,0.04148
4354.48223,0.04199
4356.41070,0.04247
4358.33917,0.04301
4360.26764,0.04657
4362.19611,0.05250
4364.12458,0.05041
4366.05304,0.04000
4367.98151,0.03676
4369.90998,0.04188
4371.83845,0.04228
4373.76692,0.04114
4375.69539,0.04235
4377.62386,0.03794
4379.55232,0.03407
4381.48079,0.03812
4383.40926,0.04378
4385.33773,0.04704
4387.26620,0.04777
4389.19467,0.04832
4391.12314,0.04659
4393.05161,0.03939
4394.98007,0.03697
4396.90854,0.04271
4398.83701,0.04509
4400.76548,0.03866
4402.69395,0.03247
4404.62242,0.03675
4406.55089,0.04337
4408.47935,0.04470
4410.40782,0.04309
4412.33629,0.03782
4414.26476,0.03159
4416.19323,0.02787
4418.12170,0.02889
4420.05017,0.03232
4421.97864,0.03116
4423.90710,0.03278
4425.83557,0.04434
4427.76404,0.05069
4429.69251,0.04270
4431.62098,0.03249
4433.54945,0.02868
4435.47792,0.02939
4437.40638,0.03279
4439.33485,0.04088
4441.26332,0.04805
4443.19179,0.04527
4445.12026,0.03972
4447.04873,0.03934
4448.97720,0.04133
4450.90567,0.04263
4452.83413,0.04068
4454.76260,0.03845
4456.69107,0.03876
4458.61954,0.03499
4460.54801,0.02736
4462.47648,0.02652
4464.40495,0.03228
4466.33341,0.03545
4468.26188,0.03367
4470.19035,0.03061
4472.11882,0.02817
4474.04729,0.02646
4475.97576,0.02690
4477.90423,0.02988
4479.83270,0.03421
4481.76116,0.03922
4483.68963,0.04189
4485.61810,0.03705
4487.54657,0.02725
4489.47504,0.02058
4491.40351,0.02089
4493.33198,0.02579
4495.26044,0.02599
4497.18891,0.01844
4499.11738,0.01259
4501.04585,0.01393
4502.97432,0.01812
4504.90279,0.01989
4506.83126,0.02164
4508.75973,0.02930
4510.68819,0.03699
4512.61666,0.03366
4514.54513,0.02137
4516.47360,0.01345
4518.40207,0.02030
4520.33054,0.03503
4522.25901,0.04098
4524.18747,0.03424
4526.11594,0.02426
4528.04441,0.02102
4529.97288,0.02037
4531.90135,0.01571
4533.82982,0.01302
4535.75829,0.01263
4537.68676,0.01193
4539.61522,0.01198
4541.54369,0.01257
4543.47216,0.01764
4545.40063,0.02591
4547.32910,0.02496
4549.25757,0.01171
4551.18604,-0.00021
4553.11450,-0.00016
4555.04297,0.00699
4556.97144,0.01252
4558.89991,0.01789
4560.82838,0.02259
4562.75685,0.02075
4564.68532,0.01461
4566.61378,0.00933
4568.54225,0.01027
4570.47072,0.01571
4572.39919,0.01791
4574.32766,0.02070
4576.25613,0.02834
4578.18460,0.03493
4580.11307,0.03214
4582.04153,0.01948
4583.97000,0.01088
4585.89847,0.01474
4587.82694,0.02223
4589.75541,0.02596
4591.68388,0.02602
4593.61235,0.02342
4595.54081,0.01859
4597.46928,0.01104
4599.39775,0.00523
4601.32622,0.00496
4603.25469,0.00520
4605.18316,0.00701
4607.11163,0.01253
4609.04010,0.01323
4610.96856,0.01062
4612.89703,0.01099
4614.82550,0.01065
4616.75397,0.00793
4618.68244,0.00790
4620.61091,0.01417
4622.53938,0.02037
4624.46784,0.01964
4626.39631,0.01095
4628.32478,-0.00080
4630.25325,-0.00739
4632.18172,-0.00869
4634.11019,-0.00644
4636.03866,-0.00187
4637.96713,0.00457
4639.89559,0.01937
4641.82406,0.03484
4643.75253,0.03465
4645.68100,0.02603
4647.60947,0.02197
4649.53794,0.02004
4651.46641,0.01720
4653.39487,0.01533
4655.32334,0.01485
4657.25181,0.01738
4659.18028,0.02639
4661.10875,0.03309
4663.03722,0.02473
4664.96569,0.00912
4666.89416,0.00347
4668.82262,0.01085
4670.75109,0.01869
4672.67956,0.01634
4674.60803,0.01069
4676.53650,0.01042
4678.46497,0.00788
4680.39344,0.00499
4682.32190,0.01461
4684.25037,0.02248
4686.17884,0.01114
4688.10731,-0.00300
4690.03578,-0.00461
4691.96425,-0.00206
4693.89272,0.00369
4695.82119,0.01386
4697.74965,0.01791
4699.67812,0.01501
4701.60659,0.01380
4703.53506,0.00971
4705.46353,-0.00384
4707.39200,-0.00839
4709.32047,0.00131
4711.24893,0.00479
4713.17740,0.00582
4715.10587,0.00972
4717.03434,0.00407
4718.96281,-0.00389
4720.89128,-0.00307
4722.81975,0.00247
4724.74821,0.00674
4726.67668,0.00626
4728.60515,0.00513
4730.53362,0.00727
4732.46209,0.00388
4734.39056,-0.00385
4736.31903,-0.00753
4738.24750,-0.00580
4740.17596,0.00105
4742.10443,0.00672
4744.03290,0.00983
4745.96137,0.01478
4747.88984,0.01427
4749.81831,0.00519
4751.74678,0.00109
4753.67524,0.01125
4755.60371,0.02643
4757.53218,0.02617
4759.46065,0.01029
4761.38912,-0.00067
4763.31759,-0.00151
4765.24606,-0.00220
4767.17453,-0.00066
4769.10299,0.00892
4771.03146,0.01585
4772.95993,0.01145
4774.88840,0.00486
4776.81687,0.00272
4778.74534,0.00156
4780.67381,0.00253
4782.60227,0.00693
4784.53074,0.01099
4786.45921,0.01442
4788.38768,0.01438
4790.31615,0.00935
4792.24462,0.00452
4794.17309,0.00185
4796.10156,-0.00315
4798.03002,-0.01104
4799.95849,-0.01523
4801.88696,-0.01359
4803.81543,-0.00640
4805.74390,0.00319
4807.67237,0.00753
4809.60084,0.00515
4811.52930,0.00197
4813.45777,0.00274
4815.38624,0.00956
4817.31471,0.01918
4819.24318,0.02173
4821.17165,0.01646
4823.10012,0.00843
4825.02859,0.00458
4826.95705,0.00961
4828.88552,0.01280
4830.81399,0.01166
4832.74246,0.01580
4834.67093,0.01980
4836.59940,0.01179
4838.52787,-0.00382
4840.45633,-0.01710
4842.38480,-0.02296
4844.31327,-0.01616
4846.24174,-0.00319
4848.17021,0.00578
4850.09868,0.01760
4852.02715,0.03298
4853.95562,0.03523
4855.88408,0.02424
4857.81255,0.01911
4859.74102,0.02279
4861.66949,0.02023
4863.59796,0.01318
4865.52643,0.01226
4867.45490,0.01373
4869.38336,0.00865
4871.31183,-0.00383
4873.24030,-0.00668
4875.16877,0.00600
4877.09724,0.01642
4879.02571,0.01832
4880.95418,0.01510
4882.88265,0.00673
4884.81111,-0.00271
4886.73958,-0.00660
4888.66805,-0.00639
4890.59652,-0.00515
4892.52499,0.00125
4894.45346,0.01379
4896.38193,0.02206
4898.31039,0.01918
4900.23886,0.01675
4902.16733,0.01932
4904.09580,0.01299
4906.02427,0.00077
4907.95274,-0.00228
4909.88121,0.00165
4911.80967,0.00866
4913.73814,0.01791
4915.66661,0.02643
4917.59508,0.03016
4919.52355,0.02163
4921.45202,0.00498
4923.38049,-0.00467
4925.30896,-0.00100
4927.23742,0.01235
4929.16589,0.03313
4931.09436,0.05325
4933.02283,0.05272
4934.95130,0.02752
4936.87977,0.00601
4938.80824,0.01145
4940.73670,0.02424
4942.66517,0.02283
4944.59364,0.01668
4946.52211,0.01271
4948.45058,0.00507
4950.37905,-0.00483
4952.30752,-0.00708
4954.23599,0.00096
4956.16445,0.00952
4958.09292,0.00931
4960.02139,0.00020
4961.94986,-0.00822
4963.87833,0.00058
4965.80680,0.02690
4967.73527,0.04081
4969.66373,0.02869
4971.59220,0.01502
4973.52067,0.01768
4975.44914,0.02327
4977.37761,0.01342
4979.30608,-0.00009
4981.23455,0.00240
4983.16302,0.01016
4985.09148,0.00913
4987.01995,0.00259
4988.94842,-0.00893
4990.87689,-0.02477
4992.80536,-0.03225
4994.73383,-0.02306
4996.66230,-0.00555
4998.59076,0.00448
5000.51923,0.00639
5002.44770,0.01345
5004.37617,0.02484
5006.30464,0.03421
5008.23311,0.03810
5010.16158,0.03197
5012.09005,0.02160
5014.01851,0.01224
5015.94698,0.00534
5017.87545,0.00669
5019.80392,0.01590
5021.73239,0.01806
5023.66086,0.00906
5025.58933,0.00292
5027.51779,0.00572
5029.44626,0.01640
5031.37473,0.02642
5033.30320,0.02723
5035.23167,0.02438
5037.16014,0.02350
5039.08861,0.02372
5041.01708,0.02216
5042.94554,0.01836
5044.87401,0.02006
5046.80248,0.02630
5048.73095,0.02866
5050.65942,0.03477
5052.58789,0.04112
5054.51636,0.03620
5056.44482,0.02971
5058.37329,0.02739
5060.30176,0.02277
5062.23023,0.01964
5064.15870,0.02533
5066.08717,0.03363
5068.01564,0.03784
5069.94410,0.03324
5071.87257,0.02484
5073.80104,0.03184
5075.72951,0.05066
5077.65798,0.05259
5079.58645,0.02526
5081.51492,-0.00141
5083.44339,0.00657
5085.37185,0.03558
5087.30032,0.04658
5089.22879,0.03428
5091.15726,0.01807
5093.08573,0.00689
5095.01420,0.01139
5096.94267,0.02615
5098.87113,0.03377
5100.79960,0.03459
5102.72807,0.03369
5104.65654,0.03399
5106.58501,0.03187
5108.51348,0.02466
5110.44195,0.01965
5112.37042,0.02028
5114.29888,0.02358
5116.22735,0.03018
5118.15582,0.04352
5120.08429,0.05852
5122.01276,0.05704
5123.94123,0.03718
5125.86970,0.02170
5127.79816,0.01677
5129.72663,0.01677
5131.65510,0.02574
5133.58357,0.04103
5135.51204,0.05110
5137.44051,0.04513
5139.36898,0.03506
5141.29745,0.04306
5143.22591,0.04972
5145.15438,0.03432
5147.08285,0.02143
5149.01132,0.02699
5150.93979,0.03638
5152.86826,0.03433
5154.79673,0.03272
5156.72519,0.04389
5158.65366,0.04459
5160.58213,0.03804
5162.51060,0.04963
5164.43907,0.05417
5166.36754,0.03049
5168.29601,0.01224
5170.22448,0.01217
5172.15294,0.01172
5174.08141,0.01198
5176.00988,0.01326
5177.93835,0.01147
5179.86682,0.01815
5181.79529,0.03907
5183.72376,0.05947
5185.65222,0.06308
5187.58069,0.05676
5189.50916,0.05210
5191.43763,0.04616
5193.36610,0.03680
5195.29457,0.02094
5197.22304,0.00804
5199.15151,0.02302
5201.07997,0.04968
5203.00844,0.05193
5204.93691,0.03760
5206.86538,0.03844
5208.79385,0.05923
5210.72232,0.07893
5212.65079,0.08425
5214.57925,0.07164
5216.50772,0.05108
5218.43619,0.03742
5220.36466,0.03313
5222.29313,0.03866
5224.22160,0.04604
5226.15007,0.03733
5228.07854,0.02102
5230.00700,0.01348
5231.93547,0.01689
5233.86394,0.02512
5235.79241,0.02059
5237.72088,0.00439
5239.64935,-0.00007
5241.57782,0.02259
5243.50628,0.06004
5245.43475,0.07773
5247.36322,0.07108
5249.29169,0.06017
5251.22016,0.05250
5253.14863,0.05108
5255.07710,0.04666
5257.00556,0.03257
5258.93403,0.02912
5260.86250,0.04442
5262.79097,0.04994
5264.71944,0.04222
5266.64791,0.05685
5268.57638,0.08083
5270.50485,0.08297
5272.43331,0.06344
5274.36178,0.03967
5276.29025,0.03965
5278.21872,0.06074
5280.14719,0.06600
5282.07566,0.05614
5284.00413,0.06114
5285.93259,0.07163
5287.86106,0.05943
5289.78953,0.03984
5291.71800,0.04265
5293.64647,0.05597
5295.57494,0.05822
5297.50341,0.05888
5299.43188,0.06738
5301.36034,0.06372
5303.28881,0.04303
5305.21728,0.03228
5307.14575,0.03576
5309.07422,0.03727
5311.00269,0.03586
5312.93116,0.03626
5314.85962,0.03698
5316.78809,0.03255
5318.71656,0.02688
5320.64503,0.02967
5322.57350,0.04014
5324.50197,0.05453
5326.43044,0.06033
5328.35891,0.05020
5330.28737,0.03437
5332.21584,0.01924
5334.14431,0.02298
5336.07278,0.04857
5338.00125,0.06484
5339.92972,0.06482
5341.85819,0.07242
5343.78665,0.08244
5345.71512,0.07491
5347.64359,0.06099
5349.57206,0.06047
5351.50053,0.08219
5353.42900,0.10227
5355.35747,0.08580
5357.28594,0.06158
5359.21440,0.06428
5361.14287,0.08401
5363.07134,0.08650
5364.99981,0.07112
5366.92828,0.07000
5368.85675,0.08020
5370.78522,0.08006
5372.71368,0.06653
5374.64215,0.04868
5376.57062,0.03299
5378.49909,0.02888
5380.42756,0.04089
5382.35603,0.05902
5384.28450,0.07099
5386.21297,0.07295
5388.14143,0.07701
5390.06990,0.08278
5391.99837,0.08246
5393.92684,0.08421
5395.85531,0.08950
5397.78378,0.08564
5399.71225,0.08178
5401.64071,0.09281
5403.56918,0.09618
5405.49765,0.07926
5407.42612,0.06228
5409.35459,0.04850
5411.28306,0.04752
5413.21153,0.06622
5415.13999,0.07376
5417.06846,0.07022
5418.99693,0.07001
5420.92540,0.06220
5422.85387,0.05527
5424.78234,0.05863
5426.71081,0.05440
5428.63928,0.05590
5430.56774,0.08291
5432.49621,0.11278
5434.42468,0.12356
5436.35315,0.09818
5438.28162,0.05488
5440.21009,0.03078
5442.13856,0.03343
5444.06702,0.04820
5445.99549,0.05846
5447.92396,0.05184
5449.85243,0.05459
5451.78090,0.07445
5453.70937,0.07214
5455.63784,0.06349
5457.56631,0.08732
5459.49477,0.11345
5461.42324,0.12625
5463.35171,0.13764
5465.28018,0.13785
5467.20865,0.10876
5469.13712,0.04705
5471.06559,0.00860
5472.99405,0.03526
5474.92252,0.08761
5476.85099,0.10858
5478.77946,0.10751
5480.70793,0.10998
5482.63640,0.11511
5484.56487,0.10780
5486.49334,0.07508
5488.42180,0.05581
5490.35027,0.07307
5492.27874,0.08060
5494.20721,0.07558
5496.13568,0.08498
5498.06415,0.09337
5499.99262,0.09237
5501.92108,0.09176
5503.84955,0.09406
5505.77802,0.09386
5507.70649,0.08086
5509.63496,0.06286
5511.56343,0.05008
5513.49190,0.03262
5515.42037,0.01113
5517.34883,0.00826
5519.27730,0.04148
5521.20577,0.08798
5523.13424,0.10246
5525.06271,0.07420
5526.99118,0.04949
5528.91965,0.05803
5530.84811,0.07402
5532.77658,0.08191
5534.70505,0.09698
5536.63352,0.11270
5538.56199,0.10311
5540.49046,0.08570
5542.41893,0.09404
5544.34740,0.11107
5546.27586,0.09842
5548.20433,0.05805
5550.13280,0.03886
5552.06127,0.05959
5553.98974,0.07200
5555.91821,0.04100
5557.84668,0.01366
5559.77514,0.02169
5561.70361,0.03935
5563.63208,0.05875
5565.56055,0.07532
5567.48902,0.08443
5569.41749,0.08700
5571.34596,0.09206
5573.27443,0.10133
5575.20289,0.10667
5577.13136,0.11552
5579.05983,0.10673
5580.98830,0.07903
5582.91677,0.07269
5584.84524,0.07895
5586.77371,0.06704
5588.70217,0.03838
5590.63064,0.02661
5592.55911,0.04354
5594.48758,0.05694
5596.41605,0.05058
5598.34452,0.04087
5600.27299,0.04164
5602.20145,0.05059
5604.12992,0.06604
5606.05839,0.09252
5607.98686,0.11572
5609.91533,0.11517
5611.84380,0.09918
5613.77227,0.09018
5615.70074,0.08903
5617.62920,0.07875
5619.55767,0.06778
5621.48614,0.06321
5623.41461,0.05262
5625.34308,0.05053
5627.27155,0.05997
5629.20002,0.04943
5631.12848,0.01615
5633.05695,0.00933
5634.98542,0.05824
5636.91389,0.10624
5638.84236,0.10086
5640.77083,0.07360
5642.69930,0.06405
5644.62777,0.06732
5646.55623,0.07139
5648.48470,0.06634
5650.41317,0.05433
5652.34164,0.06110
5654.27011,0.08297
5656.19858,0.09911
5658.12705,0.11140
5660.05551,0.10928
5661.98398,0.08147
5663.91245,0.06441
5665.84092,0.07250
5667.76939,0.07425
5669.69786,0.06677
5671.62633,0.06533
5673.55480,0.07155
5675.48326,0.07263
5677.41173,0.06722
5679.34020,0.06472
5681.26867,0.06972
5683.19714,0.09554
5685.12561,0.12019
5687.05408,0.11667
5688.98254,0.10245
5690.91101,0.09291
5692.83948,0.09649
5694.76795,0.11656
5696.69642,0.12759
5698.62489,0.11314
5700.55336,0.09211
5702.48183,0.08614
5704.41029,0.09590
5706.33876,0.09861
5708.26723,0.08985
5710.19570,0.09489
5712.12417,0.11232
5714.05264,0.11575
5715.98111,0.09510
5717.90957,0.07076
5719.83804,0.06895
5721.76651,0.07493
5723.69498,0.07390
5725.62345,0.07583
5727.55192,0.07388
5729.48039,0.07100
5731.40886,0.07750
5733.33732,0.07973
5735.26579,0.07919
5737.19426,0.08832
5739.12273,0.09890
5741.05120,0.10560
5742.97967,0.11119
5744.90814,0.12295
5746.83660,0.14651
5748.76507,0.15590
5750.69354,0.13169
5752.62201,0.10296
5754.55048,0.08631
5756.47895,0.07616
5758.40742,0.06038
5760.33588,0.03409
5762.26435,0.03993
5764.19282,0.08117
5766.12129,0.09707
5768.04976,0.08967
5769.97823,0.07216
5771.90670,0.02141
5773.83517,-0.01232
5775.76363,0.03555
5777.69210,0.11040
5779.62057,0.13394
5781.54904,0.11711
5783.47751,0.09731
5785.40598,0.10031
5787.33445,0.12407
5789.26291,0.13558
5791.19138,0.12603
5793.11985,0.10635
5795.04832,0.08408
5796.97679,0.06452
5798.90526,0.05691
5800.83373,0.05400
5802.76220,0.04320
5804.69066,0.04269
5806.61913,0.06251
5808.54760,0.08529
5810.47607,0.09486
5812.40454,0.08680
5814.33301,0.07215
5816.26148,0.08006
5818.18994,0.11772
5820.11841,0.13425
5822.04688,0.12489
5823.97535,0.11580
5825.90382,0.09109
5827.83229,0.08130
5829.76076,0.09457
5831.68923,0.08918
5833.61769,0.07669
5835.54616,0.06942
5837.47463,0.06698
5839.40310,0.07051
5841.33157,0.05167
5843.26004,0.02733
5845.18851,0.05427
5847.11697,0.11251
5849.04544,0.12746
5850.97391,0.08578
5852.90238,0.05026
5854.83085,0.05367
5856.75932,0.09193
5858.68779,0.13460
5860.61626,0.12496
5862.54472,0.08103
5864.47319,0.07506
5866.40166,0.09126
5868.33013,0.08516
5870.25860,0.05962
5872.18707,0.02907
5874.11554,0.02416
5876.04400,0.06309
5877.97247,0.10296
5879.90094,0.11029
5881.82941,0.10847
5883.75788,0.11308
5885.68635,0.11712
5887.61482,0.11741
5889.54329,0.11106
5891.47175,0.10198
5893.40022,0.10333
5895.32869,0.10371
5897.25716,0.08891
5899.18563,0.08991
5901.11410,0.09777
5903.04257,0.06989
5904.97103,0.05670
5906.89950,0.07818
5908.82797,0.06236
5910.75644,0.03332
5912.68491,0.05342
5914.61338,0.05985
5916.54185,0.02740
5918.47032,0.02740
5920.39878,0.05415
5922.32725,0.06635
5924.25572,0.05950
5926.18419,0.02863
5928.11266,0.01915
5930.04113,0.06378
5931.96960,0.09817
5933.89806,0.08660
5935.82653,0.07155
5937.75500,0.07455
5939.68347,0.08611
5941.61194,0.10126
5943.54041,0.12189
5945.46888,0.14629
5947.39734,0.15145
5949.32581,0.13833
5951.25428,0.14345
5953.18275,0.16079
5955.11122,0.16719
5957.03969,0.18337
5958.96816,0.21359
5960.89663,0.21428
5962.82509,0.17332
5964.75356,0.12638
5966.68203,0.10071
5968.61050,0.10329
5970.53897,0.12232
5972.46744,0.12918
5974.39591,0.11543
5976.32437,0.10896
5978.25284,0.12964
5980.18131,0.14736
5982.10978,0.12847
5984.03825,0.09608
5985.96672,0.07777
5987.89519,0.08791
5989.82366,0.12043
5991.75212,0.13465
5993.68059,0.12497
5995.60906,0.10726
5997.53753,0.09316
5999.46600,0.10574
6001.39447,0.12425
6003.32294,0.09265
6005.25140,0.04699
6007.17987,0.05062
6009.10834,0.05769
6011.03681,0.04680
6012.96528,0.04440
6014.89375,0.04145
6016.82222,0.02816
6018.75069,0.02587
6020.67915,0.05957
6022.60762,0.10226
6024.53609,0.09950
6026.46456,0.06405
6028.39303,0.07267
6030.32150,0.12438
6032.24997,0.12845
6034.17843,0.07634
6036.10690,0.05717
6038.03537,0.10271
6039.96384,0.14528
6041.89231,0.14343
6043.82078,0.11563
6045.74925,0.09060
6047.67772,0.07880
6049.60618,0.08674
6051.53465,0.11235
6053.46312,0.12415
6055.39159,0.09387
6057.32006,0.06529
6059.24853,0.07156
6061.17700,0.06916
6063.10546,0.05104
6065.03393,0.03819
6066.96240,0.03327
6068.89087,0.04316
6070.81934,0.07038
6072.74781,0.09508
6074.67628,0.08194
6076.60475,0.03067
6078.53321,-0.00435
6080.46168,0.02625
6082.39015,0.09173
6084.31862,0.13907
6086.24709,0.14283
6088.17556,0.10740
6090.10403,0.09575
6092.03249,0.10908
6093.96096,0.08478
6095.88943,0.03973
6097.81790,0.03452
6099.74637,0.07439
6101.67484,0.10460
6103.60331,0.09213
6105.53177,0.07381
6107.46024,0.07224
6109.38871,0.06047
6111.31718,0.04763
6113.24565,0.05773
6115.17412,0.07904
6117.10259,0.09622
6119.03106,0.07706
6120.95952,0.04190
6122.88799,0.04628
6124.81646,0.07036
6126.74493,0.09331
6128.67340,0.11991
6130.60187,0.12415
6132.53034,0.09649
6134.45880,0.08024
6136.38727,0.09938
6138.31574,0.12133
6140.24421,0.09629
6142.17268,0.02771
6144.10115,0.00656
6146.02962,0.05836
6147.95809,0.09889
6149.88655,0.09929
6151.81502,0.09728
6153.74349,0.10667
6155.67196,0.11172
6157.60043,0.10671
6159.52890,0.11378
6161.45737,0.15560
6163.38583,0.18147
6165.31430,0.14818
6167.24277,0.09890
6169.17124,0.06195
6171.09971,0.03713
6173.02818,0.02498
6174.95665,0.00646
6176.88512,-0.01905
6178.81358,-0.00584
6180.74205,0.02713
6182.67052,0.03084
6184.59899,0.02596
6186.52746,0.03088
6188.45593,0.05835
6190.38440,0.08120
6192.31286,0.07736
6194.24133,0.08523
6196.16980,0.08547
6198.09827,0.05748
6200.02674,0.03288
6201.95521,0.02763
6203.88368,0.05258
6205.81215,0.08863
6207.74061,0.09792
6209.66908,0.10813
6211.59755,0.14886
6213.52602,0.16381
6215.45449,0.13449
6217.38296,0.10703
6219.31143,0.09374
6221.23989,0.08261
6223.16836,0.08920
6225.09683,0.12756
6227.02530,0.16143
6228.95377,0.14579
6230.88224,0.07469
6232.81071,-0.01384
6234.73918,-0.05040
6236.66764,-0.06010
6238.59611,-0.08770
6240.52458,-0.07401
6242.45305,-0.01624
6244.38152,0.02161
6246.30999,0.04034
6248.23846,0.04644
6250.16692,0.05126
6252.09539,0.07370
6254.02386,0.09807
6255.95233,0.10818
6257.88080,0.11255
6259.80927,0.13549
6261.73774,0.16594
6263.66621,0.15400
6265.59467,0.10930
6267.52314,0.08861
6269.45161,0.09095
6271.38008,0.09619
6273.30855,0.10724
6275.23702,0.13113
6277.16549,0.13232
6279.09395,0.10516
6281.02242,0.08434
6282.95089,0.05157
6284.87936,0.00665
6286.80783,-0.01049
6288.73630,0.00581
6290.66477,0.03113
6292.59323,0.07711
6294.52170,0.12785
6296.45017,0.11108
6298.37864,0.05759
6300.30711,0.03456
6302.23558,0.03937
6304.16405,0.05444
6306.09252,0.06988
6308.02098,0.09396
6309.94945,0.13417
6311.87792,0.14592
6313.80639,0.10014
6315.73486,0.03236
6317.66333,0.00886
6319.59180,0.07270
6321.52026,0.14569
6323.44873,0.13537
6325.37720,0.09396
6327.30567,0.10590
6329.23414,0.16983
6331.16261,0.20613
6333.09108,0.16263
6335.01955,0.09011
6336.94801,0.05573
6338.87648,0.04457
6340.80495,0.05682
6342.73342,0.08821
6344.66189,0.10632
6346.59036,0.13196
6348.51883,0.13407
6350.44729,0.11294
6352.37576,0.14533
6354.30423,0.17234
6356.23270,0.13865
6358.16117,0.08831
6360.08964,0.05636
6362.01811,0.05906
6363.94658,0.08076
6365.87504,0.07359
6367.80351,0.05422
6369.73198,0.05409
6371.66045,0.06256
6373.58892,0.03542
6375.51739,-0.04312
6377.44586,-0.06102
6379.37432,0.02698
6381.30279,0.14908
6383.23126,0.23974
6385.15973,0.21848
6387.08820,0.12850
6389.01667,0.08725
6390.94514,0.07251
6392.87361,0.03884
6394.80207,0.02835
6396.73054,0.03207
6398.65901,0.02300
6400.58748,0.02409
6402.51595,0.06742
6404.44442,0.12785
6406.37289,0.14502
6408.30135,0.13446
6410.22982,0.13341
6412.15829,0.10144
6414.08676,0.04619
6416.01523,0.03271
6417.94370,0.05854
6419.87217,0.08156
6421.80064,0.08114
6423.72910,0.06908
6425.65757,0.07358
6427.58604,0.08270
6429.51451,0.06897
6431.44298,0.04878
6433.37145,0.03635
6435.29992,0.00534
6437.22838,-0.04664
6439.15685,-0.07338
6441.08532,-0.05395
6443.01379,-0.00038
6444.94226,0.06749
6446.87073,0.12118
6448.79920,0.13362
6450.72766,0.09727
6452.65613,0.03011
6454.58460,-0.03198
6456.51307,-0.05712
6458.44154,-0.06094
6460.37001,-0.05209
6462.29848,-0.01290
6464.22695,0.02334
6466.15541,0.04433
6468.08388,0.08961
6470.01235,0.15127
6471.94082,0.14597
6473.86929,0.05581
6475.79776,-0.01207
6477.72623,0.00586
6479.65469,0.05205
6481.58316,0.11346
6483.51163,0.17040
6485.44010,0.15087
6487.36857,0.12410
6489.29704,0.15250
6491.22551,0.14319
6493.15398,0.10970
6495.08244,0.12531
6497.01091,0.13374
6498.93938,0.12008
6500.86785,0.10018
6502.79632,0.06303
6504.72479,0.03273
6506.65326,0.05742
6508.58172,0.12623
6510.51019,0.15536
6512.43866,0.11082
6514.36713,0.05263
6516.29560,0.00884
6518.22407,-0.00191
6520.15254,0.05447
6522.08101,0.12234
6524.00947,0.13025
6525.93794,0.10339
6527.86641,0.05985
6529.79488,-0.02180
6531.72335,-0.08535
6533.65182,-0.07279
6535.58029,-0.01666
6537.50875,0.01990
6539.43722,0.00239
6541.36569,-0.02661
6543.29416,-0.00228
6545.22263,0.06297
6547.15110,0.10916
6549.07957,0.10647
6551.00804,0.06660
6552.93650,0.01550
6554.86497,-0.03506
6556.79344,-0.05433
6558.72191,-0.03250
6560.65038,-0.00434
6562.57885,0.03899
6564.50732,0.12190
6566.43578,0.17353
6568.36425,0.15241
6570.29272,0.10818
6572.22119,0.05260
6574.14966,-0.01730
6576.07813,-0.05291
6578.00660,-0.01027
6579.93507,0.09800
6581.86353,0.22022
6583.79200,0.26047
6585.72047,0.20557
6587.64894,0.15846
6589.57741,0.13895
6591.50588,0.11148
6593.43435,0.07343
6595.36281,0.05733
6597.29128,0.08938
6599.21975,0.12803
6601.14822,0.13418
6603.07669,0.12376
6605.00516,0.11295
6606.93363,0.12291
6608.86210,0.15780
6610.79056,0.13036
6612.71903,0.03330
6614.64750,0.00803
6616.57597,0.03396
6618.50444,0.03395
6620.43291,0.07621
6622.36138,0.13855
6624.28984,0.13579
6626.21831,0.11215
6628.14678,0.09838
6630.07525,0.04896
6632.00372,0.02155
6633.93219,0.04721
6635.86066,0.07783
6637.78912,0.12328
6639.71759,0.16703
6641.64606,0.13362
6643.57453,0.02509
6645.50300,-0.01890
6647.43147,0.05557
6649.35994,0.13290
6651.28841,0.15948
6653.21687,0.15440
6655.14534,0.11784
6657.07381,0.06759
6659.00228,0.09389
6660.93075,0.16412
6662.85922,0.15574
6664.78769,0.10203
6666.71615,0.09098
6668.64462,0.10419
6670.57309,0.09888
6672.50156,0.10861
6674.43003,0.10670
6676.35850,0.03702
6678.28697,-0.00869
6680.21544,0.06450
6682.14390,0.14976
6684.07237,0.12404
6686.00084,0.04867
6687.92931,0.00488
6689.85778,0.00722
6691.78625,0.04961
6693.71472,0.09271
6695.64318,0.07767
6697.57165,0.05712
6699.50012,0.12485
6701.42859,0.13139
6703.35706,0.00035
6705.28553,-0.05093
6707.21400,0.03306
6709.14247,0.08152
6711.07093,0.09500
6712.99940,0.12310
6714.92787,0.10565
6716.85634,0.04013
6718.78481,-0.01827
6720.71328,-0.02347
6722.64175,0.02148
6724.57021,0.04879
6726.49868,0.06658
6728.42715,0.10923
6730.35562,0.13607
6732.28409,0.10503
6734.21256,0.03596
6736.14103,-0.01704
6738.06950,-0.04122
6739.99796,-0.03384
6741.92643,0.04573
6743.85490,0.12913
6745.78337,0.12021
6747.71184,0.07233
6749.64031,0.12391
6751.56878,0.25589
6753.49724,0.30194
6755.42571,0.23657
6757.35418,0.15771
6759.28265,0.09954
6761.21112,0.08876
6763.13959,0.13916
6765.06806,0.18804
6766.99653,0.19908
6768.92499,0.14811
6770.85346,0.01934
6772.78193,-0.04514
6774.71040,0.04193
6776.63887,0.16783
6778.56734,0.24688
6780.49581,0.22927
6782.42427,0.11769
6784.35274,0.04815
6786.28121,0.03905
6788.20968,0.03428
6790.13815,0.06712
6792.06662,0.17441
6793.99509,0.27865
6795.92355,0.30143
6797.85202,0.28600
6799.78049,0.22061
6801.70896,0.08622
6803.63743,0.01616
6805.56590,0.04005
6807.49437,0.04294
6809.42284,-0.01822
6811.35130,-0.08912
6813.27977,-0.10868
6815.20824,-0.06857
6817.13671,0.02832
6819.06518,0.09397
6820.99365,0.07698
6822.92212,0.01075
6824.85058,-0.07933
6826.77905,-0.15165
6828.70752,-0.14318
6830.63599,-0.10562
6832.56446,-0.13509
6834.49293,-0.15934
6836.42140,-0.06981
6838.34987,0.06494
6840.27833,0.12409
6842.20680,0.14194
6844.13527,0.18419
6846.06374,0.19401
6847.99221,0.11991
6849.92068,0.07273
6851.84915,0.11726
6853.77761,0.15350
6855.70608,0.13736
6857.63455,0.09231
6859.56302,0.05465
6861.49149,0.07593
6863.41996,0.14093
6865.34843,0.16346
6867.27690,0.11925
6869.20536,0.04587
6871.13383,-0.01944
6873.06230,-0.03918
6874.99077,0.03114
6876.91924,0.17512
6878.84771,0.26499
6880.77618,0.21140
6882.70464,0.17334
6884.63311,0.16241
6886.56158,0.08275
6888.49005,0.03985
6890.41852,0.06832
6892.34699,0.05533
6894.27546,-0.02098
6896.20393,-0.07290
6898.13239,-0.04010
6900.06086,-0.01123
6901.98933,-0.02186
6903.91780,0.01611
6905.84627,0.07744
6907.77474,0.03000
6909.70321,-0.04695
6911.63167,0.00078
6913.56014,0.12413
6915.48861,0.17803
6917.41708,0.17997
6919.34555,0.20721
6921.27402,0.17088
6923.20249,0.04939
6925.13096,-0.03470
6927.05942,-0.06139
6928.98789,-0.04679
6930.91636,0.01394
6932.84483,0.09447
6934.77330,0.15929
6936.70177,0.21521
6938.63024,0.25559
6940.55870,0.20768
6942.48717,0.10865
6944.41564,0.05696
6946.34411,0.01924
6948.27258,-0.02419
6950.20105,-0.03952
6952.12952,0.00451
6954.05799,0.09356
6955.98645,0.13175
6957.91492,0.08886
6959.84339,0.01953
6961.77186,-0.02600
6963.70033,-0.03811
6965.62880,-0.02189
6967.55727,0.03643
6969.48573,0.05223
6971.41420,-0.01591
6973.34267,-0.02775
6975.27114,0.06898
6977.19961,0.12797
6979.12808,0.11002
6981.05655,0.07642
6982.98501,0.04296
6984.91348,0.03869
6986.84195,0.07635
6988.77042,0.14543
6990.69889,0.20659
6992.62736,0.21633
6994.55583,0.18824
6996.48430,0.16654
6998.41276,0.20455
7000.34123,0.21538
7002.26970,0.13557
7004.19817,0.11015
7006.12664,0.19449
7008.05511,0.21489
7009.98358,0.08043
7011.91204,-0.01870
7013.84051,0.03227
7015.76898,0.06715
7017.69745,0.03175
7019.62592,0.04335
7021.55439,0.08736
7023.48286,0.10448
7025.41133,0.11518
7027.33979,0.09467
7029.26826,-0.00320
7031.19673,-0.10551
7033.12520,-0.12659
7035.05367,-0.00964
7036.98214,0.20134
7038.91061,0.36273
7040.83907,0.37007
7042.76754,0.20825
7044.69601,0.01878
7046.62448,-0.11214
7048.55295,-0.09095
7050.48142,0.07519
7052.40989,0.15591
7054.33836,0.11499
7056.26682,0.14442
7058.19529,0.22265
7060.12376,0.20273
7062.05223,0.12061
7063.98070,0.03518
7065.90917,0.00438
7067.83764,0.03074
7069.76610,0.05777
7071.69457,0.03723
7073.62304,-0.01672
7075.55151,-0.08974
7077.47998,-0.14308
7079.40845,-0.12504
7081.33692,-0.03456
7083.26539,0.06824
7085.19385,0.13438
7087.12232,0.18016
7089.05079,0.21042
7090.97926,0.17922
7092.90773,0.14429
7094.83620,0.14759
7096.76467,0.08423
7098.69313,0.01384
7100.62160,0.08405
7102.55007,0.10822
7104.47854,0.02626
7106.40701,0.07129
7108.33548,0.20755
7110.26395,0.18961
7112.19242,0.08798
7114.12088,0.04456
7116.04935,0.02753
7117.97782,0.03924
7119.90629,0.10585
7121.83476,0.10476
7123.76323,0.09366
7125.69170,0.15271
7127.62016,0.12639
7129.54863,0.01585
7131.47710,-0.04633
7133.40557,-0.05593
7135.33404,-0.03095
7137.26251,0.02899
7139.19098,0.12850
7141.11944,0.17497
7143.04791,-0.02115
7144.97638,-0.26384
7146.90485,-0.15465
7148.83332,0.03415
7150.76179,0.06245
7152.69026,0.05160
7154.61873,0.05004
7156.54719,0.06335
7158.47566,0.10370
7160.40413,0.17863
7162.33260,0.26789
7164.26107,0.28311
7166.18954,0.16969
7168.11801,0.03326
7170.04647,-0.03319
7171.97494,-0.06315
7173.90341,-0.06568
7175.83188,-0.04249
7177.76035,-0.03232
7179.68882,-0.03620
7181.61729,-0.03554
7183.54576,-0.02870
7185.47422,-0.06540
7187.40269,-0.14077
7189.33116,-0.16478
7191.25963,-0.10134
7193.18810,-0.04142
7195.11657,-0.04677
7197.04504,-0.06399
7198.97350,-0.06976
7200.90197,-0.08507
7202.83044,-0.09222
7204.75891,-0.00776
7206.68738,0.12879
7208.61585,0.18474
7210.54432,0.15103
7212.47279,0.05991
7214.40125,-0.02875
7216.32972,-0.08218
7218.25819,-0.12126
7220.18666,-0.12419
7222.11513,-0.01380
7224.04360,0.19567
7225.97207,0.32792
7227.90053,0.19550
7229.82900,-0.06062
7231.75747,-0.02780
7233.68594,0.21474
7235.61441,0.24088
7237.54288,0.05796
7239.47135,-0.10402
7241.39982,-0.08352
7243.32828,0.10892
7245.25675,0.21963
7247.18522,0.19896
7249.11369,0.17716
7251.04216,0.16129
7252.97063,0.08743
7254.89910,0.06490
7256.82756,0.17567
7258.75603,0.29624
7260.68450,0.30031
7262.61297,0.24862
7264.54144,0.21547
7266.46991,0.23233
7268.39838,0.35068
7270.32685,0.43215
7272.25531,0.26840
7274.18378,0.06284
7276.11225,0.04674
7278.04072,0.09984
7279.96919,0.16336
7281.89766,0.21217
7283.82613,0.19398
7285.75459,0.16449
7287.68306,0.13607
7289.61153,0.03900
7291.54000,0.01723
7293.46847,0.14903
7295.39694,0.19341
7297.32541,0.12550
7299.25387,0.03447
7301.18234,-0.03397
7303.11081,0.05894
7305.03928,0.33008
7306.96775,0.55282
7308.89622,0.45451
7310.82469,0.14778
7312.75316,0.06046
7314.68162,0.24186
7316.61009,0.34800
7318.53856,0.08683
7320.46703,-0.26018
7322.39550,-0.39306
7324.32397,-0.24053
7326.25244,-0.03587
7328.18090,0.06666
7330.10937,0.13683
7332.03784,0.24401
7333.96631,0.29474
7335.89478,0.25381
7337.82325,0.19752
7339.75172,0.16214
7341.68019,0.12625
7343.60865,0.05169
7345.53712,0.04730
7347.46559,0.19974
7349.39406,0.29037
7351.32253,0.15589
7353.25100,-0.05054
7355.17947,-0.10553
7357.10793,0.01146
7359.03640,0.13646
7360.96487,0.20541
7362.89334,0.19621
7364.82181,0.09346
7366.75028,-0.04880
7368.67875,-0.20354
7370.60722,-0.27710
7372.53568,-0.28366
7374.46415,-0.25546
7376.39262,-0.12057
7378.32109,-0.01624
7380.24956,-0.03787
7382.17803,-0.07075
7384.10650,0.07967
7386.03496,0.32317
7387.96343,0.36214
7389.89190,0.31793
7391.82037,0.36502
7393.74884,0.32920
7395.67731,0.17396
7397.60578,0.04081
7399.53425,-0.05192
7401.46271,-0.05332
7403.39118,0.09550
7405.31965,0.27717
7407.24812,0.31167
7409.17659,0.24252
7411.10506,0.12319
7413.03353,-0.04287
7414.96199,-0.18455
7416.89046,-0.19298
7418.81893,-0.04321
7420.74740,0.06964
7422.67587,0.06862
7424.60434,0.06265
7426.53281,0.06683
7428.46128,0.03235
7430.38974,0.02669
7432.31821,0.20364
7434.24668,0.39608
7436.17515,0.32441
7438.10362,0.05994
7440.03209,-0.10810
7441.96056,-0.15572
7443.88902,-0.14879
7445.81749,-0.07565
7447.74596,0.02774
7449.67443,0.12665
7451.60290,0.06819
7453.53137,-0.18794
7455.45984,-0.35273
7457.38831,-0.31246
7459.31677,-0.09521
7461.24524,0.15424
7463.17371,0.24753
7465.10218,0.12901
7467.03065,0.01019
7468.95912,0.08219
7470.88759,0.14876
7472.81605,0.06956
7474.74452,0.05423
7476.67299,0.07982
7478.60146,0.03487
7480.52993,0.10815
7482.45840,0.27201
7484.38687,0.19537
7486.31533,0.02202
7488.24380,0.00053
7490.17227,0.03838
7492.10074,0.01151
7494.02921,-0.08562
7495.95768,-0.23980
7497.88615,-0.32192
