399.19301,-0.26754
401.12148,-0.81506
403.04995,-0.19803
404.97842,-0.02866
406.90689,-0.08137
408.83536,-0.06023
410.76382,-0.00469
412.69229,-0.05904
414.62076,-0.12348
416.54923,-0.04825
418.47770,0.14377
420.40617,0.18680
422.33464,0.12429
424.26311,0.07223
426.19157,0.03672
428.12004,0.09299
430.04851,0.21962
431.97698,0.28633
433.90545,0.23942
435.83392,0.14470
437.76239,0.06491
439.69085,0.02706
441.61932,0.05523
443.54779,0.10418
445.47626,0.09088
447.40473,0.05589
449.33320,0.07884
451.26167,0.10150
453.19013,0.05506
455.11860,0.00696
457.04707,0.03817
458.97554,0.08942
460.90401,0.06794
462.83248,0.05006
464.76095,0.09659
466.68942,0.12034
468.61788,0.09951
470.54635,0.12804
472.47482,0.20161
474.40329,0.20530
476.33176,0.18433
478.26023,0.19117
480.18870,0.18032
482.11716,0.15482
484.04563,0.15516
485.97410,0.16113
487.90257,0.14243
489.83104,0.13469
491.75951,0.16283
493.68798,0.19979
495.61645,0.19711
497.54491,0.13760
499.47338,0.08253
501.40185,0.08049
503.33032,0.09639
505.25879,0.08352
507.18726,0.05230
509.11573,0.04806
511.04419,0.08064
512.97266,0.11328
514.90113,0.10588
516.82960,0.07608
518.75807,0.06900
520.68654,0.08989
522.61501,0.11067
524.54348,0.10181
526.47194,0.09638
528.40041,0.10898
530.32888,0.12779
532.25735,0.15479
534.18582,0.15680
536.11429,0.11578
538.04276,0.09159
539.97122,0.10652
541.89969,0.10852
543.82816,0.10318
545.75663,0.10240
547.68510,0.08844
549.61357,0.17278
551.54204,0.70235
553.47051,1.33121
555.39897,1.13151
557.32744,0.44137
559.25591,0.15694
561.18438,0.15021
563.11285,0.14571
565.04132,0.14269
566.96979,0.16532
568.89825,0.18903
570.82672,0.15509
572.75519,0.11448
574.68366,0.11244
576.61213,0.11941
578.54060,0.12768
580.46907,0.13771
582.39754,0.13236
584.32600,0.12468
586.25447,0.12895
588.18294,0.14054
590.11141,0.14844
592.03988,0.14104
593.96835,0.11693
595.89682,0.09146
597.82528,0.08784
599.75375,0.10439
601.68222,0.11814
603.61069,0.10938
605.53916,0.08888
607.46763,0.07919
609.39610,0.08445
611.32456,0.10332
613.25303,0.12463
615.18150,0.13146
617.10997,0.13455
619.03844,0.14307
620.96691,0.13741
622.89538,0.12700
624.82385,0.12815
626.75231,0.12538
628.68078,0.11728
630.60925,0.12816
632.53772,0.15354
634.46619,0.15587
636.39466,0.14335
638.32313,0.14861
640.25159,0.15511
642.18006,0.13567
644.10853,0.10766
646.03700,0.09048
647.96547,0.08667
649.89394,0.10104
651.82241,0.11383
653.75088,0.10975
655.67934,0.10006
657.60781,0.08701
659.53628,0.07791
661.46475,0.08384
663.39322,0.09684
665.32169,0.10419
667.25016,0.09287
669.17862,0.07703
671.10709,0.08978
673.03556,0.10178
674.96403,0.11036
676.89250,0.12507
678.82097,0.12563
680.74944,0.11284
682.67791,0.11595
684.60637,0.12293
686.53484,0.11024
688.46331,0.10387
690.39178,0.11508
692.32025,0.11405
694.24872,0.10197
696.17719,0.09653
698.10565,0.10001
700.03412,0.10935
701.96259,0.11883
703.89106,0.12835
705.81953,0.13936
707.74800,0.14819
709.67647,0.15952
711.60494,0.17110
713.53340,0.16465
715.46187,0.14826
717.39034,0.13918
719.31881,0.12929
721.24728,0.11770
723.17575,0.11789
725.10422,0.12611
727.03268,0.12868
728.96115,0.12907
730.88962,0.13592
732.81809,0.14888
734.74656,0.15493
736.67503,0.14432
738.60350,0.13170
740.53197,0.13368
742.46043,0.15093
744.38890,0.16982
746.31737,0.17493
748.24584,0.16818
750.17431,0.15650
752.10278,0.13738
754.03125,0.11774
755.95971,0.10856
757.88818,0.10991
759.81665,0.11912
761.74512,0.12950
763.67359,0.14221
765.60206,0.15198
767.53053,0.14008
769.45900,0.12173
771.38746,0.11833
773.31593,0.11499
775.24440,0.11539
777.17287,0.13449
779.10134,0.14559
781.02981,0.13739
782.95828,0.13648
784.88674,0.14931
786.81521,0.15560
788.74368,0.14790
790.67215,0.13928
792.60062,0.13749
794.52909,0.14074
796.45756,0.14250
798.38602,0.14364
800.31449,0.15073
802.24296,0.15331
804.17143,0.13717
806.09990,0.11714
808.02837,0.11958
809.95684,0.13917
811.88531,0.15050
813.81377,0.14822
815.74224,0.14508
817.67071,0.13998
819.59918,0.13050
821.52765,0.13124
823.45612,0.13652
825.38459,0.13621
827.31305,0.13719
829.24152,0.13852
831.16999,0.14081
833.09846,0.14413
835.02693,0.14566
836.95540,0.14917
838.88387,0.15388
840.81234,0.14945
842.74080,0.13758
844.66927,0.13923
846.59774,0.14591
848.52621,0.13705
850.45468,0.13022
852.38315,0.13908
854.31162,0.14545
856.24008,0.13961
858.16855,0.13937
860.09702,0.14902
862.02549,0.14958
863.95396,0.13954
865.88243,0.13561
867.81090,0.14249
869.73937,0.14828
871.66783,0.14637
873.59630,0.14546
875.52477,0.14950
877.45324,0.14728
879.38171,0.13777
881.31018,0.13343
883.23865,0.13304
885.16711,0.13306
887.09558,0.14056
889.02405,0.15024
890.95252,0.15325
892.88099,0.15256
894.80946,0.15136
896.73793,0.14970
898.66640,0.14747
900.59486,0.14848
902.52333,0.14795
904.45180,0.14155
906.38027,0.14192
908.30874,0.14989
910.23721,0.15612
912.16568,0.16118
914.09414,0.16641
916.02261,0.16885
917.95108,0.16666
919.87955,0.15775
921.80802,0.14214
923.73649,0.13122
925.66496,0.13502
927.59343,0.14632
929.52189,0.14987
931.45036,0.14485
933.37883,0.14341
935.30730,0.14789
937.23577,0.15245
939.16424,0.15455
941.09271,0.15129
943.02117,0.14870
944.94964,0.15805
946.87811,0.16652
948.80658,0.15723
950.73505,0.14180
952.66352,0.13606
954.59199,0.13975
956.52045,0.14464
958.44892,0.14863
960.37739,0.15226
962.30586,0.14761
964.23433,0.13209
966.16280,0.12082
968.09127,0.12476
970.01974,0.13666
971.94820,0.14638
973.87667,0.15214
975.80514,0.15469
977.73361,0.15277
979.66208,0.15034
981.59055,0.15115
983.51902,0.15077
985.44748,0.15166
987.37595,0.16059
989.30442,0.16853
991.23289,0.16379
993.16136,0.15396
995.08983,0.15010
997.01830,0.15210
998.94677,0.15935
1000.87523,0.16983
1002.80370,0.17502
1004.73217,0.17188
1006.66064,0.16686
1008.58911,0.16208
1010.51758,0.15537
1012.44605,0.15215
1014.37451,0.15556
1016.30298,0.15409
1018.23145,0.14377
1020.15992,0.14091
1022.08839,0.14979
1024.01686,0.15513
1025.94533,0.15625
1027.87380,0.16194
1029.80226,0.16203
1031.73073,0.15370
1033.65920,0.15447
1035.58767,0.16271
1037.51614,0.16315
1039.44461,0.15630
1041.37308,0.15138
1043.30154,0.14798
1045.23001,0.14065
1047.15848,0.13576
1049.08695,0.14215
1051.01542,0.15506
1052.94389,0.16364
1054.87236,0.16505
1056.80083,0.16203
1058.72929,0.15641
1060.65776,0.14965
1062.58623,0.14599
1064.51470,0.14975
1066.44317,0.15280
1068.37164,0.15315
1070.30011,0.16086
1072.22857,0.16835
1074.15704,0.16809
1076.08551,0.16887
1078.01398,0.17044
1079.94245,0.16977
1081.87092,0.17010
1083.79939,0.16990
1085.72786,0.16929
1087.65632,0.16966
1089.58479,0.16917
1091.51326,0.17013
1093.44173,0.17125
1095.37020,0.16445
1097.29867,0.15538
1099.22714,0.15862
1101.15560,0.16896
1103.08407,0.17146
1105.01254,0.17090
1106.94101,0.17589
1108.86948,0.17834
1110.79795,0.17581
1112.72642,0.17571
1114.65489,0.17770
1116.58335,0.17715
1118.51182,0.17395
1120.44029,0.17158
1122.36876,0.17144
1124.29723,0.17028
1126.22570,0.16571
1128.15417,0.16095
1130.08263,0.15815
1132.01110,0.15725
1133.93957,0.15998
1135.86804,0.16549
1137.79651,0.16823
1139.72498,0.16657
1141.65345,0.16663
1143.58191,0.17065
1145.51038,0.17286
1147.43885,0.16929
1149.36732,0.16597
1151.29579,0.16922
1153.22426,0.17403
1155.15273,0.17167
1157.08120,0.16313
1159.00966,0.16051
1160.93813,0.16590
1162.86660,0.16964
1164.79507,0.17088
1166.72354,0.17334
1168.65201,0.17405
1170.58048,0.17154
1172.50894,0.17082
1174.43741,0.17178
1176.36588,0.17043
1178.29435,0.16925
1180.22282,0.16940
1182.15129,0.16911
1184.07976,0.17216
1186.00823,0.17644
1187.93669,0.17230
1189.86516,0.16342
1191.79363,0.16069
1193.72210,0.16409
1195.65057,0.16729
1197.57904,0.16787
1199.50751,0.16743
1201.43597,0.16733
1203.36444,0.16954
1205.29291,0.17265
1207.22138,0.17103
1209.14985,0.16569
1211.07832,0.16369
1213.00679,0.16801
1214.93526,0.17227
1216.86372,0.17062
1218.79219,0.16709
1220.72066,0.16376
1222.64913,0.16105
1224.57760,0.16131
1226.50607,0.16182
1228.43454,0.16343
1230.36300,0.16766
1232.29147,0.16854
1234.21994,0.16622
1236.14841,0.16712
1238.07688,0.17042
1240.00535,0.17135
1241.93382,0.16965
1243.86229,0.16591
1245.79075,0.16175
1247.71922,0.16261
1249.64769,0.16584
1251.57616,0.16531
1253.50463,0.16457
1255.43310,0.16447
1257.36157,0.16212
1259.29003,0.16185
1261.21850,0.16719
1263.14697,0.17226
1265.07544,0.17168
1267.00391,0.16778
1268.93238,0.16488
1270.86085,0.16579
1272.78932,0.16953
1274.71778,0.17273
1276.64625,0.17404
1278.57472,0.17330
1280.50319,0.17120
1282.43166,0.17042
1284.36013,0.17057
1286.28860,0.16919
1288.21706,0.16929
1290.14553,0.17208
1292.07400,0.17301
1294.00247,0.17012
1295.93094,0.16554
1297.85941,0.16236
1299.78788,0.15842
1301.71634,0.14784
1303.64481,0.13398
1305.57328,0.13468
1307.50175,0.15619
1309.43022,0.17374
1311.35869,0.17247
1313.28716,0.16833
1315.21563,0.17080
1317.14409,0.17471
1319.07256,0.17667
1321.00103,0.17535
1322.92950,0.17176
1324.85797,0.16821
1326.78644,0.16697
1328.71491,0.16615
1330.64337,0.16202
1332.57184,0.16063
1334.50031,0.16669
1336.42878,0.17364
1338.35725,0.17591
1340.28572,0.17099
1342.21419,0.16784
1344.14266,0.17880
1346.07112,0.18901
1347.99959,0.18207
1349.92806,0.17239
1351.85653,0.16874
1353.78500,0.16417
1355.71347,0.15934
1357.64194,0.15773
1359.57040,0.16264
1361.49887,0.17276
1363.42734,0.17852
1365.35581,0.17708
1367.28428,0.17518
1369.21275,0.17470
1371.14122,0.17581
1373.06969,0.18063
1374.99815,0.18520
1376.92662,0.18302
1378.85509,0.17615
1380.78356,0.17114
1382.71203,0.17383
1384.64050,0.18324
1386.56897,0.19214
1388.49743,0.19370
1390.42590,0.19157
1392.35437,0.19083
1394.28284,0.19085
1396.21131,0.19058
1398.13978,0.18961
1400.06825,0.18737
1401.99672,0.18741
1403.92518,0.19047
1405.85365,0.19078
1407.78212,0.18703
1409.71059,0.18209
1411.63906,0.17862
1413.56753,0.17971
1415.49600,0.18590
1417.42446,0.19711
1419.35293,0.20398
1421.28140,0.19853
1423.20987,0.19223
1425.13834,0.18867
1427.06681,0.18602
1428.99528,0.18457
1430.92375,0.18357
1432.85221,0.18151
1434.78068,0.18102
1436.70915,0.18544
1438.63762,0.18686
1440.56609,0.18213
1442.49456,0.17970
1444.42303,0.18300
1446.35149,0.18945
1448.27996,0.19446
1450.20843,0.19476
1452.13690,0.19488
1454.06537,0.20184
1455.99384,0.22034
1457.92231,0.22826
1459.85077,0.21066
1461.77924,0.20094
1463.70771,0.20104
1465.63618,0.19913
1467.56465,0.19496
1469.49312,0.19818
1471.42159,0.21122
1473.35006,0.22134
1475.27852,0.21460
1477.20699,0.20356
1479.13546,0.19663
1481.06393,0.19269
1482.99240,0.18867
1484.92087,0.18983
1486.84934,0.20343
1488.77780,0.21889
1490.70627,0.21214
1492.63474,0.19917
1494.56321,0.20028
1496.49168,0.20993
1498.42015,0.20867
1500.34862,0.19579
1502.27709,0.18999
1504.20555,0.19685
1506.13402,0.21535
1508.06249,0.23038
1509.99096,0.22193
1511.91943,0.20838
1513.84790,0.20518
1515.77637,0.21349
1517.70483,0.22316
1519.63330,0.23238
1521.56177,0.23540
1523.49024,0.22137
1525.41871,0.20874
1527.34718,0.20199
1529.27565,0.19941
1531.20412,0.20321
1533.13258,0.20476
1535.06105,0.19882
1536.98952,0.20271
1538.91799,0.22721
1540.84646,0.25354
1542.77493,0.24715
1544.70340,0.22936
1546.63186,0.21204
1548.56033,0.20549
1550.48880,0.20793
1552.41727,0.21075
1554.34574,0.21486
1556.27421,0.22293
1558.20268,0.23042
1560.13115,0.21435
1562.05961,0.19862
1563.98808,0.19508
1565.91655,0.19790
1567.84502,0.20522
1569.77349,0.20744
1571.70196,0.19596
1573.63043,0.18726
1575.55889,0.18859
1577.48736,0.19085
1579.41583,0.18652
1581.34430,0.18128
1583.27277,0.18079
1585.20124,0.18380
1587.12971,0.18465
1589.05818,0.18325
1590.98664,0.18099
1592.91511,0.17964
1594.84358,0.18088
1596.77205,0.18160
1598.70052,0.18152
1600.62899,0.18305
1602.55746,0.18473
1604.48592,0.18535
1606.41439,0.18562
1608.34286,0.18492
1610.27133,0.18316
1612.19980,0.18532
1614.12827,0.19390
1616.05674,0.20209
1617.98521,0.19905
1619.91367,0.19276
1621.84214,0.19240
1623.77061,0.19628
1625.69908,0.20018
1627.62755,0.20366
1629.55602,0.20320
1631.48449,0.20143
1633.41295,0.20764
1635.34142,0.22110
1637.26989,0.21793
1639.19836,0.20318
1641.12683,0.19560
1643.05530,0.20056
1644.98377,0.21737
1646.91223,0.23275
1648.84070,0.23137
1650.76917,0.23309
1652.69764,0.24518
1654.62611,0.23439
1656.55458,0.21513
1658.48305,0.21114
1660.41152,0.22136
1662.33998,0.23068
1664.26845,0.22183
1666.19692,0.21303
1668.12539,0.21707
1670.05386,0.22138
1671.98233,0.21689
1673.91080,0.21419
1675.83926,0.21308
1677.76773,0.21105
1679.69620,0.21200
1681.62467,0.21966
1683.55314,0.23104
1685.48161,0.22599
1687.41008,0.21545
1689.33855,0.21045
1691.26701,0.20444
1693.19548,0.20031
1695.12395,0.20472
1697.05242,0.21541
1698.98089,0.22026
1700.90936,0.21613
1702.83783,0.21415
1704.76629,0.21464
1706.69476,0.20739
1708.62323,0.19555
1710.55170,0.18940
1712.48017,0.19181
1714.40864,0.20273
1716.33711,0.21805
1718.26558,0.21845
1720.19404,0.20473
1722.12251,0.19598
1724.05098,0.19292
1725.97945,0.19176
1727.90792,0.19372
1729.83639,0.20065
1731.76486,0.21051
1733.69332,0.21529
1735.62179,0.20803
1737.55026,0.20177
1739.47873,0.19831
1741.40720,0.19763
1743.33567,0.20291
1745.26414,0.20946
1747.19261,0.21447
1749.12107,0.21528
1751.04954,0.20570
1752.97801,0.19615
1754.90648,0.19525
1756.83495,0.19785
1758.76342,0.20064
1760.69189,0.20388
1762.62035,0.20155
1764.54882,0.19482
1766.47729,0.19428
1768.40576,0.20144
1770.33423,0.21036
1772.26270,0.21369
1774.19117,0.20717
1776.11964,0.20074
1778.04810,0.20068
1779.97657,0.20157
1781.90504,0.19795
1783.83351,0.19475
1785.76198,0.19365
1787.69045,0.19296
1789.61892,0.19680
1791.54738,0.20442
1793.47585,0.20564
1795.40432,0.20348
1797.33279,0.20387
1799.26126,0.20269
1801.18973,0.19823
1803.11820,0.19373
1805.04666,0.19128
1806.97513,0.19190
1808.90360,0.19563
1810.83207,0.19886
1812.76054,0.19696
1814.68901,0.19368
1816.61748,0.19812
1818.54595,0.20929
1820.47441,0.21291
1822.40288,0.20582
1824.33135,0.19912
1826.25982,0.19804
1828.18829,0.20041
1830.11676,0.20131
1832.04523,0.19611
1833.97369,0.19072
1835.90216,0.18958
1837.83063,0.19110
1839.75910,0.19293
1841.68757,0.19566
1843.61604,0.19828
1845.54451,0.19568
1847.47298,0.19119
1849.40144,0.18993
1851.32991,0.19018
1853.25838,0.18899
1855.18685,0.18589
1857.11532,0.18343
1859.04379,0.18472
1860.97226,0.18849
1862.90072,0.19043
1864.82919,0.19147
1866.75766,0.19505
1868.68613,0.19830
1870.61460,0.19693
1872.54307,0.19325
1874.47154,0.19024
1876.40001,0.18882
1878.32847,0.18730
1880.25694,0.18581
1882.18541,0.18705
1884.11388,0.19072
1886.04235,0.19456
1887.97082,0.19696
1889.89929,0.19535
1891.82775,0.19147
1893.75622,0.19001
1895.68469,0.18987
1897.61316,0.19005
1899.54163,0.19051
1901.47010,0.18776
1903.39857,0.18412
1905.32704,0.18595
1907.25550,0.19135
1909.18397,0.19464
1911.11244,0.19409
1913.04091,0.19245
1914.96938,0.19335
1916.89785,0.19767
1918.82632,0.20086
1920.75478,0.19900
1922.68325,0.19511
1924.61172,0.19161
1926.54019,0.18896
1928.46866,0.18775
1930.39713,0.18691
1932.32560,0.18464
1934.25407,0.18194
1936.18253,0.18147
1938.11100,0.18381
1940.03947,0.18882
1941.96794,0.19436
1943.89641,0.19439
1945.82488,0.18896
1947.75335,0.18584
1949.68181,0.18863
1951.61028,0.19229
1953.53875,0.19292
1955.46722,0.19186
1957.39569,0.18860
1959.32416,0.18448
1961.25263,0.18397
1963.18110,0.18637
1965.10956,0.18866
1967.03803,0.19001
1968.96650,0.18998
1970.89497,0.18992
1972.82344,0.19141
1974.75191,0.19153
1976.68038,0.18601
1978.60884,0.17966
1980.53731,0.18073
1982.46578,0.18615
1984.39425,0.18979
1986.32272,0.19199
1988.25119,0.19295
1990.17966,0.19294
1992.10812,0.19252
1994.03659,0.19042
1995.96506,0.18807
1997.89353,0.18818
1999.82200,0.19048
2001.75047,0.19232
2003.67894,0.19236
2005.60741,0.19169
2007.53587,0.19228
2009.46434,0.19499
2011.39281,0.19724
2013.32128,0.19655
2015.24975,0.19414
2017.17822,0.19124
2019.10669,0.18842
2021.03515,0.18852
2022.96362,0.19253
2024.89209,0.19561
2026.82056,0.19547
2028.74903,0.19424
2030.67750,0.19179
2032.60597,0.18900
2034.53444,0.18753
2036.46290,0.18681
2038.39137,0.18750
2040.31984,0.19036
2042.24831,0.19324
2044.17678,0.19307
2046.10525,0.19020
2048.03372,0.18907
2049.96218,0.19225
2051.89065,0.19354
2053.81912,0.18819
2055.74759,0.18349
2057.67606,0.18505
2059.60453,0.18910
2061.53300,0.19208
2063.46147,0.19425
2065.38993,0.19490
2067.31840,0.19197
2069.24687,0.18695
2071.17534,0.18540
2073.10381,0.18852
2075.03228,0.19039
2076.96075,0.18936
2078.88921,0.18802
2080.81768,0.18721
2082.74615,0.18739
2084.67462,0.18760
2086.60309,0.18813
2088.53156,0.18998
2090.46003,0.19018
2092.38850,0.18750
2094.31696,0.18639
2096.24543,0.18869
2098.17390,0.19036
2100.10237,0.18946
2102.03084,0.18821
2103.95931,0.18795
2105.88778,0.18871
2107.81624,0.19009
2109.74471,0.19016
2111.67318,0.18817
2113.60165,0.18635
2115.53012,0.18624
2117.45859,0.18811
2119.38706,0.19090
2121.31553,0.19205
2123.24399,0.19157
2125.17246,0.19198
2127.10093,0.19332
2129.02940,0.19292
2130.95787,0.19014
2132.88634,0.18699
2134.81481,0.18216
2136.74327,0.17652
2138.67174,0.17772
2140.60021,0.18462
2142.52868,0.18983
2144.45715,0.19413
2146.38562,0.19699
2148.31409,0.19546
2150.24255,0.19244
2152.17102,0.19092
2154.09949,0.19235
2156.02796,0.19579
2157.95643,0.19660
2159.88490,0.19495
2161.81337,0.19433
2163.74184,0.19365
2165.67030,0.19289
2167.59877,0.19429
2169.52724,0.19572
2171.45571,0.19410
2173.38418,0.19153
2175.31265,0.19125
2177.24112,0.19207
2179.16958,0.19248
2181.09805,0.19291
2183.02652,0.19293
2184.95499,0.19156
2186.88346,0.18904
2188.81193,0.18697
2190.74040,0.18654
2192.66887,0.18704
2194.59733,0.18754
2196.52580,0.18936
2198.45427,0.19153
2200.38274,0.19133
2202.31121,0.19048
2204.23968,0.19116
2206.16815,0.19290
2208.09661,0.19424
2210.02508,0.19370
2211.95355,0.19098
2213.88202,0.18877
2215.81049,0.18891
2217.73896,0.18916
2219.66743,0.18988
2221.59590,0.19093
2223.52436,0.18923
2225.45283,0.18760
2227.38130,0.18903
2229.30977,0.19046
2231.23824,0.19078
2233.16671,0.19177
2235.09518,0.19334
2237.02364,0.19443
2238.95211,0.19504
2240.88058,0.19467
2242.80905,0.19292
2244.73752,0.19270
2246.66599,0.19399
2248.59446,0.19339
2250.52293,0.19160
2252.45139,0.19054
2254.37986,0.19070
2256.30833,0.19195
2258.23680,0.19334
2260.16527,0.19244
2262.09374,0.18928
2264.02221,0.18923
2265.95067,0.19323
2267.87914,0.19605
2269.80761,0.19517
2271.73608,0.19231
2273.66455,0.19079
2275.59302,0.19231
2277.52149,0.19507
2279.44996,0.19620
2281.37842,0.19475
2283.30689,0.19214
2285.23536,0.19165
2287.16383,0.19348
2289.09230,0.19334
2291.02077,0.19136
2292.94924,0.18926
2294.87770,0.18767
2296.80617,0.18919
2298.73464,0.19032
2300.66311,0.18853
2302.59158,0.18793
2304.52005,0.19005
2306.44852,0.19492
2308.37699,0.19871
2310.30545,0.19746
2312.23392,0.19490
2314.16239,0.19461
2316.09086,0.19450
2318.01933,0.19284
2319.94780,0.19227
2321.87627,0.19485
2323.80473,0.19936
2325.73320,0.19944
2327.66167,0.19341
2329.59014,0.19256
2331.51861,0.19969
2333.44708,0.20742
2335.37555,0.21351
2337.30401,0.21633
2339.23248,0.21267
2341.16095,0.20013
2343.08942,0.18904
2345.01789,0.19273
2346.94636,0.20241
2348.87483,0.20699
2350.80330,0.20533
2352.73176,0.20112
2354.66023,0.20579
2356.58870,0.21780
2358.51717,0.21846
2360.44564,0.21279
2362.37411,0.21075
2364.30258,0.20809
2366.23104,0.21179
2368.15951,0.22019
2370.08798,0.22210
2372.01645,0.21785
2373.94492,0.20744
2375.87339,0.19308
2377.80186,0.18358
2379.73033,0.18266
2381.65879,0.18554
2383.58726,0.18845
2385.51573,0.19177
2387.44420,0.19335
2389.37267,0.19145
2391.30114,0.18986
2393.22961,0.19110
2395.15807,0.19341
2397.08654,0.19529
2399.01501,0.19610
2400.94348,0.19509
2402.87195,0.19331
2404.80042,0.19248
2406.72889,0.19204
2408.65736,0.18992
2410.58582,0.18607
2412.51429,0.18419
2414.44276,0.18625
2416.37123,0.18943
2418.29970,0.19117
2420.22817,0.19230
2422.15664,0.19343
2424.08510,0.19371
2426.01357,0.19349
2427.94204,0.19374
2429.87051,0.19504
2431.79898,0.19655
2433.72745,0.19525
2435.65592,0.19139
2437.58439,0.18952
2439.51285,0.19156
2441.44132,0.19546
2443.36979,0.19727
2445.29826,0.19553
2447.22673,0.19423
2449.15520,0.19567
2451.08367,0.19721
2453.01213,0.19661
2454.94060,0.19427
2456.86907,0.19274
2458.79754,0.19389
2460.72601,0.19557
2462.65448,0.19505
2464.58295,0.19331
2466.51142,0.19254
2468.43988,0.19366
2470.36835,0.19663
2472.29682,0.19951
2474.22529,0.19804
2476.15376,0.19260
2478.08223,0.18977
2480.01070,0.19140
2481.93916,0.19459
2483.86763,0.19718
2485.79610,0.19661
2487.72457,0.19332
2489.65304,0.19074
2491.58151,0.18985
2493.50998,0.18993
2495.43844,0.18987
2497.36691,0.18905
2499.29538,0.18890
2501.22385,0.18982
2503.15232,0.19041
2505.08079,0.19107
2507.00926,0.19280
2508.93773,0.19320
2510.86619,0.19100
2512.79466,0.18959
2514.72313,0.19027
2516.65160,0.19182
2518.58007,0.19395
2520.50854,0.19539
2522.43701,0.19531
2524.36547,0.19430
2526.29394,0.19310
2528.22241,0.19247
2530.15088,0.19222
2532.07935,0.19215
2534.00782,0.19178
2535.93629,0.19117
2537.86476,0.19222
2539.79322,0.19302
2541.72169,0.19073
2543.65016,0.18912
2545.57863,0.19123
2547.50710,0.19343
2549.43557,0.19208
2551.36404,0.19098
2553.29250,0.19558
2555.22097,0.20090
2557.14944,0.19988
2559.07791,0.19568
2561.00638,0.19405
2562.93485,0.19508
2564.86332,0.19623
2566.79179,0.19681
2568.72025,0.19643
2570.64872,0.19454
2572.57719,0.19182
2574.50566,0.18992
2576.43413,0.19075
2578.36260,0.19446
2580.29107,0.19951
2582.21953,0.20234
2584.14800,0.20116
2586.07647,0.19925
2588.00494,0.19808
2589.93341,0.19685
2591.86188,0.19565
2593.79035,0.19338
2595.71882,0.19077
2597.64728,0.19065
2599.57575,0.19314
2601.50422,0.19559
2603.43269,0.19696
2605.36116,0.19960
2607.28963,0.20183
2609.21810,0.20028
2611.14656,0.19877
2613.07503,0.19740
2615.00350,0.19320
2616.93197,0.19070
2618.86044,0.19234
2620.78891,0.19506
2622.71738,0.19734
2624.64585,0.19908
2626.57431,0.19951
2628.50278,0.19845
2630.43125,0.19714
2632.35972,0.19733
2634.28819,0.19879
2636.21666,0.19883
2638.14513,0.19817
2640.07359,0.19839
2642.00206,0.19666
2643.93053,0.19336
2645.85900,0.19293
2647.78747,0.19536
2649.71594,0.19773
2651.64441,0.20035
2653.57288,0.20209
2655.50134,0.19895
2657.42981,0.19447
2659.35828,0.19483
2661.28675,0.19854
2663.21522,0.20117
2665.14369,0.20063
2667.07216,0.19912
2669.00062,0.19926
2670.92909,0.19923
2672.85756,0.19918
2674.78603,0.20067
2676.71450,0.20173
2678.64297,0.20195
2680.57144,0.20171
2682.49990,0.20069
2684.42837,0.20060
2686.35684,0.20217
2688.28531,0.20292
2690.21378,0.19934
2692.14225,0.19480
2694.07072,0.19572
2695.99919,0.19992
2697.92765,0.20237
2699.85612,0.20233
2701.78459,0.20184
2703.71306,0.20187
2705.64153,0.20042
2707.57000,0.19804
2709.49847,0.19853
2711.42693,0.20206
2713.35540,0.20374
2715.28387,0.20009
2717.21234,0.19547
2719.14081,0.19576
2721.06928,0.19783
2722.99775,0.19692
2724.92622,0.19552
2726.85468,0.19516
2728.78315,0.19446
2730.71162,0.19593
2732.64009,0.20053
2734.56856,0.20393
2736.49703,0.20499
2738.42550,0.20601
2740.35396,0.20634
2742.28243,0.20541
2744.21090,0.20475
2746.13937,0.20533
2748.06784,0.20593
2749.99631,0.20420
2751.92478,0.20152
2753.85325,0.20070
2755.78171,0.20206
2757.71018,0.20545
2759.63865,0.20863
2761.56712,0.20790
2763.49559,0.20369
2765.42406,0.20048
2767.35253,0.19984
2769.28099,0.19957
2771.20946,0.20011
2773.13793,0.20279
2775.06640,0.20581
2776.99487,0.20752
2778.92334,0.20778
2780.85181,0.20826
2782.78028,0.20989
2784.70874,0.21000
2786.63721,0.20816
2788.56568,0.20801
2790.49415,0.21002
2792.42262,0.21045
2794.35109,0.20884
2796.27956,0.20769
2798.20802,0.20676
2800.13649,0.20645
2802.06496,0.20819
2803.99343,0.21168
2805.92190,0.21501
2807.85037,0.21516
2809.77884,0.21252
2811.70731,0.21054
2813.63577,0.21024
2815.56424,0.21052
2817.49271,0.20994
2819.42118,0.20801
2821.34965,0.20757
2823.27812,0.21005
2825.20659,0.21239
2827.13505,0.21395
2829.06352,0.21449
2830.99199,0.21238
2832.92046,0.21031
2834.84893,0.20992
2836.77740,0.20893
2838.70587,0.20797
2840.63433,0.20869
2842.56280,0.20953
2844.49127,0.20778
2846.41974,0.20410
2848.34821,0.20370
2850.27668,0.20551
2852.20515,0.20421
2854.13362,0.20262
2856.06208,0.20399
2857.99055,0.20562
2859.91902,0.20626
2861.84749,0.20830
2863.77596,0.20896
2865.70443,0.20498
2867.63290,0.20116
2869.56136,0.19982
2871.48983,0.20061
2873.41830,0.20290
2875.34677,0.20246
2877.27524,0.20069
2879.20371,0.20249
2881.13218,0.20447
2883.06065,0.20462
2884.98911,0.20624
2886.91758,0.20726
2888.84605,0.20779
2890.77452,0.20968
2892.70299,0.20796
2894.63146,0.20221
2896.55993,0.20086
2898.48839,0.20602
2900.41686,0.20927
2902.34533,0.20666
2904.27380,0.20295
2906.20227,0.20157
2908.13074,0.20112
2910.05921,0.20086
2911.98768,0.20266
2913.91614,0.20363
2915.84461,0.20157
2917.77308,0.20188
2919.70155,0.20448
2921.63002,0.20433
2923.55849,0.20209
2925.48696,0.19681
2927.41542,0.18947
2929.34389,0.18834
2931.27236,0.19494
2933.20083,0.20251
2935.12930,0.20281
2937.05777,0.19617
2938.98624,0.19562
2940.91471,0.20362
2942.84317,0.20957
2944.77164,0.20743
2946.70011,0.19840
2948.62858,0.19280
2950.55705,0.19671
2952.48552,0.20242
2954.41399,0.20220
2956.34245,0.19485
2958.27092,0.19097
2960.19939,0.19743
2962.12786,0.20233
2964.05633,0.20158
2965.98480,0.20143
2967.91327,0.20059
2969.84174,0.20276
2971.77020,0.21188
2973.69867,0.21877
2975.62714,0.21465
2977.55561,0.20389
2979.48408,0.20023
2981.41255,0.20683
2983.34102,0.21247
2985.26948,0.20942
2987.19795,0.20157
2989.12642,0.20122
2991.05489,0.20880
2992.98336,0.21279
2994.91183,0.21208
2996.84030,0.21003
2998.76877,0.20797
3000.69723,0.20628
3002.62570,0.20443
3004.55417,0.20320
3006.48264,0.20167
3008.41111,0.20031
3010.33958,0.19499
3012.26805,0.17897
3014.19651,0.15492
3016.12498,0.13566
3018.05345,0.14517
3019.98192,0.18360
3021.91039,0.21474
3023.83886,0.22269
3025.76733,0.21896
3027.69579,0.21190
3029.62426,0.20968
3031.55273,0.21509
3033.48120,0.21962
3035.40967,0.21821
3037.33814,0.21323
3039.26661,0.21148
3041.19508,0.21530
3043.12354,0.21615
3045.05201,0.21055
3046.98048,0.20632
3048.90895,0.20837
3050.83742,0.21251
3052.76589,0.21526
3054.69436,0.21360
3056.62282,0.20522
3058.55129,0.20283
3060.47976,0.21237
3062.40823,0.21830
3064.33670,0.21272
3066.26517,0.20264
3068.19364,0.19988
3070.12211,0.20567
3072.05057,0.20903
3073.97904,0.20650
3075.90751,0.20303
3077.83598,0.20528
3079.76445,0.21202
3081.69292,0.21267
3083.62139,0.20024
3085.54985,0.18596
3087.47832,0.18859
3089.40679,0.19934
3091.33526,0.20119
3093.26373,0.19465
3095.19220,0.18992
3097.12067,0.19897
3099.04914,0.21488
3100.97760,0.22155
3102.90607,0.21701
3104.83454,0.21301
3106.76301,0.21546
3108.69148,0.21721
3110.61995,0.21483
3112.54842,0.20844
3114.47688,0.20376
3116.40535,0.20674
3118.33382,0.20999
3120.26229,0.20585
3122.19076,0.20003
3124.11923,0.20211
3126.04770,0.20762
3127.97617,0.20810
3129.90463,0.20572
3131.83310,0.20550
3133.76157,0.20854
3135.69004,0.21211
3137.61851,0.21231
3139.54698,0.20952
3141.47545,0.21018
3143.40391,0.21490
3145.33238,0.21624
3147.26085,0.21434
3149.18932,0.21665
3151.11779,0.22284
3153.04626,0.22538
3154.97473,0.22314
3156.90320,0.22255
3158.83166,0.22414
3160.76013,0.22043
3162.68860,0.21279
3164.61707,0.21097
3166.54554,0.21564
3168.47401,0.22174
3170.40248,0.22619
3172.33094,0.22581
3174.25941,0.22341
3176.18788,0.22263
3178.11635,0.22215
3180.04482,0.22225
3181.97329,0.22224
3183.90176,0.22372
3185.83022,0.22660
3187.75869,0.22547
3189.68716,0.22306
3191.61563,0.22219
3193.54410,0.22145
3195.47257,0.22286
3197.40104,0.22424
3199.32951,0.22321
3201.25797,0.22265
3203.18644,0.22097
3205.11491,0.21723
3207.04338,0.21689
3208.97185,0.22001
3210.90032,0.22200
3212.82879,0.22418
3214.75725,0.22617
3216.68572,0.22431
3218.61419,0.22120
3220.54266,0.21677
3222.47113,0.20980
3224.39960,0.20925
3226.32807,0.21775
3228.25654,0.22291
3230.18500,0.21875
3232.11347,0.21222
3234.04194,0.21139
3235.97041,0.21475
3237.89888,0.21445
3239.82735,0.21409
3241.75582,0.21848
3243.68428,0.22102
3245.61275,0.21855
3247.54122,0.21362
3249.46969,0.21145
3251.39816,0.21620
3253.32663,0.22261
3255.25510,0.22393
3257.18357,0.22108
3259.11203,0.21678
3261.04050,0.21194
3262.96897,0.21081
3264.89744,0.21600
3266.82591,0.21959
3268.75438,0.21605
3270.68285,0.20977
3272.61131,0.20307
3274.53978,0.19917
3276.46825,0.20074
3278.39672,0.20448
3280.32519,0.20975
3282.25366,0.21638
3284.18213,0.22075
3286.11060,0.21867
3288.03906,0.21327
3289.96753,0.21364
3291.89600,0.21661
3293.82447,0.21347
3295.75294,0.20845
3297.68141,0.20672
3299.60988,0.20645
3301.53834,0.20686
3303.46681,0.20905
3305.39528,0.21417
3307.32375,0.21995
3309.25222,0.22236
3311.18069,0.21771
3313.10916,0.20854
3315.03763,0.20652
3316.96609,0.21201
3318.89456,0.21381
3320.82303,0.20919
3322.75150,0.20524
3324.67997,0.20465
3326.60844,0.20425
3328.53691,0.20731
3330.46537,0.21360
3332.39384,0.21651
3334.32231,0.21680
3336.25078,0.21677
3338.17925,0.21646
3340.10772,0.21819
3342.03619,0.21913
3343.96466,0.21569
3345.89312,0.21496
3347.82159,0.21673
3349.75006,0.21449
3351.67853,0.21377
3353.60700,0.21829
3355.53547,0.22401
3357.46394,0.22616
3359.39240,0.22243
3361.32087,0.21560
3363.24934,0.20977
3365.17781,0.20998
3367.10628,0.21822
3369.03475,0.22674
3370.96322,0.22582
3372.89168,0.21749
3374.82015,0.21179
3376.74862,0.21130
3378.67709,0.21365
3380.60556,0.21807
3382.53403,0.22151
3384.46250,0.21959
3386.39097,0.21318
3388.31943,0.20820
3390.24790,0.20569
3392.17637,0.20453
3394.10484,0.20797
3396.03331,0.21509
3397.96178,0.22019
3399.89025,0.21928
3401.81871,0.21116
3403.74718,0.20160
3405.67565,0.19974
3407.60412,0.20522
3409.53259,0.21120
3411.46106,0.21393
3413.38953,0.21174
3415.31800,0.20722
3417.24646,0.20839
3419.17493,0.21752
3421.10340,0.22490
3423.03187,0.22136
3424.96034,0.21162
3426.88881,0.20573
3428.81728,0.20801
3430.74574,0.21456
3432.67421,0.21832
3434.60268,0.21980
3436.53115,0.22086
3438.45962,0.21727
3440.38809,0.21126
3442.31656,0.20919
3444.24503,0.21064
3446.17349,0.21205
3448.10196,0.20716
3450.03043,0.19755
3451.95890,0.19328
3453.88737,0.19418
3455.81584,0.19522
3457.74431,0.19491
3459.67277,0.19391
3461.60124,0.19444
3463.52971,0.19415
3465.45818,0.19137
3467.38665,0.19177
3469.31512,0.19785
3471.24359,0.20177
3473.17206,0.19827
3475.10052,0.19373
3477.02899,0.19130
3478.95746,0.18923
3480.88593,0.19177
3482.81440,0.19970
3484.74287,0.20403
3486.67134,0.19925
3488.59980,0.19058
3490.52827,0.18579
3492.45674,0.18467
3494.38521,0.18615
3496.31368,0.19109
3498.24215,0.19533
3500.17062,0.19685
3502.09909,0.19730
3504.02755,0.19419
3505.95602,0.19003
3507.88449,0.18986
3509.81296,0.18799
3511.74143,0.18061
3513.66990,0.17537
3515.59837,0.17696
3517.52683,0.18125
3519.45530,0.18320
3521.38377,0.18140
3523.31224,0.17457
3525.24071,0.16884
3527.16918,0.17317
3529.09765,0.18012
3531.02611,0.17911
3532.95458,0.17528
3534.88305,0.17852
3536.81152,0.18485
3538.73999,0.18264
3540.66846,0.17575
3542.59693,0.17185
3544.52540,0.17194
3546.45386,0.17485
3548.38233,0.17754
3550.31080,0.17899
3552.23927,0.17677
3554.16774,0.16930
3556.09621,0.16138
3558.02468,0.15961
3559.95314,0.16529
3561.88161,0.16985
3563.81008,0.17024
3565.73855,0.17369
3567.66702,0.17736
3569.59549,0.17271
3571.52396,0.16655
3573.45243,0.16183
3575.38089,0.15713
3577.30936,0.15524
3579.23783,0.15652
3581.16630,0.15806
3583.09477,0.16049
3585.02324,0.16741
3586.95171,0.17469
3588.88017,0.16831
3590.80864,0.15903
3592.73711,0.16088
3594.66558,0.16881
3596.59405,0.17136
3598.52252,0.16983
3600.45099,0.17124
3602.37946,0.16995
3604.30792,0.16454
3606.23639,0.16306
3608.16486,0.16294
3610.09333,0.15972
3612.02180,0.16013
3613.95027,0.16271
3615.87874,0.16176
3617.80720,0.16312
3619.73567,0.16721
3621.66414,0.16407
3623.59261,0.15826
3625.52108,0.15872
3627.44955,0.16648
3629.37802,0.16556
3631.30649,0.15469
3633.23495,0.15269
3635.16342,0.15373
3637.09189,0.15095
3639.02036,0.14725
3640.94883,0.14741
3642.87730,0.15234
3644.80577,0.15966
3646.73423,0.17148
3648.66270,0.18253
3650.59117,0.16483
3652.51964,0.14201
3654.44811,0.13701
3656.37658,0.13857
3658.30505,0.13687
3660.23352,0.13699
3662.16198,0.13897
3664.09045,0.14005
3666.01892,0.14133
3667.94739,0.14398
3669.87586,0.14800
3671.80433,0.15077
3673.73280,0.15567
3675.66126,0.16091
3677.58973,0.15511
3679.51820,0.14660
3681.44667,0.13972
3683.37514,0.13431
3685.30361,0.13471
3687.23208,0.14361
3689.16055,0.15452
3691.08901,0.15166
3693.01748,0.14134
3694.94595,0.13446
3696.87442,0.13044
3698.80289,0.13156
3700.73136,0.13817
3702.65983,0.14089
3704.58829,0.13973
3706.51676,0.14192
3708.44523,0.14478
3710.37370,0.14388
3712.30217,0.13955
3714.23064,0.13473
3716.15911,0.13404
3718.08757,0.13789
3720.01604,0.13960
3721.94451,0.13956
3723.87298,0.14519
3725.80145,0.14917
3727.72992,0.14444
3729.65839,0.14110
3731.58686,0.14896
3733.51532,0.16579
3735.44379,0.17148
3737.37226,0.15987
3739.30073,0.14967
3741.22920,0.14518
3743.15767,0.14401
3745.08614,0.14486
3747.01460,0.14344
3748.94307,0.14299
3750.87154,0.14890
3752.80001,0.14973
3754.72848,0.14403
3756.65695,0.14012
3758.58542,0.13818
3760.51389,0.13648
3762.44235,0.13562
3764.37082,0.13601
3766.29929,0.13569
3768.22776,0.13373
3770.15623,0.13026
3772.08470,0.12598
3774.01317,0.12402
3775.94163,0.12686
3777.87010,0.13306
3779.79857,0.13478
3781.72704,0.12943
3783.65551,0.12568
3785.58398,0.12698
3787.51245,0.12626
3789.44092,0.12145
3791.36938,0.11895
3793.29785,0.12127
3795.22632,0.12929
3797.15479,0.14104
3799.08326,0.15108
3801.01173,0.15778
3802.94020,0.15495
3804.86866,0.15071
3806.79713,0.14982
3808.72560,0.14171
3810.65407,0.13164
3812.58254,0.13257
3814.51101,0.14400
3816.43948,0.14929
3818.36795,0.14340
3820.29641,0.14231
3822.22488,0.14028
3824.15335,0.13186
3826.08182,0.12529
3828.01029,0.12217
3829.93876,0.12453
3831.86723,0.13249
3833.79569,0.14171
3835.72416,0.15192
3837.65263,0.15951
3839.58110,0.15469
3841.50957,0.14615
3843.43804,0.13874
3845.36651,0.12859
3847.29498,0.12320
3849.22344,0.13084
3851.15191,0.15093
3853.08038,0.16877
3855.00885,0.15562
3856.93732,0.13482
3858.86579,0.12198
3860.79426,0.11726
3862.72272,0.12112
3864.65119,0.13008
3866.57966,0.13558
3868.50813,0.13728
3870.43660,0.13763
3872.36507,0.13670
3874.29354,0.13718
3876.22200,0.13819
3878.15047,0.13805
3880.07894,0.13446
3882.00741,0.12547
3883.93588,0.11779
3885.86435,0.11616
3887.79282,0.12040
3889.72129,0.12827
3891.64975,0.13552
3893.57822,0.13253
3895.50669,0.12517
3897.43516,0.12561
3899.36363,0.13221
3901.29210,0.13316
3903.22057,0.13084
3905.14903,0.12929
3907.07750,0.12605
3909.00597,0.12338
3910.93444,0.11849
3912.86291,0.11181
3914.79138,0.11001
3916.71985,0.11275
3918.64832,0.11779
3920.57678,0.12404
3922.50525,0.12550
3924.43372,0.12026
3926.36219,0.11668
3928.29066,0.11908
3930.21913,0.12216
3932.14760,0.12044
3934.07606,0.11411
3936.00453,0.10960
3937.93300,0.10980
3939.86147,0.11387
3941.78994,0.11980
3943.71841,0.12183
3945.64688,0.11891
3947.57535,0.11593
3949.50381,0.11494
3951.43228,0.11354
3953.36075,0.11056
3955.28922,0.10719
3957.21769,0.10373
3959.14616,0.10460
3961.07463,0.10978
3963.00309,0.11185
3964.93156,0.11197
3966.86003,0.11454
3968.78850,0.11569
3970.71697,0.11260
3972.64544,0.10960
3974.57391,0.10864
3976.50238,0.10726
3978.43084,0.10582
3980.35931,0.10469
3982.28778,0.10271
3984.21625,0.09947
3986.14472,0.09558
3988.07319,0.09594
3990.00166,0.10221
3991.93012,0.10619
3993.85859,0.10439
3995.78706,0.10261
3997.71553,0.10411
3999.64400,0.10760
4001.57247,0.10949
4003.50094,0.10671
4005.42941,0.10243
4007.35787,0.10045
4009.28634,0.09878
4011.21481,0.09591
4013.14328,0.09292
4015.07175,0.09078
4017.00022,0.09021
4018.92869,0.09019
4020.85715,0.09001
4022.78562,0.09282
4024.71409,0.10115
4026.64256,0.10909
4028.57103,0.10837
4030.49950,0.10151
4032.42797,0.09732
4034.35644,0.09932
4036.28490,0.10239
4038.21337,0.09932
4040.14184,0.09606
4042.07031,0.10141
4043.99878,0.10700
4045.92725,0.10630
4047.85572,0.10135
4049.78418,0.09191
4051.71265,0.08695
4053.64112,0.09250
4055.56959,0.09959
4057.49806,0.10054
4059.42653,0.09501
4061.35500,0.09088
4063.28346,0.09363
4065.21193,0.09619
4067.14040,0.09463
4069.06887,0.09201
4070.99734,0.09173
4072.92581,0.09749
4074.85428,0.10366
4076.78275,0.10189
4078.71121,0.09823
4080.63968,0.09808
4082.56815,0.09691
4084.49662,0.09488
4086.42509,0.09527
4088.35356,0.09620
4090.28203,0.09624
4092.21049,0.09690
4094.13896,0.09633
4096.06743,0.09405
4097.99590,0.09532
4099.92437,0.09955
4101.85284,0.09977
4103.78131,0.09536
4105.70978,0.09149
4107.63824,0.09240
4109.56671,0.09775
4111.49518,0.10011
4113.42365,0.09383
4115.35212,0.08487
4117.28059,0.08356
4119.20906,0.09111
4121.13752,0.09597
4123.06599,0.09445
4124.99446,0.09853
4126.92293,0.10556
4128.85140,0.10360
4130.77987,0.09682
4132.70834,0.09132
4134.63681,0.08787
4136.56527,0.08595
4138.49374,0.08468
4140.42221,0.08436
4142.35068,0.08319
4144.27915,0.08210
4146.20762,0.08174
4148.13609,0.08063
4150.06455,0.08163
4151.99302,0.08341
4153.92149,0.08284
4155.84996,0.08245
4157.77843,0.08343
4159.70690,0.08438
4161.63537,0.08349
4163.56384,0.08180
4165.49230,0.08226
4167.42077,0.08174
4169.34924,0.08055
4171.27771,0.08507
4173.20618,0.08897
4175.13465,0.08547
4177.06312,0.08233
4178.99158,0.08154
4180.92005,0.07702
4182.84852,0.07009
4184.77699,0.06662
4186.70546,0.06850
4188.63393,0.07179
4190.56240,0.07196
4192.49087,0.07064
4194.41933,0.07138
4196.34780,0.07613
4198.27627,0.08471
4200.20474,0.08763
4202.13321,0.07995
4204.06168,0.07384
4205.99015,0.07616
4207.91861,0.07846
4209.84708,0.07615
4211.77555,0.07483
4213.70402,0.07736
4215.63249,0.07894
4217.56096,0.07599
4219.48943,0.07458
4221.41789,0.07784
4223.34636,0.07649
4225.27483,0.06791
4227.20330,0.06160
4229.13177,0.06095
4231.06024,0.06129
4232.98871,0.06213
4234.91718,0.06620
4236.84564,0.07162
4238.77411,0.07402
4240.70258,0.07187
4242.63105,0.06867
4244.55952,0.06768
4246.48799,0.06620
4248.41646,0.06412
4250.34492,0.06840
4252.27339,0.07389
4254.20186,0.06855
4256.13033,0.05776
4258.05880,0.05126
4259.98727,0.05178
4261.91574,0.05608
4263.84421,0.05596
4265.77267,0.05341
4267.70114,0.05563
4269.62961,0.06080
4271.55808,0.06481
4273.48655,0.06611
4275.41502,0.06336
4277.34349,0.05722
4279.27195,0.05181
4281.20042,0.05270
4283.12889,0.05837
4285.05736,0.06294
4286.98583,0.06613
4288.91430,0.06628
4290.84277,0.06233
4292.77124,0.05959
4294.69970,0.06056
4296.62817,0.06259
4298.55664,0.06155
4300.48511,0.05535
4302.41358,0.04664
4304.34205,0.04237
4306.27052,0.04844
4308.19898,0.05966
4310.12745,0.06108
4312.05592,0.05247
4313.98439,0.05164
4315.91286,0.05853
4317.84133,0.05973
4319.76980,0.05842
4321.69827,0.05842
4323.62673,0.05707
4325.55520,0.05616
4327.48367,0.05453
4329.41214,0.05416
4331.34061,0.05984
4333.26908,0.06301
4335.19755,0.05673
4337.12601,0.05397
4339.05448,0.06284
4340.98295,0.06721
4342.91142,0.05830
4344.83989,0.04875
4346.76836,0.04629
4348.69683,0.04802
4350.62530,0.04936
4352.55376,0.04737
4354.48223,0.04255
4356.41070,0.03851
4358.33917,0.03986
4360.26764,0.04501
4362.19611,0.04783
4364.12458,0.05151
4366.05304,0.05990
4367.98151,0.06305
4369.90998,0.05557
4371.83845,0.04510
4373.76692,0.03986
4375.69539,0.04358
4377.62386,0.04888
4379.55232,0.04389
4381.48079,0.03386
4383.40926,0.03231
4385.33773,0.03895
4387.26620,0.04644
4389.19467,0.04877
4391.12314,0.04440
4393.05161,0.03862
4394.98007,0.03644
4396.90854,0.03526
4398.83701,0.02794
4400.76548,0.02197
4402.69395,0.02781
4404.62242,0.03250
4406.55089,0.02702
4408.47935,0.02438
4410.40782,0.03110
4412.33629,0.04020
4414.26476,0.04557
4416.19323,0.04373
4418.12170,0.03999
4420.05017,0.04090
4421.97864,0.03965
4423.90710,0.03421
4425.83557,0.03199
4427.76404,0.03252
4429.69251,0.03289
4431.62098,0.03191
4433.54945,0.02893
4435.47792,0.02774
4437.40638,0.02670
4439.33485,0.02325
4441.26332,0.02088
4443.19179,0.01900
4445.12026,0.01920
4447.04873,0.02221
4448.97720,0.02311
4450.90567,0.02382
4452.83413,0.02423
4454.76260,0.02153
4456.69107,0.02332
4458.61954,0.03463
4460.54801,0.04421
4462.47648,0.03831
4464.40495,0.02496
4466.33341,0.02033
4468.26188,0.02219
4470.19035,0.02580
4472.11882,0.03035
4474.04729,0.03076
4475.97576,0.03003
4477.90423,0.03465
4479.83270,0.04035
4481.76116,0.03923
4483.68963,0.03241
4485.61810,0.02728
4487.54657,0.02261
4489.47504,0.01522
4491.40351,0.01564
4493.33198,0.02680
4495.26044,0.02960
4497.18891,0.02038
4499.11738,0.01686
4501.04585,0.02181
4502.97432,0.02527
4504.90279,0.02538
4506.83126,0.02278
4508.75973,0.02019
4510.68819,0.02517
4512.61666,0.03290
4514.54513,0.02872
4516.47360,0.01322
4518.40207,0.00258
4520.33054,0.00727
4522.25901,0.01724
4524.18747,0.02162
4526.11594,0.02784
4528.04441,0.03890
4529.97288,0.04244
4531.90135,0.03413
4533.82982,0.02452
4535.75829,0.01917
4537.68676,0.01558
4539.61522,0.01574
4541.54369,0.02017
4543.47216,0.02516
4545.40063,0.03080
4547.32910,0.03134
4549.25757,0.02281
4551.18604,0.01707
4553.11450,0.01910
4555.04297,0.02204
4556.97144,0.02293
4558.89991,0.02166
4560.82838,0.01879
4562.75685,0.01522
4564.68532,0.01274
4566.61378,0.01032
4568.54225,0.00751
4570.47072,0.00912
4572.39919,0.01509
4574.32766,0.02140
4576.25613,0.02144
4578.18460,0.01453
4580.11307,0.01383
4582.04153,0.01716
4583.97000,0.01137
4585.89847,0.00608
4587.82694,0.00943
4589.75541,0.00886
4591.68388,0.00344
4593.61235,0.00888
4595.54081,0.02512
4597.46928,0.03669
4599.39775,0.03495
4601.32622,0.02250
4603.25469,0.01019
4605.18316,0.00727
4607.11163,0.01181
4609.04010,0.01880
4610.96856,0.02224
4612.89703,0.01988
4614.82550,0.01792
4616.75397,0.01296
4618.68244,0.00124
4620.61091,-0.00480
4622.53938,-0.00289
4624.46784,0.00161
4626.39631,0.01355
4628.32478,0.02582
4630.25325,0.02460
4632.18172,0.01724
4634.11019,0.01395
4636.03866,0.01116
4637.96713,0.01096
4639.89559,0.01503
4641.82406,0.01638
4643.75253,0.01302
4645.68100,0.01115
4647.60947,0.01546
4649.53794,0.01784
4651.46641,0.01512
4653.39487,0.01488
4655.32334,0.01455
4657.25181,0.00948
4659.18028,0.00450
4661.10875,0.00136
4663.03722,-0.00699
4664.96569,-0.01121
4666.89416,0.00476
4668.82262,0.02480
4670.75109,0.02778
4672.67956,0.01587
4674.60803,0.00039
4676.53650,-0.00467
4678.46497,0.00244
4680.39344,0.00858
4682.32190,0.01162
4684.25037,0.01568
4686.17884,0.01441
4688.10731,0.00649
4690.03578,0.00106
4691.96425,0.00125
4693.89272,0.00652
4695.82119,0.01745
4697.74965,0.02552
4699.67812,0.01799
4701.60659,0.00006
4703.53506,-0.00520
4705.46353,0.00693
4707.39200,0.01656
4709.32047,0.01617
4711.24893,0.01424
4713.17740,0.01404
4715.10587,0.00910
4717.03434,-0.00154
4718.96281,-0.00369
4720.89128,0.00893
4722.81975,0.02229
4724.74821,0.02679
4726.67668,0.02620
4728.60515,0.02304
4730.53362,0.01937
4732.46209,0.01567
4734.39056,0.01086
4736.31903,0.01033
4738.24750,0.01401
4740.17596,0.01432
4742.10443,0.00891
4744.03290,-0.00067
4745.96137,-0.00913
4747.88984,-0.00839
4749.81831,0.00131
4751.74678,0.01009
4753.67524,0.01211
4755.60371,0.00851
4757.53218,0.00497
4759.46065,0.00937
4761.38912,0.02051
4763.31759,0.02508
4765.24606,0.01593
4767.17453,0.00560
4769.10299,0.00565
4771.03146,0.01077
4772.95993,0.01244
4774.88840,0.00517
4776.81687,-0.00563
4778.74534,-0.00557
4780.67381,0.00629
4782.60227,0.01775
4784.53074,0.02161
4786.45921,0.02110
4788.38768,0.01906
4790.31615,0.01503
4792.24462,0.01061
4794.17309,0.00646
4796.10156,0.00104
4798.03002,-0.00295
4799.95849,-0.00228
4801.88696,-0.00285
4803.81543,-0.00705
4805.74390,-0.00613
4807.67237,0.00230
4809.60084,0.01235
4811.52930,0.01721
4813.45777,0.01238
4815.38624,0.00228
4817.31471,-0.00341
4819.24318,0.00072
4821.17165,0.01200
4823.10012,0.01939
4825.02859,0.01349
4826.95705,-0.00247
4828.88552,-0.01400
4830.81399,-0.00864
4832.74246,0.00218
4834.67093,0.00042
4836.59940,-0.00440
4838.52787,0.00186
4840.45633,0.01621
4842.38480,0.02736
4844.31327,0.02488
4846.24174,0.01580
4848.17021,0.01392
4850.09868,0.01696
4852.02715,0.02185
4853.95562,0.02861
4855.88408,0.02816
4857.81255,0.02034
4859.74102,0.01388
4861.66949,0.00872
4863.59796,0.00428
4865.52643,0.00329
4867.45490,0.00497
4869.38336,0.00446
4871.31183,-0.00043
4873.24030,-0.00705
4875.16877,-0.01455
4877.09724,-0.01700
4879.02571,-0.00657
4880.95418,0.00885
4882.88265,0.01507
4884.81111,0.01009
4886.73958,0.00256
4888.66805,0.00304
4890.59652,0.01195
4892.52499,0.01590
4894.45346,0.00589
4896.38193,-0.01019
4898.31039,-0.01630
4900.23886,-0.00566
4902.16733,0.00825
4904.09580,0.01161
4906.02427,0.00808
4907.95274,0.00572
4909.88121,0.00984
4911.80967,0.01440
4913.73814,0.00775
4915.66661,-0.00058
4917.59508,0.00002
4919.52355,0.00545
4921.45202,0.01274
4923.38049,0.01854
4925.30896,0.02238
4927.23742,0.02375
4929.16589,0.02069
4931.09436,0.02280
4933.02283,0.02818
4934.95130,0.02084
4936.87977,0.00783
4938.80824,0.00243
4940.73670,-0.00130
4942.66517,-0.00491
4944.59364,0.00338
4946.52211,0.02272
4948.45058,0.03156
4950.37905,0.02213
4952.30752,0.01374
4954.23599,0.02174
4956.16445,0.03590
4958.09292,0.03698
4960.02139,0.02116
4961.94986,0.00244
4963.87833,-0.00587
4965.80680,-0.00543
4967.73527,0.00169
4969.66373,0.01677
4971.59220,0.02210
4973.52067,0.00737
4975.44914,-0.00576
4977.37761,-0.00668
4979.30608,0.00391
4981.23455,0.01891
4983.16302,0.01580
4985.09148,0.00756
4987.01995,0.01491
4988.94842,0.02287
4990.87689,0.02355
4992.80536,0.02158
4994.73383,0.01569
4996.66230,0.00570
4998.59076,0.00150
5000.51923,0.00494
5002.44770,0.00327
5004.37617,0.00111
5006.30464,0.00866
5008.23311,0.01711
5010.16158,0.01693
5012.09005,0.01227
5014.01851,0.01125
5015.94698,0.01531
5017.87545,0.01971
5019.80392,0.01757
5021.73239,0.00973
5023.66086,0.00452
5025.58933,0.01200
5027.51779,0.03055
5029.44626,0.04169
5031.37473,0.03524
5033.30320,0.02253
5035.23167,0.01685
5037.16014,0.01926
5039.08861,0.02873
5041.01708,0.03329
5042.94554,0.02612
5044.87401,0.01954
5046.80248,0.01632
5048.73095,0.01280
5050.65942,0.00729
5052.58789,0.00621
5054.51636,0.01967
5056.44482,0.02738
5058.37329,0.00664
5060.30176,-0.01509
5062.23023,-0.01426
5064.15870,-0.01148
5066.08717,-0.01144
5068.01564,-0.00079
5069.94410,0.01826
5071.87257,0.02739
5073.80104,0.01799
5075.72951,0.01578
5077.65798,0.02536
5079.58645,0.02490
5081.51492,0.02281
5083.44339,0.02819
5085.37185,0.03033
5087.30032,0.02791
5089.22879,0.02843
5091.15726,0.02937
5093.08573,0.01950
5095.01420,0.00562
5096.94267,0.00708
5098.87113,0.02086
5100.79960,0.03321
5102.72807,0.03769
5104.65654,0.03615
5106.58501,0.03652
5108.51348,0.03425
5110.44195,0.02945
5112.37042,0.03641
5114.29888,0.04856
5116.22735,0.05123
5118.15582,0.04811
5120.08429,0.03851
5122.01276,0.01773
5123.94123,0.00735
5125.86970,0.02258
5127.79816,0.03805
5129.72663,0.03995
5131.65510,0.03809
5133.58357,0.03500
5135.51204,0.03624
5137.44051,0.03234
5139.36898,0.01244
5141.29745,0.00364
5143.22591,0.01566
5145.15438,0.02169
5147.08285,0.01902
5149.01132,0.02235
5150.93979,0.03220
5152.86826,0.03867
5154.79673,0.04134
5156.72519,0.05140
5158.65366,0.05655
5160.58213,0.04124
5162.51060,0.02147
5164.43907,0.02057
5166.36754,0.04294
5168.29601,0.05994
5170.22448,0.04089
5172.15294,0.01164
5174.08141,0.01283
5176.00988,0.03349
5177.93835,0.05379
5179.86682,0.06739
5181.79529,0.06571
5183.72376,0.05059
5185.65222,0.03764
5187.58069,0.04004
5189.50916,0.04161
5191.43763,0.02823
5193.36610,0.01845
5195.29457,0.01846
5197.22304,0.01616
5199.15151,0.02105
5201.07997,0.04700
5203.00844,0.07240
5204.93691,0.07259
5206.86538,0.05718
5208.79385,0.04674
5210.72232,0.04495
5212.65079,0.04454
5214.57925,0.04351
5216.50772,0.04539
5218.43619,0.04132
5220.36466,0.02871
5222.29313,0.02548
5224.22160,0.03238
5226.15007,0.03046
5228.07854,0.03226
5230.00700,0.05317
5231.93547,0.05937
5233.86394,0.04130
5235.79241,0.04651
5237.72088,0.08150
5239.64935,0.09044
5241.57782,0.05052
5243.50628,0.00351
5245.43475,-0.00649
5247.36322,0.01348
5249.29169,0.03760
5251.22016,0.06069
5253.14863,0.07775
5255.07710,0.08054
5257.00556,0.07359
5258.93403,0.06154
5260.86250,0.05048
5262.79097,0.05100
5264.71944,0.05338
5266.64791,0.04799
5268.57638,0.04418
5270.50485,0.03457
5272.43331,0.01908
5274.36178,0.01877
5276.29025,0.03710
5278.21872,0.05828
5280.14719,0.06497
5282.07566,0.06048
5284.00413,0.05843
5285.93259,0.05586
5287.86106,0.04874
5289.78953,0.05047
5291.71800,0.07023
5293.64647,0.09204
5295.57494,0.09944
5297.50341,0.07989
5299.43188,0.04748
5301.36034,0.03928
5303.28881,0.04929
5305.21728,0.05201
5307.14575,0.06277
5309.07422,0.08414
5311.00269,0.08330
5312.93116,0.07740
5314.85962,0.07535
5316.78809,0.04341
5318.71656,0.02162
5320.64503,0.04869
5322.57350,0.07280
5324.50197,0.06642
5326.43044,0.05856
5328.35891,0.05857
5330.28737,0.04886
5332.21584,0.03237
5334.14431,0.02901
5336.07278,0.04179
5338.00125,0.05998
5339.92972,0.07466
5341.85819,0.07473
5343.78665,0.05216
5345.71512,0.03307
5347.64359,0.04068
5349.57206,0.05158
5351.50053,0.06204
5353.42900,0.07215
5355.35747,0.06610
5357.28594,0.06180
5359.21440,0.06150
5361.14287,0.05257
5363.07134,0.05693
5364.99981,0.07095
5366.92828,0.06307
5368.85675,0.04789
5370.78522,0.04914
5372.71368,0.05874
5374.64215,0.05859
5376.57062,0.05544
5378.49909,0.06946
5380.42756,0.08350
5382.35603,0.08396
5384.28450,0.07736
5386.21297,0.06633
5388.14143,0.05987
5390.06990,0.05704
5391.99837,0.03905
5393.92684,0.01967
5395.85531,0.03384
5397.78378,0.05514
5399.71225,0.05930
5401.64071,0.06333
5403.56918,0.06507
5405.49765,0.05113
5407.42612,0.02537
5409.35459,0.01424
5411.28306,0.03295
5413.21153,0.05506
5415.13999,0.06649
5417.06846,0.07399
5418.99693,0.07578
5420.92540,0.06559
5422.85387,0.05114
5424.78234,0.06021
5426.71081,0.09160
5428.63928,0.10821
5430.56774,0.08822
5432.49621,0.06119
5434.42468,0.07348
5436.35315,0.10406
5438.28162,0.09547
5440.21009,0.07578
5442.13856,0.07849
5444.06702,0.07383
5445.99549,0.06313
5447.92396,0.06244
5449.85243,0.06028
5451.78090,0.06432
5453.70937,0.08027
5455.63784,0.08914
5457.56631,0.06960
5459.49477,0.03960
5461.42324,0.03350
5463.35171,0.06118
5465.28018,0.09599
5467.20865,0.10128
5469.13712,0.08183
5471.06559,0.06808
5472.99405,0.07417
5474.92252,0.09156
5476.85099,0.10764
5478.77946,0.11040
5480.70793,0.07751
5482.63640,0.03229
5484.56487,0.03179
5486.49334,0.07206
5488.42180,0.09799
5490.35027,0.08115
5492.27874,0.05508
5494.20721,0.05306
5496.13568,0.05493
5498.06415,0.04619
5499.99262,0.03590
5501.92108,0.02413
5503.84955,0.00972
5505.77802,0.00871
5507.70649,0.03737
5509.63496,0.07776
5511.56343,0.09483
5513.49190,0.08861
5515.42037,0.08811
5517.34883,0.10661
5519.27730,0.12476
5521.20577,0.11665
5523.13424,0.09317
5525.06271,0.07888
5526.99118,0.06688
5528.91965,0.04360
5530.84811,0.02540
5532.77658,0.04118
5534.70505,0.07567
5536.63352,0.09072
5538.56199,0.08456
5540.49046,0.07937
5542.41893,0.08176
5544.34740,0.08094
5546.27586,0.08229
5548.20433,0.09189
5550.13280,0.09347
5552.06127,0.08978
5553.98974,0.09706
5555.91821,0.10099
5557.84668,0.08132
5559.77514,0.06140
5561.70361,0.06475
5563.63208,0.07649
5565.56055,0.08103
5567.48902,0.08052
5569.41749,0.07488
5571.34596,0.06453
5573.27443,0.05956
5575.20289,0.05956
5577.13136,0.05568
5579.05983,0.04511
5580.98830,0.03330
5582.91677,0.03876
5584.84524,0.05712
5586.77371,0.05672
5588.70217,0.03630
5590.63064,0.03319
5592.55911,0.05203
5594.48758,0.06092
5596.41605,0.05586
5598.34452,0.06868
5600.27299,0.11026
5602.20145,0.13216
5604.12992,0.10136
5606.05839,0.05714
5607.98686,0.05026
5609.91533,0.08642
5611.84380,0.11687
5613.77227,0.10361
5615.70074,0.08216
5617.62920,0.08133
5619.55767,0.08616
5621.48614,0.08572
5623.41461,0.07943
5625.34308,0.07056
5627.27155,0.06906
5629.20002,0.07827
5631.12848,0.08457
5633.05695,0.08799
5634.98542,0.09464
5636.91389,0.09096
5638.84236,0.07807
5640.77083,0.07707
5642.69930,0.09521
5644.62777,0.10948
5646.55623,0.09593
5648.48470,0.07941
5650.41317,0.09142
5652.34164,0.10472
5654.27011,0.08590
5656.19858,0.06529
5658.12705,0.07731
5660.05551,0.10057
5661.98398,0.10364
5663.91245,0.08248
5665.84092,0.04506
5667.76939,0.01741
5669.69786,0.02938
5671.62633,0.06644
5673.55480,0.09285
5675.48326,0.10688
5677.41173,0.12359
5679.34020,0.12907
5681.26867,0.11376
5683.19714,0.09888
5685.12561,0.09073
5687.05408,0.08345
5688.98254,0.07140
5690.91101,0.05489
5692.83948,0.05123
5694.76795,0.06797
5696.69642,0.07847
5698.62489,0.06295
5700.55336,0.05102
5702.48183,0.05041
5704.41029,0.04587
5706.33876,0.04513
5708.26723,0.04381
5710.19570,0.04153
5712.12417,0.05167
5714.05264,0.06639
5715.98111,0.08653
5717.90957,0.12261
5719.83804,0.14302
5721.76651,0.12158
5723.69498,0.08445
5725.62345,0.07497
5727.55192,0.10100
5729.48039,0.12291
5731.40886,0.12231
5733.33732,0.11141
5735.26579,0.09906
5737.19426,0.09951
5739.12273,0.11050
5741.05120,0.12405
5742.97967,0.13711
5744.90814,0.12286
5746.83660,0.08121
5748.76507,0.05641
5750.69354,0.06533
5752.62201,0.09782
5754.55048,0.12773
5756.47895,0.12542
5758.40742,0.10817
5760.33588,0.09652
5762.26435,0.08972
5764.19282,0.10452
5766.12129,0.12928
5768.04976,0.11880
5769.97823,0.09687
5771.90670,0.09923
5773.83517,0.08361
5775.76363,0.05387
5777.69210,0.07711
5779.62057,0.13309
5781.54904,0.14515
5783.47751,0.11099
5785.40598,0.07632
5787.33445,0.06807
5789.26291,0.07143
5791.19138,0.04982
5793.11985,0.03005
5795.04832,0.07670
5796.97679,0.14170
5798.90526,0.12867
5800.83373,0.07657
5802.76220,0.05999
5804.69066,0.07420
5806.61913,0.09598
5808.54760,0.11119
5810.47607,0.11723
5812.40454,0.11333
5814.33301,0.09908
5816.26148,0.09759
5818.18994,0.09603
5820.11841,0.06391
5822.04688,0.04572
5823.97535,0.06172
5825.90382,0.05905
5827.83229,0.05464
5829.76076,0.09713
5831.68923,0.13496
5833.61769,0.10587
5835.54616,0.04417
5837.47463,0.01909
5839.40310,0.04449
5841.33157,0.07628
5843.26004,0.07641
5845.18851,0.07289
5847.11697,0.09852
5849.04544,0.13077
5850.97391,0.15113
5852.90238,0.16551
5854.83085,0.16750
5856.75932,0.14418
5858.68779,0.09739
5860.61626,0.06419
5862.54472,0.07788
5864.47319,0.09938
5866.40166,0.08012
5868.33013,0.05807
5870.25860,0.05582
5872.18707,0.04164
5874.11554,0.01913
5876.04400,0.01717
5877.97247,0.04660
5879.90094,0.06725
5881.82941,0.04809
5883.75788,0.02787
5885.68635,0.04497
5887.61482,0.08623
5889.54329,0.10098
5891.47175,0.07226
5893.40022,0.03961
5895.32869,0.03189
5897.25716,0.04517
5899.18563,0.06638
5901.11410,0.08071
5903.04257,0.08390
5904.97103,0.07803
5906.89950,0.06437
5908.82797,0.07073
5910.75644,0.10303
5912.68491,0.11387
5914.61338,0.09242
5916.54185,0.09565
5918.47032,0.13276
5920.39878,0.13749
5922.32725,0.11331
5924.25572,0.11439
5926.18419,0.12771
5928.11266,0.12696
5930.04113,0.12024
5931.96960,0.10289
5933.89806,0.08454
5935.82653,0.08881
5937.75500,0.09569
5939.68347,0.09898
5941.61194,0.12075
5943.54041,0.15526
5945.46888,0.16583
5947.39734,0.12995
5949.32581,0.09329
5951.25428,0.11430
5953.18275,0.14603
5955.11122,0.12713
5957.03969,0.08599
5958.96816,0.07078
5960.89663,0.10007
5962.82509,0.13716
5964.75356,0.13745
5966.68203,0.11548
5968.61050,0.08600
5970.53897,0.05880
5972.46744,0.06914
5974.39591,0.09808
5976.32437,0.10539
5978.25284,0.09324
5980.18131,0.06934
5982.10978,0.05038
5984.03825,0.05283
5985.96672,0.08249
5987.89519,0.11356
5989.82366,0.09812
5991.75212,0.05683
5993.68059,0.04773
5995.60906,0.06866
5997.53753,0.08849
5999.46600,0.11570
6001.39447,0.14322
6003.32294,0.14603
6005.25140,0.12611
6007.17987,0.07179
6009.10834,0.01070
6011.03681,0.01692
6012.96528,0.06746
6014.89375,0.08195
6016.82222,0.05510
6018.75069,0.03769
6020.67915,0.05332
6022.60762,0.06814
6024.53609,0.05663
6026.46456,0.04663
6028.39303,0.05716
6030.32150,0.07569
6032.24997,0.07930
6034.17843,0.05475
6036.10690,0.03119
6038.03537,0.04234
6039.96384,0.08524
6041.89231,0.12413
6043.82078,0.10734
6045.74925,0.04475
6047.67772,-0.00888
6049.60618,-0.03052
6051.53465,-0.00749
6053.46312,0.04667
6055.39159,0.07462
6057.32006,0.05719
6059.24853,0.02804
6061.17700,0.02645
6063.10546,0.07473
6065.03393,0.14842
6066.96240,0.19300
6068.89087,0.19637
6070.81934,0.18064
6072.74781,0.12842
6074.67628,0.06585
6076.60475,0.05859
6078.53321,0.07526
6080.46168,0.06717
6082.39015,0.06093
6084.31862,0.08948
6086.24709,0.11839
6088.17556,0.10130
6090.10403,0.06021
6092.03249,0.02551
6093.96096,-0.01270
6095.88943,-0.02877
6097.81790,0.01409
6099.74637,0.07923
6101.67484,0.12178
6103.60331,0.12144
6105.53177,0.09732
6107.46024,0.10771
6109.38871,0.14220
6111.31718,0.14037
6113.24565,0.12860
6115.17412,0.13924
6117.10259,0.13659
6119.03106,0.09755
6120.95952,0.05139
6122.88799,0.03899
6124.81646,0.05005
6126.74493,0.04959
6128.67340,0.05865
6130.60187,0.09204
6132.53034,0.10530
6134.45880,0.07907
6136.38727,0.04821
6138.31574,0.06305
6140.24421,0.10197
6142.17268,0.09712
6144.10115,0.07122
6146.02962,0.06177
6147.95809,0.05732
6149.88655,0.05900
6151.81502,0.07116
6153.74349,0.08228
6155.67196,0.05915
6157.60043,0.02319
6159.52890,0.02112
6161.45737,0.01809
6163.38583,-0.00224
6165.31430,-0.00211
6167.24277,0.01032
6169.17124,0.05024
6171.09971,0.14373
6173.02818,0.21417
6174.95665,0.19692
6176.88512,0.13221
6178.81358,0.08219
6180.74205,0.06527
6182.67052,0.05929
6184.59899,0.04003
6186.52746,0.02957
6188.45593,0.05918
6190.38440,0.06879
6192.31286,0.04680
6194.24133,0.06114
6196.16980,0.10204
6198.09827,0.11331
6200.02674,0.07126
6201.95521,0.02540
6203.88368,0.03233
6205.81215,0.06953
6207.74061,0.10379
6209.66908,0.12482
6211.59755,0.13343
6213.52602,0.15490
6215.45449,0.17487
6217.38296,0.14580
6219.31143,0.08469
6221.23989,0.06181
6223.16836,0.08293
6225.09683,0.07435
6227.02530,0.03075
6228.95377,0.02520
6230.88224,0.04176
6232.81071,0.01462
6234.73918,-0.00915
6236.66764,0.02946
6238.59611,0.07083
6240.52458,0.04623
6242.45305,-0.00504
6244.38152,-0.01746
6246.30999,-0.00252
6248.23846,0.00931
6250.16692,0.00877
6252.09539,0.00137
6254.02386,-0.00744
6255.95233,-0.01603
6257.88080,-0.00301
6259.80927,0.04694
6261.73774,0.10680
6263.66621,0.12044
6265.59467,0.10353
6267.52314,0.13257
6269.45161,0.15622
6271.38008,0.13047
6273.30855,0.12561
6275.23702,0.15429
6277.16549,0.17144
6279.09395,0.16553
6281.02242,0.12429
6282.95089,0.09476
6284.87936,0.10761
6286.80783,0.08742
6288.73630,0.03505
6290.66477,0.05195
6292.59323,0.10541
6294.52170,0.09617
6296.45017,0.08898
6298.37864,0.13173
6300.30711,0.16890
6302.23558,0.19992
6304.16405,0.22118
6306.09252,0.19075
6308.02098,0.14828
6309.94945,0.14116
6311.87792,0.14010
6313.80639,0.13533
6315.73486,0.14643
6317.66333,0.16245
6319.59180,0.16773
6321.52026,0.15072
6323.44873,0.10609
6325.37720,0.09887
6327.30567,0.14420
6329.23414,0.12212
6331.16261,0.02394
6333.09108,-0.01443
6335.01955,0.03463
6336.94801,0.09086
6338.87648,0.07644
6340.80495,0.00412
6342.73342,-0.02047
6344.66189,0.03868
6346.59036,0.12547
6348.51883,0.18635
6350.44729,0.16224
6352.37576,0.08952
6354.30423,0.08506
6356.23270,0.10757
6358.16117,0.09797
6360.08964,0.07718
6362.01811,0.05667
6363.94658,0.04582
6365.87504,0.03767
6367.80351,0.04848
6369.73198,0.13439
6371.66045,0.23417
6373.58892,0.23736
6375.51739,0.14755
6377.44586,0.05700
6379.37432,0.03833
6381.30279,0.05548
6383.23126,0.06546
6385.15973,0.09857
6387.08820,0.12698
6389.01667,0.11694
6390.94514,0.08384
6392.87361,0.02500
6394.80207,-0.03450
6396.73054,-0.04402
6398.65901,-0.01694
6400.58748,0.03080
6402.51595,0.09716
6404.44442,0.13316
6406.37289,0.10801
6408.30135,0.08468
6410.22982,0.10674
6412.15829,0.13176
6414.08676,0.11900
6416.01523,0.09512
6417.94370,0.07772
6419.87217,0.02518
6421.80064,-0.04983
6423.72910,-0.08372
6425.65757,-0.04043
6427.58604,0.04644
6429.51451,0.12130
6431.44298,0.15902
6433.37145,0.15243
6435.29992,0.11940
6437.22838,0.04428
6439.15685,-0.03653
6441.08532,-0.04309
6443.01379,-0.00429
6444.94226,0.03805
6446.87073,0.07495
6448.79920,0.06351
6450.72766,-0.00081
6452.65613,-0.03229
6454.58460,0.00885
6456.51307,0.04583
6458.44154,-0.00278
6460.37001,-0.05938
6462.29848,-0.00778
6464.22695,0.07974
6466.15541,0.09338
6468.08388,0.05648
6470.01235,0.04248
6471.94082,0.03701
6473.86929,-0.04134
6475.79776,-0.11412
6477.72623,-0.07161
6479.65469,0.00444
6481.58316,0.05168
6483.51163,0.07746
6485.44010,0.07553
6487.36857,0.07048
6489.29704,0.07395
6491.22551,0.06539
6493.15398,0.03929
6495.08244,0.00584
6497.01091,-0.00736
6498.93938,-0.01545
6500.86785,-0.06216
6502.79632,-0.08067
6504.72479,-0.02992
6506.65326,0.02249
6508.58172,0.06418
6510.51019,0.09579
6512.43866,0.08091
6514.36713,0.03002
6516.29560,0.00868
6518.22407,0.05783
6520.15254,0.12651
6522.08101,0.14570
6524.00947,0.11119
6525.93794,0.06690
6527.86641,0.06408
6529.79488,0.10618
6531.72335,0.12757
6533.65182,0.09892
6535.58029,0.05648
6537.50875,0.02010
6539.43722,0.01042
6541.36569,0.00569
6543.29416,-0.04079
6545.22263,-0.07566
6547.15110,-0.05085
6549.07957,-0.03060
6551.00804,-0.06462
6552.93650,-0.05115
6554.86497,0.04526
6556.79344,0.08902
6558.72191,0.05809
6560.65038,0.06565
6562.57885,0.15044
6564.50732,0.24411
6566.43578,0.23937
6568.36425,0.14631
6570.29272,0.06846
6572.22119,0.03648
6574.14966,0.04902
6576.07813,0.07606
6578.00660,0.06937
6579.93507,0.03135
6581.86353,-0.01409
6583.79200,-0.02045
6585.72047,0.01744
6587.64894,0.04733
6589.57741,0.04908
6591.50588,0.03199
6593.43435,0.00202
6595.36281,-0.00917
6597.29128,0.01479
6599.21975,0.02849
6601.14822,0.02473
6603.07669,0.02344
6605.00516,0.03060
6606.93363,0.08313
6608.86210,0.14900
6610.79056,0.14989
6612.71903,0.11224
6614.64750,0.07138
6616.57597,0.02733
6618.50444,0.02894
6620.43291,0.06976
6622.36138,0.12289
6624.28984,0.15743
6626.21831,0.13191
6628.14678,0.09924
6630.07525,0.09260
6632.00372,0.06321
6633.93219,0.03406
6635.86066,0.05110
6637.78912,0.05850
6639.71759,0.00643
6641.64606,-0.01600
6643.57453,0.04998
6645.50300,0.09551
6647.43147,0.09879
6649.35994,0.15672
6651.28841,0.20578
6653.21687,0.18556
6655.14534,0.15928
6657.07381,0.17876
6659.00228,0.18931
6660.93075,0.11975
6662.85922,0.03351
6664.78769,-0.01198
6666.71615,-0.03417
6668.64462,-0.06195
6670.57309,-0.10901
6672.50156,-0.11054
6674.43003,-0.05730
6676.35850,-0.01264
6678.28697,0.04776
6680.21544,0.12170
6682.14390,0.15138
6684.07237,0.11919
6686.00084,0.05856
6687.92931,-0.00100
6689.85778,-0.03557
6691.78625,-0.01956
6693.71472,0.04977
6695.64318,0.12784
6697.57165,0.10948
6699.50012,0.00714
6701.42859,-0.00207
6703.35706,0.10172
6705.28553,0.14662
6707.21400,0.13269
6709.14247,0.12536
6711.07093,0.08228
6712.99940,0.04845
6714.92787,0.06104
6716.85634,0.06267
6718.78481,0.03828
6720.71328,0.07521
6722.64175,0.18173
6724.57021,0.19695
6726.49868,0.11274
6728.42715,0.05335
6730.35562,0.02666
6732.28409,0.04005
6734.21256,0.11590
6736.14103,0.16366
6738.06950,0.11919
6739.99796,0.04199
6741.92643,0.05967
6743.85490,0.15249
6745.78337,0.13648
6747.71184,0.00417
6749.64031,-0.07889
6751.56878,-0.00835
6753.49724,0.13754
6755.42571,0.17093
6757.35418,0.07076
6759.28265,-0.00684
6761.21112,0.03172
6763.13959,0.10299
6765.06806,0.12299
6766.99653,0.10206
6768.92499,0.07026
6770.85346,0.04795
6772.78193,0.08310
6774.71040,0.17303
6776.63887,0.18582
6778.56734,0.10585
6780.49581,0.07427
6782.42427,0.07212
6784.35274,0.03319
6786.28121,0.02692
6788.20968,0.08294
6790.13815,0.14497
6792.06662,0.17712
6793.99509,0.17799
6795.92355,0.11086
6797.85202,0.02720
6799.78049,0.04972
6801.70896,0.12541
6803.63743,0.11478
6805.56590,0.06324
6807.49437,0.06334
6809.42284,0.03875
6811.35130,-0.05609
6813.27977,-0.07956
6815.20824,0.02450
6817.13671,0.14253
6819.06518,0.14788
6820.99365,0.04447
6822.92212,-0.05161
6824.85058,-0.08987
6826.77905,-0.10944
6828.70752,-0.05229
6830.63599,0.05411
6832.56446,0.08014
6834.49293,0.06295
6836.42140,0.06567
6838.34987,0.03966
6840.27833,-0.01943
6842.20680,-0.02017
6844.13527,0.04399
6846.06374,0.07801
6847.99221,0.07292
6849.92068,0.07766
6851.84915,0.08104
6853.77761,0.08394
6855.70608,0.10470
6857.63455,0.13025
6859.56302,0.13375
6861.49149,0.10226
6863.41996,0.07961
6865.34843,0.12624
6867.27690,0.14203
6869.20536,0.04343
6871.13383,-0.06995
6873.06230,-0.14146
6874.99077,-0.18407
6876.91924,-0.22284
6878.84771,-0.21683
6880.77618,-0.07789
6882.70464,0.06872
6884.63311,0.09535
6886.56158,0.09998
6888.49005,0.13542
6890.41852,0.11105
6892.34699,0.01115
6894.27546,-0.04667
6896.20393,-0.03730
6898.13239,-0.09761
6900.06086,-0.19180
6901.98933,-0.10373
6903.91780,0.09491
6905.84627,0.14757
6907.77474,0.07429
6909.70321,0.00669
6911.63167,-0.07061
6913.56014,-0.13292
6915.48861,-0.08144
6917.41708,0.07758
6919.34555,0.18189
6921.27402,0.11303
6923.20249,0.03125
6925.13096,0.01466
6927.05942,-0.00448
6928.98789,0.00491
6930.91636,0.07984
6932.84483,0.11372
6934.77330,0.05841
6936.70177,0.01361
6938.63024,0.02155
6940.55870,0.01678
6942.48717,0.02794
6944.41564,0.08984
6946.34411,0.07831
6948.27258,-0.00570
6950.20105,-0.03867
6952.12952,0.00735
6954.05799,0.06675
6955.98645,0.03212
6957.91492,-0.03223
6959.84339,-0.00276
6961.77186,0.07917
6963.70033,0.13913
6965.62880,0.18496
6967.55727,0.17641
6969.48573,0.08631
6971.41420,0.03050
6973.34267,0.06727
6975.27114,0.12892
6977.19961,0.13834
6979.12808,0.10101
6981.05655,0.08982
6982.98501,0.10597
6984.91348,0.09487
6986.84195,0.08387
6988.77042,0.10348
6990.69889,0.08943
6992.62736,0.07562
6994.55583,0.13850
6996.48430,0.14302
6998.41276,-0.02247
7000.34123,-0.15989
7002.26970,-0.17225
7004.19817,-0.14154
7006.12664,-0.08110
7008.05511,0.01759
7009.98358,0.10685
7011.91204,0.17743
7013.84051,0.20910
7015.76898,0.18477
7017.69745,0.15027
7019.62592,0.09483
7021.55439,0.02445
7023.48286,-0.00579
7025.41133,-0.02620
7027.33979,-0.04711
7029.26826,0.01433
7031.19673,0.08686
7033.12520,0.09254
7035.05367,0.07429
7036.98214,0.03125
7038.91061,-0.03747
7040.83907,-0.06213
7042.76754,0.00776
7044.69601,0.06209
7046.62448,0.01343
7048.55295,-0.03244
7050.48142,0.00967
7052.40989,0.05113
7054.33836,0.01537
7056.26682,-0.04556
7058.19529,-0.06986
7060.12376,-0.03822
7062.05223,-0.02423
7063.98070,-0.07027
7065.90917,-0.08046
7067.83764,-0.00167
7069.76610,0.14944
7071.69457,0.22880
7073.62304,0.15037
7075.55151,0.09958
7077.47998,0.14972
7079.40845,0.23676
7081.33692,0.29237
7083.26539,0.24210
7085.19385,0.18513
7087.12232,0.18323
7089.05079,0.12090
7090.97926,0.00546
7092.90773,0.03537
7094.83620,0.24315
7096.76467,0.39397
7098.69313,0.34756
7100.62160,0.21314
7102.55007,0.10307
7104.47854,0.01763
7106.40701,-0.01588
7108.33548,0.04326
7110.26395,0.10961
7112.19242,0.07703
7114.12088,-0.00236
7116.04935,-0.06703
7117.97782,-0.16306
7119.90629,-0.16122
7121.83476,-0.02229
7123.76323,0.07391
7125.69170,0.09942
7127.62016,0.03984
7129.54863,-0.09635
7131.47710,-0.17618
7133.40557,-0.18868
7135.33404,-0.18040
7137.26251,-0.11631
7139.19098,-0.02487
7141.11944,0.07932
7143.04791,0.20581
7144.97638,0.25735
7146.90485,0.22461
7148.83332,0.10481
7150.76179,-0.10819
7152.69026,-0.12862
7154.61873,0.08476
7156.54719,0.17153
7158.47566,0.20884
7160.40413,0.24105
7162.33260,0.12090
7164.26107,-0.04337
7166.18954,-0.12071
7168.11801,-0.13696
7170.04647,-0.05088
7171.97494,0.08030
7173.90341,0.09639
7175.83188,0.05660
7177.76035,0.05140
7179.68882,0.06702
7181.61729,0.08867
7183.54576,0.06657
7185.47422,0.00973
7187.40269,0.03268
7189.33116,0.16215
7191.25963,0.26484
7193.18810,0.23164
7195.11657,0.14229
7197.04504,0.04545
7198.97350,-0.00857
7200.90197,0.00294
7202.83044,0.01022
7204.75891,0.04253
7206.68738,0.20419
7208.61585,0.32529
7210.54432,0.28482
7212.47279,0.20366
7214.40125,0.24642
7216.32972,0.39285
7218.25819,0.41003
7220.18666,0.28688
7222.11513,0.24056
7224.04360,0.24121
7225.97207,0.20100
7227.90053,0.13419
7229.82900,0.15398
7231.75747,0.21766
7233.68594,0.15975
7235.61441,0.09739
7237.54288,0.14472
7239.47135,0.28975
7241.39982,0.42336
7243.32828,0.34836
7245.25675,0.15557
7247.18522,0.05896
7249.11369,0.02504
7251.04216,0.00868
7252.97063,0.04538
7254.89910,0.08008
7256.82756,0.05301
7258.75603,0.05557
7260.68450,0.09825
7262.61297,-0.00671
7264.54144,-0.15096
7266.46991,-0.05630
7268.39838,0.04762
7270.32685,-0.05802
7272.25531,-0.11413
7274.18378,0.07538
7276.11225,0.19038
7278.04072,0.14607
7279.96919,-0.02088
7281.89766,-0.17244
7283.82613,-0.19319
7285.75459,-0.15086
7287.68306,-0.08751
7289.61153,-0.13573
7291.54000,-0.35793
7293.46847,-0.36021
7295.39694,-0.03890
7297.32541,0.20757
7299.25387,0.25967
7301.18234,0.25636
7303.11081,0.24693
7305.03928,0.19994
7306.96775,0.10945
7308.89622,0.06961
7310.82469,0.11377
7312.75316,0.18192
7314.68162,0.23514
7316.61009,0.19033
7318.53856,0.10327
7320.46703,0.11151
7322.39550,0.18145
7324.32397,0.18456
7326.25244,0.07033
7328.18090,-0.06339
7330.10937,-0.06519
7332.03784,0.06315
7333.96631,0.14503
7335.89478,0.15971
7337.82325,0.17967
7339.75172,0.19712
7341.68019,0.24449
7343.60865,0.24988
7345.53712,0.10006
7347.46559,-0.07406
7349.39406,-0.04251
7351.32253,0.13845
7353.25100,0.24085
7355.17947,0.24529
7357.10793,0.23496
7359.03640,0.16222
7360.96487,0.15022
7362.89334,0.29081
7364.82181,0.34305
7366.75028,0.22327
7368.67875,0.10882
7370.60722,0.05715
7372.53568,-0.02233
7374.46415,-0.15402
7376.39262,-0.12811
7378.32109,0.06414
7380.24956,0.10372
7382.17803,-0.08624
7384.10650,-0.29493
7386.03496,-0.24811
7387.96343,0.08132
7389.89190,0.30462
7391.82037,0.28965
7393.74884,0.18362
7395.67731,0.10523
7397.60578,0.13564
7399.53425,0.28229
7401.46271,0.39155
7403.39118,0.36061
7405.31965,0.32397
7407.24812,0.34680
7409.17659,0.28814
7411.10506,0.20516
7413.03353,0.20074
7414.96199,0.08859
7416.89046,-0.15332
7418.81893,-0.18937
7420.74740,-0.02581
7422.67587,0.06396
7424.60434,0.15026
7426.53281,0.29352
7428.46128,0.39973
7430.38974,0.31915
7432.31821,0.10786
7434.24668,-0.11621
7436.17515,-0.25241
7438.10362,-0.20695
7440.03209,-0.02658
7441.96056,0.18136
7443.88902,0.28961
7445.81749,0.21589
7447.74596,0.02254
7449.67443,-0.13160
7451.60290,-0.13407
7453.53137,-0.10789
7455.45984,-0.09437
7457.38831,-0.07918
7459.31677,-0.16769
7461.24524,-0.22445
7463.17371,-0.05246
7465.10218,0.14607
7467.03065,0.20190
7468.95912,0.19155
7470.88759,0.12119
7472.81605,0.06517
7474.74452,0.11345
7476.67299,0.12142
7478.60146,0.00864
7480.52993,-0.12932
7482.45840,-0.13777
7484.38687,-0.00013
7486.31533,0.14431
7488.24380,0.18890
7490.17227,0.09072
7492.10074,-0.00946
7494.02921,0.00892
7495.95768,0.06192
7497.88615,0.13941
