399.19301,2.46571
401.12148,0.55613
403.04995,0.51940
404.97842,0.42890
406.90689,0.21864
408.83536,0.07162
410.76382,0.09279
412.69229,0.10334
414.62076,-0.00739
416.54923,-0.02747
418.47770,0.20051
420.40617,0.37154
422.33464,0.28014
424.26311,0.12272
426.19157,0.00851
428.12004,-0.02597
430.04851,0.05710
431.97698,0.16180
433.90545,0.14799
435.83392,0.10244
437.76239,0.08212
439.69085,0.07516
441.61932,0.08820
443.54779,0.16637
445.47626,0.24713
447.40473,0.24219
449.33320,0.14835
451.26167,0.06578
453.19013,0.09946
455.11860,0.16260
457.04707,0.13578
458.97554,0.06230
460.90401,0.05477
462.83248,0.10883
464.76095,0.15939
466.68942,0.14280
468.61788,0.07519
470.54635,0.05922
472.47482,0.11732
474.40329,0.15607
476.33176,0.15049
478.26023,0.12261
480.18870,0.08269
482.11716,0.05638
484.04563,0.05182
485.97410,0.07366
487.90257,0.10981
489.83104,0.14195
491.75951,0.16686
493.68798,0.17001
495.61645,0.16512
497.54491,0.16471
499.47338,0.14521
501.40185,0.13009
503.33032,0.14350
505.25879,0.12392
507.18726,0.09710
509.11573,0.15054
511.04419,0.20057
512.97266,0.18855
514.90113,0.17599
516.82960,0.14747
518.75807,0.08131
520.68654,0.07243
522.61501,0.11831
524.54348,0.14667
526.47194,0.14399
528.40041,0.11957
530.32888,0.08572
532.25735,0.05510
534.18582,0.05215
536.11429,0.09806
538.04276,0.15151
539.97122,0.15364
541.89969,0.12060
543.82816,0.11121
545.75663,0.11252
547.68510,0.09768
549.61357,0.10680
551.54204,0.18727
553.47051,0.26750
555.39897,0.21839
557.32744,0.11934
559.25591,0.09513
561.18438,0.09137
563.11285,0.08610
565.04132,0.09663
566.96979,0.10492
568.89825,0.11678
570.82672,0.13135
572.75519,0.14030
574.68366,0.15739
576.61213,0.17496
578.54060,0.16117
580.46907,0.12420
582.39754,0.11524
584.32600,0.14081
586.25447,0.13308
588.18294,0.08679
590.11141,0.07718
592.03988,0.10694
593.96835,0.12430
595.89682,0.12765
597.82528,0.13740
599.75375,0.15587
601.68222,0.16375
603.61069,0.14766
605.53916,0.13650
607.46763,0.14100
609.39610,0.12942
611.32456,0.10737
613.25303,0.10830
615.18150,0.12785
617.10997,0.13553
619.03844,0.11925
620.96691,0.09042
622.89538,0.06757
624.82385,0.06782
626.75231,0.08363
628.68078,0.08330
630.60925,0.07166
632.53772,0.09225
634.46619,0.13028
636.39466,0.13278
638.32313,0.11349
640.25159,0.10780
642.18006,0.11723
644.10853,0.12584
646.03700,0.13046
647.96547,0.14599
649.89394,0.15713
651.82241,0.14325
653.75088,0.12573
655.67934,0.11917
657.60781,0.12282
659.53628,0.12643
661.46475,0.11683
663.39322,0.10990
665.32169,0.12366
667.25016,0.14553
669.17862,0.14000
671.10709,0.12878
673.03556,0.13878
674.96403,0.15682
676.89250,0.16185
678.82097,0.15290
680.74944,0.15016
682.67791,0.14539
684.60637,0.12907
686.53484,0.12740
688.46331,0.14193
690.39178,0.15125
692.32025,0.15358
694.24872,0.14854
696.17719,0.13949
698.10565,0.13467
700.03412,0.13337
701.96259,0.13641
703.89106,0.14600
705.81953,0.14853
707.74800,0.13980
709.67647,0.14263
711.60494,0.15483
713.53340,0.14937
715.46187,0.13456
717.39034,0.13243
719.31881,0.13683
721.24728,0.13938
723.17575,0.14284
725.10422,0.14789
727.03268,0.14544
728.96115,0.12874
730.88962,0.11275
732.81809,0.11799
734.74656,0.14293
736.67503,0.16381
738.60350,0.16328
740.53197,0.15007
742.46043,0.14259
744.38890,0.14156
746.31737,0.14464
748.24584,0.15253
750.17431,0.15301
752.10278,0.14374
754.03125,0.13327
755.95971,0.12853
757.88818,0.13240
759.81665,0.13413
761.74512,0.13154
763.67359,0.13361
765.60206,0.13804
767.53053,0.13588
769.45900,0.13008
771.38746,0.13293
773.31593,0.13939
775.24440,0.14363
777.17287,0.15568
779.10134,0.15895
781.02981,0.14025
782.95828,0.13003
784.88674,0.14261
786.81521,0.15552
788.74368,0.15507
790.67215,0.15150
792.60062,0.14789
794.52909,0.13363
796.45756,0.11743
798.38602,0.12121
800.31449,0.13296
802.24296,0.12670
804.17143,0.11516
806.09990,0.11496
808.02837,0.12386
809.95684,0.13640
811.88531,0.14240
813.81377,0.13805
815.74224,0.13417
817.67071,0.13898
819.59918,0.14046
821.52765,0.13109
823.45612,0.12707
825.38459,0.13708
827.31305,0.14059
829.24152,0.13171
831.16999,0.12817
833.09846,0.12873
835.02693,0.13100
836.95540,0.14422
838.88387,0.16481
840.81234,0.17796
842.74080,0.17636
844.66927,0.16669
846.59774,0.15686
848.52621,0.14470
850.45468,0.13003
852.38315,0.12130
854.31162,0.12325
856.24008,0.13482
858.16855,0.14576
860.09702,0.14644
862.02549,0.14290
863.95396,0.14118
865.88243,0.14217
867.81090,0.17373
869.73937,0.24245
871.66783,0.26529
873.59630,0.21417
875.52477,0.16859
877.45324,0.15278
879.38171,0.14011
881.31018,0.13173
883.23865,0.13674
885.16711,0.14709
887.09558,0.14899
889.02405,0.14718
890.95252,0.14794
892.88099,0.14992
894.80946,0.15072
896.73793,0.14099
898.66640,0.12420
900.59486,0.12249
902.52333,0.13852
904.45180,0.14978
906.38027,0.14934
908.30874,0.15019
910.23721,0.15535
912.16568,0.15499
914.09414,0.14956
916.02261,0.14516
917.95108,0.14136
919.87955,0.14151
921.80802,0.14569
923.73649,0.14851
925.66496,0.15195
927.59343,0.15660
929.52189,0.15541
931.45036,0.14907
933.37883,0.14528
935.30730,0.14478
937.23577,0.14599
939.16424,0.14784
941.09271,0.14701
943.02117,0.14428
944.94964,0.14445
946.87811,0.14599
948.80658,0.14474
950.73505,0.14276
952.66352,0.14016
954.59199,0.13712
956.52045,0.13722
958.44892,0.14005
960.37739,0.14407
962.30586,0.14798
964.23433,0.14867
966.16280,0.14646
968.09127,0.14867
970.01974,0.15361
971.94820,0.14897
973.87667,0.13807
975.80514,0.13192
977.73361,0.13175
979.66208,0.13652
981.59055,0.14229
983.51902,0.14324
985.44748,0.14133
987.37595,0.14149
989.30442,0.14310
991.23289,0.14700
993.16136,0.15382
995.08983,0.15868
997.01830,0.16005
998.94677,0.15795
1000.87523,0.15196
1002.80370,0.14357
1004.73217,0.13883
1006.66064,0.14415
1008.58911,0.15170
1010.51758,0.15260
1012.44605,0.14964
1014.37451,0.14568
1016.30298,0.14250
1018.23145,0.14458
1020.15992,0.15667
1022.08839,0.17270
1024.01686,0.17544
1025.94533,0.16893
1027.87380,0.17489
1029.80226,0.18543
1031.73073,0.17946
1033.65920,0.16724
1035.58767,0.16540
1037.51614,0.16844
1039.44461,0.16444
1041.37308,0.15432
1043.30154,0.14866
1045.23001,0.15054
1047.15848,0.15053
1049.08695,0.14294
1051.01542,0.13672
1052.94389,0.14246
1054.87236,0.15719
1056.80083,0.16923
1058.72929,0.17452
1060.65776,0.17662
1062.58623,0.17297
1064.51470,0.16273
1066.44317,0.15697
1068.37164,0.15788
1070.30011,0.15548
1072.22857,0.15276
1074.15704,0.15657
1076.08551,0.15783
1078.01398,0.15406
1079.94245,0.15525
1081.87092,0.16114
1083.79939,0.16976
1085.72786,0.17900
1087.65632,0.17941
1089.58479,0.17281
1091.51326,0.16453
1093.44173,0.15859
1095.37020,0.16508
1097.29867,0.17703
1099.22714,0.17993
1101.15560,0.17756
1103.08407,0.17564
1105.01254,0.17381
1106.94101,0.17454
1108.86948,0.17853
1110.79795,0.18138
1112.72642,0.17992
1114.65489,0.17609
1116.58335,0.17615
1118.51182,0.18008
1120.44029,0.17797
1122.36876,0.16696
1124.29723,0.15827
1126.22570,0.15757
1128.15417,0.15576
1130.08263,0.15144
1132.01110,0.15119
1133.93957,0.15332
1135.86804,0.15645
1137.79651,0.16158
1139.72498,0.16836
1141.65345,0.17688
1143.58191,0.18096
1145.51038,0.17770
1147.43885,0.17412
1149.36732,0.17079
1151.29579,0.16750
1153.22426,0.16909
1155.15273,0.17350
1157.08120,0.17544
1159.00966,0.17472
1160.93813,0.17239
1162.86660,0.16810
1164.79507,0.16545
1166.72354,0.16849
1168.65201,0.17386
1170.58048,0.17544
1172.50894,0.17226
1174.43741,0.16716
1176.36588,0.16397
1178.29435,0.16326
1180.22282,0.16044
1182.15129,0.15547
1184.07976,0.15567
1186.00823,0.16359
1187.93669,0.17099
1189.86516,0.17168
1191.79363,0.16986
1193.72210,0.16965
1195.65057,0.16930
1197.57904,0.16801
1199.50751,0.16668
1201.43597,0.16505
1203.36444,0.16463
1205.29291,0.16362
1207.22138,0.16023
1209.14985,0.16021
1211.07832,0.16510
1213.00679,0.16821
1214.93526,0.16803
1216.86372,0.16835
1218.79219,0.16755
1220.72066,0.16369
1222.64913,0.15954
1224.57760,0.15776
1226.50607,0.15652
1228.43454,0.15253
1230.36300,0.14983
1232.29147,0.15286
1234.21994,0.15782
1236.14841,0.16164
1238.07688,0.16544
1240.00535,0.16803
1241.93382,0.16889
1243.86229,0.16809
1245.79075,0.16534
1247.71922,0.16629
1249.64769,0.17097
1251.57616,0.16990
1253.50463,0.16278
1255.43310,0.15822
1257.36157,0.15920
1259.29003,0.16395
1261.21850,0.17038
1263.14697,0.17388
1265.07544,0.17122
1267.00391,0.16620
1268.93238,0.16444
1270.86085,0.16556
1272.78932,0.16623
1274.71778,0.16655
1276.64625,0.16872
1278.57472,0.17070
1280.50319,0.16794
1282.43166,0.16318
1284.36013,0.16153
1286.28860,0.16125
1288.21706,0.16262
1290.14553,0.16770
1292.07400,0.17053
1294.00247,0.16871
1295.93094,0.16836
1297.85941,0.16800
1299.78788,0.15945
1301.71634,0.14529
1303.64481,0.13600
1305.57328,0.13983
1307.50175,0.15628
1309.43022,0.16926
1311.35869,0.17105
1313.28716,0.17190
1315.21563,0.17392
1317.14409,0.17237
1319.07256,0.17015
1321.00103,0.17007
1322.92950,0.16860
1324.85797,0.16374
1326.78644,0.16093
1328.71491,0.16385
1330.64337,0.16513
1332.57184,0.16530
1334.50031,0.17078
1336.42878,0.17746
1338.35725,0.18071
1340.28572,0.17955
1342.21419,0.16798
1344.14266,0.13329
1346.07112,0.11155
1347.99959,0.14182
1349.92806,0.17053
1351.85653,0.16784
1353.78500,0.16464
1355.71347,0.16471
1357.64194,0.16641
1359.57040,0.17056
1361.49887,0.17341
1363.42734,0.17460
1365.35581,0.17529
1367.28428,0.17445
1369.21275,0.17203
1371.14122,0.17253
1373.06969,0.17744
1374.99815,0.18297
1376.92662,0.18203
1378.85509,0.17667
1380.78356,0.17433
1382.71203,0.17896
1384.64050,0.18778
1386.56897,0.19346
1388.49743,0.19034
1390.42590,0.18410
1392.35437,0.18415
1394.28284,0.18811
1396.21131,0.18763
1398.13978,0.18512
1400.06825,0.18367
1401.99672,0.18281
1403.92518,0.18514
1405.85365,0.18645
1407.78212,0.18157
1409.71059,0.17785
1411.63906,0.17736
1413.56753,0.17781
1415.49600,0.18396
1417.42446,0.19674
1419.35293,0.20419
1421.28140,0.20408
1423.20987,0.20339
1425.13834,0.19539
1427.06681,0.18528
1428.99528,0.18271
1430.92375,0.18438
1432.85221,0.18744
1434.78068,0.19453
1436.70915,0.20008
1438.63762,0.19389
1440.56609,0.18484
1442.49456,0.17903
1444.42303,0.17635
1446.35149,0.17611
1448.27996,0.17741
1450.20843,0.18070
1452.13690,0.18611
1454.06537,0.19473
1455.99384,0.21110
1457.92231,0.22298
1459.85077,0.21269
1461.77924,0.20268
1463.70771,0.19967
1465.63618,0.19637
1467.56465,0.19213
1469.49312,0.19848
1471.42159,0.21753
1473.35006,0.23003
1475.27852,0.21920
1477.20699,0.20274
1479.13546,0.19449
1481.06393,0.19432
1482.99240,0.19494
1484.92087,0.19644
1486.84934,0.20432
1488.77780,0.21511
1490.70627,0.21544
1492.63474,0.21075
1494.56321,0.21227
1496.49168,0.21471
1498.42015,0.20617
1500.34862,0.19496
1502.27709,0.19182
1504.20555,0.20287
1506.13402,0.23562
1508.06249,0.24312
1509.99096,0.21678
1511.91943,0.20347
1513.84790,0.20388
1515.77637,0.21190
1517.70483,0.22094
1519.63330,0.23254
1521.56177,0.24142
1523.49024,0.23069
1525.41871,0.21608
1527.34718,0.20573
1529.27565,0.20090
1531.20412,0.20516
1533.13258,0.21017
1535.06105,0.20682
1536.98952,0.21100
1538.91799,0.23522
1540.84646,0.25869
1542.77493,0.24448
1544.70340,0.21887
1546.63186,0.20308
1548.56033,0.20300
1550.48880,0.20788
1552.41727,0.21242
1554.34574,0.22145
1556.27421,0.23463
1558.20268,0.24770
1560.13115,0.22784
1562.05961,0.20242
1563.98808,0.19153
1565.91655,0.19051
1567.84502,0.19838
1569.77349,0.20403
1571.70196,0.19697
1573.63043,0.19149
1575.55889,0.19422
1577.48736,0.19588
1579.41583,0.19135
1581.34430,0.18650
1583.27277,0.18301
1585.20124,0.18046
1587.12971,0.17966
1589.05818,0.17944
1590.98664,0.17775
1592.91511,0.17810
1594.84358,0.18147
1596.77205,0.18250
1598.70052,0.18116
1600.62899,0.18068
1602.55746,0.17970
1604.48592,0.17925
1606.41439,0.18312
1608.34286,0.18788
1610.27133,0.18885
1612.19980,0.18983
1614.12827,0.19724
1616.05674,0.20768
1617.98521,0.20294
1619.91367,0.19386
1621.84214,0.19635
1623.77061,0.20256
1625.69908,0.20282
1627.62755,0.20165
1629.55602,0.20000
1631.48449,0.19887
1633.41295,0.20400
1635.34142,0.21540
1637.26989,0.21707
1639.19836,0.21008
1641.12683,0.20538
1643.05530,0.20736
1644.98377,0.21934
1646.91223,0.23319
1648.84070,0.22843
1650.76917,0.22398
1652.69764,0.23832
1654.62611,0.23670
1656.55458,0.21516
1658.48305,0.20264
1660.41152,0.19828
1662.33998,0.19935
1664.26845,0.20511
1666.19692,0.21257
1668.12539,0.21953
1670.05386,0.22014
1671.98233,0.21269
1673.91080,0.20449
1675.83926,0.19811
1677.76773,0.19882
1679.69620,0.20763
1681.62467,0.22209
1683.55314,0.23607
1685.48161,0.22996
1687.41008,0.21626
1689.33855,0.20779
1691.26701,0.20284
1693.19548,0.20570
1695.12395,0.22029
1697.05242,0.23705
1698.98089,0.23807
1700.90936,0.22197
1702.83783,0.21037
1704.76629,0.20938
1706.69476,0.20679
1708.62323,0.20125
1710.55170,0.19994
1712.48017,0.20349
1714.40864,0.21145
1716.33711,0.22038
1718.26558,0.21254
1720.19404,0.19486
1722.12251,0.18711
1724.05098,0.18750
1725.97945,0.18957
1727.90792,0.19391
1729.83639,0.20146
1731.76486,0.21114
1733.69332,0.21981
1735.62179,0.21556
1737.55026,0.20852
1739.47873,0.20610
1741.40720,0.20317
1743.33567,0.20187
1745.26414,0.20887
1747.19261,0.21964
1749.12107,0.22168
1751.04954,0.21131
1752.97801,0.20249
1754.90648,0.20019
1756.83495,0.19745
1758.76342,0.19356
1760.69189,0.19441
1762.62035,0.19510
1764.54882,0.19074
1766.47729,0.19023
1768.40576,0.19845
1770.33423,0.21132
1772.26270,0.21947
1774.19117,0.21330
1776.11964,0.20342
1778.04810,0.19816
1779.97657,0.19543
1781.90504,0.19295
1783.83351,0.19192
1785.76198,0.19196
1787.69045,0.19279
1789.61892,0.19687
1791.54738,0.20233
1793.47585,0.20270
1795.40432,0.20070
1797.33279,0.20118
1799.26126,0.20180
1801.18973,0.19851
1803.11820,0.19281
1805.04666,0.18816
1806.97513,0.18644
1808.90360,0.18941
1810.83207,0.19332
1812.76054,0.19168
1814.68901,0.18719
1816.61748,0.18142
1818.54595,0.17128
1820.47441,0.16450
1822.40288,0.17253
1824.33135,0.19109
1826.25982,0.20316
1828.18829,0.20511
1830.11676,0.20170
1832.04523,0.19519
1833.97369,0.19151
1835.90216,0.18963
1837.83063,0.18688
1839.75910,0.18692
1841.68757,0.19214
1843.61604,0.19876
1845.54451,0.19938
1847.47298,0.19458
1849.40144,0.19037
1851.32991,0.18910
1853.25838,0.18879
1855.18685,0.18780
1857.11532,0.18719
1859.04379,0.18744
1860.97226,0.18839
1862.90072,0.19022
1864.82919,0.19403
1866.75766,0.20009
1868.68613,0.20252
1870.61460,0.19637
1872.54307,0.18933
1874.47154,0.18620
1876.40001,0.18580
1878.32847,0.18638
1880.25694,0.18643
1882.18541,0.18559
1884.11388,0.18483
1886.04235,0.18489
1887.97082,0.18666
1889.89929,0.18804
1891.82775,0.18722
1893.75622,0.18917
1895.68469,0.19410
1897.61316,0.19593
1899.54163,0.19435
1901.47010,0.19369
1903.39857,0.19508
1905.32704,0.19536
1907.25550,0.19508
1909.18397,0.19563
1911.11244,0.19322
1913.04091,0.18914
1914.96938,0.18909
1916.89785,0.19198
1918.82632,0.19214
1920.75478,0.19082
1922.68325,0.19145
1924.61172,0.19246
1926.54019,0.19235
1928.46866,0.19097
1930.39713,0.18850
1932.32560,0.18672
1934.25407,0.18720
1936.18253,0.18974
1938.11100,0.19305
1940.03947,0.19671
1941.96794,0.19948
1943.89641,0.19760
1945.82488,0.19293
1947.75335,0.19028
1949.68181,0.19006
1951.61028,0.19030
1953.53875,0.18856
1955.46722,0.18639
1957.39569,0.18723
1959.32416,0.18963
1961.25263,0.19046
1963.18110,0.19052
1965.10956,0.19228
1967.03803,0.19299
1968.96650,0.18972
1970.89497,0.18630
1972.82344,0.18507
1974.75191,0.18482
1976.68038,0.18540
1978.60884,0.18753
1980.53731,0.18940
1982.46578,0.18774
1984.39425,0.18473
1986.32272,0.18571
1988.25119,0.19037
1990.17966,0.19322
1992.10812,0.19244
1994.03659,0.19152
1995.96506,0.19073
1997.89353,0.18902
1999.82200,0.18835
2001.75047,0.18884
2003.67894,0.18917
2005.60741,0.19003
2007.53587,0.19259
2009.46434,0.19495
2011.39281,0.19442
2013.32128,0.19270
2015.24975,0.19268
2017.17822,0.19362
2019.10669,0.19356
2021.03515,0.19266
2022.96362,0.19271
2024.89209,0.19354
2026.82056,0.19218
2028.74903,0.18908
2030.67750,0.18749
2032.60597,0.18805
2034.53444,0.18965
2036.46290,0.19008
2038.39137,0.18889
2040.31984,0.18921
2042.24831,0.19068
2044.17678,0.18971
2046.10525,0.18851
2048.03372,0.19074
2049.96218,0.19380
2051.89065,0.19352
2053.81912,0.19058
2055.74759,0.19059
2057.67606,0.19458
2059.60453,0.19545
2061.53300,0.19201
2063.46147,0.19129
2065.38993,0.19379
2067.31840,0.19366
2069.24687,0.19136
2071.17534,0.19214
2073.10381,0.19615
2075.03228,0.19831
2076.96075,0.19614
2078.88921,0.19245
2080.81768,0.19076
2082.74615,0.19180
2084.67462,0.19323
2086.60309,0.19339
2088.53156,0.19265
2090.46003,0.19252
2092.38850,0.19386
2094.31696,0.19357
2096.24543,0.19196
2098.17390,0.19222
2100.10237,0.19080
2102.03084,0.18670
2103.95931,0.18506
2105.88778,0.18653
2107.81624,0.18827
2109.74471,0.18842
2111.67318,0.18780
2113.60165,0.18949
2115.53012,0.19158
2117.45859,0.19094
2119.38706,0.19046
2121.31553,0.19123
2123.24399,0.19133
2125.17246,0.19138
2127.10093,0.19144
2129.02940,0.19034
2130.95787,0.18913
2132.88634,0.18917
2134.81481,0.18767
2136.74327,0.18208
2138.67174,0.17834
2140.60021,0.18160
2142.52868,0.18717
2144.45715,0.19099
2146.38562,0.19228
2148.31409,0.19284
2150.24255,0.19618
2152.17102,0.19746
2154.09949,0.19294
2156.02796,0.18866
2157.95643,0.18833
2159.88490,0.19137
2161.81337,0.19509
2163.74184,0.19555
2165.67030,0.19293
2167.59877,0.18941
2169.52724,0.18743
2171.45571,0.18850
2173.38418,0.18975
2175.31265,0.18975
2177.24112,0.19072
2179.16958,0.19289
2181.09805,0.19404
2183.02652,0.19299
2184.95499,0.19205
2186.88346,0.19376
2188.81193,0.19576
2190.74040,0.19550
2192.66887,0.19489
2194.59733,0.19454
2196.52580,0.19280
2198.45427,0.19067
2200.38274,0.19025
2202.31121,0.19112
2204.23968,0.19214
2206.16815,0.19360
2208.09661,0.19561
2210.02508,0.19582
2211.95355,0.19555
2213.88202,0.19881
2215.81049,0.20103
2217.73896,0.19819
2219.66743,0.19452
2221.59590,0.19247
2223.52436,0.19107
2225.45283,0.19010
2227.38130,0.19071
2229.30977,0.19289
2231.23824,0.19486
2233.16671,0.19563
2235.09518,0.19552
2237.02364,0.19514
2238.95211,0.19553
2240.88058,0.19716
2242.80905,0.19803
2244.73752,0.19653
2246.66599,0.19365
2248.59446,0.19140
2250.52293,0.19079
2252.45139,0.19140
2254.37986,0.19262
2256.30833,0.19347
2258.23680,0.19271
2260.16527,0.19144
2262.09374,0.19141
2264.02221,0.19250
2265.95067,0.19437
2267.87914,0.19543
2269.80761,0.19434
2271.73608,0.19224
2273.66455,0.19111
2275.59302,0.19179
2277.52149,0.19172
2279.44996,0.18870
2281.37842,0.18537
2283.30689,0.18564
2285.23536,0.18797
2287.16383,0.18901
2289.09230,0.18991
2291.02077,0.19208
2292.94924,0.19552
2294.87770,0.19878
2296.80617,0.19877
2298.73464,0.19613
2300.66311,0.19391
2302.59158,0.19291
2304.52005,0.19336
2306.44852,0.19331
2308.37699,0.19149
2310.30545,0.19129
2312.23392,0.19329
2314.16239,0.19337
2316.09086,0.18899
2318.01933,0.18437
2319.94780,0.18561
2321.87627,0.19263
2323.80473,0.20087
2325.73320,0.20756
2327.66167,0.21396
2329.59014,0.21397
2331.51861,0.20227
2333.44708,0.19017
2335.37555,0.19173
2337.30401,0.20213
2339.23248,0.20008
2341.16095,0.18871
2343.08942,0.18829
2345.01789,0.19443
2346.94636,0.19476
2348.87483,0.19136
2350.80330,0.18845
2352.73176,0.18707
2354.66023,0.18510
2356.58870,0.18654
2358.51717,0.19941
2360.44564,0.20797
2362.37411,0.20759
2364.30258,0.21194
2366.23104,0.21820
2368.15951,0.21765
2370.08798,0.20859
2372.01645,0.20146
2373.94492,0.19793
2375.87339,0.19421
2377.80186,0.19319
2379.73033,0.19467
2381.65879,0.19543
2383.58726,0.19295
2385.51573,0.18883
2387.44420,0.18748
2389.37267,0.18789
2391.30114,0.18748
2393.22961,0.18831
2395.15807,0.19068
2397.08654,0.19149
2399.01501,0.19136
2400.94348,0.19311
2402.87195,0.19509
2404.80042,0.19386
2406.72889,0.19051
2408.65736,0.18968
2410.58582,0.19168
2412.51429,0.19201
2414.44276,0.19001
2416.37123,0.18823
2418.29970,0.18753
2420.22817,0.18821
2422.15664,0.18969
2424.08510,0.18984
2426.01357,0.18889
2427.94204,0.19025
2429.87051,0.19339
2431.79898,0.19434
2433.72745,0.19346
2435.65592,0.19212
2437.58439,0.18998
2439.51285,0.18824
2441.44132,0.18769
2443.36979,0.18775
2445.29826,0.18737
2447.22673,0.18770
2449.15520,0.19105
2451.08367,0.19513
2453.01213,0.19639
2454.94060,0.19448
2456.86907,0.19213
2458.79754,0.19197
2460.72601,0.19145
2462.65448,0.18954
2464.58295,0.19075
2466.51142,0.19416
2468.43988,0.19468
2470.36835,0.19321
2472.29682,0.19235
2474.22529,0.19129
2476.15376,0.19096
2478.08223,0.19274
2480.01070,0.19435
2481.93916,0.19398
2483.86763,0.19159
2485.79610,0.18885
2487.72457,0.18734
2489.65304,0.18747
2491.58151,0.19018
2493.50998,0.19270
2495.43844,0.19302
2497.36691,0.19335
2499.29538,0.19397
2501.22385,0.19396
2503.15232,0.19298
2505.08079,0.19189
2507.00926,0.19157
2508.93773,0.19211
2510.86619,0.19309
2512.79466,0.19301
2514.72313,0.19310
2516.65160,0.19544
2518.58007,0.19684
2520.50854,0.19452
2522.43701,0.19282
2524.36547,0.19387
2526.29394,0.19400
2528.22241,0.19349
2530.15088,0.19517
2532.07935,0.19787
2534.00782,0.19896
2535.93629,0.19861
2537.86476,0.19730
2539.79322,0.19422
2541.72169,0.19106
2543.65016,0.19099
2545.57863,0.19386
2547.50710,0.19609
2549.43557,0.19631
2551.36404,0.19610
2553.29250,0.19431
2555.22097,0.19092
2557.14944,0.18962
2559.07791,0.19049
2561.00638,0.19195
2562.93485,0.19401
2564.86332,0.19515
2566.79179,0.19523
2568.72025,0.19604
2570.64872,0.19596
2572.57719,0.19497
2574.50566,0.19649
2576.43413,0.19807
2578.36260,0.19566
2580.29107,0.19173
2582.21953,0.18983
2584.14800,0.19117
2586.07647,0.19441
2588.00494,0.19591
2589.93341,0.19472
2591.86188,0.19390
2593.79035,0.19601
2595.71882,0.19760
2597.64728,0.19374
2599.57575,0.18880
2601.50422,0.18894
2603.43269,0.19267
2605.36116,0.19619
2607.28963,0.19716
2609.21810,0.19681
2611.14656,0.19761
2613.07503,0.19635
2615.00350,0.19240
2616.93197,0.19317
2618.86044,0.19760
2620.78891,0.19898
2622.71738,0.19927
2624.64585,0.20020
2626.57431,0.19853
2628.50278,0.19523
2630.43125,0.19613
2632.35972,0.19933
2634.28819,0.19951
2636.21666,0.19867
2638.14513,0.19712
2640.07359,0.19523
2642.00206,0.19617
2643.93053,0.19828
2645.85900,0.20017
2647.78747,0.20272
2649.71594,0.20311
2651.64441,0.19992
2653.57288,0.19718
2655.50134,0.19703
2657.42981,0.19812
2659.35828,0.19833
2661.28675,0.19713
2663.21522,0.19651
2665.14369,0.19671
2667.07216,0.19653
2669.00062,0.19549
2670.92909,0.19547
2672.85756,0.19898
2674.78603,0.20355
2676.71450,0.20384
2678.64297,0.20110
2680.57144,0.20057
2682.49990,0.20046
2684.42837,0.19846
2686.35684,0.19677
2688.28531,0.19634
2690.21378,0.19722
2692.14225,0.19730
2694.07072,0.19569
2695.99919,0.19556
2697.92765,0.19703
2699.85612,0.19797
2701.78459,0.19865
2703.71306,0.19923
2705.64153,0.19892
2707.57000,0.19864
2709.49847,0.19978
2711.42693,0.20089
2713.35540,0.20098
2715.28387,0.20158
2717.21234,0.20156
2719.14081,0.20000
2721.06928,0.19966
2722.99775,0.20147
2724.92622,0.20382
2726.85468,0.20492
2728.78315,0.20408
2730.71162,0.20220
2732.64009,0.20159
2734.56856,0.20364
2736.49703,0.20417
2738.42550,0.20175
2740.35396,0.20148
2742.28243,0.20228
2744.21090,0.20073
2746.13937,0.20009
2748.06784,0.20217
2749.99631,0.20333
2751.92478,0.20183
2753.85325,0.20127
2755.78171,0.20325
2757.71018,0.20477
2759.63865,0.20414
2761.56712,0.20285
2763.49559,0.20275
2765.42406,0.20226
2767.35253,0.20101
2769.28099,0.20216
2771.20946,0.20374
2773.13793,0.20296
2775.06640,0.20351
2776.99487,0.20944
2778.92334,0.21712
2780.85181,0.21849
2782.78028,0.21391
2784.70874,0.20946
2786.63721,0.20617
2788.56568,0.20403
2790.49415,0.20544
2792.42262,0.20863
2794.35109,0.20986
2796.27956,0.20934
2798.20802,0.20727
2800.13649,0.20448
2802.06496,0.20264
2803.99343,0.20091
2805.92190,0.19958
2807.85037,0.20101
2809.77884,0.20420
2811.70731,0.20582
2813.63577,0.20582
2815.56424,0.20592
2817.49271,0.20805
2819.42118,0.21146
2821.34965,0.21121
2823.27812,0.20764
2825.20659,0.20543
2827.13505,0.20567
2829.06352,0.20802
2830.99199,0.21109
2832.92046,0.21188
2834.84893,0.21047
2836.77740,0.20932
2838.70587,0.20917
2840.63433,0.20871
2842.56280,0.20667
2844.49127,0.20441
2846.41974,0.20415
2848.34821,0.20468
2850.27668,0.20349
2852.20515,0.20311
2854.13362,0.20677
2856.06208,0.21110
2857.99055,0.21168
2859.91902,0.20879
2861.84749,0.20543
2863.77596,0.20191
2865.70443,0.19904
2867.63290,0.20055
2869.56136,0.20542
2871.48983,0.20898
2873.41830,0.20891
2875.34677,0.20710
2877.27524,0.20822
2879.20371,0.21324
2881.13218,0.21539
2883.06065,0.21085
2884.98911,0.20716
2886.91758,0.20757
2888.84605,0.20745
2890.77452,0.20771
2892.70299,0.20809
2894.63146,0.20532
2896.55993,0.20410
2898.48839,0.20690
2900.41686,0.21023
2902.34533,0.21428
2904.27380,0.21570
2906.20227,0.21060
2908.13074,0.20444
2910.05921,0.20143
2911.98768,0.19952
2913.91614,0.19673
2915.84461,0.19400
2917.77308,0.19686
2919.70155,0.20610
2921.63002,0.21159
2923.55849,0.20600
2925.48696,0.19410
2927.41542,0.18740
2929.34389,0.19113
2931.27236,0.19914
2933.20083,0.20363
2935.12930,0.20126
2937.05777,0.19713
2938.98624,0.19945
2940.91471,0.20473
2942.84317,0.20673
2944.77164,0.20566
2946.70011,0.20206
2948.62858,0.20055
2950.55705,0.20364
2952.48552,0.20438
2954.41399,0.19894
2956.34245,0.19130
2958.27092,0.19006
2960.19939,0.19806
2962.12786,0.20509
2964.05633,0.20557
2965.98480,0.20363
2967.91327,0.20165
2969.84174,0.20178
2971.77020,0.20590
2973.69867,0.21092
2975.62714,0.20893
2977.55561,0.20080
2979.48408,0.20077
2981.41255,0.21097
2983.34102,0.21846
2985.26948,0.21731
2987.19795,0.21073
2989.12642,0.20586
2991.05489,0.20680
2992.98336,0.20945
2994.91183,0.20924
2996.84030,0.20560
2998.76877,0.20267
3000.69723,0.20373
3002.62570,0.20696
3004.55417,0.21114
3006.48264,0.21214
3008.41111,0.20589
3010.33958,0.19683
3012.26805,0.18494
3014.19651,0.15978
3016.12498,0.13103
3018.05345,0.13599
3019.98192,0.17669
3021.91039,0.20941
3023.83886,0.21700
3025.76733,0.21416
3027.69579,0.21109
3029.62426,0.21124
3031.55273,0.21371
3033.48120,0.21548
3035.40967,0.21497
3037.33814,0.21312
3039.26661,0.21473
3041.19508,0.21956
3043.12354,0.22030
3045.05201,0.21529
3046.98048,0.20968
3048.90895,0.20835
3050.83742,0.21177
3052.76589,0.21587
3054.69436,0.21431
3056.62282,0.20455
3058.55129,0.19679
3060.47976,0.19854
3062.40823,0.20191
3064.33670,0.19840
3066.26517,0.19298
3068.19364,0.19782
3070.12211,0.20738
3072.05057,0.20890
3073.97904,0.20439
3075.90751,0.20019
3077.83598,0.20010
3079.76445,0.20357
3081.69292,0.20419
3083.62139,0.19523
3085.54985,0.18648
3087.47832,0.19297
3089.40679,0.20504
3091.33526,0.20787
3093.26373,0.20151
3095.19220,0.19688
3097.12067,0.20188
3099.04914,0.20974
3100.97760,0.21229
3102.90607,0.20731
3104.83454,0.20305
3106.76301,0.20773
3108.69148,0.21498
3110.61995,0.21627
3112.54842,0.21196
3114.47688,0.20914
3116.40535,0.20983
3118.33382,0.20837
3120.26229,0.20090
3122.19076,0.19427
3124.11923,0.19896
3126.04770,0.20772
3127.97617,0.20925
3129.90463,0.20694
3131.83310,0.20508
3133.76157,0.20435
3135.69004,0.20578
3137.61851,0.20744
3139.54698,0.20761
3141.47545,0.20848
3143.40391,0.21054
3145.33238,0.21201
3147.26085,0.21391
3149.18932,0.21636
3151.11779,0.21750
3153.04626,0.21920
3154.97473,0.22105
3156.90320,0.21893
3158.83166,0.21498
3160.76013,0.21325
3162.68860,0.21304
3164.61707,0.21333
3166.54554,0.21425
3168.47401,0.21478
3170.40248,0.21493
3172.33094,0.21797
3174.25941,0.22335
3176.18788,0.22320
3178.11635,0.21666
3180.04482,0.21381
3181.97329,0.21673
3183.90176,0.22175
3185.83022,0.22784
3187.75869,0.22735
3189.68716,0.21889
3191.61563,0.21431
3193.54410,0.21745
3195.47257,0.22117
3197.40104,0.22116
3199.32951,0.21914
3201.25797,0.21840
3203.18644,0.21872
3205.11491,0.21628
3207.04338,0.21547
3208.97185,0.22074
3210.90032,0.22301
3212.82879,0.21943
3214.75725,0.21715
3216.68572,0.21846
3218.61419,0.21930
3220.54266,0.21569
3222.47113,0.21223
3224.39960,0.21148
3226.32807,0.21047
3228.25654,0.21222
3230.18500,0.21761
3232.11347,0.22086
3234.04194,0.21867
3235.97041,0.21385
3237.89888,0.21306
3239.82735,0.21776
3241.75582,0.22053
3243.68428,0.21891
3245.61275,0.21832
3247.54122,0.21879
3249.46969,0.21711
3251.39816,0.21530
3253.32663,0.21605
3255.25510,0.21561
3257.18357,0.21078
3259.11203,0.20589
3261.04050,0.20582
3262.96897,0.21100
3264.89744,0.21569
3266.82591,0.21244
3268.75438,0.20389
3270.68285,0.20225
3272.61131,0.21194
3274.53978,0.22131
3276.46825,0.21955
3278.39672,0.21127
3280.32519,0.20920
3282.25366,0.21590
3284.18213,0.22100
3286.11060,0.21762
3288.03906,0.21206
3289.96753,0.21282
3291.89600,0.21843
3293.82447,0.22357
3295.75294,0.22354
3297.68141,0.21721
3299.60988,0.21130
3301.53834,0.20964
3303.46681,0.20995
3305.39528,0.20916
3307.32375,0.20721
3309.25222,0.20603
3311.18069,0.20487
3313.10916,0.20534
3315.03763,0.20841
3316.96609,0.21077
3318.89456,0.21271
3320.82303,0.21464
3322.75150,0.21488
3324.67997,0.21720
3326.60844,0.22195
3328.53691,0.22271
3330.46537,0.22029
3332.39384,0.21560
3334.32231,0.20886
3336.25078,0.20832
3338.17925,0.21217
3340.10772,0.21185
3342.03619,0.21027
3343.96466,0.21124
3345.89312,0.21308
3347.82159,0.21371
3349.75006,0.21202
3351.67853,0.21040
3353.60700,0.21056
3355.53547,0.21066
3357.46394,0.21073
3359.39240,0.20946
3361.32087,0.20775
3363.24934,0.21324
3365.17781,0.22263
3367.10628,0.22481
3369.03475,0.22270
3370.96322,0.22178
3372.89168,0.21702
3374.82015,0.21007
3376.74862,0.20796
3378.67709,0.20724
3380.60556,0.20819
3382.53403,0.21547
3384.46250,0.22082
3386.39097,0.21705
3388.31943,0.21068
3390.24790,0.20812
3392.17637,0.20801
3394.10484,0.20650
3396.03331,0.20460
3397.96178,0.20687
3399.89025,0.21302
3401.81871,0.21783
3403.74718,0.21771
3405.67565,0.21637
3407.60412,0.21921
3409.53259,0.22272
3411.46106,0.22031
3413.38953,0.21198
3415.31800,0.20755
3417.24646,0.21378
3419.17493,0.22068
3421.10340,0.21838
3423.03187,0.21138
3424.96034,0.20853
3426.88881,0.21133
3428.81728,0.21484
3430.74574,0.21399
3432.67421,0.20752
3434.60268,0.19932
3436.53115,0.19331
3438.45962,0.19412
3440.38809,0.20077
3442.31656,0.20294
3444.24503,0.20138
3446.17349,0.20325
3448.10196,0.20708
3450.03043,0.21004
3451.95890,0.21073
3453.88737,0.20849
3455.81584,0.20418
3457.74431,0.19943
3459.67277,0.19466
3461.60124,0.18930
3463.52971,0.18636
3465.45818,0.18746
3467.38665,0.18951
3469.31512,0.19153
3471.24359,0.19447
3473.17206,0.19769
3475.10052,0.20041
3477.02899,0.20296
3478.95746,0.20545
3480.88593,0.20499
3482.81440,0.19991
3484.74287,0.19567
3486.67134,0.19486
3488.59980,0.19393
3490.52827,0.19383
3492.45674,0.19635
3494.38521,0.19750
3496.31368,0.19367
3498.24215,0.18812
3500.17062,0.18524
3502.09909,0.18303
3504.02755,0.18041
3505.95602,0.18100
3507.88449,0.18597
3509.81296,0.19011
3511.74143,0.18815
3513.66990,0.18294
3515.59837,0.17927
3517.52683,0.18040
3519.45530,0.18280
3521.38377,0.18058
3523.31224,0.17884
3525.24071,0.18426
3527.16918,0.19042
3529.09765,0.18611
3531.02611,0.17631
3532.95458,0.17342
3534.88305,0.17479
3536.81152,0.17328
3538.73999,0.17134
3540.66846,0.17230
3542.59693,0.17569
3544.52540,0.17922
3546.45386,0.17601
3548.38233,0.16826
3550.31080,0.16788
3552.23927,0.17432
3554.16774,0.17585
3556.09621,0.17158
3558.02468,0.17067
3559.95314,0.17329
3561.88161,0.17641
3563.81008,0.18297
3565.73855,0.19219
3567.66702,0.19311
3569.59549,0.18163
3571.52396,0.16894
3573.45243,0.16079
3575.38089,0.15808
3577.30936,0.15879
3579.23783,0.15827
3581.16630,0.15309
3583.09477,0.14838
3585.02324,0.15442
3586.95171,0.16710
3588.88017,0.16588
3590.80864,0.15636
3592.73711,0.15153
3594.66558,0.15135
3596.59405,0.15595
3598.52252,0.16315
3600.45099,0.16638
3602.37946,0.16235
3604.30792,0.15783
3606.23639,0.15794
3608.16486,0.15993
3610.09333,0.16301
3612.02180,0.16662
3613.95027,0.16487
3615.87874,0.16091
3617.80720,0.16369
3619.73567,0.16433
3621.66414,0.15424
3623.59261,0.14912
3625.52108,0.15662
3627.44955,0.17172
3629.37802,0.17678
3631.30649,0.16979
3633.23495,0.16600
3635.16342,0.16010
3637.09189,0.15171
3639.02036,0.14713
3640.94883,0.14861
3642.87730,0.15402
3644.80577,0.16042
3646.73423,0.16624
3648.66270,0.16582
3650.59117,0.15659
3652.51964,0.15128
3654.44811,0.15239
3656.37658,0.15247
3658.30505,0.14661
3660.23352,0.14221
3662.16198,0.14047
3664.09045,0.13720
3666.01892,0.13596
3667.94739,0.14503
3669.87586,0.15995
3671.80433,0.16385
3673.73280,0.16585
3675.66126,0.16666
3677.58973,0.15479
3679.51820,0.14500
3681.44667,0.14109
3683.37514,0.13774
3685.30361,0.13504
3687.23208,0.13897
3689.16055,0.15128
3691.08901,0.15429
3693.01748,0.14460
3694.94595,0.13707
3696.87442,0.13432
3698.80289,0.13326
3700.73136,0.13363
3702.65983,0.13225
3704.58829,0.12926
3706.51676,0.13061
3708.44523,0.13630
3710.37370,0.14082
3712.30217,0.13621
3714.23064,0.13035
3716.15911,0.13126
3718.08757,0.13600
3720.01604,0.13959
3721.94451,0.13984
3723.87298,0.14274
3725.80145,0.14584
3727.72992,0.14242
3729.65839,0.14283
3731.58686,0.15492
3733.51532,0.17240
3735.44379,0.17902
3737.37226,0.16822
3739.30073,0.15181
3741.22920,0.13855
3743.15767,0.13410
3745.08614,0.14403
3747.01460,0.15652
3748.94307,0.16758
3750.87154,0.17411
3752.80001,0.15971
3754.72848,0.14360
3756.65695,0.13889
3758.58542,0.14006
3760.51389,0.13736
3762.44235,0.13286
3764.37082,0.13089
3766.29929,0.13016
3768.22776,0.13417
3770.15623,0.13802
3772.08470,0.13067
3774.01317,0.12417
3775.94163,0.12909
3777.87010,0.14119
3779.79857,0.14716
3781.72704,0.14225
3783.65551,0.13774
3785.58398,0.13551
3787.51245,0.13353
3789.44092,0.13209
3791.36938,0.12976
3793.29785,0.12970
3795.22632,0.13386
3797.15479,0.13832
3799.08326,0.14206
3801.01173,0.14446
3802.94020,0.13944
3804.86866,0.13337
3806.79713,0.13045
3808.72560,0.12654
3810.65407,0.12369
3812.58254,0.12492
3814.51101,0.12837
3816.43948,0.13142
3818.36795,0.13696
3820.29641,0.14664
3822.22488,0.14618
3824.15335,0.13597
3826.08182,0.13133
3828.01029,0.13262
3829.93876,0.13365
3831.86723,0.13231
3833.79569,0.13187
3835.72416,0.13748
3837.65263,0.15251
3839.58110,0.16446
3841.50957,0.15681
3843.43804,0.13974
3845.36651,0.12876
3847.29498,0.12707
3849.22344,0.13137
3851.15191,0.13970
3853.08038,0.14310
3855.00885,0.13099
3856.93732,0.12252
3858.86579,0.11961
3860.79426,0.12089
3862.72272,0.12619
3864.65119,0.12692
3866.57966,0.12516
3868.50813,0.13137
3870.43660,0.14075
3872.36507,0.14116
3874.29354,0.13132
3876.22200,0.11800
3878.15047,0.11223
3880.07894,0.11459
3882.00741,0.11627
3883.93588,0.11687
3885.86435,0.11942
3887.79282,0.12175
3889.72129,0.12499
3891.64975,0.12713
3893.57822,0.12515
3895.50669,0.12539
3897.43516,0.13169
3899.36363,0.13769
3901.29210,0.13400
3903.22057,0.12976
3905.14903,0.12932
3907.07750,0.12296
3909.00597,0.11532
3910.93444,0.11207
3912.86291,0.11226
3914.79138,0.11545
3916.71985,0.12047
3918.64832,0.12294
3920.57678,0.12102
3922.50525,0.11653
3924.43372,0.11221
3926.36219,0.11084
3928.29066,0.11072
3930.21913,0.11076
3932.14760,0.11475
3934.07606,0.11824
3936.00453,0.11487
3937.93300,0.11187
3939.86147,0.11479
3941.78994,0.11732
3943.71841,0.11528
3945.64688,0.11458
3947.57535,0.11840
3949.50381,0.12088
3951.43228,0.11669
3953.36075,0.11074
3955.28922,0.10890
3957.21769,0.10974
3959.14616,0.10964
3961.07463,0.10855
3963.00309,0.10628
3964.93156,0.10382
3966.86003,0.10582
3968.78850,0.11073
3970.71697,0.11069
3972.64544,0.10593
3974.57391,0.10535
3976.50238,0.11126
3978.43084,0.11654
3980.35931,0.11469
3982.28778,0.10501
3984.21625,0.09622
3986.14472,0.09672
3988.07319,0.10269
3990.00166,0.10712
3991.93012,0.10825
3993.85859,0.10938
3995.78706,0.11084
3997.71553,0.10882
3999.64400,0.10630
4001.57247,0.10467
4003.50094,0.10088
4005.42941,0.09902
4007.35787,0.09991
4009.28634,0.09869
4011.21481,0.09922
4013.14328,0.10530
4015.07175,0.10970
4017.00022,0.10775
4018.92869,0.10373
4020.85715,0.10123
4022.78562,0.10063
4024.71409,0.10223
4026.64256,0.10524
4028.57103,0.10648
4030.49950,0.10567
4032.42797,0.10473
4034.35644,0.10355
4036.28490,0.10140
4038.21337,0.09733
4040.14184,0.09265
4042.07031,0.09097
4043.99878,0.09393
4045.92725,0.09819
4047.85572,0.09936
4049.78418,0.09845
4051.71265,0.09612
4053.64112,0.09218
4055.56959,0.09277
4057.49806,0.09900
4059.42653,0.09826
4061.35500,0.09007
4063.28346,0.09015
4065.21193,0.09589
4067.14040,0.09689
4069.06887,0.09949
4070.99734,0.10642
4072.92581,0.10831
4074.85428,0.10310
4076.78275,0.09768
4078.71121,0.09390
4080.63968,0.09008
4082.56815,0.08786
4084.49662,0.08847
4086.42509,0.09152
4088.35356,0.09558
4090.28203,0.09822
4092.21049,0.09963
4094.13896,0.09844
4096.06743,0.09194
4097.99590,0.08658
4099.92437,0.08838
4101.85284,0.09335
4103.78131,0.09821
4105.70978,0.10171
4107.63824,0.10107
4109.56671,0.09803
4111.49518,0.09851
4113.42365,0.10175
4115.35212,0.10078
4117.28059,0.09332
4119.20906,0.08189
4121.13752,0.07486
4123.06599,0.08021
4124.99446,0.08883
4126.92293,0.09054
4128.85140,0.09084
4130.77987,0.09168
4132.70834,0.08935
4134.63681,0.08591
4136.56527,0.08299
4138.49374,0.08274
4140.42221,0.08658
4142.35068,0.08950
4144.27915,0.08934
4146.20762,0.08726
4148.13609,0.08239
4150.06455,0.08019
4151.99302,0.08694
4153.92149,0.09635
4155.84996,0.09893
4157.77843,0.09597
4159.70690,0.09352
4161.63537,0.09106
4163.56384,0.08555
4165.49230,0.07871
4167.42077,0.07265
4169.34924,0.07029
4171.27771,0.07493
4173.20618,0.08104
4175.13465,0.08339
4177.06312,0.08518
4178.99158,0.08703
4180.92005,0.08489
4182.84852,0.07681
4184.77699,0.06968
4186.70546,0.07056
4188.63393,0.07309
4190.56240,0.06914
4192.49087,0.06062
4194.41933,0.05544
4196.34780,0.05989
4198.27627,0.07257
4200.20474,0.08348
4202.13321,0.08546
4204.06168,0.08357
4205.99015,0.08093
4207.91861,0.07500
4209.84708,0.07023
4211.77555,0.07039
4213.70402,0.07113
4215.63249,0.07321
4217.56096,0.08016
4219.48943,0.08293
4221.41789,0.07683
4223.34636,0.07320
4225.27483,0.07542
4227.20330,0.07547
4229.13177,0.07174
4231.06024,0.07123
4232.98871,0.07579
4234.91718,0.07629
4236.84564,0.07278
4238.77411,0.07201
4240.70258,0.06962
4242.63105,0.06396
4244.55952,0.06265
4246.48799,0.06849
4248.41646,0.07506
4250.34492,0.07667
4252.27339,0.07423
4254.20186,0.07046
4256.13033,0.06615
4258.05880,0.06120
4259.98727,0.05917
4261.91574,0.06116
4263.84421,0.06050
4265.77267,0.05775
4267.70114,0.06144
4269.62961,0.06635
4271.55808,0.06467
4273.48655,0.06456
4275.41502,0.06827
4277.34349,0.06516
4279.27195,0.05507
4281.20042,0.05163
4283.12889,0.05769
4285.05736,0.06373
4286.98583,0.06646
4288.91430,0.06538
4290.84277,0.06138
4292.77124,0.05746
4294.69970,0.05654
4296.62817,0.06012
4298.55664,0.06515
4300.48511,0.07025
4302.41358,0.07147
4304.34205,0.06476
4306.27052,0.05926
4308.19898,0.06110
4310.12745,0.06189
4312.05592,0.05875
4313.98439,0.05753
4315.91286,0.05825
4317.84133,0.05753
4319.76980,0.05559
4321.69827,0.05259
4323.62673,0.04736
4325.55520,0.04357
4327.48367,0.04523
4329.41214,0.04953
4331.34061,0.04966
4333.26908,0.04332
4335.19755,0.03941
4337.12601,0.04175
4339.05448,0.04476
4340.98295,0.04868
4342.91142,0.05179
4344.83989,0.05104
4346.76836,0.04775
4348.69683,0.03958
4350.62530,0.03054
4352.55376,0.03104
4354.48223,0.04001
4356.41070,0.04642
4358.33917,0.04597
4360.26764,0.04489
4362.19611,0.04231
4364.12458,0.03403
4366.05304,0.02956
4367.98151,0.03265
4369.90998,0.03344
4371.83845,0.03221
4373.76692,0.03653
4375.69539,0.04195
4377.62386,0.04097
4379.55232,0.03938
4381.48079,0.04034
4383.40926,0.04069
4385.33773,0.04446
4387.26620,0.04688
4389.19467,0.04202
4391.12314,0.03682
4393.05161,0.03510
4394.98007,0.03844
4396.90854,0.04446
4398.83701,0.04652
4400.76548,0.04185
4402.69395,0.03316
4404.62242,0.02885
4406.55089,0.03070
4408.47935,0.03268
4410.40782,0.03340
4412.33629,0.03796
4414.26476,0.04568
4416.19323,0.04994
4418.12170,0.04879
4420.05017,0.04291
4421.97864,0.03731
4423.90710,0.03586
4425.83557,0.03418
4427.76404,0.02775
4429.69251,0.01913
4431.62098,0.01882
4433.54945,0.02909
4435.47792,0.03571
4437.40638,0.03232
4439.33485,0.02914
4441.26332,0.03258
4443.19179,0.03737
4445.12026,0.03586
4447.04873,0.02799
4448.97720,0.02356
4450.90567,0.02583
4452.83413,0.02243
4454.76260,0.01458
4456.69107,0.01939
4458.61954,0.03330
4460.54801,0.03991
4462.47648,0.03566
4464.40495,0.02757
4466.33341,0.02213
4468.26188,0.02034
4470.19035,0.02234
4472.11882,0.02721
4474.04729,0.03364
4475.97576,0.03871
4477.90423,0.03844
4479.83270,0.03702
4481.76116,0.03830
4483.68963,0.03614
4485.61810,0.02527
4487.54657,0.01371
4489.47504,0.01292
4491.40351,0.01544
4493.33198,0.01055
4495.26044,0.00948
4497.18891,0.01468
4499.11738,0.01316
4501.04585,0.00990
4502.97432,0.01364
4504.90279,0.01752
4506.83126,0.01550
4508.75973,0.01298
4510.68819,0.01375
4512.61666,0.01234
4514.54513,0.00995
4516.47360,0.01294
4518.40207,0.01608
4520.33054,0.01437
4522.25901,0.01636
4524.18747,0.02197
4526.11594,0.01771
4528.04441,0.00601
4529.97288,0.00049
4531.90135,0.00202
4533.82982,0.00635
4535.75829,0.01463
4537.68676,0.02321
4539.61522,0.02915
4541.54369,0.03527
4543.47216,0.03442
4545.40063,0.02130
4547.32910,0.00794
4549.25757,0.00645
4551.18604,0.01053
4553.11450,0.00767
4555.04297,0.00353
4556.97144,0.00645
4558.89991,0.01230
4560.82838,0.01934
4562.75685,0.02788
4564.68532,0.03180
4566.61378,0.02659
4568.54225,0.02198
4570.47072,0.02520
4572.39919,0.02590
4574.32766,0.01777
4576.25613,0.00904
4578.18460,0.00528
4580.11307,0.00300
4582.04153,0.00311
4583.97000,0.01179
4585.89847,0.02669
4587.82694,0.03533
4589.75541,0.03363
4591.68388,0.02894
4593.61235,0.02071
4595.54081,0.01270
4597.46928,0.01546
4599.39775,0.02513
4601.32622,0.03216
4603.25469,0.02743
4605.18316,0.01193
4607.11163,0.00239
4609.04010,-0.00039
4610.96856,-0.00305
4612.89703,0.00216
4614.82550,0.01212
4616.75397,0.01175
4618.68244,0.00435
4620.61091,0.00480
4622.53938,0.01121
4624.46784,0.01446
4626.39631,0.01202
4628.32478,0.00636
4630.25325,0.00751
4632.18172,0.01204
4634.11019,0.00730
4636.03866,0.00094
4637.96713,0.00042
4639.89559,0.00360
4641.82406,0.00961
4643.75253,0.01267
4645.68100,0.01075
4647.60947,0.01395
4649.53794,0.02153
4651.46641,0.01763
4653.39487,0.00694
4655.32334,0.00843
4657.25181,0.01905
4659.18028,0.02149
4661.10875,0.00943
4663.03722,-0.00349
4664.96569,0.00028
4666.89416,0.01253
4668.82262,0.02040
4670.75109,0.02694
4672.67956,0.02427
4674.60803,0.01379
4676.53650,0.01334
4678.46497,0.01891
4680.39344,0.02011
4682.32190,0.01484
4684.25037,0.00042
4686.17884,-0.01138
4688.10731,-0.00720
4690.03578,0.00342
4691.96425,0.00877
4693.89272,0.01006
4695.82119,0.01181
4697.74965,0.01893
4699.67812,0.02838
4701.60659,0.02830
4703.53506,0.01880
4705.46353,0.01052
4707.39200,0.00630
4709.32047,0.00372
4711.24893,0.00267
4713.17740,0.00898
4715.10587,0.02113
4717.03434,0.02351
4718.96281,0.01182
4720.89128,-0.00209
4722.81975,-0.00762
4724.74821,-0.00562
4726.67668,-0.00358
4728.60515,-0.00179
4730.53362,0.00217
4732.46209,0.00184
4734.39056,-0.00425
4736.31903,-0.00759
4738.24750,-0.00571
4740.17596,-0.00022
4742.10443,0.00129
4744.03290,-0.00198
4745.96137,0.00117
4747.88984,0.00351
4749.81831,-0.00605
4751.74678,-0.01730
4753.67524,-0.01439
4755.60371,0.00557
4757.53218,0.02392
4759.46065,0.02612
4761.38912,0.02049
4763.31759,0.01137
4765.24606,0.00188
4767.17453,0.00585
4769.10299,0.01815
4771.03146,0.02041
4772.95993,0.01025
4774.88840,-0.00298
4776.81687,-0.00737
4778.74534,0.00406
4780.67381,0.01894
4782.60227,0.01701
4784.53074,0.00358
4786.45921,-0.00264
4788.38768,0.00014
4790.31615,0.00172
4792.24462,-0.00068
4794.17309,0.00323
4796.10156,0.01405
4798.03002,0.01930
4799.95849,0.01338
4801.88696,0.00177
4803.81543,-0.00095
4805.74390,0.01435
4807.67237,0.03082
4809.60084,0.02837
4811.52930,0.02049
4813.45777,0.02101
4815.38624,0.01552
4817.31471,0.00116
4819.24318,-0.00812
4821.17165,-0.00925
4823.10012,-0.00167
4825.02859,0.01209
4826.95705,0.01771
4828.88552,0.01624
4830.81399,0.01822
4832.74246,0.01419
4834.67093,0.00251
4836.59940,-0.00117
4838.52787,0.00425
4840.45633,0.01026
4842.38480,0.00890
4844.31327,-0.00256
4846.24174,-0.00678
4848.17021,0.00544
4850.09868,0.01795
4852.02715,0.02105
4853.95562,0.01852
4855.88408,0.02046
4857.81255,0.02896
4859.74102,0.02879
4861.66949,0.01589
4863.59796,0.00503
4865.52643,0.00712
4867.45490,0.02282
4869.38336,0.02784
4871.31183,-0.00076
4873.24030,-0.02964
4875.16877,-0.02272
4877.09724,-0.00182
4879.02571,0.01018
4880.95418,0.01203
4882.88265,0.00315
4884.81111,-0.00494
4886.73958,0.00179
4888.66805,0.01387
4890.59652,0.01331
4892.52499,0.00504
4894.45346,0.00309
4896.38193,0.00144
4898.31039,-0.00383
4900.23886,-0.00144
4902.16733,0.01226
4904.09580,0.02887
4906.02427,0.03972
4907.95274,0.04189
4909.88121,0.03466
4911.80967,0.02546
4913.73814,0.01796
4915.66661,0.01018
4917.59508,0.00936
4919.52355,0.00980
4921.45202,0.00050
4923.38049,-0.00306
4925.30896,0.01095
4927.23742,0.01969
4929.16589,0.01138
4931.09436,0.00808
4933.02283,0.00782
4934.95130,-0.00455
4936.87977,-0.00901
4938.80824,0.00009
4940.73670,0.00126
4942.66517,-0.00422
4944.59364,-0.00487
4946.52211,-0.00030
4948.45058,0.01465
4950.37905,0.03239
4952.30752,0.02828
4954.23599,0.00916
4956.16445,-0.00612
4958.09292,-0.01377
4960.02139,-0.00323
4961.94986,0.01877
4963.87833,0.02547
4965.80680,0.01455
4967.73527,0.00530
4969.66373,0.00441
4971.59220,0.00911
4973.52067,0.01407
4975.44914,0.01710
4977.37761,0.01939
4979.30608,0.01465
4981.23455,0.01072
4983.16302,0.01754
4985.09148,0.02808
4987.01995,0.03762
4988.94842,0.04546
4990.87689,0.04407
4992.80536,0.02805
4994.73383,0.01827
4996.66230,0.02364
4998.59076,0.02216
5000.51923,0.01500
5002.44770,0.01330
5004.37617,0.00799
5006.30464,-0.00305
5008.23311,-0.00841
5010.16158,-0.00069
5012.09005,0.00498
5014.01851,0.00470
5015.94698,0.01247
5017.87545,0.01862
5019.80392,0.01759
5021.73239,0.01705
5023.66086,0.01727
5025.58933,0.01966
5027.51779,0.01932
5029.44626,0.01281
5031.37473,0.00684
5033.30320,0.00702
5035.23167,0.00854
5037.16014,0.00025
5039.08861,-0.00867
5041.01708,-0.00639
5042.94554,-0.01008
5044.87401,-0.01948
5046.80248,-0.01310
5048.73095,0.00205
5050.65942,0.01271
5052.58789,0.02017
5054.51636,0.02105
5056.44482,0.01639
5058.37329,0.01573
5060.30176,0.01084
5062.23023,-0.00944
5064.15870,-0.02016
5066.08717,0.00084
5068.01564,0.02609
5069.94410,0.02936
5071.87257,0.02792
5073.80104,0.03706
5075.72951,0.04422
5077.65798,0.03589
5079.58645,0.02380
5081.51492,0.03111
5083.44339,0.04605
5085.37185,0.04608
5087.30032,0.04215
5089.22879,0.03835
5091.15726,0.02469
5093.08573,0.01894
5095.01420,0.03273
5096.94267,0.04903
5098.87113,0.05280
5100.79960,0.04263
5102.72807,0.03310
5104.65654,0.03614
5106.58501,0.04389
5108.51348,0.04482
5110.44195,0.03721
5112.37042,0.03155
5114.29888,0.03176
5116.22735,0.02858
5118.15582,0.01954
5120.08429,0.01244
5122.01276,0.02256
5123.94123,0.04556
5125.86970,0.05607
5127.79816,0.04876
5129.72663,0.03436
5131.65510,0.01892
5133.58357,0.00619
5135.51204,0.00321
5137.44051,0.01530
5139.36898,0.03115
5141.29745,0.03405
5143.22591,0.02995
5145.15438,0.03498
5147.08285,0.04307
5149.01132,0.03798
5150.93979,0.02203
5152.86826,0.01536
5154.79673,0.01571
5156.72519,0.00357
5158.65366,-0.00063
5160.58213,0.01635
5162.51060,0.02854
5164.43907,0.03546
5166.36754,0.04964
5168.29601,0.05989
5170.22448,0.05987
5172.15294,0.04925
5174.08141,0.03032
5176.00988,0.02050
5177.93835,0.02536
5179.86682,0.03440
5181.79529,0.04113
5183.72376,0.03850
5185.65222,0.02472
5187.58069,0.01412
5189.50916,0.01765
5191.43763,0.02004
5193.36610,0.01599
5195.29457,0.02350
5197.22304,0.04147
5199.15151,0.06095
5201.07997,0.07169
5203.00844,0.06718
5204.93691,0.06513
5206.86538,0.06478
5208.79385,0.04620
5210.72232,0.02631
5212.65079,0.02405
5214.57925,0.03333
5216.50772,0.04405
5218.43619,0.04959
5220.36466,0.03871
5222.29313,0.02106
5224.22160,0.02803
5226.15007,0.05401
5228.07854,0.06685
5230.00700,0.06749
5231.93547,0.06166
5233.86394,0.05862
5235.79241,0.06073
5237.72088,0.05135
5239.64935,0.03760
5241.57782,0.03123
5243.50628,0.03192
5245.43475,0.04377
5247.36322,0.05899
5249.29169,0.06247
5251.22016,0.05869
5253.14863,0.06284
5255.07710,0.06653
5257.00556,0.05225
5258.93403,0.03207
5260.86250,0.02325
5262.79097,0.02703
5264.71944,0.04103
5266.64791,0.05219
5268.57638,0.05554
5270.50485,0.05258
5272.43331,0.03539
5274.36178,0.02658
5276.29025,0.04349
5278.21872,0.06048
5280.14719,0.06971
5282.07566,0.07828
5284.00413,0.07772
5285.93259,0.07045
5287.86106,0.06654
5289.78953,0.07266
5291.71800,0.08482
5293.64647,0.07721
5295.57494,0.05086
5297.50341,0.04432
5299.43188,0.06786
5301.36034,0.07062
5303.28881,0.03863
5305.21728,0.03358
5307.14575,0.06905
5309.07422,0.08714
5311.00269,0.06309
5312.93116,0.04052
5314.85962,0.04778
5316.78809,0.05437
5318.71656,0.05090
5320.64503,0.05744
5322.57350,0.05946
5324.50197,0.04547
5326.43044,0.03544
5328.35891,0.04225
5330.28737,0.05246
5332.21584,0.04739
5334.14431,0.02858
5336.07278,0.01311
5338.00125,0.00776
5339.92972,0.01119
5341.85819,0.02141
5343.78665,0.03553
5345.71512,0.04257
5347.64359,0.04505
5349.57206,0.05505
5351.50053,0.06999
5353.42900,0.08230
5355.35747,0.08559
5357.28594,0.08298
5359.21440,0.06547
5361.14287,0.02446
5363.07134,-0.00468
5364.99981,0.01685
5366.92828,0.06134
5368.85675,0.08751
5370.78522,0.10445
5372.71368,0.11892
5374.64215,0.11019
5376.57062,0.08282
5378.49909,0.06679
5380.42756,0.05680
5382.35603,0.04506
5384.28450,0.04981
5386.21297,0.07213
5388.14143,0.08725
5390.06990,0.08719
5391.99837,0.07887
5393.92684,0.06785
5395.85531,0.05475
5397.78378,0.04603
5399.71225,0.04309
5401.64071,0.03429
5403.56918,0.02774
5405.49765,0.04442
5407.42612,0.06379
5409.35459,0.05731
5411.28306,0.05072
5413.21153,0.06676
5415.13999,0.07940
5417.06846,0.08228
5418.99693,0.07725
5420.92540,0.05746
5422.85387,0.04359
5424.78234,0.04727
5426.71081,0.05303
5428.63928,0.05051
5430.56774,0.04428
5432.49621,0.05654
5434.42468,0.08582
5436.35315,0.09037
5438.28162,0.07027
5440.21009,0.06006
5442.13856,0.06757
5444.06702,0.08890
5445.99549,0.10195
5447.92396,0.07750
5449.85243,0.04017
5451.78090,0.01840
5453.70937,0.00031
5455.63784,-0.01313
5457.56631,0.00460
5459.49477,0.04856
5461.42324,0.08246
5463.35171,0.08198
5465.28018,0.06012
5467.20865,0.05316
5469.13712,0.06895
5471.06559,0.08064
5472.99405,0.07932
5474.92252,0.09005
5476.85099,0.10462
5478.77946,0.10099
5480.70793,0.09384
5482.63640,0.07916
5484.56487,0.06395
5486.49334,0.07409
5488.42180,0.10254
5490.35027,0.12250
5492.27874,0.11832
5494.20721,0.09950
5496.13568,0.08495
5498.06415,0.06855
5499.99262,0.05622
5501.92108,0.08374
5503.84955,0.13148
5505.77802,0.14585
5507.70649,0.12840
5509.63496,0.10983
5511.56343,0.08555
5513.49190,0.04540
5515.42037,0.01965
5517.34883,0.02803
5519.27730,0.04974
5521.20577,0.06734
5523.13424,0.07865
5525.06271,0.07969
5526.99118,0.06937
5528.91965,0.05835
5530.84811,0.05701
5532.77658,0.07255
5534.70505,0.10631
5536.63352,0.12371
5538.56199,0.10178
5540.49046,0.08193
5542.41893,0.08252
5544.34740,0.07699
5546.27586,0.05438
5548.20433,0.02265
5550.13280,0.00619
5552.06127,0.02467
5553.98974,0.05938
5555.91821,0.07468
5557.84668,0.07567
5559.77514,0.07277
5561.70361,0.06548
5563.63208,0.07267
5565.56055,0.07742
5567.48902,0.06957
5569.41749,0.08375
5571.34596,0.11355
5573.27443,0.11928
5575.20289,0.09894
5577.13136,0.07689
5579.05983,0.05398
5580.98830,0.04278
5582.91677,0.06032
5584.84524,0.07867
5586.77371,0.07940
5588.70217,0.07473
5590.63064,0.07144
5592.55911,0.07584
5594.48758,0.08608
5596.41605,0.08207
5598.34452,0.07247
5600.27299,0.07760
5602.20145,0.07533
5604.12992,0.05948
5606.05839,0.05974
5607.98686,0.07523
5609.91533,0.08389
5611.84380,0.08217
5613.77227,0.08788
5615.70074,0.10924
5617.62920,0.11102
5619.55767,0.08323
5621.48614,0.07135
5623.41461,0.07854
5625.34308,0.06768
5627.27155,0.04079
5629.20002,0.03060
5631.12848,0.04333
5633.05695,0.06736
5634.98542,0.09881
5636.91389,0.11732
5638.84236,0.10596
5640.77083,0.08393
5642.69930,0.06652
5644.62777,0.05868
5646.55623,0.06020
5648.48470,0.05664
5650.41317,0.05307
5652.34164,0.06439
5654.27011,0.08250
5656.19858,0.08939
5658.12705,0.07264
5660.05551,0.03924
5661.98398,0.02611
5663.91245,0.04644
5665.84092,0.05875
5667.76939,0.04584
5669.69786,0.03548
5671.62633,0.06198
5673.55480,0.12526
5675.48326,0.16726
5677.41173,0.16229
5679.34020,0.15894
5681.26867,0.16058
5683.19714,0.12541
5685.12561,0.07249
5687.05408,0.04542
5688.98254,0.04430
5690.91101,0.05544
5692.83948,0.05812
5694.76795,0.05328
5696.69642,0.08860
5698.62489,0.14099
5700.55336,0.13405
5702.48183,0.09210
5704.41029,0.06573
5706.33876,0.06463
5708.26723,0.10221
5710.19570,0.14678
5712.12417,0.14498
5714.05264,0.11608
5715.98111,0.10977
5717.90957,0.12650
5719.83804,0.12902
5721.76651,0.10987
5723.69498,0.09095
5725.62345,0.07301
5727.55192,0.05881
5729.48039,0.05060
5731.40886,0.04137
5733.33732,0.05075
5735.26579,0.07305
5737.19426,0.06026
5739.12273,0.03163
5741.05120,0.04148
5742.97967,0.06940
5744.90814,0.07367
5746.83660,0.06453
5748.76507,0.06824
5750.69354,0.07256
5752.62201,0.06890
5754.55048,0.08482
5756.47895,0.10777
5758.40742,0.09650
5760.33588,0.06039
5762.26435,0.04798
5764.19282,0.07012
5766.12129,0.08439
5768.04976,0.08149
5769.97823,0.08518
5771.90670,0.09347
5773.83517,0.09703
5775.76363,0.08663
5777.69210,0.05632
5779.62057,0.03483
5781.54904,0.05174
5783.47751,0.07648
5785.40598,0.06209
5787.33445,0.02380
5789.26291,0.01081
5791.19138,0.03926
5793.11985,0.07941
5795.04832,0.10667
5796.97679,0.12652
5798.90526,0.13209
5800.83373,0.11880
5802.76220,0.10700
5804.69066,0.10972
5806.61913,0.09945
5808.54760,0.06356
5810.47607,0.04172
5812.40454,0.04552
5814.33301,0.05797
5816.26148,0.08060
5818.18994,0.10712
5820.11841,0.13033
5822.04688,0.13529
5823.97535,0.10163
5825.90382,0.06406
5827.83229,0.05979
5829.76076,0.06996
5831.68923,0.06118
5833.61769,0.03461
5835.54616,0.01950
5837.47463,0.02827
5839.40310,0.06358
5841.33157,0.10727
5843.26004,0.11175
5845.18851,0.09118
5847.11697,0.09005
5849.04544,0.09998
5850.97391,0.09069
5852.90238,0.05302
5854.83085,0.01518
5856.75932,0.00647
5858.68779,0.03094
5860.61626,0.07627
5862.54472,0.10008
5864.47319,0.11017
5866.40166,0.14095
5868.33013,0.14336
5870.25860,0.11831
5872.18707,0.12930
5874.11554,0.13771
5876.04400,0.09066
5877.97247,0.04929
5879.90094,0.04516
5881.82941,0.04347
5883.75788,0.06685
5885.68635,0.10097
5887.61482,0.06958
5889.54329,0.02149
5891.47175,0.05309
5893.40022,0.11209
5895.32869,0.12182
5897.25716,0.09847
5899.18563,0.08767
5901.11410,0.09791
5903.04257,0.09595
5904.97103,0.08119
5906.89950,0.10088
5908.82797,0.14819
5910.75644,0.15589
5912.68491,0.11728
5914.61338,0.07529
5916.54185,0.05743
5918.47032,0.08297
5920.39878,0.13767
5922.32725,0.17279
5924.25572,0.16358
5926.18419,0.12814
5928.11266,0.08607
5930.04113,0.04465
5931.96960,0.01256
5933.89806,0.01474
5935.82653,0.06833
5937.75500,0.10316
5939.68347,0.08203
5941.61194,0.06875
5943.54041,0.08980
5945.46888,0.11927
5947.39734,0.14702
5949.32581,0.16430
5951.25428,0.15346
5953.18275,0.12559
5955.11122,0.11347
5957.03969,0.12167
5958.96816,0.13337
5960.89663,0.13207
5962.82509,0.11514
5964.75356,0.11003
5966.68203,0.13297
5968.61050,0.14153
5970.53897,0.11447
5972.46744,0.09582
5974.39591,0.08716
5976.32437,0.06608
5978.25284,0.05678
5980.18131,0.05629
5982.10978,0.05176
5984.03825,0.06061
5985.96672,0.05838
5987.89519,0.03382
5989.82366,0.03021
5991.75212,0.04127
5993.68059,0.04492
5995.60906,0.06815
5997.53753,0.11733
5999.46600,0.14747
6001.39447,0.14175
6003.32294,0.12489
6005.25140,0.11245
6007.17987,0.08779
6009.10834,0.05585
6011.03681,0.05349
6012.96528,0.07867
6014.89375,0.11177
6016.82222,0.13285
6018.75069,0.11634
6020.67915,0.09234
6022.60762,0.09955
6024.53609,0.12194
6026.46456,0.12072
6028.39303,0.08531
6030.32150,0.04601
6032.24997,0.02023
6034.17843,0.02465
6036.10690,0.07364
6038.03537,0.12159
6039.96384,0.10081
6041.89231,0.03462
6043.82078,0.01013
6045.74925,0.02784
6047.67772,0.05630
6049.60618,0.08806
6051.53465,0.08712
6053.46312,0.08280
6055.39159,0.13309
6057.32006,0.15521
6059.24853,0.07319
6061.17700,0.01296
6063.10546,0.05513
6065.03393,0.09898
6066.96240,0.10257
6068.89087,0.10777
6070.81934,0.10219
6072.74781,0.04692
6074.67628,-0.00798
6076.60475,-0.00329
6078.53321,0.01387
6080.46168,0.00256
6082.39015,-0.02195
6084.31862,-0.02751
6086.24709,0.01628
6088.17556,0.08806
6090.10403,0.13975
6092.03249,0.14333
6093.96096,0.08123
6095.88943,0.00698
6097.81790,0.00898
6099.74637,0.05785
6101.67484,0.08027
6103.60331,0.10270
6105.53177,0.15063
6107.46024,0.17670
6109.38871,0.15785
6111.31718,0.13479
6113.24565,0.12775
6115.17412,0.10688
6117.10259,0.06304
6119.03106,0.04387
6120.95952,0.06314
6122.88799,0.06767
6124.81646,0.04845
6126.74493,0.04009
6128.67340,0.04715
6130.60187,0.05558
6132.53034,0.06374
6134.45880,0.06589
6136.38727,0.07103
6138.31574,0.07603
6140.24421,0.07345
6142.17268,0.09802
6144.10115,0.14006
6146.02962,0.14778
6147.95809,0.12848
6149.88655,0.10197
6151.81502,0.06850
6153.74349,0.04796
6155.67196,0.05928
6157.60043,0.08681
6159.52890,0.09942
6161.45737,0.08113
6163.38583,0.05370
6165.31430,0.04032
6167.24277,0.03712
6169.17124,0.02111
6171.09971,-0.00336
6173.02818,0.01720
6174.95665,0.08086
6176.88512,0.11051
6178.81358,0.08784
6180.74205,0.08705
6182.67052,0.12073
6184.59899,0.14764
6186.52746,0.17943
6188.45593,0.20121
6190.38440,0.17887
6192.31286,0.15985
6194.24133,0.16299
6196.16980,0.12126
6198.09827,0.03658
6200.02674,0.01421
6201.95521,0.07937
6203.88368,0.11715
6205.81215,0.05732
6207.74061,0.01145
6209.66908,0.04280
6211.59755,0.07480
6213.52602,0.09201
6215.45449,0.13745
6217.38296,0.15863
6219.31143,0.11142
6221.23989,0.05433
6223.16836,0.02461
6225.09683,0.01116
6227.02530,0.00526
6228.95377,0.01533
6230.88224,0.05315
6232.81071,0.09081
6234.73918,0.11231
6236.66764,0.13410
6238.59611,0.12738
6240.52458,0.08553
6242.45305,0.06039
6244.38152,0.04140
6246.30999,-0.00070
6248.23846,-0.02482
6250.16692,-0.00702
6252.09539,0.01724
6254.02386,0.01046
6255.95233,-0.00036
6257.88080,0.00194
6259.80927,-0.02588
6261.73774,-0.05747
6263.66621,-0.01247
6265.59467,0.06890
6267.52314,0.09544
6269.45161,0.08608
6271.38008,0.04832
6273.30855,-0.00831
6275.23702,-0.01046
6277.16549,0.05532
6279.09395,0.11549
6281.02242,0.10566
6282.95089,0.05490
6284.87936,0.06180
6286.80783,0.12019
6288.73630,0.13918
6290.66477,0.12431
6292.59323,0.13917
6294.52170,0.16897
6296.45017,0.16687
6298.37864,0.14442
6300.30711,0.14502
6302.23558,0.12259
6304.16405,0.02804
6306.09252,-0.05742
6308.02098,-0.05717
6309.94945,0.00151
6311.87792,0.05730
6313.80639,0.08088
6315.73486,0.04913
6317.66333,0.01705
6319.59180,0.06725
6321.52026,0.12594
6323.44873,0.09086
6325.37720,0.01430
6327.30567,-0.01533
6329.23414,0.00942
6331.16261,0.01429
6333.09108,-0.01314
6335.01955,-0.00488
6336.94801,0.03373
6338.87648,0.07536
6340.80495,0.09371
6342.73342,0.06394
6344.66189,0.04437
6346.59036,0.07543
6348.51883,0.10294
6350.44729,0.07549
6352.37576,0.01593
6354.30423,0.00281
6356.23270,0.04217
6358.16117,0.06535
6360.08964,0.06724
6362.01811,0.09202
6363.94658,0.08994
6365.87504,0.00690
6367.80351,-0.06425
6369.73198,-0.03668
6371.66045,0.01870
6373.58892,0.03063
6375.51739,0.03195
6377.44586,0.04841
6379.37432,0.05281
6381.30279,0.03878
6383.23126,0.04407
6385.15973,0.08681
6387.08820,0.13273
6389.01667,0.14990
6390.94514,0.12274
6392.87361,0.07311
6394.80207,0.04385
6396.73054,0.05089
6398.65901,0.07621
6400.58748,0.05305
6402.51595,-0.00403
6404.44442,0.00733
6406.37289,0.06863
6408.30135,0.11444
6410.22982,0.12842
6412.15829,0.09687
6414.08676,0.06347
6416.01523,0.10024
6417.94370,0.17162
6419.87217,0.17480
6421.80064,0.13519
6423.72910,0.09657
6425.65757,0.04036
6427.58604,-0.01584
6429.51451,0.02121
6431.44298,0.15102
6433.37145,0.19965
6435.29992,0.15370
6437.22838,0.08530
6439.15685,0.01677
6441.08532,0.00046
6443.01379,0.02130
6444.94226,0.03270
6446.87073,0.04381
6448.79920,0.05130
6450.72766,0.03601
6452.65613,0.02036
6454.58460,0.02680
6456.51307,0.03720
6458.44154,0.02584
6460.37001,0.01251
6462.29848,0.02843
6464.22695,0.03482
6466.15541,0.02405
6468.08388,0.06771
6470.01235,0.13833
6471.94082,0.15291
6473.86929,0.14085
6475.79776,0.11766
6477.72623,0.08033
6479.65469,0.05854
6481.58316,0.05940
6483.51163,0.10015
6485.44010,0.12254
6487.36857,0.06027
6489.29704,-0.02150
6491.22551,-0.01089
6493.15398,0.07055
6495.08244,0.09685
6497.01091,0.08389
6498.93938,0.07699
6500.86785,0.02944
6502.79632,-0.01033
6504.72479,0.03799
6506.65326,0.09040
6508.58172,0.05354
6510.51019,-0.01490
6512.43866,-0.03233
6514.36713,-0.02269
6516.29560,-0.04976
6518.22407,-0.10550
6520.15254,-0.11927
6522.08101,-0.05712
6524.00947,0.02364
6525.93794,0.03737
6527.86641,0.00464
6529.79488,-0.02894
6531.72335,-0.02951
6533.65182,0.03903
6535.58029,0.10978
6537.50875,0.13443
6539.43722,0.15578
6541.36569,0.11242
6543.29416,-0.02162
6545.22263,-0.05435
6547.15110,0.05735
6549.07957,0.12947
6551.00804,0.06602
6552.93650,0.00904
6554.86497,0.07082
6556.79344,0.14165
6558.72191,0.12865
6560.65038,0.09269
6562.57885,0.06721
6564.50732,0.02324
6566.43578,-0.00225
6568.36425,0.01652
6570.29272,0.06348
6572.22119,0.10058
6574.14966,0.03918
6576.07813,-0.06606
6578.00660,-0.07538
6579.93507,-0.02312
6581.86353,-0.00500
6583.79200,-0.02338
6585.72047,-0.03381
6587.64894,0.01328
6589.57741,0.07745
6591.50588,0.07356
6593.43435,0.04681
6595.36281,0.05283
6597.29128,0.04750
6599.21975,0.03651
6601.14822,0.02140
6603.07669,0.01698
6605.00516,0.06801
6606.93363,0.13347
6608.86210,0.16357
6610.79056,0.18306
6612.71903,0.20713
6614.64750,0.19398
6616.57597,0.14193
6618.50444,0.10316
6620.43291,0.10357
6622.36138,0.14501
6624.28984,0.17927
6626.21831,0.13544
6628.14678,0.02867
6630.07525,-0.00290
6632.00372,0.09460
6633.93219,0.17056
6635.86066,0.13063
6637.78912,0.04691
6639.71759,0.01080
6641.64606,-0.01410
6643.57453,-0.09838
6645.50300,-0.19321
6647.43147,-0.18983
6649.35994,-0.10632
6651.28841,-0.04587
6653.21687,-0.05351
6655.14534,-0.05434
6657.07381,0.00448
6659.00228,0.04917
6660.93075,0.08555
6662.85922,0.11072
6664.78769,0.08558
6666.71615,0.05042
6668.64462,0.01207
6670.57309,-0.04721
6672.50156,-0.12817
6674.43003,-0.15585
6676.35850,-0.02585
6678.28697,0.14847
6680.21544,0.18882
6682.14390,0.15621
6684.07237,0.14433
6686.00084,0.11807
6687.92931,0.08440
6689.85778,0.03624
6691.78625,-0.03992
6693.71472,-0.05971
6695.64318,-0.00775
6697.57165,0.05319
6699.50012,0.08967
6701.42859,0.09177
6703.35706,0.05714
6705.28553,0.04277
6707.21400,0.05021
6709.14247,0.03125
6711.07093,0.04259
6712.99940,0.09293
6714.92787,0.11603
6716.85634,0.12778
6718.78481,0.13332
6720.71328,0.08281
6722.64175,0.05902
6724.57021,0.05576
6726.49868,-0.01880
6728.42715,-0.05266
6730.35562,-0.00855
6732.28409,-0.00001
6734.21256,-0.01209
6736.14103,0.01536
6738.06950,0.05551
6739.99796,0.03879
6741.92643,-0.02382
6743.85490,-0.05527
6745.78337,-0.05361
6747.71184,-0.02903
6749.64031,-0.01101
6751.56878,-0.02110
6753.49724,0.00658
6755.42571,0.07501
6757.35418,0.11976
6759.28265,0.11916
6761.21112,0.03798
6763.13959,-0.04187
6765.06806,-0.00500
6766.99653,0.06531
6768.92499,0.04877
6770.85346,0.00579
6772.78193,0.01426
6774.71040,0.02209
6776.63887,-0.01669
6778.56734,-0.03731
6780.49581,0.03572
6782.42427,0.13843
6784.35274,0.15127
6786.28121,0.13964
6788.20968,0.15838
6790.13815,0.10011
6792.06662,-0.02141
6793.99509,-0.08403
6795.92355,-0.05722
6797.85202,0.01940
6799.78049,0.05733
6801.70896,0.06678
6803.63743,0.11435
6805.56590,0.14065
6807.49437,0.12633
6809.42284,0.09222
6811.35130,0.02022
6813.27977,-0.03567
6815.20824,-0.03192
6817.13671,0.00366
6819.06518,0.05835
6820.99365,0.12979
6822.92212,0.19934
6824.85058,0.27371
6826.77905,0.31004
6828.70752,0.21507
6830.63599,0.08511
6832.56446,0.06965
6834.49293,0.11292
6836.42140,0.11228
6838.34987,0.07540
6840.27833,0.05516
6842.20680,0.03382
6844.13527,0.05515
6846.06374,0.11722
6847.99221,0.09383
6849.92068,0.02779
6851.84915,0.03500
6853.77761,0.02967
6855.70608,0.00324
6857.63455,0.02536
6859.56302,0.03463
6861.49149,-0.00642
6863.41996,-0.04637
6865.34843,-0.02316
6867.27690,0.04568
6869.20536,0.07284
6871.13383,0.07927
6873.06230,0.10749
6874.99077,0.14781
6876.91924,0.19059
6878.84771,0.20541
6880.77618,0.17833
6882.70464,0.09503
6884.63311,-0.02639
6886.56158,-0.08632
6888.49005,-0.00824
6890.41852,0.12782
6892.34699,0.13915
6894.27546,0.01081
6896.20393,-0.08150
6898.13239,-0.05115
6900.06086,0.00752
6901.98933,0.01460
6903.91780,0.01900
6905.84627,0.10249
6907.77474,0.20822
6909.70321,0.22348
6911.63167,0.14714
6913.56014,0.04924
6915.48861,0.00538
6917.41708,0.05020
6919.34555,0.14850
6921.27402,0.18074
6923.20249,0.15609
6925.13096,0.14083
6927.05942,0.05801
6928.98789,-0.09629
6930.91636,-0.12598
6932.84483,0.02312
6934.77330,0.17116
6936.70177,0.24690
6938.63024,0.23004
6940.55870,0.10950
6942.48717,0.00516
6944.41564,-0.02575
6946.34411,0.00109
6948.27258,0.07327
6950.20105,0.09503
6952.12952,0.00921
6954.05799,-0.07831
6955.98645,-0.03288
6957.91492,0.10026
6959.84339,0.20654
6961.77186,0.23792
6963.70033,0.22736
6965.62880,0.18764
6967.55727,0.10456
6969.48573,0.06226
6971.41420,0.08206
6973.34267,0.11411
6975.27114,0.18274
6977.19961,0.21272
6979.12808,0.14355
6981.05655,0.03310
6982.98501,-0.03459
6984.91348,0.01884
6986.84195,0.14298
6988.77042,0.18980
6990.69889,0.14345
6992.62736,0.12106
6994.55583,0.15402
6996.48430,0.14760
6998.41276,0.06947
7000.34123,0.03733
7002.26970,0.09906
7004.19817,0.18680
7006.12664,0.21120
7008.05511,0.18404
7009.98358,0.16690
7011.91204,0.10788
7013.84051,0.00906
7015.76898,-0.05420
7017.69745,-0.08067
7019.62592,-0.05279
7021.55439,-0.00573
7023.48286,-0.02509
7025.41133,-0.06593
7027.33979,-0.06561
7029.26826,-0.06114
7031.19673,-0.04938
7033.12520,-0.00100
7035.05367,0.06725
7036.98214,0.12931
7038.91061,0.14615
7040.83907,0.09858
7042.76754,0.01843
7044.69601,-0.08319
7046.62448,-0.18139
7048.55295,-0.19687
7050.48142,-0.09301
7052.40989,0.06176
7054.33836,0.09983
7056.26682,0.04570
7058.19529,0.05283
7060.12376,0.08915
7062.05223,0.14953
7063.98070,0.23162
7065.90917,0.21784
7067.83764,0.07079
7069.76610,0.00330
7071.69457,0.12525
7073.62304,0.17348
7075.55151,0.13102
7077.47998,0.08730
7079.40845,0.04808
7081.33692,0.02501
7083.26539,0.02871
7085.19385,0.11663
7087.12232,0.19219
7089.05079,0.12958
7090.97926,0.07512
7092.90773,0.09155
7094.83620,0.11079
7096.76467,0.14232
7098.69313,0.12012
7100.62160,0.05116
7102.55007,0.09111
7104.47854,0.14923
7106.40701,0.12478
7108.33548,0.16786
7110.26395,0.26322
7112.19242,0.26517
7114.12088,0.17777
7116.04935,0.10011
7117.97782,0.09487
7119.90629,0.14514
7121.83476,0.15362
7123.76323,0.08453
7125.69170,0.02155
7127.62016,0.04550
7129.54863,0.13933
7131.47710,0.23612
7133.40557,0.24497
7135.33404,0.21829
7137.26251,0.26308
7139.19098,0.31221
7141.11944,0.27486
7143.04791,0.16099
7144.97638,-0.01292
7146.90485,-0.07954
7148.83332,0.05796
7150.76179,0.19710
7152.69026,0.23267
7154.61873,0.24932
7156.54719,0.27317
7158.47566,0.24732
7160.40413,0.14450
7162.33260,0.04064
7164.26107,0.04560
7166.18954,0.16432
7168.11801,0.26322
7170.04647,0.25941
7171.97494,0.16968
7173.90341,0.03297
7175.83188,-0.05985
7177.76035,-0.04943
7179.68882,-0.07026
7181.61729,-0.23802
7183.54576,-0.33941
7185.47422,-0.18142
7187.40269,-0.09364
7189.33116,-0.11752
7191.25963,0.07253
7193.18810,0.28940
7195.11657,0.21656
7197.04504,0.09193
7198.97350,0.12563
7200.90197,0.18361
7202.83044,0.15974
7204.75891,0.07839
7206.68738,-0.03704
7208.61585,-0.10872
7210.54432,-0.04554
7212.47279,0.11595
7214.40125,0.20565
7216.32972,0.16447
7218.25819,0.19264
7220.18666,0.26759
7222.11513,0.21215
7224.04360,0.12177
7225.97207,0.10522
7227.90053,0.16718
7229.82900,0.26220
7231.75747,0.27236
7233.68594,0.12848
7235.61441,-0.01337
7237.54288,-0.03120
7239.47135,0.01330
7241.39982,-0.02414
7243.32828,-0.12991
7245.25675,-0.11825
7247.18522,0.05791
7249.11369,0.25797
7251.04216,0.25325
7252.97063,0.05272
7254.89910,0.03977
7256.82756,0.19738
7258.75603,0.28715
7260.68450,0.15607
7262.61297,-0.02028
7264.54144,0.05839
7266.46991,0.13232
7268.39838,0.08257
7270.32685,0.16083
7272.25531,0.35272
7274.18378,0.31275
7276.11225,0.13957
7278.04072,0.05741
7279.96919,0.11882
7281.89766,0.17406
7283.82613,0.13281
7285.75459,0.14145
7287.68306,0.29442
7289.61153,0.44312
7291.54000,0.39273
7293.46847,0.29970
7295.39694,0.32955
7297.32541,0.32172
7299.25387,0.19042
7301.18234,0.12089
7303.11081,0.18563
7305.03928,0.15721
7306.96775,-0.03543
7308.89622,-0.17932
7310.82469,-0.13029
7312.75316,-0.02336
7314.68162,0.04848
7316.61009,0.10823
7318.53856,0.11820
7320.46703,0.10366
7322.39550,0.07786
7324.32397,0.03387
7326.25244,0.06552
7328.18090,0.12527
7330.10937,0.10479
7332.03784,0.07953
7333.96631,0.10011
7335.89478,0.14024
7337.82325,0.16192
7339.75172,0.10925
7341.68019,0.01899
7343.60865,-0.04265
7345.53712,-0.06604
7347.46559,-0.00345
7349.39406,0.16178
7351.32253,0.36699
7353.25100,0.46758
7355.17947,0.44461
7357.10793,0.30808
7359.03640,0.05889
7360.96487,-0.07632
7362.89334,-0.01479
7364.82181,0.12992
7366.75028,0.27530
7368.67875,0.28830
7370.60722,0.18962
7372.53568,0.19737
7374.46415,0.28082
7376.39262,0.14464
7378.32109,-0.03951
7380.24956,-0.01487
7382.17803,0.09959
7384.10650,0.03982
7386.03496,-0.07329
7387.96343,-0.03692
7389.89190,-0.01019
7391.82037,-0.02897
7393.74884,-0.08078
7395.67731,-0.11446
7397.60578,0.04517
7399.53425,0.22563
7401.46271,0.28878
7403.39118,0.33511
7405.31965,0.38869
7407.24812,0.43037
7409.17659,0.37284
7411.10506,0.17753
7413.03353,-0.05170
7414.96199,-0.25637
7416.89046,-0.35608
7418.81893,-0.22903
7420.74740,0.01105
7422.67587,0.11066
7424.60434,0.06619
7426.53281,-0.07428
7428.46128,-0.26637
7430.38974,-0.36293
7432.31821,-0.24717
7434.24668,-0.10485
7436.17515,-0.11085
7438.10362,-0.15732
7440.03209,-0.16010
7441.96056,-0.12869
7443.88902,-0.04472
7445.81749,-0.03589
7447.74596,-0.05737
7449.67443,0.04511
7451.60290,0.17772
7453.53137,0.20695
7455.45984,0.22374
7457.38831,0.23200
7459.31677,0.15940
7461.24524,-0.01781
7463.17371,-0.21203
7465.10218,-0.21768
7467.03065,-0.03321
7468.95912,0.14856
7470.88759,0.30267
7472.81605,0.34191
7474.74452,0.28324
7476.67299,0.20002
7478.60146,0.05687
7480.52993,-0.01923
7482.45840,0.03899
7484.38687,0.00523
7486.31533,-0.10645
7488.24380,-0.11521
7490.17227,-0.05569
7492.10074,-0.03254
7494.02921,-0.01613
7495.95768,-0.02425
7497.88615,-0.07047
