399.19301,2.02883
401.12148,0.47853
403.04995,0.17695
404.97842,0.01680
406.90689,-0.01199
408.83536,0.02456
410.76382,0.01173
412.69229,-0.03962
414.62076,0.01222
416.54923,0.04023
418.47770,-0.04483
420.40617,-0.01678
422.33464,0.09252
424.26311,0.13656
426.19157,0.14868
428.12004,0.17995
430.04851,0.19173
431.97698,0.14212
433.90545,0.07029
435.83392,0.03132
437.76239,0.05263
439.69085,0.10434
441.61932,0.13399
443.54779,0.11869
445.47626,0.10452
447.40473,0.14390
449.33320,0.18563
451.26167,0.15830
453.19013,0.11345
455.11860,0.10496
457.04707,0.08544
458.97554,0.06881
460.90401,0.10526
462.83248,0.13860
464.76095,0.12411
466.68942,0.10735
468.61788,0.13649
470.54635,0.15914
472.47482,0.06799
474.40329,-0.11111
476.33176,-0.10128
478.26023,-0.01435
480.18870,0.01866
482.11716,0.03448
484.04563,0.08196
485.97410,0.15833
487.90257,0.23131
489.83104,0.24665
491.75951,0.21107
493.68798,0.19240
495.61645,0.17701
497.54491,0.11470
499.47338,0.05789
501.40185,0.05191
503.33032,0.06717
505.25879,0.05981
507.18726,0.01856
509.11573,-0.01171
511.04419,0.01747
512.97266,0.08112
514.90113,0.12502
516.82960,0.13568
518.75807,0.10568
520.68654,0.06013
522.61501,0.04933
524.54348,0.07635
526.47194,0.10263
528.40041,0.10911
530.32888,0.12427
532.25735,0.13626
534.18582,0.11806
536.11429,0.08922
538.04276,0.06939
539.97122,0.07662
541.89969,0.10962
543.82816,0.13339
545.75663,0.14673
547.68510,0.16290
549.61357,0.26291
551.54204,0.67436
553.47051,1.11899
555.39897,0.93770
557.32744,0.35200
559.25591,0.04774
561.18438,0.03498
563.11285,0.10986
565.04132,0.18688
566.96979,0.20630
568.89825,0.18323
570.82672,0.16221
572.75519,0.16120
574.68366,0.15936
576.61213,0.14464
578.54060,0.14297
580.46907,0.15029
582.39754,0.13699
584.32600,0.11993
586.25447,0.11779
588.18294,0.12501
590.11141,0.14217
592.03988,0.14381
593.96835,0.11451
595.89682,0.09309
597.82528,0.10380
599.75375,0.12108
601.68222,0.11874
603.61069,0.11277
605.53916,0.12480
607.46763,0.15092
609.39610,0.16830
611.32456,0.15920
613.25303,0.13938
615.18150,0.12983
617.10997,0.13319
619.03844,0.13939
620.96691,0.13782
622.89538,0.12731
624.82385,0.11407
626.75231,0.12161
628.68078,0.14519
630.60925,0.14967
632.53772,0.13451
634.46619,0.11912
636.39466,0.12069
638.32313,0.14217
640.25159,0.16075
642.18006,0.16399
644.10853,0.16343
646.03700,0.15306
647.96547,0.12460
649.89394,0.09418
651.82241,0.07697
653.75088,0.07789
655.67934,0.10030
657.60781,0.12910
659.53628,0.13184
661.46475,0.11205
663.39322,0.10029
665.32169,0.10381
667.25016,0.12021
669.17862,0.14644
671.10709,0.16305
673.03556,0.16427
674.96403,0.15443
676.89250,0.14053
678.82097,0.12952
680.74944,0.13028
682.67791,0.13531
684.60637,0.13308
686.53484,0.13206
688.46331,0.13119
690.39178,0.11947
692.32025,0.11537
694.24872,0.12518
696.17719,0.13006
698.10565,0.12804
700.03412,0.12269
701.96259,0.12648
703.89106,0.14298
705.81953,0.14940
707.74800,0.14167
709.67647,0.12477
711.60494,0.10575
713.53340,0.10785
715.46187,0.12744
717.39034,0.14430
719.31881,0.15560
721.24728,0.15670
723.17575,0.14697
725.10422,0.13989
727.03268,0.13908
728.96115,0.13210
730.88962,0.12032
732.81809,0.11866
734.74656,0.12570
736.67503,0.13055
738.60350,0.13134
740.53197,0.13074
742.46043,0.13007
744.38890,0.13349
746.31737,0.13917
748.24584,0.14089
750.17431,0.14284
752.10278,0.14347
754.03125,0.14033
755.95971,0.14332
757.88818,0.14915
759.81665,0.14646
761.74512,0.14359
763.67359,0.14856
765.60206,0.15143
767.53053,0.14769
769.45900,0.14703
771.38746,0.15478
773.31593,0.15835
775.24440,0.15063
777.17287,0.14368
779.10134,0.14440
781.02981,0.15408
782.95828,0.16207
784.88674,0.15390
786.81521,0.14440
788.74368,0.14786
790.67215,0.15116
792.60062,0.14114
794.52909,0.12922
796.45756,0.13771
798.38602,0.15624
800.31449,0.15811
802.24296,0.14613
804.17143,0.14192
806.09990,0.15068
808.02837,0.15787
809.95684,0.15359
811.88531,0.14700
813.81377,0.14719
815.74224,0.15330
817.67071,0.15544
819.59918,0.14448
821.52765,0.13474
823.45612,0.14143
825.38459,0.15275
827.31305,0.15683
829.24152,0.15904
831.16999,0.15849
833.09846,0.15383
835.02693,0.15501
836.95540,0.15441
838.88387,0.14180
840.81234,0.13386
842.74080,0.14175
844.66927,0.15459
846.59774,0.15988
848.52621,0.15066
850.45468,0.13105
852.38315,0.11997
854.31162,0.12336
856.24008,0.13159
858.16855,0.14307
860.09702,0.15114
862.02549,0.14432
863.95396,0.13339
865.88243,0.13305
867.81090,0.13981
869.73937,0.14850
871.66783,0.15707
873.59630,0.16011
875.52477,0.15697
877.45324,0.15400
879.38171,0.14887
881.31018,0.14332
883.23865,0.14869
885.16711,0.15709
887.09558,0.15621
889.02405,0.15178
890.95252,0.15335
892.88099,0.15638
894.80946,0.15054
896.73793,0.14175
898.66640,0.13772
900.59486,0.13709
902.52333,0.13887
904.45180,0.14223
906.38027,0.14191
908.30874,0.13583
910.23721,0.13423
912.16568,0.13892
914.09414,0.14009
916.02261,0.13767
917.95108,0.13953
919.87955,0.14850
921.80802,0.15782
923.73649,0.15864
925.66496,0.15215
927.59343,0.14743
929.52189,0.14502
931.45036,0.14314
933.37883,0.14568
935.30730,0.14620
937.23577,0.14043
939.16424,0.13984
941.09271,0.14769
943.02117,0.15371
944.94964,0.15569
946.87811,0.15434
948.80658,0.14412
950.73505,0.13307
952.66352,0.13500
954.59199,0.14262
956.52045,0.14124
958.44892,0.13562
960.37739,0.13485
962.30586,0.13643
964.23433,0.13859
966.16280,0.14290
968.09127,0.14898
970.01974,0.15507
971.94820,0.15635
973.87667,0.15201
975.80514,0.15108
977.73361,0.15873
979.66208,0.16345
981.59055,0.15521
983.51902,0.14598
985.44748,0.14656
987.37595,0.15087
989.30442,0.15398
991.23289,0.15539
993.16136,0.15744
995.08983,0.16251
997.01830,0.16368
998.94677,0.15966
1000.87523,0.16005
1002.80370,0.16321
1004.73217,0.15986
1006.66064,0.15512
1008.58911,0.15556
1010.51758,0.15500
1012.44605,0.15282
1014.37451,0.15300
1016.30298,0.15142
1018.23145,0.14969
1020.15992,0.15363
1022.08839,0.15931
1024.01686,0.16336
1025.94533,0.16335
1027.87380,0.15771
1029.80226,0.14960
1031.73073,0.13655
1033.65920,0.12671
1035.58767,0.13482
1037.51614,0.14999
1039.44461,0.15725
1041.37308,0.15864
1043.30154,0.15804
1045.23001,0.15802
1047.15848,0.15481
1049.08695,0.14814
1051.01542,0.14707
1052.94389,0.15046
1054.87236,0.15566
1056.80083,0.16166
1058.72929,0.16495
1060.65776,0.16430
1062.58623,0.15703
1064.51470,0.15135
1066.44317,0.15868
1068.37164,0.17418
1070.30011,0.18316
1072.22857,0.17848
1074.15704,0.16983
1076.08551,0.16395
1078.01398,0.15837
1079.94245,0.15784
1081.87092,0.16498
1083.79939,0.16621
1085.72786,0.15843
1087.65632,0.15651
1089.58479,0.15835
1091.51326,0.15559
1093.44173,0.15634
1095.37020,0.15991
1097.29867,0.15617
1099.22714,0.15141
1101.15560,0.15403
1103.08407,0.16280
1105.01254,0.17049
1106.94101,0.16885
1108.86948,0.16301
1110.79795,0.16545
1112.72642,0.17698
1114.65489,0.18350
1116.58335,0.17996
1118.51182,0.17678
1120.44029,0.17352
1122.36876,0.16593
1124.29723,0.16220
1126.22570,0.16719
1128.15417,0.17186
1130.08263,0.16647
1132.01110,0.15454
1133.93957,0.14780
1135.86804,0.14835
1137.79651,0.14879
1139.72498,0.14954
1141.65345,0.15355
1143.58191,0.15919
1145.51038,0.16586
1147.43885,0.17127
1149.36732,0.17279
1151.29579,0.17271
1153.22426,0.17359
1155.15273,0.17332
1157.08120,0.17416
1159.00966,0.18101
1160.93813,0.18423
1162.86660,0.17615
1164.79507,0.16839
1166.72354,0.16566
1168.65201,0.16149
1170.58048,0.16111
1172.50894,0.16759
1174.43741,0.17026
1176.36588,0.16745
1178.29435,0.16702
1180.22282,0.16712
1182.15129,0.16553
1184.07976,0.16755
1186.00823,0.16858
1187.93669,0.16319
1189.86516,0.16032
1191.79363,0.16411
1193.72210,0.16833
1195.65057,0.16880
1197.57904,0.16716
1199.50751,0.16463
1201.43597,0.16120
1203.36444,0.16270
1205.29291,0.16957
1207.22138,0.17320
1209.14985,0.17307
1211.07832,0.17519
1213.00679,0.17805
1214.93526,0.17683
1216.86372,0.17196
1218.79219,0.16679
1220.72066,0.16523
1222.64913,0.16719
1224.57760,0.16642
1226.50607,0.16101
1228.43454,0.15783
1230.36300,0.16183
1232.29147,0.16930
1234.21994,0.17149
1236.14841,0.16549
1238.07688,0.15916
1240.00535,0.15794
1241.93382,0.15921
1243.86229,0.16039
1245.79075,0.16046
1247.71922,0.15994
1249.64769,0.15957
1251.57616,0.15757
1253.50463,0.15718
1255.43310,0.16248
1257.36157,0.16656
1259.29003,0.16660
1261.21850,0.16837
1263.14697,0.16979
1265.07544,0.16828
1267.00391,0.16720
1268.93238,0.16884
1270.86085,0.17359
1272.78932,0.17707
1274.71778,0.17547
1276.64625,0.17184
1278.57472,0.16832
1280.50319,0.16536
1282.43166,0.16509
1284.36013,0.16669
1286.28860,0.16659
1288.21706,0.16507
1290.14553,0.16680
1292.07400,0.17202
1294.00247,0.17421
1295.93094,0.17093
1297.85941,0.16540
1299.78788,0.15621
1301.71634,0.14122
1303.64481,0.12921
1305.57328,0.13305
1307.50175,0.15154
1309.43022,0.16723
1311.35869,0.17053
1313.28716,0.16985
1315.21563,0.17202
1317.14409,0.17473
1319.07256,0.17303
1321.00103,0.16713
1322.92950,0.16363
1324.85797,0.16427
1326.78644,0.16673
1328.71491,0.16827
1330.64337,0.16393
1332.57184,0.15709
1334.50031,0.15577
1336.42878,0.16027
1338.35725,0.16879
1340.28572,0.17111
1342.21419,0.16578
1344.14266,0.16762
1346.07112,0.17009
1347.99959,0.16488
1349.92806,0.16179
1351.85653,0.16276
1353.78500,0.16335
1355.71347,0.16417
1357.64194,0.16664
1359.57040,0.17216
1361.49887,0.17912
1363.42734,0.17837
1365.35581,0.17106
1367.28428,0.16920
1369.21275,0.17242
1371.14122,0.17707
1373.06969,0.18251
1374.99815,0.18184
1376.92662,0.17677
1378.85509,0.17653
1380.78356,0.17957
1382.71203,0.18305
1384.64050,0.18732
1386.56897,0.18825
1388.49743,0.18248
1390.42590,0.17804
1392.35437,0.18077
1394.28284,0.18888
1396.21131,0.19493
1398.13978,0.19142
1400.06825,0.18061
1401.99672,0.17372
1403.92518,0.17566
1405.85365,0.17885
1407.78212,0.17573
1409.71059,0.17257
1411.63906,0.17604
1413.56753,0.18419
1415.49600,0.19418
1417.42446,0.20404
1419.35293,0.20455
1421.28140,0.19841
1423.20987,0.19683
1425.13834,0.19423
1427.06681,0.18926
1428.99528,0.18689
1430.92375,0.18513
1432.85221,0.18501
1434.78068,0.19003
1436.70915,0.19352
1438.63762,0.18885
1440.56609,0.18351
1442.49456,0.18083
1444.42303,0.18225
1446.35149,0.18861
1448.27996,0.19343
1450.20843,0.19086
1452.13690,0.18951
1454.06537,0.19790
1455.99384,0.21619
1457.92231,0.22409
1459.85077,0.20928
1461.77924,0.19660
1463.70771,0.18949
1465.63618,0.18481
1467.56465,0.18311
1469.49312,0.18885
1471.42159,0.20492
1473.35006,0.21609
1475.27852,0.20663
1477.20699,0.19675
1479.13546,0.19558
1481.06393,0.19672
1482.99240,0.19766
1484.92087,0.20350
1486.84934,0.21285
1488.77780,0.21558
1490.70627,0.20602
1492.63474,0.19911
1494.56321,0.20363
1496.49168,0.21071
1498.42015,0.20526
1500.34862,0.19712
1502.27709,0.20199
1504.20555,0.22205
1506.13402,0.24884
1508.06249,0.24139
1509.99096,0.21894
1511.91943,0.20890
1513.84790,0.20838
1515.77637,0.21415
1517.70483,0.21822
1519.63330,0.22136
1521.56177,0.22710
1523.49024,0.22392
1525.41871,0.21513
1527.34718,0.20590
1529.27565,0.19846
1531.20412,0.19897
1533.13258,0.20564
1535.06105,0.20811
1536.98952,0.21514
1538.91799,0.24283
1540.84646,0.26506
1542.77493,0.24184
1544.70340,0.21603
1546.63186,0.20235
1548.56033,0.20087
1550.48880,0.20295
1552.41727,0.20322
1554.34574,0.20916
1556.27421,0.22851
1558.20268,0.25478
1560.13115,0.23441
1562.05961,0.20764
1563.98808,0.20007
1565.91655,0.19758
1567.84502,0.19866
1569.77349,0.20214
1571.70196,0.19729
1573.63043,0.19081
1575.55889,0.19025
1577.48736,0.18745
1579.41583,0.18054
1581.34430,0.17665
1583.27277,0.17638
1585.20124,0.17919
1587.12971,0.18295
1589.05818,0.18453
1590.98664,0.18459
1592.91511,0.18546
1594.84358,0.18536
1596.77205,0.18196
1598.70052,0.17869
1600.62899,0.17925
1602.55746,0.18324
1604.48592,0.18680
1606.41439,0.18756
1608.34286,0.18680
1610.27133,0.18503
1612.19980,0.18575
1614.12827,0.19287
1616.05674,0.20123
1617.98521,0.19686
1619.91367,0.18978
1621.84214,0.19207
1623.77061,0.19683
1625.69908,0.19982
1627.62755,0.20466
1629.55602,0.20528
1631.48449,0.20327
1633.41295,0.20924
1635.34142,0.22607
1637.26989,0.22698
1639.19836,0.21030
1641.12683,0.19958
1643.05530,0.20121
1644.98377,0.21396
1646.91223,0.22486
1648.84070,0.22197
1650.76917,0.22925
1652.69764,0.25285
1654.62611,0.24195
1656.55458,0.21476
1658.48305,0.21092
1660.41152,0.23612
1662.33998,0.25602
1664.26845,0.22886
1666.19692,0.20494
1668.12539,0.21232
1670.05386,0.22290
1671.98233,0.21765
1673.91080,0.21267
1675.83926,0.20991
1677.76773,0.20715
1679.69620,0.21032
1681.62467,0.22284
1683.55314,0.23779
1685.48161,0.23155
1687.41008,0.21713
1689.33855,0.21063
1691.26701,0.21016
1693.19548,0.21536
1695.12395,0.22584
1697.05242,0.23457
1698.98089,0.23494
1700.90936,0.22389
1702.83783,0.21386
1704.76629,0.21186
1706.69476,0.20579
1708.62323,0.19579
1710.55170,0.19270
1712.48017,0.19826
1714.40864,0.21189
1716.33711,0.22597
1718.26558,0.21895
1720.19404,0.20269
1722.12251,0.19510
1724.05098,0.19129
1725.97945,0.18753
1727.90792,0.19020
1729.83639,0.20039
1731.76486,0.20942
1733.69332,0.21207
1735.62179,0.20643
1737.55026,0.20268
1739.47873,0.20610
1741.40720,0.20886
1743.33567,0.20589
1745.26414,0.20619
1747.19261,0.21371
1749.12107,0.21910
1751.04954,0.21193
1752.97801,0.20153
1754.90648,0.19856
1756.83495,0.19902
1758.76342,0.19774
1760.69189,0.19710
1762.62035,0.19380
1764.54882,0.18746
1766.47729,0.18821
1768.40576,0.19746
1770.33423,0.20900
1772.26270,0.21359
1774.19117,0.20512
1776.11964,0.19722
1778.04810,0.19707
1779.97657,0.19998
1781.90504,0.19870
1783.83351,0.19573
1785.76198,0.19633
1787.69045,0.19954
1789.61892,0.20436
1791.54738,0.20853
1793.47585,0.20666
1795.40432,0.20125
1797.33279,0.19804
1799.26126,0.19812
1801.18973,0.19798
1803.11820,0.19533
1805.04666,0.19425
1806.97513,0.19499
1808.90360,0.19551
1810.83207,0.19612
1812.76054,0.19304
1814.68901,0.18713
1816.61748,0.18157
1818.54595,0.17358
1820.47441,0.16684
1822.40288,0.17112
1824.33135,0.18446
1826.25982,0.19457
1828.18829,0.20102
1830.11676,0.20468
1832.04523,0.20110
1833.97369,0.19619
1835.90216,0.19271
1837.83063,0.19065
1839.75910,0.19168
1841.68757,0.19654
1843.61604,0.20245
1845.54451,0.20193
1847.47298,0.19593
1849.40144,0.19075
1851.32991,0.18776
1853.25838,0.18556
1855.18685,0.18514
1857.11532,0.18722
1859.04379,0.18865
1860.97226,0.18771
1862.90072,0.18648
1864.82919,0.18901
1866.75766,0.19720
1868.68613,0.20281
1870.61460,0.19640
1872.54307,0.18777
1874.47154,0.18557
1876.40001,0.18827
1878.32847,0.19029
1880.25694,0.18958
1882.18541,0.18920
1884.11388,0.19061
1886.04235,0.19140
1887.97082,0.19122
1889.89929,0.19224
1891.82775,0.19323
1893.75622,0.19249
1895.68469,0.19171
1897.61316,0.19313
1899.54163,0.19424
1901.47010,0.19166
1903.39857,0.18832
1905.32704,0.18859
1907.25550,0.19175
1909.18397,0.19265
1911.11244,0.18942
1913.04091,0.18744
1914.96938,0.19034
1916.89785,0.19543
1918.82632,0.19687
1920.75478,0.19563
1922.68325,0.19492
1924.61172,0.19297
1926.54019,0.19071
1928.46866,0.18912
1930.39713,0.18780
1932.32560,0.18747
1934.25407,0.18746
1936.18253,0.18820
1938.11100,0.19018
1940.03947,0.19277
1941.96794,0.19435
1943.89641,0.19220
1945.82488,0.18944
1947.75335,0.18913
1949.68181,0.18972
1951.61028,0.18966
1953.53875,0.18776
1955.46722,0.18567
1957.39569,0.18677
1959.32416,0.18966
1961.25263,0.19082
1963.18110,0.19152
1965.10956,0.19438
1967.03803,0.19638
1968.96650,0.19424
1970.89497,0.19115
1972.82344,0.19025
1974.75191,0.19059
1976.68038,0.19039
1978.60884,0.18963
1980.53731,0.18918
1982.46578,0.18873
1984.39425,0.18981
1986.32272,0.19333
1988.25119,0.19648
1990.17966,0.19876
1992.10812,0.19986
1994.03659,0.19749
1995.96506,0.19398
1997.89353,0.19322
1999.82200,0.19365
2001.75047,0.19211
2003.67894,0.18973
2005.60741,0.18911
2007.53587,0.19122
2009.46434,0.19294
2011.39281,0.19137
2013.32128,0.19000
2015.24975,0.19170
2017.17822,0.19270
2019.10669,0.19071
2021.03515,0.18999
2022.96362,0.19120
2024.89209,0.18970
2026.82056,0.18543
2028.74903,0.18293
2030.67750,0.18508
2032.60597,0.19078
2034.53444,0.19435
2036.46290,0.19238
2038.39137,0.18959
2040.31984,0.19011
2042.24831,0.19207
2044.17678,0.19293
2046.10525,0.19202
2048.03372,0.19053
2049.96218,0.19016
2051.89065,0.19069
2053.81912,0.19186
2055.74759,0.19318
2057.67606,0.19339
2059.60453,0.19302
2061.53300,0.19274
2063.46147,0.19181
2065.38993,0.18993
2067.31840,0.18937
2069.24687,0.19073
2071.17534,0.19088
2073.10381,0.18825
2075.03228,0.18475
2076.96075,0.18333
2078.88921,0.18441
2080.81768,0.18709
2082.74615,0.18934
2084.67462,0.18987
2086.60309,0.19043
2088.53156,0.19079
2090.46003,0.19007
2092.38850,0.18830
2094.31696,0.18607
2096.24543,0.18673
2098.17390,0.19055
2100.10237,0.19241
2102.03084,0.19197
2103.95931,0.19290
2105.88778,0.19423
2107.81624,0.19562
2109.74471,0.19704
2111.67318,0.19554
2113.60165,0.19207
2115.53012,0.18946
2117.45859,0.18805
2119.38706,0.18857
2121.31553,0.19117
2123.24399,0.19262
2125.17246,0.19131
2127.10093,0.18954
2129.02940,0.18946
2130.95787,0.19046
2132.88634,0.19128
2134.81481,0.19435
2136.74327,0.19982
2138.67174,0.20140
2140.60021,0.19753
2142.52868,0.19385
2144.45715,0.19256
2146.38562,0.19124
2148.31409,0.18905
2150.24255,0.18670
2152.17102,0.18619
2154.09949,0.18939
2156.02796,0.19334
2157.95643,0.19479
2159.88490,0.19517
2161.81337,0.19466
2163.74184,0.19301
2165.67030,0.19215
2167.59877,0.19254
2169.52724,0.19360
2171.45571,0.19432
2173.38418,0.19445
2175.31265,0.19526
2177.24112,0.19716
2179.16958,0.19838
2181.09805,0.19676
2183.02652,0.19266
2184.95499,0.18965
2186.88346,0.19086
2188.81193,0.19442
2190.74040,0.19693
2192.66887,0.19858
2194.59733,0.20058
2196.52580,0.20031
2198.45427,0.19674
2200.38274,0.19420
2202.31121,0.19273
2204.23968,0.19029
2206.16815,0.18933
2208.09661,0.19146
2210.02508,0.19350
2211.95355,0.19257
2213.88202,0.19077
2215.81049,0.18852
2217.73896,0.18621
2219.66743,0.18810
2221.59590,0.19234
2223.52436,0.19344
2225.45283,0.19179
2227.38130,0.19077
2229.30977,0.19215
2231.23824,0.19441
2233.16671,0.19422
2235.09518,0.19135
2237.02364,0.18945
2238.95211,0.19085
2240.88058,0.19253
2242.80905,0.19160
2244.73752,0.19013
2246.66599,0.18973
2248.59446,0.18989
2250.52293,0.19059
2252.45139,0.19092
2254.37986,0.18964
2256.30833,0.18851
2258.23680,0.19057
2260.16527,0.19387
2262.09374,0.19413
2264.02221,0.19225
2265.95067,0.19196
2267.87914,0.19369
2269.80761,0.19545
2271.73608,0.19645
2273.66455,0.19613
2275.59302,0.19479
2277.52149,0.19402
2279.44996,0.19307
2281.37842,0.19160
2283.30689,0.19138
2285.23536,0.19187
2287.16383,0.19137
2289.09230,0.18948
2291.02077,0.18931
2292.94924,0.19652
2294.87770,0.20651
2296.80617,0.20738
2298.73464,0.20145
2300.66311,0.19755
2302.59158,0.19484
2304.52005,0.19377
2306.44852,0.19658
2308.37699,0.19768
2310.30545,0.19550
2312.23392,0.19660
2314.16239,0.20124
2316.09086,0.20650
2318.01933,0.21002
2319.94780,0.20547
2321.87627,0.19660
2323.80473,0.19446
2325.73320,0.19381
2327.66167,0.19069
2329.59014,0.19486
2331.51861,0.20584
2333.44708,0.21276
2335.37555,0.21110
2337.30401,0.20433
2339.23248,0.20130
2341.16095,0.20588
2343.08942,0.20809
2345.01789,0.20140
2346.94636,0.19490
2348.87483,0.19376
2350.80330,0.19695
2352.73176,0.19791
2354.66023,0.19486
2356.58870,0.20780
2358.51717,0.22448
2360.44564,0.22091
2362.37411,0.21441
2364.30258,0.20709
2366.23104,0.19379
2368.15951,0.18410
2370.08798,0.18523
2372.01645,0.19237
2373.94492,0.19753
2375.87339,0.19872
2377.80186,0.19847
2379.73033,0.19813
2381.65879,0.19583
2383.58726,0.19218
2385.51573,0.19183
2387.44420,0.19470
2389.37267,0.19511
2391.30114,0.19252
2393.22961,0.19071
2395.15807,0.18984
2397.08654,0.18924
2399.01501,0.19043
2400.94348,0.19254
2402.87195,0.19302
2404.80042,0.19278
2406.72889,0.19334
2408.65736,0.19388
2410.58582,0.19358
2412.51429,0.19268
2414.44276,0.19129
2416.37123,0.18857
2418.29970,0.18610
2420.22817,0.18710
2422.15664,0.19027
2424.08510,0.19223
2426.01357,0.19312
2427.94204,0.19375
2429.87051,0.19311
2431.79898,0.19147
2433.72745,0.19072
2435.65592,0.19130
2437.58439,0.19103
2439.51285,0.18948
2441.44132,0.18973
2443.36979,0.19221
2445.29826,0.19482
2447.22673,0.19575
2449.15520,0.19425
2451.08367,0.19319
2453.01213,0.19373
2454.94060,0.19280
2456.86907,0.18993
2458.79754,0.18804
2460.72601,0.18913
2462.65448,0.19228
2464.58295,0.19386
2466.51142,0.19245
2468.43988,0.19061
2470.36835,0.18929
2472.29682,0.18769
2474.22529,0.18870
2476.15376,0.19335
2478.08223,0.19493
2480.01070,0.19147
2481.93916,0.18945
2483.86763,0.19031
2485.79610,0.19063
2487.72457,0.19034
2489.65304,0.19093
2491.58151,0.19064
2493.50998,0.18909
2495.43844,0.18923
2497.36691,0.18979
2499.29538,0.19000
2501.22385,0.19133
2503.15232,0.19143
2505.08079,0.19109
2507.00926,0.19305
2508.93773,0.19513
2510.86619,0.19500
2512.79466,0.19289
2514.72313,0.19050
2516.65160,0.18999
2518.58007,0.19137
2520.50854,0.19123
2522.43701,0.18948
2524.36547,0.19155
2526.29394,0.19660
2528.22241,0.19845
2530.15088,0.19715
2532.07935,0.19583
2534.00782,0.19345
2535.93629,0.18992
2537.86476,0.18955
2539.79322,0.19297
2541.72169,0.19730
2543.65016,0.20058
2545.57863,0.20078
2547.50710,0.19876
2549.43557,0.19643
2551.36404,0.19359
2553.29250,0.19097
2555.22097,0.18979
2557.14944,0.19031
2559.07791,0.19049
2561.00638,0.18921
2562.93485,0.19026
2564.86332,0.19380
2566.79179,0.19461
2568.72025,0.19160
2570.64872,0.18910
2572.57719,0.19074
2574.50566,0.19420
2576.43413,0.19551
2578.36260,0.19557
2580.29107,0.19658
2582.21953,0.19799
2584.14800,0.19819
2586.07647,0.19701
2588.00494,0.19554
2589.93341,0.19401
2591.86188,0.19300
2593.79035,0.19560
2595.71882,0.20036
2597.64728,0.19957
2599.57575,0.19379
2601.50422,0.19099
2603.43269,0.19283
2605.36116,0.19672
2607.28963,0.20118
2609.21810,0.20429
2611.14656,0.20345
2613.07503,0.19880
2615.00350,0.19485
2616.93197,0.19454
2618.86044,0.19548
2620.78891,0.19488
2622.71738,0.19228
2624.64585,0.18921
2626.57431,0.18794
2628.50278,0.18980
2630.43125,0.19331
2632.35972,0.19454
2634.28819,0.19457
2636.21666,0.19611
2638.14513,0.19746
2640.07359,0.19780
2642.00206,0.19772
2643.93053,0.19793
2645.85900,0.19831
2647.78747,0.19803
2649.71594,0.19822
2651.64441,0.19874
2653.57288,0.19791
2655.50134,0.19783
2657.42981,0.20038
2659.35828,0.20284
2661.28675,0.20337
2663.21522,0.20313
2665.14369,0.20209
2667.07216,0.19815
2669.00062,0.19355
2670.92909,0.19308
2672.85756,0.19556
2674.78603,0.19835
2676.71450,0.20009
2678.64297,0.20035
2680.57144,0.20137
2682.49990,0.20263
2684.42837,0.20161
2686.35684,0.20079
2688.28531,0.20149
2690.21378,0.19959
2692.14225,0.19639
2694.07072,0.19630
2695.99919,0.19730
2697.92765,0.19728
2699.85612,0.19836
2701.78459,0.20028
2703.71306,0.20007
2705.64153,0.19808
2707.57000,0.19747
2709.49847,0.19901
2711.42693,0.20021
2713.35540,0.20010
2715.28387,0.20108
2717.21234,0.20403
2719.14081,0.20655
2721.06928,0.20653
2722.99775,0.20469
2724.92622,0.20232
2726.85468,0.19951
2728.78315,0.19702
2730.71162,0.19637
2732.64009,0.19783
2734.56856,0.20008
2736.49703,0.20162
2738.42550,0.20105
2740.35396,0.19943
2742.28243,0.19918
2744.21090,0.19931
2746.13937,0.19964
2748.06784,0.20085
2749.99631,0.20164
2751.92478,0.20206
2753.85325,0.20174
2755.78171,0.20014
2757.71018,0.20023
2759.63865,0.20420
2761.56712,0.20973
2763.49559,0.21254
2765.42406,0.21150
2767.35253,0.20989
2769.28099,0.20939
2771.20946,0.20886
2773.13793,0.20792
2775.06640,0.20596
2776.99487,0.20457
2778.92334,0.20642
2780.85181,0.20883
2782.78028,0.20948
2784.70874,0.21154
2786.63721,0.21513
2788.56568,0.21468
2790.49415,0.20989
2792.42262,0.20661
2794.35109,0.20592
2796.27956,0.20595
2798.20802,0.20797
2800.13649,0.21024
2802.06496,0.20893
2803.99343,0.20565
2805.92190,0.20381
2807.85037,0.20518
2809.77884,0.20926
2811.70731,0.21147
2813.63577,0.21019
2815.56424,0.20952
2817.49271,0.21147
2819.42118,0.21348
2821.34965,0.21196
2823.27812,0.20898
2825.20659,0.20900
2827.13505,0.20887
2829.06352,0.20648
2830.99199,0.20639
2832.92046,0.20899
2834.84893,0.21002
2836.77740,0.20729
2838.70587,0.20336
2840.63433,0.20311
2842.56280,0.20682
2844.49127,0.21093
2846.41974,0.21387
2848.34821,0.21454
2850.27668,0.21270
2852.20515,0.21122
2854.13362,0.21107
2856.06208,0.21041
2857.99055,0.20977
2859.91902,0.21042
2861.84749,0.21046
2863.77596,0.20733
2865.70443,0.20304
2867.63290,0.20455
2869.56136,0.21114
2871.48983,0.21350
2873.41830,0.21154
2875.34677,0.21121
2877.27524,0.21123
2879.20371,0.20915
2881.13218,0.20653
2883.06065,0.20507
2884.98911,0.20596
2886.91758,0.20813
2888.84605,0.21029
2890.77452,0.21359
2892.70299,0.21368
2894.63146,0.20871
2896.55993,0.20537
2898.48839,0.20457
2900.41686,0.20450
2902.34533,0.20536
2904.27380,0.20580
2906.20227,0.20608
2908.13074,0.20705
2910.05921,0.20845
2911.98768,0.20892
2913.91614,0.20696
2915.84461,0.20372
2917.77308,0.20169
2919.70155,0.20173
2921.63002,0.20329
2923.55849,0.20380
2925.48696,0.20258
2927.41542,0.20416
2929.34389,0.20684
2931.27236,0.20595
2933.20083,0.20506
2935.12930,0.20219
2937.05777,0.19508
2938.98624,0.19550
2940.91471,0.20476
2942.84317,0.20909
2944.77164,0.20272
2946.70011,0.19136
2948.62858,0.18904
2950.55705,0.19852
2952.48552,0.20535
2954.41399,0.20338
2956.34245,0.19615
2958.27092,0.19313
2960.19939,0.20073
2962.12786,0.20687
2964.05633,0.20455
2965.98480,0.20153
2967.91327,0.19884
2969.84174,0.19692
2971.77020,0.20163
2973.69867,0.21118
2975.62714,0.21518
2977.55561,0.21048
2979.48408,0.20712
2981.41255,0.20836
2983.34102,0.20893
2985.26948,0.20777
2987.19795,0.20497
2989.12642,0.20500
2991.05489,0.21063
2992.98336,0.21490
2994.91183,0.21369
2996.84030,0.20952
2998.76877,0.20585
3000.69723,0.20602
3002.62570,0.20966
3004.55417,0.21201
3006.48264,0.21124
3008.41111,0.20725
3010.33958,0.19611
3012.26805,0.17553
3014.19651,0.14841
3016.12498,0.12831
3018.05345,0.13973
3019.98192,0.17929
3021.91039,0.20982
3023.83886,0.21816
3025.76733,0.21868
3027.69579,0.21748
3029.62426,0.21479
3031.55273,0.21365
3033.48120,0.21510
3035.40967,0.21680
3037.33814,0.21731
3039.26661,0.21657
3041.19508,0.21403
3043.12354,0.21240
3045.05201,0.21368
3046.98048,0.21447
3048.90895,0.21359
3050.83742,0.21219
3052.76589,0.21139
3054.69436,0.20869
3056.62282,0.20117
3058.55129,0.19923
3060.47976,0.20709
3062.40823,0.21124
3064.33670,0.20455
3066.26517,0.19418
3068.19364,0.19203
3070.12211,0.19868
3072.05057,0.20464
3073.97904,0.20263
3075.90751,0.19667
3077.83598,0.19995
3079.76445,0.21122
3081.69292,0.21604
3083.62139,0.20574
3085.54985,0.19251
3087.47832,0.19707
3089.40679,0.21119
3091.33526,0.21141
3093.26373,0.19434
3095.19220,0.18155
3097.12067,0.19007
3099.04914,0.20609
3100.97760,0.21070
3102.90607,0.20236
3104.83454,0.19574
3106.76301,0.20136
3108.69148,0.20933
3110.61995,0.20832
3112.54842,0.20304
3114.47688,0.20771
3116.40535,0.21978
3118.33382,0.22192
3120.26229,0.21294
3122.19076,0.20588
3124.11923,0.20895
3126.04770,0.21675
3127.97617,0.21804
3129.90463,0.21304
3131.83310,0.21367
3133.76157,0.22091
3135.69004,0.22021
3137.61851,0.20952
3139.54698,0.20402
3141.47545,0.20881
3143.40391,0.21485
3145.33238,0.21805
3147.26085,0.21912
3149.18932,0.21892
3151.11779,0.21994
3153.04626,0.22210
3154.97473,0.22295
3156.90320,0.22114
3158.83166,0.21881
3160.76013,0.21838
3162.68860,0.21884
3164.61707,0.21900
3166.54554,0.21857
3168.47401,0.21883
3170.40248,0.22200
3172.33094,0.22480
3174.25941,0.22212
3176.18788,0.21768
3178.11635,0.21740
3180.04482,0.22009
3181.97329,0.22215
3183.90176,0.22145
3185.83022,0.21748
3187.75869,0.21265
3189.68716,0.20972
3191.61563,0.20932
3193.54410,0.21101
3195.47257,0.21482
3197.40104,0.21966
3199.32951,0.22089
3201.25797,0.21900
3203.18644,0.21908
3205.11491,0.21950
3207.04338,0.21943
3208.97185,0.21952
3210.90032,0.21782
3212.82879,0.21761
3214.75725,0.21857
3216.68572,0.21702
3218.61419,0.21557
3220.54266,0.21409
3222.47113,0.21249
3224.39960,0.21240
3226.32807,0.21145
3228.25654,0.21284
3230.18500,0.21916
3232.11347,0.22338
3234.04194,0.22412
3235.97041,0.22403
3237.89888,0.21988
3239.82735,0.21612
3241.75582,0.22108
3243.68428,0.22869
3245.61275,0.22957
3247.54122,0.22502
3249.46969,0.21914
3251.39816,0.21373
3253.32663,0.21054
3255.25510,0.21099
3257.18357,0.21298
3259.11203,0.21284
3261.04050,0.21024
3262.96897,0.20766
3264.89744,0.20849
3266.82591,0.21369
3268.75438,0.21749
3270.68285,0.21347
3272.61131,0.20672
3274.53978,0.20718
3276.46825,0.21446
3278.39672,0.22235
3280.32519,0.22632
3282.25366,0.22466
3284.18213,0.22004
3286.11060,0.21512
3288.03906,0.21171
3289.96753,0.21193
3291.89600,0.21496
3293.82447,0.21693
3295.75294,0.21525
3297.68141,0.21444
3299.60988,0.21785
3301.53834,0.21893
3303.46681,0.21539
3305.39528,0.21361
3307.32375,0.21412
3309.25222,0.21171
3311.18069,0.20812
3313.10916,0.20810
3315.03763,0.20963
3316.96609,0.21077
3318.89456,0.21226
3320.82303,0.21295
3322.75150,0.21342
3324.67997,0.21621
3326.60844,0.21859
3328.53691,0.21653
3330.46537,0.21256
3332.39384,0.20950
3334.32231,0.20900
3336.25078,0.21417
3338.17925,0.22258
3340.10772,0.22722
3342.03619,0.22637
3343.96466,0.22401
3345.89312,0.22303
3347.82159,0.22286
3349.75006,0.22009
3351.67853,0.21268
3353.60700,0.20505
3355.53547,0.20275
3357.46394,0.20782
3359.39240,0.21789
3361.32087,0.22412
3363.24934,0.22165
3365.17781,0.21682
3367.10628,0.21682
3369.03475,0.22062
3370.96322,0.22272
3372.89168,0.22180
3374.82015,0.21680
3376.74862,0.20847
3378.67709,0.20515
3380.60556,0.21041
3382.53403,0.21870
3384.46250,0.22280
3386.39097,0.22125
3388.31943,0.21924
3390.24790,0.21831
3392.17637,0.21708
3394.10484,0.21849
3396.03331,0.22332
3397.96178,0.22671
3399.89025,0.22437
3401.81871,0.21693
3403.74718,0.21146
3405.67565,0.21321
3407.60412,0.21807
3409.53259,0.21866
3411.46106,0.21554
3413.38953,0.21666
3415.31800,0.22020
3417.24646,0.21867
3419.17493,0.21415
3421.10340,0.21220
3423.03187,0.21304
3424.96034,0.21134
3426.88881,0.20659
3428.81728,0.20425
3430.74574,0.20515
3432.67421,0.20688
3434.60268,0.20732
3436.53115,0.20748
3438.45962,0.20929
3440.38809,0.21132
3442.31656,0.21373
3444.24503,0.21347
3446.17349,0.20782
3448.10196,0.20295
3450.03043,0.20175
3451.95890,0.20080
3453.88737,0.19774
3455.81584,0.19731
3457.74431,0.20309
3459.67277,0.20356
3461.60124,0.19277
3463.52971,0.18400
3465.45818,0.18554
3467.38665,0.19086
3469.31512,0.19564
3471.24359,0.20166
3473.17206,0.20403
3475.10052,0.19828
3477.02899,0.19228
3478.95746,0.19344
3480.88593,0.19747
3482.81440,0.19650
3484.74287,0.19204
3486.67134,0.18828
3488.59980,0.18365
3490.52827,0.18084
3492.45674,0.18291
3494.38521,0.18583
3496.31368,0.18539
3498.24215,0.18133
3500.17062,0.17996
3502.09909,0.18432
3504.02755,0.18589
3505.95602,0.18367
3507.88449,0.18441
3509.81296,0.18323
3511.74143,0.17593
3513.66990,0.17259
3515.59837,0.17817
3517.52683,0.18389
3519.45530,0.18520
3521.38377,0.18692
3523.31224,0.18938
3525.24071,0.18989
3527.16918,0.18865
3529.09765,0.18388
3531.02611,0.17737
3532.95458,0.17467
3534.88305,0.17466
3536.81152,0.17229
3538.73999,0.16911
3540.66846,0.17060
3542.59693,0.17587
3544.52540,0.18048
3546.45386,0.18225
3548.38233,0.18101
3550.31080,0.17922
3552.23927,0.17808
3554.16774,0.17548
3556.09621,0.17307
3558.02468,0.17380
3559.95314,0.17606
3561.88161,0.17601
3563.81008,0.17513
3565.73855,0.18080
3567.66702,0.18593
3569.59549,0.17928
3571.52396,0.17259
3573.45243,0.16745
3575.38089,0.16088
3577.30936,0.15865
3579.23783,0.16229
3581.16630,0.16572
3583.09477,0.16633
3585.02324,0.16873
3586.95171,0.17243
3588.88017,0.16751
3590.80864,0.16059
3592.73711,0.15955
3594.66558,0.15908
3596.59405,0.15751
3598.52252,0.15759
3600.45099,0.15420
3602.37946,0.15041
3604.30792,0.15544
3606.23639,0.16628
3608.16486,0.17317
3610.09333,0.17087
3612.02180,0.16629
3613.95027,0.16424
3615.87874,0.16497
3617.80720,0.16769
3619.73567,0.16634
3621.66414,0.16049
3623.59261,0.15678
3625.52108,0.15730
3627.44955,0.16185
3629.37802,0.16141
3631.30649,0.15470
3633.23495,0.15172
3635.16342,0.14925
3637.09189,0.14541
3639.02036,0.14227
3640.94883,0.14047
3642.87730,0.14037
3644.80577,0.14457
3646.73423,0.15601
3648.66270,0.16847
3650.59117,0.16106
3652.51964,0.14449
3654.44811,0.13517
3656.37658,0.13036
3658.30505,0.12628
3660.23352,0.12697
3662.16198,0.13338
3664.09045,0.13924
3666.01892,0.14114
3667.94739,0.14507
3669.87586,0.15492
3671.80433,0.16074
3673.73280,0.16243
3675.66126,0.16012
3677.58973,0.15143
3679.51820,0.14258
3681.44667,0.13402
3683.37514,0.13034
3685.30361,0.13465
3687.23208,0.14391
3689.16055,0.14903
3691.08901,0.14044
3693.01748,0.12971
3694.94595,0.12613
3696.87442,0.13003
3698.80289,0.13842
3700.73136,0.14367
3702.65983,0.14022
3704.58829,0.13506
3706.51676,0.13472
3708.44523,0.13801
3710.37370,0.14198
3712.30217,0.14120
3714.23064,0.13811
3716.15911,0.14108
3718.08757,0.14576
3720.01604,0.14595
3721.94451,0.14804
3723.87298,0.15232
3725.80145,0.15049
3727.72992,0.14720
3729.65839,0.15000
3731.58686,0.15732
3733.51532,0.16290
3735.44379,0.16124
3737.37226,0.15479
3739.30073,0.15030
3741.22920,0.14734
3743.15767,0.14885
3745.08614,0.15945
3747.01460,0.16810
3748.94307,0.17501
3750.87154,0.17442
3752.80001,0.15600
3754.72848,0.14330
3756.65695,0.14076
3758.58542,0.14100
3760.51389,0.14147
3762.44235,0.14195
3764.37082,0.13990
3766.29929,0.13520
3768.22776,0.13447
3770.15623,0.13734
3772.08470,0.13538
3774.01317,0.13137
3775.94163,0.13131
3777.87010,0.13422
3779.79857,0.13252
3781.72704,0.12814
3783.65551,0.12969
3785.58398,0.13336
3787.51245,0.13364
3789.44092,0.13060
3791.36938,0.12615
3793.29785,0.12576
3795.22632,0.13448
3797.15479,0.14832
3799.08326,0.15790
3801.01173,0.15973
3802.94020,0.15015
3804.86866,0.14148
3806.79713,0.13933
3808.72560,0.13596
3810.65407,0.12913
3812.58254,0.12576
3814.51101,0.13106
3816.43948,0.13793
3818.36795,0.13696
3820.29641,0.13381
3822.22488,0.12908
3824.15335,0.12829
3826.08182,0.13516
3828.01029,0.14004
3829.93876,0.13607
3831.86723,0.13033
3833.79569,0.13371
3835.72416,0.14472
3837.65263,0.14766
3839.58110,0.14305
3841.50957,0.14344
3843.43804,0.14015
3845.36651,0.13064
3847.29498,0.12281
3849.22344,0.12253
3851.15191,0.13551
3853.08038,0.15501
3855.00885,0.14920
3856.93732,0.13702
3858.86579,0.13239
3860.79426,0.13364
3862.72272,0.13663
3864.65119,0.13103
3866.57966,0.12388
3868.50813,0.12499
3870.43660,0.12643
3872.36507,0.12208
3874.29354,0.11655
3876.22200,0.11130
3878.15047,0.11139
3880.07894,0.12008
3882.00741,0.12753
3883.93588,0.12642
3885.86435,0.11998
3887.79282,0.11638
3889.72129,0.12066
3891.64975,0.12800
3893.57822,0.12840
3895.50669,0.12397
3897.43516,0.12496
3899.36363,0.13731
3901.29210,0.14998
3903.22057,0.14397
3905.14903,0.12837
3907.07750,0.12156
3909.00597,0.12101
3910.93444,0.12074
3912.86291,0.12035
3914.79138,0.12073
3916.71985,0.11992
3918.64832,0.11816
3920.57678,0.11930
3922.50525,0.12068
3924.43372,0.11504
3926.36219,0.10510
3928.29066,0.10049
3930.21913,0.10397
3932.14760,0.11053
3934.07606,0.11247
3936.00453,0.11280
3937.93300,0.11343
3939.86147,0.11329
3941.78994,0.11600
3943.71841,0.11798
3945.64688,0.11341
3947.57535,0.10845
3949.50381,0.10997
3951.43228,0.11115
3953.36075,0.10690
3955.28922,0.10624
3957.21769,0.11088
3959.14616,0.11163
3961.07463,0.10738
3963.00309,0.10471
3964.93156,0.10737
3966.86003,0.11116
3968.78850,0.10791
3970.71697,0.10079
3972.64544,0.10043
3974.57391,0.10767
3976.50238,0.11541
3978.43084,0.11618
3980.35931,0.11005
3982.28778,0.10567
3984.21625,0.10633
3986.14472,0.10645
3988.07319,0.10669
3990.00166,0.10983
3991.93012,0.11046
3993.85859,0.10830
3995.78706,0.10756
3997.71553,0.10752
3999.64400,0.10688
4001.57247,0.10504
4003.50094,0.10483
4005.42941,0.11032
4007.35787,0.11551
4009.28634,0.11089
4011.21481,0.10240
4013.14328,0.09945
4015.07175,0.09767
4017.00022,0.09407
4018.92869,0.09363
4020.85715,0.09782
4022.78562,0.10241
4024.71409,0.10358
4026.64256,0.10220
4028.57103,0.10103
4030.49950,0.09945
4032.42797,0.09752
4034.35644,0.09716
4036.28490,0.09634
4038.21337,0.09451
4040.14184,0.09594
4042.07031,0.10174
4043.99878,0.10471
4045.92725,0.09883
4047.85572,0.09376
4049.78418,0.09699
4051.71265,0.09822
4053.64112,0.09182
4055.56959,0.08639
4057.49806,0.08838
4059.42653,0.09319
4061.35500,0.09350
4063.28346,0.09088
4065.21193,0.09046
4067.14040,0.08932
4069.06887,0.08654
4070.99734,0.09090
4072.92581,0.10272
4074.85428,0.10945
4076.78275,0.10596
4078.71121,0.09925
4080.63968,0.09473
4082.56815,0.09341
4084.49662,0.09473
4086.42509,0.09488
4088.35356,0.09346
4090.28203,0.09501
4092.21049,0.09859
4094.13896,0.10000
4096.06743,0.10005
4097.99590,0.09793
4099.92437,0.09267
4101.85284,0.08857
4103.78131,0.08563
4105.70978,0.08477
4107.63824,0.08762
4109.56671,0.08830
4111.49518,0.08629
4113.42365,0.08593
4115.35212,0.08709
4117.28059,0.08731
4119.20906,0.08606
4121.13752,0.08410
4123.06599,0.08386
4124.99446,0.09030
4126.92293,0.09883
4128.85140,0.09955
4130.77987,0.09388
4132.70834,0.08789
4134.63681,0.08521
4136.56527,0.08617
4138.49374,0.08673
4140.42221,0.08533
4142.35068,0.08452
4144.27915,0.08699
4146.20762,0.08938
4148.13609,0.08569
4150.06455,0.07966
4151.99302,0.07511
4153.92149,0.07173
4155.84996,0.07385
4157.77843,0.08153
4159.70690,0.08586
4161.63537,0.08229
4163.56384,0.07619
4165.49230,0.07474
4167.42077,0.07863
4169.34924,0.08197
4171.27771,0.08349
4173.20618,0.08478
4175.13465,0.08296
4177.06312,0.07951
4178.99158,0.07680
4180.92005,0.07232
4182.84852,0.06896
4184.77699,0.07301
4186.70546,0.08034
4188.63393,0.08213
4190.56240,0.08077
4192.49087,0.08090
4194.41933,0.08152
4196.34780,0.08543
4198.27627,0.09225
4200.20474,0.09095
4202.13321,0.07913
4204.06168,0.07184
4205.99015,0.07839
4207.91861,0.08840
4209.84708,0.09048
4211.77555,0.08587
4213.70402,0.07863
4215.63249,0.07219
4217.56096,0.06923
4219.48943,0.06821
4221.41789,0.06857
4223.34636,0.07165
4225.27483,0.07434
4227.20330,0.07316
4229.13177,0.07032
4231.06024,0.07073
4232.98871,0.07578
4234.91718,0.07752
4236.84564,0.07083
4238.77411,0.06581
4240.70258,0.06794
4242.63105,0.06853
4244.55952,0.06487
4246.48799,0.06476
4248.41646,0.07183
4250.34492,0.07972
4252.27339,0.08297
4254.20186,0.08112
4256.13033,0.07527
4258.05880,0.06972
4259.98727,0.06564
4261.91574,0.06250
4263.84421,0.06133
4265.77267,0.06115
4267.70114,0.06030
4269.62961,0.06015
4271.55808,0.06532
4273.48655,0.07070
4275.41502,0.07202
4277.34349,0.07270
4279.27195,0.06909
4281.20042,0.06478
4283.12889,0.06647
4285.05736,0.06732
4286.98583,0.06430
4288.91430,0.06601
4290.84277,0.07185
4292.77124,0.06928
4294.69970,0.06059
4296.62817,0.05956
4298.55664,0.06653
4300.48511,0.07123
4302.41358,0.07139
4304.34205,0.06958
4306.27052,0.06126
4308.19898,0.05053
4310.12745,0.05272
4312.05592,0.06335
4313.98439,0.06554
4315.91286,0.06342
4317.84133,0.06674
4319.76980,0.06767
4321.69827,0.06062
4323.62673,0.05481
4325.55520,0.05716
4327.48367,0.06216
4329.41214,0.06308
4331.34061,0.06004
4333.26908,0.05494
4335.19755,0.05094
4337.12601,0.05124
4339.05448,0.05170
4340.98295,0.04780
4342.91142,0.04368
4344.83989,0.04175
4346.76836,0.04137
4348.69683,0.04208
4350.62530,0.04019
4352.55376,0.03737
4354.48223,0.03731
4356.41070,0.03903
4358.33917,0.03915
4360.26764,0.03719
4362.19611,0.04239
4364.12458,0.05074
4366.05304,0.04729
4367.98151,0.03897
4369.90998,0.03642
4371.83845,0.03995
4373.76692,0.04719
4375.69539,0.04897
4377.62386,0.03938
4379.55232,0.02742
4381.48079,0.02516
4383.40926,0.02972
4385.33773,0.03626
4387.26620,0.04430
4389.19467,0.04555
4391.12314,0.04143
4393.05161,0.03771
4394.98007,0.03340
4396.90854,0.03341
4398.83701,0.03946
4400.76548,0.04543
4402.69395,0.04339
4404.62242,0.03435
4406.55089,0.02946
4408.47935,0.02994
4410.40782,0.02897
4412.33629,0.02768
4414.26476,0.03175
4416.19323,0.03898
4418.12170,0.04159
4420.05017,0.03802
4421.97864,0.03530
4423.90710,0.03616
4425.83557,0.03644
4427.76404,0.03569
4429.69251,0.03318
4431.62098,0.03030
4433.54945,0.03410
4435.47792,0.04350
4437.40638,0.04798
4439.33485,0.04469
4441.26332,0.04257
4443.19179,0.04538
4445.12026,0.04693
4447.04873,0.04192
4448.97720,0.03772
4450.90567,0.04130
4452.83413,0.04007
4454.76260,0.02956
4456.69107,0.02495
4458.61954,0.03345
4460.54801,0.04503
4462.47648,0.04625
4464.40495,0.03859
4466.33341,0.03149
4468.26188,0.02592
4470.19035,0.01912
4472.11882,0.01538
4474.04729,0.01881
4475.97576,0.02518
4477.90423,0.02959
4479.83270,0.02770
4481.76116,0.02186
4483.68963,0.02153
4485.61810,0.02547
4487.54657,0.02504
4489.47504,0.01844
4491.40351,0.01249
4493.33198,0.01178
4495.26044,0.01076
4497.18891,0.00839
4499.11738,0.01190
4501.04585,0.01891
4502.97432,0.01813
4504.90279,0.01192
4506.83126,0.01405
4508.75973,0.02446
4510.68819,0.03282
4512.61666,0.03596
4514.54513,0.03298
4516.47360,0.02389
4518.40207,0.01647
4520.33054,0.01785
4522.25901,0.02182
4524.18747,0.01667
4526.11594,0.00754
4528.04441,0.00782
4529.97288,0.01329
4531.90135,0.01517
4533.82982,0.01673
4535.75829,0.01847
4537.68676,0.01681
4539.61522,0.01478
4541.54369,0.01667
4543.47216,0.02178
4545.40063,0.02616
4547.32910,0.02763
4549.25757,0.02754
4551.18604,0.02527
4553.11450,0.01676
4555.04297,0.00522
4556.97144,0.00286
4558.89991,0.00759
4560.82838,0.00858
4562.75685,0.01175
4564.68532,0.02011
4566.61378,0.02180
4568.54225,0.01534
4570.47072,0.01255
4572.39919,0.01782
4574.32766,0.02367
4576.25613,0.02489
4578.18460,0.02599
4580.11307,0.03201
4582.04153,0.03695
4583.97000,0.02990
4585.89847,0.01590
4587.82694,0.01392
4589.75541,0.02376
4591.68388,0.02684
4593.61235,0.01742
4595.54081,0.00533
4597.46928,0.00146
4599.39775,0.00804
4601.32622,0.01970
4603.25469,0.02552
4605.18316,0.01922
4607.11163,0.01419
4609.04010,0.01879
4610.96856,0.02244
4612.89703,0.02153
4614.82550,0.02378
4616.75397,0.02819
4618.68244,0.02774
4620.61091,0.02442
4622.53938,0.02425
4624.46784,0.02191
4626.39631,0.01149
4628.32478,0.00779
4630.25325,0.01796
4632.18172,0.02545
4634.11019,0.02380
4636.03866,0.02251
4637.96713,0.02112
4639.89559,0.01147
4641.82406,0.00255
4643.75253,0.00571
4645.68100,0.01369
4647.60947,0.01914
4649.53794,0.01877
4651.46641,0.00786
4653.39487,-0.00715
4655.32334,-0.01198
4657.25181,-0.00910
4659.18028,-0.00871
4661.10875,-0.00883
4663.03722,-0.01048
4664.96569,-0.01375
4666.89416,-0.01123
4668.82262,-0.00430
4670.75109,0.00414
4672.67956,0.01481
4674.60803,0.02089
4676.53650,0.01609
4678.46497,0.00593
4680.39344,0.00145
4682.32190,0.00514
4684.25037,0.00554
4686.17884,0.00142
4688.10731,0.00314
4690.03578,0.00578
4691.96425,0.00516
4693.89272,0.00913
4695.82119,0.01739
4697.74965,0.02075
4699.67812,0.01944
4701.60659,0.02007
4703.53506,0.01928
4705.46353,0.01370
4707.39200,0.00604
4709.32047,0.00235
4711.24893,0.00806
4713.17740,0.01801
4715.10587,0.02315
4717.03434,0.01778
4718.96281,0.00762
4720.89128,0.00631
4722.81975,0.00856
4724.74821,0.00043
4726.67668,-0.01289
4728.60515,-0.01989
4730.53362,-0.01451
4732.46209,0.00440
4734.39056,0.02494
4736.31903,0.02882
4738.24750,0.01798
4740.17596,0.01270
4742.10443,0.01361
4744.03290,0.00559
4745.96137,-0.00506
4747.88984,-0.00366
4749.81831,0.00409
4751.74678,0.00717
4753.67524,0.00444
4755.60371,0.00476
4757.53218,0.01277
4759.46065,0.01192
4761.38912,0.00220
4763.31759,0.00535
4765.24606,0.01780
4767.17453,0.01933
4769.10299,0.01106
4771.03146,0.00997
4772.95993,0.01683
4774.88840,0.02432
4776.81687,0.02618
4778.74534,0.01754
4780.67381,0.01327
4782.60227,0.02118
4784.53074,0.02675
4786.45921,0.02773
4788.38768,0.02881
4790.31615,0.02461
4792.24462,0.01208
4794.17309,-0.00649
4796.10156,-0.01768
4798.03002,-0.00660
4799.95849,0.01208
4801.88696,0.01920
4803.81543,0.01718
4805.74390,0.00800
4807.67237,0.00041
4809.60084,0.00505
4811.52930,0.00633
4813.45777,-0.00112
4815.38624,0.00061
4817.31471,0.01045
4819.24318,0.01448
4821.17165,0.01447
4823.10012,0.01416
4825.02859,0.01316
4826.95705,0.01882
4828.88552,0.02744
4830.81399,0.02863
4832.74246,0.02477
4834.67093,0.01609
4836.59940,0.00748
4838.52787,0.00848
4840.45633,0.00901
4842.38480,-0.00090
4844.31327,-0.00581
4846.24174,0.00076
4848.17021,0.00256
4850.09868,-0.00462
4852.02715,-0.00965
4853.95562,-0.00287
4855.88408,0.01097
4857.81255,0.01978
4859.74102,0.02410
4861.66949,0.02782
4863.59796,0.02705
4865.52643,0.02052
4867.45490,0.01371
4869.38336,0.01107
4871.31183,0.01138
4873.24030,0.00723
4875.16877,-0.00392
4877.09724,-0.01037
4879.02571,-0.00598
4880.95418,-0.00016
4882.88265,-0.00324
4884.81111,-0.01451
4886.73958,-0.02066
4888.66805,-0.01432
4890.59652,0.00132
4892.52499,0.02228
4894.45346,0.03429
4896.38193,0.03152
4898.31039,0.02837
4900.23886,0.02925
4902.16733,0.02998
4904.09580,0.03329
4906.02427,0.03918
4907.95274,0.04301
4909.88121,0.04431
4911.80967,0.03941
4913.73814,0.02756
4915.66661,0.02165
4917.59508,0.02113
4919.52355,0.01444
4921.45202,0.00572
4923.38049,0.00226
4925.30896,0.00168
4927.23742,-0.00179
4929.16589,-0.00582
4931.09436,-0.00347
4933.02283,0.00107
4934.95130,0.00093
4936.87977,-0.00198
4938.80824,0.00012
4940.73670,0.00537
4942.66517,-0.00066
4944.59364,-0.01534
4946.52211,-0.02315
4948.45058,-0.01976
4950.37905,-0.00919
4952.30752,0.00404
4954.23599,0.00941
4956.16445,-0.00098
4958.09292,-0.00931
4960.02139,-0.00363
4961.94986,0.00264
4963.87833,0.00457
4965.80680,0.00975
4967.73527,0.02032
4969.66373,0.02908
4971.59220,0.02768
4973.52067,0.01376
4975.44914,-0.00095
4977.37761,0.00150
4979.30608,0.01132
4981.23455,0.00731
4983.16302,-0.00377
4985.09148,-0.01361
4987.01995,-0.01785
4988.94842,-0.00331
4990.87689,0.01885
4992.80536,0.02930
4994.73383,0.03464
4996.66230,0.04057
4998.59076,0.03447
5000.51923,0.01588
5002.44770,0.00437
5004.37617,0.01007
5006.30464,0.02028
5008.23311,0.01737
5010.16158,0.00668
5012.09005,0.00154
5014.01851,-0.00189
5015.94698,-0.00443
5017.87545,0.00312
5019.80392,0.01593
5021.73239,0.01355
5023.66086,0.00072
5025.58933,0.00037
5027.51779,0.00995
5029.44626,0.01862
5031.37473,0.02719
5033.30320,0.02938
5035.23167,0.01909
5037.16014,0.01281
5039.08861,0.02515
5041.01708,0.04376
5042.94554,0.05386
5044.87401,0.05394
5046.80248,0.03977
5048.73095,0.01517
5050.65942,-0.00022
5052.58789,0.00317
5054.51636,0.01349
5056.44482,0.01466
5058.37329,0.00592
5060.30176,-0.00350
5062.23023,-0.00686
5064.15870,-0.00579
5066.08717,-0.00146
5068.01564,0.00806
5069.94410,0.01262
5071.87257,0.01127
5073.80104,0.00934
5075.72951,0.00778
5077.65798,0.01926
5079.58645,0.03943
5081.51492,0.04820
5083.44339,0.04366
5085.37185,0.03334
5087.30032,0.03249
5089.22879,0.05263
5091.15726,0.06557
5093.08573,0.05126
5095.01420,0.04764
5096.94267,0.06689
5098.87113,0.06403
5100.79960,0.03074
5102.72807,0.00664
5104.65654,0.00554
5106.58501,0.01007
5108.51348,0.00889
5110.44195,0.00706
5112.37042,0.01107
5114.29888,0.02053
5116.22735,0.03106
5118.15582,0.03453
5120.08429,0.03531
5122.01276,0.03871
5123.94123,0.03530
5125.86970,0.03171
5127.79816,0.03514
5129.72663,0.03855
5131.65510,0.04403
5133.58357,0.04353
5135.51204,0.03134
5137.44051,0.02194
5139.36898,0.01581
5141.29745,0.01368
5143.22591,0.02223
5145.15438,0.02880
5147.08285,0.02975
5149.01132,0.03066
5150.93979,0.02795
5152.86826,0.02392
5154.79673,0.02240
5156.72519,0.02285
5158.65366,0.01991
5160.58213,0.01050
5162.51060,0.00636
5164.43907,0.01717
5166.36754,0.03715
5168.29601,0.06073
5170.22448,0.07825
5172.15294,0.07588
5174.08141,0.05902
5176.00988,0.03608
5177.93835,0.01461
5179.86682,0.00751
5181.79529,0.01213
5183.72376,0.01838
5185.65222,0.02338
5187.58069,0.02931
5189.50916,0.03589
5191.43763,0.03844
5193.36610,0.04173
5195.29457,0.04878
5197.22304,0.05206
5199.15151,0.04192
5201.07997,0.01940
5203.00844,0.00723
5204.93691,0.01530
5206.86538,0.02682
5208.79385,0.03493
5210.72232,0.03965
5212.65079,0.04240
5214.57925,0.05258
5216.50772,0.06047
5218.43619,0.04853
5220.36466,0.02814
5222.29313,0.01816
5224.22160,0.01418
5226.15007,0.01485
5228.07854,0.03214
5230.00700,0.05931
5231.93547,0.07042
5233.86394,0.05575
5235.79241,0.04010
5237.72088,0.03562
5239.64935,0.03192
5241.57782,0.03411
5243.50628,0.04131
5245.43475,0.04053
5247.36322,0.04265
5249.29169,0.05173
5251.22016,0.05010
5253.14863,0.04451
5255.07710,0.04417
5257.00556,0.03912
5258.93403,0.03299
5260.86250,0.03011
5262.79097,0.02457
5264.71944,0.02837
5266.64791,0.04567
5268.57638,0.05824
5270.50485,0.05864
5272.43331,0.04199
5274.36178,0.02016
5276.29025,0.01841
5278.21872,0.02723
5280.14719,0.03960
5282.07566,0.06256
5284.00413,0.07152
5285.93259,0.05980
5287.86106,0.05080
5289.78953,0.05117
5291.71800,0.05178
5293.64647,0.04271
5295.57494,0.03985
5297.50341,0.05550
5299.43188,0.06851
5301.36034,0.06499
5303.28881,0.06013
5305.21728,0.07172
5307.14575,0.08706
5309.07422,0.08072
5311.00269,0.06720
5312.93116,0.06615
5314.85962,0.06715
5316.78809,0.06054
5318.71656,0.05529
5320.64503,0.05863
5322.57350,0.06000
5324.50197,0.05788
5326.43044,0.06550
5328.35891,0.07291
5330.28737,0.06844
5332.21584,0.06475
5334.14431,0.06556
5336.07278,0.06548
5338.00125,0.05629
5339.92972,0.03849
5341.85819,0.02817
5343.78665,0.01796
5345.71512,0.01594
5347.64359,0.04717
5349.57206,0.07959
5351.50053,0.08119
5353.42900,0.07221
5355.35747,0.06886
5357.28594,0.06057
5359.21440,0.05655
5361.14287,0.06280
5363.07134,0.07426
5364.99981,0.08466
5366.92828,0.06894
5368.85675,0.03474
5370.78522,0.03293
5372.71368,0.06499
5374.64215,0.07816
5376.57062,0.05834
5378.49909,0.03717
5380.42756,0.02497
5382.35603,0.02631
5384.28450,0.05189
5386.21297,0.08368
5388.14143,0.08832
5390.06990,0.07408
5391.99837,0.05956
5393.92684,0.06102
5395.85531,0.08064
5397.78378,0.09345
5399.71225,0.10066
5401.64071,0.10193
5403.56918,0.08341
5405.49765,0.06395
5407.42612,0.06014
5409.35459,0.05764
5411.28306,0.04073
5413.21153,0.02132
5415.13999,0.02943
5417.06846,0.05190
5418.99693,0.05991
5420.92540,0.05398
5422.85387,0.04590
5424.78234,0.04595
5426.71081,0.05731
5428.63928,0.07149
5430.56774,0.07794
5432.49621,0.06751
5434.42468,0.04935
5436.35315,0.04283
5438.28162,0.04824
5440.21009,0.05316
5442.13856,0.03789
5444.06702,0.01498
5445.99549,0.01663
5447.92396,0.03093
5449.85243,0.03856
5451.78090,0.05329
5453.70937,0.07678
5455.63784,0.08756
5457.56631,0.07549
5459.49477,0.06037
5461.42324,0.05250
5463.35171,0.04444
5465.28018,0.04238
5467.20865,0.05919
5469.13712,0.08985
5471.06559,0.10235
5472.99405,0.08102
5474.92252,0.05677
5476.85099,0.05425
5478.77946,0.05462
5480.70793,0.05255
5482.63640,0.05906
5484.56487,0.07574
5486.49334,0.09835
5488.42180,0.11916
5490.35027,0.12450
5492.27874,0.10337
5494.20721,0.06927
5496.13568,0.05439
5498.06415,0.06306
5499.99262,0.06491
5501.92108,0.05057
5503.84955,0.04959
5505.77802,0.05713
5507.70649,0.05007
5509.63496,0.04904
5511.56343,0.06209
5513.49190,0.05985
5515.42037,0.04123
5517.34883,0.03401
5519.27730,0.04296
5521.20577,0.05183
5523.13424,0.05340
5525.06271,0.05066
5526.99118,0.05789
5528.91965,0.07754
5530.84811,0.08423
5532.77658,0.07958
5534.70505,0.08555
5536.63352,0.10036
5538.56199,0.10922
5540.49046,0.10345
5542.41893,0.09700
5544.34740,0.10232
5546.27586,0.10789
5548.20433,0.10356
5550.13280,0.10087
5552.06127,0.11164
5553.98974,0.11602
5555.91821,0.09738
5557.84668,0.07728
5559.77514,0.07873
5561.70361,0.09756
5563.63208,0.11432
5565.56055,0.10484
5567.48902,0.06923
5569.41749,0.04204
5571.34596,0.03439
5573.27443,0.04025
5575.20289,0.06553
5577.13136,0.08920
5579.05983,0.08386
5580.98830,0.06624
5582.91677,0.06701
5584.84524,0.06939
5586.77371,0.05947
5588.70217,0.05860
5590.63064,0.06128
5592.55911,0.04935
5594.48758,0.04587
5596.41605,0.06355
5598.34452,0.06343
5600.27299,0.03806
5602.20145,0.03418
5604.12992,0.06544
5606.05839,0.09402
5607.98686,0.08517
5609.91533,0.06548
5611.84380,0.06951
5613.77227,0.07565
5615.70074,0.07164
5617.62920,0.06238
5619.55767,0.05097
5621.48614,0.06005
5623.41461,0.08268
5625.34308,0.09723
5627.27155,0.10895
5629.20002,0.10748
5631.12848,0.08532
5633.05695,0.05967
5634.98542,0.05203
5636.91389,0.07074
5638.84236,0.08361
5640.77083,0.06159
5642.69930,0.03480
5644.62777,0.04506
5646.55623,0.07984
5648.48470,0.10343
5650.41317,0.10990
5652.34164,0.10168
5654.27011,0.08079
5656.19858,0.05169
5658.12705,0.02612
5660.05551,0.02753
5661.98398,0.05598
5663.91245,0.08370
5665.84092,0.09489
5667.76939,0.09375
5669.69786,0.09202
5671.62633,0.08659
5673.55480,0.06958
5675.48326,0.05505
5677.41173,0.06344
5679.34020,0.09870
5681.26867,0.13608
5683.19714,0.14993
5685.12561,0.13878
5687.05408,0.11748
5688.98254,0.09853
5690.91101,0.07588
5692.83948,0.06444
5694.76795,0.08241
5696.69642,0.10288
5698.62489,0.09248
5700.55336,0.06025
5702.48183,0.04043
5704.41029,0.04058
5706.33876,0.04234
5708.26723,0.03777
5710.19570,0.04630
5712.12417,0.06182
5714.05264,0.05185
5715.98111,0.04679
5717.90957,0.06485
5719.83804,0.07661
5721.76651,0.09458
5723.69498,0.11199
5725.62345,0.08851
5727.55192,0.03270
5729.48039,-0.00646
5731.40886,0.00652
5733.33732,0.05480
5735.26579,0.08293
5737.19426,0.07479
5739.12273,0.07772
5741.05120,0.11939
5742.97967,0.16497
5744.90814,0.15512
5746.83660,0.09199
5748.76507,0.04105
5750.69354,0.03212
5752.62201,0.05301
5754.55048,0.08227
5756.47895,0.07315
5758.40742,0.01966
5760.33588,-0.01771
5762.26435,0.00027
5764.19282,0.04110
5766.12129,0.05787
5768.04976,0.04615
5769.97823,0.03435
5771.90670,0.04298
5773.83517,0.05304
5775.76363,0.05296
5777.69210,0.05693
5779.62057,0.07008
5781.54904,0.08924
5783.47751,0.10031
5785.40598,0.09191
5787.33445,0.06888
5789.26291,0.05181
5791.19138,0.05496
5793.11985,0.06130
5795.04832,0.07613
5796.97679,0.11849
5798.90526,0.15721
5800.83373,0.16081
5802.76220,0.14053
5804.69066,0.11923
5806.61913,0.09436
5808.54760,0.07072
5810.47607,0.07723
5812.40454,0.09780
5814.33301,0.09309
5816.26148,0.06904
5818.18994,0.04442
5820.11841,0.03407
5822.04688,0.04803
5823.97535,0.06354
5825.90382,0.06469
5827.83229,0.06482
5829.76076,0.04915
5831.68923,0.01352
5833.61769,0.01324
5835.54616,0.05944
5837.47463,0.09150
5839.40310,0.09194
5841.33157,0.09754
5843.26004,0.11503
5845.18851,0.12128
5847.11697,0.11333
5849.04544,0.09921
5850.97391,0.08590
5852.90238,0.08024
5854.83085,0.08625
5856.75932,0.07865
5858.68779,0.04637
5860.61626,0.04125
5862.54472,0.08339
5864.47319,0.12538
5866.40166,0.12110
5868.33013,0.07311
5870.25860,0.03866
5872.18707,0.05182
5874.11554,0.06909
5876.04400,0.06813
5877.97247,0.09113
5879.90094,0.11005
5881.82941,0.07525
5883.75788,0.03959
5885.68635,0.05183
5887.61482,0.07391
5889.54329,0.07355
5891.47175,0.08007
5893.40022,0.09837
5895.32869,0.11644
5897.25716,0.12347
5899.18563,0.10455
5901.11410,0.09418
5903.04257,0.10750
5904.97103,0.10786
5906.89950,0.08130
5908.82797,0.04561
5910.75644,0.04134
5912.68491,0.08358
5914.61338,0.13457
5916.54185,0.16486
5918.47032,0.16419
5920.39878,0.12851
5922.32725,0.10112
5924.25572,0.08603
5926.18419,0.05548
5928.11266,0.04981
5930.04113,0.08265
5931.96960,0.10839
5933.89806,0.11427
5935.82653,0.12214
5937.75500,0.12109
5939.68347,0.10733
5941.61194,0.09595
5943.54041,0.07803
5945.46888,0.06366
5947.39734,0.05340
5949.32581,0.05100
5951.25428,0.06517
5953.18275,0.05811
5955.11122,0.04191
5957.03969,0.05424
5958.96816,0.07609
5960.89663,0.09242
5962.82509,0.10874
5964.75356,0.11838
5966.68203,0.10843
5968.61050,0.06716
5970.53897,0.03918
5972.46744,0.06353
5974.39591,0.08989
5976.32437,0.08562
5978.25284,0.07158
5980.18131,0.07593
5982.10978,0.09346
5984.03825,0.10790
5985.96672,0.13708
5987.89519,0.17336
5989.82366,0.19199
5991.75212,0.17767
5993.68059,0.13037
5995.60906,0.09454
5997.53753,0.08992
5999.46600,0.08080
6001.39447,0.06419
6003.32294,0.06651
6005.25140,0.09408
6007.17987,0.12454
6009.10834,0.13204
6011.03681,0.12858
6012.96528,0.13329
6014.89375,0.11814
6016.82222,0.06821
6018.75069,0.04857
6020.67915,0.09004
6022.60762,0.12882
6024.53609,0.14354
6026.46456,0.14278
6028.39303,0.11563
6030.32150,0.08117
6032.24997,0.08570
6034.17843,0.11530
6036.10690,0.11636
6038.03537,0.09760
6039.96384,0.07250
6041.89231,0.05455
6043.82078,0.07700
6045.74925,0.08954
6047.67772,0.03593
6049.60618,-0.02817
6051.53465,-0.01874
6053.46312,0.03047
6055.39159,0.03460
6057.32006,0.00068
6059.24853,-0.01025
6061.17700,0.02002
6063.10546,0.08498
6065.03393,0.17148
6066.96240,0.24377
6068.89087,0.23640
6070.81934,0.13813
6072.74781,0.03331
6074.67628,-0.00194
6076.60475,0.03367
6078.53321,0.09015
6080.46168,0.10681
6082.39015,0.08267
6084.31862,0.08206
6086.24709,0.11248
6088.17556,0.12155
6090.10403,0.10227
6092.03249,0.10369
6093.96096,0.15072
6095.88943,0.18075
6097.81790,0.15025
6099.74637,0.10005
6101.67484,0.06264
6103.60331,0.04488
6105.53177,0.05602
6107.46024,0.06321
6109.38871,0.05795
6111.31718,0.08942
6113.24565,0.12037
6115.17412,0.11899
6117.10259,0.12986
6119.03106,0.15306
6120.95952,0.15976
6122.88799,0.13086
6124.81646,0.06336
6126.74493,0.01444
6128.67340,0.02171
6130.60187,0.05664
6132.53034,0.08660
6134.45880,0.09705
6136.38727,0.10726
6138.31574,0.11342
6140.24421,0.09984
6142.17268,0.10477
6144.10115,0.11868
6146.02962,0.09713
6147.95809,0.08952
6149.88655,0.12909
6151.81502,0.15520
6153.74349,0.13933
6155.67196,0.12538
6157.60043,0.12851
6159.52890,0.11069
6161.45737,0.05904
6163.38583,0.00778
6165.31430,-0.02547
6167.24277,-0.00630
6169.17124,0.06481
6171.09971,0.12451
6173.02818,0.14189
6174.95665,0.12047
6176.88512,0.07744
6178.81358,0.04841
6180.74205,0.04652
6182.67052,0.05614
6184.59899,0.05735
6186.52746,0.05847
6188.45593,0.07860
6190.38440,0.08951
6192.31286,0.06116
6194.24133,0.02907
6196.16980,0.05267
6198.09827,0.11510
6200.02674,0.13704
6201.95521,0.11234
6203.88368,0.09443
6205.81215,0.10548
6207.74061,0.12708
6209.66908,0.15200
6211.59755,0.19315
6213.52602,0.22604
6215.45449,0.20584
6217.38296,0.12258
6219.31143,0.02554
6221.23989,-0.03498
6223.16836,-0.04979
6225.09683,-0.02382
6227.02530,0.00596
6228.95377,0.01670
6230.88224,0.04003
6232.81071,0.06972
6234.73918,0.07027
6236.66764,0.04629
6238.59611,0.01899
6240.52458,-0.00264
6242.45305,-0.01009
6244.38152,0.01838
6246.30999,0.06430
6248.23846,0.07296
6250.16692,0.02859
6252.09539,-0.01300
6254.02386,0.00422
6255.95233,0.06234
6257.88080,0.13302
6259.80927,0.18221
6261.73774,0.16302
6263.66621,0.11321
6265.59467,0.10234
6267.52314,0.11588
6269.45161,0.12147
6271.38008,0.09442
6273.30855,0.04583
6275.23702,0.04566
6277.16549,0.09064
6279.09395,0.11492
6281.02242,0.09641
6282.95089,0.05052
6284.87936,0.04012
6286.80783,0.10025
6288.73630,0.16471
6290.66477,0.17409
6292.59323,0.15580
6294.52170,0.14136
6296.45017,0.11583
6298.37864,0.07088
6300.30711,0.04776
6302.23558,0.06778
6304.16405,0.08392
6306.09252,0.08238
6308.02098,0.07411
6309.94945,0.06521
6311.87792,0.06906
6313.80639,0.08079
6315.73486,0.10576
6317.66333,0.13843
6319.59180,0.13672
6321.52026,0.08676
6323.44873,0.03875
6325.37720,0.03897
6327.30567,0.07463
6329.23414,0.13359
6331.16261,0.19142
6333.09108,0.21578
6335.01955,0.23325
6336.94801,0.22273
6338.87648,0.14302
6340.80495,0.06221
6342.73342,0.03145
6344.66189,0.01537
6346.59036,0.00103
6348.51883,0.01499
6350.44729,0.06198
6352.37576,0.11028
6354.30423,0.12541
6356.23270,0.09998
6358.16117,0.07728
6360.08964,0.09828
6362.01811,0.09593
6363.94658,0.03810
6365.87504,0.01343
6367.80351,0.03083
6369.73198,0.03981
6371.66045,0.08438
6373.58892,0.13615
6375.51739,0.08286
6377.44586,-0.01004
6379.37432,-0.01307
6381.30279,0.04181
6383.23126,0.05541
6385.15973,0.03436
6387.08820,0.02759
6389.01667,0.02570
6390.94514,0.05334
6392.87361,0.12650
6394.80207,0.17792
6396.73054,0.16894
6398.65901,0.11828
6400.58748,0.07494
6402.51595,0.09071
6404.44442,0.11428
6406.37289,0.06606
6408.30135,-0.00074
6410.22982,0.00069
6412.15829,0.03145
6414.08676,0.06681
6416.01523,0.10542
6417.94370,0.10329
6419.87217,0.06726
6421.80064,0.02773
6423.72910,-0.01010
6425.65757,-0.01472
6427.58604,0.04458
6429.51451,0.11847
6431.44298,0.14121
6433.37145,0.13874
6435.29992,0.09883
6437.22838,0.02965
6439.15685,0.01774
6441.08532,-0.01316
6443.01379,-0.11456
6444.94226,-0.12130
6446.87073,-0.00108
6448.79920,0.07405
6450.72766,0.05031
6452.65613,0.03045
6454.58460,0.03469
6456.51307,0.02489
6458.44154,0.04636
6460.37001,0.12821
6462.29848,0.19680
6464.22695,0.19275
6466.15541,0.13780
6468.08388,0.08444
6470.01235,0.08167
6471.94082,0.11377
6473.86929,0.12512
6475.79776,0.08764
6477.72623,0.02731
6479.65469,0.03030
6481.58316,0.10288
6483.51163,0.14714
6485.44010,0.12862
6487.36857,0.09387
6489.29704,0.08245
6491.22551,0.10515
6493.15398,0.15626
6495.08244,0.18710
6497.01091,0.15453
6498.93938,0.10639
6500.86785,0.09531
6502.79632,0.08014
6504.72479,0.03106
6506.65326,0.01023
6508.58172,0.04262
6510.51019,0.07679
6512.43866,0.08596
6514.36713,0.07836
6516.29560,0.08829
6518.22407,0.11417
6520.15254,0.10626
6522.08101,0.08392
6524.00947,0.06561
6525.93794,0.03585
6527.86641,0.05423
6529.79488,0.11211
6531.72335,0.11859
6533.65182,0.09581
6535.58029,0.06591
6537.50875,0.02402
6539.43722,0.03401
6541.36569,0.06560
6543.29416,0.05154
6545.22263,0.05914
6547.15110,0.11492
6549.07957,0.13321
6551.00804,0.10165
6552.93650,0.09312
6554.86497,0.06828
6556.79344,-0.01352
6558.72191,-0.04689
6560.65038,0.02221
6562.57885,0.08116
6564.50732,0.08738
6566.43578,0.10538
6568.36425,0.14159
6570.29272,0.16029
6572.22119,0.15654
6574.14966,0.12012
6576.07813,0.04532
6578.00660,0.01845
6579.93507,0.06331
6581.86353,0.12286
6583.79200,0.21515
6585.72047,0.29816
6587.64894,0.27993
6589.57741,0.14482
6591.50588,-0.01165
6593.43435,-0.06324
6595.36281,-0.00873
6597.29128,0.02007
6599.21975,0.02045
6601.14822,0.08988
6603.07669,0.14821
6605.00516,0.08813
6606.93363,0.00676
6608.86210,-0.01694
6610.79056,-0.03230
6612.71903,-0.01454
6614.64750,0.08255
6616.57597,0.19306
6618.50444,0.24192
6620.43291,0.21445
6622.36138,0.14030
6624.28984,0.09522
6626.21831,0.13015
6628.14678,0.13848
6630.07525,0.04103
6632.00372,-0.01371
6633.93219,0.03668
6635.86066,0.11164
6637.78912,0.13484
6639.71759,0.11964
6641.64606,0.10245
6643.57453,0.08664
6645.50300,0.08367
6647.43147,0.07415
6649.35994,0.05710
6651.28841,0.06256
6653.21687,0.11466
6655.14534,0.19787
6657.07381,0.23678
6659.00228,0.21408
6660.93075,0.14302
6662.85922,0.08932
6664.78769,0.12653
6666.71615,0.17103
6668.64462,0.15204
6670.57309,0.12175
6672.50156,0.15752
6674.43003,0.25003
6676.35850,0.28612
6678.28697,0.23378
6680.21544,0.17115
6682.14390,0.12146
6684.07237,0.06571
6686.00084,0.05475
6687.92931,0.10169
6689.85778,0.11390
6691.78625,0.06665
6693.71472,0.04716
6695.64318,0.06912
6697.57165,0.06056
6699.50012,0.05390
6701.42859,0.08129
6703.35706,0.06714
6705.28553,0.01387
6707.21400,-0.01167
6709.14247,0.04039
6711.07093,0.10912
6712.99940,0.11078
6714.92787,0.09103
6716.85634,0.11223
6718.78481,0.12428
6720.71328,0.06181
6722.64175,-0.01263
6724.57021,-0.00501
6726.49868,0.05831
6728.42715,0.12972
6730.35562,0.17924
6732.28409,0.17563
6734.21256,0.15619
6736.14103,0.16540
6738.06950,0.20245
6739.99796,0.23563
6741.92643,0.20177
6743.85490,0.12021
6745.78337,0.07896
6747.71184,0.10770
6749.64031,0.15487
6751.56878,0.14671
6753.49724,0.11623
6755.42571,0.13997
6757.35418,0.18719
6759.28265,0.19439
6761.21112,0.16527
6763.13959,0.13185
6765.06806,0.10429
6766.99653,0.09826
6768.92499,0.12032
6770.85346,0.10763
6772.78193,0.04263
6774.71040,0.00283
6776.63887,0.00338
6778.56734,0.02987
6780.49581,0.07173
6782.42427,0.05801
6784.35274,-0.01655
6786.28121,-0.03649
6788.20968,0.03702
6790.13815,0.08902
6792.06662,0.10076
6793.99509,0.15388
6795.92355,0.17682
6797.85202,0.17526
6799.78049,0.24337
6801.70896,0.32594
6803.63743,0.27438
6805.56590,0.06005
6807.49437,-0.14513
6809.42284,-0.21696
6811.35130,-0.20125
6813.27977,-0.18970
6815.20824,-0.16259
6817.13671,-0.06722
6819.06518,0.05012
6820.99365,0.13561
6822.92212,0.12771
6824.85058,0.04940
6826.77905,0.02460
6828.70752,0.03810
6830.63599,0.05960
6832.56446,0.17577
6834.49293,0.35114
6836.42140,0.39082
6838.34987,0.29564
6840.27833,0.20763
6842.20680,0.10849
6844.13527,0.02905
6846.06374,0.04930
6847.99221,0.10944
6849.92068,0.10706
6851.84915,0.06978
6853.77761,0.03714
6855.70608,0.03656
6857.63455,0.09124
6859.56302,0.15987
6861.49149,0.24510
6863.41996,0.30708
6865.34843,0.25637
6867.27690,0.13985
6869.20536,0.07245
6871.13383,0.05427
6873.06230,0.04244
6874.99077,0.05368
6876.91924,0.10182
6878.84771,0.15948
6880.77618,0.19190
6882.70464,0.16801
6884.63311,0.11163
6886.56158,0.05225
6888.49005,-0.01472
6890.41852,-0.02017
6892.34699,0.06463
6894.27546,0.11563
6896.20393,0.13112
6898.13239,0.16220
6900.06086,0.14011
6901.98933,0.07098
6903.91780,0.00809
6905.84627,-0.02977
6907.77474,-0.02600
6909.70321,0.00193
6911.63167,-0.00452
6913.56014,-0.05185
6915.48861,-0.02523
6917.41708,0.08928
6919.34555,0.11174
6921.27402,0.00900
6923.20249,-0.04050
6925.13096,-0.02083
6927.05942,0.02554
6928.98789,0.11999
6930.91636,0.21264
6932.84483,0.19357
6934.77330,0.13059
6936.70177,0.13121
6938.63024,0.11511
6940.55870,0.02397
6942.48717,-0.00856
6944.41564,-0.00289
6946.34411,-0.00215
6948.27258,0.00907
6950.20105,-0.01725
6952.12952,0.01996
6954.05799,0.17190
6955.98645,0.27559
6957.91492,0.26231
6959.84339,0.15128
6961.77186,-0.01695
6963.70033,-0.11473
6965.62880,-0.10127
6967.55727,-0.02210
6969.48573,0.03521
6971.41420,0.02873
6973.34267,0.00452
6975.27114,-0.05138
6977.19961,-0.13220
6979.12808,-0.13760
6981.05655,-0.06460
6982.98501,-0.01598
6984.91348,-0.04834
6986.84195,-0.05748
6988.77042,0.04675
6990.69889,0.13884
6992.62736,0.10226
6994.55583,0.01027
6996.48430,-0.05378
6998.41276,-0.03670
7000.34123,0.05002
7002.26970,0.07065
7004.19817,0.01973
7006.12664,0.02189
7008.05511,0.12145
7009.98358,0.21716
7011.91204,0.24049
7013.84051,0.20844
7015.76898,0.12553
7017.69745,0.02258
7019.62592,-0.04048
7021.55439,-0.02398
7023.48286,0.05513
7025.41133,0.06845
7027.33979,-0.00392
7029.26826,-0.00221
7031.19673,0.08778
7033.12520,0.16413
7035.05367,0.16905
7036.98214,0.10484
7038.91061,0.04550
7040.83907,-0.00357
7042.76754,-0.03526
7044.69601,-0.00887
7046.62448,0.06435
7048.55295,0.12147
7050.48142,0.07747
7052.40989,-0.01779
7054.33836,-0.03607
7056.26682,0.01545
7058.19529,0.05613
7060.12376,0.08350
7062.05223,0.14701
7063.98070,0.23395
7065.90917,0.22391
7067.83764,0.07688
7069.76610,-0.07473
7071.69457,-0.09078
7073.62304,-0.03894
7075.55151,0.02805
7077.47998,0.12731
7079.40845,0.17611
7081.33692,0.11358
7083.26539,0.04544
7085.19385,-0.03981
7087.12232,-0.17813
7089.05079,-0.18820
7090.97926,0.02152
7092.90773,0.24014
7094.83620,0.28402
7096.76467,0.25650
7098.69313,0.26533
7100.62160,0.26062
7102.55007,0.22669
7104.47854,0.19277
7106.40701,0.10911
7108.33548,-0.01810
7110.26395,-0.07513
7112.19242,-0.03300
7114.12088,0.07697
7116.04935,0.12071
7117.97782,0.01697
7119.90629,-0.00785
7121.83476,0.08018
7123.76323,0.13153
7125.69170,0.11310
7127.62016,0.04051
7129.54863,-0.02505
7131.47710,-0.01635
7133.40557,0.09080
7135.33404,0.19431
7137.26251,0.21369
7139.19098,0.22028
7141.11944,0.18292
7143.04791,0.02837
7144.97638,-0.12796
7146.90485,-0.20182
7148.83332,-0.22157
7150.76179,-0.20557
7152.69026,-0.12709
7154.61873,0.02390
7156.54719,0.09589
7158.47566,0.06549
7160.40413,0.05851
7162.33260,0.10013
7164.26107,0.13078
7166.18954,0.11771
7168.11801,0.14500
7170.04647,0.19761
7171.97494,0.02790
7173.90341,-0.20052
7175.83188,-0.11497
7177.76035,0.15809
7179.68882,0.32434
7181.61729,0.42562
7183.54576,0.48883
7185.47422,0.40322
7187.40269,0.22546
7189.33116,0.09054
7191.25963,0.03772
7193.18810,0.03673
7195.11657,0.09757
7197.04504,0.18961
7198.97350,0.20975
7200.90197,0.18416
7202.83044,0.20482
7204.75891,0.22295
7206.68738,0.08708
7208.61585,-0.07290
7210.54432,-0.08359
7212.47279,-0.01059
7214.40125,0.00284
7216.32972,0.02022
7218.25819,0.19302
7220.18666,0.26727
7222.11513,0.12966
7224.04360,0.03492
7225.97207,0.08599
7227.90053,0.13381
7229.82900,0.09873
7231.75747,0.08424
7233.68594,0.12942
7235.61441,0.10418
7237.54288,-0.01707
7239.47135,-0.08884
7241.39982,-0.01379
7243.32828,0.12548
7245.25675,0.16322
7247.18522,0.09707
7249.11369,-0.04262
7251.04216,-0.15257
7252.97063,-0.05408
7254.89910,0.03925
7256.82756,-0.06377
7258.75603,-0.19977
7260.68450,-0.25825
7262.61297,-0.08829
7264.54144,0.26108
7266.46991,0.43715
7268.39838,0.41459
7270.32685,0.28665
7272.25531,0.02541
7274.18378,-0.13537
7276.11225,-0.07000
7278.04072,0.05917
7279.96919,0.15435
7281.89766,0.18486
7283.82613,0.17760
7285.75459,0.18401
7287.68306,0.22619
7289.61153,0.25971
7291.54000,0.21388
7293.46847,0.13911
7295.39694,0.11974
7297.32541,0.18184
7299.25387,0.26502
7301.18234,0.24044
7303.11081,0.10748
7305.03928,-0.00325
7306.96775,0.03248
7308.89622,0.23050
7310.82469,0.30333
7312.75316,0.19442
7314.68162,0.10859
7316.61009,0.10647
7318.53856,0.16625
7320.46703,0.25322
7322.39550,0.27565
7324.32397,0.22325
7326.25244,0.23128
7328.18090,0.24709
7330.10937,0.13701
7332.03784,0.07112
7333.96631,0.07277
7335.89478,0.02915
7337.82325,-0.03951
7339.75172,-0.14917
7341.68019,-0.28846
7343.60865,-0.35671
7345.53712,-0.32315
7347.46559,-0.26286
7349.39406,-0.25021
7351.32253,-0.10776
7353.25100,0.14450
7355.17947,0.24781
7357.10793,0.23654
7359.03640,0.27276
7360.96487,0.17602
7362.89334,0.08494
7364.82181,0.31694
7366.75028,0.48508
7368.67875,0.29539
7370.60722,0.04181
7372.53568,-0.11604
7374.46415,-0.12453
7376.39262,0.10573
7378.32109,0.13658
7380.24956,-0.07928
7382.17803,-0.17119
7384.10650,-0.01657
7386.03496,0.11127
7387.96343,-0.00545
7389.89190,-0.18136
7391.82037,-0.22858
7393.74884,-0.21842
7395.67731,-0.13777
7397.60578,0.01563
7399.53425,0.06976
7401.46271,0.02975
7403.39118,0.00977
7405.31965,0.06145
7407.24812,0.08971
7409.17659,0.00941
7411.10506,-0.05371
7413.03353,-0.05598
7414.96199,-0.05112
7416.89046,0.08568
7418.81893,0.33165
7420.74740,0.25207
7422.67587,-0.02368
7424.60434,-0.14673
7426.53281,-0.16342
7428.46128,-0.15141
7430.38974,-0.08649
7432.31821,-0.01680
7434.24668,0.05071
7436.17515,0.14098
7438.10362,0.21372
7440.03209,0.26014
7441.96056,0.27180
7443.88902,0.21396
7445.81749,0.18018
7447.74596,0.19639
7449.67443,0.17025
7451.60290,0.12782
7453.53137,0.15224
7455.45984,0.20993
7457.38831,0.23422
7459.31677,0.19868
7461.24524,0.05414
7463.17371,-0.11662
7465.10218,-0.12512
7467.03065,-0.08019
7468.95912,-0.05539
7470.88759,0.08461
7472.81605,0.15293
7474.74452,0.03598
7476.67299,0.02533
7478.60146,0.16012
7480.52993,0.19738
7482.45840,0.26547
7484.38687,0.45718
7486.31533,0.43284
7488.24380,0.18339
7490.17227,0.08420
7492.10074,0.12830
7494.02921,0.13144
7495.95768,0.13613
7497.88615,0.15382
