399.19301,-0.42058
401.12148,-0.63303
403.04995,-0.49100
404.97842,-0.25067
406.90689,-0.07778
408.83536,-0.03675
410.76382,-0.10270
412.69229,-0.13053
414.62076,-0.05993
416.54923,0.00542
418.47770,-0.06575
420.40617,-0.07300
422.33464,0.12525
424.26311,0.19869
426.19157,0.06958
428.12004,-0.04361
430.04851,-0.06003
431.97698,0.00259
433.90545,0.06373
435.83392,0.05603
437.76239,-0.00283
439.69085,-0.03843
441.61932,0.00024
443.54779,0.04755
445.47626,0.04951
447.40473,0.04756
449.33320,0.05477
451.26167,0.09505
453.19013,0.15196
455.11860,0.18781
457.04707,0.23697
458.97554,0.26328
460.90401,0.18836
462.83248,0.09157
464.76095,0.08717
466.68942,0.15541
468.61788,0.19082
470.54635,0.16023
472.47482,0.08599
474.40329,0.00363
476.33176,-0.03659
478.26023,-0.04206
480.18870,0.00139
482.11716,0.09686
484.04563,0.19772
485.97410,0.27178
487.90257,0.25336
489.83104,0.15049
491.75951,0.09610
493.68798,0.10271
495.61645,0.09632
497.54491,0.06359
499.47338,0.03887
501.40185,0.05279
503.33032,0.09304
505.25879,0.11679
507.18726,0.11951
509.11573,0.11455
511.04419,0.10537
512.97266,0.09272
514.90113,0.07449
516.82960,0.05899
518.75807,0.08328
520.68654,0.14319
522.61501,0.16013
524.54348,0.11792
526.47194,0.10254
528.40041,0.13865
530.32888,0.15942
532.25735,0.12616
534.18582,0.08796
536.11429,0.09409
538.04276,0.10852
539.97122,0.09170
541.89969,0.07190
543.82816,0.08494
545.75663,0.12034
547.68510,0.15110
549.61357,0.16154
551.54204,0.17049
553.47051,0.19021
555.39897,0.17909
557.32744,0.12817
559.25591,0.09331
561.18438,0.08502
563.11285,0.08702
565.04132,0.11624
566.96979,0.15240
568.89825,0.14277
570.82672,0.11453
572.75519,0.12234
574.68366,0.14115
576.61213,0.13650
578.54060,0.13504
580.46907,0.14378
582.39754,0.14131
584.32600,0.13017
586.25447,0.11409
588.18294,0.09105
590.11141,0.07186
592.03988,0.07029
593.96835,0.09245
595.89682,0.12408
597.82528,0.13863
599.75375,0.12654
601.68222,0.11494
603.61069,0.12216
605.53916,0.12426
607.46763,0.11007
609.39610,0.10035
611.32456,0.10424
613.25303,0.10272
615.18150,0.09853
617.10997,0.10897
619.03844,0.11722
620.96691,0.11514
622.89538,0.11992
624.82385,0.13777
626.75231,0.15061
628.68078,0.14042
630.60925,0.12236
632.53772,0.11854
634.46619,0.12413
636.39466,0.12719
638.32313,0.13396
640.25159,0.14175
642.18006,0.13955
644.10853,0.14005
646.03700,0.15326
647.96547,0.17037
649.89394,0.17351
651.82241,0.15053
653.75088,0.11536
655.67934,0.09221
657.60781,0.09590
659.53628,0.11924
661.46475,0.13247
663.39322,0.12046
665.32169,0.09671
667.25016,0.08609
669.17862,0.11324
671.10709,0.13592
673.03556,0.13522
674.96403,0.12057
676.89250,0.10309
678.82097,0.10137
680.74944,0.11280
682.67791,0.12273
684.60637,0.13249
686.53484,0.14569
688.46331,0.15897
690.39178,0.17007
692.32025,0.17531
694.24872,0.17281
696.17719,0.16415
698.10565,0.14770
700.03412,0.13038
701.96259,0.12298
703.89106,0.12530
705.81953,0.13128
707.74800,0.13383
709.67647,0.12908
711.60494,0.12046
713.53340,0.11392
715.46187,0.11634
717.39034,0.13222
719.31881,0.14780
721.24728,0.14748
723.17575,0.14011
725.10422,0.13858
727.03268,0.14313
728.96115,0.14410
730.88962,0.13706
732.81809,0.13710
734.74656,0.15355
736.67503,0.16691
738.60350,0.16428
740.53197,0.15621
742.46043,0.14718
744.38890,0.13856
746.31737,0.13812
748.24584,0.14424
750.17431,0.15177
752.10278,0.15576
754.03125,0.14688
755.95971,0.13416
757.88818,0.13713
759.81665,0.14672
761.74512,0.14392
763.67359,0.13080
765.60206,0.11781
767.53053,0.11485
769.45900,0.12333
771.38746,0.12541
773.31593,0.11760
775.24440,0.11683
777.17287,0.12731
779.10134,0.14092
781.02981,0.14478
782.95828,0.13521
784.88674,0.12301
786.81521,0.11843
788.74368,0.12391
790.67215,0.12829
792.60062,0.12217
794.52909,0.11486
796.45756,0.12477
798.38602,0.15423
800.31449,0.17344
802.24296,0.16190
804.17143,0.14445
806.09990,0.13981
808.02837,0.14125
809.95684,0.13929
811.88531,0.13314
813.81377,0.13281
815.74224,0.13998
817.67071,0.14307
819.59918,0.13846
821.52765,0.13616
823.45612,0.14017
825.38459,0.14602
827.31305,0.14982
829.24152,0.15107
831.16999,0.15039
833.09846,0.14946
835.02693,0.15313
836.95540,0.15057
838.88387,0.13673
840.81234,0.13350
842.74080,0.14050
844.66927,0.13735
846.59774,0.13393
848.52621,0.14595
850.45468,0.15720
852.38315,0.15173
854.31162,0.14486
856.24008,0.15031
858.16855,0.15599
860.09702,0.15340
862.02549,0.14788
863.95396,0.14764
865.88243,0.15313
867.81090,0.15062
869.73937,0.14015
871.66783,0.13649
873.59630,0.13761
875.52477,0.13817
877.45324,0.14253
879.38171,0.14524
881.31018,0.13964
883.23865,0.13218
885.16711,0.12691
887.09558,0.12001
889.02405,0.11514
890.95252,0.11696
892.88099,0.11811
894.80946,0.11594
896.73793,0.11679
898.66640,0.12328
900.59486,0.13373
902.52333,0.14542
904.45180,0.15249
906.38027,0.15287
908.30874,0.15482
910.23721,0.15867
912.16568,0.15825
914.09414,0.15321
916.02261,0.14462
917.95108,0.13752
919.87955,0.13908
921.80802,0.14949
923.73649,0.15441
925.66496,0.14677
927.59343,0.14014
929.52189,0.13813
931.45036,0.13804
933.37883,0.14108
935.30730,0.14036
937.23577,0.13817
939.16424,0.14141
941.09271,0.14311
943.02117,0.13713
944.94964,0.13206
946.87811,0.13731
948.80658,0.14369
950.73505,0.14573
952.66352,0.15447
954.59199,0.16635
956.52045,0.16422
958.44892,0.14925
960.37739,0.13689
962.30586,0.13567
964.23433,0.14374
966.16280,0.14929
968.09127,0.14437
970.01974,0.13921
971.94820,0.14155
973.87667,0.14210
975.80514,0.13773
977.73361,0.13835
979.66208,0.14642
981.59055,0.15249
983.51902,0.15016
985.44748,0.14519
987.37595,0.14347
989.30442,0.14590
991.23289,0.14911
993.16136,0.14553
995.08983,0.14143
997.01830,0.14552
998.94677,0.15152
1000.87523,0.15450
1002.80370,0.15437
1004.73217,0.15255
1006.66064,0.15117
1008.58911,0.14870
1010.51758,0.14495
1012.44605,0.14370
1014.37451,0.14262
1016.30298,0.13777
1018.23145,0.13624
1020.15992,0.14562
1022.08839,0.15836
1024.01686,0.15895
1025.94533,0.14125
1027.87380,0.11733
1029.80226,0.11156
1031.73073,0.12685
1033.65920,0.14632
1035.58767,0.16070
1037.51614,0.16180
1039.44461,0.15373
1041.37308,0.14945
1043.30154,0.14956
1045.23001,0.15099
1047.15848,0.15143
1049.08695,0.14997
1051.01542,0.14814
1052.94389,0.14205
1054.87236,0.13483
1056.80083,0.14088
1058.72929,0.15004
1060.65776,0.14736
1062.58623,0.14941
1064.51470,0.16127
1066.44317,0.16368
1068.37164,0.15512
1070.30011,0.15551
1072.22857,0.16616
1074.15704,0.16907
1076.08551,0.16727
1078.01398,0.16884
1079.94245,0.16867
1081.87092,0.16604
1083.79939,0.16184
1085.72786,0.15700
1087.65632,0.15444
1089.58479,0.15466
1091.51326,0.15697
1093.44173,0.16042
1095.37020,0.16536
1097.29867,0.17051
1099.22714,0.17362
1101.15560,0.17625
1103.08407,0.17442
1105.01254,0.16391
1106.94101,0.15658
1108.86948,0.15936
1110.79795,0.16384
1112.72642,0.16658
1114.65489,0.16458
1116.58335,0.15723
1118.51182,0.15384
1120.44029,0.15553
1122.36876,0.15886
1124.29723,0.16429
1126.22570,0.16628
1128.15417,0.16259
1130.08263,0.15723
1132.01110,0.15104
1133.93957,0.14947
1135.86804,0.15608
1137.79651,0.16168
1139.72498,0.15879
1141.65345,0.15563
1143.58191,0.16179
1145.51038,0.16752
1147.43885,0.16316
1149.36732,0.15799
1151.29579,0.15846
1153.22426,0.16372
1155.15273,0.17230
1157.08120,0.17384
1159.00966,0.16588
1160.93813,0.16031
1162.86660,0.16023
1164.79507,0.16163
1166.72354,0.16324
1168.65201,0.16573
1170.58048,0.16781
1172.50894,0.16483
1174.43741,0.15945
1176.36588,0.15898
1178.29435,0.16324
1180.22282,0.16640
1182.15129,0.16454
1184.07976,0.16170
1186.00823,0.16136
1187.93669,0.16122
1189.86516,0.16276
1191.79363,0.16468
1193.72210,0.16177
1195.65057,0.15813
1197.57904,0.15882
1199.50751,0.16128
1201.43597,0.16362
1203.36444,0.16518
1205.29291,0.16267
1207.22138,0.15640
1209.14985,0.15313
1211.07832,0.15802
1213.00679,0.16660
1214.93526,0.16937
1216.86372,0.16581
1218.79219,0.16331
1220.72066,0.16528
1222.64913,0.16906
1224.57760,0.17113
1226.50607,0.17062
1228.43454,0.16822
1230.36300,0.16518
1232.29147,0.16159
1234.21994,0.15930
1236.14841,0.16267
1238.07688,0.16844
1240.00535,0.17003
1241.93382,0.16808
1243.86229,0.16618
1245.79075,0.16632
1247.71922,0.16891
1249.64769,0.17195
1251.57616,0.17047
1253.50463,0.16549
1255.43310,0.16323
1257.36157,0.16250
1259.29003,0.16142
1261.21850,0.16150
1263.14697,0.16188
1265.07544,0.16291
1267.00391,0.16647
1268.93238,0.16982
1270.86085,0.17063
1272.78932,0.17181
1274.71778,0.17180
1276.64625,0.16911
1278.57472,0.16767
1280.50319,0.16584
1282.43166,0.16172
1284.36013,0.16102
1286.28860,0.16603
1288.21706,0.17167
1290.14553,0.17357
1292.07400,0.17216
1294.00247,0.17095
1295.93094,0.16999
1297.85941,0.16698
1299.78788,0.16158
1301.71634,0.15128
1303.64481,0.13901
1305.57328,0.13837
1307.50175,0.15153
1309.43022,0.16329
1311.35869,0.16906
1313.28716,0.17536
1315.21563,0.18114
1317.14409,0.18312
1319.07256,0.18155
1321.00103,0.17894
1322.92950,0.17791
1324.85797,0.17469
1326.78644,0.16710
1328.71491,0.16302
1330.64337,0.16366
1332.57184,0.16402
1334.50031,0.16628
1336.42878,0.17079
1338.35725,0.17604
1340.28572,0.17487
1342.21419,0.16715
1344.14266,0.16762
1346.07112,0.17241
1347.99959,0.17272
1349.92806,0.17085
1351.85653,0.16696
1353.78500,0.16483
1355.71347,0.16575
1357.64194,0.16438
1359.57040,0.16553
1361.49887,0.17703
1363.42734,0.18760
1365.35581,0.18454
1367.28428,0.17862
1369.21275,0.17753
1371.14122,0.17927
1373.06969,0.18224
1374.99815,0.18158
1376.92662,0.17691
1378.85509,0.17657
1380.78356,0.17890
1382.71203,0.17974
1384.64050,0.18264
1386.56897,0.18533
1388.49743,0.18137
1390.42590,0.17832
1392.35437,0.18329
1394.28284,0.19164
1396.21131,0.19518
1398.13978,0.19273
1400.06825,0.18729
1401.99672,0.18353
1403.92518,0.18519
1405.85365,0.19002
1407.78212,0.19185
1409.71059,0.19039
1411.63906,0.18716
1413.56753,0.18428
1415.49600,0.18696
1417.42446,0.19490
1419.35293,0.19886
1421.28140,0.19869
1423.20987,0.19813
1425.13834,0.19338
1427.06681,0.18919
1428.99528,0.18777
1430.92375,0.18351
1432.85221,0.17959
1434.78068,0.18163
1436.70915,0.18377
1438.63762,0.17846
1440.56609,0.17417
1442.49456,0.17661
1444.42303,0.18434
1446.35149,0.19150
1448.27996,0.19242
1450.20843,0.19043
1452.13690,0.19388
1454.06537,0.20445
1455.99384,0.21778
1457.92231,0.21802
1459.85077,0.20470
1461.77924,0.19751
1463.70771,0.19845
1465.63618,0.19894
1467.56465,0.19455
1469.49312,0.19703
1471.42159,0.20910
1473.35006,0.21295
1475.27852,0.20302
1477.20699,0.19752
1479.13546,0.19762
1481.06393,0.19714
1482.99240,0.19545
1484.92087,0.19846
1486.84934,0.20884
1488.77780,0.21975
1490.70627,0.21660
1492.63474,0.20652
1494.56321,0.20398
1496.49168,0.20671
1498.42015,0.20543
1500.34862,0.19618
1502.27709,0.17555
1504.20555,0.16046
1506.13402,0.19372
1508.06249,0.23318
1509.99096,0.21167
1511.91943,0.19781
1513.84790,0.20025
1515.77637,0.21148
1517.70483,0.22410
1519.63330,0.23538
1521.56177,0.24043
1523.49024,0.23053
1525.41871,0.22284
1527.34718,0.21855
1529.27565,0.21068
1531.20412,0.20648
1533.13258,0.21043
1535.06105,0.21401
1536.98952,0.22144
1538.91799,0.24904
1540.84646,0.27715
1542.77493,0.25606
1544.70340,0.22263
1546.63186,0.20142
1548.56033,0.19460
1550.48880,0.19476
1552.41727,0.19765
1554.34574,0.20533
1556.27421,0.21959
1558.20268,0.23124
1560.13115,0.20726
1562.05961,0.19041
1563.98808,0.19078
1565.91655,0.19464
1567.84502,0.20007
1569.77349,0.20571
1571.70196,0.20572
1573.63043,0.20772
1575.55889,0.21153
1577.48736,0.20286
1579.41583,0.19099
1581.34430,0.18493
1583.27277,0.18032
1585.20124,0.17626
1587.12971,0.17515
1589.05818,0.17781
1590.98664,0.18131
1592.91511,0.18225
1594.84358,0.18174
1596.77205,0.18162
1598.70052,0.18167
1600.62899,0.18147
1602.55746,0.18122
1604.48592,0.18195
1606.41439,0.18321
1608.34286,0.18416
1610.27133,0.18663
1612.19980,0.19066
1614.12827,0.19700
1616.05674,0.20695
1617.98521,0.20829
1619.91367,0.20429
1621.84214,0.20785
1623.77061,0.20942
1625.69908,0.20173
1627.62755,0.19624
1629.55602,0.19449
1631.48449,0.19634
1633.41295,0.20663
1635.34142,0.22141
1637.26989,0.22070
1639.19836,0.21313
1641.12683,0.21015
1643.05530,0.21321
1644.98377,0.22676
1646.91223,0.23957
1648.84070,0.23244
1650.76917,0.23178
1652.69764,0.24309
1654.62611,0.22831
1656.55458,0.20789
1658.48305,0.20070
1660.41152,0.20235
1662.33998,0.20534
1664.26845,0.20231
1666.19692,0.20187
1668.12539,0.21115
1670.05386,0.22033
1671.98233,0.22043
1673.91080,0.22183
1675.83926,0.21938
1677.76773,0.21055
1679.69620,0.20745
1681.62467,0.21665
1683.55314,0.23436
1685.48161,0.23085
1687.41008,0.21573
1689.33855,0.20825
1691.26701,0.20396
1693.19548,0.20531
1695.12395,0.21689
1697.05242,0.23138
1698.98089,0.23619
1700.90936,0.22519
1702.83783,0.21358
1704.76629,0.21230
1706.69476,0.20891
1708.62323,0.20014
1710.55170,0.19737
1712.48017,0.20430
1714.40864,0.21838
1716.33711,0.23162
1718.26558,0.22473
1720.19404,0.20793
1722.12251,0.19867
1724.05098,0.19317
1725.97945,0.18870
1727.90792,0.18937
1729.83639,0.19622
1731.76486,0.20573
1733.69332,0.21177
1735.62179,0.20640
1737.55026,0.20046
1739.47873,0.20006
1741.40720,0.20334
1743.33567,0.20633
1745.26414,0.20941
1747.19261,0.21634
1749.12107,0.22148
1751.04954,0.21481
1752.97801,0.20448
1754.90648,0.19828
1756.83495,0.19470
1758.76342,0.19547
1760.69189,0.20157
1762.62035,0.20381
1764.54882,0.19930
1766.47729,0.19842
1768.40576,0.20301
1770.33423,0.20888
1772.26270,0.21199
1774.19117,0.20807
1776.11964,0.20170
1778.04810,0.19715
1779.97657,0.19499
1781.90504,0.19434
1783.83351,0.19527
1785.76198,0.19643
1787.69045,0.19689
1789.61892,0.19971
1791.54738,0.20236
1793.47585,0.19800
1795.40432,0.19315
1797.33279,0.19436
1799.26126,0.19862
1801.18973,0.19899
1803.11820,0.19371
1805.04666,0.18831
1806.97513,0.18810
1808.90360,0.19329
1810.83207,0.19695
1812.76054,0.19480
1814.68901,0.19157
1816.61748,0.18843
1818.54595,0.18219
1820.47441,0.17769
1822.40288,0.18234
1824.33135,0.19175
1826.25982,0.19737
1828.18829,0.20058
1830.11676,0.20166
1832.04523,0.19804
1833.97369,0.19418
1835.90216,0.19271
1837.83063,0.19232
1839.75910,0.19361
1841.68757,0.19962
1843.61604,0.20624
1845.54451,0.20398
1847.47298,0.19814
1849.40144,0.19560
1851.32991,0.19466
1853.25838,0.19408
1855.18685,0.19439
1857.11532,0.19429
1859.04379,0.19225
1860.97226,0.18982
1862.90072,0.19008
1864.82919,0.19532
1866.75766,0.20431
1868.68613,0.20654
1870.61460,0.19646
1872.54307,0.18895
1874.47154,0.18841
1876.40001,0.18814
1878.32847,0.18690
1880.25694,0.18844
1882.18541,0.19254
1884.11388,0.19436
1886.04235,0.19278
1887.97082,0.19176
1889.89929,0.19032
1891.82775,0.18726
1893.75622,0.18726
1895.68469,0.18843
1897.61316,0.18725
1899.54163,0.18799
1901.47010,0.19044
1903.39857,0.19098
1905.32704,0.19114
1907.25550,0.19339
1909.18397,0.19577
1911.11244,0.19459
1913.04091,0.19176
1914.96938,0.19130
1916.89785,0.19402
1918.82632,0.19664
1920.75478,0.19685
1922.68325,0.19584
1924.61172,0.19339
1926.54019,0.18994
1928.46866,0.18733
1930.39713,0.18745
1932.32560,0.18858
1934.25407,0.18872
1936.18253,0.19004
1938.11100,0.19147
1940.03947,0.19060
1941.96794,0.18977
1943.89641,0.18978
1945.82488,0.18778
1947.75335,0.18531
1949.68181,0.18446
1951.61028,0.18409
1953.53875,0.18527
1955.46722,0.18856
1957.39569,0.19061
1959.32416,0.19031
1961.25263,0.19068
1963.18110,0.19233
1965.10956,0.19298
1967.03803,0.19165
1968.96650,0.18968
1970.89497,0.18890
1972.82344,0.18859
1974.75191,0.18935
1976.68038,0.19318
1978.60884,0.19637
1980.53731,0.19408
1982.46578,0.18847
1984.39425,0.18489
1986.32272,0.18456
1988.25119,0.18589
1990.17966,0.18789
1992.10812,0.18929
1994.03659,0.18927
1995.96506,0.18903
1997.89353,0.18990
1999.82200,0.19051
2001.75047,0.19016
2003.67894,0.19060
2005.60741,0.19088
2007.53587,0.19042
2009.46434,0.19106
2011.39281,0.19256
2013.32128,0.19413
2015.24975,0.19511
2017.17822,0.19378
2019.10669,0.19066
2021.03515,0.19001
2022.96362,0.19219
2024.89209,0.19158
2026.82056,0.18731
2028.74903,0.18475
2030.67750,0.18564
2032.60597,0.18654
2034.53444,0.18628
2036.46290,0.18622
2038.39137,0.18546
2040.31984,0.18435
2042.24831,0.18555
2044.17678,0.18909
2046.10525,0.19194
2048.03372,0.19149
2049.96218,0.18783
2051.89065,0.18433
2053.81912,0.18411
2055.74759,0.18661
2057.67606,0.18976
2059.60453,0.19148
2061.53300,0.19253
2063.46147,0.19406
2065.38993,0.19339
2067.31840,0.19042
2069.24687,0.18830
2071.17534,0.18807
2073.10381,0.18819
2075.03228,0.18812
2076.96075,0.18936
2078.88921,0.19117
2080.81768,0.19209
2082.74615,0.19124
2084.67462,0.18873
2086.60309,0.18856
2088.53156,0.19198
2090.46003,0.19396
2092.38850,0.19359
2094.31696,0.19407
2096.24543,0.19503
2098.17390,0.19492
2100.10237,0.19415
2102.03084,0.19331
2103.95931,0.19252
2105.88778,0.19312
2107.81624,0.19401
2109.74471,0.19260
2111.67318,0.19094
2113.60165,0.19192
2115.53012,0.19445
2117.45859,0.19464
2119.38706,0.19225
2121.31553,0.19131
2123.24399,0.19403
2125.17246,0.19773
2127.10093,0.19700
2129.02940,0.19281
2130.95787,0.19130
2132.88634,0.19303
2134.81481,0.19413
2136.74327,0.19362
2138.67174,0.19365
2140.60021,0.19415
2142.52868,0.19353
2144.45715,0.19190
2146.38562,0.19056
2148.31409,0.19022
2150.24255,0.19023
2152.17102,0.19030
2154.09949,0.19073
2156.02796,0.19028
2157.95643,0.18833
2159.88490,0.18762
2161.81337,0.18972
2163.74184,0.19257
2165.67030,0.19454
2167.59877,0.19576
2169.52724,0.19494
2171.45571,0.19141
2173.38418,0.18746
2175.31265,0.18434
2177.24112,0.18326
2179.16958,0.18540
2181.09805,0.18853
2183.02652,0.19153
2184.95499,0.19448
2186.88346,0.19428
2188.81193,0.19102
2190.74040,0.18932
2192.66887,0.18966
2194.59733,0.18886
2196.52580,0.18767
2198.45427,0.18906
2200.38274,0.19068
2202.31121,0.18910
2204.23968,0.18729
2206.16815,0.18919
2208.09661,0.19318
2210.02508,0.19483
2211.95355,0.19301
2213.88202,0.19136
2215.81049,0.19195
2217.73896,0.19133
2219.66743,0.18893
2221.59590,0.18871
2223.52436,0.18911
2225.45283,0.18763
2227.38130,0.18805
2229.30977,0.19187
2231.23824,0.19441
2233.16671,0.19328
2235.09518,0.19222
2237.02364,0.19409
2238.95211,0.19556
2240.88058,0.19412
2242.80905,0.19274
2244.73752,0.19247
2246.66599,0.19167
2248.59446,0.19077
2250.52293,0.18981
2252.45139,0.18865
2254.37986,0.18801
2256.30833,0.18788
2258.23680,0.18850
2260.16527,0.18956
2262.09374,0.19137
2264.02221,0.19333
2265.95067,0.19214
2267.87914,0.18860
2269.80761,0.18762
2271.73608,0.19025
2273.66455,0.19334
2275.59302,0.19555
2277.52149,0.19662
2279.44996,0.19496
2281.37842,0.19157
2283.30689,0.19021
2285.23536,0.19227
2287.16383,0.19420
2289.09230,0.19366
2291.02077,0.19309
2292.94924,0.19439
2294.87770,0.19554
2296.80617,0.19356
2298.73464,0.19018
2300.66311,0.18965
2302.59158,0.19158
2304.52005,0.19135
2306.44852,0.18982
2308.37699,0.19281
2310.30545,0.19819
2312.23392,0.19799
2314.16239,0.19255
2316.09086,0.19016
2318.01933,0.19248
2319.94780,0.19421
2321.87627,0.19670
2323.80473,0.20523
2325.73320,0.21563
2327.66167,0.22262
2329.59014,0.22664
2331.51861,0.22524
2333.44708,0.22294
2335.37555,0.22358
2337.30401,0.22019
2339.23248,0.21438
2341.16095,0.20923
2343.08942,0.20556
2345.01789,0.20249
2346.94636,0.19620
2348.87483,0.19288
2350.80330,0.19546
2352.73176,0.19835
2354.66023,0.19491
2356.58870,0.19023
2358.51717,0.19422
2360.44564,0.19984
2362.37411,0.19945
2364.30258,0.20304
2366.23104,0.21245
2368.15951,0.21535
2370.08798,0.21001
2372.01645,0.20562
2373.94492,0.20183
2375.87339,0.19631
2377.80186,0.19266
2379.73033,0.19271
2381.65879,0.19438
2383.58726,0.19599
2385.51573,0.19757
2387.44420,0.19824
2389.37267,0.19889
2391.30114,0.19955
2393.22961,0.19680
2395.15807,0.19240
2397.08654,0.19057
2399.01501,0.19095
2400.94348,0.19124
2402.87195,0.18999
2404.80042,0.18821
2406.72889,0.18792
2408.65736,0.18903
2410.58582,0.18930
2412.51429,0.18819
2414.44276,0.18770
2416.37123,0.18771
2418.29970,0.18773
2420.22817,0.18988
2422.15664,0.19234
2424.08510,0.19128
2426.01357,0.18926
2427.94204,0.19050
2429.87051,0.19365
2431.79898,0.19398
2433.72745,0.19080
2435.65592,0.18785
2437.58439,0.18747
2439.51285,0.18954
2441.44132,0.19272
2443.36979,0.19531
2445.29826,0.19498
2447.22673,0.19200
2449.15520,0.19096
2451.08367,0.19348
2453.01213,0.19528
2454.94060,0.19356
2456.86907,0.19129
2458.79754,0.19057
2460.72601,0.18998
2462.65448,0.18990
2464.58295,0.19033
2466.51142,0.18938
2468.43988,0.18804
2470.36835,0.18916
2472.29682,0.19287
2474.22529,0.19601
2476.15376,0.19669
2478.08223,0.19669
2480.01070,0.19754
2481.93916,0.19835
2483.86763,0.19741
2485.79610,0.19434
2487.72457,0.19131
2489.65304,0.19072
2491.58151,0.19129
2493.50998,0.19085
2495.43844,0.19049
2497.36691,0.19082
2499.29538,0.19137
2501.22385,0.19305
2503.15232,0.19468
2505.08079,0.19399
2507.00926,0.19255
2508.93773,0.19376
2510.86619,0.19587
2512.79466,0.19514
2514.72313,0.19411
2516.65160,0.19467
2518.58007,0.19443
2520.50854,0.19281
2522.43701,0.19173
2524.36547,0.19233
2526.29394,0.19259
2528.22241,0.19287
2530.15088,0.19499
2532.07935,0.19688
2534.00782,0.19715
2535.93629,0.19535
2537.86476,0.19201
2539.79322,0.19012
2541.72169,0.19061
2543.65016,0.19234
2545.57863,0.19516
2547.50710,0.19744
2549.43557,0.19635
2551.36404,0.19349
2553.29250,0.19251
2555.22097,0.19261
2557.14944,0.19245
2559.07791,0.19330
2561.00638,0.19516
2562.93485,0.19728
2564.86332,0.19874
2566.79179,0.19918
2568.72025,0.19869
2570.64872,0.19600
2572.57719,0.19260
2574.50566,0.19240
2576.43413,0.19400
2578.36260,0.19332
2580.29107,0.19261
2582.21953,0.19442
2584.14800,0.19536
2586.07647,0.19375
2588.00494,0.19245
2589.93341,0.19375
2591.86188,0.19602
2593.79035,0.19597
2595.71882,0.19324
2597.64728,0.19060
2599.57575,0.19060
2601.50422,0.19365
2603.43269,0.19707
2605.36116,0.19807
2607.28963,0.19806
2609.21810,0.19850
2611.14656,0.19829
2613.07503,0.19679
2615.00350,0.19541
2616.93197,0.19636
2618.86044,0.19927
2620.78891,0.20097
2622.71738,0.20093
2624.64585,0.20131
2626.57431,0.19973
2628.50278,0.19480
2630.43125,0.19265
2632.35972,0.19496
2634.28819,0.19727
2636.21666,0.19845
2638.14513,0.19777
2640.07359,0.19563
2642.00206,0.19587
2643.93053,0.19791
2645.85900,0.19930
2647.78747,0.20062
2649.71594,0.20157
2651.64441,0.20141
2653.57288,0.19975
2655.50134,0.19680
2657.42981,0.19481
2659.35828,0.19355
2661.28675,0.19160
2663.21522,0.19174
2665.14369,0.19455
2667.07216,0.19789
2669.00062,0.20117
2670.92909,0.20182
2672.85756,0.19853
2674.78603,0.19522
2676.71450,0.19492
2678.64297,0.19536
2680.57144,0.19374
2682.49990,0.19288
2684.42837,0.19610
2686.35684,0.20118
2688.28531,0.20429
2690.21378,0.20302
2692.14225,0.19892
2694.07072,0.19782
2695.99919,0.20067
2697.92765,0.20269
2699.85612,0.20255
2701.78459,0.20284
2703.71306,0.20404
2705.64153,0.20370
2707.57000,0.20087
2709.49847,0.19870
2711.42693,0.19997
2713.35540,0.20225
2715.28387,0.20259
2717.21234,0.20211
2719.14081,0.20143
2721.06928,0.20014
2722.99775,0.19819
2724.92622,0.19456
2726.85468,0.19264
2728.78315,0.19613
2730.71162,0.20085
2732.64009,0.20270
2734.56856,0.20232
2736.49703,0.20184
2738.42550,0.20197
2740.35396,0.20224
2742.28243,0.20312
2744.21090,0.20306
2746.13937,0.20132
2748.06784,0.19937
2749.99631,0.19806
2751.92478,0.19893
2753.85325,0.20156
2755.78171,0.20495
2757.71018,0.20755
2759.63865,0.20666
2761.56712,0.20498
2763.49559,0.20408
2765.42406,0.20122
2767.35253,0.19821
2769.28099,0.19873
2771.20946,0.20196
2773.13793,0.20527
2775.06640,0.20702
2776.99487,0.20591
2778.92334,0.20379
2780.85181,0.20304
2782.78028,0.20372
2784.70874,0.20641
2786.63721,0.20976
2788.56568,0.21166
2790.49415,0.21159
2792.42262,0.21038
2794.35109,0.20915
2796.27956,0.20803
2798.20802,0.20755
2800.13649,0.20729
2802.06496,0.20635
2803.99343,0.20599
2805.92190,0.20801
2807.85037,0.20985
2809.77884,0.20950
2811.70731,0.20918
2813.63577,0.20860
2815.56424,0.20861
2817.49271,0.21045
2819.42118,0.21139
2821.34965,0.21209
2823.27812,0.21378
2825.20659,0.21275
2827.13505,0.20983
2829.06352,0.20948
2830.99199,0.20924
2832.92046,0.20733
2834.84893,0.20562
2836.77740,0.20414
2838.70587,0.20392
2840.63433,0.20571
2842.56280,0.20817
2844.49127,0.20909
2846.41974,0.20911
2848.34821,0.20779
2850.27668,0.20280
2852.20515,0.20040
2854.13362,0.20493
2856.06208,0.21040
2857.99055,0.21157
2859.91902,0.20836
2861.84749,0.20484
2863.77596,0.20432
2865.70443,0.20678
2867.63290,0.21069
2869.56136,0.21169
2871.48983,0.20799
2873.41830,0.20350
2875.34677,0.20147
2877.27524,0.20274
2879.20371,0.20569
2881.13218,0.20822
2883.06065,0.20918
2884.98911,0.20965
2886.91758,0.21208
2888.84605,0.21325
2890.77452,0.21104
2892.70299,0.20908
2894.63146,0.20748
2896.55993,0.20491
2898.48839,0.20432
2900.41686,0.20627
2902.34533,0.20554
2904.27380,0.19940
2906.20227,0.19250
2908.13074,0.19304
2910.05921,0.19944
2911.98768,0.20203
2913.91614,0.20128
2915.84461,0.20148
2917.77308,0.20255
2919.70155,0.20573
2921.63002,0.20991
2923.55849,0.21100
2925.48696,0.20942
2927.41542,0.20948
2929.34389,0.21164
2931.27236,0.21030
2933.20083,0.20227
2935.12930,0.19294
2937.05777,0.18868
2938.98624,0.19248
2940.91471,0.20007
2942.84317,0.20367
2944.77164,0.20068
2946.70011,0.19274
2948.62858,0.18984
2950.55705,0.19810
2952.48552,0.21086
2954.41399,0.21744
2956.34245,0.20888
2958.27092,0.19540
2960.19939,0.19394
2962.12786,0.20044
2964.05633,0.20440
2965.98480,0.20415
2967.91327,0.20158
2969.84174,0.20174
2971.77020,0.20607
2973.69867,0.20922
2975.62714,0.20868
2977.55561,0.20568
2979.48408,0.20593
2981.41255,0.21088
2983.34102,0.21244
2985.26948,0.20810
2987.19795,0.20296
2989.12642,0.20450
2991.05489,0.21286
2992.98336,0.21673
2994.91183,0.21310
2996.84030,0.20912
2998.76877,0.20805
3000.69723,0.21040
3002.62570,0.21389
3004.55417,0.21524
3006.48264,0.21527
3008.41111,0.21341
3010.33958,0.20495
3012.26805,0.18650
3014.19651,0.15927
3016.12498,0.13657
3018.05345,0.14261
3019.98192,0.17719
3021.91039,0.20934
3023.83886,0.22092
3025.76733,0.21753
3027.69579,0.21116
3029.62426,0.20841
3031.55273,0.20825
3033.48120,0.20975
3035.40967,0.21200
3037.33814,0.21300
3039.26661,0.21285
3041.19508,0.21108
3043.12354,0.20706
3045.05201,0.20317
3046.98048,0.20158
3048.90895,0.20345
3050.83742,0.20712
3052.76589,0.20783
3054.69436,0.20335
3056.62282,0.19588
3058.55129,0.19315
3060.47976,0.19787
3062.40823,0.20298
3064.33670,0.20223
3066.26517,0.19699
3068.19364,0.19759
3070.12211,0.20569
3072.05057,0.21046
3073.97904,0.20460
3075.90751,0.19398
3077.83598,0.19369
3079.76445,0.20063
3081.69292,0.20016
3083.62139,0.19274
3085.54985,0.18926
3087.47832,0.19535
3089.40679,0.20342
3091.33526,0.20595
3093.26373,0.20072
3095.19220,0.19682
3097.12067,0.20602
3099.04914,0.21506
3100.97760,0.20930
3102.90607,0.19697
3104.83454,0.19469
3106.76301,0.20480
3108.69148,0.21267
3110.61995,0.20704
3112.54842,0.19277
3114.47688,0.18623
3116.40535,0.19230
3118.33382,0.19978
3120.26229,0.20353
3122.19076,0.20828
3124.11923,0.21569
3126.04770,0.22013
3127.97617,0.21611
3129.90463,0.20769
3131.83310,0.20678
3133.76157,0.21332
3135.69004,0.21586
3137.61851,0.21183
3139.54698,0.20584
3141.47545,0.20164
3143.40391,0.20034
3145.33238,0.20187
3147.26085,0.20423
3149.18932,0.20525
3151.11779,0.20848
3153.04626,0.21239
3154.97473,0.21172
3156.90320,0.21090
3158.83166,0.21231
3160.76013,0.21397
3162.68860,0.21717
3164.61707,0.22072
3166.54554,0.22098
3168.47401,0.21831
3170.40248,0.21718
3172.33094,0.21673
3174.25941,0.21456
3176.18788,0.21470
3178.11635,0.21744
3180.04482,0.21871
3181.97329,0.21944
3183.90176,0.22229
3185.83022,0.22609
3187.75869,0.22925
3189.68716,0.22851
3191.61563,0.22083
3193.54410,0.21251
3195.47257,0.21135
3197.40104,0.21556
3199.32951,0.21828
3201.25797,0.21625
3203.18644,0.21322
3205.11491,0.21308
3207.04338,0.21455
3208.97185,0.21609
3210.90032,0.21858
3212.82879,0.22242
3214.75725,0.22235
3216.68572,0.21585
3218.61419,0.21088
3220.54266,0.21073
3222.47113,0.21319
3224.39960,0.21819
3226.32807,0.22057
3228.25654,0.21516
3230.18500,0.20979
3232.11347,0.21209
3234.04194,0.21633
3235.97041,0.21612
3237.89888,0.21290
3239.82735,0.21332
3241.75582,0.21789
3243.68428,0.21982
3245.61275,0.21779
3247.54122,0.21315
3249.46969,0.20813
3251.39816,0.20799
3253.32663,0.21253
3255.25510,0.21459
3257.18357,0.21244
3259.11203,0.21056
3261.04050,0.21086
3262.96897,0.21225
3264.89744,0.21267
3266.82591,0.21326
3268.75438,0.21293
3270.68285,0.20881
3272.61131,0.20552
3274.53978,0.20469
3276.46825,0.20365
3278.39672,0.20578
3280.32519,0.21272
3282.25366,0.21686
3284.18213,0.21335
3286.11060,0.21101
3288.03906,0.21658
3289.96753,0.22071
3291.89600,0.21788
3293.82447,0.21594
3295.75294,0.21786
3297.68141,0.21974
3299.60988,0.21864
3301.53834,0.21656
3303.46681,0.21708
3305.39528,0.21600
3307.32375,0.21263
3309.25222,0.21315
3311.18069,0.21466
3313.10916,0.21192
3315.03763,0.20815
3316.96609,0.20413
3318.89456,0.19994
3320.82303,0.20272
3322.75150,0.21005
3324.67997,0.21062
3326.60844,0.20644
3328.53691,0.20433
3330.46537,0.20449
3332.39384,0.20816
3334.32231,0.21421
3336.25078,0.21958
3338.17925,0.22404
3340.10772,0.22410
3342.03619,0.21970
3343.96466,0.21583
3345.89312,0.21198
3347.82159,0.20837
3349.75006,0.20946
3351.67853,0.21372
3353.60700,0.21644
3355.53547,0.21927
3357.46394,0.22089
3359.39240,0.21582
3361.32087,0.20768
3363.24934,0.20417
3365.17781,0.20816
3367.10628,0.21638
3369.03475,0.22121
3370.96322,0.22052
3372.89168,0.21892
3374.82015,0.21677
3376.74862,0.21268
3378.67709,0.21072
3380.60556,0.21165
3382.53403,0.21117
3384.46250,0.21139
3386.39097,0.21613
3388.31943,0.21750
3390.24790,0.21285
3392.17637,0.21121
3394.10484,0.21316
3396.03331,0.21447
3397.96178,0.21164
3399.89025,0.20497
3401.81871,0.20230
3403.74718,0.20443
3405.67565,0.20563
3407.60412,0.20554
3409.53259,0.20392
3411.46106,0.20008
3413.38953,0.20011
3415.31800,0.20536
3417.24646,0.21081
3419.17493,0.21530
3421.10340,0.21586
3423.03187,0.21062
3424.96034,0.20567
3426.88881,0.20567
3428.81728,0.20747
3430.74574,0.20847
3432.67421,0.20974
3434.60268,0.21049
3436.53115,0.21100
3438.45962,0.21268
3440.38809,0.21266
3442.31656,0.20802
3444.24503,0.20414
3446.17349,0.20613
3448.10196,0.20565
3450.03043,0.19773
3451.95890,0.19412
3453.88737,0.19892
3455.81584,0.20295
3457.74431,0.20261
3459.67277,0.20202
3461.60124,0.20428
3463.52971,0.20525
3465.45818,0.20046
3467.38665,0.19493
3469.31512,0.19387
3471.24359,0.19348
3473.17206,0.19017
3475.10052,0.18956
3477.02899,0.19529
3478.95746,0.19952
3480.88593,0.19639
3482.81440,0.19038
3484.74287,0.18717
3486.67134,0.19032
3488.59980,0.19624
3490.52827,0.19547
3492.45674,0.19173
3494.38521,0.19288
3496.31368,0.19638
3498.24215,0.19576
3500.17062,0.18935
3502.09909,0.18504
3504.02755,0.18710
3505.95602,0.18803
3507.88449,0.18931
3509.81296,0.19499
3511.74143,0.19714
3513.66990,0.19382
3515.59837,0.18953
3517.52683,0.18299
3519.45530,0.17502
3521.38377,0.17131
3523.31224,0.17504
3525.24071,0.18359
3527.16918,0.18912
3529.09765,0.18533
3531.02611,0.17845
3532.95458,0.17765
3534.88305,0.17976
3536.81152,0.17808
3538.73999,0.17594
3540.66846,0.17848
3542.59693,0.18176
3544.52540,0.18173
3546.45386,0.17991
3548.38233,0.17961
3550.31080,0.18244
3552.23927,0.18277
3554.16774,0.17512
3556.09621,0.16755
3558.02468,0.16748
3559.95314,0.17199
3561.88161,0.17700
3563.81008,0.18455
3565.73855,0.19601
3567.66702,0.19855
3569.59549,0.18486
3571.52396,0.16956
3573.45243,0.16189
3575.38089,0.16273
3577.30936,0.16583
3579.23783,0.16724
3581.16630,0.16649
3583.09477,0.16460
3585.02324,0.16733
3586.95171,0.17459
3588.88017,0.17429
3590.80864,0.16775
3592.73711,0.16375
3594.66558,0.16174
3596.59405,0.15855
3598.52252,0.15559
3600.45099,0.15281
3602.37946,0.14927
3604.30792,0.15002
3606.23639,0.15760
3608.16486,0.16446
3610.09333,0.16338
3612.02180,0.16304
3613.95027,0.16573
3615.87874,0.16590
3617.80720,0.16459
3619.73567,0.15951
3621.66414,0.15272
3623.59261,0.14904
3625.52108,0.15047
3627.44955,0.16070
3629.37802,0.16681
3631.30649,0.15646
3633.23495,0.14702
3635.16342,0.14341
3637.09189,0.14280
3639.02036,0.14218
3640.94883,0.14318
3642.87730,0.14727
3644.80577,0.15390
3646.73423,0.16540
3648.66270,0.17356
3650.59117,0.15800
3652.51964,0.14284
3654.44811,0.14227
3656.37658,0.14641
3658.30505,0.14408
3660.23352,0.13927
3662.16198,0.13660
3664.09045,0.13583
3666.01892,0.14035
3667.94739,0.15149
3669.87586,0.15900
3671.80433,0.15707
3673.73280,0.16213
3675.66126,0.17063
3677.58973,0.16282
3679.51820,0.14971
3681.44667,0.14119
3683.37514,0.13725
3685.30361,0.13696
3687.23208,0.14079
3689.16055,0.14381
3691.08901,0.14283
3693.01748,0.14359
3694.94595,0.14236
3696.87442,0.13805
3698.80289,0.13645
3700.73136,0.13979
3702.65983,0.14183
3704.58829,0.13787
3706.51676,0.13516
3708.44523,0.14348
3710.37370,0.15901
3712.30217,0.15741
3714.23064,0.14400
3716.15911,0.13755
3718.08757,0.13601
3720.01604,0.13680
3721.94451,0.14177
3723.87298,0.14801
3725.80145,0.14807
3727.72992,0.14368
3729.65839,0.14379
3731.58686,0.15203
3733.51532,0.16011
3735.44379,0.15505
3737.37226,0.14792
3739.30073,0.14644
3741.22920,0.14651
3743.15767,0.15174
3745.08614,0.15800
3747.01460,0.15225
3748.94307,0.14628
3750.87154,0.14827
3752.80001,0.14613
3754.72848,0.13861
3756.65695,0.13354
3758.58542,0.13198
3760.51389,0.13051
3762.44235,0.12888
3764.37082,0.13113
3766.29929,0.13465
3768.22776,0.13515
3770.15623,0.13430
3772.08470,0.13262
3774.01317,0.13069
3775.94163,0.12954
3777.87010,0.12974
3779.79857,0.12981
3781.72704,0.12942
3783.65551,0.12903
3785.58398,0.12609
3787.51245,0.12314
3789.44092,0.12362
3791.36938,0.12602
3793.29785,0.12991
3795.22632,0.13580
3797.15479,0.14097
3799.08326,0.14337
3801.01173,0.14345
3802.94020,0.14115
3804.86866,0.13996
3806.79713,0.13887
3808.72560,0.13626
3810.65407,0.13448
3812.58254,0.13492
3814.51101,0.13768
3816.43948,0.14132
3818.36795,0.14658
3820.29641,0.14972
3822.22488,0.13786
3824.15335,0.12586
3826.08182,0.12713
3828.01029,0.13181
3829.93876,0.13065
3831.86723,0.12755
3833.79569,0.12545
3835.72416,0.12401
3837.65263,0.12802
3839.58110,0.13233
3841.50957,0.12274
3843.43804,0.11051
3845.36651,0.11227
3847.29498,0.12210
3849.22344,0.12724
3851.15191,0.12830
3853.08038,0.13480
3855.00885,0.13783
3856.93732,0.13290
3858.86579,0.13147
3860.79426,0.13620
3862.72272,0.14363
3864.65119,0.14340
3866.57966,0.13871
3868.50813,0.14046
3870.43660,0.13950
3872.36507,0.12919
3874.29354,0.12086
3876.22200,0.11695
3878.15047,0.11778
3880.07894,0.12405
3882.00741,0.12757
3883.93588,0.12580
3885.86435,0.12404
3887.79282,0.12317
3889.72129,0.12576
3891.64975,0.13061
3893.57822,0.12938
3895.50669,0.12583
3897.43516,0.12922
3899.36363,0.14151
3901.29210,0.15106
3903.22057,0.14739
3905.14903,0.13413
3907.07750,0.12097
3909.00597,0.11434
3910.93444,0.11302
3912.86291,0.11437
3914.79138,0.11651
3916.71985,0.11721
3918.64832,0.11591
3920.57678,0.11592
3922.50525,0.12004
3924.43372,0.12469
3926.36219,0.12583
3928.29066,0.12223
3930.21913,0.11699
3932.14760,0.11849
3934.07606,0.12347
3936.00453,0.12303
3937.93300,0.11791
3939.86147,0.11336
3941.78994,0.11177
3943.71841,0.11063
3945.64688,0.11304
3947.57535,0.11997
3949.50381,0.12239
3951.43228,0.11778
3953.36075,0.11410
3955.28922,0.11545
3957.21769,0.11815
3959.14616,0.11825
3961.07463,0.11809
3963.00309,0.11740
3964.93156,0.11359
3966.86003,0.11102
3968.78850,0.11046
3970.71697,0.10614
3972.64544,0.10061
3974.57391,0.10045
3976.50238,0.10559
3978.43084,0.11125
3980.35931,0.11126
3982.28778,0.10841
3984.21625,0.10866
3986.14472,0.10819
3988.07319,0.10754
3990.00166,0.11009
3991.93012,0.11061
3993.85859,0.10548
3995.78706,0.10008
3997.71553,0.10069
3999.64400,0.10440
4001.57247,0.10628
4003.50094,0.10948
4005.42941,0.11612
4007.35787,0.11896
4009.28634,0.11386
4011.21481,0.10769
4013.14328,0.10622
4015.07175,0.10765
4017.00022,0.10548
4018.92869,0.09747
4020.85715,0.09060
4022.78562,0.08963
4024.71409,0.09338
4026.64256,0.09840
4028.57103,0.10158
4030.49950,0.10259
4032.42797,0.10032
4034.35644,0.09724
4036.28490,0.09610
4038.21337,0.09536
4040.14184,0.09631
4042.07031,0.09803
4043.99878,0.10040
4045.92725,0.10521
4047.85572,0.10780
4049.78418,0.10539
4051.71265,0.10169
4053.64112,0.10046
4055.56959,0.10173
4057.49806,0.10225
4059.42653,0.09906
4061.35500,0.09554
4063.28346,0.09581
4065.21193,0.09664
4067.14040,0.09554
4069.06887,0.09257
4070.99734,0.09066
4072.92581,0.09345
4074.85428,0.09613
4076.78275,0.09449
4078.71121,0.09297
4080.63968,0.09399
4082.56815,0.09484
4084.49662,0.09502
4086.42509,0.09764
4088.35356,0.10198
4090.28203,0.10108
4092.21049,0.09643
4094.13896,0.09455
4096.06743,0.09480
4097.99590,0.09900
4099.92437,0.10378
4101.85284,0.10206
4103.78131,0.09759
4105.70978,0.09362
4107.63824,0.09171
4109.56671,0.09314
4111.49518,0.09317
4113.42365,0.09025
4115.35212,0.08988
4117.28059,0.09356
4119.20906,0.09439
4121.13752,0.08985
4123.06599,0.08724
4124.99446,0.09064
4126.92293,0.09378
4128.85140,0.09025
4130.77987,0.08547
4132.70834,0.08575
4134.63681,0.08532
4136.56527,0.08303
4138.49374,0.08685
4140.42221,0.09352
4142.35068,0.09338
4144.27915,0.08773
4146.20762,0.08297
4148.13609,0.08264
4150.06455,0.08696
4151.99302,0.08871
4153.92149,0.08612
4155.84996,0.08835
4157.77843,0.09126
4159.70690,0.08534
4161.63537,0.07745
4163.56384,0.07505
4165.49230,0.07562
4167.42077,0.07592
4169.34924,0.07452
4171.27771,0.07320
4173.20618,0.07593
4175.13465,0.07928
4177.06312,0.08036
4178.99158,0.08359
4180.92005,0.08673
4182.84852,0.08476
4184.77699,0.08143
4186.70546,0.07957
4188.63393,0.07625
4190.56240,0.07458
4192.49087,0.07793
4194.41933,0.07684
4196.34780,0.07040
4198.27627,0.07017
4200.20474,0.07260
4202.13321,0.07110
4204.06168,0.07112
4205.99015,0.07404
4207.91861,0.07925
4209.84708,0.08374
4211.77555,0.08141
4213.70402,0.07681
4215.63249,0.07508
4217.56096,0.07369
4219.48943,0.07454
4221.41789,0.07806
4223.34636,0.07776
4225.27483,0.07483
4227.20330,0.07593
4229.13177,0.08185
4231.06024,0.08682
4232.98871,0.08593
4234.91718,0.08224
4236.84564,0.07723
4238.77411,0.07060
4240.70258,0.06630
4242.63105,0.06696
4244.55952,0.07071
4246.48799,0.06955
4248.41646,0.06030
4250.34492,0.05534
4252.27339,0.06261
4254.20186,0.06737
4256.13033,0.06003
4258.05880,0.05368
4259.98727,0.05539
4261.91574,0.06151
4263.84421,0.06698
4265.77267,0.06719
4267.70114,0.06389
4269.62961,0.05796
4271.55808,0.05357
4273.48655,0.05896
4275.41502,0.06995
4277.34349,0.07507
4279.27195,0.07035
4281.20042,0.06282
4283.12889,0.06005
4285.05736,0.06195
4286.98583,0.06734
4288.91430,0.07064
4290.84277,0.06642
4292.77124,0.06247
4294.69970,0.06487
4296.62817,0.06788
4298.55664,0.06857
4300.48511,0.06713
4302.41358,0.06075
4304.34205,0.05202
4306.27052,0.04757
4308.19898,0.04887
4310.12745,0.05359
4312.05592,0.05821
4313.98439,0.05741
4315.91286,0.05193
4317.84133,0.05198
4319.76980,0.05805
4321.69827,0.06270
4323.62673,0.06494
4325.55520,0.06288
4327.48367,0.05956
4329.41214,0.05954
4331.34061,0.05808
4333.26908,0.05661
4335.19755,0.06035
4337.12601,0.06289
4339.05448,0.05957
4340.98295,0.05783
4342.91142,0.06117
4344.83989,0.06408
4346.76836,0.06164
4348.69683,0.05453
4350.62530,0.04909
4352.55376,0.04779
4354.48223,0.04694
4356.41070,0.04773
4358.33917,0.05334
4360.26764,0.05869
4362.19611,0.05873
4364.12458,0.05673
4366.05304,0.05746
4367.98151,0.05741
4369.90998,0.04991
4371.83845,0.04058
4373.76692,0.03972
4375.69539,0.04481
4377.62386,0.04751
4379.55232,0.04707
4381.48079,0.04595
4383.40926,0.04593
4385.33773,0.04858
4387.26620,0.05056
4389.19467,0.04922
4391.12314,0.04566
4393.05161,0.04245
4394.98007,0.04154
4396.90854,0.04002
4398.83701,0.03719
4400.76548,0.03714
4402.69395,0.04411
4404.62242,0.05483
4406.55089,0.05654
4408.47935,0.04618
4410.40782,0.03693
4412.33629,0.03623
4414.26476,0.03572
4416.19323,0.03301
4418.12170,0.03553
4420.05017,0.03847
4421.97864,0.03412
4423.90710,0.02807
4425.83557,0.02629
4427.76404,0.02800
4429.69251,0.02816
4431.62098,0.02773
4433.54945,0.03499
4435.47792,0.04366
4437.40638,0.04196
4439.33485,0.03421
4441.26332,0.02605
4443.19179,0.01684
4445.12026,0.01214
4447.04873,0.01535
4448.97720,0.01909
4450.90567,0.01994
4452.83413,0.02106
4454.76260,0.02317
4456.69107,0.02473
4458.61954,0.02711
4460.54801,0.03131
4462.47648,0.03267
4464.40495,0.03092
4466.33341,0.03203
4468.26188,0.03468
4470.19035,0.03054
4472.11882,0.02007
4474.04729,0.01673
4475.97576,0.02572
4477.90423,0.03234
4479.83270,0.03013
4481.76116,0.03061
4483.68963,0.03778
4485.61810,0.04286
4487.54657,0.03736
4489.47504,0.02637
4491.40351,0.02151
4493.33198,0.02374
4495.26044,0.02724
4497.18891,0.02528
4499.11738,0.01962
4501.04585,0.02159
4502.97432,0.02904
4504.90279,0.03304
4506.83126,0.03390
4508.75973,0.03103
4510.68819,0.02569
4512.61666,0.02101
4514.54513,0.01367
4516.47360,0.00652
4518.40207,0.00590
4520.33054,0.00870
4522.25901,0.01056
4524.18747,0.00980
4526.11594,0.00508
4528.04441,0.00203
4529.97288,0.00712
4531.90135,0.01488
4533.82982,0.01800
4535.75829,0.01306
4537.68676,0.00621
4539.61522,0.01313
4541.54369,0.02744
4543.47216,0.03373
4545.40063,0.03705
4547.32910,0.03737
4549.25757,0.02629
4551.18604,0.01112
4553.11450,0.00725
4555.04297,0.01355
4556.97144,0.01531
4558.89991,0.00985
4560.82838,0.00627
4562.75685,0.01105
4564.68532,0.02002
4566.61378,0.02033
4568.54225,0.01571
4570.47072,0.01806
4572.39919,0.02155
4574.32766,0.02039
4576.25613,0.01658
4578.18460,0.01205
4580.11307,0.00833
4582.04153,0.00278
4583.97000,-0.00458
4585.89847,-0.01062
4587.82694,-0.01179
4589.75541,-0.00433
4591.68388,0.00841
4593.61235,0.01702
4595.54081,0.01509
4597.46928,0.00743
4599.39775,0.00343
4601.32622,0.00339
4603.25469,0.00283
4605.18316,0.00514
4607.11163,0.01445
4609.04010,0.02044
4610.96856,0.01373
4612.89703,0.00178
4614.82550,-0.00367
4616.75397,-0.00317
4618.68244,-0.00667
4620.61091,-0.01261
4622.53938,-0.00977
4624.46784,-0.00094
4626.39631,0.00359
4628.32478,0.00570
4630.25325,0.00926
4632.18172,0.01073
4634.11019,0.01020
4636.03866,0.00842
4637.96713,0.00440
4639.89559,0.00219
4641.82406,-0.00187
4643.75253,-0.00563
4645.68100,0.00235
4647.60947,0.01129
4649.53794,0.01352
4651.46641,0.01662
4653.39487,0.01556
4655.32334,0.00905
4657.25181,0.00242
4659.18028,-0.00790
4661.10875,-0.01628
4663.03722,-0.01730
4664.96569,-0.02112
4666.89416,-0.02053
4668.82262,-0.00610
4670.75109,0.00250
4672.67956,-0.00519
4674.60803,-0.01132
4676.53650,-0.00451
4678.46497,0.00454
4680.39344,0.00658
4682.32190,0.00493
4684.25037,0.00559
4686.17884,0.01145
4688.10731,0.01666
4690.03578,0.01217
4691.96425,-0.00010
4693.89272,-0.00817
4695.82119,-0.00321
4697.74965,0.00966
4699.67812,0.01867
4701.60659,0.01842
4703.53506,0.01262
4705.46353,0.00904
4707.39200,0.00888
4709.32047,0.01112
4711.24893,0.01235
4713.17740,0.00726
4715.10587,0.00326
4717.03434,0.00358
4718.96281,0.00343
4720.89128,0.00338
4722.81975,0.00236
4724.74821,0.00296
4726.67668,0.01098
4728.60515,0.01743
4730.53362,0.01197
4732.46209,0.00607
4734.39056,0.00693
4736.31903,0.00794
4738.24750,0.00978
4740.17596,0.01294
4742.10443,0.01478
4744.03290,0.01192
4745.96137,0.01039
4747.88984,0.02094
4749.81831,0.03639
4751.74678,0.04044
4753.67524,0.02763
4755.60371,0.01344
4757.53218,0.01450
4759.46065,0.02436
4761.38912,0.02329
4763.31759,0.00941
4765.24606,0.00763
4767.17453,0.02077
4769.10299,0.02357
4771.03146,0.01568
4772.95993,0.01484
4774.88840,0.01931
4776.81687,0.02131
4778.74534,0.02092
4780.67381,0.01593
4782.60227,0.01087
4784.53074,0.00931
4786.45921,0.00646
4788.38768,0.00377
4790.31615,0.00408
4792.24462,0.00705
4794.17309,0.01388
4796.10156,0.02448
4798.03002,0.02799
4799.95849,0.02051
4801.88696,0.02082
4803.81543,0.03186
4805.74390,0.02891
4807.67237,0.01053
4809.60084,0.00147
4811.52930,0.00657
4813.45777,0.01212
4815.38624,0.01044
4817.31471,0.00715
4819.24318,0.00969
4821.17165,0.01239
4823.10012,0.01169
4825.02859,0.01005
4826.95705,0.00683
4828.88552,0.00737
4830.81399,0.00978
4832.74246,0.00700
4834.67093,0.00503
4836.59940,0.00066
4838.52787,-0.00848
4840.45633,-0.00640
4842.38480,0.00657
4844.31327,0.01488
4846.24174,0.01714
4848.17021,0.02667
4850.09868,0.03968
4852.02715,0.03441
4853.95562,0.01762
4855.88408,0.00938
4857.81255,0.00870
4859.74102,0.00702
4861.66949,0.00144
4863.59796,-0.00680
4865.52643,-0.01519
4867.45490,-0.01464
4869.38336,0.00265
4871.31183,0.02754
4873.24030,0.03525
4875.16877,0.01760
4877.09724,0.00048
4879.02571,-0.00107
4880.95418,0.00169
4882.88265,0.00236
4884.81111,0.00602
4886.73958,0.01117
4888.66805,0.00710
4890.59652,0.00056
4892.52499,0.00945
4894.45346,0.02505
4896.38193,0.02721
4898.31039,0.01470
4900.23886,0.00311
4902.16733,0.00305
4904.09580,0.00189
4906.02427,-0.00628
4907.95274,-0.00266
4909.88121,0.00716
4911.80967,0.00143
4913.73814,-0.00934
4915.66661,-0.00490
4917.59508,0.00880
4919.52355,0.01602
4921.45202,0.01629
4923.38049,0.01998
4925.30896,0.02887
4927.23742,0.02216
4929.16589,-0.00505
4931.09436,-0.01758
4933.02283,-0.00153
4934.95130,0.01565
4936.87977,0.02160
4938.80824,0.02528
4940.73670,0.02449
4942.66517,0.01415
4944.59364,0.00550
4946.52211,0.00726
4948.45058,0.01361
4950.37905,0.02089
4952.30752,0.02367
4954.23599,0.01379
4956.16445,0.00345
4958.09292,0.00425
4960.02139,0.00924
4961.94986,0.00918
4963.87833,-0.00003
4965.80680,-0.00824
4967.73527,-0.01003
4969.66373,-0.01143
4971.59220,-0.00427
4973.52067,0.01020
4975.44914,0.01515
4977.37761,0.01218
4979.30608,0.01081
4981.23455,0.00946
4983.16302,0.01002
4985.09148,0.02088
4987.01995,0.03711
4988.94842,0.04231
4990.87689,0.03686
4992.80536,0.03149
4994.73383,0.02352
4996.66230,0.01521
4998.59076,0.01431
5000.51923,0.01630
5002.44770,0.02161
5004.37617,0.02095
5006.30464,0.00032
5008.23311,-0.01747
5010.16158,-0.01369
5012.09005,-0.00330
5014.01851,0.00105
5015.94698,0.00764
5017.87545,0.02252
5019.80392,0.02009
5021.73239,-0.00144
5023.66086,0.00179
5025.58933,0.02743
5027.51779,0.03931
5029.44626,0.03419
5031.37473,0.02124
5033.30320,0.01098
5035.23167,0.01133
5037.16014,0.02589
5039.08861,0.04607
5041.01708,0.04333
5042.94554,0.02696
5044.87401,0.02950
5046.80248,0.03743
5048.73095,0.02313
5050.65942,0.00028
5052.58789,0.00231
5054.51636,0.02135
5056.44482,0.02397
5058.37329,0.01729
5060.30176,0.02527
5062.23023,0.04099
5064.15870,0.04756
5066.08717,0.03939
5068.01564,0.02321
5069.94410,0.01113
5071.87257,0.00515
5073.80104,0.00230
5075.72951,0.00414
5077.65798,0.00570
5079.58645,-0.00471
5081.51492,-0.01776
5083.44339,-0.01310
5085.37185,0.00355
5087.30032,0.01816
5089.22879,0.02808
5091.15726,0.03374
5093.08573,0.03939
5095.01420,0.04342
5096.94267,0.04029
5098.87113,0.02951
5100.79960,0.01323
5102.72807,0.00207
5104.65654,0.00260
5106.58501,0.00837
5108.51348,0.01187
5110.44195,0.00789
5112.37042,-0.00028
5114.29888,0.00308
5116.22735,0.02103
5118.15582,0.03174
5120.08429,0.03227
5122.01276,0.04830
5123.94123,0.07224
5125.86970,0.06836
5127.79816,0.03727
5129.72663,0.00571
5131.65510,-0.01703
5133.58357,-0.02330
5135.51204,-0.00413
5137.44051,0.02116
5139.36898,0.03236
5141.29745,0.03881
5143.22591,0.04401
5145.15438,0.04332
5147.08285,0.03971
5149.01132,0.03583
5150.93979,0.03594
5152.86826,0.04030
5154.79673,0.05002
5156.72519,0.05498
5158.65366,0.04008
5160.58213,0.02206
5162.51060,0.01473
5164.43907,0.01384
5166.36754,0.01788
5168.29601,0.01763
5170.22448,0.01139
5172.15294,0.01853
5174.08141,0.03745
5176.00988,0.04810
5177.93835,0.04711
5179.86682,0.03412
5181.79529,0.01636
5183.72376,0.01375
5185.65222,0.02743
5187.58069,0.04368
5189.50916,0.05560
5191.43763,0.05590
5193.36610,0.04321
5195.29457,0.03016
5197.22304,0.02880
5199.15151,0.04588
5201.07997,0.07118
5203.00844,0.08140
5204.93691,0.07327
5206.86538,0.05636
5208.79385,0.04003
5210.72232,0.03931
5212.65079,0.04498
5214.57925,0.04114
5216.50772,0.03354
5218.43619,0.02478
5220.36466,0.02258
5222.29313,0.03752
5224.22160,0.05524
5226.15007,0.05667
5228.07854,0.05138
5230.00700,0.04773
5231.93547,0.02546
5233.86394,-0.00802
5235.79241,-0.01940
5237.72088,-0.00055
5239.64935,0.02897
5241.57782,0.03782
5243.50628,0.02115
5245.43475,0.00972
5247.36322,0.02246
5249.29169,0.03397
5251.22016,0.02614
5253.14863,0.02517
5255.07710,0.03702
5257.00556,0.05074
5258.93403,0.06685
5260.86250,0.05953
5262.79097,0.02218
5264.71944,-0.00088
5266.64791,0.00244
5268.57638,0.01935
5270.50485,0.04012
5272.43331,0.03609
5274.36178,0.00592
5276.29025,-0.01156
5278.21872,0.00856
5280.14719,0.04382
5282.07566,0.06405
5284.00413,0.06965
5285.93259,0.06883
5287.86106,0.06516
5289.78953,0.06035
5291.71800,0.06140
5293.64647,0.06749
5295.57494,0.06063
5297.50341,0.04763
5299.43188,0.04740
5301.36034,0.04759
5303.28881,0.03659
5305.21728,0.03181
5307.14575,0.05313
5309.07422,0.08402
5311.00269,0.08741
5312.93116,0.07464
5314.85962,0.08132
5316.78809,0.09898
5318.71656,0.09312
5320.64503,0.07172
5322.57350,0.05847
5324.50197,0.04821
5326.43044,0.04578
5328.35891,0.05646
5330.28737,0.05485
5332.21584,0.05335
5334.14431,0.06942
5336.07278,0.06880
5338.00125,0.04959
5339.92972,0.04265
5341.85819,0.03841
5343.78665,0.02898
5345.71512,0.02896
5347.64359,0.03592
5349.57206,0.04101
5351.50053,0.04710
5353.42900,0.05014
5355.35747,0.04449
5357.28594,0.04217
5359.21440,0.05726
5361.14287,0.08029
5363.07134,0.08271
5364.99981,0.06476
5366.92828,0.04860
5368.85675,0.04557
5370.78522,0.06098
5372.71368,0.08213
5374.64215,0.08646
5376.57062,0.06949
5378.49909,0.05607
5380.42756,0.04908
5382.35603,0.03256
5384.28450,0.02554
5386.21297,0.04578
5388.14143,0.06491
5390.06990,0.05891
5391.99837,0.03149
5393.92684,0.01351
5395.85531,0.02022
5397.78378,0.02903
5399.71225,0.04182
5401.64071,0.05652
5403.56918,0.05850
5405.49765,0.05575
5407.42612,0.05282
5409.35459,0.05348
5411.28306,0.06955
5413.21153,0.08009
5415.13999,0.06479
5417.06846,0.05404
5418.99693,0.05536
5420.92540,0.05258
5422.85387,0.06005
5424.78234,0.08997
5426.71081,0.11908
5428.63928,0.11219
5430.56774,0.07152
5432.49621,0.04138
5434.42468,0.03666
5436.35315,0.04099
5438.28162,0.04684
5440.21009,0.06151
5442.13856,0.07334
5444.06702,0.05881
5445.99549,0.03736
5447.92396,0.04964
5449.85243,0.07272
5451.78090,0.06912
5453.70937,0.06859
5455.63784,0.09276
5457.56631,0.10783
5459.49477,0.09230
5461.42324,0.06774
5463.35171,0.05649
5465.28018,0.06270
5467.20865,0.07043
5469.13712,0.05563
5471.06559,0.02913
5472.99405,0.03595
5474.92252,0.07799
5476.85099,0.09638
5478.77946,0.08604
5480.70793,0.09055
5482.63640,0.09967
5484.56487,0.08767
5486.49334,0.06564
5488.42180,0.04815
5490.35027,0.03850
5492.27874,0.04803
5494.20721,0.06995
5496.13568,0.07131
5498.06415,0.06448
5499.99262,0.07632
5501.92108,0.08400
5503.84955,0.08122
5505.77802,0.08565
5507.70649,0.08585
5509.63496,0.07945
5511.56343,0.07474
5513.49190,0.05906
5515.42037,0.02942
5517.34883,0.01983
5519.27730,0.04684
5521.20577,0.07644
5523.13424,0.08626
5525.06271,0.08562
5526.99118,0.08492
5528.91965,0.08280
5530.84811,0.08291
5532.77658,0.09761
5534.70505,0.12063
5536.63352,0.13199
5538.56199,0.12634
5540.49046,0.11402
5542.41893,0.09723
5544.34740,0.07306
5546.27586,0.05763
5548.20433,0.06700
5550.13280,0.07742
5552.06127,0.06187
5553.98974,0.03902
5555.91821,0.03503
5557.84668,0.05044
5559.77514,0.07018
5561.70361,0.07133
5563.63208,0.07136
5565.56055,0.09598
5567.48902,0.10824
5569.41749,0.09302
5571.34596,0.07322
5573.27443,0.04791
5575.20289,0.01888
5577.13136,-0.00466
5579.05983,-0.00528
5580.98830,0.02642
5582.91677,0.04900
5584.84524,0.03822
5586.77371,0.03338
5588.70217,0.06065
5590.63064,0.09244
5592.55911,0.10534
5594.48758,0.09846
5596.41605,0.07498
5598.34452,0.06685
5600.27299,0.08764
5602.20145,0.09900
5604.12992,0.08077
5606.05839,0.05282
5607.98686,0.04598
5609.91533,0.06420
5611.84380,0.07580
5613.77227,0.06701
5615.70074,0.06640
5617.62920,0.08699
5619.55767,0.10031
5621.48614,0.08860
5623.41461,0.06926
5625.34308,0.06577
5627.27155,0.07979
5629.20002,0.09278
5631.12848,0.09742
5633.05695,0.09250
5634.98542,0.08175
5636.91389,0.08350
5638.84236,0.08351
5640.77083,0.05987
5642.69930,0.04597
5644.62777,0.05401
5646.55623,0.05473
5648.48470,0.06091
5650.41317,0.08443
5652.34164,0.09388
5654.27011,0.08549
5656.19858,0.08075
5658.12705,0.08567
5660.05551,0.10075
5661.98398,0.10882
5663.91245,0.08824
5665.84092,0.05806
5667.76939,0.03908
5669.69786,0.03812
5671.62633,0.07218
5673.55480,0.12418
5675.48326,0.15293
5677.41173,0.16217
5679.34020,0.16847
5681.26867,0.15442
5683.19714,0.12748
5685.12561,0.10796
5687.05408,0.08059
5688.98254,0.05329
5690.91101,0.06648
5692.83948,0.10006
5694.76795,0.09074
5696.69642,0.04849
5698.62489,0.02901
5700.55336,0.03697
5702.48183,0.06573
5704.41029,0.10140
5706.33876,0.10057
5708.26723,0.06569
5710.19570,0.04990
5712.12417,0.04694
5714.05264,0.02740
5715.98111,0.04444
5717.90957,0.09327
5719.83804,0.08875
5721.76651,0.05348
5723.69498,0.06345
5725.62345,0.10682
5727.55192,0.13042
5729.48039,0.12354
5731.40886,0.10940
5733.33732,0.10137
5735.26579,0.10121
5737.19426,0.10398
5739.12273,0.09217
5741.05120,0.06379
5742.97967,0.04567
5744.90814,0.04876
5746.83660,0.05437
5748.76507,0.04168
5750.69354,0.02985
5752.62201,0.04272
5754.55048,0.05375
5756.47895,0.05135
5758.40742,0.06183
5760.33588,0.07813
5762.26435,0.06696
5764.19282,0.04586
5766.12129,0.03935
5768.04976,0.03547
5769.97823,0.02565
5771.90670,0.01611
5773.83517,0.02195
5775.76363,0.03962
5777.69210,0.05785
5779.62057,0.07495
5781.54904,0.09985
5783.47751,0.12426
5785.40598,0.12897
5787.33445,0.13453
5789.26291,0.14831
5791.19138,0.14731
5793.11985,0.12986
5795.04832,0.11739
5796.97679,0.11164
5798.90526,0.09360
5800.83373,0.08850
5802.76220,0.10384
5804.69066,0.09152
5806.61913,0.05664
5808.54760,0.04199
5810.47607,0.04288
5812.40454,0.04694
5814.33301,0.06173
5816.26148,0.07878
5818.18994,0.07790
5820.11841,0.06556
5822.04688,0.05755
5823.97535,0.06519
5825.90382,0.08544
5827.83229,0.08088
5829.76076,0.05942
5831.68923,0.06105
5833.61769,0.06412
5835.54616,0.06246
5837.47463,0.07760
5839.40310,0.09090
5841.33157,0.09153
5843.26004,0.08044
5845.18851,0.04989
5847.11697,0.03674
5849.04544,0.08415
5850.97391,0.14588
5852.90238,0.15274
5854.83085,0.11580
5856.75932,0.08082
5858.68779,0.07748
5860.61626,0.09962
5862.54472,0.09436
5864.47319,0.04665
5866.40166,0.02323
5868.33013,0.05624
5870.25860,0.09639
5872.18707,0.10593
5874.11554,0.10363
5876.04400,0.09646
5877.97247,0.06643
5879.90094,0.02615
5881.82941,0.00284
5883.75788,0.01494
5885.68635,0.05312
5887.61482,0.07749
5889.54329,0.08294
5891.47175,0.09127
5893.40022,0.09213
5895.32869,0.07743
5897.25716,0.06470
5899.18563,0.08109
5901.11410,0.12775
5903.04257,0.14814
5904.97103,0.10617
5906.89950,0.04832
5908.82797,0.03276
5910.75644,0.06088
5912.68491,0.09032
5914.61338,0.09471
5916.54185,0.08905
5918.47032,0.08803
5920.39878,0.08519
5922.32725,0.08951
5924.25572,0.09436
5926.18419,0.08581
5928.11266,0.08202
5930.04113,0.08504
5931.96960,0.07851
5933.89806,0.05886
5935.82653,0.04156
5937.75500,0.04858
5939.68347,0.07163
5941.61194,0.07366
5943.54041,0.04467
5945.46888,0.03188
5947.39734,0.05144
5949.32581,0.06109
5951.25428,0.04633
5953.18275,0.03101
5955.11122,0.04244
5957.03969,0.08791
5958.96816,0.13014
5960.89663,0.13707
5962.82509,0.11738
5964.75356,0.10011
5966.68203,0.10739
5968.61050,0.11368
5970.53897,0.09894
5972.46744,0.10215
5974.39591,0.13344
5976.32437,0.14799
5978.25284,0.13811
5980.18131,0.12434
5982.10978,0.09185
5984.03825,0.04001
5985.96672,0.02387
5987.89519,0.05649
5989.82366,0.08348
5991.75212,0.06811
5993.68059,0.02141
5995.60906,-0.01438
5997.53753,-0.02695
5999.46600,-0.01538
6001.39447,0.03997
6003.32294,0.09322
6005.25140,0.08368
6007.17987,0.06177
6009.10834,0.08263
6011.03681,0.10370
6012.96528,0.09392
6014.89375,0.08961
6016.82222,0.11564
6018.75069,0.14196
6020.67915,0.14688
6022.60762,0.14659
6024.53609,0.13415
6026.46456,0.10352
6028.39303,0.07889
6030.32150,0.08269
6032.24997,0.10388
6034.17843,0.11681
6036.10690,0.11438
6038.03537,0.12043
6039.96384,0.13913
6041.89231,0.12210
6043.82078,0.07547
6045.74925,0.07348
6047.67772,0.11901
6049.60618,0.14290
6051.53465,0.12239
6053.46312,0.10870
6055.39159,0.11680
6057.32006,0.11398
6059.24853,0.09845
6061.17700,0.08740
6063.10546,0.09102
6065.03393,0.12073
6066.96240,0.15548
6068.89087,0.15621
6070.81934,0.13167
6072.74781,0.12616
6074.67628,0.13308
6076.60475,0.12407
6078.53321,0.12990
6080.46168,0.15288
6082.39015,0.16136
6084.31862,0.14668
6086.24709,0.09271
6088.17556,0.03823
6090.10403,0.02369
6092.03249,0.04128
6093.96096,0.07743
6095.88943,0.09372
6097.81790,0.08766
6099.74637,0.07552
6101.67484,0.06260
6103.60331,0.06595
6105.53177,0.07967
6107.46024,0.09000
6109.38871,0.08744
6111.31718,0.05797
6113.24565,0.02225
6115.17412,0.02721
6117.10259,0.07451
6119.03106,0.10537
6120.95952,0.09581
6122.88799,0.07795
6124.81646,0.03235
6126.74493,-0.02679
6128.67340,-0.01113
6130.60187,0.05055
6132.53034,0.07406
6134.45880,0.08486
6136.38727,0.09932
6138.31574,0.07141
6140.24421,0.02082
6142.17268,0.01879
6144.10115,0.05138
6146.02962,0.06907
6147.95809,0.06813
6149.88655,0.06549
6151.81502,0.07004
6153.74349,0.08719
6155.67196,0.12327
6157.60043,0.16480
6159.52890,0.18886
6161.45737,0.16748
6163.38583,0.08770
6165.31430,0.00383
6167.24277,-0.00803
6169.17124,0.02055
6171.09971,0.04146
6173.02818,0.08433
6174.95665,0.12031
6176.88512,0.08978
6178.81358,0.03179
6180.74205,0.01352
6182.67052,0.03011
6184.59899,0.03238
6186.52746,0.00402
6188.45593,-0.03168
6190.38440,-0.02137
6192.31286,0.03642
6194.24133,0.06697
6196.16980,0.04960
6198.09827,0.01862
6200.02674,-0.01261
6201.95521,-0.00306
6203.88368,0.05919
6205.81215,0.08967
6207.74061,0.08917
6209.66908,0.13388
6211.59755,0.17516
6213.52602,0.16203
6215.45449,0.14404
6217.38296,0.12623
6219.31143,0.10854
6221.23989,0.11031
6223.16836,0.09359
6225.09683,0.03166
6227.02530,-0.01672
6228.95377,0.00225
6230.88224,0.06971
6232.81071,0.12176
6234.73918,0.11432
6236.66764,0.07771
6238.59611,0.06920
6240.52458,0.09746
6242.45305,0.13285
6244.38152,0.14673
6246.30999,0.12175
6248.23846,0.08724
6250.16692,0.08371
6252.09539,0.09938
6254.02386,0.09167
6255.95233,0.06194
6257.88080,0.04666
6259.80927,0.04322
6261.73774,0.03345
6263.66621,0.02917
6265.59467,0.05355
6267.52314,0.08274
6269.45161,0.06568
6271.38008,0.02175
6273.30855,-0.00386
6275.23702,0.00748
6277.16549,0.05400
6279.09395,0.10974
6281.02242,0.12628
6282.95089,0.11794
6284.87936,0.13449
6286.80783,0.14826
6288.73630,0.13015
6290.66477,0.10707
6292.59323,0.12175
6294.52170,0.14825
6296.45017,0.13116
6298.37864,0.07948
6300.30711,0.02364
6302.23558,0.03620
6304.16405,0.11533
6306.09252,0.14113
6308.02098,0.12559
6309.94945,0.13600
6311.87792,0.13851
6313.80639,0.11846
6315.73486,0.10434
6317.66333,0.09726
6319.59180,0.08910
6321.52026,0.08462
6323.44873,0.11956
6325.37720,0.19741
6327.30567,0.23241
6329.23414,0.17358
6331.16261,0.09960
6333.09108,0.07974
6335.01955,0.09856
6336.94801,0.12589
6338.87648,0.14297
6340.80495,0.14765
6342.73342,0.12849
6344.66189,0.07626
6346.59036,0.04833
6348.51883,0.09515
6350.44729,0.13710
6352.37576,0.11497
6354.30423,0.11504
6356.23270,0.13323
6358.16117,0.09220
6360.08964,0.03253
6362.01811,0.03315
6363.94658,0.09046
6365.87504,0.12758
6367.80351,0.11086
6369.73198,0.09862
6371.66045,0.07287
6373.58892,0.02227
6375.51739,0.02689
6377.44586,0.09678
6379.37432,0.15775
6381.30279,0.15307
6383.23126,0.09363
6385.15973,0.04228
6387.08820,0.02990
6389.01667,0.02079
6390.94514,0.01946
6392.87361,0.09011
6394.80207,0.18309
6396.73054,0.22512
6398.65901,0.22250
6400.58748,0.14925
6402.51595,0.05963
6404.44442,0.03508
6406.37289,0.07157
6408.30135,0.14659
6410.22982,0.20713
6412.15829,0.21647
6414.08676,0.18976
6416.01523,0.13174
6417.94370,0.05533
6419.87217,0.00228
6421.80064,-0.01058
6423.72910,0.02779
6425.65757,0.08830
6427.58604,0.11006
6429.51451,0.12736
6431.44298,0.15944
6433.37145,0.11206
6435.29992,0.00042
6437.22838,-0.03432
6439.15685,0.01837
6441.08532,0.05548
6443.01379,0.06348
6444.94226,0.04433
6446.87073,0.02072
6448.79920,0.02417
6450.72766,0.03784
6452.65613,0.02769
6454.58460,-0.00287
6456.51307,-0.00047
6458.44154,0.03760
6460.37001,0.03623
6462.29848,-0.02796
6464.22695,-0.06870
6466.15541,-0.02508
6468.08388,0.03108
6470.01235,0.04780
6471.94082,0.07399
6473.86929,0.11806
6475.79776,0.11426
6477.72623,0.05294
6479.65469,-0.00037
6481.58316,-0.02046
6483.51163,-0.00300
6485.44010,0.03411
6487.36857,0.05859
6489.29704,0.09624
6491.22551,0.13957
6493.15398,0.09610
6495.08244,0.03219
6497.01091,0.04415
6498.93938,0.06118
6500.86785,0.05716
6502.79632,0.03819
6504.72479,-0.01061
6506.65326,-0.02690
6508.58172,0.01158
6510.51019,0.07110
6512.43866,0.12260
6514.36713,0.09189
6516.29560,0.02110
6518.22407,0.02414
6520.15254,0.05228
6522.08101,0.03195
6524.00947,-0.02410
6525.93794,-0.07221
6527.86641,-0.07556
6529.79488,-0.01643
6531.72335,0.07227
6533.65182,0.10974
6535.58029,0.10817
6537.50875,0.12822
6539.43722,0.12986
6541.36569,0.08047
6543.29416,0.04168
6545.22263,0.04729
6547.15110,0.07509
6549.07957,0.10864
6551.00804,0.11770
6552.93650,0.10314
6554.86497,0.10033
6556.79344,0.07944
6558.72191,0.02343
6560.65038,0.03435
6562.57885,0.16029
6564.50732,0.27076
6566.43578,0.23625
6568.36425,0.11337
6570.29272,0.04383
6572.22119,0.06476
6574.14966,0.10246
6576.07813,0.11480
6578.00660,0.08193
6579.93507,-0.02301
6581.86353,-0.09717
6583.79200,-0.00261
6585.72047,0.15312
6587.64894,0.20599
6589.57741,0.16657
6591.50588,0.07163
6593.43435,-0.05958
6595.36281,-0.09292
6597.29128,-0.00158
6599.21975,0.09498
6601.14822,0.18536
6603.07669,0.25683
6605.00516,0.23248
6606.93363,0.12954
6608.86210,0.04103
6610.79056,0.03462
6612.71903,0.08840
6614.64750,0.11460
6616.57597,0.09174
6618.50444,0.10248
6620.43291,0.16234
6622.36138,0.17577
6624.28984,0.12056
6626.21831,0.06218
6628.14678,0.02553
6630.07525,0.03118
6632.00372,0.06869
6633.93219,0.07556
6635.86066,0.05316
6637.78912,0.08630
6639.71759,0.15535
6641.64606,0.15733
6643.57453,0.09043
6645.50300,0.00955
6647.43147,-0.06241
6649.35994,-0.07444
6651.28841,-0.02932
6653.21687,-0.01413
6655.14534,-0.00555
6657.07381,0.08114
6659.00228,0.13976
6660.93075,0.11278
6662.85922,0.11138
6664.78769,0.13249
6666.71615,0.09826
6668.64462,0.06332
6670.57309,0.11156
6672.50156,0.14897
6674.43003,0.11571
6676.35850,0.08167
6678.28697,0.04475
6680.21544,0.04057
6682.14390,0.11301
6684.07237,0.17412
6686.00084,0.15815
6687.92931,0.09683
6689.85778,0.05411
6691.78625,0.06125
6693.71472,0.07334
6695.64318,0.10631
6697.57165,0.18589
6699.50012,0.24970
6701.42859,0.25334
6703.35706,0.19653
6705.28553,0.11455
6707.21400,0.06929
6709.14247,0.07259
6711.07093,0.05492
6712.99940,0.03663
6714.92787,0.10511
6716.85634,0.20836
6718.78481,0.22592
6720.71328,0.15392
6722.64175,0.10055
6724.57021,0.13187
6726.49868,0.19014
6728.42715,0.17449
6730.35562,0.06262
6732.28409,0.00283
6734.21256,0.06119
6736.14103,0.09400
6738.06950,0.05744
6739.99796,0.04526
6741.92643,0.05939
6743.85490,0.02838
6745.78337,-0.02351
6747.71184,0.01055
6749.64031,0.09682
6751.56878,0.11676
6753.49724,0.12788
6755.42571,0.14651
6757.35418,0.12391
6759.28265,0.08203
6761.21112,0.09199
6763.13959,0.19331
6765.06806,0.23242
6766.99653,0.12845
6768.92499,0.03355
6770.85346,0.05070
6772.78193,0.11543
6774.71040,0.13563
6776.63887,0.10592
6778.56734,0.08088
6780.49581,0.10482
6782.42427,0.15376
6784.35274,0.16963
6786.28121,0.16880
6788.20968,0.17554
6790.13815,0.16271
6792.06662,0.12658
6793.99509,0.14273
6795.92355,0.17368
6797.85202,0.09093
6799.78049,-0.04380
6801.70896,-0.07660
6803.63743,-0.03911
6805.56590,-0.07161
6807.49437,-0.12522
6809.42284,-0.14895
6811.35130,-0.15222
6813.27977,-0.05608
6815.20824,0.07381
6817.13671,0.05427
6819.06518,-0.02733
6820.99365,-0.02411
6822.92212,-0.00439
6824.85058,-0.01225
6826.77905,0.00864
6828.70752,0.01116
6830.63599,0.00362
6832.56446,0.02157
6834.49293,-0.00078
6836.42140,-0.05920
6838.34987,-0.05481
6840.27833,0.00245
6842.20680,0.05668
6844.13527,0.11095
6846.06374,0.11136
6847.99221,-0.00233
6849.92068,-0.10084
6851.84915,-0.06947
6853.77761,-0.00315
6855.70608,0.03958
6857.63455,0.04141
6859.56302,-0.00875
6861.49149,-0.03983
6863.41996,0.01768
6865.34843,0.09727
6867.27690,0.13318
6869.20536,0.17769
6871.13383,0.25381
6873.06230,0.25304
6874.99077,0.21679
6876.91924,0.25475
6878.84771,0.26249
6880.77618,0.19292
6882.70464,0.16426
6884.63311,0.18936
6886.56158,0.17632
6888.49005,0.10150
6890.41852,0.05033
6892.34699,0.04108
6894.27546,0.04078
6896.20393,0.07214
6898.13239,0.13926
6900.06086,0.17240
6901.98933,0.14061
6903.91780,0.11179
6905.84627,0.13202
6907.77474,0.11266
6909.70321,0.04333
6911.63167,0.04815
6913.56014,0.08158
6915.48861,0.01450
6917.41708,-0.04810
6919.34555,0.01704
6921.27402,0.11107
6923.20249,0.10830
6925.13096,0.07852
6927.05942,0.11024
6928.98789,0.15442
6930.91636,0.13392
6932.84483,0.09465
6934.77330,0.10059
6936.70177,0.13839
6938.63024,0.20878
6940.55870,0.20001
6942.48717,0.04646
6944.41564,-0.03249
6946.34411,0.06006
6948.27258,0.20106
6950.20105,0.23478
6952.12952,0.15032
6954.05799,0.00785
6955.98645,-0.11955
6957.91492,-0.10511
6959.84339,0.02494
6961.77186,0.09432
6963.70033,0.01995
6965.62880,-0.09943
6967.55727,-0.09221
6969.48573,0.10025
6971.41420,0.21661
6973.34267,0.03442
6975.27114,-0.22435
6977.19961,-0.28148
6979.12808,-0.19418
6981.05655,-0.11765
6982.98501,-0.09976
6984.91348,-0.05086
6986.84195,0.01650
6988.77042,0.02222
6990.69889,0.02705
6992.62736,0.09003
6994.55583,0.19630
6996.48430,0.30565
6998.41276,0.33831
7000.34123,0.27540
7002.26970,0.17641
7004.19817,0.10420
7006.12664,0.04891
7008.05511,-0.06657
7009.98358,-0.16446
7011.91204,-0.17532
7013.84051,-0.11303
7015.76898,0.00935
7017.69745,0.10756
7019.62592,0.13672
7021.55439,0.17814
7023.48286,0.25897
7025.41133,0.23287
7027.33979,0.08561
7029.26826,0.02362
7031.19673,0.09104
7033.12520,0.15228
7035.05367,0.14851
7036.98214,0.09860
7038.91061,0.04910
7040.83907,0.05807
7042.76754,0.09587
7044.69601,0.03737
7046.62448,-0.02700
7048.55295,0.00816
7050.48142,0.02819
7052.40989,-0.02920
7054.33836,0.00474
7056.26682,0.19277
7058.19529,0.30097
7060.12376,0.23382
7062.05223,0.09142
7063.98070,0.01489
7065.90917,0.08505
7067.83764,0.15291
7069.76610,0.16249
7071.69457,0.18896
7073.62304,0.12610
7075.55151,-0.03702
7077.47998,-0.09549
7079.40845,0.01824
7081.33692,0.15381
7083.26539,0.20334
7085.19385,0.30508
7087.12232,0.41504
7089.05079,0.32560
7090.97926,0.12272
7092.90773,-0.06986
7094.83620,-0.14409
7096.76467,0.01434
7098.69313,0.20827
7100.62160,0.16256
7102.55007,0.02741
7104.47854,0.00729
7106.40701,0.04679
7108.33548,-0.02729
7110.26395,-0.13998
7112.19242,-0.14709
7114.12088,-0.00280
7116.04935,0.15459
7117.97782,0.10570
7119.90629,-0.01704
7121.83476,0.01921
7123.76323,0.17120
7125.69170,0.28894
7127.62016,0.25659
7129.54863,0.16235
7131.47710,0.10875
7133.40557,0.11500
7135.33404,0.19660
7137.26251,0.21673
7139.19098,0.08520
7141.11944,-0.02428
7143.04791,0.03263
7144.97638,0.12232
7146.90485,0.04742
7148.83332,-0.07000
7150.76179,-0.07879
7152.69026,-0.01672
7154.61873,0.03922
7156.54719,0.05630
7158.47566,0.04939
7160.40413,0.07639
7162.33260,0.15429
7164.26107,0.18198
7166.18954,0.10166
7168.11801,0.06972
7170.04647,0.18320
7171.97494,0.18608
7173.90341,0.03316
7175.83188,0.03666
7177.76035,0.18972
7179.68882,0.21680
7181.61729,0.13038
7183.54576,0.12074
7185.47422,0.18268
7187.40269,0.13979
7189.33116,-0.04439
7191.25963,-0.16174
7193.18810,-0.00476
7195.11657,0.20166
7197.04504,0.26800
7198.97350,0.29143
7200.90197,0.32551
7202.83044,0.29581
7204.75891,0.17278
7206.68738,0.07925
7208.61585,0.12916
7210.54432,0.25781
7212.47279,0.29395
7214.40125,0.16094
7216.32972,-0.09833
7218.25819,-0.35288
7220.18666,-0.39274
7222.11513,-0.27034
7224.04360,-0.14265
7225.97207,-0.07225
7227.90053,-0.06999
7229.82900,-0.12751
7231.75747,-0.10658
7233.68594,0.04202
7235.61441,0.14276
7237.54288,0.13039
7239.47135,0.14409
7241.39982,0.23145
7243.32828,0.20275
7245.25675,0.12517
7247.18522,0.16985
7249.11369,0.27711
7251.04216,0.33203
7252.97063,0.21218
7254.89910,0.07347
7256.82756,0.08254
7258.75603,0.10382
7260.68450,0.04245
7262.61297,-0.05692
7264.54144,-0.13847
7266.46991,-0.15954
7268.39838,-0.06602
7270.32685,0.14452
7272.25531,0.33219
7274.18378,0.35349
7276.11225,0.26227
7278.04072,0.08501
7279.96919,-0.04391
7281.89766,0.01740
7283.82613,0.05213
7285.75459,0.00913
7287.68306,0.07182
7289.61153,0.21604
7291.54000,0.25733
7293.46847,0.23273
7295.39694,0.17171
7297.32541,0.08824
7299.25387,0.09636
7301.18234,0.16629
7303.11081,0.22969
7305.03928,0.28133
7306.96775,0.17629
7308.89622,-0.14292
7310.82469,-0.22574
7312.75316,-0.06218
7314.68162,-0.00976
7316.61009,-0.06787
7318.53856,-0.07914
7320.46703,-0.09621
7322.39550,-0.11454
7324.32397,-0.03717
7326.25244,0.03052
7328.18090,-0.02231
7330.10937,-0.11883
7332.03784,-0.11735
7333.96631,-0.01477
7335.89478,0.10417
7337.82325,0.18593
7339.75172,0.19618
7341.68019,0.08940
7343.60865,-0.07650
7345.53712,-0.21804
7347.46559,-0.22362
7349.39406,-0.07122
7351.32253,0.03702
7353.25100,-0.03231
7355.17947,-0.13600
7357.10793,-0.21714
7359.03640,-0.27809
7360.96487,-0.25427
7362.89334,-0.13816
7364.82181,0.07174
7366.75028,0.22484
7368.67875,0.23055
7370.60722,0.16215
7372.53568,0.10909
7374.46415,0.15302
7376.39262,0.16471
7378.32109,0.02197
7380.24956,0.01015
7382.17803,0.28750
7384.10650,0.55512
7386.03496,0.50605
7387.96343,0.32265
7389.89190,0.24889
7391.82037,0.18915
7393.74884,0.08844
7395.67731,0.02722
7397.60578,0.01497
7399.53425,0.06348
7401.46271,0.10279
7403.39118,-0.00302
7405.31965,-0.06449
7407.24812,0.06059
7409.17659,0.11220
7411.10506,0.05758
7413.03353,0.14239
7414.96199,0.29918
7416.89046,0.18340
7418.81893,-0.12151
7420.74740,-0.04862
7422.67587,0.23064
7424.60434,0.39886
7426.53281,0.45195
7428.46128,0.43799
7430.38974,0.30083
7432.31821,0.05038
7434.24668,-0.12380
7436.17515,-0.08271
7438.10362,0.14460
7440.03209,0.33967
7441.96056,0.28058
7443.88902,0.04541
7445.81749,-0.10735
7447.74596,-0.15802
7449.67443,-0.17437
7451.60290,-0.13356
7453.53137,-0.02376
7455.45984,0.10271
7457.38831,0.16217
7459.31677,0.10920
7461.24524,0.09604
7463.17371,0.25213
7465.10218,0.33992
7467.03065,0.20770
7468.95912,0.08394
7470.88759,0.03778
7472.81605,-0.02076
7474.74452,-0.06768
7476.67299,-0.11639
7478.60146,-0.14278
7480.52993,0.02828
7482.45840,0.21341
7484.38687,0.02644
7486.31533,-0.23842
7488.24380,-0.09928
7490.17227,0.29769
7492.10074,0.40553
7494.02921,0.25737
7495.95768,0.17120
7497.88615,0.17905
